DTS Sentinel unit serial number:	SN413079Multiplexer serial number:	ORYXHardware model number:	OX4-SRSoftware version number:	ORYX F/W v4.00 Oryx Data Collector v3.7.2.0data status	okinstallation	princeton_trtdifferential loss correction	single-endedforward channel	channel 4reverse channel	N/Adate	2019/09/16time	21:17:35forward acquisition time	60.00reverse acquisition time	0.00gamma	496.2192k internal	0.2313k external	0.2313temperature offset calibration	0.9964default loss term (dB/km)	0.3790temperature slope calibration	1.0000multiplexer offset coefficient	1.0000multiplexer slope coefficient	1.0000fibre end	0.00T internal ref (°C)	31.69T ext. ref 1 (°C)	0.05T ext. ref 2 (°C)	25.50length (m)	temperature (°C)	Stokes	anti-Stokes-747.200	-200.000	0.056	0.313
-746.185	-200.000	-0.013	0.063
-745.171	800.000	0.062	0.232
-744.156	-77.759	0.098	-0.035
-743.142	-79.454	0.129	-0.044
-742.127	-84.659	-0.141	0.045
-741.112	800.000	-0.175	0.572
-740.098	800.000	-0.078	0.342
-739.083	-101.561	-0.222	0.055
-738.069	-200.000	-0.047	0.000
-737.054	-62.949	0.291	-0.122
-736.039	-32.835	-0.264	0.149
-735.025	206.794	-0.109	0.172
-734.010	35.481	0.243	0.216
-732.996	174.098	-0.174	-0.255
-731.981	-41.702	0.165	-0.086
-730.966	-58.525	0.341	0.150
-729.952	-84.025	-0.162	-0.052
-728.937	-134.408	-0.035	0.004
-727.923	-143.966	-0.381	-0.036
-726.908	-37.368	0.346	-0.187
-725.894	-157.786	-0.130	-0.008
-724.879	-200.000	-0.035	0.156
-723.864	44.115	-0.192	0.178
-722.850	-32.367	-0.142	-0.080
-721.835	-200.000	0.012	0.145
-720.821	-102.050	0.149	-0.036
-719.806	-60.747	0.204	0.088
-718.791	101.062	-0.303	-0.357
-717.777	488.819	0.022	-0.051
-716.762	-200.000	-0.010	-0.172
-715.748	112.054	0.080	-0.098
-714.733	149.615	-0.068	0.094
-713.718	165.671	0.141	0.202
-712.704	-200.000	-0.035	0.507
-711.689	800.000	0.063	-0.237
-710.675	-133.213	-0.207	0.027
-709.660	377.988	-0.043	-0.088
-708.645	592.884	0.041	-0.103
-707.631	66.803	0.033	0.034
-706.616	-200.000	-0.031	-0.258
-705.602	42.087	0.236	-0.217
-704.587	-64.156	-0.479	-0.198
-703.572	-149.172	-0.142	-0.012
-702.558	800.000	0.090	0.358
-701.543	-200.000	0.007	0.356
-700.529	-88.640	0.032	0.010
-699.514	-56.940	0.238	-0.107
-698.499	-200.000	-0.005	-0.209
-697.485	-182.911	-0.183	0.003
-696.470	-134.484	-0.494	-0.061
-695.456	800.000	-0.067	0.240
-694.441	170.987	-0.107	0.155
-693.426	-20.152	0.299	-0.186
-692.412	-200.000	0.068	-0.418
-691.397	-35.169	-0.062	-0.034
-690.383	286.712	0.090	0.165
-689.368	-200.000	0.015	-0.163
-688.354	123.570	0.064	0.081
-687.339	-114.320	0.156	-0.030
-686.324	167.718	0.199	-0.286
-685.310	46.114	-0.231	-0.217
-684.295	-200.000	-0.014	-0.083
-683.281	117.846	-0.022	-0.028
-682.266	384.734	0.067	-0.139
-681.251	466.650	-0.181	-0.410
-680.237	-150.126	0.210	0.016
-679.222	14.382	-0.199	0.157
-678.208	203.325	-0.129	0.201
-677.193	702.308	-0.020	-0.053
-676.178	-176.703	-0.287	0.007
-675.164	-11.490	-0.183	0.122
-674.149	60.175	-0.355	-0.356
-673.135	178.630	-0.096	0.142
-672.120	800.000	0.079	0.296
-671.105	-14.860	0.170	-0.111
-670.091	51.853	0.038	0.036
-669.076	146.717	0.077	-0.105
-668.062	-85.108	-0.252	-0.080
-667.047	-7.751	-0.208	0.142
-666.032	-143.608	0.301	0.029
-665.018	-157.881	0.252	0.015
-664.003	-200.000	0.037	0.212
-662.989	-62.940	0.119	-0.050
-661.974	-17.428	-0.153	0.097
-660.959	93.517	0.157	-0.180
-659.945	-10.123	-0.076	0.051
-658.930	449.761	-0.080	0.178
-657.916	-121.548	-0.277	0.046
-656.901	-64.473	-0.173	0.071
-655.886	74.690	0.119	-0.126
-654.872	-200.000	0.071	-0.362
-653.857	-141.462	0.284	0.029
-652.843	-170.262	-0.181	0.006
-651.828	800.000	0.021	0.091
-650.814	-131.074	-0.219	-0.029
-649.799	192.210	-0.010	-0.015
-648.784	-91.026	0.246	-0.071
-647.770	580.367	-0.170	-0.421
-646.755	-83.665	0.236	-0.076
-645.741	377.685	-0.201	0.415
-644.726	-22.997	0.069	-0.042
-643.711	-161.815	0.203	-0.010
-642.697	-19.075	-0.277	0.174
-641.682	-87.043	0.197	-0.061
-640.668	800.000	-0.025	0.084
-639.653	-200.000	0.012	-0.189
-638.638	-12.853	-0.273	0.180
-637.624	800.000	-0.066	0.227
-636.609	-21.889	-0.217	-0.133
-635.595	-200.000	-0.028	-0.448
-634.580	-49.215	0.159	-0.077
-633.565	188.520	0.089	0.135
-632.551	800.000	-0.054	0.167
-631.536	-200.000	0.016	-0.197
-630.522	-124.265	0.362	0.057
-629.507	-113.957	-0.381	-0.075
-628.492	800.000	0.037	0.134
-627.478	-13.016	-0.264	-0.173
-626.463	800.000	0.086	-0.334
-625.449	199.714	-0.047	0.073
-624.434	465.037	-0.111	-0.250
-623.419	40.074	-0.142	-0.129
-622.405	489.594	-0.054	-0.125
-621.390	-47.545	-0.160	0.078
-620.376	57.543	-0.122	0.120
-619.361	213.896	0.031	-0.049
-618.346	-200.000	0.002	0.044
-617.332	-33.202	0.088	-0.049
-616.317	800.000	-0.006	-0.017
-615.303	-110.543	-0.068	-0.014
-614.288	-71.805	0.186	-0.070
-613.273	-179.324	-0.199	0.004
-612.259	-66.107	0.235	-0.095
-611.244	-155.820	-0.418	-0.027
-610.230	-200.000	-0.012	-0.127
-609.215	209.620	-0.121	0.191
-608.201	800.000	0.088	-0.258
-607.186	800.000	-0.094	-0.269
-606.171	102.158	-0.089	-0.105
-605.157	149.652	-0.155	0.212
-604.142	79.912	0.267	-0.290
-603.128	-200.000	-0.015	-0.094
-602.113	-146.214	-0.181	0.016
-601.098	-200.000	-0.067	-0.320
-600.084	-50.260	-0.138	0.066
-599.069	-15.999	-0.052	0.034
-598.055	72.665	-0.100	-0.105
-597.040	-111.093	-0.039	-0.008
-596.025	-130.516	0.154	0.021
-595.011	-80.033	0.366	-0.124
-593.996	-118.480	-0.270	0.048
-592.982	429.618	-0.025	0.055
-591.967	-142.621	0.456	0.045
-590.952	-119.505	0.395	0.069
-589.938	109.980	0.053	-0.064
-588.923	800.000	0.069	-0.252
-587.909	451.602	0.108	-0.240
-586.894	153.286	-0.175	-0.241
-585.879	191.052	-0.045	0.068
-584.865	-88.454	-0.314	-0.094
-583.850	800.000	0.096	0.360
-582.836	800.000	-0.046	-0.131
-581.821	-9.772	-0.219	-0.147
-580.806	-200.000	0.030	0.249
-579.792	800.000	0.047	-0.160
-578.777	161.013	-0.144	0.202
-577.763	88.081	-0.083	-0.093
-576.748	787.487	0.097	0.268
-575.733	147.684	-0.244	-0.331
-574.719	-108.953	-0.409	0.088
-573.704	-58.864	0.157	-0.069
-572.690	69.558	0.054	-0.056
-571.675	279.783	-0.105	0.189
-570.661	-200.000	-0.018	0.128
-569.646	800.000	-0.037	-0.126
-568.631	-24.262	0.305	-0.184
-567.617	-110.511	0.204	0.043
-566.602	-90.168	-0.127	-0.037
-565.588	-200.000	0.018	-0.326
-564.573	49.486	-0.044	-0.042
-563.558	-200.000	0.003	0.239
-562.544	-2.847	-0.284	-0.200
-561.529	65.166	0.109	-0.111
-560.515	173.681	-0.108	0.158
-559.500	247.408	0.118	0.201
-558.485	-190.004	0.419	0.005
-557.471	-19.129	0.196	0.123
-556.456	-53.173	0.109	0.051
-555.442	24.872	-0.136	-0.114
-554.427	0.288	0.122	0.088
-553.412	-200.000	0.007	-0.121
-552.398	-200.000	-0.011	0.305
-551.383	-22.128	0.316	-0.193
-550.369	610.967	-0.117	0.294
-549.354	-111.410	-0.157	0.032
-548.339	-116.478	0.463	0.086
-547.325	146.211	0.077	-0.104
-546.310	5.555	0.148	0.110
-545.296	-200.000	-0.038	-0.188
-544.281	-106.600	0.228	-0.051
-543.266	375.273	-0.065	-0.134
-542.252	-200.000	-0.011	-0.526
-541.237	611.572	0.064	-0.160
-540.223	-71.719	-0.312	0.117
-539.208	65.158	0.096	0.097
-538.193	26.588	0.207	-0.174
-537.179	195.132	0.016	-0.024
-536.164	-200.000	0.046	-0.204
-535.150	-6.550	0.292	0.200
-534.135	468.338	0.112	-0.252
-533.121	524.118	0.116	0.273
-532.106	30.407	0.089	0.077
-531.091	-65.174	0.212	-0.086
-530.077	-106.184	-0.013	-0.003
-529.062	-150.032	-0.052	0.004
-528.048	-168.601	-0.509	-0.019
-527.033	-72.764	-0.088	0.032
-526.018	122.165	0.111	-0.139
-525.004	-200.000	0.040	0.442
-523.989	118.498	0.219	-0.272
-522.975	737.447	-0.167	0.450
-521.960	-85.254	-0.329	0.103
-520.945	-200.000	-0.027	-0.212
-519.931	-200.000	-0.015	-0.070
-518.916	-13.718	-0.044	-0.028
-517.902	800.000	0.066	0.196
-516.887	800.000	0.033	0.143
-515.872	-200.000	0.015	0.296
-514.858	-112.660	0.325	0.065
-513.843	176.985	-0.202	-0.295
-512.829	473.669	0.013	0.028
-511.814	-96.805	-0.333	-0.088
-510.799	64.498	-0.090	0.091
-509.785	-200.000	0.031	0.147
-508.770	-200.000	0.030	0.245
-507.756	114.639	-0.051	-0.063
-506.741	800.000	-0.028	-0.122
-505.726	50.051	-0.068	-0.064
-504.712	630.606	-0.079	-0.201
-503.697	-200.000	-0.016	0.164
-502.683	78.463	-0.226	0.242
-501.668	38.548	0.145	0.130
-500.653	281.699	-0.127	0.229
-499.639	-128.966	-0.241	-0.034
-498.624	-200.000	0.013	-0.140
-497.610	-40.486	0.250	-0.130
-496.595	-200.000	0.093	0.000
-495.581	-80.367	-0.251	0.084
-494.566	25.641	-0.078	-0.065
-493.551	-54.915	-0.129	0.058
-492.537	-161.900	-0.086	-0.004
-491.522	-200.000	0.059	0.390
-490.508	-82.341	0.313	0.102
-489.493	-104.420	0.352	0.082
-488.478	536.827	-0.196	-0.468
-487.464	-151.397	-0.129	0.010
-486.449	-48.718	0.074	0.036
-485.435	-133.686	0.198	0.025
-484.420	-103.146	-0.090	0.021
-483.405	678.085	0.039	0.103
-482.391	-144.757	-0.189	0.017
-481.376	800.000	0.036	-0.148
-480.362	268.085	-0.116	-0.204
-479.347	-200.000	-0.079	-0.456
-478.332	800.000	-0.039	0.140
-477.318	384.839	0.087	-0.180
-476.303	379.886	0.051	0.104
-475.289	800.000	0.047	0.184
-474.274	-115.744	0.072	-0.014
-473.259	11.817	-0.247	0.191
-472.245	-200.000	0.016	0.443
-471.230	51.447	-0.098	0.093
-470.216	-121.738	0.215	-0.036
-469.201	-200.000	-0.011	0.183
-468.186	-200.000	0.137	0.000
-467.172	75.649	-0.177	0.187
-466.157	-80.124	0.183	0.062
-465.143	-200.000	-0.027	0.144
-464.128	-52.429	-0.303	-0.141
-463.113	207.351	-0.112	0.175
-462.099	-146.356	-0.303	0.027
-461.084	111.537	-0.124	0.150
-460.070	-34.552	-0.388	0.213
-459.055	-200.000	0.444	0.000
-458.040	722.858	0.085	-0.226
-457.026	-200.000	-0.015	-0.209
-456.011	-127.135	0.152	-0.022
-454.997	-200.000	0.001	0.328
-453.982	-163.029	0.179	-0.009
-452.968	-113.105	0.287	0.057
-451.953	-129.235	0.233	-0.033
-450.938	-147.027	0.066	-0.006
-449.924	-200.000	0.003	0.262
-448.909	-200.000	-0.045	0.269
-447.895	17.213	-0.284	-0.226
-446.880	-104.772	-0.043	-0.010
-445.865	99.530	-0.071	-0.083
-444.851	-103.278	0.155	0.037
-443.836	800.000	-0.076	-0.275
-442.822	51.694	-0.184	0.175
-441.807	-139.097	0.480	-0.052
-440.792	-30.854	-0.023	0.013
-439.778	-68.124	-0.198	-0.077
-438.763	-200.000	-0.003	0.181
-437.749	-200.000	0.049	0.504
-436.734	-147.188	-0.424	-0.036
-435.719	-22.548	0.133	-0.081
-434.705	-26.136	0.449	0.265
-433.690	219.438	-0.130	-0.208
-432.676	625.491	-0.067	-0.171
-431.661	-47.683	0.057	0.028
-430.646	-200.000	0.007	0.114
-429.632	800.000	-0.087	0.296
-428.617	-11.967	0.205	-0.134
-427.603	-141.260	-0.145	0.015
-426.588	128.301	-0.108	0.138
-425.573	122.176	-0.138	-0.173
-424.559	73.248	-0.173	-0.181
-423.544	482.101	0.122	0.277
-422.530	48.994	0.308	-0.289
-421.515	-96.001	0.117	0.031
-420.500	-49.752	0.123	0.058
-419.486	-200.000	-0.054	0.274
-418.471	-88.977	-0.277	0.082
-417.457	74.001	0.231	0.243
-416.442	-120.395	-0.078	0.013
-415.428	-29.406	-0.063	0.036
-414.413	800.000	-0.044	-0.125
-413.398	-200.000	-0.361	0.002
-412.384	800.000	0.192	-0.640
-411.369	140.435	-0.168	0.223
-410.355	-200.000	-0.047	-0.369
-409.340	-4.786	-0.184	0.127
-408.325	-150.714	-0.037	-0.003
-407.311	-133.337	0.146	-0.018
-406.296	-12.139	-0.186	-0.122
-405.282	329.162	0.038	0.074
-404.267	800.000	0.086	-0.325
-403.252	-69.674	0.033	0.013
-402.238	-200.000	-0.007	0.150
-401.223	-89.878	-0.371	0.109
-400.209	-51.281	-0.152	0.071
-399.194	-55.979	0.125	-0.056
-398.179	61.720	0.249	-0.248
-397.165	-52.176	0.093	0.043
-396.150	-175.552	0.065	0.002
-395.136	388.507	0.087	-0.181
-394.121	-48.590	-0.143	-0.069
-393.106	-9.946	-0.199	-0.133
-392.092	79.049	-0.334	-0.358
-391.077	-94.456	-0.414	0.113
-390.063	-35.247	0.237	-0.129
-389.048	-200.000	-0.041	0.281
-388.033	-78.992	-0.248	-0.084
-387.019	800.000	-0.068	0.194
-386.004	-137.706	-0.218	0.024
-384.990	29.810	-0.139	0.119
-383.975	-200.000	-0.019	0.229
-382.960	139.587	-0.286	-0.376
-381.946	-200.000	0.021	-0.103
-380.931	-73.392	0.131	0.048
-379.917	800.000	0.006	0.024
-378.902	106.540	0.007	-0.009
-377.888	136.291	0.173	0.225
-376.873	631.559	0.032	0.081
-375.858	5.329	0.421	0.311
-374.844	-82.455	0.351	-0.114
-373.829	-42.436	-0.321	-0.164
-372.815	800.000	0.057	0.223
-371.800	800.000	-0.055	0.170
-370.785	-200.000	0.018	-0.329
-369.771	-200.000	0.003	-0.281
-368.756	65.275	0.072	-0.073
-367.742	-58.086	-0.068	0.030
-366.727	-200.000	0.004	0.055
-365.712	-200.000	0.010	0.160
-364.698	-136.856	0.186	-0.021
-363.683	69.125	-0.269	-0.276
-362.669	155.324	-0.084	0.115
-361.654	-111.418	0.058	-0.012
-360.639	-200.000	-0.182	0.001
-359.625	216.647	-0.041	0.066
-358.610	-117.124	-0.077	0.014
-357.596	-79.918	-0.106	0.035
-356.581	-19.930	-0.324	-0.200
-355.566	-75.523	0.267	-0.095
-354.552	800.000	0.009	0.037
-353.537	149.515	0.167	0.226
-352.523	-200.000	0.006	-0.195
-351.508	57.648	0.235	-0.230
-350.493	-61.959	0.105	-0.044
-349.479	-200.000	0.000	-0.144
-348.464	-24.494	0.208	-0.124
-347.450	110.591	-0.175	0.210
-346.435	155.645	-0.142	0.195
-345.420	-53.266	-0.079	0.036
-344.406	30.864	0.322	-0.275
-343.391	-200.000	-0.004	0.075
-342.377	50.463	-0.274	0.259
-341.362	618.750	0.040	-0.101
-340.348	-85.610	0.287	-0.089
-339.333	-43.744	-0.216	-0.109
-338.318	223.705	0.131	-0.211
-337.304	800.000	0.026	0.086
-336.289	-79.556	0.075	0.025
-335.275	118.758	0.043	-0.052
-334.260	743.217	-0.041	-0.110
-333.245	-200.000	0.004	0.376
-332.231	53.187	0.189	0.181
-331.216	153.518	-0.101	0.138
-330.202	-200.000	0.085	-0.515
-329.187	461.787	0.147	-0.327
-328.172	580.861	-0.076	-0.185
-327.158	-84.883	-0.307	0.096
-326.143	-200.000	-0.022	0.103
-325.129	-200.000	-0.005	-0.158
-324.114	68.548	-0.101	0.103
-323.099	-128.072	0.068	-0.010
-322.085	461.507	-0.104	0.231
-321.070	-200.000	-0.019	0.230
-320.056	-93.713	0.226	0.062
-319.041	-147.547	0.441	0.037
-318.026	46.364	0.272	-0.252
-317.012	-165.699	0.138	-0.006
-315.997	-177.223	0.206	0.005
-314.983	-200.000	-0.060	0.426
-313.968	-142.520	-0.217	0.021
-312.953	142.773	0.104	0.138
-311.939	-151.431	-0.450	-0.033
-310.924	6.103	0.375	-0.277
-309.910	-167.161	-0.204	-0.008
-308.895	32.955	-0.252	0.218
-307.880	-114.303	-0.227	0.044
-306.866	38.551	0.066	0.059
-305.851	-200.000	0.012	0.070
-304.837	270.223	-0.079	-0.139
-303.822	-43.734	0.172	0.086
-302.807	800.000	0.014	0.038
-301.793	532.318	0.057	-0.135
-300.778	-77.368	0.199	0.069
-299.764	266.260	-0.090	0.156
-298.749	508.783	0.092	-0.213
-297.735	-200.000	0.004	-0.244
-296.720	-200.000	0.014	0.064
-295.705	-200.000	0.007	-0.089
-294.691	-77.028	-0.204	-0.071
-293.676	-104.955	-0.178	-0.041
-292.662	277.640	-0.135	0.240
-291.647	-158.834	0.095	0.005
-290.632	102.378	-0.087	-0.101
-289.618	-41.948	-0.090	-0.046
-288.603	-60.103	-0.152	0.064
-287.589	63.697	0.219	0.219
-286.574	150.773	-0.136	0.184
-285.559	-80.344	-0.288	-0.096
-284.545	-79.341	-0.113	0.038
-283.530	139.049	0.138	-0.180
-282.516	-56.817	0.539	0.238
-281.501	495.586	0.121	0.277
-280.486	-17.599	0.127	0.079
-279.472	551.362	0.010	-0.024
-278.457	365.491	-0.110	-0.221
-277.443	-60.381	0.362	-0.153
-276.428	428.176	-0.100	0.215
-275.413	43.038	0.271	0.246
-274.399	-109.688	-0.231	-0.048
-273.384	-120.714	-0.263	-0.044
-272.370	66.417	0.209	-0.211
-271.355	360.929	-0.156	-0.312
-270.340	150.490	0.109	-0.148
-269.326	-155.343	0.112	-0.007
-268.311	71.377	0.213	-0.220
-267.297	800.000	-0.074	0.235
-266.282	123.663	-0.103	0.129
-265.267	181.059	-0.054	0.079
-264.253	-140.988	-0.031	-0.003
-263.238	180.960	0.246	0.360
-262.224	101.366	-0.097	0.113
-261.209	-58.743	0.036	-0.015
-260.195	-89.789	-0.310	0.090
-259.180	-82.226	0.116	0.037
-258.165	-200.000	-0.007	0.190
-257.151	-31.686	0.237	-0.132
-256.136	-194.795	0.193	-0.001
-255.122	-137.642	0.194	-0.022
-254.107	555.612	-0.126	0.303
-253.092	800.000	0.085	0.264
-252.078	-44.172	0.053	0.026
-251.063	-200.000	0.001	0.032
-250.049	-138.057	-0.233	-0.026
-249.034	-86.239	-0.486	0.149
-248.019	485.292	0.097	0.219
-247.005	470.485	-0.078	0.174
-245.990	-200.000	0.011	-0.111
-244.976	-151.364	-0.244	-0.018
-243.961	-200.000	-0.046	-0.256
-242.946	-61.916	-0.221	0.092
-241.932	2.839	0.437	-0.315
-240.917	99.832	0.053	-0.061
-239.903	-200.000	-0.013	-0.169
-238.888	184.554	0.118	-0.174
-237.873	-200.000	-0.034	-0.422
-236.859	-170.371	0.244	0.009
-235.844	-5.876	0.177	-0.120
-234.830	800.000	-0.062	-0.227
-233.815	327.397	0.089	-0.169
-232.800	-200.000	0.001	0.105
-231.786	73.087	-0.097	-0.100
-230.771	-29.363	-0.118	0.067
-229.757	190.982	-0.241	0.360
-228.742	800.000	-0.043	-0.124
-227.727	-85.144	-0.103	-0.032
-226.713	-200.000	-0.012	0.075
-225.698	95.766	0.200	-0.227
-224.684	800.000	0.026	-0.079
-223.669	83.911	-0.144	0.156
-222.655	-124.326	-0.251	0.039
-221.640	-80.724	0.410	0.136
-220.625	299.935	0.079	-0.144
-219.611	175.145	-0.076	-0.109
-218.596	-120.873	0.048	-0.008
-217.582	114.740	-0.117	-0.142
-216.567	-200.000	-0.053	0.247
-215.552	-90.477	-0.238	-0.069
-214.538	83.726	-0.236	-0.256
-213.523	800.000	-0.078	-0.261
-212.509	-200.000	-0.005	0.044
-211.494	800.000	0.107	0.425
-210.479	49.000	0.066	-0.061
-209.465	785.010	0.081	0.219
-208.450	-136.047	0.265	0.031
-207.436	107.594	0.169	0.200
-206.421	800.000	-0.066	-0.248
-205.406	118.614	-0.113	0.139
-204.392	-6.273	-0.217	0.147
-203.377	282.810	-0.036	-0.063
-202.363	326.867	0.122	0.231
-201.348	800.000	0.136	-0.390
-200.333	2.844	0.134	-0.096
-199.319	54.348	-0.205	0.196
-198.304	-200.000	0.004	-0.039
-197.290	229.450	0.131	0.212
-196.275	533.902	0.016	0.037
-195.260	108.425	0.027	-0.032
-194.246	48.724	0.189	0.176
-193.231	142.147	-0.041	0.054
-192.217	-200.000	0.004	0.231
-191.202	-112.311	-0.364	-0.072
-190.187	-200.000	0.011	0.118
-189.173	800.000	-0.023	0.080
-188.158	-63.717	0.166	0.068
-187.144	-115.818	0.194	-0.036
-186.129	113.053	-0.128	0.155
-185.114	-96.333	0.301	0.079
-184.100	83.791	0.196	-0.212
-183.085	-92.100	0.400	-0.112
-182.071	-52.878	-0.095	-0.044
-181.056	-115.006	0.140	-0.026
-180.042	-200.000	0.032	0.197
-179.027	13.246	-0.196	-0.151
-178.012	800.000	-0.066	-0.266
-176.998	-34.826	0.190	0.103
-175.983	800.000	-0.062	-0.202
-174.969	195.080	-0.172	-0.259
-173.954	4.575	-0.119	0.086
-172.939	-94.401	-0.244	-0.066
-171.925	112.425	-0.095	-0.114
-170.910	10.141	-0.063	0.048
-169.896	800.000	-0.060	0.188
-168.881	800.000	0.056	0.164
-167.866	413.537	-0.131	-0.276
-166.852	-28.610	0.281	0.161
-165.837	190.169	0.060	-0.090
-164.823	213.238	0.052	-0.081
-163.808	-200.000	0.030	0.245
-162.793	19.092	-0.169	0.134
-161.779	-84.123	-0.373	-0.117
-160.764	-85.522	0.240	-0.074
-159.750	-171.164	-0.086	0.003
-158.735	212.363	0.256	0.400
-157.720	200.436	0.062	0.094
-156.706	83.252	0.336	0.363
-155.691	334.378	0.123	-0.237
-154.677	-189.603	0.206	0.002
-153.662	-200.000	0.031	-0.182
-152.647	-61.102	0.305	-0.128
-151.633	124.894	-0.139	0.173
-150.618	800.000	-0.090	-0.300
-149.604	-200.000	-0.007	0.090
-148.589	157.033	-0.103	0.141
-147.574	-142.618	0.143	-0.014
-146.560	-87.382	-0.339	-0.102
-145.545	-71.559	-0.370	0.137
-144.531	-5.035	0.189	0.129
-143.516	-40.409	0.377	0.194
-142.502	320.688	-0.225	0.423
-141.487	-116.999	0.234	0.042
-140.472	-32.793	-0.154	0.085
-139.458	800.000	0.098	-0.352
-138.443	-34.151	-0.155	-0.084
-137.429	-200.000	-0.089	0.508
-136.414	173.386	-0.093	-0.133
-135.399	-38.186	0.308	0.162
-134.385	21.823	0.218	0.176
-133.370	-132.945	0.404	-0.051
-132.356	-200.000	0.026	-0.286
-131.341	-88.305	0.060	0.018
-130.326	-189.879	-0.224	0.003
-129.312	-138.433	0.290	0.032
-128.297	108.868	-0.104	-0.123
-127.283	800.000	0.110	-0.310
-126.268	-89.617	0.355	0.103
-125.253	800.000	0.087	0.254
-124.239	35.882	0.107	0.094
-123.224	-200.000	-0.023	0.266
-122.210	3.724	-0.167	0.121
-121.195	-49.840	-0.097	-0.046
-120.180	-46.948	-0.043	-0.021
-119.166	61.679	0.210	-0.207
-118.151	-7.064	0.316	0.213
-117.137	558.518	0.084	-0.201
-116.122	351.443	0.054	0.106
-115.107	-47.797	0.233	-0.112
-114.093	-88.893	-0.172	-0.050
-113.078	-2.831	0.163	0.113
-112.064	31.430	-0.135	0.115
-111.049	-154.646	0.180	-0.012
-110.034	1.550	0.167	0.119
-109.020	-200.000	-0.018	0.281
-108.005	800.000	0.007	-0.030
-106.991	-26.731	0.107	-0.062
-105.976	-125.443	0.401	-0.060
-104.962	-97.811	0.161	-0.041
-103.947	-200.000	-0.019	-0.208
-102.932	-181.054	0.078	0.002
-101.918	215.720	-0.016	0.025
-100.903	80.298	0.090	0.095
-99.889	-43.712	0.147	-0.073
-98.874	-114.405	-0.144	-0.027
-97.859	-65.270	0.206	-0.082
-96.845	-119.591	0.261	-0.045
-95.830	-200.000	0.006	0.102
-94.816	53.876	0.068	-0.065
-93.801	16.848	0.188	0.147
-92.786	-117.568	-0.133	0.024
-91.772	128.436	-0.098	-0.124
-90.757	-90.366	-0.156	0.045
-89.743	48.387	-0.203	-0.188
-88.728	-112.893	-0.248	0.049
-87.713	-153.736	-0.070	-0.005
-86.699	-93.594	0.210	0.057
-85.684	85.699	-0.264	0.287
-84.670	-40.986	0.226	0.116
-83.655	342.389	0.051	-0.099
-82.640	169.448	-0.113	-0.159
-81.626	-124.997	0.317	-0.048
-80.611	-156.250	0.374	0.023
-79.597	520.226	0.046	-0.106
-78.582	-200.000	0.057	-0.304
-77.567	7.402	-0.314	-0.232
-76.553	111.385	-0.172	-0.204
-75.538	800.000	0.067	0.237
-74.524	38.010	0.075	0.066
-73.509	-200.000	-0.046	-0.337
-72.494	-165.713	0.092	0.004
-71.480	-60.191	0.092	-0.039
-70.465	-200.000	0.044	-0.374
-69.451	463.369	0.055	0.122
-68.436	800.000	-0.034	0.125
-67.422	-73.610	-0.146	-0.053
-66.407	443.714	0.211	0.458
-65.392	-5.741	-0.258	-0.174
-64.378	483.714	0.263	0.592
-63.363	800.000	0.066	-0.256
-62.349	-141.341	0.117	0.012
-61.334	54.143	-0.876	-0.832
-60.319	71.689	0.526	0.540
-59.305	800.000	-0.220	-0.859
-58.290	800.000	0.399	1.233
-57.276	312.977	0.752	1.395
-56.261	-200.000	97.052	594.719
-55.246	530.920	1386.159	3235.116
-54.232	158.269	2562.955	3509.876
-53.217	103.240	2297.930	2659.733
-52.203	38.306	2058.407	1809.862
-51.188	33.410	1973.242	1691.323
-50.173	31.857	1955.536	1662.322
-49.159	47.165	2005.907	1842.938
-48.144	48.262	2024.407	1869.723
-47.130	33.992	1986.247	1707.428
-46.115	31.714	1975.230	1677.516
-45.100	31.573	1972.824	1674.149
-44.086	31.533	1970.295	1671.581
-43.071	31.544	1967.168	1668.960
-42.057	31.515	1965.112	1666.885
-41.042	31.551	1963.261	1665.573
-40.027	31.509	1961.572	1663.704
-39.013	31.633	1959.562	1663.033
-37.998	31.583	1958.282	1661.437
-36.984	31.615	1956.303	1659.972
-35.969	31.596	1953.923	1657.721
-34.954	31.594	1952.845	1656.719
-33.940	31.630	1951.023	1655.426
-32.925	31.704	1949.096	1654.378
-31.911	31.667	1947.549	1652.676
-30.896	31.734	1945.679	1651.614
-29.881	31.664	1944.154	1649.639
-28.867	31.784	1942.411	1649.149
-27.852	31.752	1940.827	1647.458
-26.838	31.697	1939.311	1645.619
-25.823	31.718	1937.567	1644.262
-24.809	31.687	1935.418	1642.104
-23.794	31.739	1933.802	1641.118
-22.779	31.699	1931.924	1639.106
-21.765	31.717	1930.508	1638.001
-20.750	31.660	1928.590	1635.808
-19.736	31.700	1927.560	1635.222
-18.721	31.706	1925.620	1633.560
-17.706	31.767	1923.704	1632.407
-16.692	31.673	1922.837	1630.783
-15.677	31.711	1921.375	1629.812
-14.663	31.651	1919.742	1627.842
-13.648	31.715	1918.411	1627.201
-12.633	31.735	1917.351	1626.414
-11.619	31.720	1915.907	1624.998
-10.604	31.762	1914.076	1623.743
-9.590	31.683	1912.982	1622.064
-8.575	31.752	1911.118	1621.016
-7.560	31.765	1910.234	1620.314
-6.546	31.700	1909.144	1618.766
-5.531	31.696	1907.584	1617.344
-4.517	31.675	1906.250	1615.969
-3.502	31.732	1905.540	1615.790
-2.487	31.679	1904.452	1614.346
-1.473	31.668	1903.495	1613.376
-0.458	31.772	1897.730	1609.324
0.556	29.304	1878.926	1580.384
1.571	24.992	1859.228	1527.016
2.586	21.083	1880.485	1510.560
3.600	19.972	1915.940	1529.105
4.615	19.676	1911.614	1522.908
5.629	15.359	1811.631	1406.993
6.644	6.030	1691.165	1239.961
7.659	0.614	1651.869	1169.201
8.673	0.195	1648.433	1163.427
9.688	0.079	1647.507	1161.773
10.702	0.044	1645.577	1160.042
11.717	-0.117	1642.548	1156.565
12.731	0.533	1642.384	1161.350
13.746	7.190	1657.018	1223.135
14.761	15.492	1673.308	1299.560
15.775	17.768	1675.369	1318.663
16.790	16.829	1672.163	1308.769
17.804	15.777	1668.637	1297.787
18.819	14.824	1665.509	1287.894
19.834	14.179	1663.516	1281.275
20.848	13.914	1661.539	1277.599
21.863	13.642	1660.141	1274.322
22.877	13.449	1658.550	1271.509
23.892	13.160	1657.180	1268.125
24.907	13.148	1656.170	1267.146
25.921	13.103	1654.582	1265.476
26.936	13.155	1653.987	1265.311
27.950	13.127	1653.088	1264.292
28.965	13.176	1652.972	1264.470
29.980	13.264	1652.079	1264.350
30.994	13.256	1651.027	1263.367
32.009	13.366	1649.883	1263.222
33.023	13.412	1649.006	1262.787
34.038	13.405	1648.380	1262.146
35.053	13.375	1647.222	1260.918
36.067	13.319	1645.850	1259.327
37.082	13.347	1644.913	1258.713
38.096	13.265	1644.251	1257.472
39.111	13.328	1643.809	1257.499
40.126	13.306	1642.893	1256.524
41.140	13.361	1641.595	1255.839
42.155	13.258	1640.273	1253.931
43.169	13.101	1638.824	1251.521
44.184	13.171	1637.652	1251.048
45.199	13.094	1636.714	1249.637
46.213	13.107	1635.239	1248.503
47.228	13.064	1634.426	1247.447
48.242	13.172	1633.066	1247.110
49.257	13.327	1631.308	1246.827
50.271	13.220	1630.834	1245.547
51.286	13.168	1629.834	1244.282
52.301	13.275	1627.880	1243.485
53.315	13.238	1627.017	1242.441
54.330	13.251	1625.024	1240.902
55.344	13.098	1624.158	1238.982
56.359	13.135	1622.455	1237.855
57.374	13.166	1620.956	1236.829
58.388	13.159	1620.170	1236.070
59.403	13.218	1618.627	1235.228
60.417	13.117	1617.284	1233.333
61.432	13.103	1616.090	1232.216
62.447	13.079	1614.772	1230.920
63.461	13.021	1613.775	1229.616
64.476	13.088	1612.862	1229.311
65.490	13.032	1611.232	1227.546
66.505	13.000	1610.272	1226.471
67.520	12.969	1609.433	1225.491
68.534	13.153	1607.641	1225.381
69.549	12.946	1607.221	1223.416
70.563	13.066	1605.848	1223.157
71.578	13.018	1604.447	1221.623
72.593	12.997	1603.338	1220.517
73.607	12.982	1602.459	1219.626
74.622	12.936	1601.417	1218.386
75.636	12.954	1600.350	1217.603
76.651	12.968	1599.740	1217.133
77.666	12.950	1598.786	1216.164
78.680	13.057	1597.506	1215.871
79.695	12.981	1596.713	1214.604
80.709	13.068	1595.690	1214.355
81.724	12.987	1595.320	1213.374
82.739	13.164	1594.121	1213.652
83.753	13.124	1593.617	1212.864
84.768	13.176	1591.996	1211.908
85.782	13.256	1591.296	1211.857
86.797	13.248	1590.501	1211.085
87.812	13.284	1589.139	1210.203
88.826	13.189	1587.852	1208.419
89.841	13.216	1587.147	1207.972
90.855	13.144	1586.245	1206.656
91.870	13.227	1584.977	1206.189
92.884	13.254	1584.230	1205.711
93.899	13.350	1582.794	1205.209
94.914	13.351	1581.502	1204.125
95.928	13.413	1580.223	1203.497
96.943	13.398	1579.064	1202.397
97.957	13.373	1577.514	1200.934
98.972	13.338	1576.062	1199.464
99.987	13.224	1575.446	1198.066
101.001	13.280	1573.849	1197.151
102.016	13.222	1571.857	1195.113
103.030	13.283	1570.539	1194.445
104.045	13.316	1569.625	1193.882
105.060	13.350	1568.166	1192.913
106.074	13.302	1566.709	1191.347
107.089	13.270	1565.061	1189.761
108.103	13.190	1563.387	1187.812
109.118	12.981	1562.474	1185.505
110.133	13.069	1561.077	1184.972
111.147	13.070	1559.750	1183.868
112.162	13.093	1558.471	1182.960
113.176	13.138	1557.067	1182.110
114.191	13.182	1555.721	1181.298
115.206	13.111	1554.701	1179.911
116.220	13.245	1553.150	1179.587
117.235	13.208	1552.262	1178.543
118.249	13.223	1550.844	1177.474
119.264	13.177	1549.436	1175.972
120.279	13.172	1548.510	1175.131
121.293	13.206	1546.797	1173.963
122.308	13.225	1545.076	1172.692
123.322	13.118	1544.205	1171.168
124.337	13.155	1542.236	1169.834
125.352	13.102	1541.184	1168.554
126.366	13.094	1540.247	1167.684
127.381	13.140	1538.892	1166.880
128.395	13.083	1537.962	1165.671
129.410	13.111	1536.533	1164.683
130.424	13.101	1535.249	1163.531
131.439	13.154	1534.046	1162.891
132.454	13.168	1532.582	1161.781
133.468	13.174	1531.478	1160.879
134.483	13.301	1529.799	1160.399
135.497	13.340	1528.189	1159.345
136.512	13.188	1527.231	1157.453
137.527	13.195	1525.946	1156.427
138.541	13.267	1524.441	1155.687
139.556	13.282	1523.258	1154.791
140.570	13.265	1522.218	1153.778
141.585	13.294	1520.428	1152.525
142.600	13.286	1519.446	1151.622
143.614	13.479	1518.023	1151.787
144.629	13.431	1516.811	1150.432
145.643	13.563	1515.357	1150.144
146.658	13.529	1514.159	1148.893
147.673	13.420	1512.728	1146.952
148.687	13.415	1511.392	1145.805
149.702	13.403	1510.019	1144.580
150.716	13.354	1508.150	1142.719
151.731	13.377	1506.558	1141.570
152.746	13.368	1505.279	1140.439
153.760	13.383	1503.785	1139.311
154.775	13.412	1502.637	1138.537
155.789	13.397	1501.643	1137.585
156.804	13.466	1500.228	1136.882
157.819	13.489	1499.171	1136.142
158.833	13.544	1497.941	1135.483
159.848	13.624	1497.020	1135.236
160.862	13.592	1495.695	1133.912
161.877	13.594	1494.468	1132.891
162.892	13.495	1493.616	1131.472
163.906	13.464	1492.282	1130.149
164.921	13.449	1490.968	1128.951
165.935	13.425	1490.195	1128.102
166.950	13.572	1488.648	1127.830
167.964	13.535	1487.637	1126.716
168.979	13.585	1486.590	1126.164
169.994	13.611	1485.189	1125.174
171.008	13.553	1484.589	1124.233
172.023	13.529	1483.256	1122.962
173.037	13.608	1482.404	1122.748
174.052	13.614	1481.445	1121.962
175.067	13.695	1479.995	1121.317
176.081	13.700	1478.876	1120.398
177.096	13.615	1477.127	1118.400
178.110	13.605	1476.194	1117.534
179.125	13.596	1475.436	1116.797
180.140	13.655	1473.950	1115.972
181.154	13.636	1473.238	1115.205
182.169	13.597	1472.400	1114.206
183.183	13.633	1471.225	1113.461
184.198	13.655	1469.877	1112.495
185.213	13.707	1468.755	1111.896
186.227	13.786	1467.946	1111.713
187.242	13.886	1466.641	1111.296
188.256	13.869	1465.594	1110.287
189.271	13.882	1464.474	1109.431
190.286	13.870	1463.379	1108.425
191.300	13.932	1462.229	1107.868
192.315	13.742	1461.494	1105.944
193.329	13.602	1460.193	1103.929
194.344	13.586	1459.111	1102.909
195.359	13.669	1457.878	1102.432
196.373	13.716	1457.060	1102.029
197.388	13.799	1456.185	1101.817
198.402	13.884	1454.552	1101.046
199.417	13.999	1453.340	1100.796
200.432	14.040	1452.364	1100.230
201.446	14.012	1451.605	1099.374
202.461	14.128	1450.438	1099.156
203.475	14.156	1449.244	1098.345
204.490	14.130	1448.384	1097.423
205.504	14.030	1447.692	1096.143
206.519	14.020	1446.282	1094.911
207.534	13.968	1444.904	1093.426
208.548	13.993	1443.802	1092.660
209.563	13.988	1442.725	1091.713
210.577	14.035	1441.704	1091.153
211.592	14.124	1440.485	1090.722
212.607	14.121	1440.144	1090.344
213.621	14.180	1439.709	1090.307
214.636	14.122	1439.011	1089.299
215.650	14.136	1438.200	1088.683
216.665	14.166	1437.259	1088.070
217.680	14.133	1436.484	1087.175
218.694	14.262	1435.454	1087.137
219.709	14.193	1434.685	1086.009
220.723	14.213	1434.220	1085.694
221.738	14.234	1432.737	1084.610
222.753	14.291	1431.729	1084.119
223.767	14.185	1430.985	1082.774
224.782	14.335	1429.393	1082.448
225.796	14.352	1428.741	1081.969
226.811	14.326	1428.318	1081.385
227.826	14.341	1427.490	1080.761
228.840	14.466	1426.582	1080.787
229.855	14.316	1425.680	1079.033
230.869	14.300	1424.523	1077.963
231.884	14.324	1423.735	1077.424
232.899	14.316	1422.323	1076.208
233.913	14.344	1421.320	1075.534
234.928	14.347	1419.783	1074.297
235.942	14.261	1418.797	1072.903
236.957	14.311	1417.268	1071.971
237.972	14.260	1416.680	1071.106
238.986	14.372	1415.416	1070.772
240.001	14.468	1413.856	1070.114
241.015	14.390	1413.196	1069.018
242.030	14.438	1412.218	1068.494
243.045	14.375	1411.694	1067.596
244.059	14.444	1410.620	1067.134
245.074	14.489	1409.851	1066.748
246.088	14.399	1409.215	1065.595
247.103	14.595	1408.077	1065.889
248.117	14.458	1407.337	1064.366
249.132	14.561	1406.747	1064.479
250.147	14.703	1406.010	1064.731
251.161	14.724	1405.616	1064.476
252.176	14.746	1404.690	1063.821
253.190	14.794	1404.223	1063.676
254.205	14.814	1403.111	1062.867
255.220	14.877	1401.946	1062.291
256.234	14.826	1401.653	1061.654
257.249	14.959	1400.820	1061.770
258.263	14.922	1399.671	1060.572
259.278	14.936	1398.570	1059.735
260.293	14.928	1397.875	1059.063
261.307	14.932	1396.779	1058.163
262.322	14.962	1396.713	1058.211
263.336	15.076	1395.456	1057.883
264.351	15.046	1394.593	1056.943
265.366	15.058	1393.635	1056.201
266.380	15.068	1392.545	1055.344
267.395	15.058	1391.857	1054.667
268.409	15.094	1391.432	1054.478
269.424	15.039	1389.902	1052.880
270.439	15.055	1388.821	1052.066
271.453	15.021	1387.858	1051.032
272.468	15.094	1386.949	1050.712
273.482	15.077	1386.520	1050.183
274.497	14.951	1385.581	1048.590
275.512	15.009	1384.634	1048.146
276.526	15.056	1383.876	1047.772
277.541	15.095	1382.781	1047.095
278.555	15.202	1381.780	1046.910
279.570	15.074	1380.860	1045.321
280.585	15.120	1380.588	1045.312
281.599	15.186	1379.608	1044.889
282.614	15.314	1378.389	1044.669
283.628	15.245	1376.938	1043.048
284.643	15.189	1376.094	1041.968
285.657	15.218	1375.355	1041.501
286.672	15.269	1374.075	1040.750
287.687	15.256	1373.507	1040.147
288.701	15.243	1372.326	1039.085
289.716	15.308	1371.412	1038.703
290.730	15.283	1371.031	1038.169
291.745	15.365	1369.909	1037.732
292.760	15.264	1369.280	1036.536
293.774	15.348	1367.519	1035.632
294.789	15.369	1366.990	1035.269
295.803	15.358	1366.210	1034.521
296.818	15.461	1365.275	1034.355
297.833	15.373	1364.364	1033.033
298.847	15.337	1363.590	1032.135
299.862	15.448	1362.360	1031.792
300.876	15.405	1361.627	1030.881
301.891	15.331	1360.896	1029.781
302.906	15.561	1359.202	1029.823
303.920	15.595	1358.948	1029.746
304.935	15.433	1358.717	1028.488
305.949	15.550	1357.543	1028.224
306.964	15.615	1356.792	1027.962
307.979	15.623	1356.129	1027.419
308.993	15.638	1354.975	1026.543
310.008	15.608	1354.035	1025.558
311.022	15.614	1353.400	1025.023
312.037	15.707	1352.091	1024.505
313.052	15.769	1350.975	1023.946
314.066	15.719	1350.038	1022.843
315.081	15.604	1349.186	1021.406
316.095	15.589	1348.263	1020.530
317.110	15.678	1346.687	1019.783
318.125	15.616	1346.152	1018.913
319.139	15.644	1345.283	1018.332
320.154	15.720	1343.661	1017.479
321.168	15.591	1343.391	1016.405
322.183	15.605	1342.738	1015.904
323.197	15.691	1341.356	1015.286
324.212	15.739	1340.550	1014.879
325.227	15.717	1339.664	1013.983
326.241	15.750	1338.859	1013.480
327.256	15.831	1337.603	1012.929
328.270	15.709	1337.250	1011.838
329.285	15.780	1336.345	1011.493
330.300	15.808	1335.116	1010.640
331.314	15.811	1334.306	1009.957
332.329	15.741	1333.889	1009.130
333.343	15.772	1332.822	1008.418
334.358	15.860	1331.629	1007.956
335.373	15.914	1330.953	1007.676
336.387	15.869	1330.231	1006.774
337.402	15.952	1329.470	1006.607
338.416	15.934	1328.669	1005.800
339.431	15.899	1328.505	1005.376
340.446	15.942	1327.641	1004.890
341.460	15.994	1326.806	1004.483
342.475	15.990	1326.047	1003.794
343.489	16.097	1324.951	1003.510
344.504	16.113	1323.736	1002.601
345.519	16.196	1322.918	1002.384
346.533	16.167	1321.925	1001.370
347.548	16.191	1321.191	1000.870
348.562	16.249	1320.477	1000.580
349.577	16.301	1319.492	1000.054
350.592	16.239	1319.035	999.256
351.606	16.143	1318.210	997.971
352.621	16.260	1316.802	997.511
353.635	16.175	1315.946	996.270
354.650	16.070	1314.890	994.766
355.665	16.138	1314.026	994.425
356.679	16.172	1312.686	993.519
357.694	16.186	1312.108	993.078
358.708	16.219	1310.446	991.926
359.723	16.236	1309.684	991.363
360.738	16.312	1308.629	990.924
361.752	16.399	1307.539	990.518
362.767	16.242	1307.024	989.118
363.781	16.406	1305.818	989.078
364.796	16.354	1305.284	988.283
365.810	16.286	1304.588	987.272
366.825	16.415	1303.819	987.358
367.840	16.448	1303.218	987.006
368.854	16.496	1302.276	986.486
369.869	16.564	1301.909	986.515
370.883	16.598	1301.120	986.031
371.898	16.511	1300.555	985.010
372.913	16.484	1299.485	983.956
373.927	16.500	1298.780	983.427
374.942	16.540	1297.759	982.801
375.956	16.519	1297.379	982.301
376.971	16.655	1295.876	981.865
377.986	16.652	1295.760	981.674
379.000	16.625	1294.940	980.811
380.015	16.715	1293.990	980.523
381.029	16.774	1292.712	979.811
382.044	16.729	1293.035	979.705
383.059	16.634	1292.217	978.450
384.073	16.800	1291.308	978.634
385.088	16.815	1290.523	978.038
386.102	16.841	1289.821	977.575
387.117	16.772	1289.108	976.548
388.132	16.889	1288.195	976.443
389.146	16.787	1287.564	975.292
390.161	16.798	1286.483	974.452
391.175	16.763	1285.898	973.719
392.190	16.812	1285.228	973.408
393.205	16.841	1284.543	972.967
394.219	16.965	1283.445	972.764
395.234	16.841	1282.244	971.057
396.248	17.028	1280.864	970.995
397.263	16.921	1279.385	969.177
398.278	17.004	1277.732	968.311
399.292	16.820	1277.582	967.065
400.307	16.830	1276.070	965.890
401.321	16.907	1275.105	965.513
402.336	16.737	1274.434	963.950
403.350	16.807	1273.299	963.406
404.365	16.854	1272.270	962.811
405.380	16.892	1271.513	962.365
406.394	16.856	1270.933	961.638
407.409	16.968	1270.322	961.722
408.423	17.010	1269.480	961.242
409.438	17.009	1268.832	960.660
410.453	17.045	1268.175	960.280
411.467	17.148	1267.013	959.897
412.482	17.047	1266.963	959.205
413.496	17.257	1265.897	959.498
414.511	17.272	1265.065	958.865
415.526	17.270	1264.216	958.127
416.540	17.248	1263.871	957.658
417.555	17.244	1263.202	957.045
418.569	17.276	1262.628	956.702
419.584	17.376	1262.040	956.736
420.599	17.268	1261.714	955.798
421.613	94.181	1349.477	1461.857
422.628	91.687	1362.242	1461.988
