DTS Sentinel unit serial number:	SN413079Multiplexer serial number:	ORYXHardware model number:	OX4-SRSoftware version number:	ORYX F/W v4.00 Oryx Data Collector v3.7.2.0data status	okinstallation	princeton_trtdifferential loss correction	single-endedforward channel	channel 4reverse channel	N/Adate	2019/09/19time	02:01:34forward acquisition time	60.00reverse acquisition time	0.00gamma	496.2192k internal	0.2339k external	0.2339temperature offset calibration	1.0029default loss term (dB/km)	0.3790temperature slope calibration	1.0000multiplexer offset coefficient	1.0000multiplexer slope coefficient	1.0000fibre end	0.00T internal ref (°C)	21.25T ext. ref 1 (°C)	0.67T ext. ref 2 (°C)	14.84length (m)	temperature (°C)	Stokes	anti-Stokes-747.200	-183.810	-0.325	-0.006
-746.185	75.531	0.040	0.043
-745.171	39.815	-0.056	0.051
-744.156	-200.000	0.008	0.105
-743.142	-84.711	0.051	0.016
-742.127	201.649	-0.203	-0.314
-741.112	-200.000	-0.008	0.090
-740.098	800.000	0.123	0.360
-739.083	-120.559	0.167	-0.028
-738.069	-129.638	0.129	0.018
-737.054	17.695	0.406	-0.324
-736.039	45.044	-0.266	-0.245
-735.025	72.909	0.190	0.199
-734.010	-200.000	-0.007	-0.334
-732.996	-41.583	0.079	-0.041
-731.981	327.749	0.199	-0.382
-730.966	-200.000	0.030	-0.490
-729.952	-75.586	0.278	-0.099
-728.937	-25.196	-0.238	-0.141
-727.923	-200.000	-0.061	-0.266
-726.908	-200.000	0.045	-0.310
-725.894	-180.703	0.128	0.003
-724.879	767.682	0.061	0.165
-723.864	-113.150	0.030	0.006
-722.850	-99.797	-0.182	0.046
-721.835	131.498	0.116	0.150
-720.821	-53.932	-0.167	-0.076
-719.806	800.000	-0.057	-0.227
-718.791	89.400	0.166	-0.185
-717.777	402.160	0.234	-0.492
-716.762	-69.023	-0.317	-0.122
-715.748	-62.493	-0.235	-0.098
-714.733	-45.471	-0.338	0.168
-713.718	-56.719	0.140	-0.062
-712.704	61.700	-0.261	0.260
-711.689	-93.528	-0.025	-0.007
-710.675	234.253	0.084	-0.138
-709.660	78.800	-0.086	0.092
-708.645	-132.311	-0.207	0.027
-707.631	-200.000	-0.009	-0.345
-706.616	-184.097	0.104	0.002
-705.602	62.883	0.142	0.143
-704.587	36.958	0.110	-0.098
-703.572	327.633	0.110	-0.212
-702.558	800.000	0.050	0.170
-701.543	671.397	-0.059	0.154
-700.529	-200.000	-0.007	-0.053
-699.514	-142.876	-0.084	-0.008
-698.499	13.738	-0.170	0.132
-697.485	770.902	0.039	0.107
-696.470	-162.877	0.250	-0.012
-695.456	-155.299	0.113	0.007
-694.441	534.082	0.006	-0.015
-693.426	203.011	-0.150	-0.232
-692.412	-25.827	-0.120	0.071
-691.397	-200.000	0.038	-0.170
-690.383	-61.709	0.275	-0.115
-689.368	182.416	-0.212	-0.312
-688.354	-200.000	-0.003	-0.036
-687.339	25.931	-0.214	0.178
-686.324	-9.456	-0.160	0.107
-685.310	-79.260	0.138	0.047
-684.295	800.000	-0.118	0.485
-683.281	800.000	-0.058	-0.215
-682.266	-49.994	0.187	-0.089
-681.251	90.338	0.047	0.053
-680.237	-200.000	0.014	-0.197
-679.222	318.769	-0.080	0.151
-678.208	-134.491	-0.543	-0.066
-677.193	295.442	0.104	0.191
-676.178	-200.000	-0.021	0.125
-675.164	-200.000	-0.067	0.382
-674.149	31.192	0.100	0.086
-673.135	511.953	0.075	0.176
-672.120	-100.377	0.090	-0.022
-671.105	82.053	-0.140	0.152
-670.091	22.103	-0.177	-0.144
-669.076	-200.000	0.043	-0.385
-668.062	-161.719	-0.042	-0.002
-667.047	800.000	0.163	-0.536
-666.032	800.000	0.068	-0.197
-665.018	-10.080	0.106	-0.070
-664.003	189.933	-0.200	-0.299
-662.989	347.520	0.202	-0.397
-661.974	-19.501	-0.113	0.070
-660.959	800.000	-0.062	-0.223
-659.945	800.000	-0.142	0.410
-658.930	148.506	-0.177	-0.238
-657.916	-171.550	-0.155	0.005
-656.901	85.584	-0.362	-0.398
-655.886	658.874	0.026	-0.067
-654.872	437.040	0.111	0.241
-653.857	-80.109	0.020	-0.007
-652.843	-13.984	-0.257	0.166
-651.828	-37.058	-0.394	-0.211
-650.814	-108.998	0.210	-0.045
-649.799	227.021	-0.132	0.214
-648.784	286.580	-0.077	-0.140
-647.770	145.707	-0.037	-0.050
-646.755	-165.995	-0.308	0.013
-645.741	79.954	-0.152	-0.163
-644.726	-92.624	-0.260	-0.073
-643.711	447.427	0.085	-0.187
-642.697	800.000	0.116	0.396
-641.682	-174.714	0.339	0.010
-640.668	-145.051	-0.248	-0.023
-639.653	203.821	-0.142	-0.219
-638.638	46.298	0.138	0.127
-637.624	144.551	0.062	-0.082
-636.609	-67.876	-0.329	0.128
-635.595	158.293	0.233	0.323
-634.580	195.992	0.047	0.072
-633.565	-200.000	-0.004	0.197
-632.551	-104.360	-0.242	-0.056
-631.536	355.167	-0.061	0.120
-630.522	-192.049	0.329	-0.003
-629.507	260.142	0.052	-0.090
-628.492	-200.000	0.004	-0.084
-627.478	3.787	-0.265	0.193
-626.463	124.530	0.046	-0.057
-625.449	-200.000	0.037	0.331
-624.434	-42.820	0.293	0.149
-623.419	-200.000	-0.017	0.258
-622.405	24.167	-0.170	-0.140
-621.390	800.000	0.037	0.150
-620.376	800.000	-0.033	-0.122
-619.361	-200.000	0.002	0.093
-618.346	-200.000	-0.006	-0.086
-617.332	800.000	-0.099	0.348
-616.317	109.695	0.161	0.192
-615.303	-141.379	-0.515	0.052
-614.288	800.000	0.004	-0.012
-613.273	25.612	0.021	0.017
-612.259	-14.978	-0.169	-0.108
-611.244	85.293	0.176	-0.193
-610.230	246.378	-0.050	-0.083
-609.215	-34.598	0.163	-0.089
-608.201	-15.595	0.107	0.068
-607.186	-145.523	0.371	-0.033
-606.171	8.206	-0.026	0.020
-605.157	163.747	0.084	0.118
-604.142	19.844	-0.225	-0.181
-603.128	247.974	0.215	-0.362
-602.113	-200.000	-0.015	0.153
-601.098	668.566	-0.069	-0.177
-600.084	112.512	-0.213	0.257
-599.069	3.063	0.484	-0.351
-598.055	51.910	0.050	0.047
-597.040	-4.601	0.239	0.164
-596.025	-25.297	-0.291	0.172
-595.011	275.649	0.067	0.118
-593.996	-192.268	-0.668	0.006
-592.982	-94.941	0.410	-0.111
-591.967	44.984	0.186	0.171
-590.952	-20.912	0.081	0.049
-589.938	436.339	0.069	-0.149
-588.923	343.551	-0.168	0.328
-587.909	-54.463	-0.169	-0.077
-586.894	-141.030	0.217	-0.022
-585.879	-3.769	-0.138	0.096
-584.865	-30.764	-0.319	0.180
-583.850	115.687	0.226	0.276
-582.836	-117.666	-0.328	0.059
-581.821	5.099	-0.155	0.114
-580.806	-168.504	-0.172	-0.007
-579.792	-200.000	0.057	0.317
-578.777	168.557	0.165	-0.235
-577.763	-7.627	0.146	0.099
-576.748	-87.588	-0.398	0.120
-575.733	-5.522	-0.214	0.146
-574.719	-25.846	-0.237	-0.139
-573.704	297.432	-0.211	0.386
-572.690	-200.000	0.015	0.110
-571.675	-200.000	0.002	-0.032
-570.661	600.963	-0.057	0.142
-569.646	384.625	0.037	-0.076
-568.631	-24.159	-0.238	-0.141
-567.617	318.383	-0.218	-0.411
-566.602	-200.000	0.025	-0.281
-565.588	10.863	0.162	0.123
-564.573	44.181	-0.182	0.166
-563.558	-18.778	0.194	-0.120
-562.544	-157.598	-0.155	-0.009
-561.529	-200.000	0.044	0.396
-560.515	-112.410	0.257	0.051
-559.500	-22.722	-0.124	0.075
-558.485	800.000	-0.032	-0.105
-557.471	800.000	-0.068	-0.244
-556.456	-89.331	-0.226	-0.066
-555.442	37.195	-0.220	-0.194
-554.427	800.000	-0.090	0.369
-553.412	-200.000	0.026	0.141
-552.398	-92.861	-0.061	0.017
-551.383	101.161	-0.176	0.204
-550.369	-8.149	-0.283	0.190
-549.354	163.359	0.045	0.062
-548.339	795.765	-0.006	-0.017
-547.325	68.632	0.055	-0.056
-546.310	-29.165	-0.238	-0.136
-545.296	-187.458	-0.126	-0.002
-544.281	-12.498	-0.033	0.021
-543.266	-32.534	-0.302	0.168
-542.252	378.065	-0.174	-0.355
-541.237	5.130	-0.053	0.039
-540.223	127.568	-0.052	0.066
-539.208	-179.678	0.183	0.004
-538.193	-200.000	0.013	0.194
-537.179	-134.845	0.202	0.024
-536.164	-83.320	-0.188	-0.060
-535.150	-200.000	-0.036	-0.161
-534.135	-147.495	-0.375	-0.031
-533.121	169.447	-0.136	-0.193
-532.106	5.474	0.074	-0.054
-531.091	-200.000	-0.029	-0.459
-530.077	164.267	-0.031	0.044
-529.062	-200.000	0.025	-0.143
-528.048	-169.411	0.245	-0.009
-527.033	155.586	-0.073	-0.101
-526.018	800.000	-0.046	-0.190
-525.004	126.772	0.225	-0.284
-523.989	111.118	-0.085	0.101
-522.975	-152.989	0.257	-0.018
-521.960	120.258	0.199	0.245
-520.945	98.859	-0.083	0.095
-519.931	-200.000	0.046	0.411
-518.916	800.000	0.072	-0.228
-517.902	-80.673	0.396	-0.131
-516.887	-137.998	0.166	-0.018
-515.872	-200.000	0.035	-0.267
-514.858	780.085	0.012	-0.034
-513.843	55.399	0.031	-0.030
-512.829	42.495	0.202	0.183
-511.814	685.432	0.101	0.261
-510.799	-10.141	-0.248	-0.164
-509.785	-200.000	0.003	-0.351
-508.770	-45.714	0.322	-0.158
-507.756	-200.000	-0.019	-0.222
-506.741	-66.682	-0.329	-0.130
-505.726	26.299	0.338	-0.280
-504.712	800.000	-0.084	-0.338
-503.697	800.000	0.054	-0.185
-502.683	-200.000	0.014	0.271
-501.668	98.556	-0.034	0.038
-500.653	9.934	0.166	0.125
-499.639	87.510	-0.105	-0.116
-498.624	11.307	0.189	-0.144
-497.610	229.448	-0.113	-0.184
-496.595	-96.937	-0.025	0.007
-495.581	-4.761	0.187	-0.128
-494.566	-200.000	0.059	0.340
-493.551	155.263	-0.029	0.039
-492.537	2.448	0.131	-0.094
-491.522	-54.256	-0.284	-0.128
-490.508	82.517	-0.095	-0.102
-489.493	800.000	-0.025	-0.089
-488.478	800.000	0.133	-0.491
-487.464	800.000	0.078	0.222
-486.449	-55.936	-0.131	0.058
-485.435	800.000	0.103	-0.351
-484.420	-200.000	0.006	0.091
-483.405	-200.000	0.050	0.249
-482.391	368.688	-0.150	-0.300
-481.376	169.841	0.050	-0.070
-480.362	-98.347	-0.228	0.058
-479.347	399.066	-0.130	-0.270
-478.332	495.833	-0.064	-0.145
-477.318	67.782	0.147	0.150
-476.303	216.396	-0.069	0.108
-475.289	-85.618	-0.110	0.034
-474.274	28.773	-0.180	0.151
-473.259	294.277	-0.158	0.286
-472.245	251.448	0.056	0.095
-471.230	36.851	-0.214	-0.188
-470.216	-12.267	-0.102	-0.066
-469.201	800.000	-0.133	0.370
-468.186	122.392	-0.114	0.141
-467.172	-165.871	0.194	0.008
-466.157	-54.678	-0.222	0.099
-465.143	-100.359	0.223	-0.055
-464.128	-73.708	0.196	0.071
-463.113	800.000	-0.071	0.291
-462.099	-61.174	-0.223	-0.093
-461.084	224.574	0.184	-0.296
-460.070	-200.000	0.021	0.329
-459.055	37.637	0.209	0.184
-458.040	-200.000	-0.004	0.050
-457.026	417.359	-0.152	0.323
-456.011	-46.468	0.072	-0.035
-454.997	22.189	0.128	-0.103
-453.982	-181.220	0.161	-0.003
-452.968	-86.162	0.144	-0.044
-451.953	-16.320	-0.075	-0.047
-450.938	-200.000	-0.036	-0.385
-449.924	-80.818	0.290	-0.095
-448.909	54.733	-0.127	-0.121
-447.895	413.698	0.093	-0.195
-446.880	244.076	0.067	-0.112
-445.865	45.592	-0.063	0.057
-444.851	508.010	-0.165	-0.380
-443.836	83.305	0.113	-0.122
-442.822	-107.118	0.166	-0.036
-441.807	-36.310	0.239	0.128
-440.792	800.000	-0.043	0.182
-439.778	-200.000	-0.034	-0.209
-438.763	-200.000	0.022	-0.215
-437.749	-44.867	-0.190	-0.094
-436.734	83.557	0.211	0.228
-435.719	-200.000	0.056	0.314
-434.705	800.000	0.093	-0.319
-433.690	-100.694	-0.136	0.033
-432.676	-62.669	-0.153	-0.063
-431.661	-17.297	-0.145	-0.090
-430.646	234.387	-0.188	0.306
-429.632	461.979	0.059	-0.131
-428.617	27.346	0.126	-0.105
-427.603	573.731	0.140	0.337
-426.588	-59.613	0.052	0.022
-425.573	-47.684	-0.057	0.028
-424.559	181.395	-0.015	0.022
-423.544	-39.352	-0.105	0.055
-422.530	159.122	0.033	0.045
-421.515	800.000	-0.052	-0.199
-420.500	168.720	0.133	-0.188
-419.486	6.696	-0.149	-0.110
-418.471	800.000	0.059	0.207
-417.457	-200.000	0.008	0.226
-416.442	-43.436	-0.219	0.109
-415.428	-114.594	0.325	-0.062
-414.413	320.262	-0.216	-0.406
-413.398	800.000	-0.038	0.151
-412.384	-87.376	-0.197	0.059
-411.369	86.488	0.217	0.237
-410.355	110.092	0.139	0.165
-409.340	-13.392	0.328	0.210
-408.325	55.095	-0.085	0.081
-407.311	738.365	-0.065	0.173
-406.296	543.746	0.090	-0.213
-405.282	-51.181	-0.110	0.051
-404.267	-147.262	-0.409	-0.034
-403.252	93.015	-0.061	-0.069
-402.238	-138.025	0.386	0.042
-401.223	163.322	-0.077	0.107
-400.209	-23.507	-0.526	0.313
-399.194	-27.194	0.187	-0.108
-398.179	-77.119	0.255	-0.088
-397.165	267.079	-0.119	0.206
-396.150	602.563	0.191	0.470
-395.136	-39.421	0.276	0.143
-394.121	-1.678	-0.083	0.058
-393.106	-135.524	-0.211	0.025
-392.092	552.522	-0.121	0.288
-391.077	113.477	0.013	0.016
-390.063	-93.156	0.059	-0.016
-389.048	3.860	0.149	0.108
-388.033	139.272	0.071	0.092
-387.019	800.000	-0.037	-0.129
-386.004	-91.873	-0.305	0.085
-384.990	800.000	-0.090	0.332
-383.975	-86.417	0.203	0.062
-382.960	800.000	0.014	0.053
-381.946	-180.982	0.323	-0.006
-380.931	-200.000	-0.016	-0.334
-379.917	110.421	-0.134	0.159
-378.902	427.455	0.053	-0.114
-377.888	-147.781	0.155	-0.013
-376.873	-97.529	0.273	0.070
-375.858	-8.511	-0.146	0.097
-374.844	-36.584	0.222	0.118
-373.829	-73.169	0.101	0.036
-372.815	143.896	0.226	-0.298
-371.800	-111.770	0.140	-0.028
-370.785	289.676	0.122	-0.218
-369.771	31.377	0.071	-0.060
-368.756	268.952	-0.086	0.150
-367.742	383.980	-0.073	0.150
-366.727	7.446	-0.198	0.146
-365.712	-137.138	-0.361	-0.041
-364.698	-200.000	0.004	0.247
-363.683	-6.130	0.114	-0.077
-362.669	-8.378	0.026	-0.017
-361.654	-129.868	0.098	0.013
-360.639	-17.274	-0.132	0.082
-359.625	800.000	0.146	-0.436
-358.610	453.938	-0.099	0.216
-357.596	493.257	0.134	0.303
-356.581	-200.000	-0.088	-0.392
-355.566	-55.027	0.034	0.015
-354.552	-87.699	0.097	-0.029
-353.537	800.000	-0.085	0.264
-352.523	-93.252	0.227	-0.062
-351.508	800.000	-0.079	0.302
-350.493	147.548	-0.118	-0.157
-349.479	588.640	0.129	0.314
-348.464	27.268	-0.254	-0.211
-347.450	124.784	-0.289	-0.360
-346.435	18.239	-0.310	0.245
-345.420	277.684	0.114	0.200
-344.406	225.414	-0.031	-0.050
-343.391	-163.096	-0.351	0.017
-342.377	373.433	0.021	-0.042
-341.362	-15.888	-0.161	0.101
-340.348	654.264	0.084	-0.214
-339.333	372.489	0.084	0.168
-338.318	-40.884	-0.069	0.035
-337.304	-200.000	0.020	-0.368
-336.289	-200.000	-0.073	0.369
-335.275	-132.775	-0.418	-0.053
-334.260	-200.000	-0.021	-0.103
-333.245	-107.967	0.210	-0.045
-332.231	741.639	-0.013	-0.034
-331.216	-27.845	-0.230	-0.131
-330.202	-200.000	0.021	0.196
-329.187	-37.075	0.146	0.077
-328.172	-51.784	-0.148	-0.068
-327.158	-155.682	-0.243	0.015
-326.143	168.911	0.127	0.179
-325.129	800.000	-0.119	0.358
-324.114	800.000	0.010	-0.042
-323.099	-52.518	0.158	0.072
-322.085	312.314	-0.102	0.189
-321.070	219.311	-0.128	0.202
-320.056	-168.493	-0.281	-0.011
-319.041	35.237	-0.097	0.084
-318.026	-200.000	-0.020	-0.174
-317.012	-149.672	-0.306	-0.024
-315.997	98.111	0.092	-0.104
-314.983	167.773	-0.125	0.175
-313.968	450.469	0.066	-0.143
-312.953	800.000	0.057	-0.180
-311.939	-138.810	-0.085	0.009
-310.924	67.772	-0.125	-0.126
-309.910	-50.071	-0.039	0.018
-308.895	-100.701	-0.018	-0.004
-307.880	-2.056	0.115	0.080
-306.866	-63.801	0.288	0.116
-305.851	-200.000	-0.023	0.136
-304.837	308.940	-0.052	0.096
-303.822	-200.000	-0.027	0.209
-302.807	-200.000	0.065	-0.280
-301.793	124.440	-0.063	0.078
-300.778	-200.000	-0.001	-0.296
-299.764	78.888	0.219	0.231
-298.749	-108.183	-0.238	0.051
-297.735	-71.134	0.129	-0.048
-296.720	-200.000	-0.004	0.040
-295.705	-78.558	0.173	0.058
-294.691	58.625	0.172	0.166
-293.676	-200.000	-0.022	-0.119
-292.662	228.773	0.168	-0.271
-291.647	0.150	0.320	-0.224
-290.632	30.400	-0.118	0.099
-289.618	-200.000	-0.019	0.239
-288.603	-74.335	0.235	-0.084
-287.589	-28.027	0.062	-0.036
-286.574	20.623	-0.045	0.036
-285.559	-200.000	-0.027	0.232
-284.545	-200.000	-0.005	0.249
-283.530	645.013	0.145	0.365
-282.516	346.175	-0.185	-0.359
-281.501	-200.000	-0.008	0.190
-280.486	138.902	-0.135	-0.175
-279.472	163.504	-0.017	0.023
-278.457	51.551	0.111	-0.104
-277.443	800.000	-0.025	0.088
-276.428	782.708	0.098	0.265
-275.413	-200.000	-0.012	-0.171
-274.399	510.963	-0.062	-0.142
-273.384	9.640	0.233	0.174
-272.370	0.008	-0.360	-0.252
-271.355	277.746	-0.044	0.077
-270.340	94.574	0.272	-0.304
-269.326	800.000	-0.081	-0.331
-268.311	44.417	0.174	0.157
-267.297	76.781	0.142	-0.149
-266.282	-72.719	0.269	-0.097
-265.267	54.998	0.124	-0.118
-264.253	-51.373	0.318	-0.146
-263.238	216.192	0.302	-0.472
-262.224	123.960	-0.261	0.322
-261.209	-119.270	0.211	0.036
-260.195	-140.189	-0.217	-0.022
-259.180	-133.604	0.242	-0.030
-258.165	800.000	-0.072	-0.206
-257.151	-200.000	-0.011	0.082
-256.136	-46.129	0.301	0.146
-255.122	234.462	-0.053	-0.085
-254.107	-134.277	0.271	-0.033
-253.092	-200.000	0.077	-0.354
-252.078	127.462	0.278	-0.347
-251.063	124.701	0.186	-0.230
-250.049	7.598	0.184	-0.136
-249.034	-55.047	-0.214	-0.095
-248.019	-147.851	0.279	0.023
-247.005	-59.515	-0.240	-0.101
-245.990	-100.709	0.249	0.060
-244.976	141.540	0.163	-0.212
-243.961	-27.908	0.284	0.162
-242.946	95.745	0.092	0.103
-241.932	47.669	-0.148	-0.136
-240.917	-90.316	-0.339	-0.097
-239.903	-79.864	-0.214	0.071
-238.888	94.972	0.100	0.111
-237.873	800.000	-0.062	0.261
-236.859	42.408	0.088	-0.079
-235.844	-40.359	0.261	0.134
-234.830	10.074	-0.094	-0.070
-233.815	-21.049	-0.413	-0.249
-232.800	-200.000	-0.037	0.315
-231.786	48.984	0.131	-0.121
-230.771	96.809	0.122	0.138
-229.757	-14.791	-0.273	0.172
-228.742	-71.010	-0.058	-0.021
-227.727	-200.000	-0.013	0.101
-226.713	-48.278	-0.363	-0.172
-225.698	800.000	0.076	-0.236
-224.684	305.637	-0.137	-0.251
-223.669	235.721	-0.197	-0.319
-222.655	249.002	0.121	0.202
-221.640	315.540	0.076	0.140
-220.625	800.000	-0.077	-0.223
-219.611	39.994	0.181	0.160
-218.596	800.000	0.078	0.330
-217.582	1.183	-0.163	-0.115
-216.567	-1.471	-0.180	-0.124
-215.552	40.473	0.256	-0.226
-214.538	-103.504	0.187	0.043
-213.523	147.103	-0.275	-0.363
-212.509	100.369	0.185	-0.211
-211.494	-171.674	0.153	-0.005
-210.479	-111.780	-0.077	0.015
-209.465	-19.922	0.220	0.134
-208.450	-131.428	0.628	0.081
-207.436	-35.774	0.434	-0.231
-206.421	-84.290	-0.211	0.065
-205.406	-95.902	-0.363	0.095
-204.392	-200.000	-0.029	-0.314
-203.377	148.827	-0.040	-0.053
-202.363	-80.294	-0.073	0.024
-201.348	-82.692	0.157	-0.050
-200.333	-101.251	0.154	-0.037
-199.319	67.754	-0.263	0.264
-198.304	459.601	0.102	0.223
-197.290	-138.249	0.272	-0.030
-196.275	-129.802	-0.260	0.035
-195.260	69.221	0.069	0.069
-194.246	57.585	0.096	-0.092
-193.231	-136.083	0.566	-0.065
-192.217	-200.000	0.060	-0.273
-191.202	-81.831	0.283	-0.091
-190.187	-144.163	-0.167	-0.015
-189.173	24.430	0.050	-0.041
-188.158	216.698	0.176	-0.275
-187.144	-96.278	-0.311	0.081
-186.129	1.635	0.138	0.098
-185.114	109.888	-0.157	0.184
-184.100	-200.000	0.046	-0.205
-183.085	-200.000	-0.019	0.148
-182.071	-200.000	-0.021	-0.094
-181.056	421.255	-0.010	-0.021
-180.042	44.482	0.174	-0.157
-179.027	3.179	-0.354	-0.253
-178.012	713.761	0.083	-0.216
-176.998	178.631	-0.195	-0.279
-175.983	126.542	-0.146	-0.181
-174.969	21.008	-0.111	-0.088
-173.954	-191.635	-0.218	-0.002
-172.939	387.358	-0.121	0.246
-171.925	-200.000	0.023	0.124
-170.910	-68.552	-0.215	-0.082
-169.896	7.394	0.091	0.067
-168.881	-58.206	0.044	0.019
-167.866	-15.384	-0.202	0.127
-166.852	207.488	0.189	0.289
-165.837	800.000	0.040	-0.139
-164.823	-21.216	-0.111	0.067
-163.808	-45.063	-0.155	-0.076
-162.793	272.726	-0.068	-0.118
-161.779	-64.059	0.077	-0.031
-160.764	-68.038	0.277	0.106
-159.750	59.178	0.165	0.159
-158.735	20.397	0.055	-0.043
-157.720	-43.789	0.096	0.047
-156.706	-13.373	0.108	0.069
-155.691	-200.000	0.013	0.077
-154.677	-134.665	0.182	-0.022
-153.662	800.000	0.046	0.147
-152.647	35.226	-0.241	-0.207
-151.633	-129.005	0.238	0.033
-150.618	-162.178	-0.207	0.010
-149.604	-200.000	0.038	0.387
-148.589	-112.701	-0.265	0.052
-147.574	-200.000	0.028	-0.223
-146.560	800.000	0.080	0.250
-145.545	-132.585	-0.258	0.032
-144.531	146.388	-0.128	-0.169
-143.516	-200.000	-0.042	-0.434
-142.502	-200.000	0.029	0.283
-141.487	-1.221	-0.320	-0.222
-140.472	34.258	-0.083	0.071
-139.458	-13.342	-0.293	-0.186
-138.443	-200.000	0.042	0.230
-137.429	-200.000	0.003	-0.220
-136.414	34.297	0.273	0.233
-135.399	800.000	-0.144	0.408
-134.385	-200.000	0.009	-0.072
-133.370	69.767	-0.253	-0.255
-132.356	-120.483	0.291	-0.048
-131.341	77.100	-0.038	0.039
-130.326	-126.728	0.262	0.038
-129.312	-31.477	-0.314	-0.173
-128.297	-143.784	-0.183	-0.017
-127.283	-70.776	0.099	0.037
-126.268	-152.177	0.350	-0.025
-125.253	-109.651	0.044	-0.009
-124.239	-57.873	-0.386	0.165
-123.224	244.967	-0.033	0.054
-122.210	155.652	0.086	-0.116
-121.195	225.513	-0.199	-0.315
-120.180	6.424	0.183	0.133
-119.166	92.386	-0.115	-0.127
-118.151	-26.833	-0.149	-0.085
-117.137	156.052	0.138	-0.186
-116.122	-77.739	0.390	-0.132
-115.107	-116.933	0.094	-0.017
-114.093	-200.000	-0.021	-0.260
-113.078	-146.517	0.474	0.040
-112.064	466.688	0.099	-0.218
-111.049	800.000	0.049	-0.210
-110.034	-135.212	0.159	0.019
-109.020	43.360	-0.025	-0.022
-108.005	39.833	-0.150	0.131
-106.991	217.984	0.113	0.177
-105.976	800.000	-0.060	-0.166
-104.962	83.616	0.343	0.366
-103.947	-200.000	-0.003	-0.156
-102.932	339.950	-0.033	-0.062
-101.918	-160.976	0.276	0.014
-100.903	672.016	0.052	-0.133
-99.889	-133.136	-0.143	-0.018
-98.874	-81.648	-0.163	0.052
-97.859	48.321	0.510	0.467
-96.845	-200.000	-0.016	-0.114
-95.830	800.000	-0.050	0.139
-94.816	5.156	0.196	-0.141
-93.801	-163.710	0.198	-0.009
-92.786	88.492	0.101	-0.110
-91.772	800.000	0.125	0.370
-90.757	283.035	-0.101	0.178
-89.743	40.786	-0.150	-0.132
-88.728	145.260	-0.097	-0.127
-87.713	-200.000	-0.018	0.233
-86.699	11.107	0.308	0.230
-85.684	111.539	0.048	-0.057
-84.670	-170.778	0.250	0.008
-83.655	-200.000	0.033	-0.321
-82.640	-200.000	0.018	-0.133
-81.626	-112.149	-0.125	0.025
-80.611	7.902	0.187	-0.137
-79.597	800.000	-0.126	-0.388
-78.582	724.828	0.058	-0.152
-77.567	20.578	0.243	-0.192
-76.553	800.000	-0.070	-0.254
-75.538	-28.219	0.178	0.101
-74.524	-87.334	0.093	-0.027
-73.509	22.152	-0.179	0.142
-72.494	-36.651	-0.125	-0.066
-71.480	21.215	0.266	-0.211
-70.465	-131.901	-0.084	0.011
-69.451	175.870	0.079	0.112
-68.436	-17.691	0.190	0.116
-67.422	-200.000	0.011	-0.119
-66.407	-95.218	0.107	0.028
-65.392	-98.238	0.290	-0.073
-64.378	-200.000	0.032	0.200
-63.363	-160.285	0.165	0.009
-62.349	-200.000	-0.012	0.084
-61.334	54.880	-1.428	-1.346
-60.319	49.461	0.789	0.725
-59.305	561.959	-0.502	-1.186
-58.290	230.259	0.756	1.206
-57.276	477.201	0.757	1.671
-56.261	-200.000	134.436	684.960
-55.246	339.428	1673.650	3184.444
-54.232	132.240	2813.220	3537.986
-53.217	80.714	2346.870	2469.553
-52.203	27.656	2084.133	1712.451
-51.188	22.996	2002.226	1602.930
-50.173	21.969	1987.645	1581.943
-49.159	40.813	2064.093	1817.160
-48.144	38.265	2074.989	1803.204
-47.130	23.412	2026.697	1626.079
-46.115	21.334	2015.715	1598.221
-45.100	21.241	2012.561	1594.807
-44.086	21.200	2010.051	1592.383
-43.071	21.195	2007.632	1590.356
-42.057	21.147	2005.871	1588.463
-41.042	21.220	2003.090	1586.857
-40.027	21.122	2001.911	1584.973
-39.013	21.236	2000.134	1584.540
-37.998	21.187	1998.367	1582.632
-36.984	21.176	1997.063	1581.433
-35.969	21.186	1995.116	1579.922
-34.954	21.201	1993.373	1578.614
-33.940	21.159	1992.288	1577.313
-32.925	21.254	1989.781	1576.125
-31.911	21.247	1988.561	1575.033
-30.896	21.286	1986.764	1573.901
-29.881	21.350	1985.322	1573.268
-28.867	21.245	1983.762	1571.029
-27.852	21.268	1982.157	1569.895
-26.838	21.290	1980.047	1568.367
-25.823	21.275	1978.364	1566.833
-24.809	21.279	1976.585	1565.398
-23.794	21.352	1974.794	1564.567
-22.779	21.268	1973.166	1562.470
-21.765	21.318	1971.366	1561.426
-20.750	21.217	1970.194	1559.533
-19.736	21.341	1968.044	1558.880
-18.721	21.360	1966.480	1557.748
-17.706	21.306	1965.176	1556.168
-16.692	21.239	1963.624	1554.286
-15.677	21.215	1962.066	1552.775
-14.663	21.243	1961.020	1552.131
-13.648	21.234	1959.406	1550.718
-12.633	21.260	1958.383	1550.071
-11.619	21.289	1956.658	1548.908
-10.604	21.212	1955.832	1547.512
-9.590	21.203	1954.520	1546.329
-8.575	21.272	1952.864	1545.571
-7.560	21.257	1951.703	1544.451
-6.546	21.233	1950.568	1543.281
-5.531	21.273	1949.023	1542.348
-4.517	21.239	1947.975	1541.165
-3.502	21.214	1946.774	1539.927
-2.487	21.309	1945.226	1539.479
-1.473	21.347	1944.370	1539.079
-0.458	21.233	1939.236	1533.950
0.556	19.904	1919.163	1504.473
1.571	15.595	1899.593	1451.851
2.586	11.760	1922.749	1435.818
3.600	10.833	1957.831	1453.598
4.615	10.852	1949.745	1447.635
5.629	8.564	1850.083	1354.165
6.644	3.605	1739.801	1233.765
7.659	0.947	1708.596	1190.646
8.673	0.684	1706.474	1187.001
9.688	0.731	1705.124	1186.323
10.702	0.696	1703.149	1184.575
11.717	0.569	1699.160	1180.697
12.731	0.910	1697.525	1182.123
13.746	4.982	1705.219	1219.275
14.761	11.758	1719.383	1282.573
15.775	16.367	1728.266	1325.330
16.790	17.188	1728.607	1331.912
17.804	16.313	1725.742	1322.734
18.819	15.356	1722.639	1312.754
19.834	14.837	1719.973	1306.551
20.848	14.536	1718.307	1302.818
21.863	14.207	1717.050	1299.181
22.877	13.988	1715.525	1296.203
23.892	13.824	1713.684	1293.424
24.907	13.685	1712.911	1291.641
25.921	13.612	1712.097	1290.340
26.936	13.544	1710.927	1288.819
27.950	13.769	1709.710	1289.534
28.965	13.769	1709.548	1289.302
29.980	13.790	1708.859	1288.826
30.994	13.879	1707.524	1288.398
32.009	13.904	1705.701	1287.103
33.023	13.892	1705.756	1286.937
34.038	13.918	1704.664	1286.200
35.053	13.881	1703.622	1285.014
36.067	13.831	1702.299	1283.516
37.082	13.861	1701.624	1283.129
38.096	13.801	1700.378	1281.608
39.111	13.880	1699.218	1281.230
40.126	13.909	1698.391	1280.722
41.140	13.779	1697.781	1279.144
42.155	13.802	1696.305	1278.091
43.169	13.710	1695.264	1276.493
44.184	13.773	1693.597	1275.608
45.199	13.724	1692.608	1274.374
46.213	13.765	1691.394	1273.661
47.228	13.720	1690.262	1272.352
48.242	13.782	1688.903	1271.688
49.257	13.826	1687.588	1270.921
50.271	13.805	1686.296	1269.681
51.286	13.830	1685.000	1268.783
52.301	13.800	1683.861	1267.585
53.315	13.778	1682.603	1266.350
54.330	13.818	1680.652	1265.082
55.344	13.787	1679.299	1263.714
56.359	13.707	1677.669	1261.766
57.374	13.658	1676.956	1260.746
58.388	13.717	1675.277	1259.818
59.403	13.740	1674.081	1258.985
60.417	13.612	1672.735	1256.888
61.432	13.665	1671.080	1255.936
62.447	13.692	1670.004	1255.223
63.461	13.656	1668.810	1253.935
64.476	13.582	1668.107	1252.744
65.490	13.632	1666.494	1251.799
66.505	13.632	1665.360	1250.832
67.520	13.673	1664.377	1250.291
68.534	13.603	1663.513	1249.003
69.549	13.734	1661.590	1248.439
70.563	13.694	1660.834	1247.460
71.578	13.650	1659.815	1246.252
72.593	13.552	1658.926	1244.735
73.607	13.601	1657.507	1243.930
74.622	13.574	1656.920	1243.181
75.636	13.635	1655.578	1242.518
76.651	13.528	1654.774	1241.001
77.666	13.641	1653.591	1240.856
78.680	13.581	1652.537	1239.503
79.695	13.603	1651.820	1239.019
80.709	13.539	1651.408	1238.120
81.724	13.629	1649.935	1237.577
82.739	13.702	1648.917	1237.251
83.753	13.758	1647.620	1236.588
84.768	13.703	1647.174	1235.732
85.782	13.715	1646.181	1234.969
86.797	13.687	1645.783	1234.351
87.812	13.837	1644.039	1234.050
88.826	13.849	1642.366	1232.777
89.841	13.792	1642.118	1232.057
90.855	13.754	1640.892	1230.748
91.870	13.752	1639.723	1229.747
92.884	13.790	1638.915	1229.309
93.899	13.834	1637.638	1228.573
94.914	13.763	1636.427	1227.024
95.928	13.893	1634.651	1226.548
96.943	13.832	1633.584	1225.187
97.957	13.844	1632.057	1224.023
98.972	13.908	1630.437	1223.171
99.987	13.773	1629.556	1221.407
101.001	13.811	1628.117	1220.500
102.016	13.923	1625.829	1219.503
103.030	13.835	1624.876	1218.034
104.045	13.793	1623.754	1216.776
105.060	13.827	1622.436	1215.931
106.074	13.851	1620.658	1214.665
107.089	13.823	1619.414	1213.421
108.103	13.727	1617.969	1211.527
109.118	13.709	1616.719	1210.355
110.133	13.664	1615.188	1208.773
111.147	13.690	1613.581	1207.651
112.162	13.717	1611.938	1206.512
113.176	13.722	1610.935	1205.691
114.191	13.733	1609.665	1204.714
115.206	13.795	1608.056	1203.851
116.220	13.753	1606.839	1202.531
117.235	13.900	1604.922	1202.052
118.249	13.800	1603.790	1200.377
119.264	13.738	1603.599	1199.678
120.279	13.760	1601.460	1198.131
121.293	13.675	1600.115	1196.408
122.308	13.714	1598.120	1195.092
123.322	13.692	1596.568	1193.663
124.337	13.753	1595.305	1193.053
125.352	13.647	1594.580	1191.646
126.366	13.694	1593.269	1190.899
127.381	13.716	1591.508	1189.635
128.395	13.670	1590.653	1188.559
129.410	13.641	1589.332	1187.258
130.424	13.596	1587.824	1185.705
131.439	13.714	1585.748	1184.896
132.454	13.724	1584.541	1183.960
133.468	13.709	1583.332	1182.842
134.483	13.831	1581.750	1182.428
135.497	13.797	1580.402	1181.073
136.512	13.751	1579.045	1179.622
137.527	13.746	1577.682	1178.468
138.541	13.728	1576.380	1177.265
139.556	13.855	1574.915	1176.968
140.570	13.768	1573.665	1175.311
141.585	13.944	1571.812	1175.067
142.600	13.815	1571.450	1173.782
143.614	13.860	1569.541	1172.572
144.629	14.012	1568.462	1172.735
145.643	13.971	1567.272	1171.451
146.658	14.015	1565.430	1170.276
147.673	13.938	1564.149	1168.673
148.687	14.011	1562.124	1167.574
149.702	14.049	1561.097	1166.968
150.716	14.002	1559.827	1165.586
151.731	13.935	1558.605	1164.099
152.746	14.018	1557.051	1163.421
153.760	14.060	1555.390	1162.370
154.775	14.064	1553.922	1161.195
155.789	14.027	1552.816	1160.007
156.804	14.051	1551.540	1159.121
157.819	14.111	1550.418	1158.596
158.833	14.100	1549.200	1157.511
159.848	13.955	1548.606	1155.953
160.862	14.083	1547.280	1155.754
161.877	14.148	1545.534	1154.796
162.892	14.145	1544.339	1153.779
163.906	14.112	1543.200	1152.595
164.921	14.086	1541.831	1151.292
165.935	14.082	1540.556	1150.208
166.950	14.108	1539.416	1149.441
167.964	14.124	1538.672	1148.894
168.979	14.165	1537.589	1148.261
169.994	14.162	1536.818	1147.565
171.008	14.160	1535.197	1146.243
172.023	14.160	1534.338	1145.498
173.037	14.192	1532.752	1144.429
174.052	14.260	1531.662	1143.982
175.067	14.284	1530.815	1143.418
176.081	14.212	1529.546	1141.875
177.096	14.162	1528.464	1140.621
178.110	14.178	1527.036	1139.563
179.125	14.251	1525.438	1138.769
180.140	14.244	1524.375	1137.827
181.154	14.234	1523.897	1137.300
182.169	14.249	1522.625	1136.355
183.183	14.317	1521.014	1135.515
184.198	14.346	1519.840	1134.736
185.213	14.348	1518.851	1133.911
186.227	14.378	1517.531	1133.030
187.242	14.367	1517.485	1132.819
188.256	14.316	1516.335	1131.517
189.271	14.480	1514.821	1131.401
190.286	14.440	1513.472	1130.021
191.300	14.457	1511.819	1128.798
192.315	14.354	1511.061	1127.436
193.329	14.329	1509.712	1126.159
194.344	14.257	1508.782	1124.880
195.359	14.298	1507.595	1124.176
196.373	14.356	1506.612	1123.735
197.388	14.401	1505.503	1123.113
198.402	14.456	1504.360	1122.531
199.417	14.511	1503.404	1122.088
200.432	14.555	1502.143	1121.339
201.446	14.511	1501.432	1120.416
202.461	14.499	1500.354	1119.431
203.475	14.590	1498.606	1118.639
204.490	14.669	1497.770	1118.445
205.504	14.677	1496.720	1117.613
206.519	14.625	1495.889	1116.546
207.534	14.591	1494.759	1115.379
208.548	14.562	1493.262	1113.970
209.563	14.620	1491.949	1113.280
210.577	14.700	1490.871	1112.910
211.592	14.625	1490.225	1111.826
212.607	14.602	1489.903	1111.335
213.621	14.770	1488.583	1111.370
214.636	14.736	1487.712	1110.394
215.650	14.731	1486.656	1109.473
216.665	14.709	1485.558	1108.411
217.680	14.772	1485.111	1108.398
218.694	14.772	1484.210	1107.628
219.709	14.886	1483.042	1107.411
220.723	14.847	1481.790	1106.122
221.738	14.923	1480.807	1105.796
222.753	14.800	1480.139	1104.384
223.767	14.802	1479.332	1103.698
224.782	14.818	1478.365	1102.985
225.796	14.883	1476.730	1102.093
226.811	14.920	1476.201	1101.844
227.826	14.931	1475.958	1101.638
228.840	14.907	1475.259	1100.861
229.855	14.899	1474.341	1100.030
230.869	14.869	1473.033	1098.759
231.884	14.974	1471.754	1098.394
232.899	15.003	1470.760	1097.745
233.913	14.912	1469.755	1096.300
234.928	14.958	1468.358	1095.468
235.942	14.967	1466.900	1094.336
236.957	14.989	1466.028	1093.735
237.972	15.009	1464.681	1092.762
238.986	14.994	1463.559	1091.735
240.001	14.924	1463.026	1090.783
241.015	14.972	1461.836	1090.108
242.030	15.067	1460.431	1089.589
243.045	15.091	1459.480	1088.935
244.059	15.077	1458.924	1088.337
245.074	15.080	1457.988	1087.560
246.088	15.022	1457.571	1086.773
247.103	15.181	1456.446	1086.869
248.117	15.152	1455.455	1085.844
249.132	15.166	1454.776	1085.337
250.147	15.202	1454.149	1085.006
251.161	15.302	1453.283	1084.912
252.176	15.324	1452.183	1084.136
253.190	15.415	1451.766	1084.319
254.205	15.359	1451.454	1083.626
255.220	15.477	1449.767	1083.031
256.234	15.449	1449.032	1082.208
257.249	15.382	1448.207	1081.058
258.263	15.378	1447.383	1080.322
259.278	15.475	1446.234	1079.993
260.293	15.521	1445.445	1079.610
261.307	15.512	1444.162	1078.494
262.322	15.484	1444.186	1078.236
263.336	15.589	1443.064	1077.980
264.351	15.527	1441.810	1076.551
265.366	15.626	1440.955	1076.452
266.380	15.817	1439.417	1076.429
267.395	15.690	1438.992	1075.202
268.409	15.648	1438.390	1074.388
269.424	15.677	1437.246	1073.625
270.439	15.733	1435.628	1072.681
271.453	15.647	1435.087	1071.629
272.468	15.643	1434.545	1071.108
273.482	15.559	1433.857	1069.963
274.497	15.603	1432.612	1069.216
275.512	15.620	1431.705	1068.553
276.526	15.737	1430.642	1068.410
277.541	15.672	1429.929	1067.372
278.555	15.709	1428.738	1066.624
279.570	15.754	1428.421	1066.576
280.585	15.816	1426.959	1065.785
281.599	15.776	1426.463	1065.064
282.614	15.775	1426.162	1064.740
283.628	15.841	1424.087	1063.510
284.643	15.847	1423.531	1063.039
285.657	15.833	1422.320	1061.958
286.672	15.900	1421.276	1061.501
287.687	15.813	1420.485	1060.268
288.701	15.811	1419.479	1059.416
289.716	15.936	1418.365	1059.275
290.730	15.985	1417.323	1058.709
291.745	15.901	1416.880	1057.756
292.760	15.900	1415.710	1056.784
293.774	15.958	1414.642	1056.260
294.789	16.010	1413.411	1055.569
295.803	16.000	1412.711	1054.896
296.818	16.015	1411.738	1054.165
297.833	16.042	1410.921	1053.630
298.847	15.955	1410.061	1052.356
299.862	15.865	1409.820	1051.521
300.876	16.021	1408.630	1051.510
301.891	16.026	1407.251	1050.419
302.906	16.073	1406.483	1050.044
303.920	16.131	1405.903	1049.884
304.935	16.124	1405.009	1049.076
305.949	16.300	1403.655	1049.066
306.964	16.225	1402.886	1047.934
307.979	16.294	1401.953	1047.575
308.993	16.282	1401.345	1046.953
310.008	16.320	1400.557	1046.506
311.022	16.239	1399.597	1045.192
312.037	16.321	1398.507	1044.796
313.052	16.338	1397.240	1043.861
314.066	16.294	1396.573	1042.997
315.081	16.300	1395.234	1041.946
316.095	16.309	1394.338	1041.236
317.110	16.259	1393.597	1040.283
318.125	16.326	1392.422	1039.726
319.139	16.236	1391.401	1038.319
320.154	16.174	1390.702	1037.322
321.168	16.289	1389.849	1037.305
322.183	16.352	1388.562	1036.639
323.197	16.333	1387.228	1035.433
324.212	16.394	1386.531	1035.193
325.227	16.434	1385.724	1034.743
326.241	16.370	1384.931	1033.667
327.256	16.327	1384.719	1033.156
328.270	16.337	1383.510	1032.225
329.285	16.282	1382.624	1031.134
330.300	16.399	1381.667	1031.046
331.314	16.397	1380.684	1030.208
332.329	16.459	1379.466	1029.586
333.343	16.392	1378.568	1028.416
334.358	16.465	1377.878	1028.256
335.373	16.468	1377.233	1027.699
336.387	16.481	1376.572	1027.194
337.402	16.516	1375.610	1026.601
338.416	16.551	1374.640	1025.997
339.431	16.598	1374.241	1025.896
340.446	16.726	1373.093	1025.720
341.460	16.711	1372.257	1024.914
342.475	16.663	1371.516	1023.980
343.489	16.719	1370.539	1023.499
344.504	16.750	1369.698	1022.969
345.519	16.703	1368.262	1021.523
346.533	16.868	1367.243	1021.667
347.548	16.821	1366.571	1020.789
348.562	16.876	1365.764	1020.425
349.577	16.854	1364.986	1019.621
350.592	16.835	1364.342	1018.937
351.606	16.900	1362.988	1018.226
352.621	16.828	1362.458	1017.312
353.635	16.897	1361.120	1016.635
354.650	16.874	1360.424	1015.884
355.665	16.805	1359.380	1014.602
356.679	16.921	1358.040	1014.209
357.694	16.761	1357.360	1012.653
358.708	16.891	1355.917	1012.265
359.723	16.929	1354.846	1011.598
360.738	16.924	1354.042	1010.882
361.752	16.915	1352.931	1009.910
362.767	16.942	1352.026	1009.305
363.781	16.991	1350.890	1008.657
364.796	16.942	1350.732	1008.159
365.810	17.024	1349.468	1007.615
366.825	17.044	1348.792	1007.136
367.840	17.119	1347.899	1006.825
368.854	17.159	1347.074	1006.358
369.869	17.203	1346.537	1006.129
370.883	17.218	1345.850	1005.617
371.898	17.235	1345.169	1005.118
372.913	17.112	1344.645	1003.911
373.927	17.141	1343.721	1003.306
374.942	17.202	1342.531	1002.687
375.956	17.216	1342.064	1002.330
376.971	17.213	1341.305	1001.659
377.986	17.187	1340.446	1000.777
379.000	17.221	1339.745	1000.364
380.015	17.220	1339.140	999.817
381.029	17.275	1337.945	999.160
382.044	17.331	1337.749	999.255
383.059	17.341	1336.674	998.421
384.073	17.326	1336.294	997.962
385.088	17.405	1335.276	997.573
386.102	17.367	1334.807	996.915
387.117	17.450	1333.992	996.703
388.132	17.531	1332.790	996.193
389.146	17.421	1332.291	995.086
390.161	17.533	1331.060	994.732
391.175	17.395	1330.826	993.667
392.190	17.550	1329.664	993.611
393.205	17.443	1328.689	992.174
394.219	17.461	1328.033	991.700
395.234	17.559	1326.878	991.321
396.248	17.504	1325.213	989.672
397.263	17.562	1323.991	989.009
398.278	17.459	1322.687	987.346
399.292	17.587	1321.599	987.188
400.307	17.491	1321.077	986.159
401.321	17.469	1319.531	984.787
402.336	17.484	1318.647	984.128
403.350	17.576	1317.654	983.829
404.365	17.533	1316.866	982.910
405.380	17.625	1315.850	982.593
406.394	17.649	1314.854	981.898
407.409	17.582	1314.006	980.793
408.423	17.610	1313.630	980.590
409.438	17.728	1312.915	980.648
410.453	17.744	1311.639	979.696
411.467	17.648	1311.805	979.184
412.482	17.700	1311.038	978.822
413.496	17.819	1309.966	978.617
414.511	17.913	1309.000	978.349
415.526	17.796	1308.605	977.297
416.540	17.825	1307.659	976.668
417.555	17.861	1306.824	976.167
418.569	17.978	1306.145	976.241
419.584	17.959	1305.691	975.710
420.599	17.950	1305.467	975.403
421.613	101.906	1363.102	1491.511
422.628	100.234	1371.395	1491.587
