DTS Sentinel unit serial number:	SN413079Multiplexer serial number:	ORYXHardware model number:	OX4-SRSoftware version number:	ORYX F/W v4.00 Oryx Data Collector v3.7.2.0data status	okinstallation	princeton_trtdifferential loss correction	single-endedforward channel	channel 4reverse channel	N/Adate	2019/09/19time	00:29:35forward acquisition time	60.00reverse acquisition time	0.00gamma	496.2192k internal	0.2338k external	0.2338temperature offset calibration	1.0029default loss term (dB/km)	0.3790temperature slope calibration	1.0000multiplexer offset coefficient	1.0000multiplexer slope coefficient	1.0000fibre end	0.00T internal ref (°C)	22.50T ext. ref 1 (°C)	0.74T ext. ref 2 (°C)	15.40length (m)	temperature (°C)	Stokes	anti-Stokes-747.200	189.587	-0.027	-0.040
-746.185	133.492	0.203	-0.264
-745.171	-181.153	-0.117	-0.002
-744.156	800.000	-0.164	0.501
-743.142	175.377	-0.090	-0.131
-742.127	-200.000	0.001	-0.358
-741.112	-15.648	-0.046	0.030
-740.098	445.671	-0.122	0.268
-739.083	63.161	-0.070	-0.070
-738.069	-200.000	-0.004	0.023
-737.054	-200.000	0.014	0.143
-736.039	-32.067	-0.129	-0.073
-735.025	-200.000	0.004	0.081
-734.010	92.669	-0.179	-0.203
-732.996	-200.000	0.045	-0.238
-731.981	-53.592	-0.385	0.176
-730.966	-107.218	0.118	0.026
-729.952	302.984	-0.014	-0.027
-728.937	141.877	0.021	-0.028
-727.923	444.706	-0.136	0.299
-726.908	292.521	0.030	0.055
-725.894	162.270	-0.115	0.161
-724.879	6.057	-0.186	0.138
-723.864	62.587	-0.108	-0.108
-722.850	-200.000	-0.042	-0.405
-721.835	800.000	0.018	-0.063
-720.821	-87.859	-0.213	-0.064
-719.806	16.845	-0.518	-0.411
-718.791	44.591	0.342	-0.315
-717.777	-200.000	0.049	-0.226
-716.762	174.753	0.206	-0.298
-715.748	-200.000	-0.046	0.218
-714.733	329.316	-0.192	-0.369
-713.718	92.846	-0.172	-0.195
-712.704	-200.000	0.005	0.093
-711.689	-178.492	-0.127	0.003
-710.675	-200.000	-0.008	-0.192
-709.660	453.114	0.147	0.326
-708.645	-200.000	-0.004	-0.202
-707.631	349.141	-0.101	-0.200
-706.616	-75.851	-0.101	0.036
-705.602	-92.317	0.132	0.037
-704.587	-200.000	0.037	-0.209
-703.572	-131.873	-0.207	-0.027
-702.558	11.652	-0.241	0.185
-701.543	-96.963	0.238	0.063
-700.529	-11.263	-0.192	0.127
-699.514	93.839	0.164	0.187
-698.499	-200.000	-0.069	-0.439
-697.485	353.547	0.194	0.386
-696.470	-140.911	-0.272	-0.028
-695.456	-60.354	0.075	0.032
-694.441	-133.411	-0.414	-0.052
-693.426	-117.944	0.387	-0.069
-692.412	614.528	-0.050	0.125
-691.397	-200.000	0.005	0.183
-690.383	-200.000	0.004	-0.238
-689.368	-98.997	0.205	-0.052
-688.354	-20.023	-0.223	0.138
-687.339	468.098	0.164	0.369
-686.324	156.455	-0.225	-0.311
-685.310	-164.657	-0.393	-0.018
-684.295	12.038	0.162	0.125
-683.281	-131.310	0.091	-0.012
-682.266	267.294	0.045	0.080
-681.251	74.649	-0.207	0.218
-680.237	536.454	0.080	-0.191
-679.222	-173.565	0.128	0.004
-678.208	-73.743	0.084	-0.031
-677.193	271.774	0.233	0.412
-676.178	-32.217	-0.107	-0.060
-675.164	25.659	0.145	0.121
-674.149	552.594	-0.052	-0.124
-673.135	146.264	0.073	0.098
-672.120	-73.463	-0.104	0.038
-671.105	-21.857	-0.155	-0.094
-670.091	-200.000	0.002	0.117
-669.076	800.000	-0.081	0.225
-668.062	28.206	0.098	0.083
-667.047	-44.121	-0.106	0.053
-666.032	-11.741	0.102	-0.067
-665.018	800.000	-0.044	0.166
-664.003	-12.871	-0.286	-0.186
-662.989	68.104	-0.095	0.097
-661.974	-117.030	-0.289	0.053
-660.959	36.927	0.101	0.089
-659.945	800.000	-0.031	-0.136
-658.930	-92.741	0.279	0.078
-657.916	129.929	0.053	-0.068
-656.901	-61.536	0.328	-0.138
-655.886	800.000	-0.068	-0.189
-654.872	-200.000	-0.017	-0.185
-653.857	-40.235	0.256	-0.133
-652.843	200.469	-0.159	0.245
-651.828	-92.462	-0.246	-0.069
-650.814	800.000	0.049	-0.205
-649.799	100.911	-0.088	-0.102
-648.784	44.024	-0.070	-0.064
-647.770	-115.101	0.240	0.046
-646.755	-200.000	0.013	-0.223
-645.741	-200.000	0.003	-0.216
-644.726	-47.861	0.062	-0.030
-643.711	800.000	0.101	0.373
-642.697	-4.098	-0.176	0.122
-641.682	90.459	0.074	-0.082
-640.668	-200.000	0.002	-0.443
-639.653	104.336	-0.202	-0.238
-638.638	109.832	0.049	-0.059
-637.624	37.207	0.179	0.158
-636.609	-13.438	0.147	-0.095
-635.595	93.183	-0.062	0.070
-634.580	-129.978	-0.111	-0.015
-633.565	-199.271	-0.230	0.001
-632.551	-200.000	0.030	0.396
-631.536	-200.000	-0.045	-0.298
-630.522	42.368	-0.101	-0.092
-629.507	-44.677	0.280	-0.139
-628.492	800.000	-0.044	0.191
-627.478	-37.195	0.226	-0.121
-626.463	-159.532	0.184	0.010
-625.449	-200.000	-0.063	-0.278
-624.434	167.646	0.124	0.176
-623.419	591.672	0.055	0.135
-622.405	-200.000	-0.028	-0.154
-621.390	3.765	-0.181	-0.132
-620.376	-200.000	-0.007	-0.221
-619.361	-162.013	0.164	-0.008
-618.346	-200.000	0.029	-0.294
-617.332	218.659	0.081	0.129
-616.317	659.497	0.091	-0.233
-615.303	-9.287	0.343	-0.229
-614.288	-75.885	-0.239	-0.084
-613.273	-67.360	0.193	0.076
-612.259	-132.797	-0.330	-0.042
-611.244	-200.000	0.038	-0.170
-610.230	-70.449	-0.089	-0.034
-609.215	102.748	0.103	0.120
-608.201	33.036	-0.206	0.178
-607.186	83.173	0.241	0.261
-606.171	244.967	0.076	-0.127
-605.157	72.530	-0.134	0.140
-604.142	-102.420	0.166	-0.040
-603.128	-132.237	0.388	0.050
-602.113	-200.000	0.003	0.052
-601.098	-96.957	0.135	-0.035
-600.084	296.323	-0.107	-0.195
-599.069	-54.951	0.156	0.070
-598.055	-123.198	-0.428	0.068
-597.040	-200.000	0.008	-0.047
-596.025	214.652	-0.041	-0.065
-595.011	-95.160	0.088	0.024
-593.996	-10.414	-0.087	0.057
-592.982	-110.390	0.335	-0.069
-591.967	-200.000	0.012	0.208
-590.952	-48.329	-0.162	0.078
-589.938	-200.000	0.037	0.328
-588.923	138.584	0.026	0.034
-587.909	158.672	-0.058	-0.080
-586.894	-150.034	-0.233	0.018
-585.879	232.872	0.101	-0.165
-584.865	800.000	-0.008	-0.034
-583.850	521.160	-0.084	-0.196
-582.836	-83.864	0.360	-0.114
-581.821	-200.000	-0.052	-0.312
-580.806	753.543	0.105	-0.282
-579.792	-200.000	0.050	-0.364
-578.777	-200.000	-0.025	-0.299
-577.763	148.840	-0.096	0.130
-576.748	800.000	-0.111	0.413
-575.733	-28.801	-0.206	0.118
-574.719	-95.530	-0.389	0.104
-573.704	800.000	-0.019	0.066
-572.690	-75.496	-0.224	0.080
-571.675	504.778	-0.041	-0.096
-570.661	-200.000	0.099	-0.442
-569.646	-200.000	0.001	-0.064
-568.631	-97.453	0.126	-0.033
-567.617	800.000	0.087	-0.278
-566.602	16.397	-0.248	0.195
-565.588	86.388	-0.195	0.214
-564.573	800.000	0.070	0.211
-563.558	-111.362	0.164	-0.033
-562.544	-200.000	-0.086	-0.520
-561.529	144.233	-0.092	-0.122
-560.515	-128.225	-0.233	0.033
-559.500	-200.000	0.011	0.208
-558.485	800.000	0.072	0.307
-557.471	800.000	-0.152	0.474
-556.456	118.470	0.025	-0.030
-555.442	800.000	-0.109	-0.447
-554.427	234.850	0.152	-0.249
-553.412	309.466	0.097	-0.180
-552.398	390.330	-0.049	0.101
-551.383	-122.174	-0.155	0.025
-550.369	108.856	0.275	-0.328
-549.354	800.000	-0.076	-0.266
-548.339	-75.553	0.388	0.138
-547.325	423.116	0.034	-0.073
-546.310	800.000	-0.066	-0.252
-545.296	-200.000	0.002	-0.324
-544.281	-200.000	0.064	-0.289
-543.266	800.000	-0.081	-0.288
-542.252	705.413	-0.173	-0.456
-541.237	-38.415	-0.144	0.076
-540.223	-186.292	-0.101	-0.001
-539.208	27.736	-0.132	-0.110
-538.193	800.000	0.084	0.347
-537.179	800.000	0.021	0.078
-536.164	-112.810	-0.446	-0.088
-535.150	-200.000	-0.018	-0.158
-534.135	459.888	-0.059	0.130
-533.121	86.998	-0.153	-0.168
-532.106	-136.852	-0.279	0.032
-531.091	800.000	-0.066	0.242
-530.077	64.272	0.150	-0.150
-529.062	800.000	-0.072	-0.257
-528.048	84.065	0.132	0.144
-527.033	-82.287	0.297	0.096
-526.018	45.710	-0.126	-0.116
-525.004	-101.906	-0.070	-0.017
-523.989	800.000	0.048	-0.189
-522.975	-200.000	0.039	0.233
-521.960	-40.201	-0.154	-0.080
-520.945	720.850	0.089	0.236
-519.931	-71.400	-0.144	0.054
-518.916	395.162	-0.127	0.264
-517.902	-200.000	-0.004	0.111
-516.887	131.331	0.119	-0.152
-515.872	-123.645	0.229	-0.036
-514.858	391.250	0.092	-0.189
-513.843	-84.901	-0.103	-0.032
-512.829	-170.997	-0.316	-0.011
-511.814	-89.995	-0.248	-0.072
-510.799	-60.556	0.334	0.141
-509.785	-13.651	0.051	0.033
-508.770	-200.000	0.042	0.248
-507.756	9.306	-0.156	-0.118
-506.741	-99.970	0.506	-0.126
-505.726	12.069	-0.425	0.325
-504.712	-200.000	-0.032	0.180
-503.697	-200.000	0.016	0.172
-502.683	-200.000	-0.004	0.319
-501.668	800.000	-0.072	0.217
-500.653	-200.000	-0.061	-0.281
-499.639	-200.000	-0.000	0.130
-498.624	-30.049	-0.223	-0.126
-497.610	190.464	-0.048	0.072
-496.595	-102.464	-0.178	-0.042
-495.581	-200.000	0.017	0.205
-494.566	-184.055	-0.124	0.002
-493.551	-39.990	-0.057	0.030
-492.537	-97.203	0.321	-0.083
-491.522	134.012	-0.051	0.065
-490.508	-92.986	-0.161	-0.045
-489.493	-112.710	-0.122	0.024
-488.478	-74.864	0.265	0.095
-487.464	99.734	-0.098	-0.113
-486.449	470.178	-0.136	-0.303
-485.435	-200.000	-0.036	0.355
-484.420	86.454	0.194	-0.213
-483.405	-90.460	-0.129	-0.037
-482.391	220.639	0.234	0.372
-481.376	-107.547	-0.220	-0.048
-480.362	-47.053	-0.199	0.096
-479.347	459.794	0.047	0.103
-478.332	-49.989	0.057	-0.027
-477.318	-200.000	0.306	-0.000
-476.303	555.482	0.204	0.487
-475.289	800.000	0.108	-0.300
-474.274	120.300	-0.292	-0.360
-473.259	-101.397	0.049	-0.012
-472.245	39.483	-0.081	-0.072
-471.230	-158.390	-0.177	-0.010
-470.216	-200.000	0.038	-0.532
-469.201	-47.069	0.135	0.066
-468.186	340.048	-0.100	-0.194
-467.172	-15.203	-0.205	0.130
-466.157	-29.515	-0.154	0.087
-465.143	-66.891	-0.356	0.140
-464.128	-200.000	-0.044	-0.225
-463.113	-97.199	-0.374	-0.097
-462.099	-43.546	-0.249	0.125
-461.084	-200.000	-0.004	0.029
-460.070	69.339	0.270	-0.275
-459.055	800.000	-0.038	0.116
-458.040	156.186	-0.157	-0.215
-457.026	34.684	0.267	-0.232
-456.011	-50.627	-0.139	0.065
-454.997	-9.634	0.055	0.036
-453.982	13.121	-0.192	0.147
-452.968	-159.335	0.465	0.026
-451.953	41.386	-0.051	-0.046
-450.938	-54.500	-0.147	-0.066
-449.924	36.527	0.152	0.133
-448.909	-200.000	-0.024	-0.220
-447.895	426.839	0.055	0.118
-446.880	149.564	0.093	0.125
-445.865	-200.000	-0.021	-0.099
-444.851	141.761	-0.030	-0.040
-443.836	72.078	-0.299	0.309
-442.822	-99.575	0.209	-0.052
-441.807	-59.058	0.282	-0.121
-440.792	800.000	0.048	0.156
-439.778	-108.676	0.161	0.034
-438.763	-60.695	0.426	0.179
-437.749	-65.075	-0.047	0.019
-436.734	-200.000	-0.031	0.263
-435.719	-73.100	-0.264	-0.096
-434.705	800.000	0.098	0.354
-433.690	-39.972	-0.168	0.087
-432.676	-42.612	0.244	0.123
-431.661	-165.074	-0.154	0.007
-430.646	-170.870	-0.536	-0.018
-429.632	800.000	0.078	0.290
-428.617	-200.000	-0.010	0.095
-427.603	-200.000	0.031	-0.145
-426.588	-55.546	-0.168	0.075
-425.573	8.286	-0.122	0.091
-424.559	-35.374	0.133	-0.072
-423.544	-200.000	-0.020	0.149
-422.530	244.229	0.040	0.066
-421.515	800.000	-0.060	-0.183
-420.500	97.528	0.174	0.198
-419.486	-98.721	0.060	0.015
-418.471	-200.000	0.016	0.165
-417.457	-152.662	0.285	0.020
-416.442	-200.000	-0.001	0.069
-415.428	195.126	-0.110	-0.166
-414.413	168.361	0.131	0.185
-413.398	268.047	0.120	0.209
-412.384	-39.205	-0.367	0.191
-411.369	-155.709	-0.023	0.001
-410.355	98.191	-0.142	0.162
-409.340	-102.346	-0.265	-0.063
-408.325	-26.194	-0.055	-0.032
-407.311	-123.284	0.060	0.009
-406.296	-29.274	-0.191	-0.108
-405.282	-200.000	-0.001	0.089
-404.267	231.478	0.084	-0.137
-403.252	10.074	-0.149	-0.112
-402.238	71.289	-0.160	-0.165
-401.223	-79.213	0.136	-0.046
-400.209	275.538	0.141	0.248
-399.194	-200.000	-0.012	0.303
-398.179	-112.638	-0.127	-0.025
-397.165	-98.857	0.311	-0.078
-396.150	52.348	0.274	0.259
-395.136	800.000	0.030	-0.128
-394.121	-110.986	-0.333	0.068
-393.106	800.000	0.107	0.370
-392.092	-200.000	0.024	0.262
-391.077	800.000	0.087	-0.329
-390.063	28.713	-0.301	0.252
-389.048	-200.000	-0.036	-0.211
-388.033	-94.318	0.099	-0.027
-387.019	193.266	0.120	0.180
-386.004	-108.953	-0.175	0.037
-384.990	-78.395	0.099	-0.034
-383.975	71.221	0.093	0.095
-382.960	-200.000	0.013	-0.112
-381.946	-200.000	-0.031	-0.188
-380.931	-200.000	-0.030	0.268
-379.917	800.000	-0.027	-0.081
-378.902	-1.490	0.227	0.158
-377.888	-37.595	0.094	-0.050
-376.873	193.002	-0.153	-0.228
-375.858	417.497	-0.133	-0.281
-374.844	64.617	-0.268	0.268
-373.829	-200.000	-0.341	-0.002
-372.815	-54.804	-0.014	0.006
-371.800	29.035	0.127	0.107
-370.785	191.480	-0.020	0.029
-369.771	157.010	0.069	-0.094
-368.756	-42.528	0.213	0.107
-367.742	375.153	-0.083	0.168
-366.727	148.125	0.313	-0.418
-365.712	-200.000	-0.038	-0.198
-364.698	-4.991	0.373	0.254
-363.683	212.750	0.096	0.150
-362.669	149.331	-0.032	-0.043
-361.654	-200.000	-0.128	0.000
-360.639	144.371	0.173	0.228
-359.625	-200.000	0.067	0.310
-358.610	-200.000	0.005	0.307
-357.596	-99.308	0.175	-0.044
-356.581	-118.658	-0.323	0.056
-355.566	-82.131	-0.149	-0.048
-354.552	-6.567	0.291	0.196
-353.537	-3.072	0.211	0.146
-352.523	-112.558	-0.042	0.008
-351.508	-62.954	-0.296	0.121
-350.493	-82.452	-0.064	-0.021
-349.479	-61.678	-0.450	-0.186
-348.464	712.350	0.030	0.079
-347.450	279.850	0.165	0.291
-346.435	79.891	-0.092	0.098
-345.420	329.189	0.206	-0.391
-344.406	800.000	0.059	-0.160
-343.391	9.129	0.213	-0.159
-342.377	650.927	0.041	-0.105
-341.362	-15.654	-0.098	-0.061
-340.348	-30.520	0.237	-0.133
-339.333	12.115	-0.296	-0.225
-338.318	10.640	0.267	0.201
-337.304	-140.428	-0.230	-0.024
-336.289	-38.815	-0.155	0.080
-335.275	800.000	0.056	-0.199
-334.260	-51.797	-0.270	-0.124
-333.245	-200.000	0.031	0.240
-332.231	37.967	0.077	0.068
-331.216	800.000	-0.035	0.134
-330.202	345.821	0.298	0.579
-329.187	800.000	0.065	0.227
-328.172	262.464	-0.139	0.237
-327.158	59.171	-0.076	-0.074
-326.143	-200.000	0.011	-0.074
-325.129	-80.123	0.226	-0.075
-324.114	-200.000	-0.032	-0.139
-323.099	162.166	-0.108	-0.149
-322.085	800.000	0.060	-0.193
-321.070	-200.000	-0.011	0.193
-320.056	-200.000	-0.010	0.065
-319.041	800.000	0.054	-0.159
-318.026	800.000	0.035	-0.125
-317.012	-200.000	-0.033	-0.357
-315.997	-200.000	0.076	-0.410
-314.983	-200.000	0.035	0.299
-313.968	-57.228	-0.072	0.031
-312.953	800.000	-0.091	-0.260
-311.939	-88.611	0.165	-0.048
-310.924	524.941	0.139	-0.323
-309.910	695.027	-0.043	-0.111
-308.895	85.964	0.267	0.290
-307.880	-200.000	-0.002	-0.010
-306.866	-10.639	0.194	-0.127
-305.851	-36.668	-0.332	0.176
-304.837	800.000	-0.103	0.393
-303.822	125.493	-0.223	-0.277
-302.807	36.469	-0.157	0.136
-301.793	-200.000	0.023	-0.146
-300.778	-200.000	-0.028	-0.233
-299.764	-36.722	0.188	-0.100
-298.749	-130.302	-0.061	0.008
-297.735	800.000	0.122	-0.357
-296.720	-129.794	-0.070	-0.009
-295.705	800.000	-0.016	-0.067
-294.691	-90.880	0.404	-0.115
-293.676	48.507	0.242	-0.223
-292.662	90.507	-0.181	-0.199
-291.647	-22.552	0.187	-0.112
-290.632	800.000	0.076	-0.246
-289.618	800.000	-0.028	0.081
-288.603	286.452	0.174	0.310
-287.589	344.840	0.078	0.151
-286.574	800.000	-0.073	-0.255
-285.559	87.514	-0.143	-0.156
-284.545	-68.733	0.162	-0.062
-283.530	212.895	-0.235	0.366
-282.516	-120.739	0.148	-0.025
-281.501	673.963	-0.054	0.139
-280.486	201.370	-0.163	-0.248
-279.472	-200.000	0.031	-0.352
-278.457	691.324	0.091	0.235
-277.443	105.588	0.179	-0.208
-276.428	90.618	0.052	-0.057
-275.413	350.754	0.265	0.516
-274.399	363.451	0.043	-0.084
-273.384	-200.000	0.001	-0.271
-272.370	416.174	-0.182	0.383
-271.355	-56.558	0.140	-0.061
-270.340	-173.715	-0.329	0.010
-269.326	22.147	0.041	-0.033
-268.311	121.916	-0.271	0.333
-267.297	-88.113	-0.251	0.074
-266.282	-101.024	0.192	-0.046
-265.267	800.000	0.041	0.151
-264.253	-36.071	0.138	0.073
-263.238	-141.034	-0.247	-0.025
-262.224	-174.878	0.296	0.008
-261.209	-200.000	-0.017	-0.218
-260.195	35.386	0.040	-0.035
-259.180	-200.000	-0.036	0.405
-258.165	-35.264	-0.029	0.016
-257.151	634.815	0.039	-0.097
-256.136	-150.015	-0.305	-0.023
-255.122	-80.522	-0.097	-0.032
-254.107	800.000	0.039	0.156
-253.092	-200.000	0.010	-0.120
-252.078	-200.000	-0.020	-0.311
-251.063	-93.905	-0.207	0.056
-250.049	-200.000	0.190	-0.000
-249.034	-135.912	0.149	0.017
-248.019	-200.000	0.057	-0.284
-247.005	-98.757	0.369	-0.093
-245.990	102.481	0.230	0.265
-244.976	106.632	-0.164	0.191
-243.961	-50.399	-0.130	-0.060
-242.946	59.934	0.214	-0.208
-241.932	-200.000	0.014	-0.228
-240.917	-26.093	-0.124	-0.072
-239.903	125.942	0.139	-0.173
-238.888	-162.760	0.289	0.014
-237.873	161.473	-0.232	-0.320
-236.859	20.938	-0.132	0.105
-235.844	264.327	0.137	-0.234
-234.830	-200.000	-0.014	-0.217
-233.815	95.747	-0.174	-0.196
-232.800	-124.045	0.113	0.017
-231.786	137.916	-0.088	0.114
-230.771	437.311	0.090	0.192
-229.757	32.520	-0.208	-0.177
-228.742	232.443	0.183	-0.295
-227.727	83.354	0.086	0.092
-226.713	154.826	0.109	-0.148
-225.698	33.017	0.227	-0.194
-224.684	-77.879	-0.380	-0.129
-223.669	146.644	0.291	0.385
-222.655	72.725	-0.245	0.251
-221.640	26.080	0.095	0.078
-220.625	270.845	-0.142	-0.245
-219.611	-121.453	0.223	-0.036
-218.596	800.000	0.040	0.127
-217.582	-48.192	-0.037	0.018
-216.567	-74.994	0.208	0.073
-215.552	85.379	-0.144	0.155
-214.538	800.000	-0.037	-0.150
-213.523	-200.000	0.035	0.432
-212.509	800.000	-0.038	0.147
-211.494	-133.903	-0.357	-0.044
-210.479	-200.000	-0.005	-0.270
-209.465	61.280	-0.073	-0.071
-208.450	-200.000	0.002	0.057
-207.436	-200.000	0.045	-0.194
-206.421	-3.367	0.336	0.230
-205.406	70.035	0.190	-0.192
-204.392	-55.140	0.266	0.118
-203.377	-95.530	-0.211	0.056
-202.363	204.073	0.133	0.202
-201.348	295.042	0.128	0.229
-200.333	122.111	0.195	0.239
-199.319	-101.885	-0.176	0.042
-198.304	-200.000	0.020	-0.167
-197.290	800.000	-0.026	-0.070
-196.275	717.979	-0.043	-0.113
-195.260	-200.000	0.003	0.465
-194.246	-200.000	0.027	0.352
-193.231	155.757	0.180	-0.243
-192.217	376.800	0.078	0.156
-191.202	9.213	0.298	-0.222
-190.187	335.851	0.148	0.283
-189.173	-52.736	-0.081	-0.037
-188.158	296.576	-0.093	0.168
-187.144	-100.018	-0.132	-0.032
-186.129	15.130	0.107	0.082
-185.114	167.972	-0.109	0.153
-184.100	-174.195	-0.067	0.002
-183.085	800.000	-0.103	-0.282
-182.071	-83.699	0.260	0.082
-181.056	119.141	0.033	0.040
-180.042	-69.974	-0.358	0.134
-179.027	155.822	0.077	-0.105
-178.012	-163.346	0.234	-0.011
-176.998	-200.000	0.006	0.280
-175.983	-2.696	0.115	-0.079
-174.969	-62.680	0.112	-0.045
-173.954	-88.256	-0.238	0.070
-172.939	-106.457	0.261	0.057
-171.925	-52.495	-0.250	0.113
-170.910	176.001	0.061	-0.088
-169.896	9.644	0.122	0.091
-168.881	-151.726	-0.325	0.023
-167.866	-46.340	-0.187	0.090
-166.852	358.104	0.078	-0.153
-165.837	-200.000	-0.061	0.350
-164.823	153.761	0.126	-0.170
-163.808	-200.000	-0.061	0.439
-162.793	-22.808	-0.287	0.170
-161.779	-84.754	0.243	0.075
-160.764	-45.016	0.266	-0.130
-159.750	800.000	-0.103	-0.295
-158.735	-154.762	0.233	0.015
-157.720	199.123	0.061	0.091
-156.706	-115.910	-0.244	-0.045
-155.691	-54.419	-0.293	-0.130
-154.677	455.061	-0.069	0.150
-153.662	-200.000	0.015	0.465
-152.647	800.000	0.032	-0.127
-151.633	-200.000	0.039	0.256
-150.618	-200.000	0.033	-0.279
-149.604	-2.391	0.204	-0.141
-148.589	295.667	-0.150	-0.269
-147.574	28.392	0.146	-0.121
-146.560	595.649	0.042	0.101
-145.545	283.819	-0.066	0.116
-144.531	221.920	-0.073	-0.116
-143.516	30.397	0.191	0.160
-142.502	800.000	0.035	0.112
-141.487	-155.383	0.122	-0.008
-140.472	-118.613	0.152	-0.026
-139.458	800.000	0.048	0.196
-138.443	89.582	-0.160	-0.174
-137.429	-110.529	-0.344	0.070
-136.414	-131.799	0.053	-0.007
-135.399	-55.243	0.250	0.110
-134.385	-141.842	0.225	-0.022
-133.370	-174.154	-0.196	0.006
-132.356	-200.000	0.048	-0.253
-131.341	8.706	0.204	0.151
-130.326	-151.868	-0.126	0.009
-129.312	-33.286	-0.286	-0.155
-128.297	64.381	-0.264	-0.261
-127.283	-133.647	-0.098	0.012
-126.268	509.945	0.043	-0.099
-125.253	-200.000	0.001	0.088
-124.239	-143.259	-0.378	0.036
-123.224	-110.679	-0.109	0.022
-122.210	-200.000	-0.014	-0.166
-121.195	-101.536	0.119	0.028
-120.180	-200.000	-0.006	0.117
-119.166	-30.269	-0.239	0.133
-118.151	-94.662	-0.171	0.046
-117.137	484.324	-0.080	-0.178
-116.122	168.763	-0.180	-0.251
-115.107	35.514	0.215	0.185
-114.093	-127.730	0.286	-0.040
-113.078	-82.013	-0.085	-0.027
-112.064	74.511	0.159	0.164
-111.049	214.492	0.198	0.307
-110.034	-46.986	0.156	-0.075
-109.020	-177.069	-0.255	-0.006
-108.005	-148.596	0.076	-0.006
-106.991	-61.522	-0.133	0.055
-105.976	-112.983	0.123	0.024
-104.962	300.067	0.120	-0.216
-103.947	-76.085	-0.283	-0.098
-102.932	-200.000	-0.055	-0.237
-101.918	-65.652	-0.250	0.098
-100.903	-88.993	0.137	0.040
-99.889	-200.000	-0.006	-0.278
-98.874	4.739	-0.246	0.177
-97.859	800.000	0.026	-0.080
-96.845	-28.842	0.419	0.236
-95.830	227.727	-0.124	0.197
-94.816	-69.383	-0.268	0.100
-93.801	34.262	-0.287	-0.245
-92.786	32.511	0.108	0.091
-91.772	413.427	0.137	0.286
-90.757	-35.440	-0.162	-0.086
-89.743	-118.854	-0.296	0.051
-88.728	8.402	0.113	-0.083
-87.713	-200.000	0.043	0.378
-86.699	329.592	0.186	-0.350
-85.684	12.779	0.256	0.193
-84.670	800.000	-0.028	0.101
-83.655	194.354	0.046	0.068
-82.640	187.585	-0.126	0.184
-81.626	-200.000	-0.021	-0.135
-80.611	34.768	0.336	-0.287
-79.597	564.631	0.037	-0.088
-78.582	-200.000	-0.007	0.129
-77.567	800.000	0.091	0.247
-76.553	21.371	-0.173	0.137
-75.538	20.046	-0.245	0.193
-74.524	410.896	0.117	-0.242
-73.509	177.177	0.116	-0.166
-72.494	-113.970	-0.041	0.008
-71.480	-41.084	0.057	0.029
-70.465	-2.976	-0.302	0.206
-69.451	-25.449	0.198	0.114
-68.436	-84.962	0.299	-0.092
-67.422	93.125	-0.179	-0.198
-66.407	85.264	0.314	-0.337
-65.392	-200.000	-0.005	-0.362
-64.378	19.971	-0.157	-0.123
-63.363	-76.387	0.026	-0.009
-62.349	-200.000	-0.094	0.477
-61.334	189.523	-0.777	-1.138
-60.319	33.425	0.739	0.627
-59.305	455.561	-0.541	-1.171
-58.290	247.834	0.912	1.506
-57.276	800.000	0.492	1.743
-56.261	-200.000	131.075	693.552
-55.246	373.139	1648.647	3274.588
-54.232	132.857	2806.478	3538.598
-53.217	85.122	2339.823	2506.769
-52.203	29.169	2072.297	1718.064
-51.188	24.260	1987.543	1603.693
-50.173	23.156	1971.932	1581.166
-49.159	41.729	2047.184	1811.866
-48.144	39.390	2058.839	1800.741
-47.130	24.720	2010.495	1626.132
-46.115	22.558	1999.263	1597.408
-45.100	22.402	1996.785	1593.953
-44.086	22.425	1993.515	1591.486
-43.071	22.428	1990.657	1589.175
-42.057	22.347	1989.090	1587.128
-41.042	22.414	1987.276	1586.219
-40.027	22.343	1985.319	1583.958
-39.013	22.420	1983.255	1582.936
-37.998	22.443	1981.840	1581.953
-36.984	22.424	1979.719	1580.030
-35.969	22.430	1978.018	1578.661
-34.954	22.369	1976.695	1576.995
-33.940	22.448	1974.794	1576.128
-32.925	22.535	1973.429	1575.749
-31.911	22.500	1971.927	1574.177
-30.896	22.512	1970.272	1572.899
-29.881	22.485	1968.851	1571.461
-28.867	22.595	1966.958	1570.872
-27.852	22.635	1965.391	1569.910
-26.838	22.557	1963.882	1567.952
-25.823	22.562	1961.596	1566.103
-24.809	22.551	1960.056	1564.713
-23.794	22.557	1958.755	1563.673
-22.779	22.574	1956.544	1561.989
-21.765	22.580	1954.998	1560.746
-20.750	22.464	1954.402	1559.186
-19.736	22.552	1952.163	1558.117
-18.721	22.589	1950.551	1557.098
-17.706	22.549	1949.146	1555.559
-16.692	22.488	1947.025	1553.264
-15.677	22.461	1945.698	1551.902
-14.663	22.511	1944.600	1551.413
-13.648	22.539	1942.738	1550.105
-12.633	22.463	1941.800	1548.630
-11.619	22.470	1940.715	1547.764
-10.604	22.529	1938.849	1546.731
-9.590	22.412	1937.997	1544.966
-8.575	22.439	1936.503	1543.947
-7.560	22.527	1934.724	1543.240
-6.546	22.564	1933.400	1542.446
-5.531	22.501	1932.134	1540.823
-4.517	22.521	1930.980	1540.024
-3.502	22.495	1930.267	1539.163
-2.487	22.477	1928.948	1537.895
-1.473	22.503	1928.108	1537.390
-0.458	22.481	1922.369	1532.562
0.556	21.108	1901.742	1502.199
1.571	16.420	1882.397	1446.747
2.586	12.302	1905.697	1428.764
3.600	11.310	1940.483	1445.916
4.615	11.261	1933.106	1439.859
5.629	9.078	1833.720	1347.404
6.644	3.796	1724.858	1225.508
7.659	1.048	1693.599	1181.783
8.673	0.757	1690.996	1177.599
9.688	0.839	1689.028	1176.760
10.702	0.750	1688.228	1175.402
11.717	0.624	1683.935	1171.338
12.731	0.975	1682.272	1172.792
13.746	5.113	1690.288	1210.427
14.761	11.909	1704.968	1273.850
15.775	16.405	1712.498	1314.421
16.790	17.230	1713.049	1321.141
17.804	16.348	1710.392	1312.131
18.819	15.449	1706.758	1302.250
19.834	14.820	1704.439	1295.493
20.848	14.548	1702.858	1292.067
21.863	14.308	1701.506	1289.072
22.877	14.100	1699.611	1285.913
23.892	13.919	1698.368	1283.457
24.907	13.777	1697.039	1281.248
25.921	13.749	1696.206	1280.289
26.936	13.732	1695.087	1279.199
27.950	13.811	1694.285	1279.092
28.965	13.858	1694.074	1279.179
29.980	13.852	1692.851	1278.097
30.994	13.894	1691.755	1277.478
32.009	13.913	1690.940	1276.895
33.023	13.957	1690.283	1276.625
34.038	13.943	1689.440	1275.771
35.053	13.999	1687.862	1274.897
36.067	13.956	1686.676	1273.553
37.082	13.928	1685.867	1272.616
38.096	13.887	1685.440	1271.869
39.111	13.967	1683.936	1271.229
40.126	14.048	1682.941	1270.992
41.140	13.874	1682.531	1269.239
42.155	13.866	1681.183	1268.045
43.169	13.770	1680.052	1266.348
44.184	13.881	1677.967	1265.508
45.199	13.844	1677.160	1264.509
46.213	13.782	1676.458	1263.395
47.228	13.813	1675.236	1262.594
48.242	13.907	1673.467	1261.869
49.257	13.915	1672.205	1260.867
50.271	13.979	1670.899	1260.250
51.286	13.779	1670.167	1258.071
52.301	13.894	1668.569	1257.631
53.315	13.840	1667.004	1255.933
54.330	13.905	1665.323	1255.040
55.344	13.895	1663.638	1253.589
56.359	13.880	1662.419	1252.446
57.374	13.816	1661.379	1251.068
58.388	13.799	1660.310	1250.021
59.403	13.746	1659.295	1248.749
60.417	13.774	1657.690	1247.639
61.432	13.669	1657.082	1246.284
62.447	13.739	1655.296	1245.360
63.461	13.722	1654.379	1244.433
64.476	13.702	1653.201	1243.288
65.490	13.715	1651.850	1242.255
66.505	13.749	1650.756	1241.574
67.520	13.747	1650.305	1241.112
68.534	13.819	1648.308	1240.036
69.549	13.864	1646.959	1239.248
70.563	13.772	1646.026	1237.756
71.578	13.762	1645.253	1236.985
72.593	13.746	1643.881	1235.726
73.607	13.696	1643.295	1234.804
74.622	13.682	1641.708	1233.397
75.636	13.693	1640.821	1232.702
76.651	13.687	1640.403	1232.237
77.666	13.595	1639.444	1230.726
78.680	13.710	1637.676	1230.143
79.695	13.608	1637.016	1228.778
80.709	13.624	1636.163	1228.150
81.724	13.754	1635.324	1228.375
82.739	13.829	1634.232	1228.000
83.753	13.777	1633.257	1226.772
84.768	13.801	1632.237	1226.079
85.782	13.785	1630.950	1224.885
86.797	13.877	1630.151	1224.857
87.812	13.886	1629.114	1224.034
88.826	13.891	1627.866	1223.023
89.841	13.732	1626.763	1220.915
90.855	13.731	1625.879	1220.137
91.870	13.864	1625.007	1220.355
92.884	13.833	1624.247	1219.445
93.899	13.935	1622.459	1218.744
94.914	13.918	1620.993	1217.410
95.928	13.952	1620.180	1216.941
96.943	13.985	1618.377	1215.726
97.957	13.977	1617.131	1214.619
98.972	13.994	1615.394	1213.329
99.987	13.902	1614.347	1211.771
101.001	13.888	1613.100	1210.622
102.016	13.904	1611.449	1209.390
103.030	13.914	1610.236	1208.446
104.045	13.922	1609.134	1207.574
105.060	13.972	1607.452	1206.564
106.074	13.870	1605.847	1204.518
107.089	13.866	1604.474	1203.346
108.103	13.827	1602.428	1201.428
109.118	13.776	1601.626	1200.348
110.133	13.767	1600.110	1199.045
111.147	13.757	1598.298	1197.504
112.162	13.755	1597.386	1196.703
113.176	13.818	1596.026	1196.029
114.191	13.886	1594.396	1195.196
115.206	13.871	1593.562	1194.354
116.220	13.798	1592.249	1192.737
117.235	13.809	1591.006	1191.785
118.249	13.852	1589.649	1190.968
119.264	13.772	1588.247	1189.242
120.279	13.770	1586.860	1188.085
121.293	13.810	1585.297	1187.091
122.308	13.859	1583.661	1186.113
123.322	13.847	1582.266	1184.878
124.337	13.848	1580.572	1183.513
125.352	13.766	1579.214	1181.808
126.366	13.868	1578.361	1181.791
127.381	13.835	1577.460	1180.773
128.395	13.845	1576.083	1179.709
129.410	13.724	1575.324	1178.181
130.424	13.798	1573.685	1177.370
131.439	13.904	1571.363	1176.285
132.454	13.878	1570.599	1175.424
133.468	13.890	1569.130	1174.301
134.483	13.853	1567.786	1172.932
135.497	13.787	1566.876	1171.685
136.512	13.928	1565.352	1171.433
137.527	13.894	1563.925	1170.026
138.541	13.870	1562.663	1168.805
139.556	13.887	1560.663	1167.326
140.570	13.931	1559.425	1166.605
141.585	13.952	1558.055	1165.625
142.600	14.035	1556.950	1165.279
143.614	14.097	1555.747	1164.710
144.629	14.030	1554.502	1163.208
145.643	14.048	1553.138	1162.206
146.658	14.082	1551.604	1161.192
147.673	14.153	1549.885	1160.303
148.687	14.118	1548.925	1159.237
149.702	14.071	1547.494	1157.737
150.716	14.093	1545.870	1156.569
151.731	14.090	1544.427	1155.369
152.746	14.099	1543.007	1154.266
153.760	14.072	1541.695	1152.997
154.775	14.074	1540.634	1152.114
155.789	14.158	1539.041	1151.402
156.804	14.137	1538.433	1150.696
157.819	14.147	1536.760	1149.412
158.833	14.146	1535.682	1148.502
159.848	14.196	1534.630	1147.954
160.862	14.211	1533.665	1147.233
161.877	14.218	1531.981	1145.924
162.892	14.212	1530.598	1144.744
163.906	14.107	1529.823	1143.342
164.921	14.209	1528.152	1142.695
165.935	14.257	1526.712	1141.844
166.950	14.157	1526.019	1140.542
167.964	14.183	1524.838	1139.734
168.979	14.285	1523.614	1139.416
169.994	14.304	1522.277	1138.444
171.008	14.222	1521.387	1137.119
172.023	14.284	1520.336	1136.659
173.037	14.323	1519.154	1135.935
174.052	14.321	1518.437	1135.287
175.067	14.416	1516.885	1134.676
176.081	14.393	1515.843	1133.639
177.096	14.306	1514.549	1131.979
178.110	14.270	1513.319	1130.718
179.125	14.326	1512.168	1130.134
180.140	14.314	1511.136	1129.179
181.154	14.295	1510.122	1128.199
182.169	14.383	1508.943	1127.807
183.183	14.367	1507.375	1126.428
184.198	14.341	1506.495	1125.499
185.213	14.389	1505.454	1124.948
186.227	14.557	1504.057	1124.936
187.242	14.524	1503.173	1123.949
188.256	14.622	1501.739	1123.437
189.271	14.561	1500.932	1122.328
190.286	14.543	1499.819	1121.275
191.300	14.531	1498.928	1120.426
192.315	14.423	1497.613	1118.617
193.329	14.435	1496.005	1117.400
194.344	14.323	1495.410	1116.108
195.359	14.489	1493.836	1115.947
196.373	14.524	1493.157	1115.570
197.388	14.555	1492.366	1115.089
198.402	14.579	1491.034	1114.159
199.417	14.591	1489.739	1113.174
200.432	14.597	1488.752	1112.377
201.446	14.701	1487.912	1112.344
202.461	14.671	1486.445	1110.944
203.475	14.690	1485.747	1110.453
204.490	14.672	1484.543	1109.337
205.504	14.764	1483.513	1109.078
206.519	14.805	1482.183	1108.255
207.534	14.749	1480.999	1106.905
208.548	14.791	1479.761	1106.156
209.563	14.783	1478.650	1105.180
210.577	14.750	1477.776	1104.211
211.592	14.748	1477.197	1103.661
212.607	14.755	1476.134	1102.817
213.621	14.772	1475.397	1102.283
214.636	14.874	1474.358	1102.084
215.650	14.931	1472.950	1101.307
216.665	14.842	1472.605	1100.366
217.680	14.834	1471.539	1099.420
218.694	14.903	1470.723	1099.165
219.709	14.909	1470.067	1098.618
220.723	14.883	1468.944	1097.507
221.738	14.995	1467.662	1097.188
222.753	14.983	1466.775	1096.352
223.767	14.961	1465.861	1095.426
224.782	14.936	1465.108	1094.601
225.796	14.949	1464.250	1093.949
226.811	15.039	1463.363	1093.780
227.826	15.115	1462.236	1093.335
228.840	15.022	1461.893	1092.376
229.855	15.033	1460.876	1091.592
230.869	14.959	1459.981	1090.344
231.884	14.977	1458.899	1089.557
232.899	15.144	1456.905	1089.055
233.913	15.191	1455.620	1088.306
234.928	15.077	1454.650	1086.746
235.942	15.052	1453.840	1085.880
236.957	15.033	1453.172	1085.163
237.972	15.057	1451.486	1083.960
238.986	15.094	1450.327	1083.242
240.001	15.073	1449.772	1082.592
241.015	15.159	1448.161	1081.848
242.030	15.141	1447.222	1080.935
243.045	15.113	1446.250	1079.933
244.059	15.156	1445.480	1079.541
245.074	15.261	1444.275	1079.219
246.088	15.210	1443.883	1078.502
247.103	15.224	1443.324	1078.079
248.117	15.200	1442.537	1077.246
249.132	15.243	1441.499	1076.651
250.147	15.354	1440.517	1076.537
251.161	15.372	1440.124	1076.259
252.176	15.475	1439.498	1076.357
253.190	15.481	1437.952	1075.144
254.205	15.431	1437.792	1074.612
255.220	15.408	1437.014	1073.788
256.234	15.539	1435.829	1073.643
257.249	15.522	1434.910	1072.757
258.263	15.577	1434.676	1072.836
259.278	15.625	1433.228	1071.964
260.293	15.672	1432.304	1071.474
261.307	15.568	1431.691	1070.259
262.322	15.674	1430.927	1070.268
263.336	15.778	1429.603	1069.843
264.351	15.686	1428.559	1068.388
265.366	15.760	1427.756	1068.160
266.380	15.830	1426.837	1067.822
267.395	15.775	1425.930	1066.703
268.409	15.745	1425.050	1065.755
269.424	15.816	1423.834	1065.201
270.439	15.782	1422.739	1064.073
271.453	15.723	1422.035	1063.081
272.468	15.721	1421.566	1062.621
273.482	15.701	1420.743	1061.790
274.497	15.656	1420.045	1060.888
275.512	15.802	1418.787	1060.774
276.526	15.720	1418.140	1059.681
277.541	15.789	1416.976	1059.153
278.555	15.850	1415.862	1058.609
279.570	15.894	1414.740	1057.957
280.585	15.882	1414.032	1057.256
281.599	15.910	1413.389	1056.856
282.614	15.945	1412.681	1056.453
283.628	15.983	1411.012	1055.352
284.643	15.961	1410.491	1054.730
285.657	15.946	1409.055	1053.467
286.672	15.963	1408.468	1053.043
287.687	15.882	1407.833	1051.965
288.701	16.005	1406.185	1051.414
289.716	16.050	1405.656	1051.205
290.730	15.995	1404.935	1050.227
291.745	16.040	1403.721	1049.508
292.760	15.945	1403.107	1048.362
293.774	16.074	1401.664	1047.995
294.789	16.121	1400.640	1047.430
295.803	16.089	1400.174	1046.792
296.818	16.144	1398.824	1046.031
297.833	16.116	1397.767	1044.972
298.847	16.125	1397.229	1044.531
299.862	16.173	1395.945	1043.778
300.876	16.194	1394.903	1043.038
301.891	16.187	1393.844	1042.111
302.906	16.263	1393.391	1042.147
303.920	16.198	1392.801	1041.211
304.935	16.254	1391.888	1040.783
305.949	16.306	1391.248	1040.536
306.964	16.235	1390.591	1039.510
307.979	16.500	1388.989	1039.852
308.993	16.507	1387.978	1039.044
310.008	16.387	1387.567	1037.908
311.022	16.329	1386.383	1036.579
312.037	16.501	1384.923	1036.448
313.052	16.498	1384.407	1035.952
314.066	16.400	1383.368	1034.485
315.081	16.342	1382.530	1033.408
316.095	16.411	1380.991	1032.589
317.110	16.410	1380.032	1031.777
318.125	16.362	1379.518	1031.009
319.139	16.311	1378.678	1029.979
320.154	16.516	1377.417	1030.192
321.168	16.443	1376.518	1028.987
322.183	16.391	1375.870	1028.091
323.197	16.539	1374.275	1027.710
324.212	16.493	1373.932	1027.084
325.227	16.536	1373.346	1026.815
326.241	16.539	1372.278	1025.942
327.256	16.542	1371.548	1025.322
328.270	16.577	1370.204	1024.441
329.285	16.524	1369.358	1023.400
330.300	16.457	1368.593	1022.332
331.314	16.482	1367.672	1021.703
332.329	16.551	1366.866	1021.429
333.343	16.641	1365.564	1020.906
334.358	16.567	1365.063	1019.996
335.373	16.627	1363.980	1019.455
336.387	16.571	1363.886	1018.960
337.402	16.588	1362.995	1018.306
338.416	16.667	1362.194	1018.095
339.431	16.732	1361.772	1018.080
340.446	16.842	1360.886	1017.986
341.460	16.840	1359.539	1016.875
342.475	16.813	1359.016	1016.235
343.489	16.919	1357.894	1015.940
344.504	16.786	1356.857	1014.278
345.519	16.948	1356.056	1014.557
346.533	16.826	1355.156	1013.064
347.548	16.934	1354.564	1013.181
348.562	16.863	1353.770	1012.074
349.577	16.981	1352.602	1011.811
350.592	16.865	1352.082	1010.640
351.606	16.928	1351.161	1010.240
352.621	16.904	1350.200	1009.287
353.635	16.895	1348.961	1008.221
354.650	16.839	1348.206	1007.232
355.665	16.995	1346.795	1007.015
356.679	16.921	1345.763	1005.717
357.694	16.945	1345.167	1005.322
358.708	17.132	1343.451	1005.059
359.723	16.961	1342.700	1003.399
360.738	17.064	1341.675	1003.154
361.752	17.115	1340.404	1002.414
362.767	17.071	1339.601	1001.466
363.781	17.035	1338.794	1000.561
364.796	17.049	1338.205	1000.116
365.810	17.097	1337.511	999.790
366.825	17.118	1336.274	998.902
367.840	17.143	1335.849	998.643
368.854	17.191	1335.068	998.251
369.869	17.190	1334.783	997.947
370.883	17.215	1334.113	997.504
371.898	17.302	1333.078	997.150
372.913	17.256	1332.126	996.083
373.927	17.302	1331.287	995.633
374.942	17.269	1330.296	994.611
375.956	17.299	1330.052	994.515
376.971	17.382	1329.303	994.353
377.986	17.371	1328.432	993.549
379.000	17.355	1327.836	992.924
380.015	17.354	1326.520	991.843
381.029	17.424	1325.943	991.734
382.044	17.505	1325.080	991.470
383.059	17.465	1324.746	990.903
384.073	17.545	1323.613	990.431
385.088	17.466	1323.104	989.505
386.102	17.492	1322.607	989.194
387.117	17.564	1321.706	988.851
388.132	17.530	1320.945	987.997
389.146	17.450	1320.113	986.825
390.161	17.476	1319.339	986.309
391.175	17.457	1318.568	985.538
392.190	17.651	1317.332	985.647
393.205	17.600	1316.676	984.774
394.219	17.490	1316.084	983.606
395.234	17.604	1314.299	982.847
396.248	17.642	1313.241	982.184
397.263	17.773	1311.392	981.472
398.278	17.585	1310.599	979.708
399.292	17.729	1309.025	979.274
400.307	17.692	1308.187	978.347
401.321	17.609	1307.390	977.186
402.336	17.628	1306.349	976.432
403.350	17.660	1305.461	975.864
404.365	17.667	1304.521	975.116
405.380	17.698	1303.972	974.796
406.394	17.706	1303.166	974.155
407.409	17.752	1302.131	973.555
408.423	17.778	1301.771	973.353
409.438	17.810	1300.983	972.855
410.453	17.769	1300.205	971.956
411.467	17.887	1299.482	972.002
412.482	18.003	1298.280	971.677
413.496	17.854	1297.770	970.359
414.511	17.976	1297.394	970.689
415.526	17.941	1296.926	970.052
416.540	17.933	1296.230	969.402
417.555	17.978	1294.949	968.613
418.569	18.127	1294.140	968.767
419.584	18.034	1294.069	968.100
420.599	18.031	1293.639	967.676
421.613	101.945	1361.798	1491.293
422.628	99.951	1371.652	1491.371
