DTS Sentinel unit serial number:	SN413079Multiplexer serial number:	ORYXHardware model number:	OX4-SRSoftware version number:	ORYX F/W v4.00 Oryx Data Collector v3.7.2.0data status	okinstallation	princeton_trtdifferential loss correction	single-endedforward channel	channel 4reverse channel	N/Adate	2019/09/15time	17:21:34forward acquisition time	60.00reverse acquisition time	0.00gamma	496.2192k internal	0.2275k external	0.2275temperature offset calibration	0.9927default loss term (dB/km)	0.3790temperature slope calibration	1.0000multiplexer offset coefficient	1.0000multiplexer slope coefficient	1.0000fibre end	0.00T internal ref (°C)	44.75T ext. ref 1 (°C)	6.07T ext. ref 2 (°C)	40.26length (m)	temperature (°C)	Stokes	anti-Stokes-747.200	-9.004	0.111	-0.076
-746.185	30.954	0.205	0.181
-745.171	103.355	-0.126	0.152
-744.156	-15.755	0.287	0.188
-743.142	-45.300	0.149	0.076
-742.127	457.469	-0.110	0.251
-741.112	524.212	-0.051	0.125
-740.098	-158.006	-0.253	0.015
-739.083	-110.576	-0.250	-0.053
-738.069	-200.000	0.010	0.388
-737.054	53.931	-0.047	-0.047
-736.039	-34.556	-0.309	0.175
-735.025	338.186	-0.144	0.289
-734.010	36.126	-0.162	-0.147
-732.996	11.490	0.253	-0.200
-731.981	321.826	-0.053	-0.104
-730.966	619.417	0.034	0.088
-729.952	234.992	-0.043	-0.074
-728.937	760.612	0.140	-0.393
-727.923	800.000	-0.069	-0.224
-726.908	299.861	-0.016	-0.030
-725.894	23.187	-0.183	-0.155
-724.879	-200.000	0.032	-0.228
-723.864	44.122	-0.235	0.222
-722.850	9.988	-0.123	0.096
-721.835	-127.205	-0.173	-0.026
-720.821	-76.319	0.114	-0.041
-719.806	-182.414	-0.044	-0.001
-718.791	255.720	0.065	-0.115
-717.777	351.638	-0.097	-0.198
-716.762	14.035	-0.144	0.115
-715.748	701.397	0.090	0.244
-714.733	44.883	0.262	-0.249
-713.718	79.260	0.196	-0.217
-712.704	115.456	-0.186	-0.234
-711.689	-200.000	0.002	0.150
-710.675	27.652	-0.123	0.107
-709.660	523.684	-0.045	-0.109
-708.645	800.000	-0.086	-0.289
-707.631	-120.957	0.200	-0.035
-706.616	-200.000	-0.016	-0.119
-705.602	22.158	0.304	-0.255
-704.587	-100.241	-0.304	-0.078
-703.572	-200.000	0.021	0.179
-702.558	274.335	0.131	0.239
-701.543	800.000	-0.052	0.175
-700.529	-200.000	-0.048	-0.216
-699.514	-83.744	0.153	0.050
-698.499	78.095	0.182	-0.200
-697.485	174.362	-0.099	-0.147
-696.470	433.868	0.032	-0.072
-695.456	-148.375	0.300	0.025
-694.441	211.804	-0.200	-0.324
-693.426	-1.452	-0.156	-0.113
-692.412	-144.982	0.293	-0.028
-691.397	168.423	0.207	-0.303
-690.383	163.368	0.074	0.107
-689.368	-38.621	-0.255	-0.138
-688.354	-70.313	-0.067	0.026
-687.339	-38.070	-0.037	0.020
-686.324	106.702	-0.341	-0.416
-685.310	-200.000	0.345	-0.000
-684.295	490.480	-0.095	-0.224
-683.281	-59.590	0.089	0.039
-682.266	800.000	0.046	-0.203
-681.251	380.424	-0.054	0.114
-680.237	47.845	-0.090	-0.086
-679.222	104.570	-0.207	0.251
-678.208	66.921	0.203	-0.213
-677.193	182.579	0.178	0.270
-676.178	23.963	0.128	0.109
-675.164	800.000	0.107	-0.387
-674.149	35.988	0.056	0.050
-673.135	53.691	0.116	0.114
-672.120	279.238	0.087	-0.160
-671.105	-11.431	0.200	-0.135
-670.091	800.000	-0.127	0.390
-669.076	254.248	-0.096	0.168
-668.062	-111.054	-0.135	-0.028
-667.047	-98.577	0.222	-0.058
-666.032	-64.575	-0.201	0.084
-665.018	48.073	0.167	0.161
-664.003	-28.483	-0.064	0.038
-662.989	222.546	-0.153	0.254
-661.974	-8.197	0.136	0.094
-660.959	-170.992	-0.208	-0.007
-659.945	37.457	0.118	-0.107
-658.930	-49.003	0.280	0.138
-657.916	-96.232	-0.144	0.039
-656.901	-134.232	0.130	-0.016
-655.886	121.021	0.235	-0.300
-654.872	-0.458	-0.091	0.066
-653.857	42.086	0.241	0.225
-652.843	800.000	-0.161	0.551
-651.828	211.743	0.094	-0.153
-650.814	-9.069	0.377	-0.260
-649.799	70.095	0.219	0.232
-648.784	-49.643	0.270	0.132
-647.770	562.977	-0.040	0.099
-646.755	-109.549	0.520	0.113
-645.741	-200.000	0.035	0.361
-644.726	800.000	0.042	-0.155
-643.711	-200.000	0.009	-0.065
-642.697	800.000	-0.189	0.670
-641.682	131.226	-0.047	0.061
-640.668	78.225	-0.283	0.311
-639.653	547.914	-0.047	0.116
-638.638	-137.820	-0.365	0.042
-637.624	160.897	-0.126	-0.181
-636.609	-37.801	-0.189	0.103
-635.595	-50.600	-0.342	-0.165
-634.580	-41.908	-0.069	-0.036
-633.565	74.302	-0.152	-0.164
-632.551	226.983	0.199	0.332
-631.536	-69.102	-0.275	-0.109
-630.522	110.407	-0.209	-0.258
-629.507	800.000	0.098	-0.339
-628.492	13.998	-0.034	-0.027
-627.478	800.000	-0.034	-0.146
-626.463	37.445	-0.081	-0.074
-625.449	-200.000	0.015	-0.111
-624.434	-87.273	0.228	0.071
-623.419	781.722	-0.041	0.115
-622.405	-12.716	0.011	0.007
-621.390	-58.147	0.154	-0.069
-620.376	-185.384	-0.126	0.002
-619.361	800.000	0.048	-0.168
-618.346	-49.877	-0.031	-0.015
-617.332	-114.835	0.051	0.010
-616.317	-200.000	0.002	-0.036
-615.303	800.000	-0.078	-0.343
-614.288	-200.000	0.033	0.273
-613.273	23.867	0.435	0.368
-612.259	49.715	-0.183	-0.177
-611.244	800.000	0.071	-0.228
-610.230	284.088	-0.192	0.355
-609.215	-24.423	0.167	-0.102
-608.201	418.303	0.061	0.133
-607.186	291.881	0.074	-0.138
-606.171	800.000	-0.055	0.162
-605.157	368.788	0.112	0.232
-604.142	300.831	-0.207	0.391
-603.128	33.683	0.236	0.210
-602.113	-177.708	0.202	0.005
-601.098	-200.000	-0.006	-0.178
-600.084	257.850	-0.104	-0.183
-599.069	178.415	0.015	-0.022
-598.055	-87.594	0.310	0.096
-597.040	-128.652	0.363	0.053
-596.025	50.021	0.153	-0.148
-595.011	89.429	-0.223	0.255
-593.996	52.197	0.134	0.131
-592.982	419.784	0.203	-0.446
-591.967	-24.014	-0.059	0.036
-590.952	-22.725	-0.041	0.025
-589.938	121.435	-0.119	-0.152
-588.923	800.000	-0.047	0.150
-587.909	88.265	-0.170	-0.194
-586.894	-94.022	-0.260	-0.073
-585.879	-86.011	0.201	-0.064
-584.865	125.165	-0.130	-0.168
-583.850	293.137	0.066	0.123
-582.836	-1.032	0.096	0.070
-581.821	-200.000	0.010	0.198
-580.806	800.000	-0.092	0.284
-579.792	-116.852	-0.153	0.029
-578.777	178.967	0.098	-0.147
-577.763	52.172	0.041	0.040
-576.748	284.529	0.026	-0.048
-575.733	-151.655	0.084	0.006
-574.719	800.000	-0.093	-0.273
-573.704	25.488	-0.202	-0.172
-572.690	-60.509	0.324	-0.141
-571.675	-158.162	0.301	0.018
-570.661	-50.149	0.198	-0.096
-569.646	599.270	0.067	0.171
-568.631	800.000	0.035	0.139
-567.617	245.307	-0.072	-0.125
-566.602	800.000	-0.074	0.222
-565.588	395.076	0.061	-0.130
-564.573	378.911	0.043	0.090
-563.558	-39.745	0.307	0.164
-562.544	285.529	0.109	-0.202
-561.529	209.350	0.118	-0.190
-560.515	-200.000	-0.007	-0.064
-559.500	800.000	0.102	-0.294
-558.485	255.732	-0.260	-0.456
-557.471	-200.000	-0.026	-0.237
-556.456	-200.000	-0.006	0.110
-555.442	34.964	0.088	0.079
-554.427	-115.697	-0.169	0.032
-553.412	-198.039	-0.394	-0.002
-552.398	-200.000	0.029	-0.232
-551.383	-200.000	0.006	0.110
-550.369	50.719	-0.075	0.073
-549.354	29.409	-0.224	-0.195
-548.339	658.220	-0.063	-0.165
-547.325	-50.419	-0.075	0.036
-546.310	-200.000	-0.022	0.141
-545.296	234.601	0.195	0.330
-544.281	-151.056	-0.139	-0.011
-543.266	-89.826	0.172	-0.052
-542.252	-110.138	0.368	0.079
-541.237	-135.960	-0.128	-0.015
-540.223	-59.360	0.207	-0.091
-539.208	-43.774	-0.256	-0.132
-538.193	-200.000	0.001	0.231
-537.179	107.906	0.147	0.180
-536.164	-156.222	-0.146	0.009
-535.150	-100.435	-0.209	-0.053
-534.135	183.151	-0.102	0.154
-533.121	-200.000	0.038	-0.214
-532.106	-82.311	-0.220	-0.073
-531.091	-200.000	-0.004	-0.049
-530.077	-20.964	0.341	-0.214
-529.062	800.000	0.030	-0.126
-528.048	-200.000	0.027	0.269
-527.033	46.864	-0.044	0.042
-526.018	144.683	-0.236	-0.323
-525.004	-9.922	0.210	0.143
-523.989	-177.676	-0.362	-0.009
-522.975	262.745	-0.132	0.234
-521.960	-200.000	-0.040	0.528
-520.945	115.998	-0.226	0.283
-519.931	58.977	0.146	-0.147
-518.916	-23.808	-0.190	-0.116
-517.902	-49.601	-0.500	0.243
-516.887	48.832	-0.159	-0.153
-515.872	37.359	0.176	-0.159
-514.858	-200.000	-0.040	-0.517
-513.843	266.517	0.022	-0.039
-512.829	363.997	-0.117	0.240
-511.814	-200.000	-0.053	0.301
-510.799	516.458	0.046	-0.110
-509.785	-98.140	-0.335	-0.088
-508.770	-185.308	0.224	0.004
-507.756	243.918	-0.096	0.165
-506.741	-116.523	-0.228	0.043
-505.726	-114.565	-0.329	-0.065
-504.712	-200.000	-0.030	-0.144
-503.697	354.398	0.036	0.073
-502.683	-190.938	-0.483	0.005
-501.668	-77.275	-0.293	0.104
-500.653	-86.232	-0.140	0.044
-499.639	-167.973	0.147	0.006
-498.624	43.449	-0.187	0.175
-497.610	156.279	0.146	-0.205
-496.595	398.386	-0.121	0.259
-495.581	800.000	-0.027	0.078
-494.566	551.012	-0.098	-0.240
-493.551	-111.804	-0.042	0.009
-492.537	-200.000	0.027	-0.183
-491.522	800.000	-0.061	-0.220
-490.508	-5.320	0.217	0.152
-489.493	76.190	0.058	0.062
-488.478	-78.982	0.189	-0.066
-487.464	-37.842	-0.231	-0.125
-486.449	-200.000	0.056	-0.346
-485.435	335.201	0.037	-0.073
-484.420	16.308	-0.198	-0.159
-483.405	1.584	0.239	0.176
-482.391	-58.697	-0.364	0.161
-481.376	108.373	-0.197	-0.240
-480.362	-92.175	-0.260	0.075
-479.347	2.427	-0.292	-0.216
-478.332	-200.000	-0.059	-0.279
-477.318	127.483	-0.259	0.336
-476.303	541.456	0.030	-0.072
-475.289	432.487	-0.132	-0.292
-474.274	800.000	-0.057	-0.244
-473.259	-200.000	0.021	-0.167
-472.245	20.807	-0.308	-0.255
-471.230	-200.000	0.001	-0.509
-470.216	-82.780	-0.270	0.089
-469.201	-200.000	0.005	0.189
-468.186	-65.486	-0.165	0.068
-467.172	205.782	0.236	-0.375
-466.157	640.937	0.093	0.242
-465.143	-68.135	0.131	0.052
-464.128	-67.923	0.356	-0.142
-463.113	149.889	-0.047	-0.065
-462.099	90.711	0.073	-0.083
-461.084	431.569	0.034	0.076
-460.070	-44.320	0.054	-0.027
-459.055	155.570	0.140	-0.196
-458.040	78.977	0.266	0.290
-457.026	28.764	-0.047	0.040
-456.011	233.978	0.073	-0.123
-454.997	6.725	0.177	0.134
-453.982	-82.330	0.176	-0.058
-452.968	-131.977	0.285	-0.038
-451.953	-86.428	0.081	-0.025
-450.938	-167.669	-0.117	-0.005
-449.924	-130.881	0.322	-0.044
-448.909	422.846	0.018	-0.040
-447.895	-68.108	0.147	0.059
-446.880	245.579	-0.053	0.091
-445.865	800.000	-0.156	0.464
-444.851	41.612	0.019	-0.017
-443.836	-200.000	0.051	0.249
-442.822	-32.686	-0.273	0.155
-441.807	23.033	0.190	-0.159
-440.792	68.898	-0.166	0.174
-439.778	-147.179	0.077	0.007
-438.763	-94.665	0.227	0.063
-437.749	109.287	-0.196	0.239
-436.734	-126.374	-0.226	-0.034
-435.719	-26.375	-0.288	-0.172
-434.705	-164.472	0.235	0.011
-433.690	-157.785	0.172	-0.010
-432.676	-71.514	0.112	-0.043
-431.661	51.385	-0.125	0.121
-430.646	-200.000	-0.006	0.052
-429.632	-200.000	0.021	-0.134
-428.617	800.000	-0.039	-0.140
-427.603	800.000	-0.049	0.206
-426.588	-163.421	0.393	-0.019
-425.573	104.529	0.024	0.029
-424.559	-91.285	-0.339	0.099
-423.544	-65.213	0.241	-0.099
-422.530	407.769	0.093	-0.199
-421.515	318.519	0.078	-0.150
-420.500	198.981	0.147	0.230
-419.486	-200.000	0.085	-0.397
-418.471	-19.683	-0.307	-0.193
-417.457	239.127	0.143	0.242
-416.442	-139.028	-0.133	0.015
-415.428	-34.926	-0.267	-0.148
-414.413	73.740	0.044	0.047
-413.398	-171.157	-0.273	0.009
-412.384	800.000	0.067	0.194
-411.369	64.151	0.237	-0.242
-410.355	-200.000	-0.016	0.168
-409.340	509.925	0.080	-0.189
-408.325	225.307	0.044	0.072
-407.311	-200.000	-0.002	-0.150
-406.296	165.703	0.040	0.057
-405.282	-57.901	0.340	-0.151
-404.267	-200.000	0.009	0.098
-403.252	-200.000	0.032	0.325
-402.238	-200.000	-0.017	0.230
-401.223	-200.000	-0.017	0.140
-400.209	224.838	-0.065	-0.107
-399.194	-71.484	0.526	0.200
-398.179	-149.438	-0.155	-0.013
-397.165	-200.000	-0.017	0.126
-396.150	59.195	-0.317	0.317
-395.136	-200.000	-0.111	-0.777
-394.121	-200.000	-0.031	-0.143
-393.106	-108.146	0.248	0.055
-392.092	594.476	0.073	0.184
-391.077	14.104	0.277	0.219
-390.063	575.666	-0.061	-0.150
-389.048	-200.000	-0.048	-0.246
-388.033	-174.541	0.204	-0.006
-387.019	-200.000	0.008	-0.138
-386.004	520.742	-0.038	0.091
-384.990	-74.016	-0.348	-0.128
-383.975	-127.089	0.569	-0.085
-382.960	-125.274	0.177	-0.028
-381.946	135.725	0.114	-0.150
-380.931	245.225	-0.139	-0.237
-379.917	78.901	0.107	-0.117
-378.902	55.086	0.315	-0.310
-377.888	13.985	-0.139	-0.110
-376.873	-14.172	0.241	-0.158
-375.858	-11.026	0.126	-0.085
-374.844	-147.209	-0.297	-0.026
-373.829	144.446	-0.028	-0.038
-372.815	13.542	-0.137	0.108
-371.800	-48.866	0.440	-0.214
-370.785	-200.000	0.011	0.125
-369.771	-200.000	-0.047	-0.248
-368.756	-88.208	0.061	0.019
-367.742	147.341	-0.165	0.225
-366.727	720.130	0.120	-0.324
-365.712	-176.036	0.289	-0.008
-364.698	800.000	-0.135	-0.384
-363.683	517.528	0.062	-0.147
-362.669	-200.000	0.001	-0.303
-361.654	-150.414	-0.114	0.009
-360.639	-35.484	0.321	0.177
-359.625	-6.761	0.192	-0.133
-358.610	-5.964	-0.075	0.052
-357.596	75.648	-0.166	0.178
-356.581	-149.568	0.088	-0.007
-355.566	732.649	-0.138	-0.374
-354.552	-62.506	-0.438	-0.185
-353.537	-82.861	0.448	0.147
-352.523	800.000	0.182	0.702
-351.508	-39.703	0.333	0.177
-350.493	-81.993	-0.143	-0.048
-349.479	-90.881	0.165	0.048
-348.464	-129.190	-0.167	-0.024
-347.450	26.309	0.115	0.098
-346.435	-120.324	-0.212	0.037
-345.420	800.000	0.074	-0.273
-344.406	69.091	0.024	0.025
-343.391	-109.280	0.298	0.064
-342.377	-200.000	-0.035	0.236
-341.362	-200.000	-0.042	-0.282
-340.348	414.903	-0.183	0.396
-339.333	325.437	0.069	-0.134
-338.318	-41.880	0.100	0.052
-337.304	-119.450	-0.437	0.077
-336.289	716.387	-0.078	0.210
-335.275	176.972	0.020	0.030
-334.260	158.469	-0.110	0.155
-333.245	34.189	0.052	-0.046
-332.231	664.915	0.030	-0.077
-331.216	192.637	0.094	0.143
-330.202	-159.817	0.075	-0.004
-329.187	-168.638	-0.132	-0.005
-328.172	-143.181	-0.045	0.004
-327.158	-200.000	-0.018	0.160
-326.143	-133.501	0.178	-0.023
-325.129	-200.000	-0.003	-0.211
-324.114	-200.000	-0.037	0.214
-323.099	-57.501	0.054	0.024
-322.085	-22.477	-0.145	-0.089
-321.070	-200.000	0.013	0.138
-320.056	21.197	-0.017	-0.014
-319.041	-200.000	-0.023	0.292
-318.026	-3.022	-0.153	-0.108
-317.012	-200.000	-0.043	0.417
-315.997	-200.000	0.002	-0.079
-314.983	237.014	0.034	-0.057
-313.968	-89.489	0.269	0.080
-312.953	748.602	0.124	0.339
-311.939	-200.000	0.041	-0.201
-310.924	800.000	0.032	-0.120
-309.910	-94.748	-0.045	-0.012
-308.895	-68.664	0.170	-0.067
-307.880	155.612	0.085	0.119
-306.866	-62.104	-0.407	-0.172
-305.851	-59.009	-0.275	-0.120
-304.837	19.982	0.172	-0.141
-303.822	-200.000	0.014	-0.070
-302.807	-56.505	-0.250	-0.112
-301.793	-171.536	0.111	-0.004
-300.778	-200.000	0.001	-0.148
-299.764	800.000	0.055	-0.161
-298.749	-186.931	-0.301	0.004
-297.735	-78.827	-0.275	-0.095
-296.720	800.000	0.040	0.127
-295.705	-27.068	-0.202	-0.120
-294.691	281.190	0.023	0.042
-293.676	52.416	0.316	0.305
-292.662	37.900	-0.248	-0.223
-291.647	-174.985	0.332	0.009
-290.632	-19.160	-0.312	-0.196
-289.618	159.785	0.014	0.020
-288.603	-135.538	0.170	0.021
-287.589	8.071	0.126	0.096
-286.574	-4.125	0.262	0.184
-285.559	-86.189	-0.264	0.082
-284.545	186.350	-0.128	0.193
-283.530	734.577	-0.009	-0.024
-282.516	83.259	-0.048	-0.053
-281.501	-63.958	0.096	0.040
-280.486	-200.000	-0.005	0.176
-279.472	32.326	-0.070	-0.061
-278.457	67.780	-0.180	0.187
-277.443	-26.535	-0.098	-0.058
-276.428	800.000	-0.069	0.234
-275.413	3.254	-0.075	0.055
-274.399	-97.727	-0.087	0.023
-273.384	174.830	0.155	-0.228
-272.370	16.890	-0.236	-0.189
-271.355	-53.719	0.140	0.065
-270.340	-66.291	0.310	0.125
-269.326	16.696	-0.190	-0.152
-268.311	-86.195	-0.201	-0.063
-267.297	-1.239	-0.044	0.032
-266.282	330.246	0.144	-0.280
-265.267	-200.000	0.013	-0.146
-264.253	141.261	-0.149	-0.200
-263.238	800.000	-0.013	-0.057
-262.224	140.622	-0.130	-0.174
-261.209	800.000	-0.058	-0.251
-260.195	-93.154	0.232	0.065
-259.180	38.396	0.209	0.188
-258.165	-95.005	0.208	0.057
-257.151	95.820	0.066	0.077
-256.136	107.886	0.293	0.353
-255.122	-10.582	-0.218	0.146
-254.107	84.317	0.200	0.221
-253.092	-41.615	0.401	0.208
-252.078	153.462	0.084	-0.117
-251.063	-69.590	-0.226	0.087
-250.049	197.912	-0.158	-0.244
-249.034	-200.000	0.032	-0.248
-248.019	248.387	0.153	-0.262
-247.005	800.000	0.053	0.215
-245.990	-118.730	0.198	-0.035
-244.976	800.000	-0.084	-0.359
-243.961	62.275	-0.257	-0.259
-242.946	-200.000	-0.002	0.285
-241.932	8.750	0.069	-0.052
-240.917	-103.446	0.215	0.051
-239.903	800.000	0.121	0.401
-238.888	800.000	-0.073	0.298
-237.873	-84.565	0.265	0.085
-236.859	-72.705	0.208	0.077
-235.844	7.117	-0.186	0.140
-234.830	-87.538	-0.340	0.104
-233.815	15.051	0.042	0.034
-232.800	-16.702	-0.054	0.034
-231.786	130.410	0.079	-0.102
-230.771	-4.967	0.121	0.084
-229.757	-117.581	-0.232	-0.042
-228.742	-148.988	-0.242	-0.020
-227.727	-166.552	-0.192	0.008
-226.713	28.519	0.177	0.152
-225.698	174.040	0.056	0.082
-224.684	-3.789	0.147	-0.103
-223.669	-73.185	-0.178	-0.066
-222.655	282.004	0.052	-0.094
-221.640	153.948	0.041	0.057
-220.625	130.908	0.097	0.125
-219.611	-200.000	0.033	-0.195
-218.596	89.959	-0.054	-0.061
-217.582	20.141	-0.048	-0.039
-216.567	-31.347	0.304	-0.173
-215.552	11.805	0.125	0.097
-214.538	9.272	-0.490	-0.374
-213.523	128.163	-0.258	0.331
-212.509	800.000	-0.024	-0.085
-211.494	248.101	0.187	-0.319
-210.479	-200.000	0.070	-0.371
-209.465	-75.526	0.484	0.174
-208.450	-15.653	0.146	0.094
-207.436	-157.446	0.012	0.001
-206.421	800.000	-0.081	0.247
-205.406	800.000	-0.023	-0.082
-204.392	722.224	-0.062	0.167
-203.377	-200.000	-0.071	-0.320
-202.363	251.061	0.109	-0.186
-201.348	37.659	-0.196	0.176
-200.333	303.141	0.124	-0.232
-199.319	300.089	0.132	0.245
-198.304	-76.363	-0.379	-0.135
-197.290	237.827	0.085	0.142
-196.275	-154.897	0.141	-0.009
-195.260	10.799	0.199	-0.153
-194.246	800.000	-0.028	-0.123
-193.231	-200.000	-0.019	0.112
-192.217	133.438	-0.188	0.246
-191.202	-200.000	0.017	0.153
-190.187	-200.000	-0.030	0.343
-189.173	218.346	-0.164	0.264
-188.158	-200.000	-0.013	0.144
-187.144	78.029	-0.060	-0.064
-186.129	-200.000	0.063	-0.284
-185.114	-64.865	-0.238	-0.097
-184.100	-126.685	0.264	-0.039
-183.085	90.102	-0.150	-0.169
-182.071	458.218	0.068	0.152
-181.056	-200.000	0.018	0.214
-180.042	127.593	0.053	0.068
-179.027	592.311	-0.068	0.169
-178.012	-200.000	0.036	0.318
-176.998	-140.900	0.173	0.018
-175.983	-25.348	-0.024	0.014
-174.969	800.000	0.072	0.278
-173.954	-129.893	0.122	-0.017
-172.939	800.000	-0.043	0.168
-171.925	-136.942	0.446	0.052
-170.910	210.812	-0.159	0.251
-169.896	800.000	0.114	-0.381
-168.881	264.926	0.196	-0.344
-167.866	3.552	-0.119	-0.087
-166.852	-200.000	0.051	0.366
-165.837	-7.263	-0.179	-0.122
-164.823	-36.947	-0.236	-0.128
-163.808	-96.780	-0.363	0.096
-162.793	371.376	0.078	0.159
-161.779	216.149	0.106	-0.170
-160.764	3.623	0.097	-0.071
-159.750	-72.801	0.201	0.075
-158.735	-200.000	-0.081	0.464
-157.720	101.585	0.156	0.183
-156.706	209.859	-0.157	-0.249
-155.691	-44.465	-0.062	-0.031
-154.677	-0.778	-0.112	0.080
-153.662	87.383	-0.118	0.131
-152.647	-196.618	-0.254	0.002
-151.633	21.978	0.137	0.112
-150.618	450.264	-0.070	0.156
-149.604	438.200	0.214	0.469
-148.589	684.362	0.186	-0.489
-147.574	-10.905	-0.287	0.191
-146.560	-91.930	-0.276	0.079
-145.545	-54.677	0.391	-0.178
-144.531	-200.000	0.008	-0.361
-143.516	-143.714	-0.091	0.009
-142.502	89.880	-0.052	-0.059
-141.487	-194.697	0.194	0.002
-140.472	182.016	-0.141	0.209
-139.458	599.763	-0.101	0.252
-138.443	-42.079	-0.132	0.068
-137.429	-8.359	0.023	0.016
-136.414	-200.000	-0.002	-0.050
-135.399	-99.474	-0.150	0.038
-134.385	-41.586	-0.093	-0.048
-133.370	275.037	-0.243	-0.433
-132.356	23.926	0.122	0.101
-131.341	12.645	-0.163	-0.126
-130.326	168.244	-0.093	-0.133
-129.312	62.151	-0.094	0.094
-128.297	-156.231	-0.133	-0.008
-127.283	-200.000	-0.046	0.242
-126.268	491.728	-0.139	0.321
-125.253	285.848	0.069	0.125
-124.239	461.577	-0.100	0.225
-123.224	-200.000	0.014	-0.123
-122.210	-19.885	0.264	-0.164
-121.195	-200.000	-0.021	-0.145
-120.180	116.440	0.120	0.148
-119.166	-44.107	-0.277	-0.140
-118.151	-111.590	0.220	0.045
-117.137	1.851	0.040	-0.029
-116.122	-200.000	0.037	-0.233
-115.107	-200.000	0.064	-0.291
-114.093	-69.293	-0.442	0.171
-113.078	-113.975	0.280	-0.055
-112.064	-143.124	-0.146	-0.014
-111.049	444.592	0.108	-0.238
-110.034	505.578	0.069	-0.161
-109.020	52.437	-0.176	0.169
-108.005	800.000	0.033	0.111
-106.991	650.088	0.070	0.179
-105.976	63.248	-0.294	0.297
-104.962	-131.930	0.280	0.037
-103.947	214.600	0.143	-0.227
-102.932	-200.000	0.007	0.123
-101.918	800.000	0.082	0.265
-100.903	378.434	0.033	0.068
-99.889	-16.170	-0.098	-0.062
-98.874	-92.570	0.354	0.100
-97.859	-116.191	-0.188	-0.035
-96.845	-108.829	0.182	-0.039
-95.830	-34.278	-0.416	0.230
-94.816	-200.000	0.053	0.287
-93.801	134.996	0.103	0.134
-92.786	-16.196	-0.160	0.102
-91.772	325.009	-0.093	0.178
-90.757	91.864	0.126	-0.142
-89.743	-200.000	0.071	-0.412
-88.728	-200.000	-0.018	-0.304
-87.713	214.173	0.027	-0.043
-86.699	336.315	0.057	0.110
-85.684	306.984	-0.052	-0.098
-84.670	-200.000	0.030	-0.169
-83.655	800.000	-0.023	0.068
-82.640	-143.251	0.103	-0.010
-81.626	-200.000	-0.021	-0.416
-80.611	20.424	0.111	-0.090
-79.597	-31.720	0.310	-0.175
-78.582	85.571	0.059	0.065
-77.567	800.000	0.055	-0.178
-76.553	101.300	0.110	0.128
-75.538	178.091	-0.031	0.046
-74.524	800.000	0.064	0.278
-73.509	515.841	0.075	-0.176
-72.494	237.568	0.120	-0.200
-71.480	800.000	-0.076	-0.323
-70.465	73.207	0.216	0.227
-69.451	39.322	-0.058	-0.052
-68.436	310.961	0.061	-0.116
-67.422	667.256	0.072	-0.186
-66.407	88.887	0.210	0.235
-65.392	-167.977	0.126	-0.005
-64.378	13.668	0.279	0.217
-63.363	-79.185	0.117	0.040
-62.349	-104.955	-0.231	0.053
-61.334	48.495	-0.736	-0.693
-60.319	-200.000	0.046	0.550
-59.305	-200.000	0.089	-0.599
-58.290	559.465	0.288	0.698
-57.276	214.029	0.897	1.425
-56.261	-200.000	69.772	520.527
-55.246	569.340	1257.522	3069.113
-54.232	133.220	2522.372	3271.652
-53.217	109.058	2392.221	2872.214
-52.203	52.321	2133.252	2042.440
-51.188	46.797	2038.636	1901.072
-50.173	45.057	2017.924	1865.794
-49.159	56.432	2051.616	2001.757
-48.144	62.700	2073.024	2080.200
-47.130	47.780	2038.766	1909.939
-46.115	44.818	2027.507	1872.155
-45.100	44.744	2024.632	1868.749
-44.086	44.686	2022.468	1866.146
-43.071	44.645	2019.845	1863.277
-42.057	44.632	2017.842	1861.241
-41.042	44.675	2015.868	1859.731
-40.027	44.686	2014.065	1858.096
-39.013	44.647	2012.067	1855.824
-37.998	44.753	2010.182	1854.981
-36.984	44.766	2008.018	1853.023
-35.969	44.736	2006.554	1851.327
-34.954	44.706	2004.844	1849.405
-33.940	44.796	2002.637	1848.115
-32.925	44.791	2001.150	1846.619
-31.911	44.799	1999.573	1845.162
-30.896	44.695	1998.393	1843.063
-29.881	44.761	1996.558	1841.894
-28.867	44.780	1995.132	1840.679
-27.852	44.870	1992.443	1838.938
-26.838	44.800	1990.609	1836.535
-25.823	44.752	1988.964	1834.512
-24.809	44.750	1986.996	1832.606
-23.794	44.857	1984.787	1831.459
-22.779	44.744	1983.637	1829.312
-21.765	44.730	1981.959	1827.563
-20.750	44.713	1980.132	1825.652
-19.736	44.775	1978.715	1824.833
-18.721	44.740	1977.169	1823.024
-17.706	44.740	1975.683	1821.576
-16.692	44.784	1973.232	1819.640
-15.677	44.720	1972.021	1817.881
-14.663	44.734	1971.019	1817.007
-13.648	44.798	1969.328	1815.947
-12.633	44.722	1968.052	1814.021
-11.619	44.753	1966.881	1813.144
-10.604	44.705	1965.615	1811.485
-9.590	44.759	1964.276	1810.655
-8.575	44.776	1962.753	1809.334
-7.560	44.753	1961.317	1807.729
-6.546	44.814	1959.785	1806.792
-5.531	44.751	1958.702	1805.161
-4.517	44.710	1957.497	1803.613
-3.502	44.830	1955.886	1803.123
-2.487	44.792	1954.842	1801.749
-1.473	44.752	1953.479	1800.073
-0.458	44.942	1949.224	1797.749
0.556	42.387	1930.905	1774.029
1.571	37.879	1908.443	1713.723
2.586	32.114	1925.735	1677.777
3.600	29.645	1959.781	1684.808
4.615	28.165	1955.917	1667.861
5.629	22.122	1854.475	1528.813
6.644	12.310	1729.229	1345.423
7.659	6.747	1685.239	1266.564
8.673	6.220	1681.532	1259.441
9.688	6.147	1680.191	1257.746
10.702	6.041	1678.480	1255.502
11.717	5.893	1675.547	1252.019
12.731	6.432	1675.948	1256.509
13.746	12.419	1690.394	1315.267
14.761	18.738	1703.123	1375.853
15.775	18.828	1700.344	1374.207
16.790	16.827	1695.463	1354.161
17.804	15.704	1691.521	1341.939
18.819	14.684	1688.021	1330.916
19.834	13.977	1685.889	1323.490
20.848	13.561	1684.240	1318.760
21.863	13.378	1682.112	1315.522
22.877	13.082	1680.856	1312.075
23.892	13.045	1678.998	1310.217
24.907	12.873	1678.243	1308.144
25.921	12.784	1677.922	1307.074
26.936	12.777	1676.167	1305.535
27.950	12.782	1675.513	1304.954
28.965	12.887	1675.135	1305.375
29.980	12.967	1673.837	1304.875
30.994	13.002	1672.986	1304.371
32.009	13.071	1671.601	1303.725
33.023	13.174	1670.458	1303.528
34.038	13.229	1669.454	1303.065
35.053	13.172	1668.456	1301.720
36.067	13.093	1667.443	1300.196
37.082	13.009	1666.215	1298.459
38.096	13.028	1665.660	1298.062
39.111	12.959	1664.484	1296.493
40.126	13.058	1663.974	1296.754
41.140	13.087	1662.806	1295.961
42.155	12.914	1661.364	1293.360
43.169	12.882	1659.701	1291.701
44.184	12.790	1659.001	1290.323
45.199	12.807	1657.699	1289.327
46.213	12.860	1656.605	1288.777
47.228	12.806	1655.552	1287.420
48.242	12.955	1653.931	1287.210
49.257	13.002	1653.055	1286.784
50.271	12.961	1652.251	1285.725
51.286	12.917	1651.275	1284.511
52.301	12.913	1649.658	1283.108
53.315	13.073	1647.817	1282.804
54.330	12.983	1647.016	1281.366
55.344	12.923	1644.747	1279.023
56.359	12.879	1643.168	1277.343
57.374	12.832	1643.134	1276.836
58.388	12.867	1641.590	1275.795
59.403	12.828	1639.794	1273.985
60.417	12.866	1638.598	1273.238
61.432	12.851	1637.237	1271.949
62.447	12.822	1635.802	1270.504
63.461	12.788	1634.848	1269.382
64.476	12.744	1633.602	1267.970
65.490	12.674	1632.621	1266.558
66.505	12.608	1631.791	1265.294
67.520	12.733	1630.632	1265.241
68.534	12.801	1629.644	1264.887
69.549	12.789	1628.622	1263.886
70.563	12.742	1627.564	1262.591
71.578	12.762	1626.082	1261.489
72.593	12.648	1625.342	1259.928
73.607	12.674	1624.429	1259.308
74.622	12.673	1623.393	1258.388
75.636	12.642	1622.465	1257.315
76.651	12.643	1621.554	1256.512
77.666	12.651	1620.721	1255.815
78.680	12.606	1620.282	1255.018
79.695	12.637	1619.336	1254.414
80.709	12.716	1617.912	1253.797
81.724	12.660	1617.420	1252.876
82.739	12.743	1616.780	1252.906
83.753	12.813	1615.847	1252.599
84.768	12.903	1614.783	1252.352
85.782	12.904	1614.029	1251.660
86.797	12.997	1613.382	1251.753
87.812	13.070	1612.548	1251.551
88.826	12.988	1610.634	1249.332
89.841	12.879	1610.141	1248.017
90.855	12.856	1609.045	1246.883
91.870	12.991	1607.576	1246.654
92.884	13.008	1607.158	1246.343
93.899	13.004	1606.173	1245.446
94.914	13.019	1605.029	1244.557
95.928	13.119	1603.473	1243.997
96.943	13.172	1601.856	1243.026
97.957	13.039	1600.743	1241.058
98.972	13.060	1599.185	1239.898
99.987	13.016	1597.866	1238.433
101.001	13.025	1595.899	1236.868
102.016	13.076	1594.277	1235.884
103.030	13.007	1593.609	1234.739
104.045	12.972	1591.970	1233.096
105.060	13.067	1590.476	1232.541
106.074	13.018	1589.229	1231.100
107.089	12.888	1587.789	1228.904
108.103	12.752	1586.395	1226.705
109.118	12.869	1584.242	1225.803
110.133	12.778	1583.081	1224.121
111.147	12.789	1581.968	1223.234
112.162	12.738	1580.970	1221.976
113.176	12.763	1579.346	1220.794
114.191	12.854	1578.002	1220.324
115.206	12.855	1576.769	1219.270
116.220	12.866	1575.441	1218.214
117.235	12.859	1574.178	1217.082
118.249	12.792	1573.151	1215.685
119.264	12.877	1571.587	1214.996
120.279	12.851	1570.436	1213.809
121.293	12.765	1568.583	1211.634
122.308	12.781	1567.523	1210.827
123.322	12.712	1566.361	1209.313
124.337	12.720	1564.607	1207.910
125.352	12.703	1563.459	1206.792
126.366	12.831	1561.860	1206.391
127.381	12.807	1561.011	1205.449
128.395	12.795	1560.165	1204.603
129.410	12.782	1558.581	1203.180
130.424	12.753	1557.692	1202.176
131.439	12.788	1556.288	1201.242
132.454	12.818	1554.771	1200.183
133.468	12.911	1553.299	1199.615
134.483	12.959	1551.652	1198.588
135.497	13.003	1550.522	1197.925
136.512	13.041	1548.525	1196.550
137.527	12.897	1547.918	1194.936
138.541	13.020	1546.478	1194.605
139.556	12.935	1545.399	1193.052
140.570	12.993	1543.982	1192.272
141.585	13.086	1542.366	1191.592
142.600	13.226	1541.058	1191.481
143.614	13.173	1539.984	1190.164
144.629	13.169	1538.870	1189.172
145.643	13.272	1537.183	1188.507
146.658	13.266	1536.131	1187.543
147.673	13.245	1534.661	1186.149
148.687	13.206	1533.243	1184.671
149.702	13.120	1532.003	1182.991
150.716	13.044	1530.242	1180.982
151.731	12.987	1528.963	1179.481
152.746	13.071	1527.426	1178.796
153.760	13.043	1525.857	1177.278
154.775	13.090	1524.886	1176.761
155.789	13.109	1523.850	1175.992
156.804	13.120	1522.613	1175.008
157.819	13.186	1521.144	1174.240
158.833	13.155	1519.825	1172.902
159.848	13.185	1518.603	1172.065
160.862	13.319	1517.607	1172.143
161.877	13.259	1516.479	1170.747
162.892	13.233	1515.029	1169.334
163.906	13.184	1513.639	1167.817
164.921	13.110	1512.382	1166.218
165.935	13.168	1511.170	1165.593
166.950	13.094	1510.867	1164.733
167.964	13.202	1508.798	1163.795
168.979	13.192	1508.389	1163.306
169.994	13.226	1507.027	1162.391
171.008	13.318	1505.841	1162.017
172.023	13.172	1505.071	1160.301
173.037	13.234	1504.172	1159.940
174.052	13.330	1502.280	1159.050
175.067	13.344	1501.651	1158.561
176.081	13.214	1500.729	1156.832
177.096	13.255	1498.926	1155.628
178.110	13.239	1497.182	1154.068
179.125	13.213	1496.855	1153.538
180.140	13.267	1495.892	1153.071
181.154	13.277	1494.613	1152.052
182.169	13.307	1493.222	1151.083
183.183	13.289	1492.379	1150.207
184.198	13.336	1491.607	1149.834
185.213	13.458	1489.932	1149.289
186.227	13.541	1489.002	1149.048
187.242	13.367	1488.412	1147.283
188.256	13.502	1486.957	1146.998
189.271	13.496	1486.005	1146.120
190.286	13.611	1484.951	1145.998
191.300	13.571	1483.805	1144.739
192.315	13.336	1482.573	1142.062
193.329	13.273	1480.994	1140.315
194.344	13.213	1479.846	1138.911
195.359	13.271	1479.169	1138.694
196.373	13.246	1478.073	1137.573
197.388	13.347	1477.188	1137.485
198.402	13.383	1476.173	1136.852
199.417	13.576	1474.894	1137.089
200.432	13.580	1474.056	1136.370
201.446	13.694	1473.247	1136.428
202.461	13.749	1472.101	1135.821
203.475	13.752	1470.680	1134.645
204.490	13.855	1469.781	1134.554
205.504	13.791	1468.962	1133.382
206.519	13.724	1467.475	1131.680
207.534	13.685	1466.219	1130.346
208.548	13.769	1465.254	1130.072
209.563	13.615	1464.423	1128.286
210.577	13.638	1463.513	1127.644
211.592	13.620	1462.634	1126.739
212.607	13.690	1461.579	1126.308
213.621	13.796	1460.908	1126.405
214.636	13.870	1459.834	1125.980
215.650	13.887	1458.734	1125.152
216.665	13.807	1458.224	1124.115
217.680	13.803	1457.313	1123.282
218.694	13.939	1456.353	1123.368
219.709	13.969	1455.385	1122.723
220.723	13.961	1454.250	1121.691
221.738	13.913	1453.710	1120.853
222.753	13.838	1453.112	1119.785
223.767	13.846	1452.364	1119.167
224.782	13.848	1450.943	1117.986
225.796	13.930	1449.659	1117.448
226.811	14.011	1448.676	1117.134
227.826	14.188	1447.698	1117.471
228.840	13.976	1447.046	1115.448
229.855	14.030	1445.901	1114.826
230.869	13.967	1444.984	1113.598
231.884	14.006	1444.439	1113.346
232.899	14.011	1443.211	1112.328
233.913	14.016	1442.005	1111.337
234.928	13.966	1440.686	1109.889
235.942	13.972	1439.628	1109.015
236.957	13.928	1438.140	1107.477
237.972	13.961	1436.812	1106.573
238.986	13.877	1436.218	1105.459
240.001	14.028	1435.419	1105.753
241.015	13.937	1434.164	1104.084
242.030	14.023	1433.033	1103.685
243.045	14.108	1431.740	1103.160
244.059	14.141	1430.920	1102.647
245.074	14.128	1430.137	1101.862
246.088	14.104	1429.553	1101.150
247.103	14.166	1428.971	1101.015
248.117	14.165	1428.175	1100.301
249.132	14.238	1427.095	1099.856
250.147	14.278	1426.808	1099.796
251.161	14.297	1426.238	1099.385
252.176	14.505	1425.384	1100.002
253.190	14.466	1424.776	1099.180
254.205	14.501	1423.622	1098.425
255.220	14.705	1422.345	1098.682
256.234	14.662	1421.483	1097.637
257.249	14.665	1421.307	1097.425
258.263	14.610	1420.666	1096.469
259.278	14.606	1419.885	1095.742
260.293	14.614	1418.688	1094.778
261.307	14.594	1417.793	1093.855
262.322	14.616	1417.299	1093.523
263.336	14.732	1416.191	1093.329
264.351	14.686	1415.528	1092.420
265.366	14.757	1414.296	1091.840
266.380	14.738	1413.602	1091.085
267.395	14.713	1412.689	1090.117
268.409	14.721	1411.837	1089.420
269.424	14.750	1410.599	1088.555
270.439	14.590	1410.314	1087.193
271.453	14.672	1408.798	1086.462
272.468	14.701	1407.892	1085.856
273.482	14.708	1407.090	1085.189
274.497	14.589	1406.762	1084.069
275.512	14.728	1405.335	1083.770
276.526	14.733	1404.328	1082.935
277.541	14.703	1403.130	1081.717
278.555	14.639	1402.861	1081.001
279.570	14.904	1401.289	1081.410
280.585	14.727	1400.741	1079.746
281.599	14.833	1399.739	1079.560
282.614	14.965	1399.142	1079.861
283.628	14.888	1398.130	1078.484
284.643	14.887	1396.717	1077.296
285.657	14.876	1395.470	1076.165
286.672	14.809	1394.952	1075.241
287.687	14.851	1393.432	1074.243
288.701	14.825	1392.949	1073.607
289.716	14.823	1392.226	1072.941
290.730	14.924	1391.137	1072.660
291.745	14.911	1390.384	1071.899
292.760	14.933	1389.466	1071.236
293.774	14.971	1388.358	1070.529
294.789	14.933	1387.337	1069.404
295.803	15.082	1386.442	1069.571
296.818	15.036	1385.936	1068.792
297.833	15.124	1384.671	1068.285
298.847	15.031	1383.864	1066.973
299.862	14.970	1382.867	1065.723
300.876	15.060	1381.978	1065.519
301.891	15.061	1380.841	1064.553
302.906	15.159	1380.077	1064.495
303.920	15.215	1379.121	1064.017
304.935	15.262	1378.248	1063.547
305.949	15.309	1377.806	1063.409
306.964	15.213	1377.470	1062.451
307.979	15.289	1376.478	1062.070
308.993	15.389	1375.118	1061.561
310.008	15.344	1373.905	1060.247
311.022	15.328	1373.140	1059.460
312.037	15.411	1372.019	1059.023
313.052	15.433	1371.126	1058.380
314.066	15.385	1370.203	1057.273
315.081	15.323	1369.216	1056.026
316.095	15.256	1368.005	1054.579
317.110	15.248	1366.726	1053.445
318.125	15.189	1366.352	1052.694
319.139	15.360	1364.898	1052.554
320.154	15.301	1364.014	1051.410
321.168	15.314	1362.850	1050.501
322.183	15.323	1362.128	1049.912
323.197	15.232	1361.507	1048.767
324.212	15.294	1360.827	1048.540
325.227	15.272	1360.065	1047.723
326.241	15.448	1359.023	1047.924
327.256	15.394	1357.889	1046.623
328.270	15.389	1356.865	1045.709
329.285	15.447	1356.143	1045.420
330.300	15.306	1355.459	1043.923
331.314	15.455	1354.317	1043.876
332.329	15.357	1353.856	1042.820
333.343	15.426	1352.826	1042.363
334.358	15.377	1351.919	1041.270
335.373	15.430	1350.876	1040.702
336.387	15.592	1350.073	1040.996
337.402	15.542	1349.572	1040.207
338.416	15.602	1348.679	1039.796
339.431	15.527	1348.359	1038.993
340.446	15.677	1347.546	1039.204
341.460	15.716	1346.557	1038.591
342.475	15.664	1345.614	1037.448
343.489	15.721	1344.486	1036.838
344.504	15.701	1344.106	1036.330
345.519	15.847	1343.186	1036.430
346.533	15.787	1342.139	1035.158
347.548	15.818	1341.778	1034.984
348.562	15.923	1340.410	1034.478
349.577	15.898	1339.697	1033.683
350.592	15.967	1338.811	1033.332
351.606	15.771	1337.953	1031.377
352.621	15.712	1336.791	1030.028
353.635	15.763	1335.891	1029.559
354.650	15.663	1334.991	1028.161
355.665	15.696	1334.034	1027.532
356.679	15.768	1332.822	1026.951
357.694	15.775	1332.022	1026.288
358.708	15.811	1331.010	1025.632
359.723	15.931	1329.391	1025.028
360.738	15.931	1328.473	1024.225
361.752	15.866	1328.012	1023.384
362.767	15.950	1326.354	1022.531
363.781	15.891	1325.565	1021.470
364.796	16.044	1324.559	1021.536
365.810	15.992	1324.346	1020.962
366.825	16.080	1323.736	1020.935
367.840	16.089	1322.664	1020.075
368.854	16.178	1322.277	1020.223
369.869	16.256	1322.023	1020.407
370.883	16.225	1321.097	1019.415
371.898	16.142	1320.600	1018.438
372.913	16.085	1319.510	1017.169
373.927	16.106	1318.580	1016.484
374.942	16.155	1317.581	1015.920
375.956	16.250	1316.762	1015.771
376.971	16.385	1315.650	1015.635
377.986	16.285	1315.175	1014.576
379.000	16.259	1314.684	1013.951
380.015	16.368	1313.740	1013.791
381.029	16.299	1313.155	1012.831
382.044	16.417	1312.411	1012.878
383.059	16.427	1311.525	1012.166
384.073	16.348	1311.092	1011.268
385.088	16.418	1310.072	1010.810
386.102	16.391	1309.995	1010.501
387.117	16.500	1308.707	1010.071
388.132	16.487	1307.725	1009.144
389.146	16.389	1306.790	1007.747
390.161	16.350	1306.263	1007.018
391.175	16.393	1305.295	1006.440
392.190	16.315	1304.838	1005.534
393.205	16.390	1303.893	1005.163
394.219	16.518	1302.505	1004.767
395.234	16.528	1301.388	1003.877
396.248	16.501	1300.303	1002.791
397.263	16.431	1298.867	1001.179
398.278	16.557	1297.117	1000.488
399.292	16.368	1296.639	998.911
400.307	16.400	1295.880	998.426
401.321	16.352	1294.622	997.088
402.336	16.429	1293.470	996.564
403.350	16.307	1292.624	995.104
404.365	16.371	1291.813	994.768
405.380	16.520	1290.870	994.832
406.394	16.525	1290.181	994.245
407.409	16.393	1289.931	993.186
408.423	16.550	1288.989	993.296
409.438	16.655	1288.017	993.076
410.453	16.714	1287.148	992.663
411.467	16.749	1286.719	992.450
412.482	16.654	1286.076	991.309
413.496	16.801	1285.379	991.541
414.511	16.848	1284.328	990.920
415.526	16.978	1283.711	991.115
416.540	16.928	1282.944	990.143
417.555	16.949	1282.423	989.780
418.569	16.929	1281.846	989.130
419.584	16.896	1281.328	988.446
420.599	16.911	1280.898	988.116
421.613	57.445	1286.078	1223.537
422.628	57.364	1286.831	1223.694
