DTS Sentinel unit serial number:	SN413079Multiplexer serial number:	ORYXHardware model number:	OX4-SRSoftware version number:	ORYX F/W v4.00 Oryx Data Collector v3.7.2.0data status	okinstallation	princeton_trtdifferential loss correction	single-endedforward channel	channel 4reverse channel	N/Adate	2019/09/12time	03:55:11forward acquisition time	60.00reverse acquisition time	0.00gamma	496.2192k internal	0.2309k external	0.2309temperature offset calibration	1.0095default loss term (dB/km)	0.3790temperature slope calibration	1.0000multiplexer offset coefficient	1.0000multiplexer slope coefficient	1.0000fibre end	0.00T internal ref (°C)	32.12T ext. ref 1 (°C)	2.15T ext. ref 2 (°C)	25.86length (m)	temperature (°C)	Stokes	anti-Stokes-747.200	53.446	-0.202	0.197
-746.185	150.448	-0.151	0.208
-745.171	118.758	0.206	0.258
-744.156	800.000	0.192	0.550
-743.142	211.658	0.138	-0.221
-742.127	-200.000	0.084	0.386
-741.112	-183.817	0.175	-0.003
-740.098	800.000	-0.019	0.054
-739.083	-58.037	0.254	0.112
-738.069	-39.703	-0.110	-0.058
-737.054	155.825	-0.069	-0.096
-736.039	-63.893	-0.191	0.079
-735.025	24.479	0.171	0.144
-734.010	800.000	0.091	-0.267
-732.996	137.375	-0.137	-0.181
-731.981	-54.098	-0.087	-0.040
-730.966	68.450	-0.088	0.091
-729.952	-91.921	-0.048	0.014
-728.937	800.000	-0.084	-0.268
-727.923	331.365	-0.115	-0.225
-726.908	-28.110	-0.113	-0.066
-725.894	-58.846	-0.213	0.094
-724.879	42.097	0.254	0.234
-723.864	-47.484	0.469	0.231
-722.850	280.817	0.053	0.096
-721.835	-127.214	-0.151	-0.022
-720.821	-43.078	-0.309	0.159
-719.806	100.094	-0.167	0.196
-718.791	282.352	-0.089	0.163
-717.777	2.407	-0.076	0.056
-716.762	-200.000	-0.013	0.148
-715.748	24.863	0.284	0.239
-714.733	25.561	-0.096	-0.081
-713.718	-51.980	0.278	-0.131
-712.704	-200.000	0.006	-0.076
-711.689	-113.979	-0.211	-0.042
-710.675	53.372	-0.145	0.141
-709.660	-83.724	-0.409	-0.132
-708.645	-200.000	0.078	-0.486
-707.631	-200.000	-0.001	0.059
-706.616	-163.528	0.251	-0.012
-705.602	-168.634	-0.234	0.009
-704.587	-79.096	-0.396	0.137
-703.572	74.295	0.139	0.149
-702.558	-56.943	0.145	0.065
-701.543	-111.690	0.307	0.063
-700.529	-177.834	0.369	0.009
-699.514	-200.000	-0.016	0.230
-698.499	-25.884	0.026	-0.015
-697.485	-171.880	0.148	0.005
-696.470	-42.363	0.227	0.117
-695.456	-125.318	-0.280	-0.043
-694.441	113.530	0.211	-0.260
-693.426	-84.667	-0.245	0.078
-692.412	-200.000	0.030	-0.223
-691.397	-156.802	0.164	-0.010
-690.383	471.742	0.190	-0.433
-689.368	41.006	0.141	-0.129
-688.354	798.482	-0.089	0.249
-687.339	800.000	-0.040	0.169
-686.324	-51.644	-0.191	0.090
-685.310	-178.532	-0.196	0.005
-684.295	800.000	0.082	-0.244
-683.281	-60.386	0.349	0.151
-682.266	-57.287	0.109	-0.049
-681.251	-53.107	0.044	0.020
-680.237	-172.913	0.336	-0.011
-679.222	-60.829	0.186	-0.080
-678.208	-69.283	0.242	0.094
-677.193	159.871	0.051	-0.072
-676.178	698.454	0.062	0.165
-675.164	-90.043	0.081	-0.024
-674.149	22.548	-0.395	-0.327
-673.135	-90.884	-0.207	0.060
-672.120	-200.000	0.014	-0.231
-671.105	-99.500	0.248	0.063
-670.091	-200.000	-0.078	-0.368
-669.076	197.567	0.061	-0.094
-668.062	30.682	-0.254	-0.220
-667.047	778.639	-0.036	0.099
-666.032	800.000	-0.063	0.227
-665.018	344.779	0.144	0.287
-664.003	-200.000	0.022	0.109
-662.989	-200.000	0.012	0.237
-661.974	-179.256	-0.088	-0.002
-660.959	384.892	-0.109	0.227
-659.945	-99.777	-0.314	0.080
-658.930	-200.000	0.015	-0.133
-657.916	23.666	0.206	-0.172
-656.901	145.790	0.202	0.274
-655.886	246.366	0.092	-0.156
-654.872	-132.754	-0.241	-0.031
-653.857	88.491	-0.090	-0.101
-652.843	132.532	-0.127	-0.165
-651.828	-55.960	0.127	-0.057
-650.814	158.175	-0.116	-0.163
-649.799	75.487	0.104	0.111
-648.784	800.000	0.041	0.151
-647.770	-176.069	-0.251	-0.007
-646.755	43.293	0.322	-0.298
-645.741	52.860	0.126	-0.122
-644.726	-200.000	-0.022	0.138
-643.711	-116.967	-0.295	-0.055
-642.697	90.497	-0.032	0.037
-641.682	235.404	0.188	-0.314
-640.668	800.000	-0.084	0.245
-639.653	-143.558	-0.107	0.010
-638.638	96.029	-0.126	-0.146
-637.624	-200.000	-0.017	-0.199
-636.609	50.288	-0.242	0.232
-635.595	254.122	0.043	0.075
-634.580	-200.000	-0.030	-0.157
-633.565	96.752	-0.051	0.059
-632.551	242.834	-0.062	-0.106
-631.536	-29.168	-0.180	0.104
-630.522	58.056	-0.205	-0.203
-629.507	145.214	-0.093	-0.126
-628.492	38.434	-0.159	-0.143
-627.478	-92.099	0.062	0.018
-626.463	305.633	-0.042	0.079
-625.449	-200.000	-0.006	0.067
-624.434	800.000	-0.054	-0.168
-623.419	-47.481	0.370	0.182
-622.405	-103.287	0.276	0.066
-621.390	66.153	0.146	0.150
-620.376	800.000	0.062	0.222
-619.361	-200.000	0.039	0.225
-618.346	-200.000	-0.346	0.000
-617.332	-83.970	-0.342	-0.110
-616.317	113.937	0.052	0.064
-615.303	-48.807	0.144	-0.070
-614.288	-23.835	-0.178	-0.107
-613.273	679.107	-0.100	-0.264
-612.259	-2.544	-0.075	-0.053
-611.244	800.000	0.050	-0.177
-610.230	-27.451	-0.258	0.152
-609.215	14.112	0.238	0.187
-608.201	-76.594	-0.244	-0.086
-607.186	-200.000	-0.005	0.288
-606.171	800.000	-0.031	0.130
-605.157	-83.162	0.039	0.013
-604.142	-67.207	0.347	0.138
-603.128	-18.929	0.156	0.098
-602.113	322.751	-0.055	-0.106
-601.098	1.903	-0.386	0.282
-600.084	-46.995	0.060	0.029
-599.069	-200.000	-0.020	0.177
-598.055	800.000	-0.088	-0.275
-597.040	-131.128	-0.032	0.004
-596.025	-200.000	0.027	0.169
-595.011	132.239	-0.127	-0.165
-593.996	66.222	-0.463	-0.475
-592.982	19.648	0.121	-0.098
-591.967	-40.062	0.307	-0.162
-590.952	74.694	-0.340	-0.361
-589.938	-108.488	0.084	-0.018
-588.923	-200.000	-0.007	-0.137
-587.909	346.121	-0.017	-0.033
-586.894	590.740	0.014	0.034
-585.879	-159.040	0.129	0.007
-584.865	-81.900	-0.076	-0.025
-583.850	-59.323	0.053	-0.023
-582.836	-185.230	-0.135	-0.002
-581.821	-69.850	-0.454	-0.175
-580.806	79.301	-0.165	-0.179
-579.792	-32.444	-0.372	-0.210
-578.777	164.743	0.060	-0.085
-577.763	800.000	0.052	0.218
-576.748	15.089	-0.229	0.181
-575.733	119.308	0.212	0.264
-574.719	-200.000	0.000	0.193
-573.704	-200.000	0.010	0.045
-572.690	-200.000	-0.033	-0.265
-571.675	-73.432	0.326	-0.120
-570.661	-19.312	-0.345	-0.216
-569.646	800.000	-0.096	0.293
-568.631	90.807	-0.092	0.104
-567.617	-90.435	-0.296	0.087
-566.602	-177.579	0.183	-0.004
-565.588	504.279	-0.076	0.177
-564.573	169.150	0.169	-0.243
-563.558	-145.071	-0.186	0.017
-562.544	11.910	0.213	-0.165
-561.529	-91.791	0.286	0.082
-560.515	74.476	-0.419	-0.444
-559.500	380.803	0.072	-0.149
-558.485	-6.608	0.022	0.015
-557.471	64.603	-0.150	-0.152
-556.456	-146.961	0.285	0.025
-555.442	-22.912	-0.304	-0.185
-554.427	50.869	0.153	0.146
-553.412	-200.000	0.016	0.262
-552.398	32.118	0.153	-0.133
-551.383	-82.907	0.050	-0.016
-550.369	605.059	-0.042	0.105
-549.354	800.000	-0.077	0.244
-548.339	-115.932	-0.042	0.008
-547.325	-109.128	0.331	0.071
-546.310	-111.320	-0.300	-0.062
-545.296	312.992	0.141	0.268
-544.281	-118.458	-0.182	-0.033
-543.266	-190.851	0.306	0.003
-542.252	-68.385	0.423	-0.165
-541.237	800.000	0.048	-0.200
-540.223	238.307	0.075	0.125
-539.208	-56.129	0.157	0.070
-538.193	-74.817	-0.215	0.078
-537.179	800.000	-0.045	0.152
-536.164	61.747	-0.328	-0.329
-535.150	109.220	0.118	0.142
-534.135	91.276	0.197	0.223
-533.121	120.986	0.103	-0.129
-532.106	196.980	0.165	-0.254
-531.091	-48.094	-0.383	0.186
-530.077	800.000	-0.047	-0.194
-529.062	292.546	-0.067	-0.122
-528.048	16.083	-0.257	-0.204
-527.033	-200.000	-0.023	-0.108
-526.018	-200.000	-0.034	-0.316
-525.004	331.787	-0.196	-0.381
-523.989	-36.177	-0.168	0.091
-522.975	-151.735	-0.332	-0.025
-521.960	45.577	0.100	0.093
-520.945	-121.165	0.108	0.018
-519.931	-116.333	0.118	0.022
-518.916	686.001	0.127	0.334
-517.902	42.409	0.202	0.185
-516.887	249.561	0.151	0.259
-515.872	54.807	0.078	0.076
-514.858	800.000	-0.061	-0.198
-513.843	410.310	0.107	-0.228
-512.829	-133.207	0.166	0.021
-511.814	41.508	0.195	-0.177
-510.799	144.298	0.108	0.145
-509.785	-68.297	0.147	0.057
-508.770	-42.383	0.195	-0.100
-507.756	-55.559	0.219	0.099
-506.741	116.342	-0.131	0.162
-505.726	566.672	-0.024	-0.058
-504.712	36.758	0.268	-0.239
-503.697	207.434	-0.117	0.183
-502.683	-163.718	-0.135	-0.006
-501.668	-200.000	0.013	0.082
-500.653	800.000	0.042	0.181
-499.639	245.063	0.137	-0.232
-498.624	-55.927	0.070	0.032
-497.610	-200.000	0.013	0.086
-496.595	-200.000	-0.009	-0.059
-495.581	800.000	0.032	0.116
-494.566	-121.257	-0.361	0.061
-493.551	44.589	0.205	0.190
-492.537	51.694	0.252	-0.241
-491.522	-184.041	0.056	-0.001
-490.508	49.062	0.062	-0.059
-489.493	800.000	0.066	-0.260
-488.478	62.587	0.295	0.296
-487.464	70.227	-0.123	0.128
-486.449	161.926	-0.099	-0.139
-485.435	774.834	0.154	0.423
-484.420	27.528	-0.099	-0.084
-483.405	-149.462	-0.487	-0.039
-482.391	800.000	0.127	0.414
-481.376	-200.000	-0.003	0.100
-480.362	-68.629	-0.131	0.051
-479.347	690.501	-0.024	0.062
-478.332	-200.000	-0.058	0.557
-477.318	-72.972	-0.150	0.056
-476.303	431.342	-0.105	-0.229
-475.289	-131.669	-0.339	0.045
-474.274	35.980	0.214	-0.189
-473.259	439.026	0.079	-0.172
-472.245	-76.526	-0.090	0.032
-471.230	329.105	0.267	-0.517
-470.216	-200.000	0.001	-0.311
-469.201	800.000	-0.133	-0.484
-468.186	-83.855	-0.196	0.063
-467.172	295.064	0.104	-0.191
-466.157	378.673	-0.058	0.119
-465.143	800.000	-0.076	-0.244
-464.128	113.027	-0.130	0.159
-463.113	-178.214	0.284	-0.007
-462.099	731.294	0.120	-0.322
-461.084	37.450	0.056	0.050
-460.070	-200.000	-0.016	0.119
-459.055	-99.743	-0.336	-0.085
-458.040	431.698	0.055	-0.119
-457.026	-150.415	-0.306	-0.024
-456.011	-69.212	-0.131	-0.051
-454.997	375.339	0.094	0.193
-453.982	84.623	-0.046	0.051
-452.968	-169.473	0.245	0.009
-451.953	120.276	-0.108	-0.134
-450.938	305.062	0.117	0.218
-449.924	-70.225	-0.087	-0.033
-448.909	800.000	-0.111	-0.386
-447.895	-99.668	0.182	0.046
-446.880	33.802	0.258	-0.225
-445.865	90.132	0.117	0.131
-444.851	149.638	0.043	0.058
-443.836	-23.951	-0.048	0.029
-442.822	23.052	-0.095	-0.078
-441.807	36.549	-0.142	0.126
-440.792	-2.057	-0.324	-0.228
-439.778	-200.000	0.045	-0.282
-438.763	-105.560	0.310	0.071
-437.749	56.503	0.227	-0.222
-436.734	-97.631	0.239	-0.062
-435.719	505.931	-0.059	0.137
-434.705	800.000	-0.037	0.117
-433.690	800.000	-0.088	0.284
-432.676	118.958	0.081	0.100
-431.661	112.865	0.182	-0.222
-430.646	-200.000	-0.007	0.110
-429.632	-200.000	-0.010	0.067
-428.617	135.969	0.271	-0.355
-427.603	-115.182	-0.313	-0.059
-426.588	15.805	-0.156	0.123
-425.573	48.968	-0.076	-0.072
-424.559	-200.000	-0.050	-0.242
-423.544	515.750	-0.032	0.076
-422.530	-25.772	0.270	0.159
-421.515	-127.622	-0.432	-0.063
-420.500	140.842	0.184	-0.243
-419.486	-170.501	0.369	-0.013
-418.471	-29.092	-0.158	0.091
-417.457	-200.000	0.003	0.061
-416.442	739.303	-0.053	-0.143
-415.428	800.000	0.077	-0.245
-414.413	800.000	0.048	0.139
-413.398	-200.000	0.011	-0.121
-412.384	134.220	-0.056	-0.073
-411.369	-44.395	-0.139	0.070
-410.355	264.054	0.109	0.191
-409.340	-200.000	-0.006	0.175
-408.325	-51.361	-0.124	-0.058
-407.311	-25.347	0.223	-0.132
-406.296	-200.000	0.008	-0.051
-405.282	-200.000	0.044	-0.344
-404.267	118.958	0.147	0.182
-403.252	-98.445	0.161	0.041
-402.238	-200.000	0.082	-0.491
-401.223	58.256	0.087	-0.086
-400.209	-53.203	-0.197	-0.091
-399.194	85.378	-0.111	-0.122
-398.179	66.962	0.085	0.087
-397.165	-95.251	-0.188	-0.051
-396.150	250.993	0.067	0.115
-395.136	-61.912	0.229	0.096
-394.121	158.020	-0.009	0.013
-393.106	257.796	0.252	-0.435
-392.092	26.976	-0.116	-0.098
-391.077	-200.000	-0.026	0.326
-390.063	192.380	-0.207	-0.314
-389.048	-200.000	-0.068	-0.490
-388.033	-122.110	0.152	0.025
-387.019	-142.387	0.033	0.003
-386.004	53.440	-0.143	0.137
-384.990	4.694	-0.136	0.100
-383.975	-80.613	0.296	-0.099
-382.960	-189.270	0.276	-0.003
-381.946	6.032	0.296	-0.220
-380.931	-66.169	0.154	-0.061
-379.917	-105.626	0.411	-0.093
-378.902	-200.000	-0.017	0.119
-377.888	800.000	-0.114	0.445
-376.873	-42.014	-0.081	0.042
-375.858	117.887	0.318	0.393
-374.844	-8.638	0.182	-0.123
-373.829	-130.639	-0.247	0.033
-372.815	800.000	-0.026	-0.072
-371.800	12.063	0.118	-0.091
-370.785	-68.069	-0.212	-0.083
-369.771	-200.000	0.015	0.274
-368.756	66.235	0.017	-0.017
-367.742	311.420	-0.152	0.286
-366.727	-200.000	-0.001	-0.111
-365.712	39.308	0.279	-0.250
-364.698	118.052	0.204	0.252
-363.683	152.369	-0.173	0.236
-362.669	46.999	-0.053	0.050
-361.654	-200.000	0.013	0.297
-360.639	-16.445	-0.089	-0.056
-359.625	-200.000	-0.003	0.217
-358.610	-76.362	0.297	-0.105
-357.596	-65.313	-0.312	0.126
-356.581	-200.000	-0.089	-0.433
-355.566	47.820	0.206	0.192
-354.552	-116.563	-0.090	-0.017
-353.537	-200.000	-0.019	0.104
-352.523	-159.004	0.387	-0.022
-351.508	87.622	-0.187	0.207
-350.493	407.352	-0.136	-0.289
-349.479	-200.000	0.003	-0.101
-348.464	-72.131	-0.335	0.125
-347.450	406.789	0.072	0.151
-346.435	-110.978	0.088	0.018
-345.420	408.420	-0.099	-0.209
-344.406	-48.817	-0.117	-0.056
-343.391	104.488	-0.075	-0.088
-342.377	800.000	-0.018	-0.072
-341.362	115.714	-0.103	0.126
-340.348	-200.000	0.070	0.484
-339.333	507.869	0.043	-0.100
-338.318	-49.071	-0.218	0.104
-337.304	-34.495	-0.112	-0.061
-336.289	133.976	-0.239	0.309
-335.275	-80.433	-0.217	0.072
-334.260	-37.450	-0.066	0.035
-333.245	-200.000	0.072	-0.431
-332.231	238.763	-0.144	-0.239
-331.216	2.097	-0.141	-0.102
-330.202	-200.000	-0.033	0.178
-329.187	-122.854	-0.190	0.031
-328.172	-18.947	0.111	-0.069
-327.158	-200.000	0.006	0.045
-326.143	-26.874	-0.091	-0.053
-325.129	800.000	-0.019	-0.062
-324.114	-7.738	0.028	-0.019
-323.099	800.000	0.116	0.347
-322.085	-136.344	0.149	0.017
-321.070	10.439	0.095	-0.072
-320.056	49.144	-0.143	-0.134
-319.041	498.428	0.072	-0.166
-318.026	44.505	-0.311	0.286
-317.012	-200.000	-0.065	-0.404
-315.997	242.780	0.088	0.147
-314.983	800.000	0.115	0.423
-313.968	-80.522	-0.280	-0.093
-312.953	653.268	0.055	0.142
-311.939	-116.506	0.142	0.026
-310.924	800.000	-0.068	0.231
-309.910	545.777	-0.034	-0.081
-308.895	16.351	-0.308	-0.243
-307.880	657.135	-0.056	0.143
-306.866	-47.261	-0.329	-0.160
-305.851	74.113	-0.172	-0.180
-304.837	800.000	-0.031	-0.085
-303.822	-88.324	-0.169	-0.050
-302.807	172.808	0.129	0.185
-301.793	-119.035	-0.156	0.027
-300.778	11.877	0.147	-0.113
-299.764	115.008	0.138	-0.169
-298.749	-41.292	-0.131	0.068
-297.735	35.414	-0.173	-0.152
-296.720	-200.000	-0.011	0.199
-295.705	-200.000	-0.011	-0.189
-294.691	7.699	0.162	0.121
-293.676	-200.000	-0.014	0.114
-292.662	-200.000	-0.022	0.197
-291.647	-200.000	0.000	0.020
-290.632	800.000	0.041	-0.115
-289.618	-9.470	0.194	-0.129
-288.603	464.679	0.102	0.227
-287.589	-134.351	0.229	0.028
-286.574	56.524	0.055	0.054
-285.559	-72.605	0.113	-0.042
-284.545	-142.966	0.392	0.038
-283.530	-96.081	0.146	-0.039
-282.516	621.926	0.099	-0.249
-281.501	-200.000	0.007	-0.128
-280.486	-5.316	0.148	0.102
-279.472	-49.585	-0.079	-0.038
-278.457	-200.000	-0.017	-0.287
-277.443	-61.097	0.121	0.051
-276.428	-122.586	0.275	-0.045
-275.413	432.643	-0.078	0.169
-274.399	800.000	0.070	0.246
-273.384	-50.536	-0.032	-0.015
-272.370	-200.000	-0.008	-0.068
-271.355	150.485	0.095	0.129
-270.340	-120.545	-0.358	-0.061
-269.326	-31.918	0.151	0.084
-268.311	28.504	-0.095	0.080
-267.297	747.315	0.035	0.094
-266.282	-82.904	-0.416	-0.134
-265.267	-200.000	0.033	0.147
-264.253	-200.000	0.011	0.070
-263.238	-123.791	-0.214	-0.034
-262.224	-46.365	-0.197	-0.097
-261.209	-106.520	0.271	-0.060
-260.195	-185.023	0.234	0.004
-259.180	2.989	-0.293	-0.212
-258.165	-100.126	-0.177	0.044
-257.151	277.655	-0.275	0.488
-256.136	115.881	0.184	-0.225
-255.122	-181.469	0.137	-0.003
-254.107	-200.000	-0.040	-0.175
-253.092	119.515	0.106	0.131
-252.078	-112.608	0.206	-0.041
-251.063	24.867	-0.065	-0.053
-250.049	-200.000	-0.055	0.395
-249.034	-200.000	0.044	0.307
-248.019	-200.000	0.019	0.191
-247.005	-159.170	-0.238	-0.013
-245.990	-200.000	-0.022	0.190
-244.976	-132.739	-0.234	-0.030
-243.961	8.065	-0.049	-0.037
-242.946	-7.303	0.281	0.190
-241.932	-5.070	-0.159	0.109
-240.917	-39.687	0.143	0.074
-239.903	115.507	-0.042	-0.051
-238.888	489.889	-0.071	-0.162
-237.873	-85.531	-0.161	0.050
-236.859	377.438	-0.138	0.281
-235.844	-200.000	-0.052	0.321
-234.830	-123.041	0.312	0.050
-233.815	-200.000	0.057	-0.289
-232.800	-129.724	0.253	0.035
-231.786	-91.932	-0.540	0.152
-230.771	-200.000	-0.011	-0.415
-229.757	170.796	-0.154	-0.219
-228.742	110.356	-0.179	-0.214
-227.727	-200.000	0.055	0.288
-226.713	445.435	-0.136	-0.297
-225.698	-200.000	0.034	-0.237
-224.684	-32.398	-0.083	0.046
-223.669	-2.817	-0.144	-0.100
-222.655	-200.000	-0.012	-0.150
-221.640	130.599	-0.241	0.308
-220.625	-25.247	0.080	0.047
-219.611	-175.220	-0.171	0.005
-218.596	-68.222	-0.103	0.040
-217.582	-24.737	-0.095	0.056
-216.567	-170.246	-0.093	0.003
-215.552	-19.702	-0.303	-0.186
-214.538	-91.000	0.254	-0.073
-213.523	131.504	0.208	0.266
-212.509	404.003	-0.128	-0.268
-211.494	800.000	0.031	0.112
-210.479	-91.913	0.323	0.091
-209.465	-138.579	0.235	-0.026
-208.450	5.065	0.094	-0.069
-207.436	-39.357	0.283	-0.148
-206.421	-100.532	0.046	-0.011
-205.406	-117.236	0.238	-0.043
-204.392	800.000	0.107	0.386
-203.377	30.518	0.037	-0.031
-202.363	67.047	0.182	0.184
-201.348	-200.000	0.008	0.063
-200.333	-200.000	0.015	-0.185
-199.319	-45.731	-0.304	0.149
-198.304	291.803	0.127	-0.230
-197.290	-180.276	-0.090	0.002
-196.275	-135.315	0.133	0.016
-195.260	124.900	0.113	-0.142
-194.246	-93.389	0.248	-0.068
-193.231	346.126	0.043	-0.084
-192.217	-20.969	0.102	0.062
-191.202	-56.028	-0.193	0.086
-190.187	21.348	-0.134	-0.108
-189.173	-172.054	-0.278	-0.009
-188.158	-75.925	0.263	-0.093
-187.144	99.656	0.211	-0.243
-186.129	-116.927	0.105	0.019
-185.114	-10.047	0.058	0.039
-184.100	438.499	0.081	-0.175
-183.085	152.570	-0.019	0.026
-182.071	630.598	-0.008	0.021
-181.056	15.283	-0.138	-0.108
-180.042	247.645	0.150	0.251
-179.027	-82.778	0.043	0.014
-178.012	-66.678	-0.284	0.112
-176.998	36.362	0.301	0.264
-175.983	-45.981	0.181	0.089
-174.969	2.672	0.352	0.254
-173.954	394.241	-0.183	0.378
-172.939	-108.950	0.381	0.081
-171.925	-200.000	0.020	0.280
-170.910	208.466	0.206	0.321
-169.896	227.815	-0.108	0.175
-168.881	275.042	0.125	-0.220
-167.866	754.468	-0.025	-0.066
-166.852	800.000	-0.014	-0.048
-165.837	-100.884	-0.176	-0.043
-164.823	800.000	0.166	0.605
-163.808	-200.000	-0.009	0.208
-162.793	-200.000	-0.032	-0.286
-161.779	-17.087	0.310	0.194
-160.764	-200.000	-0.002	0.187
-159.750	-200.000	-0.022	-0.171
-158.735	225.179	-0.165	0.266
-157.720	305.351	0.088	0.162
-156.706	-120.144	-0.160	0.027
-155.691	800.000	-0.023	0.076
-154.677	255.023	0.079	-0.134
-153.662	138.976	0.113	-0.147
-152.647	800.000	-0.067	0.261
-151.633	58.980	0.189	-0.185
-150.618	339.369	-0.043	0.084
-149.604	-24.684	-0.093	-0.055
-148.589	75.460	-0.065	-0.068
-147.574	631.102	-0.052	0.130
-146.560	29.443	-0.121	0.102
-145.545	-153.904	0.227	0.015
-144.531	17.757	-0.083	-0.065
-143.516	-200.000	0.004	0.098
-142.502	800.000	-0.149	0.417
-141.487	230.526	0.048	0.078
-140.472	-107.534	-0.076	0.016
-139.458	-117.214	-0.100	0.018
-138.443	-200.000	0.027	0.361
-137.429	445.240	-0.041	-0.089
-136.414	108.733	-0.090	-0.107
-135.399	-200.000	0.052	-0.378
-134.385	129.607	-0.141	0.179
-133.370	221.611	-0.161	0.257
-132.356	215.248	-0.106	0.166
-131.341	86.616	-0.129	-0.141
-130.326	800.000	0.100	0.393
-129.312	490.809	0.126	0.286
-128.297	-200.000	0.022	-0.321
-127.283	-101.743	0.326	-0.078
-126.268	191.138	0.130	-0.194
-125.253	-40.335	-0.175	0.090
-124.239	399.817	0.086	0.178
-123.224	15.485	0.194	0.151
-122.210	800.000	0.014	-0.056
-121.195	65.250	0.050	-0.050
-120.180	-8.525	0.234	-0.156
-119.166	-129.172	0.465	0.064
-118.151	92.268	-0.022	0.024
-117.137	-40.367	0.422	0.218
-116.122	-45.196	-0.221	0.109
-115.107	-200.000	0.005	0.024
-114.093	56.694	0.368	0.355
-113.078	-76.276	0.070	0.024
-112.064	43.104	0.078	-0.071
-111.049	-110.973	-0.359	0.073
-110.034	-200.000	0.033	-0.145
-109.020	800.000	-0.089	-0.250
-108.005	178.851	0.146	-0.212
-106.991	-200.000	0.014	-0.190
-105.976	-41.971	0.058	-0.030
-104.962	-89.681	-0.084	-0.024
-103.947	-57.270	-0.072	-0.031
-102.932	-40.299	0.128	0.066
-101.918	-64.718	0.083	0.033
-100.903	-200.000	-0.004	-0.134
-99.889	438.872	-0.030	0.065
-98.874	-87.841	0.252	-0.075
-97.859	168.207	0.104	0.147
-96.845	-200.000	-0.105	0.548
-95.830	64.944	-0.132	0.132
-94.816	538.843	0.053	-0.124
-93.801	-83.248	0.149	-0.047
-92.786	30.208	0.235	0.199
-91.772	-200.000	-0.014	0.087
-90.757	-22.693	0.263	0.158
-89.743	-135.467	0.389	-0.046
-88.728	800.000	0.054	0.201
-87.713	-200.000	0.024	0.367
-86.699	-76.766	-0.316	0.110
-85.684	-200.000	-0.090	-0.418
-84.670	-200.000	0.306	0.001
-83.655	11.854	0.289	-0.220
-82.640	210.866	0.136	0.212
-81.626	383.184	0.078	0.160
-80.611	157.105	-0.242	-0.331
-79.597	-200.000	0.003	-0.310
-78.582	18.621	-0.361	-0.286
-77.567	-144.344	0.158	-0.015
-76.553	-200.000	0.016	0.136
-75.538	-54.382	-0.123	-0.055
-74.524	-92.227	-0.284	-0.079
-73.509	-139.374	-0.506	0.054
-72.494	800.000	-0.108	0.409
-71.480	-7.422	-0.016	-0.011
-70.465	800.000	-0.093	0.336
-69.451	-84.060	0.194	-0.061
-68.436	-55.390	0.141	0.063
-67.422	80.052	0.070	0.074
-66.407	-14.103	0.125	-0.080
-65.392	-200.000	0.004	0.021
-64.378	-200.000	-0.032	-0.230
-63.363	25.918	-0.065	-0.054
-62.349	313.810	0.177	0.329
-61.334	45.408	-1.137	-1.038
-60.319	47.059	0.376	0.346
-59.305	800.000	-0.256	-1.095
-58.290	342.671	0.825	1.597
-57.276	800.000	0.403	1.605
-56.261	-200.000	95.530	597.414
-55.246	564.576	1363.672	3268.343
-54.232	159.501	2548.146	3507.286
-53.217	103.460	2296.105	2664.408
-52.203	38.699	2059.284	1817.502
-51.188	33.903	1973.845	1699.267
-50.173	32.261	1956.249	1669.481
-49.159	47.013	2005.239	1844.250
-48.144	48.717	2022.717	1875.579
-47.130	34.512	1985.212	1714.254
-46.115	32.077	1974.760	1683.362
-45.100	31.997	1972.273	1680.462
-44.086	31.983	1969.660	1678.037
-43.071	31.918	1966.983	1675.114
-42.057	31.892	1965.128	1673.238
-41.042	32.016	1962.809	1672.300
-40.027	31.952	1960.625	1669.799
-39.013	32.003	1959.071	1668.869
-37.998	32.027	1957.093	1667.328
-36.984	32.058	1955.803	1666.441
-35.969	32.043	1953.615	1664.377
-34.954	32.034	1951.755	1662.649
-33.940	32.191	1949.847	1662.343
-32.925	32.178	1948.402	1660.927
-31.911	32.198	1947.123	1659.951
-30.896	32.128	1945.414	1657.814
-29.881	32.182	1944.011	1657.027
-28.867	32.155	1942.687	1655.590
-27.852	32.137	1940.655	1653.631
-26.838	32.203	1938.599	1652.399
-25.823	32.196	1936.644	1650.603
-24.809	32.172	1935.106	1649.016
-23.794	32.175	1932.980	1647.170
-22.779	32.163	1931.181	1645.461
-21.765	32.112	1929.822	1643.795
-20.750	32.096	1927.900	1641.948
-19.736	32.165	1926.329	1641.152
-18.721	32.097	1925.085	1639.435
-17.706	32.131	1923.375	1638.212
-16.692	32.154	1921.802	1637.001
-15.677	32.151	1920.092	1635.455
-14.663	32.165	1918.626	1634.262
-13.648	32.189	1917.612	1633.541
-12.633	32.176	1916.185	1632.153
-11.619	32.145	1915.410	1631.159
-10.604	32.160	1913.578	1629.662
-9.590	32.113	1912.492	1628.263
-8.575	32.170	1910.530	1627.028
-7.560	32.090	1909.686	1625.548
-6.546	32.096	1908.358	1624.407
-5.531	32.046	1907.482	1623.162
-4.517	32.067	1906.529	1622.472
-3.502	32.109	1904.799	1621.291
-2.487	32.121	1903.775	1620.459
-1.473	32.108	1903.116	1619.730
-0.458	32.176	1898.579	1616.386
0.556	32.340	1878.675	1588.146
1.571	28.334	1859.492	1538.234
2.586	24.683	1882.795	1526.265
3.600	23.799	1918.866	1547.668
4.615	23.184	1913.970	1538.238
5.629	17.981	1812.778	1413.830
6.644	7.852	1692.418	1241.197
7.659	2.646	1654.321	1173.374
8.673	2.214	1650.670	1167.386
9.688	2.219	1649.389	1166.410
10.702	2.144	1647.908	1164.693
11.717	2.033	1644.746	1161.509
12.731	2.461	1644.258	1164.319
13.746	9.304	1660.542	1228.162
14.761	20.018	1683.810	1327.835
15.775	25.460	1694.875	1378.311
16.790	26.688	1695.837	1388.384
17.804	26.815	1695.506	1388.968
18.819	26.791	1694.976	1388.225
19.834	26.940	1694.543	1388.891
20.848	27.186	1693.694	1389.950
21.863	27.189	1693.051	1389.326
22.877	27.208	1691.797	1388.319
23.892	27.232	1691.341	1388.002
24.907	27.246	1690.010	1386.897
25.921	27.244	1689.182	1386.075
26.936	27.258	1687.831	1384.954
27.950	27.275	1686.844	1384.151
28.965	27.279	1686.302	1383.609
29.980	27.254	1685.734	1382.837
30.994	27.280	1684.246	1381.689
32.009	27.242	1683.439	1380.614
33.023	27.238	1681.951	1379.246
34.038	27.308	1680.993	1378.863
35.053	27.248	1680.476	1377.867
36.067	27.280	1678.972	1376.750
37.082	27.225	1678.261	1375.630
38.096	27.294	1677.279	1375.222
39.111	27.209	1676.552	1373.864
40.126	27.197	1676.085	1373.273
41.140	27.265	1675.022	1372.789
42.155	27.261	1673.738	1371.591
43.169	27.253	1672.676	1370.532
44.184	27.275	1671.833	1369.889
45.199	27.177	1670.823	1368.199
46.213	27.208	1669.835	1367.509
47.228	27.199	1668.431	1366.171
48.242	27.246	1666.833	1365.094
49.257	27.202	1665.933	1363.903
50.271	27.282	1664.394	1363.122
51.286	27.287	1663.730	1362.492
52.301	27.243	1662.200	1360.791
53.315	27.208	1660.999	1359.427
54.330	27.217	1660.106	1358.643
55.344	27.191	1658.785	1357.250
56.359	27.215	1657.193	1356.007
57.374	27.273	1655.786	1355.165
58.388	27.329	1654.658	1354.536
59.403	27.336	1653.507	1353.528
60.417	27.295	1652.313	1352.123
61.432	27.259	1651.860	1351.369
62.447	27.265	1651.072	1350.653
63.461	27.283	1649.709	1349.544
64.476	27.314	1648.657	1348.795
65.490	27.205	1648.045	1347.367
66.505	27.259	1646.959	1346.764
67.520	27.244	1645.965	1345.723
68.534	27.283	1645.135	1345.210
69.549	27.206	1643.838	1343.465
70.563	27.307	1641.973	1342.564
71.578	27.175	1641.525	1341.104
72.593	27.198	1640.490	1340.314
73.607	27.318	1639.158	1339.989
74.622	27.349	1638.484	1339.550
75.636	27.347	1637.607	1338.696
76.651	27.240	1637.450	1337.663
77.666	27.204	1636.462	1336.475
78.680	27.329	1635.231	1336.269
79.695	27.212	1634.692	1334.851
80.709	27.324	1633.308	1334.420
81.724	27.306	1632.491	1333.509
82.739	27.234	1631.674	1332.189
83.753	27.272	1631.080	1331.870
84.768	27.320	1629.559	1330.859
85.782	27.257	1629.420	1330.164
86.797	27.212	1628.299	1328.802
87.812	27.250	1627.190	1328.058
88.826	27.252	1626.136	1327.095
89.841	27.311	1625.060	1326.535
90.855	27.300	1624.359	1325.760
91.870	27.317	1623.243	1324.854
92.884	27.312	1622.150	1323.815
93.899	27.373	1621.163	1323.330
94.914	27.324	1619.992	1321.906
95.928	27.342	1619.171	1321.244
96.943	27.369	1617.438	1319.911
97.957	27.385	1616.017	1318.749
98.972	27.408	1615.026	1317.992
99.987	27.330	1613.735	1316.260
101.001	27.347	1612.497	1315.255
102.016	27.260	1610.834	1313.153
103.030	27.249	1610.015	1312.292
104.045	27.308	1608.780	1311.596
105.060	27.286	1607.387	1310.186
106.074	27.372	1606.032	1309.583
107.089	27.325	1605.164	1308.422
108.103	27.285	1604.043	1307.102
109.118	27.357	1602.812	1306.499
110.133	27.341	1601.712	1305.376
111.147	27.344	1600.928	1304.640
112.162	27.413	1599.637	1303.968
113.176	27.419	1598.236	1302.757
114.191	27.347	1597.306	1301.369
115.206	27.386	1596.141	1300.579
116.220	27.451	1594.632	1299.702
117.235	27.391	1593.918	1298.576
118.249	27.440	1592.513	1297.666
119.264	27.351	1591.677	1296.235
120.279	27.360	1590.617	1295.323
121.293	27.378	1589.578	1294.490
122.308	27.382	1588.284	1293.347
123.322	27.490	1586.635	1292.658
124.337	27.427	1585.541	1291.207
125.352	27.399	1584.559	1290.089
126.366	27.451	1583.401	1289.404
127.381	27.522	1582.269	1288.866
128.395	27.506	1581.805	1288.265
129.410	27.475	1580.310	1286.714
130.424	27.443	1579.724	1285.900
131.439	27.398	1578.613	1284.562
132.454	27.523	1576.709	1283.781
133.468	27.441	1575.589	1282.174
134.483	27.405	1574.703	1281.087
135.497	27.469	1573.377	1280.348
136.512	27.318	1572.543	1278.495
137.527	27.314	1571.512	1277.511
138.541	27.416	1569.853	1276.770
139.556	27.436	1569.098	1276.184
140.570	27.360	1568.146	1274.760
141.585	27.430	1566.856	1274.092
142.600	27.434	1565.980	1273.294
143.614	27.475	1564.457	1272.225
144.629	27.385	1563.687	1270.859
145.643	27.546	1562.077	1270.564
146.658	27.417	1561.179	1268.824
147.673	27.467	1559.637	1267.807
148.687	27.417	1558.713	1266.590
149.702	27.430	1557.797	1265.827
150.716	27.465	1556.144	1264.612
151.731	27.470	1554.948	1263.564
152.746	27.499	1554.497	1263.289
153.760	27.407	1553.185	1261.472
154.775	27.486	1552.017	1260.957
155.789	27.526	1551.193	1260.456
156.804	27.458	1550.352	1259.193
157.819	27.547	1548.876	1258.494
158.833	27.463	1548.153	1257.213
159.848	27.486	1547.117	1256.424
160.862	27.573	1546.214	1256.175
161.877	27.597	1545.255	1255.453
162.892	27.534	1544.432	1254.242
163.906	27.522	1543.143	1253.001
164.921	27.643	1542.436	1253.146
165.935	27.704	1541.132	1252.391
166.950	27.606	1540.539	1251.131
167.964	27.499	1540.321	1250.109
168.979	27.581	1538.452	1249.042
169.994	27.612	1537.519	1248.384
171.008	27.610	1536.802	1247.678
172.023	27.646	1536.015	1247.176
173.037	27.717	1534.642	1246.435
174.052	27.629	1533.951	1245.163
175.067	27.520	1533.506	1243.945
176.081	27.579	1532.276	1243.241
177.096	27.567	1531.483	1242.405
178.110	27.591	1530.149	1241.381
179.125	27.619	1529.122	1240.625
180.140	27.632	1528.292	1239.931
181.154	27.614	1527.354	1238.939
182.169	27.683	1526.827	1238.868
183.183	27.677	1525.704	1237.810
184.198	27.563	1524.704	1236.117
185.213	27.642	1523.882	1235.877
186.227	27.725	1522.727	1235.389
187.242	27.746	1522.260	1235.047
188.256	27.826	1520.852	1234.336
189.271	27.726	1520.289	1233.092
190.286	27.628	1519.734	1231.870
191.300	27.644	1518.970	1231.252
192.315	27.654	1518.141	1230.533
193.329	27.710	1517.230	1230.064
194.344	27.611	1516.321	1228.550
195.359	27.757	1515.264	1228.573
196.373	27.686	1515.255	1227.975
197.388	27.718	1513.984	1227.054
198.402	27.643	1512.458	1225.206
199.417	27.611	1511.509	1224.116
200.432	27.634	1511.290	1223.981
201.446	27.666	1510.305	1223.288
202.461	27.751	1509.412	1223.029
203.475	27.680	1508.095	1221.375
204.490	27.768	1507.118	1221.068
205.504	27.701	1506.523	1220.029
206.519	27.718	1505.608	1219.296
207.534	27.753	1504.977	1218.910
208.548	27.645	1504.205	1217.453
209.563	27.738	1503.302	1217.239
210.577	27.793	1502.580	1216.914
211.592	27.744	1501.832	1215.872
212.607	27.784	1501.127	1215.459
213.621	27.836	1500.259	1214.996
214.636	27.934	1499.627	1215.028
215.650	27.798	1498.627	1213.202
216.665	27.851	1497.600	1212.620
217.680	27.865	1496.973	1212.099
218.694	27.844	1495.700	1210.821
219.709	27.805	1495.487	1210.279
220.723	27.940	1494.143	1209.983
221.738	27.846	1493.494	1208.728
222.753	27.859	1493.001	1208.304
223.767	27.798	1492.098	1207.062
224.782	27.705	1491.433	1205.805
225.796	27.880	1490.147	1205.812
226.811	27.931	1489.360	1205.409
227.826	27.940	1488.859	1204.956
228.840	27.864	1488.318	1203.910
229.855	27.922	1487.161	1203.249
230.869	27.917	1486.409	1202.497
231.884	27.915	1485.786	1201.878
232.899	27.850	1484.501	1200.302
233.913	27.938	1483.413	1199.898
234.928	27.885	1482.052	1198.344
235.942	27.995	1481.213	1198.275
236.957	27.998	1480.505	1197.616
237.972	27.985	1479.584	1196.681
238.986	27.964	1478.475	1195.542
240.001	27.948	1477.579	1194.606
241.015	27.971	1476.551	1193.824
242.030	28.131	1475.315	1193.762
243.045	28.136	1475.080	1193.494
244.059	28.044	1474.060	1191.965
245.074	28.068	1473.165	1191.293
246.088	28.119	1472.565	1191.036
247.103	28.060	1472.126	1190.189
248.117	28.065	1471.248	1189.410
249.132	28.078	1470.131	1188.486
250.147	28.139	1469.242	1188.056
251.161	28.179	1468.506	1187.613
252.176	28.150	1468.174	1187.054
253.190	28.244	1466.750	1186.406
254.205	28.176	1466.270	1185.472
255.220	28.203	1465.421	1184.859
256.234	28.167	1464.721	1183.950
257.249	28.180	1464.123	1183.445
258.263	28.141	1463.418	1182.525
259.278	28.182	1462.320	1181.792
260.293	28.228	1461.242	1181.119
261.307	28.217	1460.775	1180.562
262.322	28.225	1460.191	1180.037
263.336	28.291	1459.288	1179.629
264.351	28.256	1458.351	1178.542
265.366	28.194	1457.881	1177.662
266.380	28.193	1457.037	1176.866
267.395	28.285	1455.711	1176.282
268.409	28.256	1455.082	1175.482
269.424	28.295	1454.132	1174.863
270.439	28.354	1452.840	1174.095
271.453	28.271	1452.295	1173.017
272.468	28.307	1451.634	1172.609
273.482	28.249	1451.354	1171.909
274.497	28.265	1450.444	1171.172
275.512	28.233	1449.315	1169.953
276.526	28.315	1448.823	1169.973
277.541	28.344	1447.773	1169.207
278.555	28.252	1447.232	1168.079
279.570	28.393	1446.091	1167.958
280.585	28.367	1445.178	1166.952
281.599	28.340	1444.826	1166.390
282.614	28.321	1443.778	1165.321
283.628	28.409	1442.777	1164.970
284.643	28.303	1442.084	1163.636
285.657	28.369	1440.998	1163.074
286.672	28.446	1439.970	1162.627
287.687	28.455	1438.985	1161.788
288.701	28.471	1438.108	1161.077
289.716	28.420	1437.565	1160.215
290.730	28.435	1436.865	1159.638
291.745	28.376	1436.204	1158.631
292.760	28.477	1435.261	1158.408
293.774	28.502	1434.388	1157.758
294.789	28.503	1433.547	1156.985
295.803	28.462	1432.994	1156.173
296.818	28.442	1432.221	1155.324
297.833	28.561	1431.248	1155.187
298.847	28.545	1430.450	1154.342
299.862	28.543	1429.748	1153.660
300.876	28.522	1429.014	1152.833
301.891	28.501	1427.851	1151.660
302.906	28.593	1427.445	1151.809
303.920	28.620	1426.597	1151.189
304.935	28.686	1425.961	1150.988
305.949	28.587	1425.299	1149.734
306.964	28.637	1424.468	1149.272
307.979	28.630	1423.274	1148.162
308.993	28.617	1422.609	1147.442
310.008	28.642	1421.785	1146.835
311.022	28.714	1420.557	1146.192
312.037	28.668	1419.699	1145.110
313.052	28.562	1419.400	1144.111
314.066	28.588	1418.450	1143.406
315.081	28.757	1417.004	1143.187
316.095	28.683	1416.662	1142.352
317.110	28.738	1415.701	1141.816
318.125	28.746	1414.632	1140.903
319.139	28.843	1413.574	1140.549
320.154	28.790	1413.131	1139.765
321.168	28.807	1412.260	1139.064
322.183	28.766	1411.258	1137.904
323.197	28.715	1410.371	1136.773
324.212	28.701	1409.911	1136.214
325.227	28.670	1408.955	1135.151
326.241	28.780	1408.055	1135.008
327.256	28.852	1407.538	1134.930
328.270	28.895	1406.484	1134.246
329.285	28.885	1405.529	1133.316
330.300	28.797	1404.943	1132.203
331.314	28.870	1404.175	1131.933
332.329	28.888	1403.314	1131.248
333.343	28.928	1402.059	1130.379
334.358	28.901	1401.870	1129.964
335.373	28.953	1400.826	1129.341
336.387	28.919	1400.570	1128.823
337.402	28.977	1399.904	1128.547
338.416	28.986	1399.405	1128.097
339.431	29.032	1399.264	1128.167
340.446	29.017	1398.079	1127.018
341.460	28.983	1397.040	1125.873
342.475	29.048	1396.098	1125.411
343.489	29.037	1395.085	1124.432
344.504	29.030	1394.464	1123.787
345.519	29.013	1393.343	1122.679
346.533	29.083	1392.253	1122.133
347.548	29.093	1391.846	1121.764
348.562	29.009	1390.894	1120.384
349.577	29.117	1389.892	1120.138
350.592	29.104	1389.707	1119.807
351.606	29.031	1388.946	1118.652
352.621	28.921	1388.063	1117.177
353.635	28.960	1386.980	1116.443
354.650	29.108	1386.134	1116.559
355.665	29.141	1385.277	1115.969
356.679	29.189	1384.579	1115.597
357.694	29.326	1382.905	1114.979
358.708	29.202	1382.495	1113.801
359.723	29.255	1381.023	1112.839
360.738	29.106	1380.201	1111.174
361.752	29.163	1378.921	1110.391
362.767	29.155	1378.261	1109.711
363.781	29.165	1376.784	1108.489
364.796	29.244	1376.580	1108.696
365.810	29.294	1375.627	1108.133
366.825	29.209	1375.341	1107.293
367.840	29.263	1374.315	1106.697
368.854	29.385	1373.345	1106.547
369.869	29.357	1373.201	1106.167
370.883	29.344	1372.786	1105.655
371.898	29.286	1372.113	1104.666
372.913	29.398	1370.867	1104.239
373.927	29.322	1370.540	1103.423
374.942	29.390	1369.312	1102.740
375.956	29.501	1368.814	1102.904
376.971	29.410	1367.748	1101.407
377.986	29.391	1367.011	1100.600
379.000	29.381	1366.589	1100.108
380.015	29.414	1365.976	1099.712
381.029	29.404	1365.120	1098.864
382.044	29.332	1364.729	1098.027
383.059	29.287	1363.978	1097.054
384.073	29.501	1362.962	1097.411
385.088	29.566	1362.474	1097.308
386.102	29.480	1362.173	1096.461
387.117	29.522	1361.063	1095.718
388.132	29.590	1360.117	1095.264
389.146	29.385	1359.728	1093.636
390.161	29.443	1359.418	1093.638
391.175	29.489	1358.635	1093.185
392.190	29.548	1357.966	1092.897
393.205	29.583	1356.840	1092.100
394.219	29.564	1356.385	1091.523
395.234	29.564	1355.521	1090.730
396.248	29.660	1354.155	1090.101
397.263	29.683	1353.233	1089.401
398.278	29.731	1351.525	1088.214
399.292	29.661	1350.949	1087.238
400.307	29.659	1350.103	1086.450
401.321	29.744	1349.293	1086.204
402.336	29.733	1348.193	1085.155
403.350	29.638	1347.803	1084.187
404.365	29.626	1346.517	1082.987
405.380	29.683	1345.818	1082.663
406.394	29.743	1345.426	1082.605
407.409	29.814	1344.140	1081.889
408.423	29.736	1344.172	1081.361
409.438	29.737	1343.553	1080.775
410.453	29.795	1342.602	1080.255
411.467	29.896	1341.674	1080.003
412.482	29.836	1341.473	1079.394
413.496	29.815	1340.766	1078.604
414.511	29.859	1339.823	1078.009
415.526	29.847	1339.087	1077.249
416.540	29.824	1338.418	1076.485
417.555	29.874	1337.686	1076.091
418.569	29.837	1337.328	1075.491
419.584	29.797	1337.071	1074.957
420.599	29.899	1336.282	1074.820
421.613	95.757	1354.519	1459.268
422.628	95.275	1357.139	1459.390
