DTS Sentinel unit serial number:	SN413079Multiplexer serial number:	ORYXHardware model number:	OX4-SRSoftware version number:	ORYX F/W v4.00 Oryx Data Collector v3.7.2.0data status	okinstallation	princeton_trtdifferential loss correction	single-endedforward channel	channel 4reverse channel	N/Adate	2019/09/17time	05:29:34forward acquisition time	60.00reverse acquisition time	0.00gamma	496.2192k internal	0.2313k external	0.2313temperature offset calibration	0.9984default loss term (dB/km)	0.3790temperature slope calibration	1.0000multiplexer offset coefficient	1.0000multiplexer slope coefficient	1.0000fibre end	0.00T internal ref (°C)	29.25T ext. ref 1 (°C)	0.14T ext. ref 2 (°C)	23.26length (m)	temperature (°C)	Stokes	anti-Stokes-747.200	355.482	0.034	0.069
-746.185	791.229	-0.127	0.353
-745.171	-200.000	0.077	0.391
-744.156	-134.052	-0.211	0.027
-743.142	264.079	0.091	-0.161
-742.127	575.411	0.249	0.616
-741.112	800.000	-0.036	0.108
-740.098	-98.932	0.175	-0.045
-739.083	36.045	-0.160	0.143
-738.069	-158.155	0.210	-0.012
-737.054	168.224	0.073	0.106
-736.039	-66.547	-0.052	0.021
-735.025	-200.000	-0.014	0.247
-734.010	-96.249	-0.444	0.119
-732.996	-200.000	0.000	-0.441
-731.981	-200.000	0.009	-0.046
-730.966	75.973	-0.177	-0.190
-729.952	130.303	-0.028	-0.036
-728.937	-31.646	-0.036	-0.021
-727.923	101.897	-0.155	0.183
-726.908	147.415	-0.230	-0.313
-725.894	800.000	0.084	0.246
-724.879	-200.000	-0.058	0.304
-723.864	-167.130	-0.047	-0.002
-722.850	-9.154	-0.168	0.114
-721.835	336.097	-0.013	-0.026
-720.821	800.000	-0.073	0.214
-719.806	30.773	-0.103	0.089
-718.791	800.000	-0.118	-0.379
-717.777	131.057	0.148	-0.193
-716.762	227.861	-0.139	-0.229
-715.748	200.596	0.202	-0.314
-714.733	800.000	0.050	0.164
-713.718	-200.000	-0.037	-0.200
-712.704	23.984	0.010	0.008
-711.689	800.000	0.080	-0.225
-710.675	-138.337	-0.312	-0.035
-709.660	-140.415	0.274	-0.029
-708.645	-56.558	0.059	0.026
-707.631	-46.073	-0.514	0.257
-706.616	800.000	-0.030	0.128
-705.602	71.817	0.193	-0.203
-704.587	800.000	0.069	-0.205
-703.572	40.715	-0.176	-0.161
-702.558	-200.000	0.179	-0.000
-701.543	-133.293	-0.460	-0.059
-700.529	-200.000	-0.102	-0.568
-699.514	-99.658	-0.102	-0.026
-698.499	800.000	-0.083	-0.316
-697.485	13.084	0.167	-0.131
-696.470	56.340	-0.172	-0.170
-695.456	-200.000	-0.024	-0.237
-694.441	89.772	0.147	0.166
-693.426	-200.000	0.001	-0.106
-692.412	-102.237	-0.144	-0.035
-691.397	-66.181	-0.198	0.080
-690.383	533.841	0.029	-0.070
-689.368	11.431	0.202	-0.156
-688.354	-200.000	-0.006	-0.243
-687.339	17.153	-0.229	-0.183
-686.324	-200.000	-0.008	-0.331
-685.310	399.865	-0.033	-0.070
-684.295	-61.872	-0.243	0.103
-683.281	-200.000	0.019	-0.382
-682.266	227.850	0.134	-0.221
-681.251	-79.466	0.154	-0.053
-680.237	-63.548	0.223	0.093
-679.222	-168.417	-0.229	0.009
-678.208	-200.000	-0.026	-0.143
-677.193	375.725	0.116	-0.240
-676.178	800.000	-0.069	-0.240
-675.164	-30.623	-0.256	-0.147
-674.149	-193.120	0.338	0.003
-673.135	53.546	-0.037	-0.036
-672.120	-108.899	0.103	-0.022
-671.105	4.623	0.103	0.076
-670.091	194.980	0.152	0.233
-669.076	126.210	0.096	0.123
-668.062	-113.582	0.231	-0.046
-667.047	484.435	-0.037	0.084
-666.032	-5.803	-0.161	-0.111
-665.018	-41.053	0.319	-0.167
-664.003	-160.188	0.137	-0.007
-662.989	169.782	0.117	-0.169
-661.974	-200.000	-0.067	-0.306
-660.959	109.264	-0.424	-0.514
-659.945	87.407	-0.263	-0.294
-658.930	-11.175	0.196	0.131
-657.916	272.108	0.140	0.250
-656.901	55.309	0.108	-0.105
-655.886	459.645	-0.274	0.616
-654.872	274.856	0.039	0.070
-653.857	-1.822	-0.159	-0.113
-652.843	363.873	-0.110	0.223
-651.828	120.262	0.161	-0.202
-650.814	43.701	-0.357	-0.331
-649.799	-25.221	-0.133	0.080
-648.784	800.000	-0.042	0.123
-647.770	-123.908	0.019	-0.003
-646.755	79.779	0.163	0.177
-645.741	-78.052	-0.302	0.105
-644.726	-118.569	-0.331	-0.059
-643.711	-153.939	-0.362	0.025
-642.697	800.000	0.096	-0.346
-641.682	57.394	0.100	-0.098
-640.668	8.697	-0.316	-0.240
-639.653	-162.026	-0.223	0.011
-638.638	-29.302	0.164	-0.095
-637.624	-200.000	-0.011	-0.055
-636.609	-32.325	0.076	-0.043
-635.595	-200.000	-0.023	0.309
-634.580	-200.000	0.014	-0.337
-633.565	800.000	-0.038	-0.166
-632.551	46.861	0.170	0.160
-631.536	800.000	-0.069	0.207
-630.522	185.519	0.171	-0.256
-629.507	94.726	-0.158	0.182
-628.492	617.596	-0.055	-0.138
-627.478	-84.750	-0.220	0.070
-626.463	62.811	-0.167	0.169
-625.449	224.326	0.107	0.175
-624.434	-160.811	-0.203	-0.011
-623.419	296.629	-0.085	-0.157
-622.405	5.438	-0.070	0.052
-621.390	-26.539	-0.207	-0.122
-620.376	-60.740	-0.252	0.108
-619.361	-113.988	-0.145	-0.028
-618.346	23.945	-0.069	-0.058
-617.332	-14.169	0.065	-0.042
-616.317	800.000	-0.038	-0.109
-615.303	15.284	0.132	0.104
-614.288	-92.416	-0.328	-0.093
-613.273	424.312	-0.073	-0.158
-612.259	124.430	0.153	-0.194
-611.244	-62.876	0.056	-0.023
-610.230	76.399	0.130	0.139
-609.215	-5.917	0.161	-0.111
-608.201	-200.000	-0.002	-0.123
-607.186	56.684	-0.089	-0.087
-606.171	11.517	-0.371	0.287
-605.157	-48.482	0.116	0.056
-604.142	-9.498	0.092	-0.062
-603.128	-147.810	-0.031	-0.003
-602.113	-97.986	0.188	0.049
-601.098	67.142	-0.127	-0.131
-600.084	-44.170	0.159	-0.081
-599.069	290.793	-0.144	-0.264
-598.055	207.301	-0.109	0.172
-597.040	167.505	-0.127	-0.182
-596.025	800.000	0.044	0.155
-595.011	-200.000	0.010	0.131
-593.996	444.364	0.081	0.179
-592.982	800.000	0.078	-0.268
-591.967	153.079	0.214	0.295
-590.952	172.706	0.087	-0.126
-589.938	241.238	-0.196	-0.330
-588.923	250.012	-0.132	0.226
-587.909	-200.000	0.002	-0.186
-586.894	72.345	0.179	-0.188
-585.879	-35.257	0.167	0.092
-584.865	-200.000	-0.069	-0.470
-583.850	70.798	-0.096	0.100
-582.836	43.631	0.272	0.251
-581.821	-55.656	-0.086	0.039
-580.806	8.979	-0.242	0.184
-579.792	-61.586	0.384	-0.162
-578.777	-48.878	-0.041	0.020
-577.763	800.000	0.116	-0.471
-576.748	800.000	0.083	0.267
-575.733	487.463	-0.130	-0.298
-574.719	14.689	0.158	-0.124
-573.704	-200.000	0.007	0.058
-572.690	8.891	-0.187	0.142
-571.675	-97.935	-0.503	-0.131
-570.661	434.407	-0.058	-0.127
-569.646	200.350	0.199	-0.309
-568.631	-12.158	-0.302	0.199
-567.617	-95.885	0.182	-0.049
-566.602	-155.825	0.170	-0.011
-565.588	-89.674	-0.327	-0.097
-564.573	198.471	0.154	-0.238
-563.558	-200.000	-0.467	-0.001
-562.544	800.000	-0.052	-0.206
-561.529	-200.000	-0.020	-0.101
-560.515	-13.729	-0.164	0.107
-559.500	18.206	-0.304	-0.244
-558.485	280.230	0.022	-0.040
-557.471	-114.113	0.429	-0.083
-556.456	-48.507	0.332	0.161
-555.442	323.565	-0.078	-0.150
-554.427	800.000	0.047	-0.187
-553.412	320.837	-0.144	0.275
-552.398	-93.219	0.259	-0.073
-551.383	109.774	-0.070	0.085
-550.369	181.231	0.150	-0.222
-549.354	211.907	0.049	0.078
-548.339	10.265	0.080	-0.062
-547.325	53.838	0.234	-0.226
-546.310	-17.855	0.158	0.100
-545.296	8.855	-0.332	-0.252
-544.281	308.224	-0.141	-0.265
-543.266	-200.000	0.055	-0.298
-542.252	89.811	0.176	-0.198
-541.237	9.297	0.123	0.094
-540.223	-200.000	0.005	-0.301
-539.208	800.000	0.060	-0.207
-538.193	-186.587	-0.067	-0.001
-537.179	66.528	-0.120	-0.123
-536.164	-137.492	-0.277	-0.031
-535.150	-112.488	-0.162	0.032
-534.135	-88.169	-0.060	-0.018
-533.121	-49.757	-0.359	-0.172
-532.106	127.355	-0.248	-0.316
-531.091	-148.647	0.088	0.007
-530.077	-77.297	0.183	-0.064
-529.062	-102.776	-0.222	0.053
-528.048	130.622	0.168	-0.217
-527.033	-200.000	0.005	0.059
-526.018	800.000	0.061	-0.190
-525.004	-123.164	0.346	-0.056
-523.989	203.309	-0.100	-0.155
-522.975	-128.955	-0.244	-0.034
-521.960	-200.000	-0.006	-0.343
-520.945	92.917	0.250	0.283
-519.931	65.142	-0.103	-0.104
-518.916	-27.065	0.177	-0.104
-517.902	298.603	-0.092	0.170
-516.887	-200.000	-0.021	-0.099
-515.872	-101.564	-0.067	0.016
-514.858	-81.970	0.362	0.119
-513.843	-200.000	-0.042	0.413
-512.829	-14.861	0.232	0.150
-511.814	-85.847	0.140	-0.044
-510.799	152.266	-0.208	-0.285
-509.785	800.000	-0.053	0.163
-508.770	-74.367	0.037	0.013
-507.756	465.643	-0.063	0.143
-506.741	62.462	0.071	-0.071
-505.726	800.000	0.032	0.097
-504.712	62.407	-0.112	-0.113
-503.697	-200.000	0.019	-0.240
-502.683	-43.204	0.187	-0.095
-501.668	-200.000	-0.010	0.064
-500.653	205.258	0.202	0.314
-499.639	800.000	0.075	-0.285
-498.624	-87.578	0.174	0.053
-497.610	-200.000	-0.004	0.023
-496.595	-77.085	-0.096	0.034
-495.581	-68.079	-0.274	0.107
-494.566	314.898	0.039	-0.075
-493.551	-37.593	-0.322	-0.172
-492.537	84.848	0.196	0.215
-491.522	94.981	-0.075	0.085
-490.508	-42.287	-0.145	0.074
-489.493	-83.441	0.094	-0.030
-488.478	800.000	-0.039	-0.149
-487.464	34.265	-0.383	-0.335
-486.449	-32.990	-0.121	-0.068
-485.435	-116.112	0.251	0.047
-484.420	-27.701	-0.197	0.115
-483.405	-74.288	0.223	-0.081
-482.391	-200.000	0.011	0.275
-481.376	326.411	0.030	-0.058
-480.362	135.168	0.183	0.238
-479.347	70.722	0.099	0.103
-478.332	10.082	-0.042	0.032
-477.318	-16.196	0.309	-0.197
-476.303	-200.000	0.044	-0.271
-475.289	168.914	0.115	0.165
-474.274	-135.577	-0.379	-0.045
-473.259	426.769	-0.080	0.174
-472.245	-121.008	-0.178	0.030
-471.230	-60.842	0.051	0.022
-470.216	800.000	0.100	0.398
-469.201	800.000	0.056	-0.185
-468.186	-200.000	0.055	-0.337
-467.172	276.305	-0.236	-0.421
-466.157	20.631	-0.079	0.064
-465.143	-55.307	-0.377	-0.170
-464.128	295.701	-0.053	0.098
-463.113	-200.000	-0.033	0.237
-462.099	-16.461	-0.064	0.041
-461.084	19.602	0.172	0.139
-460.070	292.489	0.132	-0.242
-459.055	800.000	-0.093	0.399
-458.040	78.932	-0.180	0.193
-457.026	125.657	0.032	0.040
-456.011	800.000	0.076	-0.245
-454.997	445.687	-0.116	-0.255
-453.982	-200.000	0.048	-0.228
-452.968	124.743	0.047	0.060
-451.953	190.363	-0.132	0.198
-450.938	-149.973	-0.276	-0.022
-449.924	8.485	0.078	0.059
-448.909	-144.125	0.441	-0.041
-447.895	-50.282	-0.427	0.202
-446.880	28.176	0.106	-0.090
-445.865	-200.000	-0.005	-0.043
-444.851	252.874	-0.092	0.157
-443.836	231.453	-0.092	-0.151
-442.822	-163.063	0.155	-0.007
-441.807	800.000	0.078	-0.307
-440.792	776.366	0.034	0.093
-439.778	-200.000	0.033	-0.459
-438.763	7.016	0.038	-0.028
-437.749	-191.066	-0.330	-0.003
-436.734	-54.946	0.265	-0.120
-435.719	-200.000	-0.140	-0.000
-434.705	-200.000	0.021	0.107
-433.690	-93.781	-0.218	-0.060
-432.676	29.424	0.100	0.085
-431.661	475.577	0.099	0.224
-430.646	71.728	-0.097	-0.101
-429.632	197.365	-0.019	-0.029
-428.617	348.799	0.049	0.097
-427.603	-200.000	0.011	-0.209
-426.588	450.549	0.166	-0.367
-425.573	416.848	0.106	0.227
-424.559	283.556	0.172	0.309
-423.544	-200.000	-0.030	0.213
-422.530	19.806	-0.139	-0.112
-421.515	620.212	-0.155	0.391
-420.500	800.000	0.085	-0.245
-419.486	3.158	-0.266	-0.194
-418.471	800.000	-0.070	-0.232
-417.457	800.000	-0.091	0.303
-416.442	-200.000	-0.032	0.258
-415.428	425.981	0.035	0.075
-414.413	-61.252	0.143	-0.060
-413.398	-27.556	-0.082	0.048
-412.384	-0.770	0.043	-0.030
-411.369	420.205	0.114	0.245
-410.355	-200.000	0.023	-0.175
-409.340	681.100	-0.129	-0.337
-408.325	95.859	-0.105	0.120
-407.311	65.115	0.226	0.228
-406.296	82.788	0.189	0.205
-405.282	-200.000	-0.025	-0.169
-404.267	-98.925	0.165	0.042
-403.252	-200.000	0.032	-0.176
-402.238	-91.856	-0.124	-0.035
-401.223	89.150	0.240	-0.268
-400.209	-200.000	0.043	0.514
-399.194	-98.876	0.199	0.051
-398.179	-25.162	-0.215	0.127
-397.165	-200.000	-0.032	0.369
-396.150	86.776	-0.061	-0.068
-395.136	-200.000	0.019	0.416
-394.121	-167.989	-0.434	0.017
-393.106	147.956	-0.157	0.212
-392.092	-200.000	-0.010	0.140
-391.077	153.548	0.070	-0.096
-390.063	-124.163	0.409	-0.064
-389.048	99.415	-0.071	-0.083
-388.033	509.920	0.043	0.101
-387.019	-34.291	0.213	0.117
-386.004	137.880	0.125	-0.163
-384.990	-3.185	0.185	0.129
-383.975	-200.000	0.115	0.000
-382.960	29.115	0.114	0.097
-381.946	-200.000	0.015	0.125
-380.931	118.249	-0.196	-0.241
-379.917	374.876	-0.223	-0.454
-378.902	384.724	0.128	-0.264
-377.888	-133.914	-0.174	-0.022
-376.873	52.737	0.268	0.256
-375.858	-61.932	-0.399	-0.167
-374.844	33.355	-0.147	0.127
-373.829	-200.000	0.003	-0.335
-372.815	101.479	0.170	0.198
-371.800	-200.000	0.024	-0.313
-370.785	-85.745	0.197	0.061
-369.771	356.039	-0.064	-0.127
-368.756	109.302	-0.263	0.315
-367.742	-200.000	0.002	-0.089
-366.727	5.369	-0.160	-0.118
-365.712	-20.568	-0.075	-0.046
-364.698	4.103	0.059	0.043
-363.683	196.990	-0.084	0.128
-362.669	90.192	0.285	0.318
-361.654	-114.245	-0.226	-0.044
-360.639	-63.601	0.356	0.146
-359.625	-18.024	0.217	0.136
-358.610	222.241	0.082	0.131
-357.596	-36.599	-0.364	-0.195
-356.581	-189.970	0.209	0.002
-355.566	-30.978	-0.134	-0.076
-354.552	529.920	0.064	-0.151
-353.537	-95.816	-0.455	0.121
-352.523	-99.501	-0.243	-0.061
-351.508	173.307	0.124	0.178
-350.493	800.000	-0.118	0.330
-349.479	-200.000	-0.051	0.302
-348.464	-128.260	0.223	-0.032
-347.450	-200.000	0.027	-0.125
-346.435	-200.000	-0.052	-0.375
-345.420	-200.000	0.066	0.300
-344.406	-200.000	-0.022	0.149
-343.391	521.746	0.030	0.070
-342.377	-200.000	0.020	0.289
-341.362	-193.977	-0.206	0.002
-340.348	26.039	0.056	0.047
-339.333	104.096	-0.101	-0.118
-338.318	-200.000	-0.018	-0.085
-337.304	-4.296	0.309	0.214
-336.289	-129.855	0.177	0.024
-335.275	18.536	-0.203	0.162
-334.260	-137.774	0.126	0.014
-333.245	152.090	0.056	-0.076
-332.231	-15.763	-0.164	0.104
-331.216	138.058	0.177	-0.231
-330.202	131.893	-0.096	-0.123
-329.187	-55.932	0.079	-0.035
-328.172	800.000	-0.017	-0.049
-327.158	800.000	0.052	0.163
-326.143	235.584	0.158	0.260
-325.129	-44.688	0.423	0.211
-324.114	-83.307	-0.057	0.018
-323.099	-114.148	0.026	-0.005
-322.085	740.234	0.063	-0.168
-321.070	-53.521	0.185	0.084
-320.056	-99.451	-0.191	0.048
-319.041	-43.574	-0.081	-0.041
-318.026	-139.057	-0.354	-0.038
-317.012	-113.794	0.442	-0.086
-315.997	345.656	-0.120	0.234
-314.983	42.547	-0.075	0.068
-313.968	-173.302	0.126	0.004
-312.953	-98.961	-0.116	-0.029
-311.939	800.000	-0.048	0.191
-310.924	139.422	0.080	0.105
-309.910	164.721	-0.139	-0.195
-308.895	232.334	-0.233	-0.382
-307.880	-30.364	0.036	-0.020
-306.866	-200.000	-0.007	0.247
-305.851	-200.000	-0.003	0.228
-304.837	800.000	0.100	0.341
-303.822	-35.091	-0.231	0.126
-302.807	-200.000	-0.050	-0.224
-301.793	222.506	0.022	-0.035
-300.778	245.553	0.050	0.084
-299.764	-136.676	0.103	-0.012
-298.749	-121.484	-0.258	0.043
-297.735	800.000	0.076	0.236
-296.720	-9.287	-0.151	-0.101
-295.705	-57.101	0.069	0.030
-294.691	30.894	-0.184	0.157
-293.676	-56.847	0.218	-0.096
-292.662	-158.948	0.454	-0.026
-291.647	-138.422	-0.520	-0.057
-290.632	800.000	0.057	-0.204
-289.618	26.100	0.262	0.218
-288.603	800.000	0.087	0.324
-287.589	-200.000	-0.084	-0.488
-286.574	800.000	-0.018	0.062
-285.559	-163.003	0.172	0.008
-284.545	15.708	-0.193	-0.151
-283.530	72.851	-0.237	0.247
-282.516	-75.550	0.063	-0.022
-281.501	175.257	-0.079	-0.114
-280.486	-130.979	0.550	-0.073
-279.472	800.000	0.012	-0.050
-278.457	406.228	-0.068	-0.143
-277.443	315.158	0.236	-0.443
-276.428	145.163	-0.208	0.278
-275.413	-3.948	-0.384	0.265
-274.399	-150.152	0.028	-0.002
-273.384	281.250	-0.199	0.355
-272.370	797.240	0.057	0.156
-271.355	-31.578	-0.161	-0.090
-270.340	-200.000	0.038	-0.183
-269.326	-57.081	-0.217	-0.095
-268.311	800.000	-0.032	0.096
-267.297	115.914	0.284	-0.346
-266.282	23.772	-0.096	0.079
-265.267	-133.592	0.074	0.009
-264.253	-142.631	-0.206	-0.020
-263.238	800.000	-0.060	-0.206
-262.224	-195.350	-0.190	0.001
-261.209	174.239	0.182	0.262
-260.195	-200.000	0.000	-0.148
-259.180	793.872	0.085	-0.232
-258.165	-95.542	-0.333	0.089
-257.151	61.938	0.134	0.133
-256.136	7.710	0.081	-0.061
-255.122	-25.450	-0.219	-0.129
-254.107	-158.206	-0.424	0.025
-253.092	25.323	0.350	0.290
-252.078	-41.436	-0.169	0.087
-251.063	101.590	0.135	0.157
-250.049	308.027	0.115	0.213
-249.034	-60.173	0.030	0.013
-248.019	-106.946	0.394	-0.087
-247.005	21.141	-0.097	0.078
-245.990	325.592	-0.057	0.108
-244.976	-104.644	-0.213	0.049
-243.961	-123.604	0.203	-0.032
-242.946	-200.000	-0.003	0.168
-241.932	-200.000	0.367	0.002
-240.917	-92.869	-0.192	-0.053
-239.903	4.102	0.127	-0.093
-238.888	347.126	-0.193	-0.377
-237.873	27.247	0.163	0.136
-236.859	33.168	0.196	-0.169
-235.844	-82.995	0.393	-0.126
-234.830	-200.000	0.035	0.159
-233.815	697.127	0.151	0.394
-232.800	254.817	0.202	0.344
-231.786	-94.650	-0.069	-0.019
-230.771	-200.000	-0.013	0.479
-229.757	-3.508	-0.376	0.260
-228.742	89.949	0.128	0.142
-227.727	84.268	0.294	0.320
-226.713	-95.311	0.401	-0.107
-225.698	-200.000	-0.041	-0.314
-224.684	345.912	-0.121	-0.237
-223.669	-106.902	0.295	-0.065
-222.655	-87.196	-0.079	0.024
-221.640	-49.475	0.089	0.042
-220.625	342.939	-0.066	0.129
-219.611	-200.000	-0.049	-0.221
-218.596	-89.731	0.334	-0.097
-217.582	64.156	0.092	0.092
-216.567	-162.123	0.035	0.002
-215.552	800.000	-0.084	-0.278
-214.538	-200.000	-0.003	0.242
-213.523	134.630	0.049	-0.063
-212.509	-200.000	-0.012	0.219
-211.494	26.244	0.048	0.040
-210.479	135.645	0.061	0.079
-209.465	171.701	0.065	0.093
-208.450	47.373	0.259	-0.239
-207.436	117.302	0.058	0.070
-206.421	-90.978	0.217	0.062
-205.406	88.263	0.045	0.049
-204.392	714.400	-0.057	0.150
-203.377	800.000	-0.074	0.249
-202.363	-111.130	-0.462	0.094
-201.348	-14.243	-0.278	-0.178
-200.333	-114.348	0.338	-0.065
-199.319	-181.376	0.315	0.006
-198.304	499.600	-0.093	-0.213
-197.290	-114.828	-0.105	0.020
-196.275	-7.148	0.247	-0.166
-195.260	-200.000	-0.015	0.140
-194.246	-69.772	-0.253	-0.096
-193.231	800.000	-0.018	-0.050
-192.217	145.236	0.148	-0.197
-191.202	-200.000	0.060	0.296
-190.187	-131.277	-0.224	0.029
-189.173	40.950	0.032	-0.028
-188.158	152.965	0.163	0.221
-187.144	-200.000	-0.002	0.318
-186.129	-141.607	0.127	0.013
-185.114	-68.488	-0.196	0.075
-184.100	93.212	-0.101	-0.114
-183.085	-164.058	0.327	0.015
-182.071	-131.990	0.086	-0.011
-181.056	-135.943	0.106	-0.012
-180.042	800.000	0.063	-0.222
-179.027	-87.831	0.357	0.107
-178.012	162.469	-0.101	-0.140
-176.998	-130.804	0.317	0.042
-175.983	-47.048	0.106	0.051
-174.969	106.423	-0.128	-0.151
-173.954	-39.160	0.083	-0.043
-172.939	254.953	0.095	0.161
-171.925	-200.000	0.013	-0.265
-170.910	479.230	0.082	-0.184
-169.896	42.289	-0.112	0.101
-168.881	-22.052	0.102	-0.061
-167.866	190.947	-0.378	-0.563
-166.852	43.037	-0.451	0.408
-165.837	325.292	0.135	0.256
-164.823	-145.953	-0.288	0.025
-163.808	285.752	0.162	-0.289
-162.793	-163.161	0.259	0.012
-161.779	-200.000	-0.001	0.123
-160.764	-14.798	0.078	-0.050
-159.750	233.949	0.109	-0.178
-158.735	179.099	-0.096	0.139
-157.720	-25.847	0.308	0.180
-156.706	800.000	-0.084	0.305
-155.691	800.000	0.103	0.371
-154.677	-5.185	-0.102	-0.069
-153.662	-148.236	-0.270	-0.022
-152.647	800.000	-0.087	0.322
-151.633	-12.570	0.280	0.181
-150.618	-200.000	-0.030	-0.246
-149.604	115.096	0.166	0.201
-148.589	-24.493	-0.164	0.097
-147.574	771.555	0.124	0.335
-146.560	800.000	0.052	0.160
-145.545	-93.951	0.201	0.055
-144.531	20.800	0.179	0.144
-143.516	11.998	0.068	-0.052
-142.502	-200.000	-0.074	-0.409
-141.487	-2.966	0.150	-0.103
-140.472	-143.495	-0.084	0.008
-139.458	26.377	-0.174	-0.144
-138.443	800.000	-0.026	-0.074
-137.429	19.220	-0.072	0.057
-136.414	-106.158	-0.161	-0.036
-135.399	-87.740	0.348	0.104
-134.385	100.656	0.237	0.273
-133.370	26.623	0.398	0.330
-132.356	-200.000	-0.035	0.392
-131.341	131.280	0.336	0.427
-130.326	-200.000	-0.009	0.243
-129.312	-200.000	0.011	0.399
-128.297	-35.004	0.221	0.120
-127.283	800.000	0.054	-0.167
-126.268	-200.000	-0.035	-0.323
-125.253	98.490	-0.064	0.073
-124.239	-200.000	-0.027	-0.131
-123.224	800.000	-0.024	0.088
-122.210	-87.025	0.154	-0.046
-121.195	-200.000	-0.010	0.068
-120.180	800.000	-0.066	0.227
-119.166	-200.000	0.001	-0.012
-118.151	15.097	-0.189	-0.146
-117.137	15.309	0.167	-0.130
-116.122	-83.728	0.155	0.049
-115.107	-106.728	0.050	0.011
-114.093	46.616	-0.236	0.217
-113.078	154.927	-0.063	0.085
-112.064	145.267	-0.206	0.273
-111.049	-200.000	-0.016	-0.215
-110.034	-5.651	-0.175	0.119
-109.020	-99.611	0.070	0.017
-108.005	90.733	0.178	0.197
-106.991	246.089	-0.137	-0.228
-105.976	-52.873	0.160	0.073
-104.962	295.227	-0.083	0.150
-103.947	-143.882	-0.325	-0.030
-102.932	-49.642	-0.118	0.056
-101.918	97.798	0.317	-0.361
-100.903	75.065	-0.093	-0.097
-99.889	-27.050	-0.084	-0.049
-98.874	-56.016	0.303	0.134
-97.859	63.210	-0.080	-0.080
-96.845	441.230	-0.077	0.166
-95.830	-73.418	0.274	-0.099
-94.816	-200.000	0.050	0.371
-93.801	228.429	0.291	0.469
-92.786	688.307	-0.182	-0.471
-91.772	4.520	0.083	-0.060
-90.757	-102.488	-0.097	0.023
-89.743	-42.305	0.099	-0.050
-88.728	800.000	0.172	0.478
-87.713	-120.770	0.187	0.031
-86.699	-129.166	-0.189	-0.026
-85.684	41.162	-0.145	0.130
-84.670	253.666	0.290	-0.489
-83.655	800.000	-0.074	-0.210
-82.640	79.142	-0.084	0.089
-81.626	-200.000	-0.038	-0.263
-80.611	-96.644	0.381	-0.099
-79.597	-79.649	0.087	-0.029
-78.582	-174.226	-0.321	-0.009
-77.567	-147.070	0.153	-0.013
-76.553	14.198	0.139	-0.107
-75.538	-71.540	-0.152	-0.056
-74.524	800.000	-0.011	0.039
-73.509	190.680	0.084	-0.125
-72.494	109.978	0.171	0.202
-71.480	-200.000	-0.045	-0.314
-70.465	-66.930	0.392	0.153
-69.451	5.866	-0.302	0.221
-68.436	31.085	0.203	0.172
-67.422	172.511	-0.026	0.038
-66.407	-112.303	-0.189	0.037
-65.392	40.833	0.036	0.032
-64.378	-200.000	-0.045	-0.231
-63.363	174.028	-0.082	0.117
-62.349	-200.000	-0.005	0.068
-61.334	205.735	-0.859	-1.318
-60.319	247.308	0.147	0.245
-59.305	800.000	-0.374	-1.276
-58.290	256.503	0.711	1.204
-57.276	261.347	0.742	1.268
-56.261	-200.000	109.496	604.402
-55.246	438.920	1501.238	3234.867
-54.232	141.562	2692.277	3519.693
-53.217	96.308	2328.842	2629.405
-52.203	35.637	2077.862	1801.810
-51.188	30.946	1995.355	1687.828
-50.173	29.554	1978.478	1660.975
-49.159	46.143	2036.295	1861.422
-48.144	46.163	2052.707	1876.537
-47.130	31.521	2010.905	1705.965
-46.115	29.224	1999.751	1675.572
-45.100	29.187	1997.089	1672.936
-44.086	29.068	1995.094	1670.119
-43.071	29.115	1992.203	1668.065
-42.057	29.085	1990.271	1666.107
-41.042	29.122	1988.201	1664.639
-40.027	29.090	1986.657	1662.997
-39.013	29.158	1984.257	1661.535
-37.998	29.182	1982.460	1660.180
-36.984	29.118	1980.652	1658.023
-35.969	29.283	1978.074	1657.278
-34.954	29.225	1976.822	1655.640
-33.940	29.234	1975.777	1654.780
-32.925	29.248	1973.556	1652.988
-31.911	29.129	1972.181	1650.702
-30.896	29.198	1970.513	1649.858
-29.881	29.333	1968.757	1649.528
-28.867	29.311	1967.026	1647.818
-27.852	29.280	1965.690	1646.357
-26.838	29.283	1963.294	1644.308
-25.823	29.279	1962.389	1643.450
-24.809	29.280	1960.654	1641.941
-23.794	29.295	1958.452	1640.162
-22.779	29.274	1957.301	1638.949
-21.765	29.309	1955.056	1637.320
-20.750	29.260	1953.411	1635.439
-19.736	29.303	1951.923	1634.506
-18.721	29.253	1950.436	1632.759
-17.706	29.232	1948.711	1631.064
-16.692	29.256	1946.708	1629.533
-15.677	29.254	1945.026	1628.044
-14.663	29.281	1943.893	1627.270
-13.648	29.329	1942.788	1626.703
-12.633	29.311	1940.712	1624.741
-11.619	29.295	1939.942	1623.890
-10.604	29.179	1938.810	1621.857
-9.590	29.246	1937.179	1621.017
-8.575	29.293	1935.493	1619.952
-7.560	29.256	1934.913	1619.083
-6.546	29.267	1933.114	1617.609
-5.531	29.310	1931.926	1616.922
-4.517	29.192	1930.965	1615.026
-3.502	29.129	1929.924	1613.538
-2.487	29.184	1928.655	1612.888
-1.473	29.247	1927.569	1612.468
-0.458	29.292	1922.763	1608.783
0.556	27.355	1902.115	1579.620
1.571	22.900	1882.775	1525.052
2.586	18.875	1904.869	1507.580
3.600	17.735	1939.951	1525.015
4.615	17.600	1935.229	1519.965
5.629	13.821	1834.486	1408.694
6.644	5.531	1715.507	1251.174
7.659	0.703	1678.111	1185.969
8.673	0.203	1674.929	1179.697
9.688	0.185	1673.734	1178.616
10.702	0.169	1672.117	1177.241
11.717	0.003	1668.754	1173.480
12.731	0.671	1667.555	1177.735
13.746	6.812	1681.967	1235.980
14.761	14.753	1698.340	1310.422
15.775	17.491	1701.230	1334.026
16.790	17.001	1698.959	1328.287
17.804	15.888	1695.599	1316.846
18.819	14.978	1691.961	1306.800
19.834	14.412	1689.801	1300.594
20.848	14.056	1688.620	1296.797
21.863	13.869	1686.520	1293.615
22.877	13.654	1684.532	1290.302
23.892	13.304	1684.015	1287.066
24.907	13.281	1682.255	1285.431
25.921	13.214	1681.402	1284.145
26.936	13.275	1680.256	1283.626
27.950	13.278	1679.560	1283.005
28.965	13.270	1679.098	1282.473
29.980	13.337	1678.461	1282.396
30.994	13.514	1676.882	1282.446
32.009	13.424	1676.029	1280.984
33.023	13.533	1675.655	1281.428
34.038	13.586	1674.797	1281.065
35.053	13.579	1673.172	1279.656
36.067	13.523	1672.022	1278.233
37.082	13.452	1671.287	1277.011
38.096	13.418	1670.374	1275.936
39.111	13.497	1669.870	1276.049
40.126	13.495	1669.185	1275.396
41.140	13.432	1668.143	1274.006
42.155	13.329	1666.428	1271.789
43.169	13.347	1665.039	1270.753
44.184	13.308	1663.969	1269.522
45.199	13.289	1662.395	1268.070
46.213	13.237	1661.689	1267.015
47.228	13.180	1660.975	1265.922
48.242	13.300	1659.603	1265.684
49.257	13.394	1658.269	1265.274
50.271	13.406	1656.811	1264.144
51.286	13.405	1655.098	1262.714
52.301	13.384	1654.038	1261.634
53.315	13.361	1652.771	1260.379
54.330	13.386	1651.156	1259.229
55.344	13.302	1649.759	1257.415
56.359	13.306	1647.985	1255.981
57.374	13.390	1646.789	1255.595
58.388	13.308	1645.989	1254.251
59.403	13.191	1645.261	1252.700
60.417	13.214	1643.750	1251.610
61.432	13.194	1642.295	1250.244
62.447	13.295	1640.658	1249.652
63.461	13.207	1639.339	1247.870
64.476	13.182	1638.723	1247.098
65.490	13.203	1637.498	1246.216
66.505	13.174	1636.232	1244.921
67.520	13.279	1634.801	1244.519
68.534	13.230	1634.562	1243.852
69.549	13.270	1633.012	1242.866
70.563	13.316	1631.845	1242.214
71.578	13.300	1630.396	1240.879
72.593	13.218	1629.443	1239.427
73.607	13.236	1628.449	1238.699
74.622	13.132	1627.579	1237.152
75.636	13.068	1627.028	1236.145
76.651	13.123	1625.579	1235.344
77.666	13.067	1624.768	1234.199
78.680	13.236	1623.719	1234.552
79.695	13.181	1622.929	1233.434
80.709	13.188	1621.038	1231.941
81.724	13.144	1620.814	1231.331
82.739	13.320	1619.706	1231.691
83.753	13.284	1619.137	1230.885
84.768	13.271	1618.162	1229.936
85.782	13.351	1617.107	1229.621
86.797	13.446	1616.340	1229.637
87.812	13.375	1615.661	1228.485
88.826	13.373	1614.093	1227.167
89.841	13.305	1613.279	1225.937
90.855	13.269	1612.296	1224.816
91.870	13.357	1611.303	1224.599
92.884	13.399	1609.669	1223.560
93.899	13.417	1609.150	1223.193
94.914	13.442	1607.469	1221.988
95.928	13.442	1606.528	1221.168
96.943	13.512	1605.323	1220.655
97.957	13.425	1603.929	1218.847
98.972	13.432	1602.512	1217.717
99.987	13.426	1601.125	1216.515
101.001	13.405	1599.313	1214.873
102.016	13.390	1597.957	1213.625
103.030	13.424	1596.297	1212.508
104.045	13.454	1595.001	1211.637
105.060	13.452	1594.028	1210.773
106.074	13.426	1592.575	1209.369
107.089	13.361	1591.306	1207.824
108.103	13.255	1589.920	1205.898
109.118	13.204	1588.443	1204.298
110.133	13.307	1586.806	1203.701
111.147	13.300	1585.962	1202.899
112.162	13.203	1584.585	1201.042
113.176	13.248	1582.987	1200.054
114.191	13.363	1581.225	1199.447
115.206	13.308	1580.391	1198.308
116.220	13.352	1578.863	1197.366
117.235	13.294	1577.752	1195.998
118.249	13.331	1576.449	1195.167
119.264	13.288	1575.303	1193.883
120.279	13.354	1573.497	1192.884
121.293	13.362	1571.695	1191.469
122.308	13.265	1571.133	1190.241
123.322	13.315	1569.528	1189.277
124.337	13.269	1568.044	1187.723
125.352	13.249	1566.206	1186.083
126.366	13.256	1565.300	1185.341
127.381	13.253	1564.360	1184.501
128.395	13.237	1563.274	1183.460
129.410	13.272	1561.842	1182.519
130.424	13.285	1560.581	1181.551
131.439	13.239	1559.190	1180.066
132.454	13.323	1557.890	1179.581
133.468	13.381	1556.075	1178.513
134.483	13.396	1554.770	1177.529
135.497	13.408	1553.421	1176.486
136.512	13.486	1552.114	1175.944
137.527	13.361	1550.827	1173.980
138.541	13.352	1549.327	1172.675
139.556	13.420	1548.130	1172.147
140.570	13.389	1546.751	1170.781
141.585	13.449	1545.517	1170.171
142.600	13.477	1544.047	1169.151
143.614	13.511	1542.874	1168.400
144.629	13.548	1541.004	1167.138
145.643	13.681	1539.745	1167.022
146.658	13.538	1538.982	1165.329
147.673	13.509	1537.347	1163.787
148.687	13.457	1535.961	1162.272
149.702	13.503	1534.176	1161.140
150.716	13.473	1532.666	1159.681
151.731	13.477	1530.986	1158.338
152.746	13.528	1530.002	1157.846
153.760	13.518	1528.180	1156.298
154.775	13.496	1527.156	1155.266
155.789	13.561	1525.810	1154.599
156.804	13.593	1524.967	1154.082
157.819	13.605	1523.005	1152.576
158.833	13.615	1522.176	1151.918
159.848	13.576	1521.771	1151.238
160.862	13.684	1520.286	1150.764
161.877	13.753	1518.635	1149.886
162.892	13.732	1517.143	1148.515
163.906	13.671	1516.053	1147.163
164.921	13.647	1514.648	1145.832
165.935	13.553	1513.960	1144.560
166.950	13.579	1512.959	1143.881
167.964	13.628	1511.675	1143.151
168.979	13.637	1510.777	1142.429
169.994	13.715	1509.203	1141.679
171.008	13.631	1508.543	1140.500
172.023	13.681	1507.288	1139.790
173.037	13.677	1506.248	1138.879
174.052	13.828	1504.952	1138.834
175.067	13.835	1503.910	1137.993
176.081	13.725	1503.326	1136.694
177.096	13.642	1501.354	1134.538
178.110	13.707	1500.181	1133.993
179.125	13.681	1499.469	1133.177
180.140	13.619	1498.131	1131.640
181.154	13.717	1496.984	1131.341
182.169	13.831	1495.611	1130.983
183.183	13.762	1494.553	1129.614
184.198	13.869	1492.924	1129.010
185.213	13.852	1492.501	1128.477
186.227	13.924	1490.989	1127.721
187.242	13.932	1489.738	1126.728
188.256	13.908	1489.168	1126.034
189.271	13.900	1487.826	1124.867
190.286	13.931	1487.442	1124.687
191.300	13.930	1485.855	1123.377
192.315	13.853	1484.732	1121.912
193.329	13.773	1483.441	1120.298
194.344	13.882	1482.043	1119.874
195.359	13.851	1480.824	1118.646
196.373	13.879	1480.134	1118.216
197.388	13.881	1479.163	1117.397
198.402	13.896	1477.931	1116.466
199.417	14.054	1476.585	1116.414
200.432	14.121	1475.549	1115.980
201.446	14.098	1475.007	1115.317
202.461	14.158	1473.553	1114.521
203.475	14.205	1472.516	1113.958
204.490	14.289	1471.246	1113.454
205.504	14.198	1470.367	1112.083
206.519	14.140	1468.645	1110.300
207.534	14.168	1468.036	1109.923
208.548	14.051	1466.872	1108.168
209.563	14.126	1465.800	1107.761
210.577	14.105	1464.832	1106.788
211.592	14.097	1464.210	1106.168
212.607	14.227	1463.476	1106.378
213.621	14.247	1462.648	1105.786
214.636	14.237	1461.929	1105.081
215.650	14.191	1460.857	1103.871
216.665	14.188	1459.918	1103.038
217.680	14.249	1459.024	1102.670
218.694	14.309	1458.138	1102.304
219.709	14.424	1457.006	1102.106
220.723	14.342	1456.632	1101.187
221.738	14.344	1455.413	1100.184
222.753	14.267	1454.568	1098.939
223.767	14.344	1453.281	1098.373
224.782	14.292	1452.248	1097.151
225.796	14.397	1451.456	1097.148
226.811	14.466	1450.512	1096.796
227.826	14.427	1450.209	1096.211
228.840	14.474	1449.171	1095.640
229.855	14.385	1448.053	1094.111
230.869	14.450	1447.016	1093.661
231.884	14.423	1446.074	1092.674
232.899	14.447	1445.198	1092.069
233.913	14.398	1444.214	1090.910
234.928	14.499	1442.780	1090.391
235.942	14.364	1441.716	1088.609
236.957	14.389	1440.190	1087.522
237.972	14.438	1439.466	1087.199
238.986	14.466	1438.259	1086.374
240.001	14.394	1437.646	1085.342
241.015	14.484	1435.840	1084.472
242.030	14.467	1434.905	1083.561
243.045	14.518	1433.845	1082.994
244.059	14.589	1433.083	1082.781
245.074	14.626	1432.184	1082.249
246.088	14.576	1431.697	1081.460
247.103	14.636	1431.122	1081.320
248.117	14.695	1430.165	1080.884
249.132	14.725	1429.131	1080.200
250.147	14.774	1428.591	1080.013
251.161	14.891	1428.195	1080.374
252.176	14.831	1427.471	1079.345
253.190	14.816	1426.895	1078.716
254.205	14.910	1425.887	1078.465
255.220	14.920	1424.986	1077.751
256.234	15.012	1424.039	1077.529
257.249	15.028	1423.038	1076.782
258.263	14.976	1422.032	1075.592
259.278	15.090	1421.188	1075.586
260.293	15.034	1420.076	1074.296
261.307	15.062	1419.592	1074.011
262.322	15.094	1419.086	1073.738
263.336	15.158	1418.004	1073.236
264.351	15.167	1417.309	1072.672
265.366	15.154	1416.240	1071.683
266.380	15.145	1415.210	1070.755
267.395	15.228	1414.068	1070.325
268.409	15.092	1413.622	1069.023
269.424	15.122	1412.475	1068.254
270.439	15.174	1411.554	1067.797
271.453	15.202	1410.828	1067.330
272.468	15.213	1409.182	1066.056
273.482	15.227	1408.470	1065.516
274.497	15.246	1407.797	1065.033
275.512	15.181	1406.915	1063.855
276.526	15.200	1405.928	1063.139
277.541	15.169	1405.575	1062.584
278.555	15.155	1404.577	1061.643
279.570	15.207	1403.946	1061.402
280.585	15.248	1402.694	1060.619
281.599	15.364	1401.582	1060.418
282.614	15.344	1400.495	1059.375
283.628	15.308	1399.640	1058.407
284.643	15.301	1398.230	1057.207
285.657	15.358	1397.215	1056.700
286.672	15.233	1396.592	1055.353
287.687	15.322	1395.706	1055.150
288.701	15.331	1394.327	1054.069
289.716	15.376	1393.861	1053.904
290.730	15.446	1393.212	1053.763
291.745	15.488	1391.823	1052.883
292.760	15.447	1391.010	1051.918
293.774	15.388	1390.095	1050.760
294.789	15.529	1388.864	1050.618
295.803	15.519	1388.516	1050.202
296.818	15.545	1387.620	1049.592
297.833	15.584	1386.378	1048.805
298.847	15.489	1385.507	1047.463
299.862	15.508	1384.612	1046.812
300.876	15.578	1383.634	1046.415
301.891	15.583	1382.447	1045.454
302.906	15.615	1382.171	1045.354
303.920	15.603	1381.652	1044.795
304.935	15.709	1380.417	1044.427
305.949	15.691	1379.562	1043.575
306.964	15.718	1379.092	1043.294
307.979	15.750	1378.063	1042.620
308.993	15.749	1377.146	1041.825
310.008	15.792	1376.329	1041.382
311.022	15.763	1375.133	1040.208
312.037	15.783	1374.420	1039.698
313.052	15.818	1373.234	1038.926
314.066	15.814	1372.141	1037.987
315.081	15.816	1371.063	1037.090
316.095	15.812	1369.874	1036.072
317.110	15.724	1368.883	1034.689
318.125	15.818	1367.571	1034.186
319.139	15.748	1367.558	1033.656
320.154	15.727	1366.570	1032.689
321.168	15.814	1365.352	1032.211
322.183	15.709	1364.280	1030.660
323.197	15.873	1363.479	1030.973
324.212	15.880	1362.477	1030.165
325.227	15.790	1362.103	1029.239
326.241	15.882	1360.795	1028.725
327.256	15.836	1360.388	1028.041
328.270	15.920	1359.318	1027.655
329.285	15.900	1358.566	1026.875
330.300	15.923	1357.168	1025.868
331.314	15.911	1356.587	1025.267
332.329	15.862	1355.948	1024.391
333.343	16.012	1354.579	1024.181
334.358	16.053	1353.556	1023.564
335.373	15.874	1353.595	1022.414
336.387	16.109	1352.201	1022.696
337.402	16.069	1351.617	1021.923
338.416	16.081	1351.129	1021.539
339.431	16.029	1350.533	1020.682
340.446	16.088	1349.593	1020.235
341.460	16.200	1348.363	1019.897
342.475	16.144	1347.522	1018.831
343.489	16.333	1346.458	1019.075
344.504	16.271	1345.977	1018.250
345.519	16.256	1344.975	1017.307
346.533	16.289	1343.837	1016.558
347.548	16.259	1343.129	1015.750
348.562	16.288	1342.459	1015.327
349.577	16.430	1341.302	1015.218
350.592	16.398	1340.932	1014.654
351.606	16.391	1339.350	1013.328
352.621	16.226	1338.825	1011.851
353.635	16.265	1337.859	1011.266
354.650	16.231	1337.248	1010.511
355.665	16.192	1336.260	1009.439
356.679	16.320	1334.753	1008.976
357.694	16.333	1333.786	1008.237
358.708	16.309	1333.028	1007.429
359.723	16.354	1331.831	1006.705
360.738	16.428	1330.372	1005.955
361.752	16.445	1329.659	1005.423
362.767	16.465	1328.571	1004.634
363.781	16.422	1327.511	1003.485
364.796	16.500	1327.050	1003.511
365.810	16.526	1326.331	1003.036
366.825	16.544	1325.722	1002.593
367.840	16.578	1324.914	1002.093
368.854	16.542	1324.485	1001.470
369.869	16.652	1323.705	1001.439
370.883	16.713	1322.866	1001.078
371.898	16.769	1321.760	1000.480
372.913	16.617	1321.156	999.037
373.927	16.495	1320.606	997.815
374.942	16.642	1320.057	998.180
375.956	16.618	1319.388	997.445
376.971	16.662	1317.815	996.427
377.986	16.766	1317.258	996.527
379.000	16.694	1316.519	995.456
380.015	16.729	1315.672	994.934
381.029	16.747	1314.863	994.339
382.044	16.790	1314.152	993.963
383.059	16.904	1313.224	993.845
384.073	16.859	1313.005	993.328
385.088	16.888	1312.031	992.670
386.102	16.931	1311.319	992.298
387.117	16.979	1310.464	991.845
388.132	16.961	1309.626	991.015
389.146	16.820	1309.115	989.720
390.161	16.917	1307.838	989.233
391.175	16.825	1307.423	988.292
392.190	16.863	1306.854	987.999
393.205	16.917	1305.997	987.578
394.219	16.981	1304.775	986.937
395.234	17.029	1303.541	986.194
396.248	16.975	1302.452	984.969
397.263	17.015	1301.350	984.280
398.278	16.985	1299.882	982.914
399.292	16.998	1298.973	982.212
400.307	16.922	1297.676	980.708
401.321	16.812	1296.798	979.320
402.336	16.859	1295.837	978.779
403.350	17.061	1294.453	978.813
404.365	17.001	1293.984	978.026
405.380	17.014	1293.104	977.345
406.394	16.986	1292.132	976.364
407.409	17.020	1291.612	976.082
408.423	17.146	1291.018	976.269
409.438	17.198	1289.739	975.515
410.453	17.296	1288.758	975.252
411.467	17.351	1288.164	975.030
412.482	17.201	1288.306	974.191
413.496	17.271	1287.618	973.983
414.511	17.222	1286.821	973.017
415.526	17.271	1285.931	972.534
416.540	17.396	1285.086	972.529
417.555	17.303	1284.651	971.578
418.569	17.323	1284.021	971.128
419.584	17.369	1283.339	970.790
420.599	17.477	1282.357	970.578
421.613	95.547	1354.738	1471.810
422.628	93.485	1365.236	1471.899
