DTS Sentinel unit serial number:	SN413079Multiplexer serial number:	ORYXHardware model number:	OX4-SRSoftware version number:	ORYX F/W v4.00 Oryx Data Collector v3.7.2.0data status	okinstallation	princeton_trtdifferential loss correction	single-endedforward channel	channel 4reverse channel	N/Adate	2019/09/13time	08:41:34forward acquisition time	60.00reverse acquisition time	0.00gamma	496.2192k internal	0.2316k external	0.2316temperature offset calibration	1.0196default loss term (dB/km)	0.3790temperature slope calibration	1.0000multiplexer offset coefficient	1.0000multiplexer slope coefficient	1.0000fibre end	0.00T internal ref (°C)	27.83T ext. ref 1 (°C)	4.30T ext. ref 2 (°C)	24.74length (m)	temperature (°C)	Stokes	anti-Stokes-747.200	285.252	0.030	-0.056
-746.185	800.000	-0.070	-0.196
-745.171	80.133	-0.217	0.237
-744.156	-40.404	-0.093	-0.049
-743.142	45.442	-0.185	-0.173
-742.127	-120.364	-0.154	0.027
-741.112	-110.538	0.322	-0.068
-740.098	-59.052	-0.353	0.154
-739.083	79.819	0.037	0.040
-738.069	-200.000	-0.066	-0.310
-737.054	69.510	0.148	-0.154
-736.039	-54.614	-0.087	-0.040
-735.025	-11.459	0.302	-0.201
-734.010	176.697	-0.231	-0.340
-732.996	800.000	-0.065	0.220
-731.981	275.117	-0.112	-0.200
-730.966	11.540	-0.262	0.203
-729.952	-112.114	-0.140	-0.028
-728.937	-200.000	-0.052	0.265
-727.923	-200.000	-0.019	-0.094
-726.908	303.111	-0.154	0.289
-725.894	15.965	0.230	0.183
-724.879	-200.000	-0.073	-0.324
-723.864	-68.972	0.274	-0.107
-722.850	800.000	-0.083	-0.236
-721.835	800.000	-0.132	-0.406
-720.821	192.324	0.057	-0.087
-719.806	3.065	-0.305	-0.225
-718.791	438.093	0.105	-0.232
-717.777	-140.270	-0.300	-0.032
-716.762	1.200	-0.320	0.232
-715.748	-33.685	0.046	0.026
-714.733	-200.000	-0.003	0.055
-713.718	-133.627	-0.278	-0.035
-712.704	84.927	0.074	0.082
-711.689	3.972	0.125	0.092
-710.675	249.270	0.094	0.161
-709.660	129.815	0.101	0.131
-708.645	-200.000	0.014	0.092
-707.631	32.334	0.225	-0.196
-706.616	-73.677	-0.223	-0.082
-705.602	70.507	0.234	0.245
-704.587	-200.000	0.029	-0.229
-703.572	-116.759	-0.132	0.025
-702.558	36.625	0.080	0.072
-701.543	92.419	-0.139	-0.158
-700.529	800.000	-0.066	-0.213
-699.514	127.798	-0.188	-0.241
-698.499	-69.275	-0.253	-0.098
-697.485	105.643	-0.033	0.039
-696.470	51.685	-0.092	0.088
-695.456	345.944	0.154	-0.307
-694.441	18.848	-0.122	-0.099
-693.426	-31.803	-0.112	-0.064
-692.412	-85.609	0.206	-0.065
-691.397	-91.114	0.237	-0.069
-690.383	143.706	0.053	-0.071
-689.368	283.660	0.113	0.206
-688.354	-200.000	0.047	-0.452
-687.339	-116.261	-0.288	-0.054
-686.324	-120.708	-0.389	0.067
-685.310	-142.252	0.357	-0.036
-684.295	-200.000	-0.000	-0.139
-683.281	-200.000	-0.030	-0.190
-682.266	-42.585	0.183	-0.094
-681.251	48.253	-0.105	0.100
-680.237	-148.024	0.282	0.024
-679.222	141.473	0.074	-0.099
-678.208	63.016	-0.114	-0.115
-677.193	-167.021	0.606	-0.025
-676.178	-84.081	-0.384	-0.123
-675.164	800.000	0.027	-0.092
-674.149	-200.000	0.008	0.109
-673.135	-146.720	0.182	0.016
-672.120	-200.000	0.013	0.068
-671.105	-137.207	-0.369	0.042
-670.091	-100.700	0.168	-0.042
-669.076	800.000	0.060	-0.248
-668.062	800.000	-0.104	0.311
-667.047	-37.924	-0.330	0.177
-666.032	240.033	0.193	-0.324
-665.018	-132.968	-0.185	0.024
-664.003	-200.000	-0.061	-0.330
-662.989	233.810	-0.201	-0.334
-661.974	-133.799	-0.221	-0.028
-660.959	57.992	0.110	0.108
-659.945	-125.017	0.330	-0.051
-658.930	800.000	0.134	-0.397
-657.916	-200.000	0.006	0.096
-656.901	315.541	0.068	-0.129
-655.886	-22.758	0.171	0.104
-654.872	139.606	0.162	-0.215
-653.857	-162.904	-0.206	-0.010
-652.843	800.000	-0.068	-0.264
-651.828	-200.000	-0.011	-0.050
-650.814	198.180	0.122	0.189
-649.799	225.090	-0.034	0.056
-648.784	107.478	0.224	-0.269
-647.770	309.910	0.110	-0.207
-646.755	272.172	-0.283	0.504
-645.741	-178.605	0.221	0.005
-644.726	33.662	-0.137	0.121
-643.711	153.977	0.058	0.080
-642.697	-10.583	0.200	-0.134
-641.682	-142.791	-0.277	0.027
-640.668	111.272	0.174	0.212
-639.653	295.581	-0.087	-0.160
-638.638	576.726	-0.065	-0.161
-637.624	-32.039	-0.197	0.111
-636.609	-200.000	0.005	-0.364
-635.595	92.362	0.152	-0.173
-634.580	57.356	-0.122	-0.120
-633.565	-200.000	0.031	-0.229
-632.551	-200.000	-0.032	-0.162
-631.536	68.420	-0.163	-0.168
-630.522	25.442	0.260	-0.218
-629.507	-192.765	-0.123	0.001
-628.492	800.000	-0.069	0.200
-627.478	-104.115	0.097	-0.023
-626.463	-17.771	-0.089	-0.056
-625.449	379.646	0.093	-0.191
-624.434	-63.405	0.229	0.095
-623.419	-99.695	0.067	0.017
-622.405	-200.000	-0.001	0.212
-621.390	-200.000	0.006	-0.220
-620.376	800.000	-0.180	-0.511
-619.361	-26.991	-0.080	-0.047
-618.346	-200.000	-0.020	0.207
-617.332	389.769	0.166	-0.347
-616.317	-140.321	-0.296	-0.031
-615.303	6.638	-0.221	-0.165
-614.288	-200.000	0.001	-0.119
-613.273	-200.000	-0.057	-0.407
-612.259	387.579	0.081	0.169
-611.244	-37.847	0.472	0.253
-610.230	-133.609	-0.188	-0.024
-609.215	-136.194	0.235	0.028
-608.201	-200.000	-0.052	0.264
-607.186	108.557	0.260	0.313
-606.171	-37.816	-0.153	-0.082
-605.157	20.607	-0.186	-0.152
-604.142	800.000	0.153	0.465
-603.128	-200.000	-0.028	-0.198
-602.113	-155.473	-0.383	0.025
-601.098	307.608	0.107	0.200
-600.084	-23.447	0.331	-0.200
-599.069	-34.692	0.137	0.075
-598.055	521.469	-0.075	0.178
-597.040	89.357	-0.296	-0.332
-596.025	134.270	0.183	0.239
-595.011	319.135	-0.218	-0.416
-593.996	342.777	-0.035	-0.069
-592.982	800.000	-0.035	-0.107
-591.967	-133.685	0.136	0.017
-590.952	-200.000	-0.014	0.079
-589.938	-82.194	0.294	-0.097
-588.923	-181.109	-0.285	0.006
-587.909	154.663	-0.110	-0.153
-586.894	321.427	-0.117	-0.224
-585.879	76.681	-0.092	0.098
-584.865	-200.000	0.047	0.273
-583.850	-128.998	-0.354	0.050
-582.836	-200.000	0.000	0.169
-581.821	190.050	-0.180	0.271
-580.806	427.611	0.017	0.036
-579.792	10.890	0.179	-0.137
-578.777	-200.000	0.011	0.149
-577.763	-0.735	-0.186	0.133
-576.748	800.000	0.071	0.293
-575.733	364.555	-0.085	-0.171
-574.719	-117.453	0.084	-0.015
-573.704	800.000	-0.019	0.066
-572.690	-109.519	0.277	0.059
-571.675	-200.000	-0.057	-0.286
-570.661	-63.777	0.130	0.054
-569.646	131.548	0.285	0.369
-568.631	75.653	0.097	0.103
-567.617	424.870	-0.081	0.175
-566.602	-200.000	-0.003	-0.027
-565.588	-200.000	0.065	0.363
-564.573	-35.829	0.277	-0.151
-563.558	-187.653	-0.252	-0.003
-562.544	-200.000	-0.044	-0.313
-561.529	-40.086	-0.058	-0.031
-560.515	-90.146	0.073	-0.021
-559.500	-95.379	0.065	-0.018
-558.485	-200.000	-0.073	0.453
-557.471	-122.598	-0.102	-0.017
-556.456	332.659	0.082	-0.159
-555.442	72.635	0.169	-0.177
-554.427	473.436	-0.079	-0.179
-553.412	5.419	0.078	0.058
-552.398	155.224	-0.034	0.047
-551.383	12.443	0.298	-0.231
-550.369	800.000	-0.085	-0.270
-549.354	-153.467	0.156	0.011
-548.339	800.000	-0.092	-0.282
-547.325	134.364	-0.141	0.184
-546.310	-78.812	-0.309	-0.106
-545.296	-200.000	0.011	-0.204
-544.281	-145.847	-0.278	-0.025
-543.266	-119.798	0.180	0.031
-542.252	-200.000	-0.021	0.343
-541.237	86.520	-0.097	-0.107
-540.223	-77.479	-0.131	-0.046
-539.208	-200.000	-0.029	-0.443
-538.193	40.185	0.166	-0.150
-537.179	-52.078	-0.189	0.088
-536.164	340.692	0.123	-0.242
-535.150	-147.763	-0.359	-0.030
-534.135	519.370	-0.081	0.191
-533.121	135.506	-0.121	0.159
-532.106	-200.000	0.084	0.430
-531.091	347.790	0.087	-0.172
-530.077	-125.710	-0.159	-0.024
-529.062	91.805	-0.094	-0.106
-528.048	-163.227	-0.229	-0.011
-527.033	627.248	0.042	0.107
-526.018	490.002	-0.010	-0.024
-525.004	-200.000	-0.023	0.261
-523.989	-50.187	0.118	0.056
-522.975	800.000	-0.060	0.206
-521.960	-113.422	-0.140	-0.028
-520.945	800.000	-0.066	-0.241
-519.931	19.484	-0.197	0.159
-518.916	800.000	-0.081	0.262
-517.902	12.216	0.223	0.173
-516.887	-200.000	0.013	-0.222
-515.872	800.000	-0.045	-0.179
-514.858	170.852	0.180	-0.259
-513.843	-200.000	0.023	0.125
-512.829	-165.331	0.237	-0.010
-511.814	415.367	-0.090	0.193
-510.799	205.447	-0.084	-0.132
-509.785	-91.533	-0.207	-0.059
-508.770	-110.069	0.070	-0.015
-507.756	800.000	-0.039	-0.170
-506.741	-139.948	-0.318	0.034
-505.726	-200.000	0.045	-0.238
-504.712	330.635	-0.059	-0.114
-503.697	-89.848	-0.255	-0.075
-502.683	-149.193	0.337	-0.027
-501.668	800.000	-0.092	-0.376
-500.653	-86.250	0.191	0.059
-499.639	541.394	-0.128	-0.306
-498.624	74.827	-0.072	-0.076
-497.610	800.000	-0.012	0.047
-496.595	-200.000	0.029	-0.200
-495.581	-200.000	-0.019	0.166
-494.566	542.803	-0.076	-0.183
-493.551	800.000	0.081	0.268
-492.537	-6.823	-0.356	-0.243
-491.522	239.997	0.136	0.228
-490.508	50.148	-0.072	0.068
-489.493	591.592	-0.160	0.396
-488.478	800.000	-0.029	-0.121
-487.464	-11.742	-0.124	0.081
-486.449	-200.000	0.003	-0.286
-485.435	-200.000	-0.018	0.220
-484.420	-40.541	0.212	-0.110
-483.405	164.937	-0.108	-0.153
-482.391	-47.002	0.164	0.080
-481.376	407.756	-0.090	0.191
-480.362	99.299	-0.120	-0.139
-479.347	-127.307	0.175	0.026
-478.332	-175.158	-0.039	0.001
-477.318	-16.342	-0.019	0.012
-476.303	-32.506	-0.190	-0.106
-475.289	12.628	-0.151	-0.117
-474.274	4.060	-0.260	0.191
-473.259	-52.455	-0.156	-0.072
-472.245	800.000	0.050	-0.180
-471.230	204.022	-0.190	0.296
-470.216	-48.604	-0.258	0.124
-469.201	-200.000	-0.107	-0.472
-468.186	-77.926	0.282	0.097
-467.172	410.987	0.135	0.287
-466.157	128.172	0.101	-0.129
-465.143	-200.000	-0.012	0.165
-464.128	-97.622	0.138	-0.036
-463.113	-111.863	0.081	0.016
-462.099	-200.000	0.006	-0.145
-461.084	-23.450	0.210	-0.126
-460.070	-200.000	-0.026	0.214
-459.055	-149.001	-0.249	0.020
-458.040	234.601	-0.106	-0.175
-457.026	-97.084	0.129	-0.034
-456.011	-200.000	-0.014	0.260
-454.997	-171.249	0.120	-0.004
-453.982	234.136	-0.136	-0.225
-452.968	-25.318	0.080	-0.047
-451.953	-73.787	0.321	-0.117
-450.938	-200.000	0.428	-0.001
-449.924	800.000	0.080	0.223
-448.909	-163.906	-0.245	-0.011
-447.895	414.680	-0.065	0.139
-446.880	79.245	-0.132	0.142
-445.865	-87.243	-0.049	0.015
-444.851	-97.147	0.121	0.032
-443.836	800.000	-0.063	0.218
-442.822	23.121	0.081	-0.066
-441.807	731.168	0.065	0.175
-440.792	-74.691	0.064	-0.023
-439.778	-89.918	0.325	0.095
-438.763	755.574	-0.085	-0.230
-437.749	-41.490	-0.320	0.165
-436.734	-86.447	0.123	0.038
-435.719	-89.596	0.229	-0.067
-434.705	23.213	0.026	-0.021
-433.690	37.169	0.190	-0.169
-432.676	27.116	0.135	0.113
-431.661	-23.566	0.250	-0.150
-430.646	-49.640	0.285	-0.136
-429.632	93.406	-0.039	0.045
-428.617	-190.329	0.320	0.004
-427.603	230.795	0.102	0.167
-426.588	800.000	-0.068	-0.227
-425.573	364.647	0.122	-0.245
-424.559	687.281	0.057	0.149
-423.544	61.047	-0.244	-0.242
-422.530	-92.661	-0.199	0.056
-421.515	190.452	0.222	0.333
-420.500	282.083	0.153	-0.275
-419.486	-84.295	0.059	-0.019
-418.471	-157.079	0.307	-0.019
-417.457	-200.000	0.025	-0.124
-416.442	-30.223	0.432	0.245
-415.428	-31.851	0.206	-0.116
-414.413	391.896	0.069	-0.143
-413.398	155.260	-0.026	0.036
-412.384	477.245	-0.117	0.264
-411.369	-155.572	-0.208	0.013
-410.355	-50.862	0.265	0.124
-409.340	-97.152	-0.100	0.026
-408.325	800.000	-0.068	0.240
-407.311	-200.000	-0.033	-0.232
-406.296	-16.657	-0.268	0.170
-405.282	-200.000	-0.051	0.444
-404.267	134.255	-0.073	-0.094
-403.252	-167.864	-0.360	0.014
-402.238	90.057	-0.147	0.164
-401.223	21.476	0.062	0.050
-400.209	-24.883	0.221	-0.131
-399.194	800.000	-0.062	0.269
-398.179	93.441	-0.218	-0.247
-397.165	-64.985	0.307	-0.124
-396.150	-105.047	0.080	0.018
-395.136	-37.625	0.453	-0.241
-394.121	-25.080	-0.200	0.118
-393.106	-6.394	0.182	-0.124
-392.092	800.000	0.028	0.099
-391.077	-200.000	0.021	0.160
-390.063	800.000	-0.056	0.184
-389.048	53.666	0.091	-0.087
-388.033	-122.984	0.215	0.034
-387.019	119.114	-0.097	0.119
-386.004	-200.000	-0.024	0.142
-384.990	-85.200	-0.176	0.055
-383.975	-200.000	0.023	-0.192
-382.960	464.630	-0.054	0.121
-381.946	-130.262	0.285	0.039
-380.931	-139.937	-0.252	0.027
-379.917	465.671	0.048	0.108
-378.902	-200.000	-0.016	0.244
-377.888	-197.361	-0.157	0.001
-376.873	92.878	0.090	-0.102
-375.858	533.937	-0.023	0.056
-374.844	233.423	-0.106	0.174
-373.829	121.024	0.198	0.246
-372.815	109.093	0.052	0.062
-371.800	48.241	0.091	-0.085
-370.785	-17.975	0.139	0.087
-369.771	-50.273	0.079	-0.037
-368.756	-200.000	0.003	0.071
-367.742	800.000	-0.036	-0.126
-366.727	381.206	-0.058	0.119
-365.712	-88.049	0.200	-0.060
-364.698	-200.000	0.033	-0.294
-363.683	-40.327	0.297	-0.154
-362.669	-45.549	0.059	-0.029
-361.654	-142.976	0.205	-0.020
-360.639	64.016	-0.101	-0.102
-359.625	108.279	-0.135	-0.160
-358.610	-23.088	0.164	0.098
-357.596	800.000	-0.064	0.217
-356.581	-132.598	-0.134	0.017
-355.566	41.504	-0.492	0.444
-354.552	234.686	0.136	0.224
-353.537	-116.857	-0.512	0.094
-352.523	-169.146	-0.287	-0.011
-351.508	60.853	-0.056	-0.055
-350.493	24.528	-0.101	-0.084
-349.479	-108.781	0.254	0.054
-348.464	-77.519	0.051	-0.018
-347.450	28.294	0.164	0.138
-346.435	-111.775	-0.124	0.025
-345.420	-177.448	0.202	-0.005
-344.406	-156.977	-0.217	0.013
-343.391	27.537	-0.302	0.254
-342.377	258.272	0.175	0.301
-341.362	682.193	0.128	-0.334
-340.348	-200.000	0.092	-0.477
-339.333	301.372	-0.119	-0.220
-338.318	74.890	0.028	0.030
-337.304	707.535	0.097	-0.256
-336.289	52.860	0.135	0.129
-335.275	-2.185	0.304	0.213
-334.260	-2.533	-0.352	0.246
-333.245	-200.000	0.024	-0.122
-332.231	105.398	-0.118	-0.139
-331.216	-96.000	-0.116	-0.031
-330.202	800.000	0.048	0.177
-329.187	800.000	0.039	0.152
-328.172	65.755	0.264	0.266
-327.158	157.705	-0.233	0.322
-326.143	29.448	0.153	-0.130
-325.129	-200.000	0.064	-0.398
-324.114	-200.000	-0.020	0.470
-323.099	66.795	0.133	-0.134
-322.085	-56.775	-0.230	-0.101
-321.070	-9.112	0.119	-0.080
-320.056	-200.000	-0.029	-0.356
-319.041	233.493	0.103	0.169
-318.026	-200.000	-0.016	0.176
-317.012	-45.657	-0.161	-0.080
-315.997	97.492	-0.113	0.130
-314.983	-71.245	-0.293	0.109
-313.968	-48.915	0.208	-0.099
-312.953	213.468	-0.130	0.205
-311.939	-105.340	0.168	0.038
-310.924	800.000	-0.118	-0.397
-309.910	-49.316	0.241	0.115
-308.895	-179.533	-0.145	-0.003
-307.880	686.876	-0.093	-0.242
-306.866	289.013	0.089	0.161
-305.851	528.047	0.147	0.346
-304.837	-71.944	-0.163	-0.061
-303.822	-44.906	-0.253	0.126
-302.807	-91.833	0.142	-0.040
-301.793	800.000	0.055	-0.200
-300.778	212.930	-0.068	0.106
-299.764	339.180	-0.061	-0.118
-298.749	-78.788	-0.340	0.115
-297.735	800.000	0.031	0.134
-296.720	-36.038	0.312	0.168
-295.705	420.566	0.061	-0.131
-294.691	755.806	-0.038	0.103
-293.676	343.315	-0.094	-0.183
-292.662	30.730	-0.051	0.043
-291.647	322.406	-0.042	0.080
-290.632	108.202	-0.251	0.298
-289.618	-200.000	-0.004	0.129
-288.603	151.901	-0.289	0.392
-287.589	800.000	0.022	0.064
-286.574	-200.000	0.033	-0.264
-285.559	-60.812	0.262	0.110
-284.545	-76.026	-0.260	0.091
-283.530	-149.608	0.150	-0.012
-282.516	640.490	0.081	0.205
-281.501	-4.524	-0.098	0.067
-280.486	117.140	-0.160	0.195
-279.472	66.686	-0.240	-0.243
-278.457	-136.196	0.231	-0.027
-277.443	800.000	-0.046	-0.132
-276.428	-2.187	0.222	0.155
-275.413	523.096	0.073	-0.172
-274.399	69.347	0.203	0.208
-273.384	8.352	0.030	0.022
-272.370	-91.814	-0.172	-0.049
-271.355	10.385	0.184	-0.139
-270.340	209.860	0.079	-0.124
-269.326	-81.233	0.143	0.047
-268.311	-74.705	0.241	0.086
-267.297	-35.005	-0.383	-0.207
-266.282	408.197	-0.050	0.106
-265.267	-83.636	0.040	0.013
-264.253	387.695	0.048	-0.099
-263.238	-200.000	-0.075	0.331
-262.224	-142.958	-0.327	-0.031
-261.209	-135.096	-0.078	-0.009
-260.195	-120.708	0.193	-0.032
-259.180	-15.014	-0.204	-0.130
-258.165	-95.065	-0.354	0.095
-257.151	165.036	-0.189	-0.266
-256.136	-200.000	-0.018	0.126
-255.122	-4.618	0.098	0.067
-254.107	698.512	0.057	-0.149
-253.092	-108.389	-0.222	0.048
-252.078	800.000	0.020	0.069
-251.063	-120.035	0.193	-0.033
-250.049	-59.744	-0.140	-0.060
-249.034	-21.368	0.115	0.070
-248.019	244.571	0.109	0.182
-247.005	402.891	-0.095	-0.199
-245.990	538.453	0.057	0.134
-244.976	-81.455	0.117	-0.038
-243.961	27.399	0.278	0.233
-242.946	-82.132	-0.111	0.036
-241.932	-200.000	0.048	-0.224
-240.917	-61.026	-0.091	0.038
-239.903	-73.027	0.089	-0.033
-238.888	435.330	-0.063	0.136
-237.873	104.514	0.032	-0.038
-236.859	-200.000	-0.069	-0.350
-235.844	-107.548	-0.139	-0.030
-234.830	-16.907	-0.100	-0.063
-233.815	-200.000	0.006	0.193
-232.800	-149.373	-0.055	0.004
-231.786	-200.000	0.033	-0.311
-230.771	-200.000	-0.065	-0.318
-229.757	20.495	-0.137	0.110
-228.742	593.167	0.081	0.199
-227.727	-0.025	0.257	0.182
-226.713	-200.000	-0.077	0.000
-225.698	-36.934	0.117	0.062
-224.684	-200.000	-0.013	0.183
-223.669	-108.331	0.169	-0.036
-222.655	677.039	-0.043	0.110
-221.640	-79.158	-0.331	-0.112
-220.625	800.000	-0.080	0.309
-219.611	-126.982	0.134	0.020
-218.596	-180.387	-0.370	-0.008
-217.582	156.611	0.112	-0.153
-216.567	800.000	-0.035	-0.124
-215.552	-200.000	-0.039	-0.241
-214.538	-154.101	0.344	0.023
-213.523	515.271	-0.034	-0.080
-212.509	16.808	-0.143	-0.112
-211.494	-103.123	-0.463	0.109
-210.479	367.840	-0.079	-0.158
-209.465	96.537	-0.161	-0.183
-208.450	-24.424	0.176	0.104
-207.436	800.000	-0.046	-0.136
-206.421	12.356	-0.085	-0.065
-205.406	9.474	0.151	-0.114
-204.392	238.894	0.183	0.302
-203.377	-41.549	-0.208	0.106
-202.363	411.227	0.111	-0.233
-201.348	35.594	-0.226	0.197
-200.333	-160.377	0.452	-0.024
-199.319	-3.513	0.083	-0.057
-198.304	-200.000	0.008	0.105
-197.290	-17.704	0.206	-0.128
-196.275	-158.589	-0.120	0.007
-195.260	31.660	0.155	-0.133
-194.246	34.572	0.132	0.114
-193.231	-139.034	0.158	-0.017
-192.217	-55.837	-0.392	0.173
-191.202	-200.000	0.002	0.024
-190.187	-111.898	0.043	-0.009
-189.173	-200.000	-0.016	-0.118
-188.158	95.089	0.125	-0.142
-187.144	800.000	-0.084	0.242
-186.129	800.000	-0.037	0.104
-185.114	-97.357	0.123	0.032
-184.100	-118.730	0.346	0.060
-183.085	143.570	0.138	-0.182
-182.071	-200.000	0.015	-0.083
-181.056	-200.000	-0.004	0.157
-180.042	800.000	0.063	-0.240
-179.027	189.471	0.146	-0.217
-178.012	-41.193	-0.310	0.159
-176.998	8.946	0.266	-0.199
-175.983	-136.039	-0.079	0.009
-174.969	287.930	-0.107	0.192
-173.954	-100.048	0.101	-0.025
-172.939	217.700	-0.086	-0.137
-171.925	-8.594	0.176	0.117
-170.910	-200.000	0.006	0.062
-169.896	-157.092	0.281	0.017
-168.881	19.468	0.113	-0.090
-167.866	-200.000	-0.061	0.379
-166.852	363.633	-0.101	-0.201
-165.837	28.179	0.168	0.140
-164.823	-96.474	-0.160	-0.042
-163.808	109.390	-0.296	-0.351
-162.793	448.876	-0.039	-0.085
-161.779	-98.141	-0.170	-0.043
-160.764	48.626	0.110	-0.102
-159.750	-200.000	-0.028	-0.222
-158.735	-56.926	0.339	0.148
-157.720	-123.057	0.166	0.026
-156.706	138.776	-0.131	-0.171
-155.691	-133.023	0.276	0.035
-154.677	132.227	-0.129	0.164
-153.662	14.598	0.157	-0.121
-152.647	-81.893	-0.190	-0.062
-151.633	-200.000	0.023	-0.171
-150.618	-103.266	0.361	0.084
-149.604	-171.285	0.243	0.008
-148.589	-200.000	0.017	0.160
-147.574	-200.000	-0.002	-0.117
-146.560	93.496	-0.091	-0.102
-145.545	-200.000	-0.058	-0.346
-144.531	-200.000	0.010	-0.466
-143.516	-200.000	-0.025	-0.111
-142.502	-80.677	0.358	0.118
-141.487	261.174	0.059	-0.101
-140.472	-175.770	-0.320	-0.008
-139.458	-3.636	-0.154	-0.106
-138.443	185.214	0.042	-0.062
-137.429	144.961	-0.065	-0.086
-136.414	-52.253	0.339	-0.155
-135.399	-185.313	-0.045	-0.001
-134.385	-13.873	0.282	0.180
-133.370	260.753	0.114	-0.195
-132.356	-200.000	-0.033	-0.171
-131.341	402.075	0.131	-0.272
-130.326	800.000	-0.036	-0.100
-129.312	-101.399	0.306	0.074
-128.297	-115.132	0.174	0.033
-127.283	297.932	-0.127	0.231
-126.268	328.570	0.162	-0.307
-125.253	-5.783	0.265	-0.179
-124.239	-175.421	-0.273	0.007
-123.224	184.093	0.175	-0.255
-122.210	-44.854	0.257	-0.127
-121.195	-48.985	0.195	0.093
-120.180	452.886	0.102	0.223
-119.166	542.264	0.019	-0.045
-118.151	210.364	-0.111	-0.172
-117.137	261.080	-0.032	0.054
-116.122	-52.122	0.219	-0.100
-115.107	-200.000	0.022	0.202
-114.093	-21.695	-0.106	-0.064
-113.078	523.782	-0.075	-0.174
-112.064	592.312	0.040	-0.099
-111.049	168.264	0.079	-0.111
-110.034	549.084	0.062	-0.148
-109.020	-88.423	0.322	0.095
-108.005	778.705	0.007	-0.019
-106.991	127.809	-0.118	-0.149
-105.976	-47.875	0.090	0.043
-104.962	65.057	0.187	0.187
-103.947	130.685	-0.165	0.209
-102.932	-200.000	0.007	0.247
-101.918	-200.000	0.029	-0.154
-100.903	-32.455	-0.183	-0.101
-99.889	800.000	-0.070	-0.210
-98.874	-64.215	-0.160	-0.064
-97.859	24.986	0.131	-0.108
-96.845	-200.000	-0.005	-0.075
-95.830	-200.000	-0.173	0.001
-94.816	254.772	0.054	-0.091
-93.801	187.364	0.081	0.120
-92.786	-71.809	0.227	0.084
-91.772	596.181	0.153	0.373
-90.757	306.685	0.041	-0.076
-89.743	19.079	-0.160	-0.126
-88.728	193.877	-0.124	-0.185
-87.713	-38.748	0.445	-0.232
-86.699	22.324	-0.055	-0.044
-85.684	211.246	-0.045	0.070
-84.670	9.471	0.122	0.091
-83.655	325.673	0.204	0.386
-82.640	-51.214	0.285	-0.132
-81.626	139.916	0.120	-0.156
-80.611	548.885	-0.050	-0.117
-79.597	354.184	0.113	-0.221
-78.582	-149.117	0.242	0.019
-77.567	-200.000	0.007	0.234
-76.553	-200.000	-0.004	0.289
-75.538	80.182	-0.096	-0.102
-74.524	638.098	-0.036	0.089
-73.509	141.757	0.138	0.181
-72.494	-21.858	0.144	0.086
-71.480	288.721	0.054	-0.097
-70.465	-4.285	0.053	-0.036
-69.451	568.748	-0.035	-0.084
-68.436	-59.394	-0.190	-0.080
-67.422	58.863	0.261	-0.253
-66.407	165.119	-0.208	-0.289
-65.392	-154.677	-0.354	0.023
-64.378	264.432	-0.118	0.202
-63.363	249.058	0.272	0.455
-62.349	93.345	0.239	0.266
-61.334	110.629	-0.914	-1.084
-60.319	74.514	0.508	0.527
-59.305	-200.000	-0.232	-1.115
-58.290	354.036	0.478	0.936
-57.276	-200.000	0.382	1.663
-56.261	-200.000	111.818	613.459
-55.246	494.013	1531.941	3466.153
-54.232	170.843	2718.882	3841.583
-53.217	97.689	2339.932	2651.903
-52.203	34.301	2085.284	1793.448
-51.188	29.583	2001.805	1678.821
-50.173	28.154	1984.568	1651.410
-49.159	44.605	2043.652	1851.864
-48.144	44.381	2059.665	1864.240
-47.130	30.090	2017.360	1696.239
-46.115	27.823	2007.084	1666.859
-45.100	27.809	2003.806	1663.947
-44.086	27.693	2001.758	1661.118
-43.071	27.717	1998.986	1658.976
-42.057	27.632	1997.064	1656.538
-41.042	27.610	1995.733	1655.167
-40.027	27.825	1993.125	1654.891
-39.013	27.724	1991.640	1652.676
-37.998	27.738	1989.910	1651.300
-36.984	27.802	1988.116	1650.328
-35.969	27.857	1985.178	1648.324
-34.954	27.730	1984.312	1646.385
-33.940	27.769	1982.984	1645.576
-32.925	27.843	1980.666	1644.254
-31.911	27.818	1979.419	1642.923
-30.896	27.776	1977.606	1640.978
-29.881	27.827	1976.278	1640.271
-28.867	27.853	1974.829	1639.233
-27.852	27.875	1973.059	1637.899
-26.838	27.891	1971.214	1636.447
-25.823	27.889	1969.011	1634.537
-24.809	27.966	1967.506	1633.907
-23.794	27.869	1965.327	1631.165
-22.779	27.822	1963.770	1629.386
-21.765	27.836	1962.295	1628.223
-20.750	27.839	1960.339	1626.564
-19.736	27.775	1959.580	1625.300
-18.721	27.840	1957.505	1624.098
-17.706	27.905	1955.577	1623.011
-16.692	27.838	1954.071	1621.094
-15.677	27.842	1952.605	1619.855
-14.663	27.819	1951.448	1618.627
-13.648	27.819	1949.984	1617.346
-12.633	27.801	1949.109	1616.400
-11.619	27.931	1947.140	1615.848
-10.604	27.828	1946.045	1613.966
-9.590	27.892	1944.460	1613.154
-8.575	27.858	1942.783	1611.395
-7.560	27.848	1941.826	1610.452
-6.546	27.840	1940.753	1609.431
-5.531	27.829	1939.797	1608.474
-4.517	27.825	1938.297	1607.133
-3.502	27.920	1936.476	1606.393
-2.487	27.903	1935.805	1605.624
-1.473	27.840	1935.393	1604.665
-0.458	27.933	1930.226	1601.129
0.556	30.101	1911.514	1575.889
1.571	26.201	1893.394	1527.885
2.586	22.495	1916.672	1514.731
3.600	21.545	1952.289	1534.415
4.615	20.777	1945.827	1522.490
5.629	16.229	1843.555	1404.578
6.644	8.438	1728.218	1255.581
7.659	4.519	1693.501	1200.029
8.673	4.127	1690.494	1194.765
9.688	4.331	1688.798	1195.031
10.702	4.368	1687.478	1194.277
11.717	4.375	1684.084	1191.823
12.731	4.775	1683.344	1194.264
13.746	10.192	1696.952	1245.615
14.761	18.161	1713.807	1319.602
15.775	22.078	1720.819	1355.165
16.790	22.419	1720.051	1357.070
17.804	21.555	1717.331	1348.154
18.819	20.631	1713.791	1338.153
19.834	20.076	1710.816	1331.444
20.848	19.796	1710.353	1328.819
21.863	19.804	1709.229	1327.889
22.877	19.685	1707.387	1325.424
23.892	19.479	1706.278	1322.869
24.907	19.426	1705.421	1321.685
25.921	19.331	1704.429	1320.072
26.936	19.349	1702.579	1318.657
27.950	19.345	1702.423	1318.386
28.965	19.423	1701.840	1318.420
29.980	19.537	1700.806	1318.368
30.994	19.685	1699.517	1318.382
32.009	19.643	1699.481	1317.922
33.023	19.827	1698.250	1318.247
34.038	19.855	1697.423	1317.704
35.053	19.770	1696.336	1316.093
36.067	19.678	1694.914	1314.180
37.082	19.616	1693.467	1312.467
38.096	19.636	1692.665	1311.880
39.111	19.638	1692.373	1311.551
40.126	19.715	1691.396	1311.263
41.140	19.634	1690.842	1310.105
42.155	19.360	1689.147	1306.602
43.169	19.180	1686.970	1303.436
44.184	19.140	1685.299	1301.731
45.199	19.084	1684.171	1300.324
46.213	19.020	1683.312	1299.060
47.228	19.170	1682.647	1299.567
48.242	19.369	1681.431	1300.012
49.257	19.486	1681.101	1300.520
50.271	19.534	1679.238	1299.322
51.286	19.543	1678.299	1298.556
52.301	19.557	1676.645	1297.261
53.315	19.484	1675.424	1295.653
54.330	19.413	1673.540	1293.553
55.344	19.191	1672.502	1290.969
56.359	19.196	1670.297	1289.192
57.374	19.184	1669.680	1288.513
58.388	19.207	1668.085	1287.342
59.403	19.114	1667.221	1285.865
60.417	18.973	1665.442	1283.322
61.432	18.948	1664.798	1282.531
62.447	18.945	1663.555	1281.434
63.461	18.914	1662.065	1279.944
64.476	18.901	1660.991	1278.910
65.490	18.809	1660.370	1277.630
66.505	18.772	1658.944	1276.143
67.520	18.831	1657.631	1275.461
68.534	18.796	1656.799	1274.449
69.549	18.864	1655.762	1274.046
70.563	18.981	1654.478	1273.808
71.578	18.886	1653.361	1272.131
72.593	18.612	1652.503	1269.333
73.607	18.619	1650.818	1267.977
74.622	18.551	1650.013	1266.744
75.636	18.600	1649.003	1266.221
76.651	18.606	1648.408	1265.698
77.666	18.804	1646.999	1265.960
78.680	18.691	1646.799	1264.863
79.695	18.795	1645.956	1264.872
80.709	18.926	1645.240	1265.167
81.724	19.012	1643.603	1264.430
82.739	19.065	1643.782	1264.845
83.753	19.171	1642.471	1264.505
84.768	19.293	1641.639	1264.648
85.782	19.549	1641.265	1266.124
86.797	19.541	1641.399	1266.056
87.812	19.708	1640.238	1266.277
88.826	19.634	1638.896	1264.587
89.841	19.510	1637.661	1262.612
90.855	19.528	1636.553	1261.779
91.870	19.565	1635.751	1261.318
92.884	19.642	1635.221	1261.361
93.899	19.644	1634.334	1260.579
94.914	19.808	1632.656	1260.365
95.928	19.726	1631.705	1258.923
96.943	19.707	1630.330	1257.612
97.957	19.685	1628.727	1256.110
98.972	19.561	1627.347	1254.028
99.987	19.644	1625.642	1253.206
101.001	19.711	1623.223	1251.720
102.016	19.646	1622.161	1250.319
103.030	19.598	1621.219	1249.135
104.045	19.544	1620.200	1247.849
105.060	19.596	1618.636	1246.908
106.074	19.536	1617.000	1245.104
107.089	19.311	1614.582	1241.514
108.103	18.941	1613.415	1237.844
109.118	18.901	1611.592	1236.046
110.133	18.735	1610.432	1233.853
111.147	18.764	1609.255	1233.053
112.162	18.821	1608.063	1232.436
113.176	18.849	1606.826	1231.584
114.191	18.975	1604.837	1230.851
115.206	19.094	1603.909	1230.884
116.220	19.134	1602.741	1230.162
117.235	19.002	1601.477	1228.136
118.249	18.965	1600.634	1227.123
119.264	18.909	1598.757	1225.176
120.279	18.864	1597.409	1223.714
121.293	18.729	1596.117	1221.650
122.308	18.650	1594.772	1219.957
123.322	18.774	1592.452	1218.955
124.337	18.635	1590.953	1216.713
125.352	18.561	1589.786	1215.186
126.366	18.595	1588.733	1214.516
127.381	18.621	1587.668	1213.781
128.395	18.580	1586.716	1212.653
129.410	18.606	1584.994	1211.412
130.424	18.592	1583.984	1210.437
131.439	18.639	1582.881	1209.814
132.454	18.705	1581.732	1209.298
133.468	18.832	1580.616	1209.228
134.483	18.921	1579.031	1208.535
135.497	18.976	1577.258	1207.458
136.512	18.999	1575.999	1206.551
137.527	19.137	1574.346	1206.146
138.541	19.046	1573.603	1204.831
139.556	19.095	1572.299	1204.071
140.570	19.192	1571.063	1203.693
141.585	19.226	1569.911	1202.939
142.600	19.309	1568.837	1202.591
143.614	19.439	1567.970	1202.724
144.629	19.608	1566.757	1202.866
145.643	19.708	1565.253	1202.302
146.658	19.656	1564.083	1200.935
147.673	19.539	1562.538	1198.830
148.687	19.395	1561.302	1196.779
149.702	19.268	1559.356	1194.299
150.716	19.228	1557.177	1192.245
151.731	19.189	1555.886	1190.881
152.746	19.041	1555.004	1189.082
153.760	19.120	1553.208	1188.147
154.775	19.124	1552.089	1187.211
155.789	19.188	1551.482	1187.086
156.804	19.327	1550.204	1186.959
157.819	19.514	1548.725	1187.011
158.833	19.407	1548.132	1185.715
159.848	19.542	1546.775	1185.495
160.862	19.646	1546.085	1185.576
161.877	19.735	1544.280	1184.696
162.892	19.559	1542.808	1182.257
163.906	19.241	1541.802	1179.209
164.921	19.082	1540.439	1176.976
165.935	19.038	1538.935	1175.416
166.950	19.066	1537.866	1174.691
167.964	19.185	1536.815	1174.592
168.979	19.347	1536.217	1175.138
169.994	19.316	1534.669	1173.638
171.008	19.207	1533.744	1172.087
172.023	19.276	1532.291	1171.338
173.037	19.233	1531.065	1170.009
174.052	19.427	1530.730	1170.967
175.067	19.618	1529.699	1171.367
176.081	19.358	1528.703	1168.739
177.096	19.159	1526.747	1165.791
178.110	18.994	1525.275	1163.454
179.125	19.029	1524.263	1162.811
180.140	19.227	1522.868	1162.985
181.154	19.334	1522.102	1163.014
182.169	19.345	1521.476	1162.506
183.183	19.427	1520.428	1162.157
184.198	19.484	1519.348	1161.616
185.213	19.689	1517.936	1161.807
186.227	19.673	1517.269	1161.089
187.242	19.616	1516.188	1159.775
188.256	19.703	1514.748	1159.154
189.271	19.743	1514.214	1158.915
190.286	19.855	1513.184	1158.769
191.300	19.791	1512.300	1157.565
192.315	19.361	1510.512	1153.216
193.329	19.061	1508.833	1149.827
194.344	19.090	1507.950	1149.251
195.359	19.165	1507.131	1149.026
196.373	19.287	1506.024	1148.891
197.388	19.318	1504.809	1148.069
198.402	19.406	1504.121	1148.028
199.417	19.606	1503.210	1148.560
200.432	19.783	1502.449	1149.055
201.446	19.891	1501.974	1149.308
202.461	20.125	1500.767	1149.833
203.475	20.098	1499.872	1148.867
204.490	20.189	1499.124	1148.795
205.504	19.993	1497.257	1145.968
206.519	19.839	1496.293	1144.107
207.534	19.627	1495.172	1141.751
208.548	19.607	1493.895	1140.542
209.563	19.593	1492.846	1139.550
210.577	19.600	1491.720	1138.633
211.592	19.756	1490.736	1138.806
212.607	19.698	1490.319	1138.006
213.621	19.903	1490.009	1139.018
214.636	19.877	1489.220	1138.147
215.650	19.901	1487.980	1137.255
216.665	19.919	1486.512	1136.149
217.680	19.921	1486.407	1135.978
218.694	20.168	1485.632	1136.911
219.709	20.269	1484.533	1136.629
220.723	20.204	1483.999	1135.695
221.738	20.102	1482.671	1133.909
222.753	20.111	1481.802	1133.204
223.767	19.905	1480.872	1131.046
224.782	19.957	1479.997	1130.616
225.796	20.047	1479.278	1130.554
226.811	20.103	1478.732	1130.400
227.826	20.330	1477.695	1130.990
228.840	20.176	1476.946	1129.315
229.855	20.056	1475.488	1127.317
230.869	20.006	1474.228	1125.933
231.884	19.984	1472.969	1124.725
232.899	19.894	1471.958	1123.273
233.913	19.883	1470.581	1122.047
234.928	19.721	1469.342	1119.954
235.942	19.685	1468.294	1118.824
236.957	19.703	1466.821	1117.718
237.972	19.684	1465.755	1116.687
238.986	19.716	1464.732	1116.013
240.001	19.688	1463.962	1115.144
241.015	19.743	1462.579	1114.353
242.030	19.779	1461.677	1113.796
243.045	19.795	1461.072	1113.340
244.059	19.942	1460.304	1113.603
245.074	19.898	1459.540	1112.638
246.088	19.938	1458.899	1112.309
247.103	20.015	1458.290	1112.237
248.117	20.049	1457.950	1112.097
249.132	20.367	1456.748	1113.126
250.147	20.454	1456.188	1113.152
251.161	20.637	1455.721	1113.871
252.176	20.800	1455.423	1114.590
253.190	20.941	1454.804	1114.918
254.205	20.982	1453.664	1114.207
255.220	21.026	1452.981	1113.865
256.234	21.059	1452.348	1113.495
257.249	21.026	1451.703	1112.686
258.263	20.986	1450.281	1111.244
259.278	21.047	1449.363	1110.834
260.293	21.018	1448.515	1109.901
261.307	20.985	1447.690	1108.959
262.322	21.092	1447.064	1109.059
263.336	21.108	1446.327	1108.499
264.351	21.223	1445.308	1108.354
265.366	21.099	1444.958	1107.197
266.380	21.105	1443.584	1106.083
267.395	21.140	1442.804	1105.611
268.409	21.230	1441.262	1104.903
269.424	21.053	1440.398	1103.020
270.439	20.870	1439.415	1101.018
271.453	21.024	1437.885	1100.718
272.468	20.935	1437.127	1099.479
273.482	20.852	1436.503	1098.383
274.497	20.751	1435.470	1096.859
275.512	20.765	1434.627	1096.205
276.526	20.700	1433.933	1095.172
277.541	20.774	1432.840	1094.703
278.555	20.734	1432.105	1093.792
279.570	20.856	1430.961	1093.590
280.585	20.914	1430.541	1093.536
281.599	21.044	1429.980	1093.827
282.614	21.251	1429.230	1094.454
283.628	21.044	1428.130	1092.215
284.643	20.820	1426.581	1089.532
285.657	20.903	1425.544	1089.162
286.672	20.846	1424.647	1088.028
287.687	20.872	1423.569	1087.271
288.701	20.950	1422.637	1086.948
289.716	20.896	1422.101	1086.108
290.730	20.830	1421.239	1084.940
291.745	20.869	1420.014	1084.151
292.760	20.989	1419.191	1084.172
293.774	20.979	1418.221	1083.274
294.789	20.974	1417.640	1082.706
295.803	21.134	1416.662	1082.851
296.818	21.311	1415.228	1082.759
297.833	21.137	1414.600	1081.106
298.847	21.027	1413.681	1079.626
299.862	20.988	1412.071	1078.057
300.876	20.963	1411.655	1077.492
301.891	20.979	1410.767	1076.816
302.906	21.075	1410.285	1076.946
303.920	21.189	1409.739	1077.140
304.935	21.274	1409.456	1077.352
305.949	21.368	1408.484	1077.090
306.964	21.506	1407.620	1077.189
307.979	21.604	1406.309	1076.687
308.993	21.558	1405.107	1075.388
310.008	21.316	1404.703	1073.499
311.022	21.307	1403.697	1072.581
312.037	21.425	1402.122	1072.006
313.052	21.552	1401.176	1071.968
314.066	21.421	1400.245	1070.360
315.081	21.218	1399.122	1068.165
316.095	21.015	1398.026	1065.989
317.110	20.968	1396.703	1064.601
318.125	21.010	1395.566	1063.898
319.139	20.982	1394.654	1062.936
320.154	20.979	1393.843	1062.206
321.168	20.937	1393.131	1061.314
322.183	21.004	1391.892	1060.682
323.197	21.044	1390.821	1060.016
324.212	21.090	1390.184	1059.715
325.227	21.124	1389.196	1059.073
326.241	21.094	1388.776	1058.479
327.256	21.104	1387.986	1057.844
328.270	21.244	1386.998	1057.849
329.285	21.187	1385.846	1056.528
330.300	21.060	1384.810	1054.879
331.314	21.089	1383.957	1054.308
332.329	21.092	1383.296	1053.730
333.343	21.042	1382.498	1052.729
334.358	21.128	1381.390	1052.312
335.373	21.194	1380.733	1052.114
336.387	21.435	1380.055	1052.956
337.402	21.520	1379.252	1052.764
338.416	21.507	1378.436	1051.965
339.431	21.526	1378.494	1052.032
340.446	21.534	1377.872	1051.515
341.460	21.665	1376.676	1051.292
342.475	21.792	1375.737	1051.247
343.489	21.909	1375.158	1051.413
344.504	21.967	1374.314	1051.021
345.519	22.058	1373.420	1050.785
346.533	21.998	1372.748	1049.820
347.548	22.101	1371.488	1049.382
348.562	22.124	1371.101	1049.129
349.577	22.107	1370.261	1048.290
350.592	22.023	1369.060	1046.781
351.606	21.801	1367.636	1044.278
352.621	21.586	1366.729	1042.211
353.635	21.434	1365.375	1040.185
354.650	21.564	1364.107	1039.895
355.665	21.430	1363.508	1038.552
356.679	21.615	1362.501	1038.791
357.694	21.572	1361.474	1037.662
358.708	21.648	1360.871	1037.563
359.723	21.832	1359.213	1037.290
360.738	21.833	1358.676	1036.796
361.752	21.844	1357.468	1035.851
362.767	21.826	1356.271	1034.736
363.781	21.779	1355.411	1033.711
364.796	21.918	1354.775	1033.957
365.810	21.979	1354.130	1033.731
366.825	22.097	1353.720	1034.020
367.840	22.276	1353.313	1034.671
368.854	22.335	1352.688	1034.451
369.869	22.513	1351.869	1034.777
370.883	22.392	1351.890	1033.990
371.898	22.287	1351.087	1032.667
372.913	22.231	1349.750	1031.224
373.927	22.299	1348.080	1030.258
374.942	22.179	1347.765	1029.224
375.956	22.324	1347.097	1029.468
376.971	22.408	1346.565	1029.464
377.986	22.242	1345.478	1027.570
379.000	22.286	1344.473	1026.970
380.015	22.475	1343.842	1027.502
381.029	22.500	1343.433	1027.243
382.044	22.593	1342.360	1026.871
383.059	22.611	1342.050	1026.652
384.073	22.502	1341.326	1025.371
385.088	22.447	1340.912	1024.645
386.102	22.488	1340.196	1024.241
387.117	22.548	1339.054	1023.630
388.132	22.405	1338.449	1022.247
389.146	22.220	1337.122	1020.071
390.161	22.205	1336.248	1019.226
391.175	22.162	1335.161	1018.056
392.190	22.171	1334.370	1017.413
393.205	22.212	1333.688	1017.041
394.219	22.355	1332.989	1017.243
395.234	22.447	1332.086	1016.998
396.248	22.354	1330.495	1015.159
397.263	22.214	1329.026	1013.139
398.278	22.281	1327.648	1012.387
399.292	22.246	1326.225	1011.007
400.307	22.122	1325.116	1009.363
401.321	22.044	1324.274	1008.183
402.336	22.085	1322.938	1007.310
403.350	22.043	1321.973	1006.248
404.365	22.056	1320.896	1005.415
405.380	21.979	1320.341	1004.459
406.394	22.114	1319.390	1004.422
407.409	22.351	1318.737	1005.189
408.423	22.451	1318.310	1005.345
409.438	22.406	1318.160	1004.884
410.453	22.591	1317.161	1005.089
411.467	22.703	1316.458	1005.102
412.482	22.687	1316.254	1004.766
413.496	22.932	1315.110	1005.196
414.511	22.946	1314.217	1004.505
415.526	22.881	1314.228	1004.058
416.540	23.029	1313.478	1004.235
417.555	23.085	1312.974	1004.081
418.569	23.079	1312.531	1003.616
419.584	23.051	1311.754	1002.778
420.599	22.906	1311.156	1001.409
421.613	146.446	1435.387	1795.587
422.628	142.108	1453.435	1795.679
