DTS Sentinel unit serial number:	SN413079Multiplexer serial number:	ORYXHardware model number:	OX4-SRSoftware version number:	ORYX F/W v4.00 Oryx Data Collector v3.7.2.0data status	okinstallation	princeton_trtdifferential loss correction	single-endedforward channel	channel 4reverse channel	N/Adate	2019/09/12time	18:36:19forward acquisition time	15.00reverse acquisition time	0.00gamma	496.2192k internal	0.2306k external	0.2306temperature offset calibration	1.0141default loss term (dB/km)	0.3790temperature slope calibration	1.0000multiplexer offset coefficient	1.0000multiplexer slope coefficient	1.0000fibre end	0.00T internal ref (°C)	33.12T ext. ref 1 (°C)	3.00T ext. ref 2 (°C)	27.74length (m)	temperature (°C)	Stokes	anti-Stokes-747.200	-51.433	-0.484	0.230
-746.185	124.795	0.595	-0.762
-745.171	-61.190	0.610	-0.262
-744.156	11.225	-0.997	-0.776
-743.142	471.744	0.379	-0.869
-742.127	59.262	0.142	0.143
-741.112	134.553	-0.429	0.567
-740.098	-200.000	-0.120	0.673
-739.083	446.371	0.347	0.775
-738.069	-79.330	0.526	-0.181
-737.054	127.146	0.660	0.851
-736.039	-155.545	-1.042	-0.068
-735.025	-29.372	-0.404	0.235
-734.010	145.336	0.151	-0.205
-732.996	69.944	-0.372	-0.390
-731.981	800.000	0.237	-0.898
-730.966	-95.848	0.454	0.123
-729.952	-200.000	-0.101	-0.463
-728.937	176.905	0.337	0.498
-727.923	28.201	0.263	-0.226
-726.908	85.894	0.704	-0.787
-725.894	-148.760	0.212	-0.017
-724.879	8.559	-0.848	0.649
-723.864	-144.397	0.534	-0.050
-722.850	289.009	-0.510	0.939
-721.835	34.631	0.162	0.144
-720.821	-156.270	-0.728	0.046
-719.806	-39.303	-0.458	0.244
-718.791	-69.509	0.351	0.137
-717.777	-104.412	0.337	0.079
-716.762	-145.584	-0.529	-0.048
-715.748	-55.945	-0.344	-0.156
-714.733	-183.642	-0.505	0.009
-713.718	-200.000	-0.018	-0.519
-712.704	-110.567	-0.634	-0.133
-711.689	-62.839	0.203	-0.085
-710.675	-174.432	-1.142	-0.033
-709.660	-51.805	-0.471	-0.223
-708.645	-99.126	-0.825	0.212
-707.631	34.196	-0.187	0.165
-706.616	29.408	0.411	0.355
-705.602	225.521	-0.257	0.423
-704.587	210.336	0.195	-0.310
-703.572	-58.700	-0.877	-0.386
-702.558	-78.811	-0.018	-0.006
-701.543	-104.456	0.497	-0.117
-700.529	-0.064	-0.357	0.258
-699.514	46.818	0.495	-0.467
-698.499	-133.105	-0.319	0.041
-697.485	-164.457	1.010	-0.047
-696.470	172.857	0.409	-0.597
-695.456	654.875	-0.145	-0.378
-694.441	-97.568	-0.024	0.006
-693.426	-171.937	-0.489	-0.016
-692.412	-200.000	0.028	-0.447
-691.397	21.894	0.352	0.292
-690.383	-200.000	0.172	-0.980
-689.368	-200.000	0.030	-0.421
-688.354	-167.434	-0.585	-0.024
-687.339	112.112	0.545	-0.669
-686.324	508.398	-0.145	0.342
-685.310	-0.561	0.773	-0.557
-684.295	-200.000	-0.022	-0.110
-683.281	-200.000	0.047	0.677
-682.266	269.239	-0.136	0.243
-681.251	568.914	0.392	-0.966
-680.237	-200.000	-0.043	-0.518
-679.222	33.362	0.425	-0.374
-678.208	-22.158	0.632	0.389
-677.193	-106.609	0.396	0.089
-676.178	45.946	-0.398	-0.374
-675.164	-31.772	0.408	-0.232
-674.149	163.445	0.052	-0.074
-673.135	-153.501	-0.524	-0.037
-672.120	-73.163	0.666	0.248
-671.105	41.856	0.677	-0.623
-670.091	141.252	-0.250	0.336
-669.076	-120.145	0.385	0.067
-668.062	290.401	-0.136	0.251
-667.047	91.392	-0.156	-0.178
-666.032	-81.352	-0.791	0.265
-665.018	-156.380	-1.060	-0.067
-664.003	786.233	-0.422	-1.175
-662.989	-200.000	0.254	-1.206
-661.974	-200.000	0.058	-0.683
-660.959	348.197	0.126	0.251
-659.945	57.782	-0.579	-0.574
-658.930	-181.317	0.808	-0.016
-657.916	-122.335	0.098	0.016
-656.901	800.000	0.112	-0.434
-655.886	234.455	0.339	-0.567
-654.872	571.749	0.203	0.502
-653.857	-69.720	-0.540	0.209
-652.843	800.000	-0.040	0.151
-651.828	613.630	0.184	0.466
-650.814	233.173	0.324	0.540
-649.799	800.000	0.085	-0.359
-648.784	-24.878	0.319	0.192
-647.770	97.104	0.132	0.154
-646.755	117.242	-0.317	-0.394
-645.741	-0.584	0.165	0.118
-644.726	157.233	-0.148	-0.207
-643.711	46.561	-0.167	-0.157
-642.697	-200.000	-0.051	-0.639
-641.682	207.965	-0.128	0.202
-640.668	-62.216	0.351	-0.148
-639.653	28.628	-0.251	-0.215
-638.638	202.683	0.246	0.385
-637.624	18.745	0.493	-0.400
-636.609	88.476	-0.589	0.663
-635.595	98.965	-0.750	0.877
-634.580	2.030	0.070	-0.051
-633.565	652.758	0.242	-0.629
-632.551	771.018	0.360	0.994
-631.536	198.794	-0.260	0.403
-630.522	14.544	-0.288	-0.228
-629.507	-200.000	-0.058	-0.455
-628.492	-18.451	-0.881	0.557
-627.478	-108.566	-0.479	0.104
-626.463	-84.827	-0.432	0.137
-625.449	-66.268	0.389	-0.157
-624.434	800.000	0.073	0.301
-623.419	-200.000	-0.045	-0.259
-622.405	308.945	-0.402	0.761
-621.390	132.028	0.220	0.287
-620.376	-6.795	-0.405	-0.279
-619.361	185.033	-0.324	0.487
-618.346	-75.440	-0.617	0.223
-617.332	-200.000	-0.012	-0.358
-616.317	114.666	-0.285	0.352
-615.303	62.048	-0.293	-0.296
-614.288	-3.922	0.600	0.421
-613.273	190.380	0.233	-0.354
-612.259	42.664	-0.133	0.123
-611.244	-141.051	0.612	-0.063
-610.230	-57.512	0.301	0.134
-609.215	-200.000	0.035	-0.350
-608.201	276.947	0.253	-0.455
-607.186	-200.000	-0.137	0.808
-606.171	367.659	0.229	-0.468
-605.157	217.286	0.169	0.272
-604.142	-81.211	-0.494	0.165
-603.128	-92.388	0.887	-0.253
-602.113	-200.000	0.142	0.693
-601.098	-129.785	0.825	-0.115
-600.084	-107.012	0.628	0.140
-599.069	81.596	-0.621	-0.679
-598.055	63.763	-0.600	-0.609
-597.040	45.705	0.816	0.763
-596.025	800.000	-0.299	-1.040
-595.011	-200.000	-0.020	0.180
-593.996	264.577	0.375	-0.661
-592.982	800.000	0.267	1.062
-591.967	54.318	-0.514	0.500
-590.952	-200.000	0.082	-0.576
-589.938	145.790	0.421	-0.570
-588.923	-73.727	0.337	0.124
-587.909	259.618	-0.748	1.306
-586.894	47.901	-0.769	-0.727
-585.879	-135.760	0.741	-0.089
-584.865	609.804	0.106	-0.268
-583.850	-25.004	-0.578	-0.347
-582.836	-76.348	-0.150	-0.053
-581.821	-200.000	0.024	-0.619
-580.806	800.000	-0.124	-0.531
-579.792	53.158	-0.515	-0.499
-578.777	-114.544	-0.484	0.094
-577.763	5.665	0.679	-0.507
-576.748	-125.487	-0.527	0.081
-575.733	800.000	0.277	1.112
-574.719	-200.000	-0.027	0.800
-573.704	54.910	-0.704	-0.687
-572.690	-124.788	0.633	-0.099
-571.675	79.194	0.287	0.311
-570.661	800.000	0.047	0.192
-569.646	-16.674	0.125	-0.080
-568.631	-121.409	0.473	-0.080
-567.617	309.749	-0.273	0.516
-566.602	-144.036	1.094	0.104
-565.588	-82.873	0.400	-0.130
-564.573	81.415	0.531	-0.580
-563.558	800.000	-0.241	-0.797
-562.544	113.469	0.304	-0.372
-561.529	60.022	0.104	0.103
-560.515	-114.476	-0.262	0.051
-559.500	368.888	0.225	-0.459
-558.485	211.081	0.210	-0.333
-557.471	800.000	-0.037	-0.153
-556.456	16.447	-0.033	-0.027
-555.442	-112.160	-1.023	-0.207
-554.427	633.065	-0.165	0.423
-553.412	604.747	-0.379	-0.954
-552.398	-133.219	0.527	0.067
-551.383	603.338	-0.140	-0.351
-550.369	-200.000	-0.151	-0.851
-549.354	26.457	-0.465	0.393
-548.339	553.036	0.049	-0.120
-547.325	115.890	-0.323	-0.399
-546.310	-200.000	-0.007	0.264
-545.296	454.469	0.130	-0.291
-544.281	212.868	-0.438	0.698
-543.266	800.000	-0.159	-0.492
-542.252	68.913	-0.548	0.568
-541.237	127.386	-0.553	0.708
-540.223	216.446	0.656	1.053
-539.208	116.429	0.605	0.749
-538.193	-118.788	-0.413	-0.073
-537.179	-20.339	-0.782	-0.486
-536.164	-76.033	-0.547	-0.195
-535.150	-5.040	-0.404	0.281
-534.135	510.224	0.088	0.206
-533.121	324.633	0.680	-1.310
-532.106	-200.000	-0.021	-0.419
-531.091	-41.101	0.312	0.163
-530.077	460.871	-0.167	-0.375
-529.062	-129.732	-0.227	-0.032
-528.048	-200.000	-0.098	0.995
-527.033	475.694	-0.317	-0.723
-526.018	-130.822	0.821	-0.111
-525.004	-71.408	0.397	0.150
-523.989	-54.809	-0.327	-0.149
-522.975	-110.097	-0.629	0.132
-521.960	-166.159	0.759	0.032
-520.945	90.960	0.644	-0.728
-519.931	74.325	-0.290	-0.307
-518.916	-39.135	0.405	0.215
-517.902	-200.000	-0.076	-1.072
-516.887	15.200	0.755	0.596
-515.872	254.053	-0.182	0.315
-514.858	-200.000	0.090	0.569
-513.843	-81.361	-0.503	0.167
-512.829	165.520	-0.295	-0.420
-511.814	82.778	0.328	-0.359
-510.799	-28.406	-0.247	-0.144
-509.785	-168.507	1.113	0.043
-508.770	-102.931	0.319	0.076
-507.756	-74.132	-0.256	0.093
-506.741	420.430	-0.300	0.648
-505.726	107.975	0.083	0.099
-504.712	-42.197	-0.342	0.176
-503.697	800.000	-0.202	0.748
-502.683	-81.824	-0.468	0.154
-501.668	114.915	0.310	0.381
-500.653	31.831	0.211	-0.183
-499.639	107.873	0.825	-0.990
-498.624	-36.040	-0.370	0.202
-497.610	50.930	-0.277	-0.264
-496.595	-138.949	0.185	0.020
-495.581	683.157	-0.322	0.846
-494.566	-50.284	-0.556	0.265
-493.551	-61.207	-0.724	-0.307
-492.537	44.717	-0.162	-0.150
-491.522	69.973	-0.566	0.588
-490.508	-68.814	-0.081	0.031
-489.493	800.000	-0.230	0.754
-488.478	438.261	0.515	-1.132
-487.464	368.048	0.290	-0.590
-486.449	-200.000	-0.059	-0.760
-485.435	-158.795	0.377	0.022
-484.420	219.988	0.203	0.327
-483.405	-200.000	0.116	-0.587
-482.391	525.780	0.300	-0.712
-481.376	172.556	0.347	-0.503
-480.362	-116.949	0.536	0.099
-479.347	-82.932	0.449	0.146
-478.332	-63.979	0.628	-0.258
-477.318	3.066	0.543	-0.397
-476.303	270.676	0.380	-0.674
-475.289	-200.000	-0.001	0.086
-474.274	-156.762	-0.466	-0.029
-473.259	800.000	-0.140	0.469
-472.245	-124.725	-0.343	-0.053
-471.230	35.834	0.260	-0.230
-470.216	110.259	0.370	0.447
-469.201	393.624	-0.155	0.324
-468.186	-113.346	-0.257	0.051
-467.172	-42.118	0.596	-0.307
-466.157	-13.819	-0.418	0.272
-465.143	30.178	0.726	0.623
-464.128	56.399	-0.107	-0.104
-463.113	-70.820	-0.425	-0.161
-462.099	-46.401	-0.321	0.159
-461.084	-200.000	0.129	1.015
-460.070	309.175	-0.128	-0.241
-459.055	6.338	0.344	0.257
-458.040	200.107	-0.306	-0.472
-457.026	570.281	0.238	0.583
-456.011	-94.170	1.469	0.405
-454.997	71.368	-0.298	0.312
-453.982	-37.948	0.656	-0.351
-452.968	243.390	-0.291	0.490
-451.953	190.789	-0.251	0.379
-450.938	800.000	0.259	0.954
-449.924	192.278	-0.366	-0.555
-448.909	53.920	-0.475	-0.459
-447.895	-200.000	-0.021	0.206
-446.880	230.966	0.424	-0.698
-445.865	58.363	0.404	-0.399
-444.851	-200.000	0.071	-0.337
-443.836	149.260	0.398	0.542
-442.822	171.839	0.184	-0.266
-441.807	24.270	-0.262	0.218
-440.792	56.330	-0.589	-0.575
-439.778	277.585	0.057	-0.101
-438.763	-13.740	-0.192	-0.125
-437.749	-20.061	-0.656	0.407
-436.734	-45.819	0.617	0.307
-435.719	-200.000	0.012	0.965
-434.705	132.672	-0.334	-0.433
-433.690	-165.264	-0.803	-0.036
-432.676	395.174	-0.140	-0.293
-431.661	-106.062	0.419	0.095
-430.646	800.000	0.123	-0.497
-429.632	165.786	0.194	0.276
-428.617	-133.849	-0.568	-0.071
-427.603	-38.064	0.427	0.228
-426.588	-60.672	0.479	-0.204
-425.573	199.069	0.200	0.308
-424.559	-58.707	-0.472	0.205
-423.544	181.496	-0.269	-0.398
-422.530	800.000	-0.169	-0.689
-421.515	-200.000	-0.053	0.660
-420.500	454.607	-0.142	0.317
-419.486	-153.896	-0.164	0.011
-418.471	-200.000	-0.006	0.366
-417.457	741.853	-0.224	0.605
-416.442	-200.000	-0.020	0.141
-415.428	104.533	-0.265	0.313
-414.413	-54.194	-0.459	0.209
-413.398	691.260	-0.168	0.441
-412.384	-200.000	0.172	0.913
-411.369	119.626	0.469	0.583
-410.355	-1.811	-0.598	-0.422
-409.340	800.000	-0.152	-0.478
-408.325	194.389	0.369	0.562
-407.311	-61.958	0.628	-0.263
-406.296	800.000	-0.142	0.416
-405.282	211.047	-0.490	0.774
-404.267	-8.158	0.391	0.265
-403.252	800.000	0.099	-0.368
-402.238	-200.000	-0.025	0.249
-401.223	53.969	0.147	-0.142
-400.209	272.221	0.236	0.418
-399.194	314.932	-0.426	-0.806
-398.179	800.000	0.104	-0.372
-397.165	-146.625	0.788	-0.069
-396.150	-137.916	0.083	-0.009
-395.136	21.018	0.847	-0.690
-394.121	800.000	-0.370	-1.103
-393.106	344.859	0.080	-0.158
-392.092	53.344	0.248	-0.239
-391.077	800.000	-0.141	0.486
-390.063	245.403	-0.298	-0.503
-389.048	800.000	0.195	0.700
-388.033	-129.119	-0.671	0.094
-387.019	320.544	0.238	-0.454
-386.004	-200.000	0.129	0.569
-384.990	-44.256	0.631	0.317
-383.975	-200.000	-0.017	0.229
-382.960	74.983	0.173	-0.183
-381.946	-64.880	-0.485	0.197
-380.931	259.518	0.158	0.274
-379.917	-88.168	0.500	0.150
-378.902	-200.000	-0.179	-1.075
-377.888	-175.042	0.351	0.010
-376.873	675.313	0.251	0.654
-375.858	800.000	0.075	-0.252
-374.844	356.737	0.562	-1.123
-373.829	128.653	0.574	-0.733
-372.815	424.084	0.307	-0.661
-371.800	199.165	0.224	0.344
-370.785	-20.247	-0.114	0.071
-369.771	-123.927	0.334	0.053
-368.756	26.441	-0.475	0.398
-367.742	-10.058	-0.133	-0.089
-366.727	-16.319	-0.411	-0.262
-365.712	248.848	-0.559	-0.949
-364.698	721.703	-0.131	0.351
-363.683	-98.180	-0.758	-0.195
-362.669	-12.403	0.164	-0.107
-361.654	-99.433	-0.510	-0.129
-360.639	304.300	0.182	0.339
-359.625	800.000	-0.096	0.275
-358.610	-15.607	-0.676	0.432
-357.596	-59.992	-0.450	0.193
-356.581	-153.835	-0.409	-0.028
-355.566	101.042	0.153	0.178
-354.552	128.143	-0.182	-0.232
-353.537	-200.000	0.109	-0.659
-352.523	100.611	-0.855	-0.995
-351.508	-113.804	0.340	-0.066
-350.493	321.849	0.316	-0.602
-349.479	-200.000	0.005	-0.408
-348.464	-200.000	-0.094	0.806
-347.450	-87.810	-0.501	-0.151
-346.435	440.135	0.181	0.396
-345.420	-104.628	-0.477	-0.110
-344.406	-81.462	0.542	-0.179
-343.391	18.252	-0.333	-0.266
-342.377	89.814	0.824	0.921
-341.362	-17.492	-0.306	0.193
-340.348	158.774	-0.389	-0.541
-339.333	272.687	-0.512	-0.905
-338.318	282.843	-0.116	0.208
-337.304	-88.208	0.522	-0.156
-336.289	-148.651	-0.340	-0.028
-335.275	737.684	-0.201	-0.541
-334.260	-200.000	-0.014	-0.482
-333.245	136.905	-0.205	0.269
-332.231	-146.550	-0.893	-0.078
-331.216	-15.510	-0.380	-0.243
-330.202	800.000	-0.251	0.981
-329.187	-7.870	0.301	0.204
-328.172	37.362	0.396	0.351
-327.158	-14.249	-0.628	0.405
-326.143	800.000	-0.240	-0.702
-325.129	-103.781	0.839	-0.196
-324.114	51.380	-0.615	0.584
-323.099	-200.000	0.023	0.448
-322.085	25.515	0.329	0.274
-321.070	-80.714	-0.461	0.153
-320.056	-200.000	-0.019	-0.463
-319.041	-108.240	0.968	0.209
-318.026	-28.084	-0.228	-0.132
-317.012	-108.066	-0.475	0.103
-315.997	-123.201	0.776	-0.124
-314.983	-55.762	-0.230	0.103
-313.968	-21.018	0.558	-0.342
-312.953	-110.842	-0.844	0.174
-311.939	800.000	0.343	0.971
-310.924	26.473	0.165	-0.138
-309.910	-171.633	-1.161	0.038
-308.895	145.867	-0.239	-0.320
-307.880	83.612	1.045	-1.140
-306.866	57.541	-0.442	0.432
-305.851	454.168	-0.045	0.101
-304.837	-43.962	-0.458	0.230
-303.822	-200.000	-0.042	-0.638
-302.807	-42.737	0.539	0.274
-301.793	-180.132	0.454	0.010
-300.778	63.778	-0.383	-0.384
-299.764	-38.291	-0.450	-0.238
-298.749	-81.721	-0.221	0.072
-297.735	358.539	-0.371	0.740
-296.720	-117.932	0.168	-0.030
-295.705	-11.079	-0.178	0.118
-294.691	91.754	-0.274	0.308
-293.676	-82.461	-0.544	0.177
-292.662	-200.000	-0.047	-0.263
-291.647	-200.000	0.098	0.792
-290.632	49.314	-0.278	-0.261
-289.618	42.322	0.256	-0.233
-288.603	-54.996	0.654	0.295
-287.589	-88.086	-0.729	0.219
-286.574	350.426	-0.108	0.213
-285.559	10.723	-0.227	-0.173
-284.545	-151.301	-0.398	0.030
-283.530	41.140	0.126	-0.114
-282.516	800.000	-0.108	0.359
-281.501	61.713	-0.415	0.412
-280.486	-62.606	-0.820	0.340
-279.472	-62.130	0.698	0.291
-278.457	6.043	-0.082	0.060
-277.443	22.491	-0.400	-0.327
-276.428	800.000	-0.220	0.655
-275.413	11.772	0.264	-0.202
-274.399	-57.525	-0.745	0.327
-273.384	-200.000	0.014	-0.280
-272.370	-135.516	0.208	-0.025
-271.355	-74.718	0.491	-0.176
-270.340	-200.000	-0.013	0.176
-269.326	381.216	0.188	0.385
-268.311	212.286	-0.130	-0.205
-267.297	800.000	0.217	0.600
-266.282	-200.000	-0.084	-0.887
-265.267	800.000	0.137	-0.414
-264.253	-35.535	0.417	-0.226
-263.238	-38.701	0.349	-0.184
-262.224	388.110	0.128	0.265
-261.209	-116.821	-0.164	-0.030
-260.195	470.709	0.204	-0.457
-259.180	50.576	0.199	0.188
-258.165	-122.803	1.692	0.273
-257.151	48.050	0.520	-0.486
-256.136	9.809	0.767	0.580
-255.122	-35.435	0.727	0.394
-254.107	-200.000	0.015	0.479
-253.092	-200.000	-0.056	-0.477
-252.078	-150.136	0.449	0.035
-251.063	-19.225	0.354	-0.219
-250.049	-49.975	-0.769	0.364
-249.034	-200.000	0.098	0.612
-248.019	62.485	0.357	-0.356
-247.005	175.413	-0.340	0.491
-245.990	-200.000	0.165	1.020
-244.976	212.299	0.224	0.352
-243.961	-13.780	-0.146	0.094
-242.946	8.218	-0.135	-0.101
-241.932	416.041	0.041	0.088
-240.917	-200.000	0.149	-1.209
-239.903	-200.000	0.002	-0.800
-238.888	-200.000	-0.012	0.217
-237.873	323.953	-0.120	0.229
-236.859	-156.627	0.374	0.023
-235.844	-200.000	-0.052	-0.328
-234.830	-200.000	0.215	-0.999
-233.815	-162.043	-0.189	0.009
-232.800	-33.185	-0.668	0.369
-231.786	-200.000	0.069	-0.398
-230.771	-87.499	0.275	0.083
-229.757	-200.000	0.048	0.455
-228.742	240.820	-0.225	-0.374
-227.727	-200.000	0.047	-0.357
-226.713	-117.733	-0.789	0.141
-225.698	64.283	0.644	-0.647
-224.684	800.000	0.209	0.786
-223.669	-26.884	-0.636	-0.370
-222.655	-157.172	-0.775	-0.047
-221.640	-80.983	0.309	0.102
-220.625	-110.677	-0.931	-0.192
-219.611	725.802	-0.253	-0.672
-218.596	-36.517	-0.272	0.146
-217.582	800.000	0.128	-0.358
-216.567	-69.645	0.400	-0.153
-215.552	-51.825	0.583	-0.270
-214.538	-11.966	0.954	0.623
-213.523	-58.006	-0.513	0.223
-212.509	-49.642	0.908	0.430
-211.494	-200.000	0.114	0.656
-210.479	440.543	0.201	0.439
-209.465	-46.322	-0.594	0.291
-208.450	44.886	0.283	-0.259
-207.436	172.289	-0.239	0.342
-206.421	-200.000	-0.013	0.498
-205.406	152.944	0.273	0.371
-204.392	5.901	-0.306	-0.225
-203.377	31.482	-0.476	-0.407
-202.363	-33.007	-0.822	-0.454
-201.348	-200.000	-0.048	0.335
-200.333	198.402	-0.056	0.085
-199.319	-29.983	0.052	0.029
-198.304	10.675	0.502	0.381
-197.290	58.329	-0.540	-0.527
-196.275	317.489	-0.151	0.284
-195.260	-132.974	-0.405	-0.051
-194.246	-200.000	-0.099	-0.545
-193.231	800.000	0.143	-0.441
-192.217	-80.536	0.262	0.087
-191.202	-200.000	-0.052	0.298
-190.187	-58.242	0.256	-0.111
-189.173	-69.073	0.103	0.040
-188.158	-200.000	-0.164	1.075
-187.144	-38.099	-0.369	0.195
-186.129	59.768	-0.415	-0.407
-185.114	-200.000	-0.084	-0.587
-184.100	-40.567	0.505	-0.261
-183.085	-114.577	0.841	-0.160
-182.071	12.009	-0.304	0.233
-181.056	745.502	0.038	-0.101
-180.042	-200.000	0.047	0.407
-179.027	15.488	0.181	-0.141
-178.012	-91.202	0.216	-0.062
-176.998	785.702	0.096	-0.263
-175.983	-140.755	-0.335	0.034
-174.969	-81.177	0.922	0.303
-173.954	-116.323	0.125	-0.023
-172.939	253.101	-0.199	0.337
-171.925	5.363	-0.104	-0.076
-170.910	-143.602	-0.569	-0.054
-169.896	-173.937	0.172	0.005
-168.881	-26.743	0.175	0.102
-167.866	580.933	-0.255	-0.621
-166.852	15.083	0.328	-0.255
-165.837	-98.946	1.065	0.269
-164.823	800.000	-0.257	-0.805
-163.808	22.022	-0.389	-0.316
-162.793	800.000	0.056	0.225
-161.779	-200.000	-0.007	0.113
-160.764	-179.668	-0.105	0.002
-159.750	-6.319	0.241	-0.163
-158.735	-200.000	0.005	-0.371
-157.720	155.652	-0.345	0.473
-156.706	-23.720	-0.645	0.385
-155.691	-89.099	0.903	-0.265
-154.677	-200.000	-0.027	-0.130
-153.662	62.767	0.495	0.493
-152.647	187.076	0.613	0.908
-151.633	48.901	-0.318	-0.296
-150.618	88.747	-0.232	-0.256
-149.604	6.008	0.544	-0.400
-148.589	-96.923	-0.167	-0.044
-147.574	-47.510	-0.714	-0.345
-146.560	514.412	0.380	-0.880
-145.545	-200.000	-0.020	0.153
-144.531	-32.761	0.491	-0.271
-143.516	-200.000	0.040	-1.264
-142.502	-200.000	-0.033	0.253
-141.487	800.000	0.192	0.685
-140.472	113.705	0.436	-0.527
-139.458	51.633	-0.429	0.405
-138.443	800.000	0.260	0.807
-137.429	-149.507	0.102	0.008
-136.414	15.233	0.376	-0.293
-135.399	-47.108	-0.663	0.321
-134.385	63.162	0.087	-0.087
-133.370	800.000	-0.197	-0.626
-132.356	-120.679	1.127	0.189
-131.341	704.802	-0.270	-0.708
-130.326	-68.356	-0.461	-0.178
-129.312	-113.314	0.402	-0.078
-128.297	-198.009	0.439	0.003
-127.283	-92.040	0.749	-0.210
-126.268	-137.966	0.900	-0.100
-125.253	-105.553	-1.134	0.255
-124.239	-126.698	-0.030	0.004
-123.224	156.003	-0.042	0.058
-122.210	-200.000	-0.089	-0.795
-121.195	49.577	0.599	0.560
-120.180	-134.963	-0.410	0.049
-119.166	-90.509	-0.692	-0.199
-118.151	160.308	-0.591	-0.818
-117.137	344.877	0.136	0.265
-116.122	-120.130	0.423	-0.072
-115.107	653.436	0.178	-0.452
-114.093	-123.183	0.191	-0.030
-113.078	-51.018	-1.192	-0.555
-112.064	-27.612	-0.948	-0.546
-111.049	-121.589	0.770	-0.127
-110.034	800.000	0.155	0.555
-109.020	-90.754	0.216	0.062
-108.005	132.832	0.210	-0.268
-106.991	126.313	-0.430	-0.540
-105.976	-175.502	0.556	0.015
-104.962	65.503	0.271	-0.272
-103.947	16.466	-0.445	-0.349
-102.932	-104.358	-0.501	0.115
-101.918	507.948	-0.139	0.319
-100.903	-109.319	-0.373	-0.079
-99.889	366.981	0.332	-0.665
-98.874	-200.000	-0.086	-0.445
-97.859	563.352	0.066	-0.159
-96.845	800.000	-0.275	0.899
-95.830	49.557	0.380	0.355
-94.816	5.239	0.769	0.562
-93.801	-88.289	-0.400	-0.119
-92.786	239.032	0.175	-0.289
-91.772	-154.034	0.805	0.054
-90.757	-48.196	0.453	-0.217
-89.743	-114.788	0.616	0.117
-88.728	10.381	0.649	-0.490
-87.713	-98.957	-0.604	-0.152
-86.699	-200.000	0.064	0.431
-85.684	-54.145	-0.674	0.304
-84.670	31.055	0.174	-0.148
-83.655	29.376	-0.770	-0.649
-82.640	546.304	0.076	0.180
-81.626	42.037	0.414	-0.373
-80.611	-97.565	0.640	-0.165
-79.597	-72.767	-0.506	0.185
-78.582	-122.423	0.286	0.046
-77.567	800.000	0.121	0.491
-76.553	-28.810	-0.113	-0.065
-75.538	89.666	0.596	-0.660
-74.524	98.279	-0.351	-0.401
-73.509	36.157	0.213	0.186
-72.494	193.767	0.516	0.774
-71.480	406.137	-0.132	0.276
-70.465	-28.852	-0.279	-0.159
-69.451	-62.747	0.444	0.182
-68.436	-22.322	0.407	0.244
-67.422	-200.000	-0.057	0.649
-66.407	-200.000	-0.024	-0.848
-65.392	164.375	-0.036	0.051
-64.378	800.000	0.104	-0.445
-63.363	-8.718	-0.295	0.196
-62.349	334.491	0.568	-1.090
-61.334	245.706	-0.884	-1.473
-60.319	-18.384	1.009	0.624
-59.305	800.000	-0.472	-1.482
-58.290	800.000	0.237	0.918
-57.276	-200.000	0.185	0.952
-56.261	-200.000	95.857	569.929
-55.246	629.488	1368.304	3425.930
-54.232	197.203	2542.086	3840.094
-53.217	107.465	2287.024	2693.889
-52.203	39.383	2048.447	1816.253
-51.188	34.985	1963.685	1702.019
-50.173	33.341	1945.355	1671.558
-49.159	48.609	1997.936	1853.754
-48.144	49.596	2014.710	1878.077
-47.130	35.399	1977.045	1717.025
-46.115	32.943	1967.358	1686.639
-45.100	33.042	1962.302	1683.118
-44.086	32.914	1961.887	1681.560
-43.071	32.975	1958.326	1678.987
-42.057	32.908	1956.272	1676.562
-41.042	32.981	1953.864	1675.078
-40.027	32.771	1952.446	1671.933
-39.013	32.985	1950.275	1671.905
-37.998	33.103	1947.875	1670.820
-36.984	33.169	1946.738	1670.365
-35.969	33.031	1943.697	1666.468
-34.954	33.095	1943.506	1666.805
-33.940	33.191	1941.102	1665.527
-32.925	33.015	1941.301	1664.080
-31.911	33.040	1938.024	1661.421
-30.896	33.094	1937.107	1661.042
-29.881	33.098	1935.236	1659.409
-28.867	32.986	1935.076	1658.223
-27.852	33.269	1931.729	1657.765
-26.838	33.232	1929.609	1655.564
-25.823	33.146	1928.662	1653.927
-24.809	33.236	1926.696	1652.969
-23.794	33.169	1924.370	1650.319
-22.779	33.182	1922.600	1648.849
-21.765	33.044	1921.781	1646.878
-20.750	33.174	1918.965	1645.533
-19.736	33.100	1917.685	1643.726
-18.721	33.089	1916.910	1642.898
-17.706	33.148	1915.530	1642.167
-16.692	33.259	1912.439	1640.409
-15.677	32.989	1912.167	1637.775
-14.663	33.182	1910.255	1637.742
-13.648	33.198	1908.791	1636.561
-12.633	33.252	1908.195	1636.455
-11.619	33.104	1907.756	1634.733
-10.604	33.240	1904.511	1633.061
-9.590	33.219	1904.214	1632.560
-8.575	33.191	1902.828	1631.063
-7.560	33.204	1900.935	1629.491
-6.546	32.994	1900.227	1627.006
-5.531	33.074	1899.665	1627.152
-4.517	33.102	1896.996	1625.042
-3.502	32.975	1896.976	1623.863
-2.487	33.041	1895.442	1623.056
-1.473	32.910	1895.098	1621.573
-0.458	33.119	1890.788	1619.614
0.556	34.028	1870.099	1589.610
1.571	29.857	1849.904	1537.727
2.586	25.644	1871.547	1520.072
3.600	24.454	1907.159	1538.611
4.615	23.745	1901.317	1527.664
5.629	18.357	1800.441	1402.483
6.644	8.600	1682.130	1235.208
7.659	3.393	1644.526	1168.098
8.673	2.988	1641.474	1162.768
9.688	2.967	1638.858	1160.650
10.702	3.133	1638.318	1161.417
11.717	2.912	1634.379	1156.859
12.731	3.313	1634.927	1160.165
13.746	9.947	1649.827	1220.919
14.761	19.741	1673.494	1313.080
15.775	24.863	1679.130	1356.305
16.790	25.678	1679.736	1362.851
17.804	25.802	1679.568	1363.534
18.819	25.647	1679.352	1362.068
19.834	26.038	1677.701	1363.560
20.848	25.967	1678.551	1363.596
21.863	26.111	1677.267	1363.522
22.877	26.054	1676.070	1361.996
23.892	26.260	1674.811	1362.408
24.907	26.197	1673.911	1361.079
25.921	26.287	1672.270	1360.303
26.936	25.952	1672.945	1358.207
27.950	26.011	1671.411	1357.286
28.965	26.059	1670.404	1356.705
29.980	25.970	1671.243	1356.603
30.994	26.026	1668.769	1354.895
32.009	26.125	1667.072	1354.136
33.023	26.227	1667.706	1355.297
34.038	26.023	1666.424	1352.609
35.053	26.296	1664.505	1352.975
36.067	26.397	1663.599	1352.876
37.082	26.193	1662.523	1350.351
38.096	26.116	1661.778	1349.055
39.111	26.386	1659.952	1349.466
40.126	26.364	1660.253	1349.425
41.140	26.100	1659.790	1346.959
42.155	26.270	1658.715	1347.240
43.169	26.005	1658.191	1344.714
44.184	26.214	1655.568	1344.025
45.199	26.202	1655.345	1343.639
46.213	26.160	1654.138	1342.228
47.228	26.427	1652.252	1342.560
48.242	26.205	1651.602	1340.266
49.257	26.232	1649.676	1338.785
50.271	26.418	1648.357	1338.974
51.286	26.324	1647.839	1337.741
52.301	26.292	1646.335	1336.164
53.315	26.461	1644.244	1335.594
54.330	26.088	1644.553	1332.974
55.344	26.276	1642.638	1332.687
56.359	26.263	1640.573	1330.797
57.374	26.189	1640.482	1330.066
58.388	26.169	1640.437	1329.764
59.403	26.393	1637.583	1328.979
60.417	26.319	1636.979	1327.828
61.432	26.122	1636.327	1325.731
62.447	26.368	1635.416	1326.680
63.461	26.191	1634.270	1324.336
64.476	26.380	1632.775	1324.392
65.490	26.466	1631.256	1323.673
66.505	26.335	1631.380	1322.695
67.520	26.302	1629.774	1321.035
68.534	26.509	1628.622	1321.502
69.549	26.235	1628.192	1319.035
70.563	26.243	1626.597	1317.680
71.578	26.501	1625.233	1318.344
72.593	26.495	1624.147	1317.302
73.607	26.371	1623.440	1315.708
74.622	26.712	1622.123	1317.001
75.636	26.432	1622.021	1314.766
76.651	26.472	1621.045	1314.149
77.666	26.643	1619.602	1314.104
78.680	26.345	1620.610	1312.646
79.695	26.527	1618.166	1311.868
80.709	26.622	1617.300	1311.741
81.724	26.499	1615.639	1309.384
82.739	26.455	1615.724	1309.017
83.753	26.441	1615.225	1308.399
84.768	26.530	1613.002	1307.121
85.782	26.425	1612.210	1305.611
86.797	26.306	1611.241	1303.852
87.812	26.406	1610.067	1303.504
88.826	26.559	1608.743	1303.421
89.841	26.499	1608.681	1302.819
90.855	26.724	1606.508	1302.567
91.870	26.544	1607.147	1301.677
92.884	26.496	1605.224	1299.655
93.899	26.406	1605.225	1298.893
94.914	26.613	1602.992	1298.458
95.928	26.391	1601.487	1295.531
96.943	26.684	1599.849	1296.194
97.957	26.622	1599.737	1295.543
98.972	26.553	1597.308	1292.965
99.987	26.464	1597.006	1291.972
101.001	26.414	1595.764	1290.498
102.016	26.327	1594.460	1288.710
103.030	26.259	1592.009	1286.131
104.045	26.551	1591.180	1287.424
105.060	26.578	1589.449	1286.098
106.074	26.320	1588.336	1283.255
107.089	26.429	1586.922	1282.767
108.103	26.554	1585.810	1282.645
109.118	26.487	1584.775	1281.218
110.133	26.577	1583.320	1280.565
111.147	26.475	1582.248	1278.867
112.162	26.556	1580.709	1278.076
113.176	26.762	1579.004	1278.040
114.191	26.646	1577.773	1276.118
115.206	26.563	1576.975	1274.773
116.220	26.698	1575.189	1274.162
117.235	26.882	1574.346	1274.662
118.249	26.537	1573.807	1271.690
119.264	26.510	1573.028	1270.758
120.279	26.611	1570.865	1269.609
121.293	26.766	1569.594	1269.549
122.308	26.767	1568.437	1268.514
123.322	26.657	1566.851	1266.348
124.337	26.554	1565.545	1264.463
125.352	26.775	1564.938	1265.404
126.366	26.702	1563.963	1263.994
127.381	26.553	1563.123	1262.164
128.395	26.763	1561.576	1262.267
129.410	26.748	1560.838	1261.453
130.424	26.591	1559.682	1259.313
131.439	26.614	1559.000	1258.811
132.454	26.447	1557.522	1256.348
133.468	26.563	1556.461	1256.181
134.483	26.524	1554.885	1254.532
135.497	26.667	1553.706	1254.457
136.512	26.821	1551.438	1253.585
137.527	26.605	1551.047	1251.665
138.541	26.677	1548.992	1250.387
139.556	26.713	1548.322	1249.984
140.570	26.901	1547.381	1250.412
141.585	26.680	1546.041	1247.697
142.600	26.701	1544.878	1246.796
143.614	26.849	1543.457	1246.554
144.629	26.628	1543.402	1244.877
145.643	26.624	1542.031	1243.633
146.658	26.583	1540.833	1242.276
147.673	26.635	1539.398	1241.365
148.687	26.580	1538.520	1240.173
149.702	26.803	1535.916	1239.486
150.716	26.796	1535.177	1238.738
151.731	26.636	1535.470	1237.772
152.746	26.908	1532.518	1237.133
153.760	26.765	1531.906	1235.559
154.775	26.588	1531.329	1233.776
155.789	26.734	1530.654	1234.120
156.804	26.980	1528.618	1234.041
157.819	26.931	1527.542	1232.730
158.833	26.626	1527.399	1230.433
159.848	26.779	1526.186	1230.385
160.862	26.709	1525.506	1229.251
161.877	26.583	1524.387	1227.387
162.892	26.777	1522.913	1227.407
163.906	26.824	1521.032	1226.101
164.921	26.867	1520.422	1225.792
165.935	26.796	1519.805	1224.705
166.950	26.523	1520.631	1223.418
167.964	27.000	1518.259	1224.619
168.979	26.622	1517.821	1221.610
169.994	26.951	1516.206	1222.414
171.008	27.169	1514.482	1222.385
172.023	26.871	1514.749	1220.485
173.037	26.792	1513.237	1218.630
174.052	26.816	1512.133	1217.793
175.067	26.995	1510.920	1217.912
176.081	26.824	1510.204	1216.078
177.096	26.835	1509.764	1215.689
178.110	27.039	1508.114	1215.617
179.125	26.860	1507.872	1214.120
180.140	26.814	1506.537	1212.628
181.154	26.757	1506.856	1212.395
182.169	26.871	1504.922	1211.495
183.183	27.000	1503.619	1211.202
184.198	26.965	1502.041	1209.585
185.213	26.595	1502.969	1207.760
186.227	26.724	1501.259	1207.138
187.242	27.088	1500.023	1208.457
188.256	27.085	1498.725	1207.290
189.271	27.040	1498.437	1206.647
190.286	26.665	1498.904	1204.429
191.300	27.005	1496.351	1204.525
192.315	26.980	1496.182	1204.114
193.329	27.066	1495.225	1203.810
194.344	27.159	1494.154	1203.459
195.359	26.944	1493.240	1201.190
196.373	27.060	1492.336	1201.125
197.388	27.058	1491.460	1200.298
198.402	27.100	1489.763	1199.103
199.417	27.233	1488.832	1199.125
200.432	26.925	1489.586	1197.595
201.446	26.940	1489.026	1197.141
202.461	26.938	1487.528	1195.817
203.475	26.838	1486.674	1194.363
204.490	27.081	1484.878	1194.413
205.504	26.911	1485.067	1193.341
206.519	27.029	1482.913	1192.283
207.534	27.196	1481.918	1192.469
208.548	27.042	1481.631	1191.122
209.563	26.812	1482.011	1189.816
210.577	27.105	1480.280	1190.241
211.592	26.680	1480.253	1187.330
212.607	26.860	1478.692	1187.150
213.621	27.116	1478.923	1188.906
214.636	26.986	1478.064	1187.260
215.650	26.970	1477.338	1186.468
216.665	27.006	1475.658	1185.250
217.680	26.994	1474.971	1184.514
218.694	27.128	1474.823	1185.163
219.709	27.256	1473.381	1184.731
220.723	27.111	1472.234	1182.760
221.738	27.137	1471.899	1182.558
222.753	26.867	1471.499	1180.374
223.767	26.948	1470.417	1179.929
224.782	26.907	1469.362	1178.713
225.796	27.050	1468.312	1178.692
226.811	27.249	1466.902	1178.747
227.826	27.085	1466.809	1177.503
228.840	27.025	1465.826	1176.224
229.855	27.245	1464.676	1176.622
230.869	27.096	1464.301	1175.253
231.884	27.249	1463.865	1175.785
232.899	26.995	1463.418	1173.679
233.913	27.254	1461.750	1173.910
234.928	27.065	1461.145	1172.100
235.942	27.317	1458.540	1171.535
236.957	27.214	1457.496	1169.929
237.972	27.398	1456.644	1170.325
238.986	27.127	1455.363	1167.452
240.001	27.182	1455.683	1167.957
241.015	27.329	1454.496	1167.847
242.030	27.154	1453.728	1166.001
243.045	27.102	1452.753	1164.782
244.059	27.413	1451.227	1165.450
245.074	27.173	1451.457	1163.991
246.088	27.242	1450.682	1163.707
247.103	27.232	1449.343	1162.471
248.117	27.223	1449.557	1162.482
249.132	27.407	1447.616	1161.994
250.147	27.066	1447.316	1159.477
251.161	27.257	1445.806	1159.382
252.176	27.311	1446.441	1160.128
253.190	27.135	1446.240	1158.747
254.205	27.332	1443.945	1158.060
255.220	27.201	1443.832	1157.030
256.234	27.375	1442.078	1156.627
257.249	27.240	1441.363	1155.097
258.263	27.276	1442.354	1156.019
259.278	27.201	1441.369	1154.645
260.293	27.389	1439.944	1154.597
261.307	27.289	1439.337	1153.377
262.322	27.309	1438.906	1153.053
263.336	27.292	1437.483	1151.707
264.351	27.477	1436.566	1152.034
265.366	27.537	1434.728	1150.843
266.380	27.418	1434.669	1149.938
267.395	27.363	1433.944	1148.908
268.409	27.265	1433.014	1147.447
269.424	27.741	1431.066	1148.782
270.439	27.316	1431.241	1146.144
271.453	27.341	1429.742	1145.002
272.468	27.459	1429.602	1145.530
273.482	27.221	1428.658	1143.173
274.497	27.219	1427.382	1142.037
275.512	27.313	1426.872	1142.118
276.526	27.240	1426.108	1140.950
277.541	27.305	1425.793	1141.007
278.555	27.510	1424.604	1141.236
279.570	27.346	1424.428	1139.969
280.585	27.270	1422.234	1137.636
281.599	27.332	1421.987	1137.726
282.614	27.177	1421.890	1136.574
283.628	27.317	1420.228	1136.022
284.643	27.557	1418.945	1136.394
285.657	27.333	1418.706	1134.702
286.672	27.318	1417.747	1133.741
287.687	27.464	1417.263	1134.161
288.701	27.563	1415.351	1133.147
289.716	27.519	1414.568	1132.150
290.730	27.258	1414.466	1130.344
291.745	27.388	1412.892	1129.794
292.760	27.427	1411.835	1129.090
293.774	27.340	1412.043	1128.619
294.789	27.321	1411.170	1127.703
295.803	27.382	1409.919	1126.981
296.818	27.328	1409.388	1126.125
297.833	27.397	1408.642	1125.850
298.847	27.375	1407.447	1124.661
299.862	27.463	1406.561	1124.399
300.876	27.561	1405.631	1124.159
301.891	27.411	1404.912	1122.562
302.906	27.245	1404.877	1121.410
303.920	27.378	1403.952	1121.395
304.935	27.473	1403.592	1121.593
305.949	27.224	1403.209	1119.654
306.964	27.342	1401.476	1118.897
307.979	27.634	1400.050	1119.449
308.993	27.427	1399.744	1117.839
310.008	27.427	1398.999	1117.143
311.022	27.478	1397.036	1115.787
312.037	27.504	1395.635	1114.732
313.052	27.580	1396.097	1115.465
314.066	27.496	1395.448	1114.333
315.081	27.302	1394.223	1112.070
316.095	27.534	1393.127	1112.517
317.110	27.278	1393.002	1110.752
318.125	27.491	1391.682	1110.906
319.139	27.425	1390.652	1109.578
320.154	27.630	1389.375	1109.714
321.168	27.416	1388.789	1107.845
322.183	27.462	1387.859	1107.282
323.197	27.476	1387.030	1106.612
324.212	27.515	1385.899	1105.847
325.227	27.540	1386.023	1105.997
326.241	27.395	1385.488	1104.595
327.256	27.327	1384.680	1103.441
328.270	27.316	1383.088	1102.008
329.285	27.388	1382.248	1101.677
330.300	27.584	1380.655	1101.491
331.314	27.683	1379.893	1101.383
332.329	27.645	1379.185	1100.495
333.343	27.442	1379.013	1099.034
334.358	27.389	1377.965	1097.780
335.373	27.590	1377.444	1098.483
336.387	27.809	1376.229	1098.731
337.402	27.539	1375.370	1096.327
338.416	27.418	1375.663	1095.731
339.431	27.540	1374.635	1095.552
340.446	27.416	1374.748	1094.802
341.460	27.476	1373.778	1094.291
342.475	27.384	1372.319	1092.481
343.489	27.471	1371.176	1091.996
344.504	27.509	1370.273	1091.407
345.519	27.434	1370.136	1090.750
346.533	27.441	1368.405	1089.322
347.548	27.538	1368.729	1090.061
348.562	27.290	1368.051	1087.939
349.577	27.278	1367.061	1086.985
350.592	27.623	1364.780	1087.135
351.606	27.614	1364.309	1086.607
352.621	27.429	1364.673	1085.702
353.635	27.478	1362.916	1084.498
354.650	27.317	1361.435	1082.265
355.665	27.454	1360.203	1082.007
356.679	27.646	1360.101	1082.969
357.694	27.302	1358.955	1079.919
358.708	27.216	1358.631	1079.055
359.723	27.464	1357.397	1079.447
360.738	27.453	1355.557	1077.826
361.752	27.516	1355.204	1077.823
362.767	27.538	1354.033	1076.926
363.781	27.491	1352.669	1075.469
364.796	27.549	1352.172	1075.318
365.810	27.658	1351.238	1075.122
366.825	27.533	1350.514	1073.718
367.840	27.615	1350.077	1073.757
368.854	27.374	1349.807	1072.031
369.869	27.344	1348.852	1070.997
370.883	27.466	1347.619	1070.641
371.898	27.361	1347.471	1069.815
372.913	27.417	1346.981	1069.657
373.927	27.590	1345.413	1069.334
374.942	27.426	1345.222	1068.128
375.956	27.470	1343.355	1066.807
376.971	27.470	1342.723	1066.211
377.986	27.296	1342.686	1065.065
379.000	27.411	1341.996	1065.098
380.015	27.421	1341.454	1064.630
381.029	27.461	1340.815	1064.265
382.044	27.443	1340.171	1063.553
383.059	27.670	1337.973	1063.041
384.073	27.258	1338.760	1061.165
385.088	27.173	1338.189	1060.126
386.102	27.280	1337.230	1059.895
387.117	27.279	1336.732	1059.401
388.132	27.378	1336.076	1059.364
389.146	27.353	1334.707	1058.036
390.161	27.382	1334.182	1057.698
391.175	27.249	1333.857	1056.573
392.190	27.477	1332.322	1056.583
393.205	27.317	1332.765	1055.916
394.219	27.385	1330.987	1054.807
395.234	27.673	1329.582	1055.264
396.248	27.539	1328.906	1053.860
397.263	27.300	1327.631	1051.380
398.278	27.214	1327.017	1050.301
399.292	27.375	1325.591	1050.008
400.307	27.208	1325.715	1049.049
401.321	27.489	1323.224	1048.606
402.336	27.472	1322.897	1048.156
403.350	27.697	1321.490	1048.239
404.365	27.289	1321.001	1045.415
405.380	27.304	1320.278	1044.836
406.394	27.192	1319.447	1043.443
407.409	27.480	1318.345	1044.129
408.423	27.552	1317.485	1043.771
409.438	27.293	1317.394	1042.124
410.453	27.465	1315.332	1041.385
411.467	27.609	1315.153	1041.973
412.482	27.396	1315.545	1040.974
413.496	27.208	1314.325	1038.841
414.511	27.189	1313.319	1037.848
415.526	27.377	1311.785	1037.612
416.540	27.525	1311.582	1038.202
417.555	27.546	1311.233	1037.956
418.569	27.285	1310.421	1035.737
419.584	27.426	1310.889	1036.817
420.599	27.282	1309.546	1034.841
421.613	142.684	1435.635	1794.028
422.628	138.327	1454.054	1794.073
