DTS Sentinel unit serial number:	SN413079Multiplexer serial number:	ORYXHardware model number:	OX4-SRSoftware version number:	ORYX F/W v4.00 Oryx Data Collector v3.7.2.0data status	okinstallation	princeton_trtdifferential loss correction	single-endedforward channel	channel 4reverse channel	N/Adate	2019/09/18time	14:09:35forward acquisition time	60.00reverse acquisition time	0.00gamma	496.2192k internal	0.2302k external	0.2302temperature offset calibration	1.0001default loss term (dB/km)	0.3790temperature slope calibration	1.0000multiplexer offset coefficient	1.0000multiplexer slope coefficient	1.0000fibre end	0.00T internal ref (°C)	34.37T ext. ref 1 (°C)	0.67T ext. ref 2 (°C)	28.97length (m)	temperature (°C)	Stokes	anti-Stokes-747.200	-200.000	0.016	0.165
-746.185	418.098	-0.127	0.276
-745.171	-200.000	0.073	0.398
-744.156	333.487	0.124	0.244
-743.142	119.321	-0.219	-0.276
-742.127	61.914	0.113	-0.115
-741.112	-186.125	-0.150	-0.002
-740.098	-200.000	0.057	0.254
-739.083	-113.423	0.239	0.048
-738.069	113.943	0.084	0.104
-737.054	225.425	0.157	0.260
-736.039	93.591	0.065	0.075
-735.025	-200.000	-0.013	0.147
-734.010	202.573	-0.089	0.141
-732.996	63.112	0.093	0.095
-731.981	34.773	-0.193	0.172
-730.966	52.405	-0.112	0.109
-729.952	150.380	-0.090	-0.124
-728.937	167.118	-0.099	0.143
-727.923	631.146	-0.099	0.254
-726.908	-59.666	-0.156	0.068
-725.894	19.094	-0.283	-0.231
-724.879	800.000	0.116	0.390
-723.864	-71.552	-0.234	0.089
-722.850	-47.106	-0.199	-0.099
-721.835	-98.017	-0.215	-0.056
-720.821	104.939	-0.132	-0.159
-719.806	90.426	0.145	0.165
-718.791	164.882	0.126	-0.181
-717.777	-29.768	-0.418	-0.243
-716.762	-185.822	-0.099	-0.002
-715.748	-138.495	0.113	-0.013
-714.733	123.713	0.217	0.278
-713.718	195.264	-0.109	-0.169
-712.704	265.084	0.118	0.209
-711.689	537.038	0.068	0.165
-710.675	382.996	0.065	0.135
-709.660	-200.000	-0.038	0.193
-708.645	73.167	-0.023	0.024
-707.631	800.000	-0.028	-0.111
-706.616	-105.168	-0.045	-0.011
-705.602	-86.337	-0.021	-0.006
-704.587	-130.846	-0.314	0.043
-703.572	-142.304	0.178	-0.018
-702.558	-100.758	0.364	0.091
-701.543	21.968	-0.126	0.105
-700.529	-124.057	0.201	-0.032
-699.514	-102.708	0.129	-0.031
-698.499	197.724	-0.155	-0.240
-697.485	372.530	0.085	-0.176
-696.470	120.934	-0.101	-0.127
-695.456	800.000	0.095	0.303
-694.441	800.000	0.016	-0.058
-693.426	61.676	-0.097	0.098
-692.412	-200.000	-0.011	-0.125
-691.397	-82.835	-0.338	0.111
-690.383	-200.000	0.030	-0.344
-689.368	-66.662	-0.182	0.073
-688.354	428.414	-0.061	0.134
-687.339	-200.000	0.011	0.086
-686.324	-200.000	-0.011	0.133
-685.310	-93.453	-0.069	-0.019
-684.295	-192.329	-0.079	-0.001
-683.281	800.000	-0.105	-0.412
-682.266	800.000	-0.008	0.027
-681.251	237.960	0.121	0.204
-680.237	800.000	-0.030	0.087
-679.222	800.000	0.032	0.093
-678.208	-124.592	-0.307	-0.049
-677.193	-112.508	0.049	0.010
-676.178	-200.000	0.054	-0.296
-675.164	-81.351	0.156	0.052
-674.149	800.000	0.040	-0.155
-673.135	-3.842	0.275	0.194
-672.120	175.725	-0.414	0.611
-671.105	101.259	-0.167	0.198
-670.091	-58.189	-0.240	-0.106
-669.076	23.721	0.285	0.238
-668.062	-200.000	-0.031	0.291
-667.047	-200.000	-0.087	0.430
-666.032	241.739	-0.187	-0.318
-665.018	28.371	0.204	0.176
-664.003	800.000	-0.022	0.069
-662.989	-19.660	0.038	-0.024
-661.974	147.152	-0.169	-0.231
-660.959	-200.000	0.030	0.192
-659.945	-200.000	0.028	-0.175
-658.930	1.080	-0.167	0.122
-657.916	170.357	0.156	-0.226
-656.901	-200.000	0.046	-0.207
-655.886	-10.854	-0.162	-0.109
-654.872	-61.946	-0.418	-0.177
-653.857	221.142	0.067	0.109
-652.843	-105.226	-0.154	0.036
-651.828	-52.124	0.180	-0.085
-650.814	184.585	0.125	-0.188
-649.799	115.963	-0.226	0.281
-648.784	-28.372	-0.178	0.104
-647.770	14.969	-0.127	-0.101
-646.755	-156.163	0.217	0.014
-645.741	-119.591	-0.125	-0.022
-644.726	75.454	-0.097	-0.104
-643.711	5.147	-0.108	0.081
-642.697	-74.833	-0.058	-0.021
-641.682	-200.000	-0.021	-0.102
-640.668	-9.299	-0.352	-0.239
-639.653	1.091	-0.190	-0.138
-638.638	-153.697	-0.175	-0.012
-637.624	-188.233	0.378	0.005
-636.609	-200.000	0.078	-0.381
-635.595	93.695	-0.150	-0.172
-634.580	155.349	0.110	0.154
-633.565	648.617	0.080	0.207
-632.551	263.612	0.079	-0.139
-631.536	-200.000	-0.003	-0.290
-630.522	93.996	0.122	-0.140
-629.507	-57.465	0.065	-0.029
-628.492	-200.000	-0.066	-0.335
-627.478	-102.387	0.084	0.020
-626.463	251.750	0.153	-0.263
-625.449	-200.000	0.029	-0.163
-624.434	800.000	0.061	-0.237
-623.419	-36.540	-0.187	-0.102
-622.405	-198.880	-0.310	0.002
-621.390	800.000	-0.033	-0.120
-620.376	-78.140	-0.202	0.070
-619.361	-64.708	0.076	0.031
-618.346	-90.063	-0.326	0.096
-617.332	-200.000	-0.067	-0.312
-616.317	-0.809	0.228	0.164
-615.303	159.719	0.023	-0.032
-614.288	21.411	-0.161	-0.133
-613.273	-200.000	-0.012	0.201
-612.259	66.297	-0.105	0.108
-611.244	120.698	0.161	0.202
-610.230	-160.366	-0.289	-0.016
-609.215	-112.145	-0.083	0.017
-608.201	-115.020	-0.339	0.065
-607.186	47.361	0.099	0.094
-606.171	61.315	-0.118	-0.118
-605.157	-133.138	0.251	0.032
-604.142	6.637	0.352	0.265
-603.128	-89.864	-0.191	0.057
-602.113	-167.463	0.206	-0.008
-601.098	259.453	-0.134	-0.235
-600.084	800.000	0.076	-0.301
-599.069	800.000	-0.023	0.099
-598.055	197.965	-0.229	-0.355
-597.040	-52.499	-0.318	0.149
-596.025	76.921	-0.109	-0.118
-595.011	-72.118	-0.148	-0.056
-593.996	-200.000	0.005	0.037
-592.982	-76.107	-0.210	0.075
-591.967	42.566	-0.082	-0.076
-590.952	-101.785	-0.074	0.018
-589.938	-53.388	0.178	0.083
-588.923	-30.784	-0.030	-0.017
-587.909	-81.683	-0.083	0.028
-586.894	3.261	0.140	-0.104
-585.879	187.118	0.154	0.232
-584.865	-93.532	0.195	-0.055
-583.850	800.000	0.056	0.197
-582.836	800.000	-0.103	0.349
-581.821	-74.383	0.057	0.021
-580.806	28.702	0.083	0.071
-579.792	199.360	-0.242	-0.376
-578.777	101.895	0.185	-0.218
-577.763	95.931	-0.142	-0.164
-576.748	-91.370	0.063	0.018
-575.733	587.855	-0.128	0.320
-574.719	85.787	-0.209	0.233
-573.704	-119.271	0.189	-0.033
-572.690	112.682	-0.146	-0.179
-571.675	-11.315	-0.038	0.025
-570.661	-114.221	-0.041	-0.008
-569.646	383.341	0.087	-0.180
-568.631	72.102	-0.083	0.087
-567.617	-56.412	0.196	-0.088
-566.602	406.414	-0.132	-0.281
-565.588	92.516	0.206	0.235
-564.573	-123.210	0.161	-0.026
-563.558	2.210	-0.040	0.029
-562.544	800.000	0.026	-0.112
-561.529	-200.000	-0.014	-0.081
-560.515	-200.000	-0.006	0.137
-559.500	51.540	0.167	-0.161
-558.485	-200.000	0.005	0.053
-557.471	-23.208	-0.075	-0.046
-556.456	-15.670	-0.278	-0.179
-555.442	580.843	-0.151	0.373
-554.427	-200.000	0.051	0.332
-553.412	800.000	0.037	0.127
-552.398	-200.000	-0.004	0.343
-551.383	65.427	-0.083	0.085
-550.369	-90.249	0.084	-0.025
-549.354	139.924	-0.196	0.262
-548.339	800.000	0.082	0.278
-547.325	648.284	-0.076	-0.197
-546.310	33.220	-0.021	0.018
-545.296	-200.000	-0.044	0.396
-544.281	160.064	0.020	-0.028
-543.266	67.238	0.072	0.074
-542.252	-46.541	0.373	0.185
-541.237	-200.000	-0.018	-0.277
-540.223	78.922	0.179	-0.193
-539.208	114.083	0.131	0.161
-538.193	-105.090	-0.161	-0.037
-537.179	800.000	0.088	0.271
-536.164	-6.221	-0.137	-0.095
-535.150	-168.279	0.248	-0.010
-534.135	-97.499	-0.347	-0.091
-533.121	-68.262	-0.284	-0.111
-532.106	-200.000	-0.024	-0.208
-531.091	56.168	-0.073	-0.072
-530.077	-107.562	-0.320	-0.071
-529.062	-31.255	0.212	0.121
-528.048	-200.000	0.023	-0.132
-527.033	-138.178	-0.216	-0.024
-526.018	800.000	0.062	0.222
-525.004	-89.789	0.393	-0.116
-523.989	-138.753	0.148	0.016
-522.975	-87.281	0.151	-0.046
-521.960	800.000	0.073	-0.238
-520.945	800.000	0.005	0.016
-519.931	-62.698	-0.056	0.023
-518.916	580.525	0.110	-0.273
-517.902	-155.329	-0.156	0.010
-516.887	-200.000	-0.035	0.162
-515.872	-96.121	-0.060	-0.016
-514.858	61.136	0.252	0.252
-513.843	564.204	-0.001	0.003
-512.829	800.000	0.137	-0.498
-511.814	-65.808	-0.160	0.065
-510.799	471.432	-0.085	-0.192
-509.785	20.795	-0.267	0.218
-508.770	800.000	-0.089	0.257
-507.756	64.483	-0.261	0.265
-506.741	-200.000	0.046	0.315
-505.726	-93.896	-0.227	0.063
-504.712	-200.000	-0.031	-0.232
-503.697	237.712	-0.183	0.307
-502.683	-35.364	0.216	-0.118
-501.668	671.409	-0.094	-0.247
-500.653	-200.000	0.029	-0.328
-499.639	-171.248	-0.052	0.002
-498.624	568.952	-0.011	0.028
-497.610	-59.055	0.075	0.033
-496.595	-84.636	-0.212	0.067
-495.581	122.822	0.152	0.191
-494.566	-82.163	0.099	0.033
-493.551	-200.000	-0.036	-0.258
-492.537	-59.067	-0.218	-0.095
-491.522	324.271	-0.166	0.321
-490.508	-200.000	0.025	-0.149
-489.493	108.955	0.091	-0.110
-488.478	121.192	-0.229	-0.288
-487.464	341.817	-0.147	0.291
-486.449	-3.747	0.293	0.205
-485.435	276.727	0.084	-0.150
-484.420	1.102	-0.214	0.155
-483.405	296.722	-0.182	0.336
-482.391	-200.000	-0.024	-0.115
-481.376	508.421	0.140	-0.328
-480.362	417.770	0.049	0.106
-479.347	800.000	-0.030	-0.111
-478.332	-200.000	-0.024	0.353
-477.318	800.000	-0.066	-0.227
-476.303	-5.572	0.144	0.099
-475.289	-168.955	0.252	-0.010
-474.274	623.212	0.048	-0.122
-473.259	32.115	0.135	-0.118
-472.245	-129.172	-0.111	-0.016
-471.230	34.282	-0.190	0.167
-470.216	-160.700	0.312	0.017
-469.201	372.665	0.018	0.036
-468.186	-49.918	0.102	-0.049
-467.172	800.000	0.107	-0.436
-466.157	-30.555	0.179	0.102
-465.143	-143.608	0.310	-0.030
-464.128	49.661	-0.089	-0.084
-463.113	230.311	0.115	0.190
-462.099	800.000	-0.057	0.186
-461.084	-200.000	0.060	0.309
-460.070	-140.471	0.212	0.022
-459.055	-110.187	-0.188	0.039
-458.040	800.000	-0.111	-0.356
-457.026	-65.674	-0.119	-0.048
-456.011	-200.000	0.036	-0.220
-454.997	-64.544	0.393	-0.161
-453.982	-200.000	-0.085	-0.379
-452.968	-74.608	0.164	-0.059
-451.953	19.332	-0.161	0.130
-450.938	12.738	0.260	0.202
-449.924	-173.371	-0.434	-0.013
-448.909	-200.000	-0.008	-0.139
-447.895	-22.696	0.059	-0.036
-446.880	-132.876	-0.274	-0.035
-445.865	40.800	-0.054	-0.049
-444.851	800.000	0.005	-0.017
-443.836	12.898	0.165	-0.129
-442.822	552.312	-0.071	-0.172
-441.807	-104.547	0.215	-0.050
-440.792	479.229	0.126	0.287
-439.778	-13.281	-0.100	0.065
-438.763	-68.317	-0.077	0.030
-437.749	-77.187	0.098	-0.034
-436.734	-75.931	0.156	0.055
-435.719	800.000	0.054	0.204
-434.705	32.178	-0.166	0.144
-433.690	34.363	0.067	-0.059
-432.676	-23.411	-0.162	0.098
-431.661	-130.395	0.056	0.008
-430.646	54.320	0.034	-0.033
-429.632	-63.637	-0.133	0.055
-428.617	-115.381	-0.293	0.056
-427.603	-171.648	0.048	0.002
-426.588	800.000	0.068	0.269
-425.573	263.981	-0.097	0.169
-424.559	-77.934	-0.198	-0.069
-423.544	-49.233	-0.067	0.032
-422.530	-98.668	0.321	-0.082
-421.515	53.942	0.086	0.083
-420.500	-16.949	-0.265	0.168
-419.486	47.370	-0.161	0.151
-418.471	244.636	-0.097	-0.164
-417.457	463.461	0.105	0.235
-416.442	-128.946	-0.259	-0.037
-415.428	-200.000	0.050	-0.263
-414.413	270.491	-0.097	0.171
-413.398	-160.209	-0.135	0.007
-412.384	800.000	0.084	0.285
-411.369	301.722	0.106	0.197
-410.355	-70.446	-0.173	-0.066
-409.340	292.052	-0.162	0.296
-408.325	-61.126	0.076	0.032
-407.311	-144.543	0.159	0.015
-406.296	196.053	-0.273	-0.418
-405.282	-200.000	0.025	0.368
-404.267	-200.000	0.016	-0.141
-403.252	800.000	-0.189	-0.585
-402.238	-200.000	-0.080	-0.354
-401.223	-200.000	0.006	-0.137
-400.209	-137.489	0.156	0.018
-399.194	-91.379	-0.277	0.080
-398.179	-200.000	0.006	0.147
-397.165	730.130	0.115	-0.308
-396.150	-137.118	0.422	-0.048
-395.136	-172.966	-0.156	0.005
-394.121	800.000	-0.042	0.153
-393.106	14.061	-0.248	0.194
-392.092	-108.667	-0.259	-0.056
-391.077	-17.690	-0.188	-0.118
-390.063	16.150	-0.414	-0.328
-389.048	217.219	0.164	0.262
-388.033	-128.060	-0.236	0.034
-387.019	-139.676	0.597	-0.064
-386.004	249.431	-0.088	-0.149
-384.990	-97.739	0.318	-0.083
-383.975	-125.233	0.072	-0.011
-382.960	552.263	-0.086	-0.206
-381.946	428.570	0.072	-0.157
-380.931	19.400	-0.457	0.369
-379.917	-120.124	0.151	0.026
-378.902	-200.000	0.023	0.341
-377.888	91.990	-0.092	0.104
-376.873	26.507	0.248	-0.209
-375.858	-140.374	0.397	0.042
-374.844	-100.835	-0.352	-0.087
-373.829	283.732	-0.103	-0.186
-372.815	800.000	0.140	0.459
-371.800	-44.980	0.135	-0.067
-370.785	-30.144	-0.213	0.121
-369.771	-200.000	-0.016	0.110
-368.756	-97.903	0.376	0.097
-367.742	255.582	-0.174	0.300
-366.727	-139.012	0.042	0.005
-365.712	89.272	0.137	0.153
-364.698	3.218	0.155	-0.113
-363.683	795.997	0.113	-0.314
-362.669	-20.751	-0.299	-0.184
-361.654	800.000	-0.089	-0.303
-360.639	-66.314	0.067	-0.027
-359.625	161.313	0.139	0.195
-358.610	-98.362	-0.046	0.012
-357.596	800.000	0.023	0.082
-356.581	-200.000	0.008	0.046
-355.566	212.649	-0.018	-0.029
-354.552	-183.848	-0.189	0.003
-353.537	-5.403	-0.144	0.099
-352.523	437.651	0.085	0.186
-351.508	541.405	0.052	0.125
-350.493	-163.386	0.215	-0.010
-349.479	80.753	0.219	-0.237
-348.464	-77.841	-0.148	-0.051
-347.450	-70.666	-0.170	0.065
-346.435	-154.084	0.546	0.037
-345.420	-200.000	-0.010	-0.048
-344.406	670.227	-0.113	-0.293
-343.391	-11.338	0.153	-0.101
-342.377	-88.351	0.097	-0.029
-341.362	459.804	-0.073	-0.162
-340.348	800.000	0.053	-0.223
-339.333	653.214	-0.060	0.155
-338.318	168.745	-0.109	-0.155
-337.304	9.044	0.047	-0.036
-336.289	-18.662	0.168	-0.105
-335.275	318.599	0.141	0.268
-334.260	140.108	0.093	0.123
-333.245	215.404	0.176	-0.280
-332.231	-101.148	-0.269	-0.066
-331.216	-200.000	-0.005	0.071
-330.202	800.000	0.046	0.178
-329.187	-162.122	-0.286	0.014
-328.172	800.000	-0.055	0.154
-327.158	392.348	-0.146	-0.305
-326.143	800.000	-0.077	-0.216
-325.129	-200.000	-0.016	-0.430
-324.114	-95.696	0.262	-0.070
-323.099	-70.034	0.132	0.051
-322.085	-73.065	0.161	0.059
-321.070	800.000	0.066	-0.205
-320.056	628.160	0.048	-0.122
-319.041	101.959	0.072	-0.084
-318.026	-200.000	-0.022	-0.117
-317.012	228.732	0.128	0.209
-315.997	105.415	0.045	-0.053
-314.983	-37.943	-0.289	0.154
-313.968	629.933	-0.066	0.167
-312.953	-17.388	-0.158	-0.100
-311.939	344.649	-0.041	0.081
-310.924	-200.000	0.027	-0.146
-309.910	135.799	0.133	0.174
-308.895	780.226	0.029	-0.080
-307.880	-42.092	0.158	0.081
-306.866	304.379	0.103	0.192
-305.851	-200.000	0.022	0.236
-304.837	-25.342	0.320	0.190
-303.822	173.719	0.136	0.197
-302.807	748.777	-0.120	-0.324
-301.793	1.054	-0.121	0.087
-300.778	-31.945	0.113	0.063
-299.764	-200.000	0.031	0.261
-298.749	310.396	0.153	0.288
-297.735	-66.096	0.100	0.040
-296.720	-103.927	0.173	0.040
-295.705	33.641	-0.345	0.300
-294.691	778.520	-0.096	0.263
-293.676	800.000	0.065	0.203
-292.662	652.682	0.038	0.098
-291.647	800.000	-0.045	-0.140
-290.632	418.409	0.039	-0.084
-289.618	693.173	-0.032	0.084
-288.603	233.185	0.019	-0.032
-287.589	52.195	-0.104	-0.100
-286.574	-129.078	-0.202	0.028
-285.559	-16.407	0.106	0.067
-284.545	-200.000	0.021	-0.159
-283.530	77.473	-0.046	0.049
-282.516	300.051	-0.147	-0.272
-281.501	-155.436	-0.102	0.007
-280.486	-156.480	0.519	-0.032
-279.472	-101.168	-0.237	0.058
-278.457	-102.782	0.245	0.058
-277.443	-200.000	0.020	-0.158
-276.428	-200.000	0.038	0.395
-275.413	45.025	0.249	-0.229
-274.399	-185.113	-0.210	-0.003
-273.384	800.000	0.085	0.337
-272.370	-130.098	-0.024	-0.003
-271.355	-122.104	0.052	-0.009
-270.340	-200.000	-0.035	-0.383
-269.326	800.000	0.055	-0.194
-268.311	-100.255	0.114	-0.028
-267.297	260.288	-0.111	-0.192
-266.282	168.232	0.138	-0.196
-265.267	-103.761	0.115	-0.027
-264.253	-200.000	-0.019	-0.119
-263.238	-114.575	-0.379	-0.073
-262.224	359.460	-0.072	0.144
-261.209	-159.071	-0.219	-0.012
-260.195	489.122	0.085	0.195
-259.180	-89.868	-0.266	0.078
-258.165	35.950	0.098	0.086
-257.151	800.000	-0.156	0.456
-256.136	-87.801	-0.223	-0.067
-255.122	-94.260	0.103	0.028
-254.107	257.230	-0.218	-0.374
-253.092	407.156	0.101	-0.213
-252.078	-70.955	0.178	-0.067
-251.063	-52.072	-0.149	-0.069
-250.049	-83.762	-0.049	0.016
-249.034	-81.822	-0.113	0.037
-248.019	30.687	-0.127	0.109
-247.005	151.314	0.096	-0.131
-245.990	-159.539	0.403	0.022
-244.976	800.000	-0.018	0.074
-243.961	-145.876	0.127	0.011
-242.946	-49.951	-0.209	0.099
-241.932	124.179	0.171	0.215
-240.917	12.943	-0.314	-0.243
-239.903	-3.513	0.101	-0.070
-238.888	22.044	0.204	0.166
-237.873	50.415	-0.222	0.210
-236.859	-83.888	0.102	-0.033
-235.844	-138.800	0.190	0.021
-234.830	-57.164	-0.152	0.067
-233.815	291.628	0.217	0.395
-232.800	-38.286	0.186	-0.098
-231.786	2.632	0.205	0.148
-230.771	-40.247	-0.210	-0.109
-229.757	-48.802	0.396	-0.190
-228.742	273.721	0.139	-0.245
-227.727	137.065	-0.139	-0.181
-226.713	-57.385	-0.393	0.172
-225.698	-102.008	-0.206	0.050
-224.684	221.064	-0.160	0.257
-223.669	-120.931	-0.138	0.023
-222.655	800.000	0.132	-0.441
-221.640	-200.000	-0.048	0.223
-220.625	-113.068	-0.380	-0.075
-219.611	-200.000	-0.016	-0.168
-218.596	30.062	0.256	0.218
-217.582	62.404	0.145	-0.145
-216.567	-200.000	-0.002	-0.293
-215.552	-36.148	0.086	-0.046
-214.538	-53.335	0.170	0.078
-213.523	-121.348	0.137	-0.023
-212.509	-114.411	0.228	-0.044
-211.494	-4.682	0.157	-0.108
-210.479	50.343	-0.157	-0.148
-209.465	-130.465	0.266	-0.036
-208.450	-200.000	-0.002	-0.037
-207.436	800.000	-0.023	0.087
-206.421	72.019	0.150	-0.156
-205.406	-85.179	-0.245	0.076
-204.392	-80.384	-0.200	-0.067
-203.377	177.940	-0.152	-0.221
-202.363	129.023	0.211	0.269
-201.348	-200.000	-0.072	-0.314
-200.333	-117.236	-0.082	-0.015
-199.319	-113.022	-0.045	-0.009
-198.304	234.981	-0.119	-0.196
-197.290	-200.000	0.008	0.089
-196.275	-86.244	0.106	0.032
-195.260	-200.000	0.042	-0.275
-194.246	-200.000	0.017	-0.111
-193.231	186.421	0.136	0.202
-192.217	34.018	0.112	0.097
-191.202	130.505	0.095	-0.121
-190.187	115.650	0.133	0.162
-189.173	-200.000	0.032	0.274
-188.158	171.220	-0.100	-0.143
-187.144	-162.606	-0.263	-0.013
-186.129	-12.784	0.402	0.261
-185.114	-38.933	-0.140	-0.073
-184.100	-200.000	0.040	0.199
-183.085	346.065	0.143	0.280
-182.071	-184.649	0.345	-0.006
-181.056	26.281	-0.115	-0.096
-180.042	800.000	-0.035	0.148
-179.027	45.085	0.140	0.129
-178.012	485.305	-0.102	0.231
-176.998	2.311	0.146	0.105
-175.983	-145.408	0.292	0.026
-174.969	-200.000	0.045	-0.363
-173.954	-62.763	-0.187	0.077
-172.939	32.464	0.376	0.324
-171.925	-200.000	0.031	-0.285
-170.910	44.097	0.022	-0.020
-169.896	-82.664	-0.058	0.019
-168.881	0.550	0.069	0.049
-167.866	121.160	-0.319	0.395
-166.852	-31.369	0.117	-0.066
-165.837	731.350	-0.016	0.042
-164.823	361.404	0.065	0.129
-163.808	4.440	0.300	-0.219
-162.793	-200.000	-0.015	0.431
-161.779	-200.000	0.002	-0.474
-160.764	12.742	-0.183	0.141
-159.750	-46.008	0.235	0.116
-158.735	174.870	-0.052	0.075
-157.720	-200.000	0.004	0.034
-156.706	10.174	-0.090	-0.068
-155.691	-92.325	0.222	0.062
-154.677	800.000	0.062	-0.192
-153.662	48.621	-0.199	-0.185
-152.647	-144.960	0.204	-0.019
-151.633	-200.000	0.050	0.355
-150.618	739.110	-0.076	-0.204
-149.604	800.000	-0.015	0.047
-148.589	24.261	-0.019	0.016
-147.574	-69.986	0.110	0.042
-146.560	800.000	0.066	0.249
-145.545	-119.507	0.184	0.032
-144.531	800.000	0.055	0.162
-143.516	-200.000	-0.013	0.349
-142.502	-68.081	-0.333	-0.129
-141.487	122.370	0.235	0.293
-140.472	-200.000	-0.030	-0.165
-139.458	31.257	-0.195	-0.166
-138.443	-48.920	-0.063	-0.030
-137.429	43.517	0.260	0.237
-136.414	-29.811	0.322	-0.183
-135.399	-108.540	-0.344	0.074
-134.385	800.000	0.139	-0.423
-133.370	-63.681	0.016	0.006
-132.356	-200.000	-0.028	-0.185
-131.341	657.088	-0.106	0.271
-130.326	106.577	0.252	0.297
-129.312	-108.409	0.110	0.024
-128.297	-107.264	0.115	-0.025
-127.283	-145.133	-0.157	0.014
-126.268	60.023	0.148	-0.145
-125.253	121.683	-0.165	-0.205
-124.239	-43.485	0.276	0.139
-123.224	-44.248	0.360	0.179
-122.210	800.000	0.094	-0.294
-121.195	99.738	-0.009	-0.010
-120.180	109.976	-0.199	0.237
-119.166	-200.000	0.050	0.279
-118.151	36.715	0.244	-0.215
-117.137	450.508	-0.053	0.116
-116.122	-200.000	-0.020	-0.138
-115.107	2.207	0.263	-0.189
-114.093	358.277	0.156	0.310
-113.078	800.000	-0.029	0.118
-112.064	-100.689	-0.445	-0.109
-111.049	409.615	0.251	0.529
-110.034	540.663	-0.062	-0.146
-109.020	777.188	-0.059	0.161
-108.005	800.000	-0.094	-0.394
-106.991	529.455	-0.153	-0.358
-105.976	800.000	-0.011	0.041
-104.962	-200.000	-0.010	0.140
-103.947	33.394	0.065	0.056
-102.932	-34.980	0.045	0.025
-101.918	73.956	-0.136	0.141
-100.903	-3.663	0.140	0.097
-99.889	-58.066	0.190	0.082
-98.874	146.689	-0.169	0.226
-97.859	64.903	-0.008	-0.008
-96.845	182.215	-0.127	0.186
-95.830	10.156	0.071	0.054
-94.816	-200.000	-0.002	0.128
-93.801	-200.000	-0.044	-0.341
-92.786	29.936	-0.111	0.094
-91.772	119.276	-0.041	0.051
-90.757	-147.334	0.298	-0.025
-89.743	83.999	-0.069	-0.074
-88.728	211.635	-0.207	-0.324
-87.713	250.474	-0.120	0.203
-86.699	-200.000	-0.017	0.177
-85.684	-110.602	-0.502	-0.103
-84.670	39.230	0.048	0.043
-83.655	45.274	-0.203	-0.186
-82.640	-130.233	0.269	0.036
-81.626	167.492	0.105	0.148
-80.611	-200.000	-0.063	0.294
-79.597	-200.000	-0.000	-0.287
-78.582	249.080	-0.084	-0.142
-77.567	-15.422	0.098	-0.062
-76.553	-90.376	0.123	0.035
-75.538	800.000	0.028	0.097
-74.524	-34.027	-0.148	-0.081
-73.509	62.936	-0.137	-0.136
-72.494	103.409	0.150	0.174
-71.480	85.518	0.055	0.061
-70.465	436.011	0.246	0.531
-69.451	106.603	0.055	0.065
-68.436	-93.009	-0.200	-0.055
-67.422	100.061	-0.045	0.052
-66.407	-114.994	-0.132	0.025
-65.392	-200.000	0.006	-0.071
-64.378	-111.369	-0.188	-0.038
-63.363	-133.503	-0.174	0.022
-62.349	-22.642	0.215	0.129
-61.334	114.551	-0.674	-0.815
-60.319	-29.389	0.785	0.446
-59.305	-200.000	-0.146	-1.024
-58.290	249.221	0.542	0.911
-57.276	-200.000	0.184	1.549
-56.261	-200.000	95.373	549.943
-55.246	496.134	1420.253	3238.908
-54.232	143.536	2647.440	3497.769
-53.217	100.876	2374.581	2738.706
-52.203	40.805	2118.849	1895.819
-51.188	36.018	2031.784	1773.904
-50.173	34.447	2013.535	1743.553
-49.159	47.912	2063.210	1911.538
-48.144	50.303	2082.678	1951.677
-47.130	36.708	2042.555	1789.411
-46.115	34.416	2030.592	1757.757
-45.100	34.359	2027.389	1754.383
-44.086	34.235	2025.672	1751.691
-43.071	34.257	2022.608	1749.173
-42.057	34.171	2020.468	1746.460
-41.042	34.226	2018.517	1745.208
-40.027	34.216	2017.098	1743.825
-39.013	34.282	2014.781	1742.352
-37.998	34.242	2013.173	1740.527
-36.984	34.349	2011.066	1739.617
-35.969	34.254	2009.336	1737.188
-34.954	34.372	2006.999	1736.170
-33.940	34.390	2005.866	1735.282
-32.925	34.369	2003.879	1733.306
-31.911	34.381	2002.394	1732.060
-30.896	34.315	2000.394	1729.666
-29.881	34.402	1999.013	1729.190
-28.867	34.432	1997.279	1727.892
-27.852	34.397	1995.772	1726.204
-26.838	34.379	1993.865	1724.328
-25.823	34.413	1991.398	1722.427
-24.809	34.392	1990.186	1721.127
-23.794	34.449	1987.811	1719.516
-22.779	34.343	1986.441	1717.309
-21.765	34.359	1984.668	1715.849
-20.750	34.348	1983.552	1714.714
-19.736	34.396	1981.992	1713.733
-18.721	34.375	1980.374	1712.075
-17.706	34.346	1978.716	1710.317
-16.692	34.429	1976.912	1709.430
-15.677	34.397	1975.339	1707.717
-14.663	34.424	1973.736	1706.508
-13.648	34.454	1972.495	1705.629
-12.633	34.429	1971.037	1704.082
-11.619	34.340	1970.334	1702.607
-10.604	34.458	1967.815	1701.423
-9.590	34.408	1966.809	1700.040
-8.575	34.342	1965.951	1698.640
-7.560	34.426	1964.253	1697.850
-6.546	34.436	1962.537	1696.389
-5.531	34.481	1961.731	1696.025
-4.517	34.400	1960.503	1694.182
-3.502	34.403	1959.345	1693.141
-2.487	34.366	1958.266	1691.806
-1.473	34.417	1957.204	1691.281
-0.458	34.447	1952.644	1687.537
0.556	32.839	1931.833	1657.801
1.571	28.121	1910.626	1598.339
2.586	23.528	1931.732	1575.170
3.600	22.012	1967.109	1590.162
4.615	21.055	1962.037	1577.270
5.629	16.280	1859.166	1453.433
6.644	6.836	1734.755	1279.857
7.659	1.297	1694.316	1205.991
8.673	0.822	1690.235	1199.213
9.688	0.697	1689.270	1197.431
10.702	0.665	1687.589	1195.879
11.717	0.497	1684.526	1192.278
12.731	1.100	1683.465	1196.181
13.746	7.587	1698.520	1258.294
14.761	15.620	1713.922	1333.578
15.775	17.764	1715.859	1351.983
16.790	17.290	1713.568	1346.306
17.804	16.369	1710.492	1336.484
18.819	15.248	1707.896	1325.476
19.834	14.744	1705.038	1319.166
20.848	14.437	1703.061	1315.097
21.863	14.135	1701.982	1311.763
22.877	13.853	1700.218	1308.064
23.892	13.645	1698.955	1305.342
24.907	13.503	1697.371	1302.893
25.921	13.419	1696.628	1301.546
26.936	13.515	1695.617	1301.407
27.950	13.559	1694.522	1300.800
28.965	13.625	1693.277	1300.248
29.980	13.700	1692.580	1300.184
30.994	13.743	1692.082	1300.026
32.009	13.759	1691.185	1299.341
33.023	13.771	1689.960	1298.387
34.038	13.805	1689.288	1298.020
35.053	13.703	1688.594	1296.571
36.067	13.708	1686.799	1295.118
37.082	13.730	1686.225	1294.736
38.096	13.716	1684.901	1293.495
39.111	13.780	1683.737	1292.985
40.126	13.820	1683.024	1292.638
41.140	13.815	1681.966	1291.670
42.155	13.700	1680.411	1289.467
43.169	13.564	1679.599	1287.673
44.184	13.579	1678.650	1286.948
45.199	13.574	1677.312	1285.766
46.213	13.572	1676.234	1284.815
47.228	13.535	1675.046	1283.505
48.242	13.569	1673.787	1282.687
49.257	13.660	1672.382	1282.200
50.271	13.610	1671.567	1281.073
51.286	13.602	1670.112	1279.782
52.301	13.637	1668.993	1279.082
53.315	13.615	1667.488	1277.647
54.330	13.686	1665.759	1276.759
55.344	13.527	1664.786	1274.675
56.359	13.568	1662.762	1273.327
57.374	13.596	1661.624	1272.561
58.388	13.556	1660.483	1271.266
59.403	13.545	1659.440	1270.271
60.417	13.548	1657.602	1268.775
61.432	13.540	1656.299	1267.602
62.447	13.428	1655.368	1265.922
63.461	13.437	1654.219	1265.000
64.476	13.444	1653.145	1264.122
65.490	13.439	1652.009	1263.103
66.505	13.427	1650.710	1261.907
67.520	13.464	1649.433	1261.099
68.534	13.393	1649.210	1260.278
69.549	13.481	1647.680	1259.665
70.563	13.565	1645.710	1258.684
71.578	13.508	1645.280	1257.809
72.593	13.422	1643.929	1256.013
73.607	13.361	1643.167	1254.863
74.622	13.437	1641.663	1254.178
75.636	13.382	1640.850	1253.030
76.651	13.405	1639.472	1252.038
77.666	13.357	1639.115	1251.290
78.680	13.412	1638.076	1250.803
79.695	13.474	1636.909	1250.272
80.709	13.463	1635.846	1249.263
81.724	13.458	1635.295	1248.693
82.739	13.424	1634.340	1247.601
83.753	13.491	1632.692	1246.738
84.768	13.526	1632.188	1246.505
85.782	13.571	1631.172	1245.953
86.797	13.679	1630.018	1245.775
87.812	13.557	1628.996	1243.969
88.826	13.554	1627.961	1243.046
89.841	13.499	1626.744	1241.595
90.855	13.646	1624.905	1241.183
91.870	13.543	1624.919	1240.307
92.884	13.574	1623.697	1239.503
93.899	13.653	1622.520	1239.084
94.914	13.673	1621.285	1238.178
95.928	13.682	1620.266	1237.355
96.943	13.635	1618.918	1235.868
97.957	13.695	1616.901	1234.670
98.972	13.716	1616.041	1234.057
99.987	13.645	1613.948	1231.825
101.001	13.658	1612.284	1230.539
102.016	13.677	1610.833	1229.468
103.030	13.645	1609.861	1228.377
104.045	13.656	1608.321	1227.171
105.060	13.604	1607.128	1225.772
106.074	13.599	1605.457	1224.349
107.089	13.616	1604.087	1223.322
108.103	13.550	1602.046	1221.172
109.118	13.532	1601.264	1220.332
110.133	13.496	1599.763	1218.820
111.147	13.493	1598.488	1217.719
112.162	13.529	1597.254	1216.935
113.176	13.580	1595.684	1216.002
114.191	13.518	1594.736	1214.720
115.206	13.580	1592.880	1213.650
116.220	13.617	1592.161	1213.266
117.235	13.540	1590.118	1211.043
118.249	13.564	1589.244	1210.446
119.264	13.579	1587.651	1209.234
120.279	13.581	1586.265	1208.086
121.293	13.530	1584.958	1206.611
122.308	13.511	1583.824	1205.504
123.322	13.606	1581.303	1204.164
124.337	13.586	1579.969	1202.898
125.352	13.542	1579.055	1201.777
126.366	13.440	1577.559	1199.792
127.381	13.526	1576.494	1199.504
128.395	13.602	1574.753	1198.623
129.410	13.528	1573.929	1197.350
130.424	13.531	1572.528	1196.202
131.439	13.570	1571.043	1195.250
132.454	13.611	1570.420	1194.962
133.468	13.597	1569.037	1193.707
134.483	13.678	1566.650	1192.367
135.497	13.658	1565.499	1191.239
136.512	13.691	1564.415	1190.547
137.527	13.684	1562.484	1188.925
138.541	13.687	1561.591	1188.158
139.556	13.703	1559.623	1186.674
140.570	13.642	1558.663	1185.397
141.585	13.742	1557.503	1185.127
142.600	13.783	1555.849	1184.058
143.614	13.817	1554.751	1183.355
144.629	13.796	1553.765	1182.351
145.643	13.839	1551.818	1181.074
146.658	13.803	1550.922	1180.029
147.673	13.760	1549.774	1178.750
148.687	13.848	1547.892	1177.833
149.702	13.828	1546.026	1176.174
150.716	13.787	1544.809	1174.848
151.731	13.682	1544.027	1173.407
152.746	13.821	1541.956	1172.712
153.760	13.723	1540.828	1171.058
154.775	13.808	1539.687	1170.691
155.789	13.859	1538.178	1169.795
156.804	13.837	1536.666	1168.385
157.819	13.952	1535.649	1168.323
158.833	13.877	1534.421	1166.755
159.848	13.925	1533.095	1165.981
160.862	13.944	1531.513	1164.806
161.877	13.959	1530.235	1163.837
162.892	13.991	1529.296	1163.242
163.906	13.927	1528.058	1161.755
164.921	13.784	1527.088	1159.910
165.935	13.986	1525.471	1159.992
166.950	13.912	1524.729	1158.812
167.964	13.942	1523.744	1158.166
168.979	13.967	1522.219	1157.079
169.994	13.927	1521.513	1156.162
171.008	13.994	1520.182	1155.516
172.023	13.977	1518.959	1154.367
173.037	14.004	1518.095	1153.794
174.052	14.066	1516.445	1152.870
175.067	14.008	1515.706	1151.805
176.081	13.975	1514.679	1150.693
177.096	13.929	1512.811	1148.853
178.110	14.041	1511.905	1148.835
179.125	14.000	1510.584	1147.444
180.140	13.930	1509.766	1146.243
181.154	13.982	1508.410	1145.468
182.169	14.055	1507.042	1144.831
183.183	14.066	1506.056	1144.058
184.198	14.123	1505.020	1143.562
185.213	14.130	1504.123	1142.824
186.227	14.225	1502.609	1142.229
187.242	14.184	1501.723	1141.169
188.256	14.146	1501.108	1140.343
189.271	14.211	1499.673	1139.595
190.286	14.266	1498.550	1139.022
191.300	14.269	1497.297	1137.983
192.315	14.152	1496.340	1136.358
193.329	14.128	1494.744	1134.880
194.344	14.001	1493.903	1133.279
195.359	13.961	1493.266	1132.424
196.373	14.077	1492.306	1132.383
197.388	14.156	1490.987	1131.821
198.402	14.229	1489.254	1130.902
199.417	14.271	1488.447	1130.473
200.432	14.366	1487.590	1130.365
201.446	14.403	1486.522	1129.707
202.461	14.411	1485.492	1128.874
203.475	14.343	1484.292	1127.405
204.490	14.482	1482.793	1127.105
205.504	14.453	1482.107	1126.290
206.519	14.439	1481.065	1125.303
207.534	14.411	1479.380	1123.734
208.548	14.424	1478.244	1122.861
209.563	14.483	1477.629	1122.690
210.577	14.467	1476.506	1121.629
211.592	14.366	1475.969	1120.441
212.607	14.453	1474.792	1120.038
213.621	14.503	1474.311	1119.907
214.636	14.580	1472.917	1119.266
215.650	14.602	1471.973	1118.597
216.665	14.570	1470.936	1117.498
217.680	14.615	1470.278	1117.200
218.694	14.664	1469.689	1116.981
219.709	14.604	1469.120	1116.050
220.723	14.625	1467.713	1115.019
221.738	14.662	1466.826	1114.494
222.753	14.722	1465.463	1113.757
223.767	14.658	1464.878	1112.787
224.782	14.624	1464.038	1111.826
225.796	14.671	1462.598	1110.948
226.811	14.774	1461.921	1111.019
227.826	14.695	1461.685	1110.217
228.840	14.751	1460.423	1109.532
229.855	14.722	1459.308	1108.394
230.869	14.761	1458.396	1107.865
231.884	14.791	1457.260	1107.103
232.899	14.862	1455.738	1106.319
233.913	14.758	1454.623	1104.686
234.928	14.713	1453.847	1103.702
235.942	14.616	1452.903	1102.242
236.957	14.707	1451.585	1101.750
237.972	14.785	1450.078	1101.022
238.986	14.812	1449.059	1100.325
240.001	14.698	1448.598	1099.131
241.015	14.800	1447.540	1098.899
242.030	14.776	1446.013	1097.484
243.045	14.813	1444.783	1096.700
244.059	14.879	1444.280	1096.652
245.074	14.858	1443.173	1095.579
246.088	14.867	1442.248	1094.837
247.103	14.922	1441.745	1094.717
248.117	14.917	1440.753	1093.837
249.132	14.985	1439.945	1093.570
250.147	15.018	1439.211	1093.128
251.161	15.084	1438.540	1092.954
252.176	15.094	1437.860	1092.406
253.190	15.085	1437.034	1091.622
254.205	15.130	1436.298	1091.262
255.220	15.182	1435.287	1090.736
256.234	15.240	1434.374	1090.324
257.249	15.279	1433.581	1089.875
258.263	15.250	1432.767	1088.975
259.278	15.273	1431.623	1088.159
260.293	15.263	1430.769	1087.344
261.307	15.306	1430.144	1087.052
262.322	15.355	1429.428	1086.732
263.336	15.361	1428.686	1086.109
264.351	15.402	1427.675	1085.509
265.366	15.456	1426.458	1084.835
266.380	15.371	1425.714	1083.625
267.395	15.437	1424.567	1083.084
268.409	15.414	1423.841	1082.289
269.424	15.455	1422.431	1081.386
270.439	15.345	1421.842	1080.136
271.453	15.429	1420.470	1079.536
272.468	15.452	1419.513	1078.862
273.482	15.440	1419.037	1078.328
274.497	15.441	1418.343	1077.709
275.512	15.484	1417.294	1077.093
276.526	15.407	1416.617	1075.990
277.541	15.515	1415.641	1075.846
278.555	15.495	1414.886	1075.050
279.570	15.581	1413.822	1074.698
280.585	15.502	1412.929	1073.416
281.599	15.532	1411.999	1072.808
282.614	15.696	1411.079	1073.060
283.628	15.703	1409.606	1071.892
284.643	15.665	1408.526	1070.731
285.657	15.560	1407.922	1069.507
286.672	15.572	1406.827	1068.656
287.687	15.653	1405.864	1068.344
288.701	15.700	1404.817	1067.753
289.716	15.583	1403.820	1066.162
290.730	15.699	1403.345	1066.438
291.745	15.673	1402.011	1065.169
292.760	15.719	1401.209	1064.759
293.774	15.696	1400.140	1063.705
294.789	15.662	1399.103	1062.609
295.803	15.868	1398.179	1063.111
296.818	15.903	1397.095	1062.417
297.833	15.751	1396.456	1060.877
298.847	15.785	1395.495	1060.266
299.862	15.824	1394.319	1059.528
300.876	15.751	1393.592	1058.417
301.891	15.799	1392.890	1058.096
302.906	15.782	1392.059	1057.260
303.920	15.811	1391.093	1056.621
304.935	15.904	1390.347	1056.542
305.949	16.004	1389.521	1056.450
306.964	15.993	1388.812	1055.746
307.979	16.071	1387.576	1055.201
308.993	16.064	1386.883	1054.536
310.008	15.982	1385.982	1053.247
311.022	16.110	1384.472	1052.802
312.037	15.972	1384.167	1051.618
313.052	16.060	1382.864	1051.081
314.066	16.152	1381.756	1050.724
315.081	16.036	1381.279	1049.542
316.095	16.068	1379.596	1048.371
317.110	16.031	1378.955	1047.563
318.125	16.072	1377.750	1046.807
319.139	16.057	1377.082	1046.116
320.154	16.061	1376.132	1045.323
321.168	15.977	1375.237	1044.031
322.183	16.158	1373.880	1044.028
323.197	16.153	1372.977	1043.223
324.212	16.164	1371.817	1042.318
325.227	16.071	1371.693	1041.556
326.241	16.099	1370.448	1040.692
327.256	16.149	1369.528	1040.207
328.270	16.079	1369.059	1039.330
329.285	16.150	1368.127	1038.966
330.300	16.146	1367.131	1038.090
331.314	16.214	1365.987	1037.550
332.329	16.189	1365.153	1036.670
333.343	16.259	1364.187	1036.276
334.358	16.314	1363.356	1035.889
335.373	16.317	1362.730	1035.342
336.387	16.356	1361.348	1034.440
337.402	16.330	1360.928	1033.869
338.416	16.264	1360.575	1033.103
339.431	16.389	1359.575	1033.018
340.446	16.439	1359.088	1032.863
341.460	16.474	1357.959	1032.125
342.475	16.472	1356.795	1031.136
343.489	16.395	1356.463	1030.325
344.504	16.528	1354.871	1029.836
345.519	16.537	1354.098	1029.212
346.533	16.551	1352.909	1028.300
347.548	16.526	1352.271	1027.576
348.562	16.520	1351.594	1026.935
349.577	16.598	1350.929	1026.807
350.592	16.706	1349.842	1026.547
351.606	16.520	1349.441	1025.024
352.621	16.523	1348.093	1023.927
353.635	16.530	1347.016	1023.060
354.650	16.503	1345.917	1021.972
355.665	16.643	1344.429	1021.595
356.679	16.524	1343.941	1020.418
357.694	16.537	1343.218	1019.857
358.708	16.689	1341.738	1019.558
359.723	16.631	1340.987	1018.547
360.738	16.542	1339.875	1017.078
361.752	16.638	1338.742	1016.706
362.767	16.745	1337.562	1016.360
363.781	16.695	1336.657	1015.284
364.796	16.769	1335.685	1014.900
365.810	16.709	1335.197	1014.078
366.825	16.851	1334.207	1014.085
367.840	16.810	1333.657	1013.333
368.854	16.900	1332.883	1013.195
369.869	16.931	1332.547	1013.035
370.883	16.894	1331.972	1012.286
371.898	16.852	1331.173	1011.342
372.913	16.930	1330.559	1011.249
373.927	16.971	1329.184	1010.358
374.942	16.993	1328.008	1009.504
375.956	16.866	1327.515	1008.287
376.971	16.960	1326.744	1008.169
377.986	17.035	1325.746	1007.770
379.000	16.921	1325.355	1006.706
380.015	17.099	1324.469	1006.998
381.029	17.174	1323.356	1006.506
382.044	17.094	1323.193	1005.820
383.059	17.017	1322.729	1004.926
384.073	17.126	1321.920	1004.867
385.088	17.069	1321.013	1003.753
386.102	17.165	1320.370	1003.743
387.117	17.203	1319.653	1003.333
388.132	17.209	1318.693	1002.545
389.146	17.066	1318.388	1001.380
390.161	17.170	1317.050	1000.890
391.175	17.187	1316.224	1000.275
392.190	17.124	1315.752	999.459
393.205	17.219	1314.606	999.059
394.219	17.230	1313.594	998.261
395.234	17.254	1312.445	997.444
396.248	17.225	1311.089	996.152
397.263	17.325	1309.420	995.381
398.278	17.337	1308.226	994.458
399.292	17.343	1306.930	993.417
400.307	17.244	1306.080	992.107
401.321	17.311	1305.173	991.721
402.336	17.282	1304.285	990.790
403.350	17.343	1303.037	990.111
404.365	17.361	1302.309	989.573
405.380	17.316	1301.895	988.910
406.394	17.361	1300.817	988.264
407.409	17.353	1300.101	987.590
408.423	17.399	1299.774	987.518
409.438	17.431	1298.761	986.847
410.453	17.396	1297.400	985.520
411.467	17.448	1297.213	985.595
412.482	17.568	1296.450	985.623
413.496	17.519	1295.915	984.844
414.511	17.581	1294.811	984.277
415.526	17.628	1294.324	984.093
416.540	17.656	1293.613	983.625
417.555	17.700	1292.544	982.978
418.569	17.675	1291.889	982.250
419.584	17.652	1291.813	981.972
420.599	17.645	1291.511	981.613
421.613	92.001	1347.646	1449.736
422.628	90.439	1355.782	1449.874
