DTS Sentinel unit serial number:	SN413079Multiplexer serial number:	ORYXHardware model number:	OX4-SRSoftware version number:	ORYX F/W v4.00 Oryx Data Collector v3.7.2.0data status	okinstallation	princeton_trtdifferential loss correction	single-endedforward channel	channel 4reverse channel	N/Adate	2019/09/14time	21:05:34forward acquisition time	60.00reverse acquisition time	0.00gamma	496.2192k internal	0.2306k external	0.2306temperature offset calibration	1.0077default loss term (dB/km)	0.3790temperature slope calibration	1.0000multiplexer offset coefficient	1.0000multiplexer slope coefficient	1.0000fibre end	0.00T internal ref (°C)	33.11T ext. ref 1 (°C)	4.75T ext. ref 2 (°C)	27.88length (m)	temperature (°C)	Stokes	anti-Stokes-747.200	800.000	-0.098	0.290
-746.185	-45.646	-0.130	-0.066
-745.171	161.862	-0.065	0.093
-744.156	-65.677	0.336	0.137
-743.142	-200.000	-0.028	-0.219
-742.127	151.834	0.082	-0.113
-741.112	170.701	-0.046	-0.067
-740.098	800.000	-0.078	0.286
-739.083	-21.558	0.078	-0.049
-738.069	-200.000	0.007	0.137
-737.054	51.155	-0.054	-0.053
-736.039	625.287	-0.158	-0.406
-735.025	-200.000	-0.066	0.295
-734.010	574.677	-0.029	0.073
-732.996	22.809	-0.303	-0.253
-731.981	586.614	0.057	0.143
-730.966	-59.969	-0.212	0.092
-729.952	101.305	0.056	-0.067
-728.937	139.773	-0.099	0.133
-727.923	-110.260	-0.448	-0.095
-726.908	63.180	-0.222	-0.226
-725.894	-146.259	-0.070	-0.006
-724.879	54.084	0.234	0.229
-723.864	-200.000	-0.032	0.354
-722.850	121.058	0.188	0.238
-721.835	109.276	0.094	0.115
-720.821	-95.336	-0.055	0.015
-719.806	800.000	-0.066	-0.249
-718.791	131.338	-0.044	0.057
-717.777	-70.629	0.105	-0.040
-716.762	26.291	-0.354	-0.300
-715.748	-145.957	0.151	-0.014
-714.733	-96.371	-0.250	-0.067
-713.718	-122.961	-0.139	-0.023
-712.704	-200.000	-0.042	0.240
-711.689	-18.545	0.096	0.061
-710.675	-132.203	-0.191	0.025
-709.660	-200.000	-0.055	-0.287
-708.645	75.229	0.178	0.191
-707.631	287.641	0.060	-0.110
-706.616	23.706	0.073	0.061
-705.602	24.844	-0.135	0.114
-704.587	124.928	0.437	0.560
-703.572	-200.000	-0.012	0.262
-702.558	-127.028	0.131	0.019
-701.543	398.007	-0.100	0.213
-700.529	800.000	0.079	-0.272
-699.514	152.203	0.274	0.380
-698.499	-200.000	-0.065	-0.462
-697.485	377.312	0.096	-0.199
-696.470	-60.680	0.222	0.096
-695.456	525.435	0.058	-0.139
-694.441	116.678	-0.234	-0.292
-693.426	-200.000	0.001	0.271
-692.412	-130.389	-0.107	0.015
-691.397	8.525	0.161	-0.123
-690.383	800.000	0.055	-0.195
-689.368	-200.000	0.050	-0.262
-688.354	-97.603	-0.120	-0.032
-687.339	800.000	-0.066	0.211
-686.324	3.041	-0.044	0.032
-685.310	-10.347	0.175	0.118
-684.295	-200.000	0.032	-0.284
-683.281	-200.000	0.063	0.352
-682.266	530.628	-0.053	0.127
-681.251	-161.045	-0.524	0.028
-680.237	-200.000	-0.057	0.307
-679.222	800.000	-0.046	-0.168
-678.208	-200.000	-0.024	0.122
-677.193	399.644	-0.103	0.220
-676.178	-113.061	-0.242	0.049
-675.164	164.265	-0.133	0.189
-674.149	170.196	0.070	-0.102
-673.135	106.963	0.134	0.162
-672.120	-82.938	-0.079	0.026
-671.105	800.000	0.041	-0.120
-670.091	-200.000	-0.000	-0.196
-669.076	7.267	0.121	-0.092
-668.062	326.916	-0.120	-0.234
-667.047	143.132	0.050	-0.067
-666.032	33.480	-0.121	0.107
-665.018	-137.138	-0.369	0.043
-664.003	617.010	0.058	-0.148
-662.989	163.671	0.168	-0.240
-661.974	110.039	-0.237	-0.288
-660.959	276.213	0.272	-0.491
-659.945	800.000	-0.099	0.404
-658.930	174.733	0.064	0.094
-657.916	51.124	-0.114	0.109
-656.901	-57.308	-0.290	0.129
-655.886	-43.642	-0.119	0.061
-654.872	88.283	0.047	0.053
-653.857	-104.588	0.100	0.023
-652.843	142.224	0.087	0.117
-651.828	-164.894	-0.123	-0.006
-650.814	195.079	-0.197	-0.303
-649.799	800.000	-0.090	-0.347
-648.784	-200.000	-0.016	-0.087
-647.770	-32.679	-0.201	0.114
-646.755	217.254	-0.118	0.190
-645.741	90.584	-0.257	-0.292
-644.726	-43.634	-0.408	-0.208
-643.711	177.018	0.055	-0.082
-642.697	-45.946	0.281	-0.140
-641.682	-200.000	-0.001	-0.032
-640.668	-65.250	0.118	-0.048
-639.653	-43.577	0.098	-0.050
-638.638	211.351	-0.278	-0.443
-637.624	-22.850	0.021	-0.013
-636.609	112.162	-0.137	0.168
-635.595	310.514	-0.099	-0.187
-634.580	-102.612	0.326	-0.079
-633.565	-15.377	-0.029	-0.018
-632.551	-117.043	-0.019	0.003
-631.536	-104.070	0.172	-0.041
-630.522	-200.000	0.008	0.227
-629.507	-93.990	0.253	-0.070
-628.492	65.832	0.088	-0.090
-627.478	20.811	-0.122	-0.100
-626.463	-82.973	-0.121	0.040
-625.449	139.733	-0.114	0.153
-624.434	-200.000	-0.014	0.147
-623.419	-132.500	0.256	0.033
-622.405	-58.516	0.047	0.020
-621.390	7.532	0.392	0.297
-620.376	800.000	0.107	-0.392
-619.361	128.904	-0.075	-0.097
-618.346	222.162	0.186	-0.303
-617.332	-87.865	-0.146	0.045
-616.317	592.379	0.061	-0.153
-615.303	96.192	-0.223	0.258
-614.288	800.000	-0.038	-0.121
-613.273	143.619	0.259	0.350
-612.259	-146.935	-0.319	-0.028
-611.244	307.292	-0.100	0.189
-610.230	-200.000	0.006	0.033
-609.215	-82.438	-0.329	0.108
-608.201	148.956	-0.084	0.115
-607.186	800.000	0.031	0.131
-606.171	-200.000	-0.067	0.325
-605.157	-66.520	0.267	-0.107
-604.142	-134.455	-0.318	-0.039
-603.128	-200.000	0.017	0.138
-602.113	-200.000	0.067	-0.328
-601.098	-131.070	-0.338	0.046
-600.084	-168.130	0.317	0.012
-599.069	-26.204	0.175	0.104
-598.055	6.066	0.066	-0.050
-597.040	290.012	-0.063	-0.116
-596.025	591.802	-0.040	-0.101
-595.011	800.000	0.026	-0.099
-593.996	-160.878	-0.412	0.022
-592.982	311.009	0.098	0.186
-591.967	-82.818	0.249	0.081
-590.952	62.617	-0.064	0.065
-589.938	555.164	0.100	-0.243
-588.923	-119.314	0.757	0.133
-587.909	-200.000	-0.052	-0.415
-586.894	687.236	-0.012	0.031
-585.879	-71.553	-0.117	-0.044
-584.865	15.875	-0.224	0.178
-583.850	-19.171	-0.161	0.101
-582.836	-118.373	-0.431	-0.077
-581.821	-17.384	-0.086	0.055
-580.806	800.000	-0.076	0.284
-579.792	-200.000	0.018	0.157
-578.777	-15.579	-0.138	-0.089
-577.763	-4.155	0.044	-0.031
-576.748	-46.550	0.449	0.222
-575.733	-16.655	0.205	-0.131
-574.719	800.000	-0.047	-0.141
-573.704	14.562	0.149	-0.117
-572.690	-200.000	0.004	-0.342
-571.675	-200.000	-0.097	-0.517
-570.661	-136.565	0.126	0.015
-569.646	-85.084	-0.041	-0.013
-568.631	-162.142	-0.309	-0.016
-567.617	292.228	0.122	-0.225
-566.602	-168.861	-0.409	-0.016
-565.588	-119.702	-0.307	-0.054
-564.573	-22.348	0.400	0.245
-563.558	118.536	0.024	-0.031
-562.544	130.809	0.175	-0.227
-561.529	-59.688	0.184	0.079
-560.515	-150.014	-0.080	-0.006
-559.500	800.000	-0.043	-0.167
-558.485	182.702	0.073	0.108
-557.471	-200.000	0.001	0.057
-556.456	-149.819	-0.017	0.001
-555.442	-109.263	-0.484	-0.104
-554.427	-200.000	-0.002	-0.265
-553.412	-93.097	0.130	0.036
-552.398	-85.939	-0.100	-0.031
-551.383	-106.542	0.395	-0.089
-550.369	-173.636	0.222	0.007
-549.354	-132.222	0.317	0.042
-548.339	595.062	-0.047	0.117
-547.325	-200.000	-0.003	0.107
-546.310	137.050	0.195	-0.257
-545.296	407.497	-0.163	0.349
-544.281	-200.000	-0.016	0.081
-543.266	26.896	0.274	-0.232
-542.252	75.830	-0.113	-0.121
-541.237	33.497	0.181	0.158
-540.223	-44.589	0.355	0.179
-539.208	800.000	0.051	0.157
-538.193	-200.000	-0.013	0.171
-537.179	-200.000	0.001	0.050
-536.164	-120.465	0.231	-0.040
-535.150	26.338	0.103	-0.087
-534.135	-140.882	0.275	0.029
-533.121	800.000	0.080	-0.235
-532.106	-200.000	0.008	0.427
-531.091	528.596	-0.038	-0.091
-530.077	68.841	-0.283	0.293
-529.062	196.535	0.168	-0.257
-528.048	-57.884	-0.282	0.124
-527.033	51.151	0.080	-0.077
-526.018	-128.444	0.343	0.049
-525.004	-200.000	-0.012	-0.126
-523.989	106.229	0.088	-0.106
-522.975	512.199	0.081	0.189
-521.960	91.997	0.271	-0.307
-520.945	-115.788	0.134	0.025
-519.931	110.089	0.156	-0.189
-518.916	202.853	-0.163	-0.253
-517.902	-127.692	-0.269	-0.039
-516.887	-104.264	0.203	-0.047
-515.872	-39.296	-0.283	0.150
-514.858	-73.811	-0.186	0.068
-513.843	-200.000	-0.008	0.250
-512.829	160.356	0.247	-0.348
-511.814	800.000	0.046	0.149
-510.799	110.755	-0.134	-0.163
-509.785	237.805	-0.052	-0.087
-508.770	-132.927	0.158	-0.020
-507.756	23.373	0.090	0.075
-506.741	-0.748	0.245	0.175
-505.726	800.000	-0.054	0.163
-504.712	-136.534	0.162	0.019
-503.697	-90.857	0.124	-0.036
-502.683	514.545	-0.051	0.119
-501.668	-121.146	0.266	0.045
-500.653	-200.000	0.030	-0.404
-499.639	155.270	0.196	0.272
-498.624	-135.512	-0.269	-0.032
-497.610	-86.290	0.247	0.077
-496.595	84.696	-0.075	-0.082
-495.581	800.000	0.074	0.308
-494.566	-22.410	-0.143	0.087
-493.551	-49.389	-0.069	0.033
-492.537	348.582	0.072	0.142
-491.522	800.000	0.066	-0.185
-490.508	-200.000	0.014	0.124
-489.493	-38.955	0.017	-0.009
-488.478	18.460	-0.125	0.101
-487.464	-182.975	-0.118	0.002
-486.449	-33.383	-0.321	0.179
-485.435	34.260	0.128	-0.112
-484.420	41.001	0.095	-0.087
-483.405	-200.000	0.019	-0.179
-482.391	-165.445	0.216	0.009
-481.376	108.726	0.212	-0.256
-480.362	-200.000	-0.032	0.153
-479.347	-81.347	0.195	0.065
-478.332	800.000	0.082	-0.242
-477.318	54.662	0.445	0.432
-476.303	-33.672	0.117	-0.065
-475.289	66.142	-0.195	0.199
-474.274	649.599	0.048	0.124
-473.259	-194.659	-0.249	0.002
-472.245	-47.527	0.210	0.103
-471.230	727.672	-0.106	-0.286
-470.216	-12.476	-0.082	0.054
-469.201	-87.508	0.078	-0.024
-468.186	21.521	0.140	-0.115
-467.172	-75.801	-0.234	0.084
-466.157	-107.030	-0.187	0.042
-465.143	-133.883	0.115	-0.014
-464.128	3.110	-0.056	-0.041
-463.113	-19.172	-0.117	-0.073
-462.099	-200.000	-0.070	0.000
-461.084	238.805	0.166	0.278
-460.070	243.962	-0.108	-0.183
-459.055	-75.705	-0.138	-0.049
-458.040	800.000	0.078	0.238
-457.026	800.000	-0.110	0.310
-456.011	87.810	-0.182	0.203
-454.997	800.000	-0.042	0.132
-453.982	800.000	-0.055	0.202
-452.968	-21.387	0.199	0.122
-451.953	296.754	-0.153	0.282
-450.938	-189.228	-0.178	0.002
-449.924	-14.521	-0.102	0.066
-448.909	129.900	0.333	0.428
-447.895	267.429	-0.153	0.270
-446.880	3.238	0.250	0.183
-445.865	-82.248	0.248	-0.081
-444.851	-5.049	-0.120	-0.083
-443.836	118.847	-0.072	-0.089
-442.822	27.563	0.328	-0.277
-441.807	800.000	-0.011	0.035
-440.792	-200.000	-0.067	-0.321
-439.778	511.478	0.110	-0.256
-438.763	-27.262	0.273	-0.160
-437.749	-93.767	-0.314	-0.087
-436.734	-90.080	-0.294	0.086
-435.719	800.000	0.086	0.259
-434.705	-197.089	0.268	-0.002
-433.690	-158.241	-0.374	0.022
-432.676	100.401	0.067	0.078
-431.661	-54.689	-0.374	0.170
-430.646	-40.135	0.268	0.140
-429.632	800.000	0.051	-0.153
-428.617	7.842	-0.134	-0.101
-427.603	-142.074	-0.189	0.019
-426.588	-156.912	0.088	-0.005
-425.573	-114.324	-0.196	0.038
-424.559	26.890	-0.371	0.312
-423.544	43.906	0.101	0.093
-422.530	-11.401	-0.146	-0.096
-421.515	-33.162	-0.196	0.109
-420.500	-0.919	-0.185	0.132
-419.486	194.439	0.118	0.180
-418.471	370.712	-0.082	0.167
-417.457	652.307	0.040	0.103
-416.442	-20.619	-0.158	-0.097
-415.428	-67.387	-0.244	-0.096
-414.413	-119.813	-0.313	-0.054
-413.398	-144.882	0.290	0.027
-412.384	-83.565	0.495	0.159
-411.369	-139.881	-0.130	0.014
-410.355	-82.053	0.149	-0.049
-409.340	355.390	0.085	0.170
-408.325	-116.248	-0.264	-0.049
-407.311	-36.094	0.110	0.060
-406.296	-117.845	0.302	-0.055
-405.282	41.166	-0.073	0.066
-404.267	-200.000	0.022	-0.107
-403.252	230.372	-0.033	-0.054
-402.238	204.687	-0.149	-0.232
-401.223	-200.000	0.021	0.325
-400.209	-100.634	-0.275	0.068
-399.194	100.985	0.073	0.086
-398.179	349.826	0.054	-0.107
-397.165	62.262	-0.107	0.107
-396.150	157.824	-0.096	-0.133
-395.136	-200.000	0.029	-0.317
-394.121	91.076	0.215	0.242
-393.106	390.177	0.073	0.152
-392.092	12.712	-0.232	-0.180
-391.077	-121.796	0.267	-0.044
-390.063	-200.000	-0.015	-0.079
-389.048	800.000	0.048	0.167
-388.033	-67.960	-0.235	-0.092
-387.019	749.458	-0.076	-0.207
-386.004	-200.000	0.039	-0.249
-384.990	-14.904	-0.053	-0.034
-383.975	307.135	0.044	0.082
-382.960	-200.000	-0.323	0.000
-381.946	-200.000	-0.003	0.022
-380.931	800.000	0.072	-0.224
-379.917	-200.000	-0.002	-0.417
-378.902	800.000	0.025	-0.075
-377.888	62.979	-0.099	0.100
-376.873	-4.378	0.062	0.043
-375.858	87.637	-0.177	-0.197
-374.844	218.862	0.047	0.076
-373.829	-200.000	0.103	0.552
-372.815	-54.935	-0.150	-0.068
-371.800	-85.114	0.082	-0.026
-370.785	91.142	-0.288	-0.324
-369.771	255.398	0.146	0.251
-368.756	4.687	0.158	0.116
-367.742	800.000	-0.066	0.203
-366.727	-28.342	0.106	0.061
-365.712	160.377	0.273	-0.382
-364.698	-200.000	0.003	-0.502
-363.683	-200.000	-0.017	-0.156
-362.669	-200.000	-0.024	-0.239
-361.654	-74.059	-0.164	0.060
-360.639	800.000	0.124	-0.354
-359.625	-15.133	0.119	0.076
-358.610	513.199	-0.096	-0.224
-357.596	38.814	0.107	-0.096
-356.581	355.582	0.061	-0.121
-355.566	140.106	0.202	-0.267
-354.552	-108.352	-0.008	0.002
-353.537	10.530	0.244	0.186
-352.523	-200.000	-0.078	0.409
-351.508	26.724	0.196	0.165
-350.493	181.121	0.085	-0.125
-349.479	-200.000	-0.050	-0.302
-348.464	478.486	0.119	-0.269
-347.450	29.331	-0.091	0.077
-346.435	63.119	0.083	0.083
-345.420	-163.345	-0.128	0.006
-344.406	147.483	-0.036	-0.048
-343.391	80.454	0.202	0.217
-342.377	292.349	0.171	0.312
-341.362	-112.028	-0.067	-0.013
-340.348	-200.000	-0.043	-0.415
-339.333	-159.512	-0.347	0.019
-338.318	-200.000	0.002	-0.092
-337.304	19.946	0.215	-0.174
-336.289	-32.171	-0.250	-0.140
-335.275	330.145	0.088	-0.170
-334.260	-74.078	0.103	0.037
-333.245	-151.315	0.110	0.008
-332.231	218.198	-0.255	0.407
-331.216	49.285	-0.078	-0.073
-330.202	228.867	0.170	-0.277
-329.187	-200.000	0.014	-0.089
-328.172	423.341	0.182	-0.392
-327.158	800.000	0.065	-0.251
-326.143	-166.414	0.261	-0.011
-325.129	-124.897	0.103	-0.016
-324.114	-200.000	-0.041	0.277
-323.099	-37.506	0.259	0.138
-322.085	-3.109	-0.178	-0.124
-321.070	187.106	0.078	0.117
-320.056	800.000	0.126	0.416
-319.041	69.746	-0.126	0.130
-318.026	800.000	-0.072	-0.278
-317.012	-200.000	-0.281	0.000
-315.997	-185.922	0.121	0.002
-314.983	1.988	-0.220	-0.159
-313.968	-63.709	-0.126	-0.052
-312.953	201.216	0.312	-0.480
-311.939	-121.721	-0.289	-0.048
-310.924	-200.000	-0.013	-0.449
-309.910	478.524	0.065	0.147
-308.895	800.000	-0.041	-0.161
-307.880	-200.000	-0.049	0.230
-306.866	67.439	0.101	-0.104
-305.851	800.000	0.052	0.172
-304.837	-164.178	-0.091	0.004
-303.822	-50.115	0.163	0.077
-302.807	800.000	-0.025	0.102
-301.793	119.923	0.205	0.254
-300.778	-154.177	-0.271	-0.018
-299.764	-200.000	0.002	0.274
-298.749	-200.000	0.004	-0.033
-297.735	-6.042	-0.151	0.103
-296.720	196.471	0.076	0.116
-295.705	-200.000	-0.023	0.128
-294.691	800.000	-0.021	0.078
-293.676	-120.351	-0.445	0.076
-292.662	-129.160	0.113	-0.016
-291.647	73.060	-0.104	0.108
-290.632	147.998	-0.197	-0.265
-289.618	-200.000	-0.340	0.001
-288.603	-99.313	-0.123	-0.031
-287.589	130.943	-0.155	-0.199
-286.574	800.000	0.070	-0.215
-285.559	-146.895	0.060	-0.005
-284.545	34.340	-0.081	0.071
-283.530	130.827	-0.139	0.179
-282.516	-200.000	-0.057	0.564
-281.501	737.418	-0.068	0.181
-280.486	-88.333	0.364	-0.109
-279.472	800.000	-0.019	0.073
-278.457	-62.551	-0.160	0.066
-277.443	-74.187	0.231	-0.084
-276.428	61.965	0.161	-0.161
-275.413	139.853	-0.111	0.146
-274.399	-13.617	-0.140	-0.090
-273.384	240.056	-0.093	-0.154
-272.370	800.000	0.042	-0.170
-271.355	57.155	0.190	0.185
-270.340	660.484	-0.076	0.195
-269.326	800.000	0.001	-0.002
-268.311	-174.936	0.097	0.003
-267.297	675.395	-0.003	-0.007
-266.282	85.112	-0.084	-0.092
-265.267	122.806	-0.118	-0.147
-264.253	-200.000	-0.020	-0.198
-263.238	-105.530	-0.317	-0.072
-262.224	-44.264	-0.120	-0.060
-261.209	458.628	-0.087	0.193
-260.195	85.560	-0.239	-0.262
-259.180	-109.067	-0.065	0.014
-258.165	72.849	-0.139	0.145
-257.151	99.582	0.218	0.251
-256.136	164.274	-0.038	0.054
-255.122	-107.348	-0.121	-0.027
-254.107	35.324	-0.025	-0.022
-253.092	-99.925	0.339	-0.084
-252.078	-102.426	0.295	0.070
-251.063	-200.000	0.046	0.271
-250.049	-46.205	0.125	-0.061
-249.034	-158.973	-0.026	0.001
-248.019	-24.335	-0.279	-0.166
-247.005	556.323	0.111	0.267
-245.990	-122.317	-0.280	0.046
-244.976	800.000	0.010	0.031
-243.961	260.028	0.131	-0.226
-242.946	-35.357	0.279	-0.151
-241.932	281.439	-0.105	-0.188
-240.917	705.033	0.018	0.048
-239.903	744.813	-0.067	0.181
-238.888	-200.000	0.003	-0.195
-237.873	-99.484	0.205	-0.052
-236.859	71.881	0.063	0.066
-235.844	-4.264	0.021	-0.015
-234.830	-7.985	0.183	0.123
-233.815	-77.449	-0.357	-0.123
-232.800	60.313	-0.064	0.064
-231.786	-164.531	0.034	0.002
-230.771	800.000	0.020	-0.071
-229.757	-198.334	0.188	0.001
-228.742	236.111	0.014	-0.023
-227.727	-70.454	-0.497	0.188
-226.713	168.249	0.148	-0.210
-225.698	800.000	0.044	0.189
-224.684	85.322	-0.282	0.308
-223.669	29.458	0.124	0.105
-222.655	-117.593	-0.170	0.031
-221.640	399.576	0.074	0.155
-220.625	-15.710	0.220	-0.140
-219.611	-200.000	-0.008	-0.306
-218.596	244.495	-0.182	0.306
-217.582	-34.344	-0.214	0.117
-216.567	219.529	-0.149	-0.238
-215.552	-200.000	-0.022	-0.127
-214.538	-73.117	0.149	-0.054
-213.523	619.361	-0.081	-0.202
-212.509	-60.084	-0.333	-0.142
-211.494	-33.802	-0.054	0.030
-210.479	-34.324	-0.244	0.133
-209.465	-53.323	0.092	0.042
-208.450	-200.000	0.027	0.369
-207.436	-85.718	-0.157	0.049
-206.421	227.482	0.237	-0.385
-205.406	566.465	0.075	-0.181
-204.392	-60.062	0.177	-0.075
-203.377	-86.789	-0.200	0.061
-202.363	-115.817	0.216	0.040
-201.348	-35.255	0.035	-0.019
-200.333	45.942	0.072	0.066
-199.319	-101.506	-0.095	-0.023
-198.304	31.576	0.139	0.119
-197.290	-5.736	-0.272	0.185
-196.275	800.000	-0.100	0.306
-195.260	-200.000	0.011	0.057
-194.246	62.653	0.072	-0.072
-193.231	-200.000	0.045	-0.204
-192.217	800.000	0.022	-0.092
-191.202	-142.852	0.186	0.018
-190.187	99.620	-0.274	-0.316
-189.173	129.492	0.146	-0.186
-188.158	800.000	0.110	0.378
-187.144	56.345	0.313	-0.303
-186.129	226.118	0.273	0.440
-185.114	-39.342	-0.176	0.092
-184.100	-14.649	-0.151	0.097
-183.085	-200.000	-0.030	0.220
-182.071	281.818	-0.209	0.372
-181.056	-20.154	-0.165	-0.101
-180.042	-200.000	-0.366	0.001
-179.027	-200.000	0.011	-0.121
-178.012	127.778	0.180	0.228
-176.998	-200.000	0.035	0.556
-175.983	-200.000	0.048	0.260
-174.969	-98.718	-0.340	-0.086
-173.954	-7.449	0.212	-0.143
-172.939	-200.000	0.257	-0.001
-171.925	-106.046	0.378	-0.084
-170.910	-200.000	-0.004	0.412
-169.896	233.826	0.127	-0.208
-168.881	-128.784	-0.467	-0.065
-167.866	200.033	0.057	0.086
-166.852	-200.000	-0.021	-0.121
-165.837	77.562	-0.146	-0.155
-164.823	269.012	0.117	0.203
-163.808	-12.967	0.111	0.072
-162.793	102.982	-0.327	-0.381
-161.779	243.891	0.113	-0.188
-160.764	-104.922	-0.172	0.039
-159.750	24.323	0.169	-0.139
-158.735	78.134	-0.170	0.180
-157.720	-68.077	-0.269	0.104
-156.706	23.156	0.060	0.049
-155.691	-48.791	0.239	0.114
-154.677	352.724	-0.163	-0.322
-153.662	-102.427	0.254	-0.060
-152.647	-65.537	0.110	-0.044
-151.633	800.000	-0.026	0.078
-150.618	164.375	-0.241	0.337
-149.604	-53.016	0.101	-0.046
-148.589	-200.000	0.021	0.312
-147.574	-56.286	-0.017	0.008
-146.560	-78.239	0.095	-0.033
-145.545	800.000	-0.058	-0.186
-144.531	-200.000	0.052	0.573
-143.516	-56.643	-0.149	-0.065
-142.502	3.863	-0.043	-0.031
-141.487	800.000	0.114	0.379
-140.472	277.052	-0.039	-0.069
-139.458	150.680	0.130	-0.175
-138.443	-136.906	-0.237	0.027
-137.429	-28.688	0.361	0.207
-136.414	242.194	-0.135	-0.225
-135.399	-130.242	0.164	0.022
-134.385	758.404	-0.036	-0.097
-133.370	53.440	-0.221	0.211
-132.356	11.412	0.043	0.033
-131.341	-152.224	-0.190	-0.014
-130.326	60.366	0.132	0.129
-129.312	-200.000	-0.058	-0.307
-128.297	441.384	-0.072	-0.157
-127.283	-189.898	0.146	0.002
-126.268	800.000	0.063	-0.273
-125.253	-200.000	0.020	-0.257
-124.239	78.803	-0.075	0.080
-123.224	133.564	-0.154	-0.198
-122.210	77.906	0.285	-0.301
-121.195	800.000	0.061	0.175
-120.180	434.422	0.093	-0.201
-119.166	17.595	0.054	0.042
-118.151	442.602	0.102	0.222
-117.137	-121.660	-0.146	0.024
-116.122	-200.000	0.005	0.154
-115.107	-16.604	0.110	-0.069
-114.093	-180.366	-0.167	0.003
-113.078	-90.000	0.144	0.042
-112.064	-23.644	-0.341	0.203
-111.049	-126.095	-0.216	0.032
-110.034	-200.000	-0.016	0.351
-109.020	-200.000	0.004	-0.268
-108.005	-40.749	-0.220	-0.113
-106.991	-31.804	0.152	-0.085
-105.976	-200.000	-0.011	0.313
-104.962	24.129	0.028	-0.023
-103.947	224.553	-0.155	-0.248
-102.932	57.443	-0.163	-0.158
-101.918	188.396	0.084	0.125
-100.903	800.000	0.099	0.342
-99.889	-175.815	0.152	0.004
-98.874	-200.000	0.003	-0.017
-97.859	-49.813	-0.114	-0.054
-96.845	131.153	-0.050	-0.064
-95.830	-112.524	0.084	-0.017
-94.816	21.696	-0.117	0.094
-93.801	-200.000	0.005	-0.158
-92.786	800.000	0.052	0.144
-91.772	-135.841	-0.094	0.011
-90.757	800.000	0.101	0.306
-89.743	-200.000	0.304	0.000
-88.728	-145.593	0.097	-0.009
-87.713	-200.000	-0.003	0.324
-86.699	800.000	-0.025	0.082
-85.684	345.513	0.081	0.159
-84.670	40.911	-0.168	-0.150
-83.655	-200.000	0.001	-0.217
-82.640	350.758	-0.174	0.340
-81.626	200.790	0.103	0.158
-80.611	-200.000	0.004	-0.211
-79.597	-163.757	-0.184	-0.009
-78.582	136.321	0.118	-0.152
-77.567	-123.679	0.304	-0.048
-76.553	-130.733	-0.238	0.032
-75.538	-200.000	0.053	0.287
-74.524	800.000	-0.057	0.161
-73.509	-24.483	-0.108	-0.064
-72.494	-55.613	0.111	-0.049
-71.480	-144.294	0.242	-0.022
-70.465	-71.781	0.069	-0.026
-69.451	82.396	-0.065	-0.070
-68.436	-35.621	0.175	-0.094
-67.422	13.426	-0.042	-0.032
-66.407	103.506	0.065	-0.075
-65.392	-42.483	0.135	0.068
-64.378	-117.592	0.081	0.014
-63.363	211.996	-0.041	-0.064
-62.349	-200.000	0.002	-0.094
-61.334	189.984	-0.896	-1.332
-60.319	-49.643	0.421	0.199
-59.305	147.935	-0.685	-0.914
-58.290	198.004	0.593	0.898
-57.276	800.000	0.433	1.427
-56.261	-200.000	95.248	567.353
-55.246	632.828	1378.629	3459.414
-54.232	193.141	2564.910	3839.822
-53.217	109.375	2304.818	2733.077
-52.203	39.641	2062.731	1831.639
-51.188	34.945	1977.120	1713.617
-50.173	33.373	1959.074	1683.936
-49.159	48.402	2008.075	1861.649
-48.144	49.751	2026.240	1890.563
-47.130	35.495	1988.181	1727.875
-46.115	33.141	1977.411	1697.344
-45.100	33.057	1974.460	1693.993
-44.086	33.003	1972.953	1692.153
-43.071	32.900	1969.801	1688.459
-42.057	32.830	1968.213	1686.401
-41.042	32.966	1965.964	1685.622
-40.027	32.987	1963.880	1683.953
-39.013	33.017	1961.978	1682.526
-37.998	33.055	1959.681	1680.828
-36.984	33.023	1958.192	1679.200
-35.969	32.989	1956.789	1677.631
-34.954	33.066	1955.004	1676.712
-33.940	33.108	1953.453	1675.687
-32.925	33.118	1951.888	1674.374
-31.911	33.248	1949.878	1673.727
-30.896	33.113	1948.658	1671.421
-29.881	33.179	1946.949	1670.476
-28.867	33.187	1945.863	1669.542
-27.852	33.280	1943.056	1667.889
-26.838	33.189	1941.283	1665.505
-25.823	33.164	1939.671	1663.831
-24.809	33.113	1938.325	1662.164
-23.794	33.124	1936.726	1660.820
-22.779	33.110	1934.650	1658.856
-21.765	33.037	1933.342	1657.030
-20.750	33.104	1931.373	1655.862
-19.736	33.110	1929.725	1654.431
-18.721	33.143	1928.357	1653.482
-17.706	33.004	1926.930	1650.983
-16.692	33.182	1924.638	1650.501
-15.677	33.089	1923.578	1648.719
-14.663	33.128	1921.969	1647.618
-13.648	33.155	1920.821	1646.804
-12.633	33.120	1919.235	1645.067
-11.619	33.108	1918.559	1644.322
-10.604	33.165	1916.521	1643.006
-9.590	33.180	1915.030	1641.794
-8.575	33.084	1914.096	1640.092
-7.560	33.038	1913.355	1638.989
-6.546	33.093	1912.308	1638.505
-5.531	33.142	1910.624	1637.425
-4.517	33.188	1908.752	1636.153
-3.502	33.180	1907.871	1635.265
-2.487	33.085	1907.739	1634.264
-1.473	33.128	1906.251	1633.295
-0.458	33.175	1901.228	1629.330
0.556	33.054	1881.543	1601.565
1.571	28.850	1861.808	1549.278
2.586	24.692	1883.956	1532.016
3.600	23.619	1919.069	1551.065
4.615	22.964	1913.754	1540.915
5.629	17.878	1813.075	1417.596
6.644	9.166	1694.963	1257.208
7.659	5.084	1658.800	1198.956
8.673	4.836	1655.834	1194.804
9.688	4.770	1653.812	1192.735
10.702	4.719	1652.653	1191.401
11.717	4.685	1649.604	1188.841
12.731	5.165	1649.388	1192.244
13.746	10.750	1662.966	1244.856
14.761	18.122	1678.203	1312.971
15.775	20.194	1680.509	1330.577
16.790	19.353	1676.471	1320.821
17.804	18.318	1673.261	1310.258
18.819	17.233	1670.746	1299.875
19.834	16.532	1668.284	1292.490
20.848	16.327	1666.598	1289.504
21.863	15.995	1664.952	1285.586
22.877	15.828	1663.499	1283.074
23.892	15.748	1662.135	1281.305
24.907	15.562	1660.916	1278.835
25.921	15.516	1660.025	1277.684
26.936	15.660	1658.770	1277.702
27.950	15.584	1658.131	1276.514
28.965	15.715	1657.150	1276.645
29.980	15.576	1656.902	1275.284
30.994	15.796	1655.569	1275.815
32.009	15.827	1654.516	1275.126
33.023	15.970	1653.476	1275.296
34.038	15.899	1653.148	1274.385
35.053	15.888	1651.934	1273.255
36.067	15.806	1650.641	1271.525
37.082	15.779	1649.530	1270.354
38.096	15.858	1647.829	1269.530
39.111	15.833	1647.698	1269.126
40.126	15.812	1647.425	1268.649
41.140	15.789	1646.218	1267.434
42.155	15.673	1644.689	1265.271
43.169	15.478	1643.434	1262.723
44.184	15.480	1642.260	1261.726
45.199	15.416	1641.083	1260.229
46.213	15.419	1639.891	1259.225
47.228	15.401	1639.038	1258.322
48.242	15.644	1637.371	1258.757
49.257	15.651	1636.448	1257.981
50.271	15.677	1635.304	1257.184
51.286	15.610	1634.371	1255.860
52.301	15.675	1632.523	1254.816
53.315	15.687	1631.324	1253.868
54.330	15.549	1630.307	1251.949
55.344	15.652	1628.024	1250.854
56.359	15.477	1627.057	1248.695
57.374	15.536	1626.036	1248.244
58.388	15.540	1624.567	1247.030
59.403	15.483	1623.320	1245.540
60.417	15.362	1622.322	1243.765
61.432	15.401	1621.063	1242.980
62.447	15.427	1619.576	1241.926
63.461	15.331	1618.789	1240.504
64.476	15.265	1617.936	1239.249
65.490	15.335	1616.252	1238.368
66.505	15.354	1615.104	1237.522
67.520	15.300	1614.376	1236.451
68.534	15.361	1613.668	1236.254
69.549	15.448	1611.703	1235.279
70.563	15.427	1610.575	1234.146
71.578	15.247	1609.830	1232.148
72.593	15.329	1608.708	1231.783
73.607	15.267	1607.713	1230.453
74.622	15.255	1606.529	1229.353
75.636	15.248	1605.460	1228.375
76.651	15.257	1604.804	1227.830
77.666	15.246	1604.411	1227.335
78.680	15.252	1603.805	1226.810
79.695	15.251	1602.344	1225.573
80.709	15.305	1601.466	1225.187
81.724	15.374	1600.430	1224.795
82.739	15.422	1599.551	1224.364
83.753	15.476	1598.567	1223.897
84.768	15.513	1598.152	1223.740
85.782	15.606	1597.617	1223.894
86.797	15.663	1596.744	1223.538
87.812	15.836	1595.277	1223.560
88.826	15.704	1594.285	1221.732
89.841	15.645	1592.849	1220.096
90.855	15.607	1591.791	1218.901
91.870	15.648	1590.969	1218.459
92.884	15.651	1589.909	1217.567
93.899	15.749	1589.171	1217.604
94.914	15.735	1587.532	1216.139
95.928	15.816	1586.458	1215.789
96.943	15.823	1585.307	1214.850
97.957	15.830	1583.813	1213.650
98.972	15.753	1582.016	1211.614
99.987	15.692	1580.372	1209.807
101.001	15.687	1579.525	1209.014
102.016	15.751	1577.850	1208.086
103.030	15.706	1576.670	1206.755
104.045	15.690	1575.730	1205.812
105.060	15.643	1574.727	1204.596
106.074	15.693	1572.615	1203.235
107.089	15.578	1570.775	1200.900
108.103	15.450	1569.217	1198.689
109.118	15.413	1568.205	1197.546
110.133	15.420	1566.677	1196.323
111.147	15.416	1564.912	1194.842
112.162	15.339	1563.766	1193.313
113.176	15.411	1562.575	1192.808
114.191	15.445	1561.063	1191.791
115.206	15.399	1560.280	1190.762
116.220	15.437	1558.966	1189.922
117.235	15.547	1557.166	1189.222
118.249	15.469	1555.795	1187.516
119.264	15.459	1554.511	1186.358
120.279	15.412	1553.410	1185.082
121.293	15.358	1552.103	1183.604
122.308	15.341	1550.675	1182.285
123.322	15.415	1548.589	1181.111
124.337	15.300	1547.342	1179.250
125.352	15.301	1546.520	1178.526
126.366	15.317	1545.365	1177.656
127.381	15.355	1544.238	1176.956
128.395	15.393	1542.846	1176.060
129.410	15.290	1542.161	1174.714
130.424	15.270	1540.566	1173.252
131.439	15.354	1539.407	1172.855
132.454	15.492	1537.712	1172.424
133.468	15.550	1536.240	1171.598
134.483	15.533	1535.120	1170.523
135.497	15.536	1533.691	1169.353
136.512	15.481	1532.491	1167.951
137.527	15.599	1531.270	1167.736
138.541	15.515	1530.428	1166.407
139.556	15.540	1528.958	1165.361
140.570	15.587	1527.221	1164.260
141.585	15.683	1526.335	1164.146
142.600	15.757	1525.185	1163.674
143.614	15.768	1524.060	1162.787
144.629	15.793	1522.849	1161.938
145.643	15.915	1521.164	1161.390
146.658	15.949	1520.120	1160.726
147.673	15.911	1518.962	1159.472
148.687	15.756	1517.492	1157.186
149.702	15.677	1516.212	1155.563
150.716	15.676	1513.626	1153.485
151.731	15.641	1512.829	1152.532
152.746	15.693	1511.733	1151.953
153.760	15.642	1510.068	1150.233
154.775	15.708	1509.245	1149.953
155.789	15.755	1507.960	1149.198
156.804	15.823	1506.485	1148.434
157.819	15.814	1505.396	1147.437
158.833	15.866	1504.567	1147.060
159.848	15.918	1503.270	1146.322
160.862	15.979	1502.257	1145.868
161.877	15.995	1500.776	1144.744
162.892	15.924	1500.176	1143.705
163.906	15.781	1498.728	1141.528
164.921	15.710	1497.418	1139.949
165.935	15.764	1495.665	1138.880
166.950	15.736	1494.843	1137.964
167.964	15.756	1493.945	1137.309
168.979	15.748	1493.113	1136.527
169.994	15.787	1492.199	1135.991
171.008	15.818	1490.801	1135.039
172.023	15.825	1489.818	1134.235
173.037	15.847	1488.879	1133.570
174.052	15.995	1487.263	1133.231
175.067	15.902	1487.079	1132.364
176.081	15.937	1485.641	1131.403
177.096	15.837	1483.886	1129.298
178.110	15.768	1482.716	1127.843
179.125	15.817	1481.520	1127.163
180.140	15.886	1480.228	1126.546
181.154	15.892	1479.559	1125.975
182.169	15.841	1478.931	1125.056
183.183	15.948	1476.988	1124.194
184.198	16.012	1476.328	1124.018
185.213	16.127	1475.227	1123.845
186.227	16.152	1474.216	1123.143
187.242	16.175	1473.107	1122.355
188.256	16.136	1472.374	1121.434
189.271	16.312	1470.974	1121.437
190.286	16.219	1470.022	1119.999
191.300	16.204	1469.708	1119.559
192.315	15.965	1467.869	1116.473
193.329	15.858	1465.925	1114.192
194.344	15.728	1465.451	1112.872
195.359	15.812	1464.224	1112.397
196.373	15.815	1464.161	1112.268
197.388	15.959	1462.738	1112.038
198.402	16.072	1461.485	1111.735
199.417	16.180	1460.422	1111.538
200.432	16.316	1459.650	1111.751
201.446	16.386	1458.769	1111.439
202.461	16.451	1457.571	1110.856
203.475	16.494	1456.580	1110.287
204.490	16.417	1455.708	1109.015
205.504	16.368	1454.751	1107.871
206.519	16.335	1453.378	1106.509
207.534	16.230	1452.299	1104.904
208.548	16.277	1451.141	1104.227
209.563	16.220	1449.852	1102.776
210.577	16.258	1449.065	1102.329
211.592	16.295	1448.228	1101.841
212.607	16.383	1446.946	1101.338
213.621	16.505	1446.651	1101.812
214.636	16.560	1445.881	1101.483
215.650	16.443	1444.905	1099.886
216.665	16.407	1443.837	1098.736
217.680	16.413	1443.234	1098.222
218.694	16.553	1442.430	1098.424
219.709	16.627	1441.396	1098.020
220.723	16.637	1440.584	1097.368
221.738	16.558	1440.129	1096.412
222.753	16.616	1438.949	1095.794
223.767	16.448	1438.319	1094.127
224.782	16.513	1436.990	1093.438
225.796	16.617	1435.582	1092.944
226.811	16.674	1434.743	1092.580
227.826	16.652	1434.702	1092.308
228.840	16.677	1433.366	1091.354
229.855	16.583	1432.541	1090.026
230.869	16.640	1431.683	1089.639
231.884	16.654	1430.402	1088.662
232.899	16.622	1429.072	1087.348
233.913	16.586	1428.081	1086.263
234.928	16.546	1426.898	1085.009
235.942	16.607	1425.315	1084.105
236.957	16.458	1424.663	1082.559
237.972	16.492	1423.482	1081.784
238.986	16.479	1422.482	1080.843
240.001	16.564	1421.096	1080.235
241.015	16.651	1420.487	1080.235
242.030	16.507	1419.544	1078.505
243.045	16.694	1418.442	1078.763
244.059	16.714	1417.412	1078.012
245.074	16.750	1416.697	1077.597
246.088	16.698	1416.084	1076.706
247.103	16.688	1415.597	1076.179
248.117	16.840	1414.800	1076.444
249.132	16.919	1413.734	1076.039
250.147	16.932	1413.071	1075.519
251.161	17.099	1412.671	1076.180
252.176	17.126	1411.999	1075.746
253.190	17.207	1411.070	1075.454
254.205	17.218	1410.345	1074.877
255.220	17.224	1409.451	1074.138
256.234	17.288	1408.986	1074.090
257.249	17.305	1408.177	1073.487
258.263	17.241	1407.297	1072.316
259.278	17.230	1406.388	1071.462
260.293	17.337	1405.536	1071.389
261.307	17.392	1404.009	1070.481
262.322	17.352	1403.785	1069.962
263.336	17.443	1403.320	1070.081
264.351	17.414	1401.896	1068.722
265.366	17.423	1400.851	1067.888
266.380	17.518	1400.148	1067.853
267.395	17.529	1399.168	1067.079
268.409	17.556	1398.470	1066.624
269.424	17.456	1397.360	1065.054
270.439	17.439	1396.504	1064.199
271.453	17.476	1395.318	1063.433
272.468	17.513	1394.267	1062.768
273.482	17.375	1393.726	1061.405
274.497	17.347	1393.033	1060.607
275.512	17.301	1391.956	1059.405
276.526	17.284	1390.942	1058.437
277.541	17.437	1390.150	1058.689
278.555	17.392	1389.348	1057.707
279.570	17.324	1388.623	1056.639
280.585	17.489	1387.328	1056.581
281.599	17.502	1387.082	1056.383
282.614	17.582	1386.057	1056.008
283.628	17.578	1384.579	1054.762
284.643	17.512	1383.888	1053.734
285.657	17.521	1382.882	1052.930
286.672	17.435	1382.230	1051.805
287.687	17.474	1380.843	1050.903
288.701	17.510	1379.715	1050.172
289.716	17.572	1378.958	1049.883
290.730	17.570	1378.296	1049.274
291.745	17.629	1377.385	1048.849
292.760	17.532	1376.836	1047.746
293.774	17.561	1375.391	1046.733
294.789	17.632	1374.391	1046.311
295.803	17.662	1373.828	1045.976
296.818	17.649	1373.038	1045.202
297.833	17.822	1371.604	1045.075
298.847	17.665	1371.083	1043.627
299.862	17.659	1369.866	1042.571
300.876	17.648	1368.984	1041.743
301.891	17.700	1368.242	1041.400
302.906	17.760	1367.544	1041.143
303.920	17.787	1366.885	1040.717
304.935	17.892	1366.123	1040.684
305.949	17.868	1365.646	1040.081
306.964	18.016	1364.547	1040.055
307.979	18.057	1363.595	1039.485
308.993	17.973	1362.608	1038.132
310.008	17.917	1361.718	1037.020
311.022	17.919	1360.637	1036.120
312.037	18.027	1359.814	1036.055
313.052	17.968	1358.777	1034.816
314.066	17.928	1357.690	1033.655
315.081	17.977	1356.393	1032.871
316.095	17.901	1355.049	1031.297
317.110	17.807	1354.215	1030.004
318.125	17.776	1354.000	1029.559
319.139	17.857	1352.632	1028.917
320.154	17.815	1352.023	1028.110
321.168	17.901	1350.709	1027.538
322.183	17.892	1349.956	1026.823
323.197	17.899	1348.820	1025.910
324.212	17.936	1348.307	1025.647
325.227	17.895	1347.878	1024.984
326.241	17.980	1346.558	1024.403
327.256	17.897	1345.836	1023.263
328.270	17.996	1344.565	1022.801
329.285	17.988	1344.207	1022.388
330.300	17.934	1343.224	1021.230
331.314	17.938	1342.046	1020.266
332.329	17.965	1341.546	1019.955
333.343	17.996	1340.121	1018.967
334.358	17.935	1339.633	1018.141
335.373	18.086	1338.458	1018.058
336.387	18.100	1338.057	1017.748
337.402	18.155	1337.126	1017.279
338.416	18.213	1336.412	1016.988
339.431	18.200	1335.673	1016.256
340.446	18.364	1334.830	1016.502
341.460	18.297	1334.159	1015.500
342.475	18.375	1333.329	1015.244
343.489	18.419	1332.572	1014.835
344.504	18.481	1331.547	1014.335
345.519	18.449	1330.897	1013.559
346.533	18.427	1329.987	1012.649
347.548	18.598	1328.563	1012.483
348.562	18.627	1328.104	1012.212
349.577	18.583	1327.370	1011.304
350.592	18.660	1326.713	1011.172
351.606	18.438	1325.615	1008.939
352.621	18.403	1324.261	1007.610
353.635	18.303	1323.583	1006.418
354.650	18.302	1322.871	1005.781
355.665	18.383	1321.387	1005.037
356.679	18.383	1320.563	1004.321
357.694	18.455	1319.342	1003.729
358.708	18.507	1318.053	1002.964
359.723	18.494	1317.221	1002.167
360.738	18.578	1316.200	1001.791
361.752	18.666	1315.055	1001.341
362.767	18.529	1314.204	999.807
363.781	18.500	1313.357	998.904
364.796	18.584	1312.732	998.835
365.810	18.692	1312.175	998.946
366.825	18.753	1311.094	998.394
367.840	18.739	1310.815	998.008
368.854	18.862	1310.061	998.062
369.869	18.915	1309.626	997.949
370.883	18.922	1308.868	997.325
371.898	18.871	1308.244	996.464
372.913	18.850	1307.014	995.319
373.927	18.791	1306.540	994.526
374.942	18.921	1305.326	994.266
375.956	18.865	1304.851	993.492
376.971	18.815	1304.556	992.891
377.986	18.807	1303.366	991.854
379.000	18.881	1302.419	991.471
380.015	18.980	1301.677	991.390
381.029	19.037	1301.167	991.242
382.044	19.041	1300.216	990.451
383.059	19.150	1299.613	990.532
384.073	19.093	1298.923	989.588
385.088	19.052	1298.066	988.615
386.102	19.037	1297.680	988.149
387.117	19.068	1297.028	987.742
388.132	18.987	1296.332	986.661
389.146	19.012	1295.431	986.030
390.161	18.924	1294.546	984.763
391.175	18.913	1293.602	983.895
392.190	18.944	1292.925	983.474
393.205	18.999	1291.769	982.819
394.219	19.095	1290.967	982.668
395.234	19.118	1289.611	981.685
396.248	19.204	1288.198	981.010
397.263	19.050	1286.878	979.043
398.278	19.106	1285.570	978.276
399.292	19.125	1284.471	977.462
400.307	19.061	1283.238	976.077
401.321	18.914	1282.553	974.634
402.336	18.938	1281.754	974.076
403.350	18.952	1280.598	973.189
404.365	19.073	1279.789	973.177
405.380	18.943	1279.255	971.948
406.394	19.081	1278.192	971.836
407.409	19.118	1277.483	971.420
408.423	19.193	1277.047	971.423
409.438	19.186	1276.445	970.841
410.453	19.305	1275.488	970.696
411.467	19.367	1274.919	970.526
412.482	19.307	1274.541	969.816
413.496	19.361	1273.730	969.417
414.511	19.509	1273.054	969.647
415.526	19.590	1271.873	969.113
416.540	19.556	1271.327	968.422
417.555	19.571	1270.885	968.087
418.569	19.635	1270.193	967.830
419.584	19.613	1270.069	967.528
420.599	19.576	1269.329	966.672
421.613	141.118	1431.757	1792.789
422.628	135.578	1455.399	1792.886
