DTS Sentinel unit serial number:	SN413079Multiplexer serial number:	ORYXHardware model number:	OX4-SRSoftware version number:	ORYX F/W v4.00 Oryx Data Collector v3.7.2.0data status	okinstallation	princeton_trtdifferential loss correction	single-endedforward channel	channel 4reverse channel	N/Adate	2019/09/14time	06:05:34forward acquisition time	60.00reverse acquisition time	0.00gamma	496.2192k internal	0.2322k external	0.2322temperature offset calibration	1.0138default loss term (dB/km)	0.3790temperature slope calibration	1.0000multiplexer offset coefficient	1.0000multiplexer slope coefficient	1.0000fibre end	0.00T internal ref (°C)	26.77T ext. ref 1 (°C)	3.39T ext. ref 2 (°C)	20.96length (m)	temperature (°C)	Stokes	anti-Stokes-747.200	800.000	0.055	0.218
-746.185	-200.000	-0.025	0.247
-745.171	-11.863	-0.167	-0.111
-744.156	54.267	-0.133	-0.129
-743.142	-38.943	0.108	0.057
-742.127	525.025	-0.160	0.379
-741.112	-119.124	0.207	0.037
-740.098	252.782	-0.202	0.349
-739.083	92.951	0.058	-0.067
-738.069	-200.000	-0.023	-0.226
-737.054	434.049	-0.050	-0.109
-736.039	152.377	-0.245	-0.338
-735.025	58.098	0.184	0.182
-734.010	204.047	0.115	-0.180
-732.996	239.315	-0.052	0.087
-731.981	32.126	0.127	-0.111
-730.966	-200.000	-0.069	-0.326
-729.952	-71.562	-0.158	-0.060
-728.937	-200.000	-0.017	-0.546
-727.923	-11.961	-0.124	-0.082
-726.908	13.631	-0.192	-0.150
-725.894	-200.000	0.017	0.392
-724.879	9.680	-0.406	-0.311
-723.864	305.794	-0.266	-0.500
-722.850	384.936	-0.117	-0.244
-721.835	-132.251	0.211	0.028
-720.821	305.559	-0.014	0.025
-719.806	-101.946	-0.280	0.068
-718.791	150.538	-0.055	-0.076
-717.777	-86.365	0.268	-0.083
-716.762	-200.000	0.049	-0.237
-715.748	-200.000	-0.047	-0.225
-714.733	186.688	-0.121	-0.181
-713.718	-130.576	-0.197	-0.027
-712.704	-68.713	0.069	-0.027
-711.689	800.000	0.061	0.242
-710.675	-200.000	-0.007	-0.116
-709.660	-154.792	0.411	0.027
-708.645	-155.403	0.076	0.005
-707.631	-69.251	0.173	-0.067
-706.616	-55.520	-0.311	-0.141
-705.602	388.656	-0.127	-0.266
-704.587	-200.000	-0.020	0.102
-703.572	-200.000	-0.039	-0.205
-702.558	-200.000	-0.018	-0.142
-701.543	-3.897	0.316	0.221
-700.529	-8.738	0.142	-0.096
-699.514	-42.596	0.233	-0.120
-698.499	-175.504	0.144	0.004
-697.485	-100.333	-0.329	-0.082
-696.470	54.798	-0.105	0.102
-695.456	-84.253	-0.147	0.047
-694.441	493.791	-0.199	-0.461
-693.426	-200.000	0.012	-0.275
-692.412	-31.856	-0.133	-0.075
-691.397	62.557	0.213	-0.215
-690.383	308.736	-0.173	-0.327
-689.368	541.591	-0.062	-0.148
-688.354	-200.000	-0.011	-0.211
-687.339	21.235	0.291	0.238
-686.324	88.362	0.098	-0.109
-685.310	149.975	0.178	0.243
-684.295	352.551	0.088	-0.175
-683.281	-172.387	0.134	0.004
-682.266	-57.744	-0.214	-0.094
-681.251	-68.094	-0.070	-0.028
-680.237	-123.493	-0.166	-0.027
-679.222	40.612	-0.159	-0.145
-678.208	800.000	-0.053	-0.188
-677.193	-101.853	0.179	-0.044
-676.178	-20.185	0.163	0.101
-675.164	-13.152	0.133	-0.087
-674.149	-200.000	0.010	-0.128
-673.135	30.400	-0.210	0.181
-672.120	-200.000	-0.032	-0.428
-671.105	176.015	0.196	-0.286
-670.091	675.632	0.036	-0.094
-669.076	81.656	0.253	-0.276
-668.062	-34.821	-0.025	-0.014
-667.047	-128.310	0.200	-0.029
-666.032	11.850	-0.129	-0.100
-665.018	800.000	-0.050	-0.153
-664.003	23.309	-0.131	0.108
-662.989	-200.000	-0.009	0.294
-661.974	-169.148	-0.375	0.014
-660.959	-200.000	-0.003	0.222
-659.945	12.965	0.372	-0.290
-658.930	-135.103	0.550	-0.067
-657.916	-163.052	-0.068	-0.003
-656.901	-68.742	-0.182	0.071
-655.886	-47.451	-0.234	-0.114
-654.872	-200.000	0.002	-0.271
-653.857	-134.352	0.220	-0.027
-652.843	-57.029	-0.201	-0.089
-651.828	-99.921	0.363	-0.091
-650.814	-68.440	0.089	-0.035
-649.799	-32.024	0.100	0.056
-648.784	208.920	-0.041	0.065
-647.770	300.899	0.086	0.160
-646.755	800.000	0.063	-0.250
-645.741	-15.853	-0.149	0.096
-644.726	-41.827	0.064	-0.033
-643.711	-126.835	0.211	0.031
-642.697	-65.905	0.351	-0.141
-641.682	-200.000	-0.034	0.258
-640.668	66.286	-0.146	0.149
-639.653	-121.956	-0.108	0.018
-638.638	155.451	-0.168	0.233
-637.624	-200.000	0.023	0.382
-636.609	-32.469	-0.069	-0.039
-635.595	-90.283	0.222	-0.065
-634.580	196.931	0.126	0.193
-633.565	36.970	-0.144	0.128
-632.551	-29.267	-0.231	-0.133
-631.536	41.072	0.143	0.130
-630.522	-200.000	-0.089	0.486
-629.507	-80.736	0.026	-0.009
-628.492	800.000	0.103	-0.347
-627.478	25.209	0.216	-0.181
-626.463	15.660	-0.177	-0.140
-625.449	800.000	0.045	-0.179
-624.434	-68.394	-0.060	0.023
-623.419	-98.173	0.191	-0.049
-622.405	410.624	0.063	-0.134
-621.390	182.997	0.080	0.119
-620.376	800.000	0.055	0.221
-619.361	-118.219	-0.362	0.065
-618.346	800.000	0.081	-0.229
-617.332	69.450	-0.152	0.158
-616.317	-136.536	0.094	0.011
-615.303	-26.853	-0.286	-0.168
-614.288	800.000	0.101	-0.319
-613.273	-27.627	0.079	0.046
-612.259	94.175	-0.043	-0.049
-611.244	-3.149	0.079	-0.055
-610.230	-22.148	-0.144	0.088
-609.215	-12.763	-0.080	-0.052
-608.201	162.276	-0.209	0.295
-607.186	126.358	-0.068	-0.087
-606.171	-54.422	-0.096	-0.044
-605.157	-200.000	-0.048	0.368
-604.142	98.234	-0.256	0.296
-603.128	210.739	0.132	0.208
-602.113	-69.667	-0.479	0.184
-601.098	232.941	-0.103	-0.171
-600.084	325.540	-0.161	-0.310
-599.069	-200.000	0.037	-0.189
-598.055	-6.120	-0.229	-0.157
-597.040	-103.286	-0.274	0.065
-596.025	-126.249	0.065	-0.010
-595.011	-49.551	0.046	0.022
-593.996	17.898	-0.488	-0.391
-592.982	-73.952	0.274	0.100
-591.967	146.702	-0.043	-0.059
-590.952	289.907	0.100	-0.183
-589.938	-169.945	-0.260	0.009
-588.923	-41.741	-0.099	0.051
-587.909	-105.827	-0.403	0.091
-586.894	349.369	-0.040	-0.079
-585.879	-200.000	0.028	0.211
-584.865	-200.000	-0.007	-0.127
-583.850	125.722	-0.106	0.134
-582.836	7.869	-0.114	-0.086
-581.821	72.373	0.244	0.255
-580.806	-74.556	0.190	-0.069
-579.792	37.237	-0.254	0.225
-578.777	532.671	-0.074	-0.176
-577.763	-200.000	0.102	-0.000
-576.748	176.748	-0.156	0.227
-575.733	-88.955	-0.119	-0.035
-574.719	33.545	0.168	0.147
-573.704	800.000	-0.095	-0.334
-572.690	-200.000	-0.001	-0.126
-571.675	195.942	-0.075	0.115
-570.661	133.917	0.136	0.176
-569.646	-200.000	-0.005	0.200
-568.631	-23.126	0.138	-0.083
-567.617	800.000	0.008	-0.027
-566.602	-168.379	-0.159	-0.006
-565.588	-48.796	-0.261	0.126
-564.573	-78.333	-0.151	0.052
-563.558	-200.000	0.036	-0.166
-562.544	55.388	0.285	0.276
-561.529	-138.287	0.171	-0.019
-560.515	-58.271	-0.264	-0.115
-559.500	-133.739	0.090	-0.011
-558.485	-200.000	0.002	-0.324
-557.471	127.487	-0.160	0.204
-556.456	-59.025	-0.264	0.114
-555.442	-200.000	0.023	0.127
-554.427	23.389	-0.160	0.132
-553.412	-96.603	0.305	0.081
-552.398	73.727	0.116	0.122
-551.383	61.367	-0.166	-0.166
-550.369	-13.468	-0.126	0.082
-549.354	258.070	0.271	-0.468
-548.339	-200.000	0.036	0.173
-547.325	137.936	0.148	0.194
-546.310	-5.626	-0.111	0.077
-545.296	-76.955	0.247	0.086
-544.281	-31.831	-0.188	-0.106
-543.266	152.805	0.070	0.096
-542.252	-49.505	-0.358	-0.171
-541.237	12.407	0.215	-0.166
-540.223	-200.000	0.018	0.360
-539.208	-11.897	0.196	-0.129
-538.193	41.106	-0.102	-0.093
-537.179	-38.524	-0.110	-0.059
-536.164	800.000	0.125	-0.396
-535.150	-146.322	-0.248	-0.022
-534.135	-143.549	0.268	0.026
-533.121	163.918	0.036	0.051
-532.106	85.585	-0.205	0.226
-531.091	256.420	0.055	0.094
-530.077	296.403	-0.110	0.203
-529.062	-73.891	-0.425	0.155
-528.048	-98.500	-0.072	0.018
-527.033	-200.000	0.012	0.164
-526.018	-200.000	0.029	-0.133
-525.004	12.944	0.151	-0.117
-523.989	800.000	-0.021	-0.067
-522.975	26.973	0.237	0.199
-521.960	512.303	-0.113	-0.265
-520.945	84.333	-0.138	-0.151
-519.931	-100.133	0.292	-0.073
-518.916	-75.548	0.171	0.061
-517.902	-23.821	0.227	0.136
-516.887	25.787	0.204	-0.170
-515.872	63.047	-0.205	0.206
-514.858	-72.403	-0.222	0.082
-513.843	362.455	-0.065	-0.131
-512.829	-200.000	-0.009	-0.161
-511.814	6.205	-0.227	0.169
-510.799	107.595	0.171	-0.204
-509.785	164.713	0.164	-0.231
-508.770	-200.000	-0.009	0.279
-507.756	15.447	-0.316	0.248
-506.741	800.000	-0.015	-0.053
-505.726	89.837	-0.170	0.190
-504.712	-200.000	0.058	0.308
-503.697	-200.000	0.011	0.225
-502.683	-78.827	0.118	-0.040
-501.668	800.000	-0.090	0.279
-500.653	268.639	0.031	0.055
-499.639	-141.736	0.152	-0.015
-498.624	800.000	0.119	0.352
-497.610	800.000	-0.048	0.189
-496.595	-72.218	-0.121	-0.045
-495.581	-200.000	0.041	-0.457
-494.566	800.000	0.061	0.211
-493.551	-116.659	0.147	0.027
-492.537	96.734	0.159	0.183
-491.522	519.026	0.099	-0.231
-490.508	-140.384	0.166	-0.017
-489.493	-200.000	0.068	-0.403
-488.478	-39.073	-0.069	-0.036
-487.464	269.106	-0.069	0.122
-486.449	163.301	0.197	-0.277
-485.435	-87.657	0.215	-0.065
-484.420	41.468	0.198	0.180
-483.405	-143.639	0.369	0.035
-482.391	673.327	-0.038	0.097
-481.376	178.164	0.097	-0.142
-480.362	800.000	-0.112	-0.415
-479.347	176.963	0.088	0.128
-478.332	88.775	-0.153	-0.170
-477.318	21.471	-0.149	0.121
-476.303	83.570	-0.061	0.066
-475.289	93.832	-0.191	0.217
-474.274	54.800	0.122	-0.118
-473.259	-63.945	0.254	0.104
-472.245	-129.876	0.188	0.026
-471.230	-192.156	-0.161	-0.002
-470.216	-131.638	0.362	-0.048
-469.201	-21.355	0.183	0.112
-468.186	-50.263	0.347	0.164
-467.172	800.000	-0.031	0.125
-466.157	-102.277	-0.174	0.042
-465.143	-80.721	-0.113	-0.038
-464.128	-23.524	-0.279	0.167
-463.113	662.415	0.046	-0.119
-462.099	-114.670	0.353	0.067
-461.084	390.778	-0.101	-0.210
-460.070	78.330	0.288	0.307
-459.055	-133.141	0.336	-0.042
-458.040	287.032	0.041	0.075
-457.026	91.711	-0.180	-0.202
-456.011	800.000	0.074	-0.220
-454.997	-62.365	-0.199	-0.083
-453.982	-200.000	0.037	-0.240
-452.968	-84.873	0.044	-0.014
-451.953	192.543	0.113	-0.171
-450.938	-73.026	0.129	-0.047
-449.924	-141.066	-0.131	0.013
-448.909	-200.000	0.006	-0.163
-447.895	-200.000	-0.015	0.156
-446.880	-118.225	-0.198	-0.035
-445.865	-200.000	-0.037	0.255
-444.851	46.072	-0.154	-0.142
-443.836	77.639	0.171	0.182
-442.822	-157.989	0.233	-0.014
-441.807	-200.000	-0.030	0.186
-440.792	28.787	-0.147	0.124
-439.778	-98.805	0.172	-0.044
-438.763	109.087	0.148	0.177
-437.749	160.072	-0.180	0.250
-436.734	97.154	-0.063	-0.072
-435.719	-99.144	-0.186	0.047
-434.705	77.991	0.139	-0.148
-433.690	-150.724	0.359	-0.027
-432.676	-98.063	-0.330	-0.085
-431.661	63.697	-0.048	0.048
-430.646	133.373	-0.135	0.174
-429.632	-200.000	0.001	-0.090
-428.617	-200.000	-0.008	-0.192
-427.603	-200.000	-0.011	0.061
-426.588	-200.000	0.016	-0.127
-425.573	-109.383	0.197	0.042
-424.559	-67.455	-0.122	0.048
-423.544	-200.000	-0.005	-0.092
-422.530	-26.042	0.134	-0.079
-421.515	464.663	0.131	-0.293
-420.500	-200.000	-0.021	0.095
-419.486	247.353	-0.259	0.436
-418.471	-139.636	-0.210	-0.022
-417.457	105.396	-0.180	-0.212
-416.442	800.000	0.049	0.172
-415.428	360.875	0.058	-0.116
-414.413	-200.000	0.023	-0.181
-413.398	80.125	0.068	0.073
-412.384	-78.214	0.268	0.092
-411.369	-130.106	-0.166	0.023
-410.355	-22.180	0.223	0.135
-409.340	189.596	-0.166	-0.249
-408.325	-80.893	0.208	0.069
-407.311	-90.378	-0.077	0.022
-406.296	-40.351	0.131	0.068
-405.282	-152.701	-0.242	0.017
-404.267	-200.000	-0.014	-0.084
-403.252	800.000	0.062	-0.221
-402.238	800.000	-0.092	0.396
-401.223	38.473	-0.046	0.040
-400.209	-171.849	-0.043	-0.001
-399.194	-47.572	-0.147	-0.071
-398.179	154.332	-0.070	-0.095
-397.165	334.340	0.124	0.239
-396.150	147.939	-0.051	-0.068
-395.136	-79.287	0.129	0.043
-394.121	-200.000	-0.000	-0.343
-393.106	437.509	0.037	0.081
-392.092	-34.360	-0.358	-0.196
-391.077	-164.328	0.227	-0.010
-390.063	-40.005	0.304	-0.158
-389.048	-29.752	-0.402	-0.228
-388.033	47.125	0.175	0.163
-387.019	-71.655	0.103	0.038
-386.004	-200.000	-0.010	-0.132
-384.990	-200.000	0.024	0.127
-383.975	154.144	0.320	-0.437
-382.960	800.000	-0.120	-0.375
-381.946	329.980	0.057	-0.109
-380.931	134.760	-0.045	0.059
-379.917	-69.556	-0.090	-0.034
-378.902	-200.000	0.007	0.045
-377.888	218.948	0.036	0.057
-376.873	-123.975	-0.090	-0.014
-375.858	-200.000	0.044	0.219
-374.844	-127.097	0.235	0.034
-373.829	-114.450	0.109	-0.021
-372.815	-21.002	-0.011	-0.007
-371.800	222.953	0.094	0.150
-370.785	281.965	0.085	-0.152
-369.771	29.507	0.260	0.220
-368.756	-76.106	-0.183	0.064
-367.742	135.884	0.037	-0.048
-366.727	-102.791	-0.062	-0.015
-365.712	-200.000	0.026	-0.263
-364.698	800.000	0.098	0.276
-363.683	3.943	-0.145	0.105
-362.669	-162.502	0.166	0.008
-361.654	800.000	0.056	0.162
-360.639	86.347	0.225	-0.247
-359.625	-157.328	0.406	0.024
-358.610	426.965	0.088	-0.189
-357.596	-113.802	0.163	0.032
-356.581	101.578	-0.115	0.133
-355.566	-58.039	-0.253	-0.110
-354.552	-110.134	0.201	0.042
-353.537	-200.000	-0.017	0.134
-352.523	540.560	0.046	0.110
-351.508	-74.728	-0.428	0.153
-350.493	-71.959	0.191	-0.071
-349.479	800.000	0.056	0.169
-348.464	-22.018	-0.139	-0.084
-347.450	-39.818	-0.192	-0.100
-346.435	40.036	0.142	0.127
-345.420	-200.000	0.029	-0.269
-344.406	-200.000	0.034	0.211
-343.391	-49.645	0.255	-0.121
-342.377	-200.000	-0.050	-0.383
-341.362	325.900	-0.074	0.142
-340.348	-167.856	-0.185	-0.007
-339.333	-43.724	-0.205	-0.103
-338.318	800.000	0.034	0.140
-337.304	15.498	-0.143	0.112
-336.289	-25.062	-0.047	-0.028
-335.275	702.405	-0.116	-0.303
-334.260	-104.418	-0.102	0.024
-333.245	800.000	0.051	0.140
-332.231	-200.000	-0.012	-0.144
-331.216	-38.676	-0.230	-0.121
-330.202	-183.028	-0.026	0.000
-329.187	-91.073	-0.369	-0.105
-328.172	-182.345	0.266	0.005
-327.158	-116.398	-0.200	0.037
-326.143	529.441	-0.080	-0.189
-325.129	-20.601	0.040	-0.024
-324.114	107.054	-0.119	0.140
-323.099	-17.533	-0.125	0.078
-322.085	124.295	-0.223	0.279
-321.070	-164.430	-0.282	-0.013
-320.056	-200.000	0.023	-0.245
-319.041	5.045	0.170	0.124
-318.026	47.989	0.253	0.235
-317.012	107.075	-0.036	0.043
-315.997	-185.440	-0.223	-0.003
-314.983	152.522	0.190	0.258
-313.968	-130.642	-0.244	0.033
-312.953	416.241	-0.103	-0.219
-311.939	-103.454	-0.181	0.042
-310.924	-110.020	0.156	-0.032
-309.910	9.277	-0.169	0.127
-308.895	313.060	-0.039	0.073
-307.880	64.556	-0.064	-0.064
-306.866	-200.000	-0.016	-0.196
-305.851	254.914	0.183	-0.311
-304.837	474.656	-0.038	-0.085
-303.822	72.162	0.265	-0.274
-302.807	-74.725	0.340	0.121
-301.793	800.000	-0.042	0.121
-300.778	800.000	-0.054	0.221
-299.764	214.250	-0.158	-0.249
-298.749	-25.875	0.345	0.202
-297.735	800.000	-0.037	-0.115
-296.720	-200.000	-0.037	0.303
-295.705	-125.960	0.147	-0.022
-294.691	221.585	-0.059	0.094
-293.676	-37.884	0.178	-0.094
-292.662	-86.157	-0.121	0.037
-291.647	-200.000	-0.012	-0.095
-290.632	35.857	-0.249	0.217
-289.618	-44.580	0.049	0.024
-288.603	229.863	0.048	0.079
-287.589	-98.571	0.123	0.031
-286.574	476.233	0.125	0.281
-285.559	-200.000	-0.032	-0.211
-284.545	-200.000	-0.027	-0.142
-283.530	-114.978	-0.028	0.005
-282.516	-30.912	0.092	-0.051
-281.501	-200.000	-0.018	-0.155
-280.486	800.000	-0.090	-0.361
-279.472	-97.578	-0.370	-0.095
-278.457	24.347	0.207	-0.170
-277.443	-190.708	-0.167	-0.002
-276.428	800.000	0.021	-0.078
-275.413	800.000	0.028	0.077
-274.399	-200.000	0.024	-0.182
-273.384	-200.000	0.003	0.042
-272.370	-140.036	-0.105	-0.011
-271.355	800.000	-0.125	0.385
-270.340	-20.042	0.174	-0.107
-269.326	662.681	-0.109	-0.278
-268.311	-200.000	0.003	-0.130
-267.297	1.471	0.085	-0.060
-266.282	800.000	-0.052	0.148
-265.267	26.628	-0.062	-0.052
-264.253	-82.194	0.022	-0.007
-263.238	180.421	-0.040	-0.058
-262.224	26.902	-0.130	0.108
-261.209	-200.000	-0.002	-0.245
-260.195	86.333	0.187	0.205
-259.180	-91.608	0.095	0.027
-258.165	131.349	0.057	-0.072
-257.151	-148.099	0.207	-0.017
-256.136	121.505	0.236	-0.291
-255.122	-200.000	-0.011	-0.314
-254.107	-75.132	-0.280	-0.099
-253.092	-110.405	-0.323	0.066
-252.078	-48.702	0.238	-0.113
-251.063	84.280	-0.366	-0.397
-250.049	800.000	-0.122	-0.342
-249.034	358.834	-0.058	-0.115
-248.019	-73.609	-0.138	-0.050
-247.005	-200.000	0.032	-0.234
-245.990	205.657	0.071	0.109
-244.976	-116.031	0.116	-0.021
-243.961	436.709	0.051	0.110
-242.946	517.694	-0.050	-0.116
-241.932	40.561	0.105	0.094
-240.917	-200.000	-0.010	0.306
-239.903	225.282	0.088	-0.140
-238.888	64.713	-0.100	-0.099
-237.873	-45.930	0.075	0.037
-236.859	-6.751	0.121	0.082
-235.844	-152.425	-0.061	-0.004
-234.830	169.613	-0.114	-0.162
-233.815	116.004	-0.169	-0.204
-232.800	-3.997	0.191	0.131
-231.786	-58.582	0.191	0.082
-230.771	14.789	-0.110	-0.085
-229.757	499.187	0.089	-0.204
-228.742	-200.000	0.002	0.111
-227.727	40.256	0.177	-0.157
-226.713	5.169	-0.102	-0.075
-225.698	-135.853	-0.099	-0.012
-224.684	-127.182	0.248	-0.036
-223.669	623.201	0.133	0.333
-222.655	-200.000	-0.003	-0.145
-221.640	14.477	-0.223	0.172
-220.625	-87.289	0.277	0.083
-219.611	800.000	0.049	0.159
-218.596	800.000	-0.035	0.117
-217.582	-200.000	0.008	0.104
-216.567	411.659	0.102	0.214
-215.552	-20.894	0.284	-0.172
-214.538	-97.678	0.211	-0.054
-213.523	-27.230	-0.234	-0.135
-212.509	24.822	-0.216	-0.177
-211.494	39.490	-0.098	-0.087
-210.479	-200.000	0.077	0.480
-209.465	-200.000	0.057	-0.426
-208.450	444.974	-0.098	-0.213
-207.436	-9.290	-0.451	-0.298
-206.421	-93.759	-0.128	-0.035
-205.406	644.718	-0.073	-0.184
-204.392	-127.157	0.283	-0.041
-203.377	-101.125	-0.038	-0.009
-202.363	800.000	0.141	0.481
-201.348	112.222	-0.238	0.285
-200.333	130.591	-0.139	-0.176
-199.319	-96.374	-0.133	-0.035
-198.304	-173.747	0.292	-0.009
-197.290	119.383	-0.069	0.084
-196.275	24.671	0.041	0.034
-195.260	-182.187	0.115	-0.002
-194.246	-136.842	0.116	-0.013
-193.231	-200.000	-0.026	0.175
-192.217	7.111	-0.151	-0.111
-191.202	800.000	0.092	-0.252
-190.187	-200.000	-0.004	0.230
-189.173	-124.850	0.198	-0.030
-188.158	-200.000	-0.026	-0.398
-187.144	75.502	0.203	0.212
-186.129	77.178	-0.177	0.186
-185.114	-200.000	0.033	-0.285
-184.100	-52.120	0.051	0.024
-183.085	546.601	0.022	0.052
-182.071	-83.994	-0.156	0.049
-181.056	221.474	0.127	0.202
-180.042	-11.072	0.125	-0.081
-179.027	183.989	-0.236	-0.345
-178.012	409.771	0.021	0.045
-176.998	127.684	0.210	0.264
-175.983	86.789	0.059	0.065
-174.969	-100.900	-0.141	-0.034
-173.954	-113.417	0.202	-0.039
-172.939	-35.059	-0.121	-0.065
-171.925	515.680	0.071	0.163
-170.910	-200.000	0.012	0.131
-169.896	61.087	0.124	-0.121
-168.881	37.254	0.211	0.185
-167.866	-200.000	-0.004	-0.129
-166.852	-146.303	0.148	0.013
-165.837	608.276	0.108	0.266
-164.823	54.883	0.215	-0.205
-163.808	-200.000	-0.001	-0.017
-162.793	62.482	-0.121	0.120
-161.779	-101.479	-0.228	0.055
-160.764	-116.634	0.279	0.051
-159.750	-23.312	-0.233	-0.139
-158.735	800.000	0.055	0.214
-157.720	-200.000	-0.063	0.325
-156.706	-164.627	-0.230	-0.010
-155.691	-200.000	-0.014	0.081
-154.677	-191.649	-0.357	0.004
-153.662	-48.080	0.172	-0.082
-152.647	-148.634	0.136	0.011
-151.633	75.328	0.265	0.276
-150.618	9.327	-0.263	0.197
-149.604	-5.466	-0.082	-0.055
-148.589	-128.061	0.220	0.031
-147.574	-97.104	0.208	-0.054
-146.560	334.372	-0.073	-0.139
-145.545	-23.685	0.150	-0.089
-144.531	116.350	-0.182	-0.220
-143.516	-123.754	0.261	-0.041
-142.502	93.958	-0.162	0.181
-141.487	-116.100	-0.129	0.024
-140.472	-184.268	-0.188	0.003
-139.458	-112.453	-0.228	-0.045
-138.443	-132.035	0.046	0.006
-137.429	-93.677	0.224	-0.061
-136.414	647.090	0.106	-0.267
-135.399	-85.058	-0.171	0.053
-134.385	156.631	0.091	-0.124
-133.370	-200.000	-0.004	-0.313
-132.356	-200.000	-0.001	0.054
-131.341	800.000	-0.114	-0.356
-130.326	-200.000	0.012	-0.219
-129.312	215.430	-0.137	0.215
-128.297	-200.000	-0.011	0.157
-127.283	-2.089	0.186	0.129
-126.268	800.000	0.052	0.150
-125.253	800.000	-0.037	0.101
-124.239	-51.814	-0.144	0.066
-123.224	53.934	0.286	0.272
-122.210	82.938	0.043	0.046
-121.195	-18.028	-0.157	0.097
-120.180	-200.000	-0.006	0.099
-119.166	-200.000	0.049	-0.233
-118.151	-91.381	0.052	0.015
-117.137	79.081	0.159	0.168
-116.122	93.247	0.132	-0.148
-115.107	800.000	-0.049	-0.208
-114.093	-93.296	-0.344	-0.094
-113.078	-200.000	0.011	-0.309
-112.064	-200.000	-0.031	0.189
-111.049	728.512	0.072	0.190
-110.034	103.276	0.039	0.045
-109.020	313.210	-0.082	-0.153
-108.005	105.319	0.214	-0.249
-106.991	-200.000	0.006	-0.379
-105.976	-41.477	0.157	-0.080
-104.962	231.944	0.219	-0.354
-103.947	800.000	-0.060	-0.218
-102.932	-109.571	0.288	-0.060
-101.918	-200.000	0.077	0.333
-100.903	-0.849	-0.087	-0.061
-99.889	-138.343	0.198	0.022
-98.874	800.000	-0.070	0.230
-97.859	36.838	-0.199	0.173
-96.845	800.000	-0.079	-0.336
-95.830	708.243	-0.088	-0.230
-94.816	-88.223	0.146	-0.043
-93.801	211.808	-0.107	-0.166
-92.786	-143.728	-0.087	-0.008
-91.772	5.035	0.111	0.080
-90.757	65.416	0.209	0.208
-89.743	-22.902	0.202	-0.120
-88.728	383.748	0.100	0.202
-87.713	178.200	-0.178	0.255
-86.699	119.693	0.126	0.154
-85.684	3.532	-0.110	0.079
-84.670	800.000	0.106	-0.396
-83.655	50.979	-0.167	-0.156
-82.640	-200.000	-0.034	-0.175
-81.626	295.215	0.070	-0.126
-80.611	151.110	-0.061	-0.081
-79.597	145.839	0.267	0.352
-78.582	-46.523	0.214	-0.103
-77.567	10.872	-0.269	-0.202
-76.553	800.000	-0.065	0.221
-75.538	386.303	-0.104	0.210
-74.524	800.000	0.028	0.101
-73.509	7.038	-0.108	-0.079
-72.494	46.381	-0.065	0.059
-71.480	96.241	0.214	0.241
-70.465	-200.000	0.025	0.161
-69.451	800.000	0.033	-0.093
-68.436	-49.776	-0.272	-0.127
-67.422	-200.000	0.044	0.261
-66.407	-104.686	-0.141	0.032
-65.392	-141.813	0.233	0.023
-64.378	-200.000	-0.014	0.224
-63.363	800.000	-0.080	-0.279
-62.349	-154.060	0.102	-0.007
-61.334	94.775	-1.033	-1.156
-60.319	303.750	0.392	0.715
-59.305	-200.000	-0.109	-1.072
-58.290	-200.000	0.201	1.119
-57.276	444.799	0.764	1.651
-56.261	-200.000	116.147	650.305
-55.246	507.067	1537.807	3508.966
-54.232	171.541	2721.742	3843.269
-53.217	96.789	2337.114	2633.853
-52.203	33.370	2080.914	1776.732
-51.188	28.537	1995.396	1660.024
-50.173	27.214	1978.346	1633.900
-49.159	44.864	2038.576	1845.242
-48.144	43.670	2053.648	1847.911
-47.130	29.012	2011.916	1677.836
-46.115	26.717	2001.982	1648.638
-45.100	26.756	1998.658	1646.183
-44.086	26.710	1996.067	1643.570
-43.071	26.698	1993.493	1641.274
-42.057	26.597	1992.011	1639.075
-41.042	26.644	1989.727	1637.556
-40.027	26.677	1987.293	1635.786
-39.013	26.720	1985.598	1634.718
-37.998	26.653	1984.108	1632.821
-36.984	26.727	1982.276	1631.912
-35.969	26.748	1980.302	1630.414
-34.954	26.662	1978.414	1628.021
-33.940	26.747	1976.771	1627.367
-32.925	26.828	1975.159	1626.703
-31.911	26.804	1973.723	1625.245
-30.896	26.740	1972.073	1623.247
-29.881	26.804	1970.613	1622.551
-28.867	26.792	1969.322	1621.316
-27.852	26.802	1967.630	1619.948
-26.838	26.804	1965.112	1617.824
-25.823	26.835	1963.473	1616.694
-24.809	26.866	1961.419	1615.213
-23.794	26.761	1959.970	1613.020
-22.779	26.818	1958.088	1611.915
-21.765	26.773	1956.791	1610.388
-20.750	26.920	1954.679	1609.885
-19.736	26.765	1953.248	1607.265
-18.721	26.739	1951.935	1605.899
-17.706	26.761	1950.317	1604.693
-16.692	26.775	1948.962	1603.637
-15.677	26.740	1946.929	1601.590
-14.663	26.771	1945.551	1600.670
-13.648	26.749	1944.394	1599.458
-12.633	26.793	1943.364	1598.936
-11.619	26.745	1941.855	1597.208
-10.604	26.750	1940.285	1595.900
-9.590	26.797	1938.586	1594.853
-8.575	26.763	1937.673	1593.736
-7.560	26.789	1936.204	1592.693
-6.546	26.771	1935.157	1591.612
-5.531	26.756	1933.928	1590.411
-4.517	26.863	1931.835	1589.564
-3.502	26.757	1931.516	1588.307
-2.487	26.768	1930.103	1587.175
-1.473	26.736	1929.552	1586.378
-0.458	26.822	1924.136	1582.617
0.556	27.474	1904.821	1553.285
1.571	23.140	1885.490	1500.713
2.586	19.157	1908.935	1484.962
3.600	18.089	1944.587	1503.177
4.615	17.629	1936.757	1492.954
5.629	13.438	1835.330	1379.779
6.644	6.623	1722.249	1241.179
7.659	3.682	1690.504	1195.459
8.673	3.377	1687.532	1190.894
9.688	3.366	1686.151	1189.728
10.702	3.416	1684.768	1189.031
11.717	3.412	1681.065	1186.282
12.731	3.732	1680.150	1187.995
13.746	8.438	1690.752	1231.727
14.761	15.941	1707.429	1301.978
15.775	19.930	1714.307	1337.999
16.790	20.183	1713.891	1339.515
17.804	19.270	1710.377	1329.607
18.819	18.280	1707.576	1319.679
19.834	17.693	1704.808	1312.907
20.848	17.484	1703.611	1310.260
21.863	17.294	1701.922	1307.382
22.877	17.051	1700.508	1304.315
23.892	16.908	1699.018	1301.960
24.907	16.913	1698.589	1301.554
25.921	16.883	1696.773	1299.819
26.936	16.800	1696.002	1298.477
27.950	16.795	1695.322	1297.798
28.965	16.848	1694.728	1297.638
29.980	16.988	1694.233	1298.213
30.994	17.034	1693.277	1297.720
32.009	17.170	1691.153	1297.012
33.023	17.148	1690.654	1296.352
34.038	17.261	1689.712	1296.373
35.053	17.175	1688.781	1294.894
36.067	17.186	1687.296	1293.722
37.082	17.021	1686.560	1291.787
38.096	16.968	1685.484	1290.445
39.111	17.097	1684.639	1290.666
40.126	17.180	1684.015	1290.706
41.140	17.149	1682.745	1289.379
42.155	16.952	1680.995	1286.433
43.169	16.767	1679.696	1283.924
44.184	16.725	1678.142	1282.305
45.199	16.659	1677.206	1280.973
46.213	16.656	1675.778	1279.748
47.228	16.675	1675.142	1279.294
48.242	16.854	1673.899	1279.577
49.257	16.872	1673.387	1279.209
50.271	16.952	1671.742	1278.442
51.286	16.891	1670.698	1277.072
52.301	16.889	1669.228	1275.822
53.315	16.963	1667.700	1275.094
54.330	16.933	1666.317	1273.698
55.344	16.754	1664.781	1271.073
56.359	16.761	1662.823	1269.515
57.374	16.817	1662.008	1269.204
58.388	16.824	1660.869	1268.270
59.403	16.767	1659.365	1266.581
60.417	16.634	1657.821	1264.297
61.432	16.620	1656.869	1263.362
62.447	16.675	1655.410	1262.540
63.461	16.619	1654.480	1261.303
64.476	16.540	1653.489	1259.851
65.490	16.513	1652.569	1258.834
66.505	16.509	1650.881	1257.407
67.520	16.485	1650.756	1257.021
68.534	16.514	1649.364	1256.071
69.549	16.541	1647.944	1255.074
70.563	16.637	1646.565	1254.631
71.578	16.639	1645.125	1253.431
72.593	16.489	1644.419	1251.672
73.607	16.425	1643.513	1250.398
74.622	16.405	1642.263	1249.195
75.636	16.410	1641.409	1248.465
76.651	16.493	1639.901	1247.824
77.666	16.469	1639.489	1247.222
78.680	16.451	1638.615	1246.311
79.695	16.413	1638.014	1245.463
80.709	16.443	1637.548	1245.226
81.724	16.660	1635.734	1245.334
82.739	16.663	1635.438	1245.019
83.753	16.741	1634.280	1244.596
84.768	16.805	1633.466	1244.341
85.782	16.917	1632.921	1244.634
86.797	16.972	1632.281	1244.437
87.812	16.982	1631.201	1243.583
88.826	16.929	1629.697	1241.934
89.841	16.972	1628.991	1241.603
90.855	16.920	1627.923	1240.301
91.870	17.038	1626.886	1240.259
92.884	17.106	1625.361	1239.484
93.899	17.040	1625.497	1238.998
94.914	17.044	1623.820	1237.636
95.928	17.056	1622.474	1236.591
96.943	17.145	1620.686	1235.763
97.957	17.124	1619.702	1234.751
98.972	17.003	1618.074	1232.525
99.987	17.109	1616.642	1232.095
101.001	17.097	1614.580	1230.327
102.016	17.042	1613.494	1228.990
103.030	17.021	1612.413	1227.911
104.045	17.025	1611.082	1226.816
105.060	17.057	1609.637	1225.841
106.074	17.017	1608.135	1224.298
107.089	16.897	1606.234	1221.873
108.103	16.590	1605.410	1218.932
109.118	16.538	1603.130	1216.713
110.133	16.524	1601.548	1215.305
111.147	16.651	1600.272	1215.146
112.162	16.572	1598.942	1213.458
113.176	16.647	1597.365	1212.693
114.191	16.697	1596.448	1212.244
115.206	16.790	1594.745	1211.509
116.220	16.738	1593.908	1210.394
117.235	16.729	1592.424	1209.096
118.249	16.723	1591.291	1208.089
119.264	16.651	1589.998	1206.488
120.279	16.658	1588.312	1205.150
121.293	16.569	1587.127	1203.510
122.308	16.588	1585.264	1202.126
123.322	16.545	1583.333	1200.253
124.337	16.478	1582.214	1198.822
125.352	16.451	1581.007	1197.608
126.366	16.468	1579.988	1196.855
127.381	16.443	1579.045	1195.856
128.395	16.450	1577.602	1194.705
129.410	16.498	1576.186	1193.869
130.424	16.464	1575.192	1192.771
131.439	16.530	1573.589	1191.914
132.454	16.598	1572.720	1191.632
133.468	16.668	1571.144	1190.821
134.483	16.707	1569.586	1189.808
135.497	16.689	1568.684	1188.899
136.512	16.684	1567.111	1187.565
137.527	16.646	1566.236	1186.532
138.541	16.637	1565.197	1185.575
139.556	16.799	1563.032	1184.964
140.570	16.732	1562.553	1184.028
141.585	16.857	1560.937	1183.569
142.600	16.986	1559.673	1183.408
143.614	17.025	1558.458	1182.649
144.629	17.118	1556.960	1182.055
145.643	17.125	1556.130	1181.372
146.658	17.277	1554.012	1180.713
147.673	17.168	1552.613	1178.793
148.687	17.043	1551.607	1177.056
149.702	16.932	1549.927	1174.911
150.716	16.776	1548.465	1172.619
151.731	16.830	1547.134	1171.879
152.746	16.874	1545.824	1171.085
153.760	16.893	1544.173	1169.862
154.775	16.907	1543.282	1169.183
155.789	17.049	1541.778	1168.916
156.804	16.935	1540.976	1167.422
157.819	16.996	1539.976	1166.981
158.833	16.957	1539.099	1165.942
159.848	17.183	1537.382	1166.090
160.862	17.225	1536.467	1165.579
161.877	17.232	1535.162	1164.539
162.892	17.121	1533.965	1162.766
163.906	16.945	1532.559	1160.392
164.921	16.839	1531.373	1158.666
165.935	16.886	1530.257	1158.043
166.950	16.963	1529.200	1157.668
167.964	16.991	1528.087	1156.908
168.979	17.075	1526.636	1156.284
169.994	17.047	1525.569	1155.181
171.008	16.908	1524.567	1153.373
172.023	17.021	1523.419	1153.175
173.037	17.071	1522.618	1152.803
174.052	17.192	1521.107	1152.377
175.067	17.231	1520.170	1151.832
176.081	17.174	1518.363	1149.971
177.096	16.944	1517.484	1147.649
178.110	16.954	1516.412	1146.807
179.125	16.924	1515.527	1145.834
180.140	16.972	1514.137	1145.000
181.154	17.135	1512.949	1145.102
182.169	17.024	1512.195	1143.683
183.183	17.126	1511.093	1143.435
184.198	17.236	1509.994	1143.239
185.213	17.259	1509.064	1142.592
186.227	17.340	1507.767	1142.055
187.242	17.334	1506.637	1141.059
188.256	17.315	1505.746	1140.150
189.271	17.378	1504.891	1139.826
190.286	17.424	1503.871	1139.263
191.300	17.412	1502.620	1138.133
192.315	17.210	1500.906	1135.384
193.329	16.962	1499.431	1132.509
194.344	16.951	1498.105	1131.339
195.359	16.974	1497.503	1130.934
196.373	17.126	1496.840	1131.349
197.388	17.147	1496.086	1130.815
198.402	17.319	1494.457	1130.630
199.417	17.362	1493.895	1130.388
200.432	17.534	1492.501	1130.378
201.446	17.664	1491.328	1130.251
202.461	17.590	1491.313	1129.650
203.475	17.752	1489.715	1129.412
204.490	17.852	1488.254	1128.866
205.504	17.722	1487.282	1127.171
206.519	17.571	1485.824	1124.965
207.534	17.422	1484.966	1123.235
208.548	17.372	1483.616	1121.782
209.563	17.434	1483.108	1121.711
210.577	17.487	1481.499	1120.742
211.592	17.420	1480.963	1119.797
212.607	17.509	1480.476	1119.913
213.621	17.640	1480.060	1120.365
214.636	17.744	1478.873	1120.046
215.650	17.747	1477.368	1118.830
216.665	17.658	1476.906	1117.793
217.680	17.678	1476.513	1117.531
218.694	17.877	1475.306	1117.824
219.709	17.887	1474.519	1117.194
220.723	17.973	1473.078	1116.566
221.738	17.919	1472.659	1115.791
222.753	17.787	1471.754	1114.150
223.767	17.653	1470.820	1112.469
224.782	17.724	1469.817	1112.070
225.796	17.891	1468.626	1112.163
226.811	17.903	1468.272	1111.875
227.826	17.973	1467.372	1111.547
228.840	17.975	1466.058	1110.465
229.855	17.830	1465.498	1109.004
230.869	17.717	1464.415	1107.349
231.884	17.872	1463.442	1107.526
232.899	17.889	1461.376	1105.970
233.913	17.803	1460.516	1104.667
234.928	17.745	1459.490	1103.422
235.942	17.597	1458.452	1101.580
236.957	17.847	1457.013	1102.008
237.972	17.680	1456.174	1100.201
238.986	17.633	1455.215	1099.075
240.001	17.751	1454.067	1098.870
241.015	17.757	1452.833	1097.878
242.030	17.734	1451.730	1096.802
243.045	17.768	1451.225	1096.543
244.059	17.899	1449.920	1096.296
245.074	17.964	1449.004	1095.928
246.088	17.896	1448.835	1095.268
247.103	17.920	1447.972	1094.673
248.117	18.070	1446.894	1094.717
249.132	18.149	1446.249	1094.638
250.147	18.219	1445.764	1094.623
251.161	18.335	1445.436	1095.020
252.176	18.458	1444.866	1095.276
253.190	18.463	1444.346	1094.817
254.205	18.454	1443.474	1094.005
255.220	18.603	1442.146	1093.849
256.234	18.627	1441.536	1093.445
257.249	18.583	1441.015	1092.669
258.263	18.612	1439.487	1091.600
259.278	18.530	1439.280	1090.823
260.293	18.540	1438.413	1090.134
261.307	18.554	1437.708	1089.593
262.322	18.616	1437.121	1089.445
263.336	18.774	1435.392	1089.043
264.351	18.800	1434.073	1088.106
265.366	18.723	1433.518	1087.101
266.380	18.765	1432.863	1086.779
267.395	18.809	1431.834	1086.176
268.409	18.860	1430.283	1085.229
269.424	18.744	1429.179	1083.561
270.439	18.668	1428.200	1082.247
271.453	18.632	1427.683	1081.527
272.468	18.617	1426.880	1080.728
273.482	18.527	1426.096	1079.474
274.497	18.564	1424.685	1078.544
275.512	18.510	1423.833	1077.463
276.526	18.611	1423.106	1077.452
277.541	18.563	1422.456	1076.568
278.555	18.689	1421.120	1076.249
279.570	18.596	1420.520	1075.118
280.585	18.658	1419.495	1074.634
281.599	18.946	1418.450	1075.549
282.614	18.808	1418.107	1074.328
283.628	18.799	1416.771	1073.170
284.643	18.701	1415.632	1071.601
285.657	18.633	1414.563	1070.268
286.672	18.667	1413.748	1069.773
287.687	18.790	1412.780	1069.709
288.701	18.744	1411.933	1068.686
289.716	18.687	1411.507	1067.913
290.730	18.725	1410.412	1067.228
291.745	18.811	1409.271	1066.802
292.760	18.792	1408.235	1065.809
293.774	18.848	1406.877	1065.031
294.789	18.815	1406.203	1064.225
295.803	18.875	1405.467	1063.942
296.818	18.936	1404.497	1063.496
297.833	18.894	1403.711	1062.542
298.847	18.808	1402.840	1061.258
299.862	18.936	1401.029	1060.585
300.876	18.902	1400.431	1059.827
301.891	18.879	1399.606	1058.970
302.906	18.902	1399.248	1058.745
303.920	18.991	1398.330	1058.507
304.935	19.108	1397.674	1058.636
305.949	19.248	1396.595	1058.583
306.964	19.231	1396.123	1058.032
307.979	19.334	1395.387	1058.007
308.993	19.292	1393.957	1056.576
310.008	19.162	1393.119	1055.052
311.022	19.252	1392.014	1054.670
312.037	19.283	1391.001	1054.000
313.052	19.291	1390.448	1053.533
314.066	19.238	1389.042	1052.056
315.081	19.148	1387.540	1050.277
316.095	19.044	1386.977	1049.123
317.110	18.992	1385.535	1047.619
318.125	19.027	1384.694	1047.106
319.139	18.999	1383.813	1046.178
320.154	18.987	1382.922	1045.335
321.168	19.015	1382.074	1044.775
322.183	18.988	1381.236	1043.883
323.197	18.978	1380.245	1042.983
324.212	19.097	1378.992	1042.665
325.227	19.054	1378.489	1041.930
326.241	19.129	1377.426	1041.490
327.256	19.222	1376.239	1041.064
328.270	19.241	1375.337	1040.403
329.285	19.161	1374.406	1039.122
330.300	19.139	1373.670	1038.344
331.314	19.106	1372.761	1037.366
332.329	19.168	1371.655	1036.807
333.343	19.221	1370.823	1036.405
334.358	19.190	1370.178	1035.640
335.373	19.262	1369.739	1035.649
336.387	19.303	1368.565	1034.918
337.402	19.427	1367.872	1035.047
338.416	19.411	1367.519	1034.591
339.431	19.409	1367.250	1034.283
340.446	19.525	1365.606	1033.643
341.460	19.526	1365.541	1033.511
342.475	19.569	1364.434	1032.835
343.489	19.747	1363.489	1033.092
344.504	19.753	1362.478	1032.271
345.519	19.801	1361.661	1031.846
346.533	19.827	1360.633	1031.136
347.548	19.853	1359.819	1030.580
348.562	19.834	1358.819	1029.615
349.577	19.831	1358.330	1029.136
350.592	19.705	1357.709	1027.829
351.606	19.705	1356.380	1026.729
352.621	19.585	1355.207	1025.041
353.635	19.466	1354.166	1023.459
354.650	19.409	1353.095	1022.219
355.665	19.495	1352.309	1022.042
356.679	19.507	1351.082	1021.097
357.694	19.573	1350.226	1020.748
358.708	19.740	1348.985	1020.708
359.723	19.572	1348.237	1019.061
360.738	19.752	1347.217	1019.260
361.752	19.774	1346.184	1018.518
362.767	19.726	1345.042	1017.280
363.781	19.794	1344.142	1016.908
364.796	19.673	1343.727	1015.793
365.810	19.832	1342.530	1015.735
366.825	19.916	1342.037	1015.765
367.840	19.988	1341.468	1015.665
368.854	20.037	1340.943	1015.464
369.869	20.169	1339.979	1015.418
370.883	20.113	1339.776	1014.847
371.898	20.099	1338.801	1013.934
372.913	20.036	1337.754	1012.686
373.927	19.957	1336.926	1011.508
374.942	19.930	1336.517	1010.950
375.956	20.107	1335.401	1011.051
376.971	20.161	1334.593	1010.665
377.986	20.089	1333.736	1009.507
379.000	20.206	1332.247	1008.971
380.015	20.237	1332.030	1008.895
381.029	20.228	1331.789	1008.575
382.044	20.250	1331.025	1008.032
383.059	20.334	1330.273	1007.861
384.073	20.350	1329.716	1007.443
385.088	20.217	1329.001	1006.043
386.102	20.282	1328.025	1005.588
387.117	20.410	1327.283	1005.680
388.132	20.305	1326.377	1004.297
389.146	20.226	1325.674	1003.222
390.161	20.104	1324.387	1001.453
391.175	20.077	1323.990	1000.909
392.190	20.201	1322.992	1000.778
393.205	20.235	1321.954	1000.100
394.219	20.215	1321.681	999.690
395.234	20.493	1319.828	999.802
396.248	20.398	1318.573	998.214
397.263	20.273	1317.262	996.420
398.278	20.236	1315.997	995.162
399.292	20.196	1314.830	993.958
400.307	20.207	1313.455	992.895
401.321	20.101	1312.817	991.717
402.336	20.122	1311.788	990.973
403.350	20.089	1310.753	989.914
404.365	20.132	1309.724	989.296
405.380	20.103	1309.252	988.689
406.394	20.155	1308.169	988.076
407.409	20.297	1307.229	988.088
408.423	20.357	1306.766	987.995
409.438	20.441	1306.166	987.932
410.453	20.618	1305.423	988.286
411.467	20.577	1304.910	987.581
412.482	20.602	1304.464	987.293
413.496	20.625	1303.696	986.757
414.511	20.751	1302.801	986.705
415.526	20.856	1301.477	986.214
416.540	20.760	1301.217	985.383
417.555	20.893	1300.514	985.517
418.569	20.957	1300.257	985.594
419.584	20.818	1299.574	984.209
420.599	20.817	1298.793	983.522
421.613	145.456	1435.984	1797.345
422.628	140.693	1455.930	1797.461
