DTS Sentinel unit serial number:	SN413079Multiplexer serial number:	ORYXHardware model number:	OX4-SRSoftware version number:	ORYX F/W v4.00 Oryx Data Collector v3.7.2.0data status	okinstallation	princeton_trtdifferential loss correction	single-endedforward channel	channel 4reverse channel	N/Adate	2019/09/15time	00:57:35forward acquisition time	60.00reverse acquisition time	0.00gamma	496.2192k internal	0.2307k external	0.2307temperature offset calibration	1.0040default loss term (dB/km)	0.3790temperature slope calibration	1.0000multiplexer offset coefficient	1.0000multiplexer slope coefficient	1.0000fibre end	0.00T internal ref (°C)	32.00T ext. ref 1 (°C)	4.55T ext. ref 2 (°C)	26.91length (m)	temperature (°C)	Stokes	anti-Stokes-747.200	5.373	0.181	-0.136
-746.185	-127.627	-0.085	0.012
-745.171	-20.409	-0.259	-0.162
-744.156	800.000	0.074	0.248
-743.142	-200.000	-0.000	-0.140
-742.127	378.057	-0.051	0.106
-741.112	-32.071	0.177	-0.100
-740.098	124.832	0.197	0.253
-739.083	85.894	-0.198	0.222
-738.069	22.208	0.161	0.134
-737.054	-80.068	-0.130	-0.044
-736.039	-123.401	-0.286	-0.046
-735.025	-118.295	-0.178	-0.032
-734.010	55.290	-0.101	-0.099
-732.996	-53.830	0.147	-0.068
-731.981	49.834	-0.047	0.045
-730.966	-158.455	-0.231	-0.014
-729.952	95.841	0.200	-0.233
-728.937	-200.000	0.012	-0.130
-727.923	-80.364	0.173	0.059
-726.908	-119.731	0.265	-0.046
-725.894	119.262	-0.383	-0.481
-724.879	228.444	-0.051	-0.084
-723.864	-59.633	-0.184	0.080
-722.850	1.111	-0.080	0.058
-721.835	-8.208	0.191	0.131
-720.821	652.379	0.054	0.140
-719.806	-200.000	0.030	-0.160
-718.791	39.453	-0.056	-0.051
-717.777	7.424	-0.074	-0.056
-716.762	474.992	-0.096	-0.220
-715.748	222.619	0.120	0.196
-714.733	665.918	0.117	0.307
-713.718	800.000	0.022	0.087
-712.704	-34.586	-0.225	-0.125
-711.689	454.881	0.095	0.213
-710.675	800.000	0.051	0.145
-709.660	-200.000	-0.048	-0.324
-708.645	332.173	-0.270	-0.529
-707.631	489.780	-0.095	-0.220
-706.616	-179.397	-0.170	-0.004
-705.602	-85.992	0.186	-0.059
-704.587	265.580	0.188	-0.334
-703.572	106.433	-0.145	-0.175
-702.558	57.348	-0.310	-0.308
-701.543	40.181	0.143	-0.130
-700.529	-159.457	-0.387	-0.022
-699.514	-117.758	0.463	-0.084
-698.499	18.182	-0.053	-0.043
-697.485	-200.000	-0.036	-0.226
-696.470	-20.994	-0.159	-0.099
-695.456	22.452	-0.119	0.099
-694.441	-200.000	0.016	-0.100
-693.426	-164.347	-0.211	0.010
-692.412	-63.986	0.210	0.087
-691.397	-44.599	-0.273	-0.138
-690.383	800.000	0.063	0.258
-689.368	41.010	0.097	0.089
-688.354	10.032	-0.214	-0.165
-687.339	106.845	0.326	-0.393
-686.324	327.437	0.148	-0.288
-685.310	-16.038	-0.070	-0.045
-684.295	-22.855	0.184	0.113
-683.281	256.084	0.143	0.248
-682.266	180.822	-0.110	0.164
-681.251	-108.651	-0.078	0.017
-680.237	-76.050	0.063	0.022
-679.222	-200.000	0.008	-0.353
-678.208	201.512	-0.195	-0.305
-677.193	-200.000	0.021	-0.411
-676.178	-67.368	0.484	-0.193
-675.164	57.153	-0.114	0.113
-674.149	-156.994	-0.474	0.029
-673.135	-12.012	-0.070	-0.046
-672.120	628.368	-0.022	0.057
-671.105	-65.986	-0.036	0.015
-670.091	598.147	0.096	-0.242
-669.076	-69.739	-0.121	0.047
-668.062	265.085	-0.068	0.121
-667.047	427.840	-0.055	0.121
-666.032	-200.000	0.073	0.482
-665.018	-148.831	0.244	0.020
-664.003	-200.000	0.027	-0.307
-662.989	-3.803	-0.154	0.108
-661.974	49.967	-0.371	-0.355
-660.959	800.000	0.105	0.369
-659.945	-60.449	0.090	-0.039
-658.930	-128.988	0.022	0.003
-657.916	-110.710	-0.245	0.051
-656.901	33.566	-0.271	0.239
-655.886	0.937	0.076	0.055
-654.872	100.684	-0.061	-0.072
-653.857	393.686	-0.009	-0.020
-652.843	-200.000	-0.008	-0.186
-651.828	-84.296	-0.145	0.047
-650.814	335.879	-0.103	-0.202
-649.799	800.000	0.031	0.128
-648.784	88.876	-0.201	-0.226
-647.770	800.000	0.131	-0.435
-646.755	75.202	0.218	0.233
-645.741	-168.156	-0.273	0.011
-644.726	-128.670	0.100	0.014
-643.711	-10.047	0.155	0.104
-642.697	57.829	-0.170	0.169
-641.682	-200.000	0.051	0.330
-640.668	50.985	0.129	0.124
-639.653	78.068	-0.263	-0.284
-638.638	-88.966	0.261	0.078
-637.624	116.713	0.039	0.048
-636.609	-146.852	-0.195	-0.017
-635.595	-200.000	0.248	0.000
-634.580	-18.626	0.052	-0.033
-633.565	-92.206	-0.157	-0.045
-632.551	-67.673	0.172	-0.068
-631.536	-200.000	0.031	-0.424
-630.522	-135.577	0.208	-0.025
-629.507	-157.267	-0.081	-0.005
-628.492	261.976	-0.221	-0.388
-627.478	11.784	-0.192	-0.149
-626.463	31.216	-0.042	0.036
-625.449	-107.539	-0.010	0.002
-624.434	800.000	-0.091	0.275
-623.419	499.550	-0.039	-0.091
-622.405	-84.146	-0.145	0.047
-621.390	-200.000	-0.010	0.241
-620.376	-107.785	-0.035	0.008
-619.361	-90.404	-0.157	-0.046
-618.346	800.000	-0.050	0.206
-617.332	-67.924	0.111	-0.044
-616.317	-78.193	-0.126	0.044
-615.303	800.000	-0.047	-0.185
-614.288	34.140	-0.077	0.068
-613.273	22.125	-0.054	-0.044
-612.259	-44.700	0.124	0.062
-611.244	800.000	-0.103	0.306
-610.230	-200.000	-0.032	-0.145
-609.215	6.744	-0.257	-0.193
-608.201	606.929	0.065	0.165
-607.186	-99.952	0.164	-0.041
-606.171	35.024	0.278	-0.246
-605.157	-14.803	-0.249	0.162
-604.142	800.000	0.079	0.232
-603.128	96.774	-0.068	0.078
-602.113	-71.832	-0.209	0.079
-601.098	-64.818	0.175	0.072
-600.084	-25.017	-0.211	0.126
-599.069	-30.392	-0.171	0.098
-598.055	-50.425	0.335	-0.160
-597.040	-200.000	0.073	-0.393
-596.025	224.700	-0.022	-0.036
-595.011	-93.508	0.224	-0.063
-593.996	287.444	-0.200	-0.365
-592.982	800.000	0.104	-0.322
-591.967	800.000	-0.100	-0.325
-590.952	-200.000	0.006	0.067
-589.938	-120.211	0.269	-0.046
-588.923	-200.000	-0.010	0.106
-587.909	-200.000	0.044	-0.238
-586.894	-200.000	0.028	-0.217
-585.879	-80.893	-0.183	0.061
-584.865	69.531	-0.155	-0.162
-583.850	-183.922	-0.158	0.003
-582.836	460.189	0.103	0.231
-581.821	-140.890	0.368	-0.038
-580.806	93.492	0.184	-0.210
-579.792	-200.000	0.040	0.235
-578.777	71.047	0.095	0.099
-577.763	-200.000	-0.034	-0.219
-576.748	372.490	0.059	0.121
-575.733	83.164	-0.254	0.279
-574.719	-38.182	0.385	0.206
-573.704	-169.212	-0.338	0.013
-572.690	-109.244	-0.198	-0.042
-571.675	-60.165	0.233	-0.100
-570.661	-200.000	0.046	-0.220
-569.646	-101.462	0.347	0.085
-568.631	166.987	-0.085	0.122
-567.617	-200.000	0.062	-0.312
-566.602	-200.000	-0.024	-0.198
-565.588	-56.972	-0.104	0.046
-564.573	-69.500	0.314	0.121
-563.558	-86.980	-0.077	-0.024
-562.544	-72.324	0.359	-0.134
-561.529	-200.000	0.029	0.312
-560.515	-1.006	0.055	-0.040
-559.500	-200.000	-0.010	-0.318
-558.485	-200.000	-0.044	0.284
-557.471	62.299	-0.111	0.112
-556.456	142.808	0.024	-0.032
-555.442	30.760	-0.367	0.317
-554.427	-129.500	-0.134	0.019
-553.412	256.828	0.093	-0.161
-552.398	131.637	0.220	-0.286
-551.383	800.000	0.031	0.116
-550.369	478.218	-0.091	0.209
-549.354	-90.926	-0.118	0.034
-548.339	-31.647	0.395	-0.224
-547.325	-200.000	-0.033	-0.185
-546.310	-84.889	0.205	0.065
-545.296	-20.360	-0.155	0.096
-544.281	-66.328	0.239	0.096
-543.266	-118.821	0.211	-0.037
-542.252	-79.658	0.141	-0.048
-541.237	27.690	-0.044	-0.037
-540.223	-200.000	0.034	-0.197
-539.208	279.869	-0.075	-0.136
-538.193	800.000	0.040	-0.152
-537.179	71.493	-0.020	-0.021
-536.164	-80.206	-0.151	0.051
-535.150	-71.917	-0.323	0.121
-534.135	87.065	0.159	0.177
-533.121	-200.000	0.018	0.194
-532.106	-200.000	-0.050	0.353
-531.091	-119.471	-0.370	-0.065
-530.077	188.082	-0.083	-0.125
-529.062	96.858	0.170	-0.197
-528.048	-134.343	-0.309	0.038
-527.033	25.062	-0.175	-0.146
-526.018	18.774	-0.071	0.057
-525.004	-200.000	-0.001	-0.102
-523.989	-133.888	-0.095	-0.012
-522.975	-200.000	-0.003	-0.256
-521.960	-149.239	0.060	-0.005
-520.945	-200.000	-0.017	-0.171
-519.931	-200.000	-0.023	0.162
-518.916	-200.000	-0.043	0.000
-517.902	35.358	0.141	0.124
-516.887	-8.391	0.097	0.066
-515.872	-200.000	-0.004	-0.247
-514.858	-200.000	-0.002	0.129
-513.843	-200.000	-0.056	-0.253
-512.829	-148.152	-0.130	0.011
-511.814	-25.530	-0.148	0.088
-510.799	-168.426	0.142	0.006
-509.785	20.046	0.242	-0.197
-508.770	215.526	-0.099	0.159
-507.756	84.147	-0.123	0.135
-506.741	100.680	0.186	0.218
-505.726	-39.487	-0.211	0.112
-504.712	-200.000	0.006	0.324
-503.697	-200.000	-0.016	-0.297
-502.683	20.298	-0.240	0.196
-501.668	16.145	0.126	-0.100
-500.653	-40.430	-0.089	0.046
-499.639	800.000	0.036	0.148
-498.624	800.000	-0.017	0.048
-497.610	122.241	0.147	-0.185
-496.595	778.920	0.114	0.313
-495.581	-184.224	0.030	0.000
-494.566	-69.985	0.280	-0.108
-493.551	-18.435	0.134	-0.085
-492.537	171.010	0.114	-0.165
-491.522	27.846	0.116	-0.099
-490.508	-200.000	-0.022	0.113
-489.493	-54.488	0.043	0.020
-488.478	61.350	-0.098	-0.098
-487.464	-200.000	-0.010	-0.125
-486.449	84.080	0.045	0.050
-485.435	142.825	0.167	0.223
-484.420	38.225	-0.037	0.034
-483.405	-200.000	0.040	0.378
-482.391	-200.000	-0.033	-0.167
-481.376	-200.000	-0.068	0.458
-480.362	335.035	0.050	-0.097
-479.347	-61.024	-0.204	0.087
-478.332	-126.152	-0.196	-0.030
-477.318	800.000	-0.059	-0.172
-476.303	519.414	-0.218	0.514
-475.289	414.203	-0.062	0.133
-474.274	183.979	-0.097	-0.145
-473.259	-127.040	-0.221	0.033
-472.245	105.834	0.186	0.221
-471.230	-192.529	-0.132	0.001
-470.216	763.430	-0.189	-0.518
-469.201	-42.564	-0.234	-0.120
-468.186	14.277	-0.079	-0.062
-467.172	-13.293	0.209	-0.136
-466.157	101.947	-0.159	-0.186
-465.143	-98.518	-0.345	0.089
-464.128	-113.145	-0.257	0.051
-463.113	-200.000	0.011	0.168
-462.099	248.577	-0.137	-0.234
-461.084	517.608	-0.073	-0.172
-460.070	153.342	-0.146	0.201
-459.055	-137.868	-0.268	0.030
-458.040	232.223	0.028	-0.046
-457.026	-62.982	-0.124	-0.052
-456.011	11.753	-0.149	-0.115
-454.997	341.324	0.151	-0.297
-453.982	-200.000	0.057	-0.269
-452.968	-29.799	-0.218	0.125
-451.953	286.224	-0.085	-0.155
-450.938	-17.062	0.211	0.134
-449.924	4.556	0.356	-0.262
-448.909	-92.062	-0.097	0.027
-447.895	512.809	0.064	0.151
-446.880	-200.000	-0.002	0.172
-445.865	-29.016	-0.284	0.164
-444.851	103.422	0.215	-0.253
-443.836	-200.000	-0.025	-0.237
-442.822	67.704	-0.162	0.166
-441.807	-153.916	0.037	0.003
-440.792	-200.000	0.004	0.106
-439.778	-88.902	0.164	-0.049
-438.763	-131.378	0.286	-0.038
-437.749	800.000	-0.054	0.197
-436.734	-108.960	0.051	0.011
-435.719	-200.000	0.009	-0.358
-434.705	-136.099	-0.212	0.025
-433.690	72.494	0.051	0.054
-432.676	740.090	0.134	0.363
-431.661	-28.087	0.116	-0.067
-430.646	73.608	0.026	0.027
-429.632	778.719	0.105	0.287
-428.617	108.310	0.176	0.210
-427.603	-200.000	0.032	0.178
-426.588	100.035	0.079	0.092
-425.573	245.424	0.181	0.305
-424.559	800.000	0.082	0.259
-423.544	-140.784	0.090	-0.009
-422.530	162.453	0.012	0.017
-421.515	-123.549	-0.374	0.060
-420.500	3.986	-0.316	0.232
-419.486	485.905	0.051	-0.117
-418.471	-87.485	-0.243	-0.074
-417.457	-116.380	-0.422	0.078
-416.442	800.000	0.079	-0.334
-415.428	-160.159	0.025	0.001
-414.413	-54.349	-0.148	0.067
-413.398	244.211	-0.121	0.204
-412.384	-200.000	-0.039	0.268
-411.369	-200.000	0.021	0.121
-410.355	250.274	0.183	-0.312
-409.340	800.000	-0.072	-0.302
-408.325	-200.000	-0.073	0.355
-407.311	331.203	0.101	0.195
-406.296	-111.141	-0.428	0.088
-405.282	-126.616	0.033	0.005
-404.267	-41.753	-0.130	-0.067
-403.252	548.565	-0.193	-0.465
-402.238	117.388	0.164	-0.203
-401.223	-50.190	-0.038	0.018
-400.209	-175.553	0.025	-0.001
-399.194	-51.582	0.280	-0.131
-398.179	18.361	0.160	-0.128
-397.165	-200.000	0.021	-0.169
-396.150	-115.061	-0.203	0.039
-395.136	-200.000	0.024	0.273
-394.121	-63.909	0.338	0.139
-393.106	-26.893	0.100	0.059
-392.092	18.021	-0.174	0.139
-391.077	616.903	0.074	0.185
-390.063	-200.000	0.005	-0.087
-389.048	-200.000	0.024	-0.199
-388.033	-200.000	-0.118	-0.001
-387.019	9.124	-0.207	0.157
-386.004	443.141	-0.061	0.134
-384.990	-0.136	0.059	0.042
-383.975	-103.058	-0.195	0.046
-382.960	122.094	-0.300	0.376
-381.946	-111.498	0.316	-0.065
-380.931	2.266	0.226	-0.164
-379.917	-11.822	-0.199	0.131
-378.902	82.668	0.255	0.278
-377.888	-124.409	-0.118	0.018
-376.873	-103.093	0.304	0.072
-375.858	-144.395	0.349	0.033
-374.844	-59.981	0.161	-0.069
-373.829	-91.963	-0.220	0.062
-372.815	-200.000	-0.012	-0.143
-371.800	616.119	0.037	0.092
-370.785	-200.000	-0.012	-0.365
-369.771	247.196	0.162	-0.274
-368.756	175.507	0.191	-0.278
-367.742	800.000	-0.038	-0.119
-366.727	-200.000	-0.014	-0.097
-365.712	800.000	0.095	0.295
-364.698	-200.000	0.023	0.235
-363.683	-20.151	0.055	-0.034
-362.669	-200.000	-0.040	-0.344
-361.654	784.046	0.005	0.015
-360.639	-115.845	-0.126	-0.024
-359.625	-187.086	0.222	-0.003
-358.610	54.292	-0.088	0.085
-357.596	800.000	0.044	0.136
-356.581	-152.345	-0.175	0.013
-355.566	87.760	-0.049	0.055
-354.552	248.558	0.048	0.081
-353.537	152.007	0.231	-0.316
-352.523	-200.000	-0.088	-0.484
-351.508	-200.000	0.009	-0.081
-350.493	-4.254	-0.347	-0.240
-349.479	220.860	-0.106	0.171
-348.464	63.522	0.221	0.222
-347.450	-57.456	-0.134	0.059
-346.435	-200.000	-0.063	0.412
-345.420	-87.695	-0.191	0.058
-344.406	639.164	0.008	0.019
-343.391	-26.956	-0.233	-0.136
-342.377	142.818	0.101	0.134
-341.362	-133.375	-0.267	-0.034
-340.348	78.688	-0.054	0.058
-339.333	-21.726	0.130	-0.079
-338.318	-200.000	-0.034	0.356
-337.304	421.764	0.187	0.401
-336.289	165.335	0.150	0.212
-335.275	-9.492	0.447	-0.298
-334.260	-200.000	0.078	0.346
-333.245	-98.779	-0.161	0.041
-332.231	110.592	0.225	0.271
-331.216	622.957	-0.110	-0.276
-330.202	800.000	0.037	-0.155
-329.187	-200.000	-0.029	-0.146
-328.172	-162.535	-0.159	-0.008
-327.158	163.365	-0.113	-0.159
-326.143	-92.610	-0.213	0.060
-325.129	181.941	-0.336	0.495
-324.114	232.886	0.066	-0.109
-323.099	-31.015	-0.219	0.124
-322.085	-153.264	0.363	0.025
-321.070	7.981	0.124	-0.093
-320.056	792.879	0.117	-0.321
-319.041	-200.000	-0.029	0.343
-318.026	-7.664	-0.114	0.077
-317.012	0.920	-0.187	-0.134
-315.997	10.539	0.129	-0.098
-314.983	-139.634	0.177	0.019
-313.968	534.499	0.126	-0.298
-312.953	-200.000	0.017	-0.117
-311.939	-200.000	-0.004	-0.231
-310.924	263.912	-0.018	-0.031
-309.910	-111.983	0.199	-0.040
-308.895	-45.475	-0.495	0.245
-307.880	-200.000	-0.029	0.326
-306.866	43.367	-0.166	-0.152
-305.851	-56.346	-0.218	0.097
-304.837	403.667	-0.043	-0.090
-303.822	-72.545	-0.152	0.056
-302.807	-49.849	0.113	0.053
-301.793	109.577	0.183	0.219
-300.778	800.000	-0.032	-0.115
-299.764	-200.000	-0.067	-0.339
-298.749	-200.000	0.046	0.201
-297.735	800.000	0.097	-0.341
-296.720	-116.460	-0.032	-0.006
-295.705	69.888	0.272	0.281
-294.691	-58.052	-0.057	-0.025
-293.676	-116.724	0.089	-0.016
-292.662	800.000	-0.060	-0.239
-291.647	23.640	0.083	-0.069
-290.632	620.420	-0.022	0.055
-289.618	37.637	0.219	0.195
-288.603	-92.582	-0.064	-0.018
-287.589	179.618	0.018	0.026
-286.574	-200.000	-0.004	0.120
-285.559	-10.792	0.055	0.036
-284.545	800.000	-0.053	-0.223
-283.530	-26.712	0.248	-0.145
-282.516	270.521	0.194	-0.341
-281.501	-105.513	0.165	-0.037
-280.486	254.432	0.028	0.049
-279.472	195.727	-0.093	0.141
-278.457	-200.000	0.001	-0.179
-277.443	-125.749	0.125	-0.019
-276.428	-68.017	0.089	0.035
-275.413	-64.774	0.350	-0.142
-274.399	-200.000	0.045	0.244
-273.384	239.740	0.100	0.167
-272.370	-36.043	0.125	0.067
-271.355	566.846	0.039	-0.095
-270.340	-76.893	0.194	-0.068
-269.326	-25.809	0.108	0.063
-268.311	326.004	-0.143	-0.273
-267.297	288.796	0.092	0.167
-266.282	-108.353	0.290	-0.062
-265.267	-200.000	-0.018	-0.427
-264.253	661.182	-0.013	0.034
-263.238	-25.008	0.333	-0.197
-262.224	-77.979	-0.398	0.137
-261.209	-28.735	0.123	0.071
-260.195	800.000	0.037	0.132
-259.180	-105.098	-0.209	-0.048
-258.165	402.973	0.123	0.258
-257.151	-28.033	-0.425	0.245
-256.136	-11.899	-0.226	0.148
-255.122	-68.895	-0.269	-0.104
-254.107	99.417	0.081	-0.094
-253.092	344.642	-0.084	-0.164
-252.078	-85.704	0.276	-0.086
-251.063	-200.000	-0.027	-0.249
-250.049	66.621	0.045	-0.046
-249.034	-40.596	-0.242	0.125
-248.019	-67.959	-0.318	0.124
-247.005	-131.094	-0.258	0.034
-245.990	-145.793	0.281	-0.025
-244.976	236.004	-0.126	0.209
-243.961	-158.665	0.324	0.019
-242.946	-91.937	0.071	-0.020
-241.932	26.365	-0.198	-0.165
-240.917	9.369	0.178	0.135
-239.903	105.873	0.320	0.377
-238.888	15.874	0.151	0.118
-237.873	156.350	0.184	-0.254
-236.859	800.000	0.057	-0.217
-235.844	-164.486	0.305	0.014
-234.830	-81.997	0.328	-0.107
-233.815	-50.199	-0.350	-0.165
-232.800	299.998	-0.045	-0.082
-231.786	-178.477	-0.139	-0.003
-230.771	28.385	-0.199	-0.168
-229.757	41.637	0.297	0.268
-228.742	595.722	-0.129	0.318
-227.727	-124.113	0.346	0.054
-226.713	58.887	-0.201	-0.197
-225.698	372.473	0.067	-0.136
-224.684	-41.933	0.091	-0.046
-223.669	-103.830	-0.236	0.055
-222.655	-17.086	0.227	0.143
-221.640	-15.935	-0.138	-0.088
-220.625	-69.074	0.460	0.177
-219.611	75.712	0.130	0.137
-218.596	405.830	-0.151	-0.318
-217.582	76.895	-0.125	0.132
-216.567	800.000	0.078	0.299
-215.552	-78.609	0.468	-0.159
-214.538	-86.092	0.083	0.026
-213.523	800.000	-0.145	0.566
-212.509	102.060	0.157	0.182
-211.494	-200.000	0.025	0.184
-210.479	-49.711	0.095	-0.045
-209.465	67.231	-0.159	-0.161
-208.450	47.249	-0.151	0.140
-207.436	6.386	-0.204	-0.151
-206.421	84.287	-0.162	0.176
-205.406	-69.955	-0.199	-0.076
-204.392	223.948	0.100	0.161
-203.377	-165.873	0.200	-0.009
-202.363	800.000	0.092	0.340
-201.348	-44.895	-0.164	-0.082
-200.333	-200.000	0.037	-0.250
-199.319	437.707	0.063	0.136
-198.304	-90.173	-0.290	0.084
-197.290	800.000	-0.112	-0.373
-196.275	232.504	-0.168	-0.274
-195.260	4.781	-0.149	-0.109
-194.246	205.057	0.081	0.125
-193.231	147.099	0.027	-0.036
-192.217	226.687	-0.177	-0.287
-191.202	3.898	-0.173	-0.126
-190.187	800.000	0.079	0.281
-189.173	-45.451	-0.387	0.191
-188.158	800.000	-0.055	-0.163
-187.144	460.068	-0.107	-0.237
-186.129	800.000	0.035	0.134
-185.114	-40.759	0.253	0.130
-184.100	-200.000	-0.013	0.180
-183.085	-200.000	-0.001	0.261
-182.071	11.143	-0.177	-0.135
-181.056	-46.507	-0.082	0.040
-180.042	324.819	-0.057	-0.107
-179.027	800.000	0.064	-0.210
-178.012	-83.634	-0.268	0.085
-176.998	-155.030	-0.017	0.001
-175.983	282.814	-0.051	-0.091
-174.969	39.542	0.195	0.174
-173.954	256.255	-0.137	0.234
-172.939	-127.663	0.438	-0.063
-171.925	-34.025	0.111	0.061
-170.910	-176.944	0.317	-0.008
-169.896	-200.000	-0.016	-0.190
-168.881	542.705	0.054	-0.127
-167.866	-183.656	-0.149	0.003
-166.852	-133.719	-0.207	-0.026
-165.837	54.024	0.047	-0.045
-164.823	79.559	-0.097	-0.104
-163.808	44.572	0.223	-0.204
-162.793	32.018	0.055	-0.048
-161.779	171.071	-0.095	0.135
-160.764	-122.238	0.346	-0.056
-159.750	-148.175	0.204	-0.017
-158.735	-63.099	-0.159	0.065
-157.720	-200.000	0.032	-0.156
-156.706	64.909	-0.024	0.024
-155.691	-89.028	0.193	-0.057
-154.677	202.098	-0.236	-0.362
-153.662	95.626	0.072	-0.082
-152.647	82.169	-0.038	-0.041
-151.633	-86.083	-0.104	-0.032
-150.618	-200.000	-0.027	-0.209
-149.604	800.000	-0.086	-0.325
-148.589	800.000	-0.033	0.090
-147.574	-102.978	0.471	0.111
-146.560	78.622	0.127	0.135
-145.545	-200.000	0.017	-0.187
-144.531	113.010	-0.021	0.025
-143.516	43.184	-0.073	0.067
-142.502	11.956	-0.215	-0.164
-141.487	-183.973	-0.401	0.007
-140.472	9.858	-0.109	-0.082
-139.458	800.000	-0.131	0.383
-138.443	-200.000	-0.040	-0.239
-137.429	-29.965	-0.254	0.144
-136.414	160.881	-0.032	0.044
-135.399	-66.612	0.345	0.136
-134.385	14.049	0.080	-0.062
-133.370	-20.637	-0.212	0.129
-132.356	67.450	-0.170	0.172
-131.341	2.032	-0.086	0.062
-130.326	-6.535	-0.233	-0.158
-129.312	568.167	-0.079	0.191
-128.297	-37.988	0.144	-0.076
-127.283	-19.575	0.146	-0.090
-126.268	-72.672	0.142	0.052
-125.253	-135.551	-0.192	-0.023
-124.239	98.913	0.064	-0.074
-123.224	-103.185	0.022	0.005
-122.210	-27.870	0.168	-0.096
-121.195	-18.782	-0.108	0.067
-120.180	617.238	-0.107	0.268
-119.166	-8.955	-0.154	-0.102
-118.151	20.981	0.275	0.222
-117.137	-13.609	0.074	-0.047
-116.122	-114.111	-0.274	0.053
-115.107	800.000	-0.041	0.169
-114.093	-13.203	-0.169	-0.109
-113.078	-157.883	0.101	0.006
-112.064	800.000	0.054	0.149
-111.049	800.000	0.051	-0.194
-110.034	-52.231	0.412	0.189
-109.020	-40.705	-0.228	-0.117
-108.005	-72.706	0.138	0.050
-106.991	-200.000	-0.010	0.313
-105.976	-73.755	0.251	0.091
-104.962	-200.000	0.012	0.070
-103.947	-65.195	0.392	-0.157
-102.932	-200.000	0.008	-0.287
-101.918	205.665	-0.268	-0.414
-100.903	787.672	0.116	-0.315
-99.889	-200.000	-0.002	-0.377
-98.874	61.914	0.170	0.168
-97.859	15.390	0.140	0.109
-96.845	800.000	0.044	-0.142
-95.830	-150.909	-0.349	0.026
-94.816	534.716	-0.156	-0.366
-93.801	77.343	0.188	0.198
-92.786	124.504	-0.233	-0.290
-91.772	368.817	-0.076	0.152
-90.757	-35.833	0.176	0.095
-89.743	-25.336	-0.371	0.218
-88.728	-154.822	0.219	-0.014
-87.713	-130.932	0.185	0.025
-86.699	-95.362	0.042	0.011
-85.684	-200.000	0.001	-0.095
-84.670	-30.229	-0.144	-0.081
-83.655	61.158	-0.011	-0.011
-82.640	-200.000	0.036	-0.306
-81.626	-189.855	-0.180	-0.002
-80.611	416.866	0.115	0.244
-79.597	-200.000	-0.062	0.408
-78.582	722.856	0.120	0.317
-77.567	-200.000	-0.016	0.085
-76.553	800.000	0.051	-0.170
-75.538	800.000	-0.114	0.439
-74.524	-200.000	0.026	0.226
-73.509	-36.643	-0.209	0.111
-72.494	-71.227	-0.329	-0.122
-71.480	800.000	-0.076	0.227
-70.465	70.106	0.206	0.211
-69.451	150.247	0.171	0.230
-68.436	-5.981	0.207	-0.140
-67.422	24.629	-0.107	0.087
-66.407	78.078	-0.151	-0.159
-65.392	-200.000	-0.030	-0.427
-64.378	-93.473	0.078	0.021
-63.363	-75.921	0.154	-0.054
-62.349	800.000	-0.060	0.211
-61.334	94.848	-0.903	-1.017
-60.319	345.213	0.293	0.569
-59.305	-200.000	0.009	-0.643
-58.290	227.452	0.591	0.952
-57.276	343.788	0.817	1.586
-56.261	-200.000	95.592	594.236
-55.246	649.621	1366.132	3461.181
-54.232	196.141	2550.447	3842.883
-53.217	109.799	2299.951	2730.264
-52.203	38.741	2064.337	1824.054
-51.188	33.746	1980.445	1705.127
-50.173	32.174	1961.771	1674.979
-49.159	47.355	2010.349	1853.735
-48.144	48.691	2028.778	1882.720
-47.130	34.385	1991.800	1720.407
-46.115	32.022	1980.756	1689.555
-45.100	32.006	1977.504	1686.574
-44.086	31.846	1975.526	1683.382
-43.071	31.795	1972.906	1680.623
-42.057	31.760	1970.672	1678.337
-41.042	31.827	1968.454	1676.982
-40.027	31.788	1966.587	1674.975
-39.013	31.954	1964.536	1674.651
-37.998	31.862	1962.940	1672.401
-36.984	31.984	1960.813	1671.607
-35.969	31.966	1958.956	1669.802
-34.954	32.016	1957.512	1668.945
-33.940	31.962	1956.252	1667.324
-32.925	32.074	1954.189	1666.496
-31.911	32.056	1952.816	1665.098
-30.896	32.060	1951.207	1663.696
-29.881	31.994	1949.646	1661.714
-28.867	32.034	1948.153	1660.727
-27.852	32.086	1946.101	1659.376
-26.838	32.075	1943.974	1657.400
-25.823	32.072	1941.758	1655.417
-24.809	31.951	1941.017	1653.657
-23.794	32.042	1938.619	1652.346
-22.779	32.055	1936.714	1650.773
-21.765	31.978	1935.194	1648.734
-20.750	31.932	1933.666	1646.964
-19.736	31.929	1932.298	1645.701
-18.721	31.956	1931.023	1644.793
-17.706	32.056	1928.608	1643.545
-16.692	31.990	1927.456	1641.923
-15.677	31.965	1926.085	1640.468
-14.663	31.999	1924.475	1639.327
-13.648	32.046	1923.284	1638.661
-12.633	32.116	1921.716	1637.867
-11.619	31.974	1921.120	1636.061
-10.604	32.092	1919.344	1635.509
-9.590	32.005	1918.216	1633.721
-8.575	31.921	1917.031	1631.918
-7.560	32.055	1915.139	1631.404
-6.546	32.039	1914.035	1630.266
-5.531	31.950	1913.284	1628.783
-4.517	31.972	1911.800	1627.648
-3.502	31.958	1910.349	1626.226
-2.487	31.978	1909.301	1625.448
-1.473	32.060	1908.348	1625.278
-0.458	32.024	1903.765	1621.003
0.556	31.332	1883.808	1594.076
1.571	27.095	1865.493	1542.551
2.586	23.202	1887.807	1527.340
3.600	22.232	1923.053	1547.188
4.615	21.595	1917.097	1536.669
5.629	16.642	1817.610	1415.477
6.644	8.529	1701.098	1260.880
7.659	4.902	1665.773	1206.538
8.673	4.597	1663.520	1202.444
9.688	4.544	1661.240	1200.280
10.702	4.493	1659.799	1198.735
11.717	4.555	1656.750	1196.909
12.731	4.894	1655.975	1198.850
13.746	10.183	1668.557	1248.769
14.761	17.278	1683.449	1314.871
15.775	19.432	1686.148	1333.530
16.790	18.650	1682.927	1324.833
17.804	17.574	1679.455	1313.684
18.819	16.536	1676.528	1303.283
19.834	15.891	1673.595	1295.928
20.848	15.601	1672.657	1292.857
21.863	15.447	1670.402	1289.815
22.877	15.146	1669.274	1286.522
23.892	14.911	1668.048	1283.656
24.907	14.898	1666.803	1282.485
25.921	14.868	1665.834	1281.399
26.936	14.894	1664.202	1280.223
27.950	14.907	1663.994	1280.053
28.965	14.825	1663.813	1279.173
29.980	14.863	1662.837	1278.602
30.994	15.067	1661.645	1279.131
32.009	15.170	1660.437	1278.874
33.023	15.193	1659.757	1278.410
34.038	15.204	1659.031	1277.819
35.053	15.128	1657.936	1276.287
36.067	15.060	1656.143	1274.275
37.082	15.000	1655.233	1273.005
38.096	15.057	1654.056	1272.418
39.111	15.034	1653.301	1271.553
40.126	15.103	1652.754	1271.544
41.140	15.140	1651.085	1270.430
42.155	14.952	1650.282	1268.273
43.169	14.766	1649.210	1265.929
44.184	14.750	1647.987	1264.752
45.199	14.793	1646.345	1263.708
46.213	14.760	1645.283	1262.532
47.228	14.801	1644.219	1261.910
48.242	14.873	1643.127	1261.510
49.257	15.002	1641.984	1261.493
50.271	14.853	1641.473	1259.864
51.286	14.912	1640.059	1259.114
52.301	14.980	1638.307	1258.168
53.315	14.929	1636.854	1256.553
54.330	14.867	1635.650	1255.052
55.344	14.839	1633.650	1253.201
56.359	14.805	1632.227	1251.740
57.374	14.893	1630.956	1251.313
58.388	14.851	1629.986	1250.142
59.403	14.730	1629.130	1248.477
60.417	14.713	1627.402	1246.911
61.432	14.684	1626.324	1245.759
62.447	14.760	1624.849	1245.088
63.461	14.700	1623.954	1243.845
64.476	14.676	1622.842	1242.704
65.490	14.674	1621.710	1241.714
66.505	14.570	1620.325	1239.767
67.520	14.630	1619.264	1239.295
68.534	14.749	1618.125	1239.192
69.549	14.733	1617.247	1238.295
70.563	14.682	1615.994	1236.849
71.578	14.578	1615.246	1235.396
72.593	14.571	1614.124	1234.379
73.607	14.535	1612.851	1233.027
74.622	14.530	1611.798	1232.074
75.636	14.604	1610.663	1231.643
76.651	14.501	1610.048	1230.303
77.666	14.613	1609.406	1230.533
78.680	14.639	1608.240	1229.723
79.695	14.629	1607.421	1228.915
80.709	14.582	1607.008	1228.142
81.724	14.701	1605.782	1227.975
82.739	14.767	1605.199	1227.902
83.753	14.769	1604.041	1226.926
84.768	14.777	1603.478	1226.446
85.782	14.947	1602.859	1227.112
86.797	15.001	1601.999	1226.739
87.812	15.079	1600.977	1226.421
88.826	14.982	1599.708	1224.631
89.841	14.932	1598.345	1223.109
90.855	14.957	1597.686	1222.679
91.870	14.943	1596.654	1221.680
92.884	15.016	1595.359	1221.114
93.899	15.037	1594.706	1220.661
94.914	15.012	1593.107	1219.147
95.928	15.067	1591.754	1218.401
96.943	15.097	1590.362	1217.450
97.957	15.064	1589.370	1216.342
98.972	15.012	1587.715	1214.587
99.987	14.940	1586.132	1212.751
101.001	15.024	1584.458	1211.973
102.016	14.974	1583.099	1210.460
103.030	14.986	1581.567	1209.272
104.045	15.053	1580.756	1209.028
105.060	15.011	1579.576	1207.714
106.074	14.907	1578.164	1205.776
107.089	14.870	1576.362	1204.029
108.103	14.780	1574.241	1201.651
109.118	14.747	1573.062	1200.411
110.133	14.613	1572.170	1198.662
111.147	14.579	1570.506	1197.039
112.162	14.709	1569.023	1196.735
113.176	14.671	1568.099	1195.654
114.191	14.784	1566.617	1195.226
115.206	14.840	1565.607	1194.752
116.220	14.779	1564.309	1193.223
117.235	14.755	1562.670	1191.692
118.249	14.782	1561.120	1190.600
119.264	14.760	1560.281	1189.698
120.279	14.755	1559.111	1188.662
121.293	14.698	1557.462	1186.898
122.308	14.630	1555.967	1185.168
123.322	14.661	1554.695	1184.316
124.337	14.602	1552.978	1182.488
125.352	14.653	1551.726	1181.790
126.366	14.584	1550.900	1180.562
127.381	14.648	1549.184	1179.605
128.395	14.607	1548.752	1178.881
129.410	14.663	1546.765	1177.665
130.424	14.670	1545.873	1176.927
131.439	14.808	1544.487	1176.744
132.454	14.685	1543.210	1174.800
133.468	14.826	1541.210	1174.163
134.483	14.877	1539.568	1173.164
135.497	14.836	1538.652	1172.077
136.512	14.860	1537.995	1171.641
137.527	14.838	1536.439	1170.194
138.541	14.836	1535.111	1169.066
139.556	14.805	1533.822	1167.765
140.570	14.877	1532.431	1167.106
141.585	14.934	1531.029	1166.331
142.600	15.001	1529.897	1165.833
143.614	15.064	1529.338	1165.741
144.629	15.180	1527.655	1165.162
145.643	15.205	1526.252	1164.169
146.658	15.154	1524.988	1162.744
147.673	15.118	1523.381	1161.170
148.687	15.102	1522.462	1160.253
149.702	15.067	1520.471	1158.393
150.716	14.985	1519.297	1156.830
151.731	14.986	1517.855	1155.636
152.746	15.030	1516.252	1154.617
153.760	14.877	1515.598	1152.961
154.775	15.007	1513.972	1152.515
155.789	15.079	1512.342	1151.667
156.804	15.045	1511.539	1150.720
157.819	15.083	1510.585	1150.154
158.833	15.091	1508.704	1148.675
159.848	15.119	1508.009	1148.233
160.862	15.196	1506.653	1147.628
161.877	15.261	1505.784	1147.310
162.892	15.134	1504.673	1145.497
163.906	15.048	1502.653	1143.270
164.921	15.074	1501.374	1142.370
165.935	15.088	1500.811	1141.934
166.950	15.000	1500.155	1140.735
167.964	15.087	1498.612	1140.054
168.979	15.099	1498.027	1139.589
169.994	15.148	1496.991	1139.038
171.008	15.109	1495.643	1137.641
172.023	15.052	1494.762	1136.486
173.037	15.133	1493.617	1136.066
174.052	15.155	1492.547	1135.301
175.067	15.336	1491.093	1135.319
176.081	15.269	1490.153	1134.047
177.096	15.063	1488.826	1131.546
178.110	15.204	1486.958	1130.978
179.125	15.149	1486.032	1129.805
180.140	15.138	1485.146	1128.956
181.154	15.176	1484.306	1128.471
182.169	15.233	1483.378	1128.053
183.183	15.209	1482.155	1126.862
184.198	15.264	1481.328	1126.501
185.213	15.375	1480.105	1126.214
186.227	15.404	1479.094	1125.544
187.242	15.432	1478.083	1124.859
188.256	15.437	1476.798	1123.818
189.271	15.551	1476.004	1123.874
190.286	15.572	1474.889	1123.069
191.300	15.424	1473.863	1121.201
192.315	15.244	1472.579	1118.918
193.329	15.234	1470.562	1117.220
194.344	15.187	1469.686	1116.144
195.359	15.127	1468.867	1115.026
196.373	15.234	1467.750	1114.789
197.388	15.331	1466.954	1114.730
198.402	15.504	1465.766	1114.882
199.417	15.547	1464.668	1114.234
200.432	15.607	1464.014	1114.032
201.446	15.670	1463.088	1113.649
202.461	15.686	1462.600	1113.282
203.475	15.678	1461.005	1111.915
204.490	15.785	1459.816	1111.622
205.504	15.702	1459.422	1110.672
206.519	15.770	1457.792	1109.781
207.534	15.580	1456.739	1107.633
208.548	15.603	1455.704	1106.901
209.563	15.504	1454.419	1105.170
210.577	15.642	1453.204	1105.056
211.592	15.632	1452.418	1104.296
212.607	15.663	1451.916	1104.021
213.621	15.805	1451.411	1104.472
214.636	15.793	1450.376	1103.509
215.650	15.771	1449.294	1102.445
216.665	15.751	1448.623	1101.706
217.680	15.799	1447.925	1101.389
218.694	15.865	1446.967	1100.993
219.709	15.911	1446.506	1100.848
220.723	15.859	1445.375	1099.551
221.738	15.956	1444.391	1099.335
222.753	15.901	1443.286	1098.043
223.767	15.860	1442.343	1096.960
224.782	15.920	1441.324	1096.475
225.796	15.883	1440.634	1095.616
226.811	16.000	1439.843	1095.675
227.826	15.974	1439.134	1094.869
228.840	16.025	1437.815	1094.103
229.855	15.952	1437.054	1092.954
230.869	15.921	1436.157	1091.972
231.884	15.861	1435.241	1090.790
232.899	15.878	1434.000	1089.863
233.913	15.862	1432.574	1088.579
234.928	15.805	1431.690	1087.442
235.942	15.803	1430.361	1086.323
236.957	15.911	1429.003	1085.891
237.972	15.803	1428.369	1084.618
238.986	15.842	1426.901	1083.658
240.001	15.930	1425.895	1083.364
241.015	15.903	1425.156	1082.533
242.030	15.929	1424.096	1081.797
243.045	15.960	1423.038	1081.100
244.059	16.014	1421.710	1080.339
245.074	16.040	1421.430	1080.200
246.088	16.060	1420.654	1079.644
247.103	16.126	1419.711	1079.252
248.117	16.169	1419.160	1079.011
249.132	16.112	1418.526	1078.071
250.147	16.221	1417.942	1078.227
251.161	16.354	1417.684	1078.787
252.176	16.409	1417.052	1078.560
253.190	16.544	1416.374	1078.811
254.205	16.617	1414.748	1077.940
255.220	16.522	1414.776	1077.263
256.234	16.588	1413.680	1076.752
257.249	16.605	1412.436	1075.820
258.263	16.647	1411.845	1075.540
259.278	16.586	1410.738	1074.216
260.293	16.575	1409.896	1073.405
261.307	16.614	1409.527	1073.276
262.322	16.704	1408.796	1073.200
263.336	16.803	1407.541	1072.774
264.351	16.791	1406.365	1071.706
265.366	16.798	1405.687	1071.142
266.380	16.721	1405.020	1070.051
267.395	16.843	1403.827	1069.814
268.409	16.777	1402.806	1068.528
269.424	16.718	1401.668	1067.197
270.439	16.714	1400.494	1066.177
271.453	16.743	1399.880	1065.800
272.468	16.759	1398.863	1065.033
273.482	16.743	1398.133	1064.284
274.497	16.657	1397.134	1062.887
275.512	16.764	1396.373	1062.887
276.526	16.743	1395.369	1061.898
277.541	16.742	1394.529	1061.154
278.555	16.720	1393.619	1060.236
279.570	16.730	1392.849	1059.618
280.585	16.798	1391.762	1059.122
281.599	16.811	1391.302	1058.755
282.614	16.776	1390.625	1057.929
283.628	16.886	1388.913	1057.222
284.643	16.791	1388.062	1055.886
285.657	16.774	1387.182	1055.022
286.672	16.782	1385.983	1054.064
287.687	16.776	1385.081	1053.245
288.701	16.917	1383.781	1053.042
289.716	16.881	1383.468	1052.484
290.730	16.894	1382.517	1051.750
291.745	16.840	1381.472	1050.526
292.760	16.849	1381.405	1050.441
293.774	16.977	1379.383	1049.597
294.789	16.977	1378.528	1048.859
295.803	17.042	1378.029	1048.785
296.818	17.063	1376.775	1047.868
297.833	17.003	1375.988	1046.808
298.847	16.945	1375.211	1045.763
299.862	16.801	1374.580	1044.306
300.876	16.995	1373.160	1044.330
301.891	17.009	1372.200	1043.589
302.906	17.075	1371.528	1043.396
303.920	17.097	1371.598	1043.491
304.935	17.248	1370.226	1043.285
305.949	17.188	1369.553	1042.310
306.964	17.215	1368.802	1041.811
307.979	17.302	1367.351	1041.148
308.993	17.312	1366.747	1040.655
310.008	17.252	1365.936	1039.578
311.022	17.326	1364.836	1039.101
312.037	17.377	1363.771	1038.511
313.052	17.365	1362.986	1037.748
314.066	17.316	1362.030	1036.630
315.081	17.234	1361.022	1035.274
316.095	17.169	1359.853	1033.893
317.110	17.124	1358.857	1032.773
318.125	17.183	1357.954	1032.352
319.139	17.232	1356.817	1031.692
320.154	17.243	1355.770	1030.873
321.168	17.094	1355.145	1029.406
322.183	17.172	1353.631	1028.637
323.197	17.188	1353.115	1028.251
324.212	17.166	1352.025	1027.200
325.227	17.220	1351.548	1027.070
326.241	17.265	1350.475	1026.438
327.256	17.356	1349.072	1025.826
328.270	17.269	1348.764	1024.976
329.285	17.263	1348.056	1024.313
330.300	17.278	1346.996	1023.508
331.314	17.337	1345.717	1022.797
332.329	17.406	1344.965	1022.551
333.343	17.276	1344.350	1021.214
334.358	17.311	1343.218	1020.472
335.373	17.407	1342.463	1020.383
336.387	17.433	1341.720	1019.887
337.402	17.390	1341.316	1019.230
338.416	17.468	1340.368	1018.887
339.431	17.526	1339.925	1018.806
340.446	17.592	1339.080	1018.467
341.460	17.641	1337.911	1017.783
342.475	17.719	1337.192	1017.610
343.489	17.857	1336.339	1017.697
344.504	17.751	1335.489	1016.327
345.519	17.714	1335.173	1015.777
346.533	17.846	1333.997	1015.574
347.548	17.869	1332.781	1014.698
348.562	17.953	1332.373	1014.795
349.577	17.888	1331.558	1013.698
350.592	17.954	1330.562	1013.240
351.606	17.815	1329.544	1011.553
352.621	17.814	1327.967	1010.260
353.635	17.734	1327.215	1009.123
354.650	17.825	1326.571	1009.086
355.665	17.640	1326.140	1007.575
356.679	17.791	1324.593	1007.200
357.694	17.752	1323.378	1005.957
358.708	17.869	1322.424	1005.830
359.723	17.852	1321.121	1004.655
360.738	17.885	1320.499	1004.287
361.752	17.806	1319.734	1003.149
362.767	17.834	1318.621	1002.377
363.781	17.835	1317.774	1001.652
364.796	17.903	1316.803	1001.223
365.810	17.900	1316.334	1000.763
366.825	18.014	1315.771	1000.914
367.840	17.958	1315.297	1000.133
368.854	18.124	1314.267	1000.237
369.869	18.134	1313.673	999.752
370.883	18.297	1312.930	1000.050
371.898	18.209	1312.032	998.764
372.913	18.263	1311.199	998.357
373.927	18.100	1310.481	996.775
374.942	18.086	1309.578	995.913
375.956	18.170	1309.005	995.884
376.971	18.299	1307.785	995.615
377.986	18.166	1307.530	994.560
379.000	18.210	1306.576	994.003
380.015	18.253	1305.941	993.682
381.029	18.392	1305.006	993.690
382.044	18.408	1304.418	993.245
383.059	18.455	1303.807	992.961
384.073	18.351	1302.999	991.659
385.088	18.335	1302.117	990.809
386.102	18.405	1301.814	990.892
387.117	18.512	1300.821	990.671
388.132	18.375	1299.658	988.903
389.146	18.399	1298.862	988.351
390.161	18.235	1298.173	986.791
391.175	18.265	1297.533	986.392
392.190	18.267	1296.717	985.694
393.205	18.366	1295.917	985.568
394.219	18.365	1295.130	984.880
395.234	18.597	1293.284	984.716
396.248	18.554	1292.077	983.464
397.263	18.502	1290.862	982.157
398.278	18.391	1289.647	980.512
399.292	18.383	1288.545	979.542
400.307	18.288	1287.624	978.210
401.321	18.282	1286.504	977.237
402.336	18.328	1285.450	976.613
403.350	18.328	1284.454	975.767
404.365	18.313	1283.745	975.060
405.380	18.322	1282.890	974.373
406.394	18.447	1282.098	974.401
407.409	18.427	1281.539	973.775
408.423	18.459	1281.070	973.511
409.438	18.675	1280.068	973.891
410.453	18.636	1279.549	973.192
411.467	18.695	1278.519	972.652
412.482	18.718	1278.030	972.325
413.496	18.723	1277.027	971.505
414.511	18.744	1276.936	971.471
415.526	18.806	1275.617	970.732
416.540	18.889	1275.314	970.881
417.555	18.839	1274.491	969.889
418.569	18.841	1274.096	969.512
419.584	18.800	1273.925	969.066
420.599	18.846	1272.991	968.527
421.613	140.552	1431.610	1795.542
422.628	135.154	1454.692	1795.632
