DTS Sentinel unit serial number:	SN413079Multiplexer serial number:	ORYXHardware model number:	OX4-SRSoftware version number:	ORYX F/W v4.00 Oryx Data Collector v3.7.2.0data status	okinstallation	princeton_trtdifferential loss correction	single-endedforward channel	channel 4reverse channel	N/Adate	2019/09/18time	22:01:35forward acquisition time	60.00reverse acquisition time	0.00gamma	496.2192k internal	0.2332k external	0.2332temperature offset calibration	1.0030default loss term (dB/km)	0.3790temperature slope calibration	1.0000multiplexer offset coefficient	1.0000multiplexer slope coefficient	1.0000fibre end	0.00T internal ref (°C)	24.56T ext. ref 1 (°C)	0.81T ext. ref 2 (°C)	18.31length (m)	temperature (°C)	Stokes	anti-Stokes-747.200	77.939	0.150	0.161
-746.185	47.851	0.129	0.121
-745.171	-121.987	-0.129	-0.021
-744.156	-81.153	-0.369	0.123
-743.142	800.000	0.056	0.190
-742.127	532.830	0.114	-0.273
-741.112	-200.000	0.042	-0.292
-740.098	-80.792	0.325	0.109
-739.083	-131.878	-0.219	-0.029
-738.069	-165.663	0.107	-0.005
-737.054	296.196	-0.101	-0.187
-736.039	202.497	-0.065	0.102
-735.025	-122.071	0.213	0.035
-734.010	36.669	-0.166	-0.147
-732.996	-36.540	0.091	-0.049
-731.981	732.807	0.099	0.266
-730.966	-25.162	-0.231	0.137
-729.952	800.000	0.014	0.053
-728.937	-140.823	0.229	-0.024
-727.923	800.000	0.095	-0.299
-726.908	-162.559	-0.146	-0.007
-725.894	250.316	-0.054	0.092
-724.879	-200.000	-0.009	-0.314
-723.864	-200.000	-0.101	-0.476
-722.850	-72.288	0.172	-0.064
-721.835	-200.000	0.062	0.305
-720.821	165.608	-0.129	0.183
-719.806	34.026	0.139	0.122
-718.791	225.601	-0.042	-0.068
-717.777	-47.282	0.032	0.016
-716.762	-38.124	-0.246	-0.131
-715.748	800.000	0.057	0.217
-714.733	285.970	0.113	0.206
-713.718	299.118	-0.015	-0.027
-712.704	616.621	-0.121	-0.304
-711.689	-200.000	-0.035	-0.231
-710.675	-200.000	0.003	-0.404
-709.660	-82.972	0.318	-0.103
-708.645	132.124	0.211	0.273
-707.631	-134.923	-0.280	-0.034
-706.616	66.765	-0.161	-0.165
-705.602	113.163	-0.083	-0.101
-704.587	299.394	-0.076	-0.141
-703.572	164.754	0.006	0.008
-702.558	83.219	0.097	-0.106
-701.543	-85.290	0.201	0.063
-700.529	622.734	0.078	0.198
-699.514	-200.000	-0.014	0.072
-698.499	5.073	0.094	-0.070
-697.485	-57.362	-0.427	-0.189
-696.470	-200.000	-0.025	-0.207
-695.456	4.339	0.145	-0.107
-694.441	95.995	0.153	-0.176
-693.426	-10.795	-0.087	-0.058
-692.412	-182.322	0.162	0.003
-691.397	-108.998	0.254	0.054
-690.383	-200.000	0.027	-0.165
-689.368	143.941	-0.110	-0.147
-688.354	715.126	0.035	-0.092
-687.339	9.903	0.167	-0.127
-686.324	11.719	0.199	0.153
-685.310	-67.695	0.121	-0.048
-684.295	-19.611	0.032	-0.020
-683.281	117.139	-0.107	0.132
-682.266	-43.374	-0.205	0.104
-681.251	-56.993	0.150	0.066
-680.237	58.866	0.355	-0.350
-679.222	175.064	0.063	0.092
-678.208	693.711	0.031	-0.082
-677.193	42.595	-0.176	-0.161
-676.178	-200.000	-0.066	-0.293
-675.164	175.773	-0.081	0.118
-674.149	23.689	0.040	0.033
-673.135	-200.000	-0.029	0.181
-672.120	800.000	0.102	0.301
-671.105	-102.623	0.010	-0.002
-670.091	297.550	0.185	0.341
-669.076	142.577	0.064	-0.085
-668.062	-25.145	0.321	-0.191
-667.047	-171.618	-0.124	0.004
-666.032	45.497	0.203	-0.188
-665.018	125.915	0.232	-0.294
-664.003	59.368	0.130	0.129
-662.989	-13.296	-0.268	0.174
-661.974	800.000	0.056	-0.202
-660.959	-200.000	0.010	-0.085
-659.945	800.000	-0.015	-0.045
-658.930	800.000	0.091	0.286
-657.916	192.537	0.076	-0.115
-656.901	-94.696	-0.111	-0.030
-655.886	-90.017	0.082	0.024
-654.872	800.000	-0.068	-0.297
-653.857	-43.599	0.136	-0.069
-652.843	454.921	0.072	0.160
-651.828	159.912	-0.055	0.076
-650.814	-125.025	0.032	-0.005
-649.799	-30.140	0.199	-0.113
-648.784	71.605	-0.271	-0.282
-647.770	-41.618	-0.202	-0.104
-646.755	-200.000	0.016	0.138
-645.741	-101.413	-0.217	0.053
-644.726	-200.000	-0.040	-0.205
-643.711	-137.782	0.310	0.035
-642.697	-200.000	0.027	-0.169
-641.682	800.000	-0.066	-0.215
-640.668	-87.026	0.081	-0.025
-639.653	22.028	0.083	0.068
-638.638	-154.028	-0.287	0.020
-637.624	-114.320	-0.060	-0.012
-636.609	-93.648	-0.170	-0.047
-635.595	-1.088	-0.193	0.137
-634.580	-47.023	0.263	0.129
-633.565	800.000	-0.074	0.204
-632.551	-15.668	0.096	-0.062
-631.536	-134.701	0.132	-0.016
-630.522	-43.393	0.135	0.068
-629.507	-200.000	0.043	-0.202
-628.492	41.762	0.182	0.166
-627.478	87.204	0.159	-0.176
-626.463	-32.320	-0.348	-0.194
-625.449	-200.000	0.006	0.041
-624.434	800.000	0.036	-0.140
-623.419	105.858	-0.344	-0.408
-622.405	424.533	-0.112	-0.241
-621.390	-117.871	0.155	-0.028
-620.376	-80.223	-0.306	-0.103
-619.361	800.000	0.096	-0.328
-618.346	122.199	0.184	-0.230
-617.332	-88.294	0.159	0.048
-616.317	-200.000	-0.032	0.174
-615.303	800.000	-0.035	-0.146
-614.288	-36.544	0.378	-0.204
-613.273	800.000	0.065	0.232
-612.259	-200.000	0.018	0.217
-611.244	259.603	0.066	-0.115
-610.230	585.478	0.054	-0.132
-609.215	38.147	0.094	0.084
-608.201	800.000	0.037	0.134
-607.186	-118.114	0.174	-0.031
-606.171	-99.680	-0.120	-0.030
-605.157	-200.000	0.007	-0.064
-604.142	21.683	-0.244	-0.199
-603.128	-27.186	-0.188	0.110
-602.113	222.365	-0.049	-0.080
-601.098	-117.569	0.239	0.043
-600.084	-45.646	-0.141	0.070
-599.069	-63.125	-0.129	-0.053
-598.055	164.872	0.188	0.265
-597.040	-40.595	0.200	0.104
-596.025	-71.799	-0.256	0.095
-595.011	-200.000	0.006	0.164
-593.996	-112.553	0.243	0.048
-592.982	800.000	-0.059	-0.165
-591.967	-8.986	-0.276	0.185
-590.952	800.000	-0.039	0.168
-589.938	116.586	-0.058	-0.072
-588.923	384.712	0.151	-0.312
-587.909	-29.252	0.501	-0.287
-586.894	-200.000	-0.008	-0.213
-585.879	-6.086	-0.154	0.105
-584.865	-76.548	-0.322	0.113
-583.850	387.384	-0.134	-0.277
-582.836	172.965	-0.116	-0.168
-581.821	-113.271	0.215	-0.042
-580.806	8.035	0.224	-0.168
-579.792	800.000	0.087	0.304
-578.777	-120.395	0.030	-0.005
-577.763	597.937	-0.098	-0.243
-576.748	-200.000	0.025	-0.328
-575.733	-200.000	0.024	-0.443
-574.719	395.539	-0.113	0.236
-573.704	123.830	0.056	-0.070
-572.690	-200.000	-0.014	-0.267
-571.675	-200.000	0.019	-0.098
-570.661	-107.253	0.077	-0.017
-569.646	45.235	-0.015	-0.013
-568.631	64.732	-0.203	0.205
-567.617	-200.000	-0.002	0.160
-566.602	-30.925	0.155	0.088
-565.588	-200.000	0.047	-0.304
-564.573	309.796	0.073	0.136
-563.558	-32.635	-0.283	-0.158
-562.544	-129.070	0.119	-0.017
-561.529	-4.088	-0.139	-0.096
-560.515	-200.000	0.005	-0.040
-559.500	521.828	0.136	0.319
-558.485	-180.367	0.245	0.005
-557.471	-99.629	-0.271	-0.068
-556.456	-200.000	-0.034	0.266
-555.442	103.167	0.235	-0.275
-554.427	-200.000	0.024	-0.112
-553.412	269.115	-0.142	-0.249
-552.398	287.467	0.190	0.343
-551.383	-120.187	0.128	-0.022
-550.369	343.207	0.139	0.271
-549.354	-9.171	-0.282	0.188
-548.339	-115.894	-0.320	-0.060
-547.325	-120.821	0.195	0.033
-546.310	-200.000	0.030	-0.221
-545.296	412.875	-0.053	0.113
-544.281	-90.283	-0.266	-0.077
-543.266	-43.078	-0.226	0.114
-542.252	269.494	0.113	-0.199
-541.237	-43.272	0.298	0.150
-540.223	213.912	0.328	0.517
-539.208	51.517	0.181	-0.171
-538.193	551.537	0.099	-0.238
-537.179	148.246	0.087	0.117
-536.164	25.669	-0.199	0.166
-535.150	788.288	-0.083	0.229
-534.135	800.000	0.073	-0.234
-533.121	-200.000	-0.046	0.204
-532.106	-143.924	-0.429	0.040
-531.091	89.404	-0.148	-0.165
-530.077	-99.938	-0.216	0.054
-529.062	800.000	0.061	0.206
-528.048	-41.653	-0.327	-0.167
-527.033	113.043	0.134	0.162
-526.018	800.000	-0.090	-0.339
-525.004	331.767	0.141	-0.271
-523.989	-106.615	0.262	0.058
-522.975	-200.000	-0.011	-0.165
-521.960	-115.176	-0.018	0.003
-520.945	388.310	-0.172	-0.356
-519.931	485.701	-0.091	0.206
-518.916	30.348	0.167	0.142
-517.902	6.959	-0.245	-0.182
-516.887	196.268	-0.035	-0.053
-515.872	-68.876	-0.289	-0.111
-514.858	384.185	0.206	0.423
-513.843	-200.000	-0.072	0.322
-512.829	-22.855	0.364	0.219
-511.814	-60.691	-0.357	-0.151
-510.799	-200.000	0.040	0.229
-509.785	199.213	-0.090	0.138
-508.770	628.943	0.113	0.284
-507.756	800.000	-0.043	0.165
-506.741	30.628	0.195	-0.167
-505.726	111.055	0.381	0.457
-504.712	-36.403	0.159	0.086
-503.697	66.620	0.298	0.302
-502.683	-53.768	-0.280	-0.127
-501.668	47.311	-0.248	-0.230
-500.653	-149.403	-0.389	0.031
-499.639	-117.797	0.057	0.010
-498.624	-30.530	0.067	-0.038
-497.610	-200.000	0.001	-0.051
-496.595	18.580	-0.220	0.175
-495.581	-41.018	-0.030	-0.016
-494.566	35.101	-0.070	0.061
-493.551	380.922	0.041	-0.083
-492.537	-65.124	0.297	0.119
-491.522	-179.103	0.284	-0.006
-490.508	-200.000	0.011	-0.248
-489.493	-152.230	-0.345	-0.025
-488.478	175.856	-0.078	0.113
-487.464	170.403	0.146	-0.208
-486.449	251.758	0.092	-0.155
-485.435	-200.000	0.043	-0.197
-484.420	800.000	-0.096	-0.281
-483.405	565.022	0.082	0.198
-482.391	-200.000	-0.000	0.151
-481.376	287.751	-0.019	-0.033
-480.362	121.088	0.128	-0.159
-479.347	-92.181	0.135	0.038
-478.332	-129.264	-0.107	0.015
-477.318	-200.000	-0.059	-0.321
-476.303	-200.000	-0.090	-0.451
-475.289	612.593	0.046	-0.114
-474.274	-200.000	-0.040	0.289
-473.259	-5.001	-0.193	0.132
-472.245	-200.000	0.055	0.498
-471.230	407.651	-0.100	-0.210
-470.216	-73.618	-0.121	0.044
-469.201	-124.222	0.484	0.075
-468.186	332.240	-0.049	-0.093
-467.172	118.236	-0.042	0.052
-466.157	-200.000	-0.046	-0.234
-465.143	59.398	-0.168	0.165
-464.128	28.704	0.145	0.123
-463.113	648.298	0.139	-0.353
-462.099	-56.637	0.180	0.079
-461.084	-29.646	-0.113	-0.064
-460.070	-81.638	0.278	-0.091
-459.055	12.692	-0.278	-0.213
-458.040	-200.000	0.042	-0.206
-457.026	109.565	-0.067	0.080
-456.011	51.135	-0.341	0.322
-454.997	-77.471	-0.145	0.050
-453.982	-200.000	0.044	-0.231
-452.968	50.093	0.193	0.181
-451.953	317.412	-0.047	-0.088
-450.938	-14.272	0.099	-0.064
-449.924	800.000	0.086	-0.285
-448.909	285.222	0.156	-0.280
-447.895	67.424	-0.190	-0.193
-446.880	-200.000	-0.026	0.148
-445.865	-200.000	-0.023	-0.307
-444.851	-200.000	0.045	-0.409
-443.836	-167.067	-0.071	-0.003
-442.822	682.843	-0.139	-0.359
-441.807	355.444	0.081	-0.160
-440.792	-75.604	-0.155	-0.055
-439.778	229.105	0.194	0.314
-438.763	305.656	-0.048	0.089
-437.749	-200.000	-0.011	0.161
-436.734	323.878	-0.102	-0.194
-435.719	-200.000	0.010	-0.059
-434.705	-86.357	0.136	-0.042
-433.690	-54.192	0.377	0.170
-432.676	11.713	-0.042	0.032
-431.661	241.351	-0.135	-0.224
-430.646	48.931	-0.050	-0.047
-429.632	-76.819	0.154	-0.053
-428.617	-200.000	0.050	0.265
-427.603	87.670	0.113	0.124
-426.588	-12.272	0.243	-0.158
-425.573	-65.506	-0.452	-0.181
-424.559	-180.459	-0.343	-0.007
-423.544	-200.000	0.011	-0.221
-422.530	-200.000	0.019	-0.337
-421.515	-200.000	-0.016	0.154
-420.500	-200.000	0.011	-0.188
-419.486	131.837	0.268	0.343
-418.471	-200.000	0.038	0.240
-417.457	-7.134	-0.196	-0.132
-416.442	18.452	-0.180	-0.143
-415.428	-200.000	0.016	0.227
-414.413	-38.958	0.225	-0.117
-413.398	77.865	-0.178	-0.189
-412.384	277.669	0.131	-0.231
-411.369	-53.199	-0.164	-0.075
-410.355	-100.445	0.249	0.061
-409.340	800.000	-0.089	0.363
-408.325	-119.527	-0.167	-0.029
-407.311	2.783	0.215	-0.155
-406.296	81.015	-0.164	0.175
-405.282	-200.000	-0.032	-0.213
-404.267	84.542	0.049	0.053
-403.252	-200.000	0.029	0.314
-402.238	-83.349	-0.114	0.036
-401.223	37.029	-0.139	-0.122
-400.209	148.912	-0.110	-0.147
-399.194	-49.278	0.122	0.058
-398.179	-200.000	-0.037	0.262
-397.165	22.122	-0.304	-0.246
-396.150	352.905	0.094	-0.184
-395.136	800.000	0.092	-0.257
-394.121	-79.792	0.160	0.053
-393.106	126.709	-0.064	-0.080
-392.092	206.259	-0.089	-0.138
-391.077	18.388	0.233	0.185
-390.063	-46.240	0.125	0.061
-389.048	-55.635	0.225	-0.100
-388.033	508.589	-0.061	-0.142
-387.019	800.000	0.039	0.119
-386.004	385.116	0.224	0.458
-384.990	-99.604	0.290	-0.072
-383.975	-76.851	0.211	0.073
-382.960	-185.110	-0.380	0.006
-381.946	800.000	-0.117	-0.362
-380.931	6.304	0.348	0.256
-379.917	-21.072	0.146	0.089
-378.902	71.723	0.119	0.122
-377.888	800.000	0.081	0.296
-376.873	193.530	0.046	0.070
-375.858	800.000	-0.033	0.093
-374.844	455.544	0.184	0.404
-373.829	1.105	-0.224	-0.159
-372.815	40.119	0.102	0.090
-371.800	-69.580	-0.086	-0.033
-370.785	-121.465	-0.429	0.071
-369.771	-31.858	0.073	0.041
-368.756	-100.054	0.170	0.042
-367.742	-20.937	0.055	0.033
-366.727	-0.693	0.142	0.100
-365.712	800.000	-0.028	-0.087
-364.698	151.013	0.344	-0.464
-363.683	-26.187	0.117	0.068
-362.669	302.368	0.081	-0.149
-361.654	-43.429	-0.221	0.111
-360.639	79.739	0.137	-0.145
-359.625	515.671	0.136	0.314
-358.610	-100.007	-0.162	0.040
-357.596	-2.728	-0.186	0.129
-356.581	145.196	0.034	0.044
-355.566	800.000	0.042	0.120
-354.552	537.315	-0.075	-0.176
-353.537	-127.175	0.168	-0.024
-352.523	3.194	-0.278	0.200
-351.508	-164.566	-0.388	-0.017
-350.493	-200.000	0.027	-0.132
-349.479	179.101	-0.251	-0.364
-348.464	-200.000	0.016	0.208
-347.450	-28.395	0.403	0.231
-346.435	244.229	-0.150	0.249
-345.420	-200.000	-0.001	-0.104
-344.406	52.422	-0.176	-0.166
-343.391	-189.416	-0.226	-0.003
-342.377	-200.000	0.004	-0.047
-341.362	-145.027	-0.307	-0.028
-340.348	584.112	-0.083	0.202
-339.333	-120.155	-0.090	0.015
-338.318	-27.124	-0.303	0.175
-337.304	-200.000	0.017	0.378
-336.289	98.537	-0.111	0.126
-335.275	-86.348	0.283	-0.086
-334.260	-200.000	0.003	0.175
-333.245	-123.332	0.232	0.037
-332.231	-130.773	-0.346	-0.046
-331.216	77.743	-0.304	0.321
-330.202	800.000	-0.057	-0.196
-329.187	507.368	0.054	0.125
-328.172	121.143	0.256	0.316
-327.158	-200.000	-0.017	0.324
-326.143	-41.661	0.232	0.118
-325.129	-186.330	0.100	-0.001
-324.114	-200.000	-0.021	-0.143
-323.099	-200.000	-0.015	-0.110
-322.085	-192.854	-0.220	-0.002
-321.070	-200.000	-0.023	0.142
-320.056	-200.000	-0.026	-0.195
-319.041	124.705	0.052	-0.065
-318.026	86.232	-0.037	-0.040
-317.012	-56.636	0.185	0.081
-315.997	70.538	0.053	-0.054
-314.983	-51.947	0.304	0.140
-313.968	-95.687	0.291	0.077
-312.953	87.592	0.215	-0.235
-311.939	593.101	-0.095	0.233
-310.924	228.501	-0.115	-0.185
-309.910	-200.000	0.046	-0.324
-308.895	-200.000	0.027	-0.203
-307.880	120.476	-0.072	-0.089
-306.866	800.000	-0.048	0.169
-305.851	-18.499	0.199	0.123
-304.837	-200.000	0.075	0.401
-303.822	205.010	-0.056	-0.087
-302.807	295.049	0.078	-0.142
-301.793	-76.690	0.320	-0.111
-300.778	16.000	-0.142	0.111
-299.764	369.688	0.047	0.094
-298.749	3.312	0.057	-0.041
-297.735	800.000	-0.057	-0.167
-296.720	61.927	0.175	0.172
-295.705	59.253	0.183	-0.179
-294.691	-4.967	0.047	0.032
-293.676	193.532	-0.184	0.275
-292.662	118.080	-0.227	-0.277
-291.647	-169.322	0.172	-0.006
-290.632	327.049	-0.093	0.177
-289.618	50.362	0.373	0.348
-288.603	-158.225	0.063	0.004
-287.589	-98.982	0.110	-0.027
-286.574	55.053	0.184	-0.176
-285.559	-200.000	0.014	-0.141
-284.545	-200.000	-0.030	0.376
-283.530	147.759	0.270	0.360
-282.516	-126.740	-0.201	-0.029
-281.501	800.000	-0.077	-0.288
-280.486	-67.669	-0.213	0.082
-279.472	800.000	0.015	-0.062
-278.457	-34.070	-0.181	0.098
-277.443	-64.929	-0.209	0.084
-276.428	163.693	-0.128	0.178
-275.413	-200.000	0.010	0.138
-274.399	800.000	0.016	-0.045
-273.384	-182.615	-0.282	-0.005
-272.370	-83.763	-0.158	-0.050
-271.355	-63.747	-0.415	-0.168
-270.340	-200.000	-0.033	0.412
-269.326	73.859	-0.116	0.120
-268.311	-200.000	0.001	-0.054
-267.297	-126.701	0.170	-0.025
-266.282	-6.534	-0.214	-0.144
-265.267	362.513	-0.080	-0.159
-264.253	-153.193	0.214	-0.015
-263.238	4.831	0.331	-0.240
-262.224	800.000	0.068	0.227
-261.209	4.231	0.153	-0.110
-260.195	-200.000	-0.042	0.246
-259.180	-11.355	0.106	0.069
-258.165	-77.777	0.058	-0.020
-257.151	-107.354	-0.267	0.058
-256.136	124.963	-0.132	-0.164
-255.122	242.879	0.079	-0.130
-254.107	11.041	-0.222	-0.167
-253.092	-42.096	0.129	-0.065
-252.078	800.000	0.043	-0.143
-251.063	-62.120	-0.029	0.012
-250.049	230.690	0.175	-0.283
-249.034	316.331	0.115	0.215
-248.019	662.760	0.025	0.064
-247.005	83.470	0.360	0.387
-245.990	298.356	0.086	0.157
-244.976	120.057	-0.206	-0.252
-243.961	33.217	-0.174	-0.149
-242.946	234.111	-0.051	0.083
-241.932	32.218	0.096	-0.082
-240.917	-200.000	-0.020	-0.145
-239.903	-114.585	0.250	0.047
-238.888	325.288	-0.195	0.367
-237.873	-200.000	-0.092	0.508
-236.859	-23.504	-0.123	-0.073
-235.844	-200.000	-0.014	-0.110
-234.830	-31.883	-0.238	0.131
-233.815	58.832	0.176	0.171
-232.800	168.782	0.102	-0.144
-231.786	140.348	-0.138	0.179
-230.771	389.267	-0.070	-0.144
-229.757	-200.000	-0.033	-0.319
-228.742	-24.422	-0.359	0.211
-227.727	-131.252	-0.174	-0.023
-226.713	-200.000	-0.003	-0.108
-225.698	-200.000	-0.001	0.125
-224.684	800.000	-0.076	0.226
-223.669	-200.000	-0.018	0.221
-222.655	-99.503	-0.161	-0.040
-221.640	297.363	-0.126	0.228
-220.625	800.000	-0.085	0.309
-219.611	-29.673	0.147	0.083
-218.596	10.745	0.109	-0.082
-217.582	800.000	0.091	-0.257
-216.567	-121.055	0.326	-0.054
-215.552	130.422	0.040	0.050
-214.538	214.212	-0.157	0.244
-213.523	115.926	-0.164	-0.197
-212.509	-91.263	0.295	-0.083
-211.494	-200.000	0.028	0.179
-210.479	656.606	-0.192	0.487
-209.465	800.000	0.058	-0.163
-208.450	92.113	0.144	0.160
-207.436	360.035	0.100	0.197
-206.421	74.029	-0.102	-0.106
-205.406	200.540	-0.196	-0.296
-204.392	-64.646	0.216	0.086
-203.377	7.983	0.095	-0.070
-202.363	-67.805	-0.107	-0.041
-201.348	-17.030	0.286	-0.178
-200.333	-105.760	0.180	-0.040
-199.319	-200.000	0.019	-0.157
-198.304	-200.000	0.026	0.124
-197.290	168.834	0.040	0.056
-196.275	800.000	-0.063	0.233
-195.260	-83.726	-0.244	-0.077
-194.246	23.895	-0.059	0.048
-193.231	175.105	0.096	0.137
-192.217	327.447	-0.116	0.219
-191.202	-39.882	-0.502	0.258
-190.187	290.585	0.133	0.238
-189.173	-200.000	0.012	-0.203
-188.158	399.392	0.024	-0.050
-187.144	-56.780	0.217	-0.095
-186.129	195.308	-0.121	-0.181
-185.114	-140.885	0.291	0.029
-184.100	297.227	-0.293	-0.529
-183.085	-200.000	0.056	-0.295
-182.071	-200.000	-0.015	-0.090
-181.056	800.000	0.070	0.271
-180.042	-72.315	-0.289	0.105
-179.027	71.155	0.070	0.071
-178.012	57.984	0.210	-0.203
-176.998	-200.000	-0.014	0.108
-175.983	-190.001	-0.198	0.002
-174.969	-116.055	0.464	-0.085
-173.954	-200.000	0.049	-0.225
-172.939	122.492	-0.122	0.150
-171.925	142.120	0.077	0.100
-170.910	-200.000	-0.047	-0.308
-169.896	-123.175	-0.566	-0.089
-168.881	-200.000	-0.005	0.231
-167.866	31.069	-0.128	-0.108
-166.852	800.000	0.074	0.316
-165.837	142.239	0.144	0.188
-164.823	294.645	-0.032	0.057
-163.808	-200.000	0.059	-0.375
-162.793	-200.000	-0.050	-0.243
-161.779	-200.000	0.009	0.062
-160.764	280.154	-0.083	-0.146
-159.750	741.966	-0.132	0.349
-158.735	9.692	0.365	0.272
-157.720	-200.000	-0.068	-0.393
-156.706	190.984	-0.126	-0.186
-155.691	-107.911	0.428	-0.091
-154.677	651.710	-0.052	0.130
-153.662	800.000	0.080	0.293
-152.647	-155.887	-0.143	0.009
-151.633	-200.000	0.012	0.195
-150.618	40.286	0.316	-0.279
-149.604	-200.000	-0.018	-0.268
-148.589	-71.281	0.307	-0.113
-147.574	-200.000	-0.016	0.109
-146.560	-200.000	0.006	0.048
-145.545	180.769	-0.064	0.092
-144.531	-75.610	0.256	0.089
-143.516	-84.575	-0.230	0.071
-142.502	-89.262	-0.216	0.063
-141.487	125.595	0.144	-0.179
-140.472	-137.011	-0.213	-0.024
-139.458	-135.197	0.327	-0.039
-138.443	348.737	-0.077	-0.149
-137.429	223.756	0.063	-0.099
-136.414	-35.635	0.112	-0.060
-135.399	-200.000	0.031	-0.181
-134.385	800.000	-0.024	0.101
-133.370	-200.000	-0.002	0.359
-132.356	95.508	-0.231	0.259
-131.341	20.773	0.057	0.045
-130.326	1.584	-0.193	0.136
-129.312	800.000	0.175	0.577
-128.297	-200.000	-0.009	0.167
-127.283	-178.042	-0.075	0.002
-126.268	-20.570	0.257	-0.155
-125.253	137.921	0.112	-0.144
-124.239	-62.050	-0.067	-0.027
-123.224	-35.387	0.126	0.067
-122.210	800.000	-0.074	-0.218
-121.195	-124.063	-0.166	-0.026
-120.180	-200.000	-0.002	-0.283
-119.166	800.000	-0.151	-0.482
-118.151	-200.000	0.312	0.000
-117.137	-106.736	0.225	-0.049
-116.122	94.181	0.204	-0.227
-115.107	189.567	0.157	0.231
-114.093	-54.056	0.209	-0.093
-113.078	-3.175	-0.168	0.115
-112.064	-2.321	0.215	0.148
-111.049	507.686	0.069	0.157
-110.034	-26.452	0.304	-0.175
-109.020	800.000	0.130	0.354
-108.005	16.190	-0.189	-0.147
-106.991	140.400	-0.234	0.303
-105.976	149.543	0.302	0.402
-104.962	-15.035	-0.139	-0.087
-103.947	747.432	0.054	0.143
-102.932	-20.690	0.138	-0.083
-101.918	-25.934	-0.121	-0.070
-100.903	800.000	-0.010	0.043
-99.889	-34.589	-0.185	-0.099
-98.874	21.981	0.178	-0.142
-97.859	411.791	0.102	0.212
-96.845	-59.917	-0.187	-0.079
-95.830	-200.000	0.018	-0.126
-94.816	-200.000	-0.024	0.106
-93.801	315.345	-0.066	0.122
-92.786	357.543	-0.097	0.190
-91.772	800.000	0.041	0.164
-90.757	103.121	-0.157	-0.181
-89.743	-60.967	-0.315	-0.131
-88.728	-53.419	-0.192	-0.086
-87.713	21.001	-0.033	0.026
-86.699	-14.830	-0.204	-0.128
-85.684	4.301	0.190	-0.136
-84.670	251.148	0.069	0.115
-83.655	-149.645	-0.191	-0.015
-82.640	-200.000	-0.096	0.500
-81.626	-63.030	-0.373	0.151
-80.611	-108.066	0.305	0.065
-79.597	467.503	-0.048	0.105
-78.582	166.511	0.127	0.177
-77.567	-200.000	0.023	0.284
-76.553	-200.000	0.035	0.267
-75.538	-11.823	0.161	-0.103
-74.524	217.075	0.114	-0.179
-73.509	16.292	-0.095	-0.074
-72.494	130.540	-0.146	-0.184
-71.480	269.147	0.149	0.257
-70.465	265.399	0.120	0.205
-69.451	-200.000	-0.010	0.110
-68.436	800.000	0.094	0.264
-67.422	169.407	0.236	0.330
-66.407	-138.083	0.173	0.019
-65.392	-154.019	0.266	0.018
-64.378	-82.932	0.353	-0.112
-63.363	800.000	-0.039	-0.146
-62.349	8.765	0.217	-0.160
-61.334	9.771	-1.442	-1.071
-60.319	30.507	0.772	0.646
-59.305	-200.000	-0.167	-1.179
-58.290	492.346	0.646	1.449
-57.276	800.000	0.330	1.223
-56.261	-200.000	120.375	643.035
-55.246	432.599	1530.412	3251.150
-54.232	146.657	2687.550	3536.564
-53.217	90.075	2305.248	2523.241
-52.203	30.998	2056.885	1726.592
-51.188	26.322	1974.283	1615.510
-50.173	25.138	1958.491	1592.019
-49.159	42.771	2028.043	1808.876
-48.144	41.055	2041.907	1805.621
-47.130	26.706	1994.894	1635.578
-46.115	24.644	1984.203	1608.217
-45.100	24.541	1981.176	1604.772
-44.086	24.531	1978.425	1602.387
-43.071	24.483	1976.271	1600.149
-42.057	24.415	1974.186	1597.788
-41.042	24.405	1972.739	1596.466
-40.027	24.510	1970.761	1595.746
-39.013	24.475	1968.777	1593.759
-37.998	24.610	1966.473	1593.031
-36.984	24.494	1964.943	1590.703
-35.969	24.460	1962.820	1588.617
-34.954	24.484	1961.753	1587.898
-33.940	24.517	1960.223	1586.893
-32.925	24.588	1958.623	1586.164
-31.911	24.590	1956.964	1584.776
-30.896	24.638	1954.970	1583.524
-29.881	24.600	1953.654	1582.061
-28.867	24.585	1952.411	1580.855
-27.852	24.575	1950.897	1579.476
-26.838	24.590	1948.770	1577.832
-25.823	24.604	1946.961	1576.424
-24.809	24.577	1945.562	1574.988
-23.794	24.619	1943.321	1573.480
-22.779	24.624	1941.722	1572.167
-21.765	24.658	1940.459	1571.386
-20.750	24.499	1938.903	1568.670
-19.736	24.659	1936.545	1568.097
-18.721	24.542	1935.579	1566.233
-17.706	24.620	1934.017	1565.583
-16.692	24.585	1931.921	1563.519
-15.677	24.578	1930.211	1562.012
-14.663	24.524	1929.353	1560.786
-13.648	24.629	1927.635	1560.250
-12.633	24.548	1926.699	1558.727
-11.619	24.513	1925.852	1557.674
-10.604	24.585	1924.047	1556.781
-9.590	24.522	1923.264	1555.535
-8.575	24.531	1921.370	1554.017
-7.560	24.539	1919.911	1552.849
-6.546	24.587	1919.000	1552.460
-5.531	24.596	1917.233	1551.052
-4.517	24.601	1916.331	1550.305
-3.502	24.554	1915.450	1549.126
-2.487	24.468	1914.416	1547.480
-1.473	24.578	1913.204	1547.391
-0.458	24.607	1907.846	1543.246
0.556	23.371	1887.791	1514.202
1.571	18.852	1869.443	1461.026
2.586	14.871	1891.109	1443.519
3.600	13.855	1925.446	1460.658
4.615	13.984	1919.599	1457.232
5.629	11.350	1821.593	1360.762
6.644	4.829	1708.853	1225.258
7.659	1.161	1675.490	1172.894
8.673	0.884	1672.520	1168.570
9.688	0.874	1671.623	1167.762
10.702	0.813	1670.402	1166.338
11.717	0.690	1666.434	1162.519
12.731	1.121	1665.271	1164.919
13.746	6.146	1675.020	1210.395
14.761	13.352	1689.786	1276.757
15.775	16.978	1695.863	1309.276
16.790	17.360	1695.186	1311.578
17.804	16.419	1692.434	1302.085
18.819	15.473	1688.658	1291.794
19.834	14.836	1686.779	1285.344
20.848	14.610	1684.980	1282.119
21.863	14.405	1683.539	1279.339
22.877	14.005	1682.586	1275.429
23.892	13.915	1680.330	1272.919
24.907	13.748	1679.558	1270.943
25.921	13.714	1678.330	1269.636
26.936	13.756	1677.405	1269.152
27.950	13.785	1676.410	1268.509
28.965	13.847	1676.063	1268.605
29.980	13.875	1675.187	1268.040
30.994	13.851	1673.958	1266.814
32.009	13.943	1673.069	1266.734
33.023	14.020	1671.967	1266.371
34.038	14.081	1670.864	1265.895
35.053	13.924	1670.305	1264.159
36.067	13.959	1669.325	1263.577
37.082	13.984	1667.681	1262.409
38.096	13.976	1666.430	1261.290
39.111	13.895	1666.400	1260.539
40.126	13.947	1665.214	1259.925
41.140	13.980	1664.484	1259.513
42.155	13.979	1662.751	1258.082
43.169	13.776	1661.883	1255.776
44.184	13.774	1660.540	1254.638
45.199	13.736	1659.508	1253.457
46.213	13.788	1658.297	1252.827
47.228	13.811	1657.042	1251.941
48.242	13.797	1655.873	1250.838
49.257	13.838	1654.483	1249.990
50.271	13.856	1653.763	1249.468
51.286	13.936	1651.949	1248.588
52.301	13.939	1650.521	1247.421
53.315	13.917	1649.169	1246.125
54.330	13.818	1648.100	1244.464
55.344	13.856	1645.958	1243.018
56.359	13.787	1644.902	1241.597
57.374	13.809	1643.924	1240.917
58.388	13.755	1643.178	1239.835
59.403	13.798	1640.887	1238.319
60.417	13.754	1640.216	1237.373
61.432	13.762	1639.022	1236.422
62.447	13.806	1637.398	1235.418
63.461	13.696	1636.218	1233.600
64.476	13.774	1634.788	1232.990
65.490	13.725	1634.010	1231.933
66.505	13.677	1632.858	1230.596
67.520	13.709	1631.686	1229.848
68.534	13.735	1630.466	1229.005
69.549	13.739	1629.863	1228.474
70.563	13.762	1628.244	1227.318
71.578	13.733	1627.013	1226.067
72.593	13.675	1626.053	1224.808
73.607	13.594	1625.542	1223.713
74.622	13.701	1623.344	1222.739
75.636	13.585	1622.637	1221.246
76.651	13.631	1622.052	1221.036
77.666	13.666	1620.608	1220.099
78.680	13.667	1620.190	1219.685
79.695	13.538	1619.252	1217.919
80.709	13.688	1617.474	1217.578
81.724	13.631	1617.174	1216.825
82.739	13.772	1615.764	1216.689
83.753	13.729	1615.181	1215.824
84.768	13.732	1614.365	1215.128
85.782	13.780	1613.728	1214.894
86.797	13.881	1612.545	1214.631
87.812	13.821	1611.276	1213.129
88.826	13.826	1610.567	1212.527
89.841	13.738	1609.473	1210.954
90.855	13.780	1608.574	1210.472
91.870	13.865	1607.073	1209.861
92.884	13.842	1606.154	1208.892
93.899	13.892	1605.059	1208.327
94.914	13.766	1604.353	1206.769
95.928	13.957	1602.111	1206.364
96.943	13.943	1601.141	1205.423
97.957	13.977	1599.996	1204.704
98.972	13.925	1598.123	1202.811
99.987	13.810	1597.479	1201.386
101.001	13.892	1595.427	1200.327
102.016	13.864	1593.883	1198.860
103.030	13.843	1592.398	1197.484
104.045	13.880	1591.210	1196.753
105.060	13.886	1590.664	1196.278
106.074	13.886	1588.873	1194.827
107.089	13.793	1587.248	1192.830
108.103	13.742	1585.953	1191.382
109.118	13.797	1584.921	1190.900
110.133	13.698	1583.178	1188.777
111.147	13.716	1582.055	1187.954
112.162	13.758	1580.279	1186.814
113.176	13.854	1578.782	1186.271
114.191	13.802	1577.627	1184.932
115.206	13.901	1576.290	1184.527
116.220	13.865	1575.083	1183.259
117.235	13.867	1573.848	1182.242
118.249	13.838	1572.349	1180.805
119.264	13.893	1571.180	1180.213
120.279	13.856	1569.807	1178.815
121.293	13.922	1568.291	1178.039
122.308	13.846	1567.174	1176.554
123.322	13.763	1565.722	1174.775
124.337	13.780	1564.450	1173.835
125.352	13.820	1562.843	1172.809
126.366	13.743	1562.319	1171.772
127.381	13.744	1560.974	1170.664
128.395	13.720	1560.092	1169.731
129.410	13.787	1558.220	1168.693
130.424	13.784	1556.945	1167.615
131.439	13.810	1555.513	1166.619
132.454	13.840	1554.144	1165.699
133.468	13.823	1552.938	1164.572
134.483	13.904	1551.130	1163.682
135.497	13.925	1549.673	1162.634
136.512	13.945	1548.434	1161.743
137.527	13.891	1547.033	1160.209
138.541	13.871	1546.220	1159.356
139.556	13.958	1544.804	1158.801
140.570	13.893	1543.809	1157.497
141.585	13.935	1542.521	1156.721
142.600	14.022	1540.967	1156.056
143.614	13.975	1540.048	1154.939
144.629	14.062	1538.712	1154.444
145.643	14.116	1537.122	1153.519
146.658	14.055	1535.792	1151.996
147.673	14.101	1534.161	1150.992
148.687	14.065	1532.722	1149.558
149.702	14.033	1530.898	1147.871
150.716	14.041	1529.296	1146.624
151.731	13.979	1528.866	1145.768
152.746	13.975	1527.428	1144.562
153.760	13.997	1526.123	1143.640
154.775	14.092	1524.183	1142.732
155.789	14.102	1523.343	1142.075
156.804	14.147	1521.745	1141.082
157.819	14.143	1520.883	1140.308
158.833	14.185	1519.662	1139.576
159.848	14.162	1518.278	1138.284
160.862	14.206	1517.407	1137.826
161.877	14.255	1516.125	1137.102
162.892	14.161	1514.956	1135.482
163.906	14.138	1513.901	1134.435
164.921	14.194	1512.542	1133.699
165.935	14.202	1511.342	1132.755
166.950	14.225	1510.413	1132.111
167.964	14.261	1508.798	1131.048
168.979	14.198	1507.960	1129.888
169.994	14.173	1507.234	1129.077
171.008	14.276	1505.681	1128.511
172.023	14.291	1504.535	1127.657
173.037	14.247	1503.930	1126.801
174.052	14.324	1502.542	1126.187
175.067	14.364	1501.529	1125.599
176.081	14.284	1500.771	1124.390
177.096	14.282	1498.839	1122.828
178.110	14.235	1497.871	1121.683
179.125	14.270	1496.080	1120.479
180.140	14.312	1495.178	1119.990
181.154	14.287	1494.317	1119.076
182.169	14.305	1493.481	1118.471
183.183	14.336	1492.031	1117.494
184.198	14.329	1491.312	1116.812
185.213	14.411	1490.091	1116.346
186.227	14.439	1489.021	1115.633
187.242	14.527	1487.587	1115.050
188.256	14.514	1486.360	1113.942
189.271	14.544	1485.909	1113.712
190.286	14.531	1484.585	1112.529
191.300	14.466	1483.782	1111.394
192.315	14.505	1482.315	1110.464
193.329	14.351	1481.364	1108.624
194.344	14.438	1479.925	1108.028
195.359	14.449	1479.447	1107.645
196.373	14.489	1478.025	1106.746
197.388	14.471	1477.153	1105.878
198.402	14.528	1475.878	1105.205
199.417	14.647	1474.227	1104.654
200.432	14.631	1473.468	1103.885
201.446	14.710	1472.920	1103.901
202.461	14.784	1471.224	1103.016
203.475	14.671	1470.279	1101.469
204.490	14.681	1469.909	1101.161
205.504	14.731	1468.590	1100.400
206.519	14.784	1466.868	1099.365
207.534	14.741	1465.938	1098.288
208.548	14.721	1465.242	1097.534
209.563	14.708	1463.761	1096.246
210.577	14.763	1463.184	1096.075
211.592	14.676	1461.970	1094.502
212.607	14.782	1461.224	1094.540
213.621	14.858	1460.563	1094.442
214.636	14.861	1459.440	1093.524
215.650	14.827	1458.105	1092.205
216.665	14.801	1457.524	1091.502
217.680	14.851	1456.597	1091.037
218.694	14.898	1456.303	1091.028
219.709	14.948	1455.120	1090.374
220.723	14.874	1454.676	1089.460
221.738	14.938	1453.311	1088.758
222.753	14.976	1452.459	1088.274
223.767	14.918	1451.386	1086.995
224.782	15.001	1450.570	1086.825
225.796	14.973	1449.369	1085.651
226.811	14.979	1448.454	1084.907
227.826	15.042	1447.541	1084.533
228.840	15.034	1447.044	1084.018
229.855	15.030	1445.909	1083.044
230.869	14.995	1445.567	1082.461
231.884	14.948	1444.486	1081.255
232.899	15.034	1442.458	1080.197
233.913	15.013	1441.741	1079.432
234.928	15.093	1440.673	1079.049
235.942	14.987	1439.376	1077.299
236.957	15.013	1438.271	1076.543
237.972	15.042	1437.207	1075.838
238.986	14.976	1436.357	1074.686
240.001	14.982	1435.317	1073.849
241.015	15.168	1433.670	1073.713
242.030	15.138	1433.048	1072.959
243.045	15.165	1432.068	1072.305
244.059	15.193	1430.878	1071.499
245.074	15.122	1430.498	1070.663
246.088	15.204	1429.394	1070.267
247.103	15.276	1428.873	1070.240
248.117	15.201	1428.253	1069.204
249.132	15.251	1427.631	1068.964
250.147	15.287	1426.817	1068.487
251.161	15.435	1425.781	1068.561
252.176	15.386	1425.569	1067.998
253.190	15.420	1424.481	1067.304
254.205	15.417	1423.740	1066.635
255.220	15.389	1423.099	1065.883
256.234	15.539	1422.162	1066.035
257.249	15.544	1421.455	1065.444
258.263	15.611	1419.867	1064.583
259.278	15.593	1419.536	1064.129
260.293	15.616	1418.263	1063.225
261.307	15.618	1417.394	1062.496
262.322	15.670	1416.538	1062.084
263.336	15.711	1415.922	1061.788
264.351	15.663	1415.086	1060.765
265.366	15.600	1414.500	1059.833
266.380	15.663	1413.331	1059.260
267.395	15.739	1411.961	1058.620
268.409	15.762	1411.460	1058.295
269.424	15.692	1410.424	1056.985
270.439	15.660	1409.424	1055.939
271.453	15.672	1408.921	1055.543
272.468	15.815	1407.454	1055.252
273.482	15.749	1406.732	1054.204
274.497	15.719	1406.068	1053.422
275.512	15.726	1405.482	1052.937
276.526	15.818	1404.088	1052.375
277.541	15.758	1403.280	1051.302
278.555	15.834	1402.090	1050.788
279.570	15.804	1401.635	1050.165
280.585	15.889	1400.614	1049.843
281.599	15.907	1399.687	1049.161
282.614	15.990	1398.738	1048.878
283.628	15.877	1397.877	1047.435
284.643	15.855	1396.774	1046.380
285.657	15.963	1395.609	1046.085
286.672	15.936	1394.405	1044.923
287.687	15.942	1393.514	1044.202
288.701	15.914	1392.587	1043.238
289.716	15.948	1392.381	1043.200
290.730	16.017	1390.978	1042.487
291.745	16.061	1390.153	1042.048
292.760	15.978	1389.232	1040.752
293.774	15.977	1388.053	1039.768
294.789	16.086	1386.703	1039.341
295.803	16.053	1386.043	1038.550
296.818	16.169	1385.178	1038.522
297.833	16.172	1384.289	1037.785
298.847	16.147	1383.320	1036.812
299.862	16.133	1382.401	1035.944
300.876	16.240	1381.234	1035.636
301.891	16.118	1380.668	1034.369
302.906	16.153	1380.197	1034.143
303.920	16.182	1379.409	1033.636
304.935	16.236	1378.382	1033.107
305.949	16.347	1377.494	1033.030
306.964	16.333	1376.709	1032.266
307.979	16.428	1375.551	1031.881
308.993	16.434	1374.519	1031.054
310.008	16.430	1373.741	1030.356
311.022	16.338	1372.976	1029.130
312.037	16.416	1371.785	1028.620
313.052	16.387	1370.981	1027.748
314.066	16.422	1369.642	1026.871
315.081	16.366	1368.830	1025.826
316.095	16.328	1368.145	1024.991
317.110	16.392	1367.050	1024.471
318.125	16.405	1365.886	1023.590
319.139	16.346	1365.022	1022.490
320.154	16.310	1364.398	1021.715
321.168	16.422	1363.318	1021.495
322.183	16.465	1362.200	1020.826
323.197	16.399	1361.375	1019.718
324.212	16.460	1360.407	1019.270
325.227	16.463	1359.867	1018.795
326.241	16.462	1358.722	1017.843
327.256	16.444	1357.765	1016.926
328.270	16.586	1357.194	1017.263
329.285	16.535	1356.283	1016.180
330.300	16.478	1355.208	1014.946
331.314	16.527	1354.526	1014.638
332.329	16.532	1353.435	1013.761
333.343	16.566	1352.733	1013.352
334.358	16.572	1352.100	1012.820
335.373	16.563	1351.186	1011.996
336.387	16.540	1350.467	1011.229
337.402	16.535	1349.764	1010.580
338.416	16.588	1349.075	1010.295
339.431	16.655	1348.367	1010.074
340.446	16.715	1347.640	1009.800
341.460	16.740	1346.615	1009.090
342.475	16.815	1345.356	1008.504
343.489	16.749	1344.475	1007.361
344.504	16.753	1343.889	1006.857
345.519	16.818	1342.660	1006.231
346.533	16.839	1341.831	1005.645
347.548	16.978	1340.662	1005.505
348.562	16.954	1339.881	1004.688
349.577	16.962	1339.236	1004.161
350.592	16.925	1338.347	1003.192
351.606	16.863	1337.504	1002.104
352.621	16.817	1336.624	1001.081
353.635	16.871	1335.439	1000.423
354.650	16.879	1334.808	999.913
355.665	16.936	1333.797	999.403
356.679	17.021	1332.145	998.576
357.694	16.893	1331.219	997.037
358.708	16.901	1330.119	996.172
359.723	17.007	1329.036	995.898
360.738	17.023	1328.332	995.373
361.752	16.992	1327.233	994.281
362.767	16.975	1326.214	993.330
363.781	16.995	1325.493	992.819
364.796	17.056	1324.772	992.552
365.810	17.065	1323.895	991.857
366.825	17.187	1323.246	991.997
367.840	17.116	1322.753	991.124
368.854	17.157	1322.248	990.895
369.869	17.216	1321.149	990.328
370.883	17.293	1320.491	990.200
371.898	17.205	1319.854	989.119
372.913	17.056	1319.271	987.730
373.927	17.291	1318.199	988.207
374.942	17.175	1317.448	986.881
375.956	17.259	1316.750	986.761
376.971	17.369	1315.911	986.677
377.986	17.454	1314.567	986.075
379.000	17.208	1314.493	984.512
380.015	17.362	1312.942	984.153
381.029	17.341	1312.561	983.658
382.044	17.433	1312.165	983.803
383.059	17.429	1311.111	982.906
384.073	17.484	1310.280	982.516
385.088	17.474	1309.916	982.093
386.102	17.433	1309.373	981.364
387.117	17.515	1308.143	980.829
388.132	17.521	1307.759	980.490
389.146	17.413	1306.967	979.188
390.161	17.412	1306.115	978.453
391.175	17.493	1305.405	978.305
392.190	17.486	1304.391	977.414
393.205	17.570	1303.290	976.986
394.219	17.625	1302.539	976.652
395.234	17.584	1301.530	975.575
396.248	17.657	1299.892	974.680
397.263	17.633	1298.937	973.736
398.278	17.513	1297.711	972.050
399.292	17.524	1296.723	971.286
400.307	17.645	1295.410	970.908
401.321	17.546	1294.334	969.446
402.336	17.631	1293.472	969.199
403.350	17.528	1292.954	968.141
404.365	17.570	1291.184	966.970
405.380	17.605	1290.576	966.626
406.394	17.577	1289.842	965.832
407.409	17.721	1289.290	966.152
408.423	17.695	1288.659	965.445
409.438	17.617	1288.247	964.608
410.453	17.794	1286.996	964.584
411.467	17.812	1286.248	964.042
412.482	17.857	1285.819	963.889
413.496	17.837	1284.948	963.038
414.511	17.926	1284.156	962.863
415.526	17.912	1283.694	962.353
416.540	17.970	1282.552	961.739
417.555	17.975	1282.041	961.296
418.569	17.925	1281.635	960.627
419.584	17.981	1280.992	960.375
420.599	18.031	1280.367	960.101
421.613	101.438	1358.963	1489.181
422.628	99.140	1370.322	1489.264
