DTS Sentinel unit serial number:	SN413079Multiplexer serial number:	ORYXHardware model number:	OX4-SRSoftware version number:	ORYX F/W v4.00 Oryx Data Collector v3.7.2.0data status	okinstallation	princeton_trtdifferential loss correction	single-endedforward channel	channel 4reverse channel	N/Adate	2019/09/13time	20:29:34forward acquisition time	60.00reverse acquisition time	0.00gamma	496.2192k internal	0.2318k external	0.2318temperature offset calibration	1.0133default loss term (dB/km)	0.3790temperature slope calibration	1.0000multiplexer offset coefficient	1.0000multiplexer slope coefficient	1.0000fibre end	0.00T internal ref (°C)	29.12T ext. ref 1 (°C)	3.17T ext. ref 2 (°C)	23.69length (m)	temperature (°C)	Stokes	anti-Stokes-747.200	147.170	0.063	-0.086
-746.185	-180.450	-0.142	-0.003
-745.171	-82.554	-0.336	-0.110
-744.156	-162.984	-0.326	0.016
-743.142	-5.030	0.109	0.076
-742.127	-104.283	-0.128	0.030
-741.112	57.075	0.025	-0.025
-740.098	-55.421	-0.150	-0.068
-739.083	52.103	-0.319	-0.307
-738.069	100.512	-0.099	0.116
-737.054	21.703	0.214	0.176
-736.039	-200.000	-0.031	-0.367
-735.025	800.000	0.093	-0.390
-734.010	157.493	0.143	-0.201
-732.996	-146.425	-0.368	-0.032
-731.981	36.574	0.363	0.324
-730.966	-7.237	-0.213	-0.146
-729.952	515.093	0.077	-0.181
-728.937	-59.681	-0.169	-0.073
-727.923	-116.473	0.132	0.025
-726.908	-49.204	0.166	-0.080
-725.894	371.454	-0.061	0.126
-724.879	12.852	0.241	0.188
-723.864	-200.000	-0.056	-0.263
-722.850	195.954	-0.124	0.192
-721.835	90.708	-0.436	0.493
-720.821	723.640	-0.145	0.391
-719.806	-146.946	0.111	0.010
-718.791	-200.000	-0.001	-0.137
-717.777	37.697	-0.125	-0.112
-716.762	-85.134	0.176	0.056
-715.748	33.023	-0.108	0.095
-714.733	800.000	-0.098	0.411
-713.718	-83.461	0.562	-0.182
-712.704	-27.709	-0.327	0.192
-711.689	-36.137	-0.252	-0.138
-710.675	114.367	0.136	-0.167
-709.660	-178.104	-0.261	-0.006
-708.645	-19.420	-0.234	0.147
-707.631	-178.262	0.387	0.009
-706.616	-200.000	0.023	0.363
-705.602	122.345	-0.174	0.219
-704.587	-200.000	-0.025	0.184
-703.572	84.722	-0.153	0.169
-702.558	-84.490	-0.137	-0.044
-701.543	439.296	0.181	0.400
-700.529	-200.000	-0.012	0.077
-699.514	210.177	0.120	0.191
-698.499	-19.860	-0.393	-0.245
-697.485	59.240	-0.150	0.149
-696.470	-200.000	0.025	0.143
-695.456	-67.385	0.118	-0.047
-694.441	516.612	-0.076	-0.180
-693.426	-9.253	-0.101	0.068
-692.412	119.809	-0.120	0.150
-691.397	104.942	-0.119	-0.142
-690.383	144.851	-0.124	-0.167
-689.368	126.939	0.180	-0.230
-688.354	309.583	0.150	0.283
-687.339	654.009	-0.081	0.209
-686.324	16.352	0.183	-0.146
-685.310	-129.693	-0.425	-0.059
-684.295	224.863	-0.116	0.189
-683.281	90.109	0.198	-0.224
-682.266	-97.659	-0.090	-0.024
-681.251	-150.137	0.127	-0.010
-680.237	58.242	0.262	-0.260
-679.222	-200.000	-0.014	0.123
-678.208	-200.000	0.012	0.078
-677.193	-200.000	0.001	0.346
-676.178	-191.646	0.221	0.002
-675.164	418.373	0.070	0.150
-674.149	52.379	-0.272	0.262
-673.135	193.152	-0.257	-0.393
-672.120	-22.942	-0.193	-0.117
-671.105	119.453	0.064	-0.080
-670.091	-147.273	-0.252	-0.022
-669.076	146.897	0.098	-0.133
-668.062	-37.962	-0.376	-0.202
-667.047	-200.000	-0.007	-0.077
-666.032	127.307	-0.107	-0.138
-665.018	0.833	0.300	0.217
-664.003	-9.625	0.289	-0.194
-662.989	-83.003	-0.185	0.060
-661.974	204.749	0.106	0.166
-660.959	-145.178	-0.206	-0.019
-659.945	-177.933	0.510	0.012
-658.930	-62.341	0.317	0.133
-657.916	-200.000	0.049	0.261
-656.901	800.000	-0.081	-0.234
-655.886	-200.000	0.025	0.138
-654.872	20.507	-0.195	-0.159
-653.857	800.000	-0.073	-0.225
-652.843	149.446	0.172	-0.235
-651.828	-136.088	-0.238	0.028
-650.814	312.880	-0.033	0.062
-649.799	-200.000	0.025	-0.348
-648.784	-83.411	-0.071	0.023
-647.770	-56.706	-0.142	-0.063
-646.755	47.266	-0.095	-0.089
-645.741	236.568	0.262	-0.437
-644.726	-200.000	-0.012	0.053
-643.711	-119.538	0.123	-0.021
-642.697	-200.000	-0.035	-0.286
-641.682	499.278	0.057	0.131
-640.668	580.465	0.053	0.131
-639.653	-159.596	0.061	-0.003
-638.638	-32.443	-0.259	0.145
-637.624	800.000	0.108	-0.329
-636.609	-105.205	-0.261	0.060
-635.595	21.676	0.208	0.170
-634.580	-123.839	0.136	0.022
-633.565	-96.114	-0.266	-0.071
-632.551	800.000	-0.042	-0.158
-631.536	800.000	-0.053	-0.160
-630.522	800.000	-0.079	-0.265
-629.507	-67.156	0.141	-0.056
-628.492	-200.000	-0.069	-0.328
-627.478	-20.528	-0.179	-0.111
-626.463	-64.010	-0.272	-0.112
-625.449	-109.082	0.391	-0.084
-624.434	25.372	-0.158	-0.132
-623.419	800.000	0.041	0.178
-622.405	120.499	0.090	0.113
-621.390	-82.371	-0.098	-0.032
-620.376	98.378	0.176	-0.205
-619.361	187.310	0.105	-0.157
-618.346	-112.663	-0.163	0.033
-617.332	719.071	0.101	-0.271
-616.317	-200.000	-0.003	-0.113
-615.303	-126.014	0.056	0.008
-614.288	7.098	0.062	-0.047
-613.273	-4.958	0.315	-0.218
-612.259	800.000	0.053	0.195
-611.244	21.001	0.252	0.205
-610.230	-200.000	-0.007	0.105
-609.215	-61.112	0.172	0.073
-608.201	245.048	0.070	0.118
-607.186	-200.000	-0.015	0.402
-606.171	324.508	0.020	-0.039
-605.157	702.542	-0.029	-0.078
-604.142	-66.950	-0.347	0.138
-603.128	103.914	-0.153	0.181
-602.113	-24.765	0.099	-0.059
-601.098	-119.969	0.337	-0.058
-600.084	-57.812	0.041	0.018
-599.069	-113.071	0.138	-0.027
-598.055	-80.086	-0.063	-0.021
-597.040	507.278	-0.144	-0.336
-596.025	-34.895	-0.283	0.156
-595.011	-200.000	-0.052	0.284
-593.996	398.498	0.090	-0.189
-592.982	-133.000	-0.327	0.042
-591.967	-9.408	-0.141	0.094
-590.952	511.869	-0.068	-0.160
-589.938	130.945	0.090	-0.117
-588.923	-93.894	-0.472	0.131
-587.909	63.312	0.138	0.139
-586.894	-200.000	0.025	0.114
-585.879	-200.000	0.007	0.131
-584.865	195.431	-0.062	-0.095
-583.850	225.715	-0.114	0.186
-582.836	-110.706	0.362	0.075
-581.821	-89.796	-0.325	-0.096
-580.806	-200.000	0.027	0.132
-579.792	80.636	0.269	0.291
-578.777	291.117	0.057	0.104
-577.763	800.000	-0.075	0.220
-576.748	356.717	-0.061	-0.122
-575.733	-122.385	0.436	0.071
-574.719	800.000	0.043	-0.149
-573.704	-44.352	-0.188	-0.094
-572.690	-46.151	-0.086	0.042
-571.675	125.482	-0.186	-0.237
-570.661	548.362	-0.025	0.059
-569.646	-96.040	0.142	-0.038
-568.631	102.187	-0.243	0.285
-567.617	800.000	0.095	0.362
-566.602	-39.264	-0.174	-0.092
-565.588	234.523	-0.078	0.128
-564.573	294.903	0.158	-0.291
-563.558	43.978	-0.077	-0.071
-562.544	800.000	0.014	-0.050
-561.529	-200.000	-0.002	0.248
-560.515	800.000	-0.079	-0.233
-559.500	-87.894	-0.184	-0.056
-558.485	-59.394	0.351	0.151
-557.471	-105.092	0.421	-0.097
-556.456	129.906	0.222	0.285
-555.442	800.000	-0.087	-0.332
-554.427	-120.888	0.118	-0.020
-553.412	0.200	0.240	0.172
-552.398	185.483	0.229	0.341
-551.383	-200.000	-0.025	-0.267
-550.369	-200.000	0.004	-0.243
-549.354	784.864	0.051	-0.142
-548.339	-73.767	0.097	-0.035
-547.325	-200.000	0.006	-0.119
-546.310	-127.771	-0.184	0.027
-545.296	-200.000	0.001	0.122
-544.281	-19.364	-0.201	-0.125
-543.266	-200.000	-0.003	-0.031
-542.252	-141.560	-0.088	0.009
-541.237	23.839	0.086	0.071
-540.223	59.436	-0.109	-0.108
-539.208	631.105	0.064	-0.163
-538.193	-11.640	-0.123	0.081
-537.179	-59.989	0.321	-0.138
-536.164	-200.000	0.002	-0.269
-535.150	186.710	-0.327	-0.488
-534.135	107.342	0.129	0.154
-533.121	34.374	0.035	0.030
-532.106	257.873	-0.162	0.281
-531.091	62.197	0.307	0.307
-530.077	-74.630	-0.273	-0.098
-529.062	515.073	-0.142	-0.332
-528.048	-167.972	-0.264	0.010
-527.033	39.350	0.194	0.175
-526.018	175.521	0.019	-0.028
-525.004	-158.246	0.233	0.014
-523.989	-129.868	0.083	-0.011
-522.975	270.600	-0.145	0.257
-521.960	420.227	-0.091	-0.196
-520.945	84.906	-0.052	0.057
-519.931	216.661	0.143	-0.229
-518.916	4.114	-0.098	-0.072
-517.902	315.339	0.103	-0.196
-516.887	181.104	0.266	0.392
-515.872	-135.316	0.142	0.017
-514.858	454.013	0.050	0.110
-513.843	-200.000	0.002	-0.422
-512.829	55.727	0.244	0.237
-511.814	-200.000	0.060	0.358
-510.799	36.041	-0.141	-0.124
-509.785	-200.000	0.005	0.286
-508.770	309.405	-0.171	-0.320
-507.756	-200.000	-0.012	-0.366
-506.741	-65.024	0.220	0.089
-505.726	-46.097	0.224	-0.110
-504.712	-32.780	-0.155	-0.086
-503.697	-96.411	0.183	-0.049
-502.683	62.254	0.253	0.253
-501.668	-200.000	0.011	-0.101
-500.653	690.256	0.099	-0.261
-499.639	19.408	-0.045	-0.036
-498.624	-152.105	-0.228	0.017
-497.610	-24.737	0.037	0.022
-496.595	66.620	-0.127	0.130
-495.581	-148.313	0.244	0.020
-494.566	-93.052	-0.023	0.007
-493.551	-148.742	-0.270	-0.022
-492.537	153.166	-0.149	-0.204
-491.522	-111.666	0.159	0.032
-490.508	22.721	0.327	0.269
-489.493	159.267	0.170	-0.237
-488.478	-148.769	-0.027	0.002
-487.464	-92.419	-0.115	0.032
-486.449	-62.718	0.276	0.115
-485.435	-200.000	-0.005	0.224
-484.420	-159.488	-0.224	-0.012
-483.405	200.633	-0.060	0.093
-482.391	-200.000	0.040	0.214
-481.376	-84.272	0.149	0.047
-480.362	100.929	0.092	-0.107
-479.347	-200.000	-0.006	-0.421
-478.332	190.190	-0.274	-0.412
-477.318	-137.005	0.349	0.040
-476.303	438.071	0.129	-0.282
-475.289	-200.000	0.005	0.403
-474.274	-45.298	-0.257	-0.128
-473.259	800.000	0.076	-0.252
-472.245	-125.171	0.288	-0.044
-471.230	79.231	-0.108	0.116
-470.216	-143.648	0.153	-0.015
-469.201	-33.350	0.077	-0.042
-468.186	-49.484	0.091	0.044
-467.172	277.397	0.096	-0.171
-466.157	-40.309	0.151	-0.079
-465.143	587.198	-0.063	0.155
-464.128	136.940	-0.215	0.281
-463.113	-200.000	-0.003	0.507
-462.099	-25.143	-0.155	0.092
-461.084	-45.572	0.188	-0.093
-460.070	192.420	0.126	0.190
-459.055	-200.000	-0.013	-0.257
-458.040	391.425	-0.096	0.199
-457.026	-33.653	-0.061	-0.034
-456.011	-151.666	-0.108	0.008
-454.997	800.000	0.018	-0.051
-453.982	4.719	0.170	0.125
-452.968	413.266	-0.035	0.075
-451.953	57.104	-0.227	-0.221
-450.938	-73.558	0.249	-0.091
-449.924	413.106	0.116	0.248
-448.909	219.234	-0.189	-0.302
-447.895	-200.000	0.105	-0.533
-446.880	-140.060	0.473	0.050
-445.865	-55.898	0.249	-0.111
-444.851	158.544	-0.105	0.145
-443.836	407.632	0.078	-0.165
-442.822	800.000	-0.095	-0.309
-441.807	800.000	-0.010	0.031
-440.792	137.345	0.071	-0.094
-439.778	-14.331	-0.273	0.176
-438.763	181.907	0.133	-0.195
-437.749	800.000	0.081	-0.329
-436.734	-200.000	-0.070	0.311
-435.719	-108.652	0.139	0.030
-434.705	129.548	0.146	-0.187
-433.690	410.582	-0.138	-0.292
-432.676	776.322	-0.081	0.222
-431.661	86.710	0.029	-0.032
-430.646	-200.000	-0.012	-0.120
-429.632	236.325	-0.047	0.078
-428.617	800.000	-0.043	0.184
-427.603	-136.595	-0.207	0.024
-426.588	-128.948	-0.176	-0.025
-425.573	800.000	0.060	-0.182
-424.559	12.277	0.130	0.100
-423.544	500.860	-0.118	0.272
-422.530	-144.713	-0.258	-0.024
-421.515	470.203	-0.068	0.154
-420.500	-154.932	0.248	0.016
-419.486	21.173	0.235	-0.190
-418.471	27.624	0.144	0.121
-417.457	-132.719	0.351	0.045
-416.442	-200.000	0.023	-0.319
-415.428	-200.000	-0.053	-0.317
-414.413	148.070	-0.034	0.046
-413.398	-12.429	-0.111	0.073
-412.384	-54.103	-0.230	0.105
-411.369	800.000	-0.008	-0.032
-410.355	-15.043	-0.182	0.116
-409.340	-154.167	0.331	0.022
-408.325	-200.000	0.019	0.404
-407.311	-19.760	0.319	-0.197
-406.296	-5.898	0.435	-0.297
-405.282	-90.626	-0.253	-0.073
-404.267	-72.356	0.194	-0.072
-403.252	-200.000	-0.008	0.189
-402.238	580.465	-0.138	0.336
-401.223	-200.000	-0.001	0.074
-400.209	97.217	-0.137	0.157
-399.194	219.728	-0.058	-0.092
-398.179	-160.558	0.061	-0.003
-397.165	-70.770	-0.170	0.064
-396.150	-200.000	-0.022	0.171
-395.136	95.838	-0.254	-0.290
-394.121	-60.009	0.248	0.106
-393.106	-23.748	-0.227	0.136
-392.092	658.514	-0.124	-0.318
-391.077	-200.000	-0.041	-0.268
-390.063	2.229	0.125	0.090
-389.048	-92.798	0.331	0.092
-388.033	-40.285	0.230	-0.119
-387.019	-200.000	-0.015	0.286
-386.004	-34.657	-0.034	0.019
-384.990	-200.000	0.005	0.043
-383.975	292.319	0.109	0.198
-382.960	124.235	-0.041	0.052
-381.946	540.957	0.132	-0.313
-380.931	84.630	-0.201	-0.219
-379.917	-192.349	-0.316	-0.003
-378.902	32.652	-0.070	-0.061
-377.888	-126.910	-0.386	-0.057
-376.873	-172.246	-0.181	-0.006
-375.858	-98.654	-0.045	-0.012
-374.844	523.233	0.087	-0.204
-373.829	457.836	-0.049	0.108
-372.815	382.161	-0.136	0.278
-371.800	800.000	0.093	-0.290
-370.785	204.782	0.045	0.070
-369.771	145.347	0.170	0.227
-368.756	233.770	-0.032	0.053
-367.742	-155.956	0.082	-0.005
-366.727	-200.000	0.039	0.331
-365.712	-76.098	0.054	0.019
-364.698	237.519	0.059	0.098
-363.683	59.450	-0.231	0.227
-362.669	-42.113	0.036	0.018
-361.654	531.502	-0.072	0.169
-360.639	-200.000	0.006	0.065
-359.625	482.146	-0.059	0.134
-358.610	183.844	0.063	-0.093
-357.596	-200.000	0.011	-0.061
-356.581	23.224	0.066	0.054
-355.566	381.902	0.045	0.091
-354.552	152.746	-0.181	-0.246
-353.537	128.772	0.290	0.368
-352.523	-1.780	0.038	-0.026
-351.508	-66.981	-0.233	-0.092
-350.493	23.058	-0.156	0.128
-349.479	395.206	-0.043	-0.089
-348.464	-101.438	-0.268	0.065
-347.450	-200.000	-0.051	-0.386
-346.435	450.393	-0.039	0.086
-345.420	238.302	-0.047	-0.078
-344.406	-200.000	0.039	0.216
-343.391	-137.812	-0.120	-0.013
-342.377	-145.483	0.085	-0.008
-341.362	800.000	-0.041	-0.123
-340.348	-200.000	-0.003	-0.115
-339.333	167.857	0.131	0.186
-338.318	98.215	-0.105	0.121
-337.304	40.628	-0.243	0.218
-336.289	478.478	0.092	-0.209
-335.275	55.704	-0.131	-0.126
-334.260	-74.993	0.356	0.127
-333.245	46.474	-0.194	0.180
-332.231	800.000	0.054	-0.228
-331.216	-84.223	-0.370	-0.117
-330.202	800.000	0.091	-0.337
-329.187	40.275	0.144	0.129
-328.172	-116.466	-0.346	0.064
-327.158	-146.302	0.214	0.019
-326.143	259.173	0.108	-0.186
-325.129	-59.363	0.085	0.036
-324.114	-200.000	-0.008	0.160
-323.099	445.550	-0.101	0.221
-322.085	-52.268	0.256	-0.118
-321.070	-200.000	0.057	0.329
-320.056	100.475	0.026	-0.030
-319.041	179.669	-0.085	0.124
-318.026	-186.656	0.410	0.006
-317.012	-159.807	-0.165	0.009
-315.997	-151.979	0.290	-0.021
-314.983	37.245	-0.035	-0.031
-313.968	-60.948	0.067	-0.028
-312.953	-200.000	-0.008	-0.056
-311.939	342.699	0.071	0.138
-310.924	28.242	0.099	0.083
-309.910	-40.233	0.146	-0.076
-308.895	-155.603	-0.116	0.007
-307.880	-200.000	0.064	-0.286
-306.866	-200.000	-0.016	0.142
-305.851	-200.000	-0.118	-0.620
-304.837	88.842	-0.067	0.074
-303.822	800.000	-0.085	0.247
-302.807	-93.582	-0.233	0.064
-301.793	800.000	-0.113	0.426
-300.778	2.104	-0.150	-0.108
-299.764	249.826	-0.144	0.244
-298.749	800.000	-0.036	0.103
-297.735	-200.000	-0.007	-0.154
-296.720	69.551	0.151	-0.154
-295.705	-114.145	0.075	0.014
-294.691	-20.282	0.285	0.175
-293.676	11.365	0.050	-0.038
-292.662	-200.000	-0.008	0.298
-291.647	800.000	-0.018	-0.071
-290.632	-162.613	-0.400	-0.020
-289.618	-89.284	-0.176	-0.051
-288.603	-200.000	-0.032	0.470
-287.589	-200.000	0.031	0.188
-286.574	213.141	-0.074	-0.116
-285.559	56.208	-0.194	-0.187
-284.545	163.158	-0.175	-0.244
-283.530	-28.201	0.275	-0.158
-282.516	-19.083	0.246	-0.152
-281.501	-109.066	0.029	0.006
-280.486	100.723	-0.059	-0.068
-279.472	691.244	-0.071	-0.186
-278.457	300.959	0.065	-0.119
-277.443	146.874	-0.106	0.141
-276.428	-118.094	-0.367	0.065
-275.413	14.924	0.056	0.044
-274.399	101.490	-0.169	0.196
-273.384	-38.892	0.222	-0.116
-272.370	241.481	0.079	0.131
-271.355	80.560	-0.114	-0.122
-270.340	21.509	-0.176	0.142
-269.326	-98.264	0.130	-0.033
-268.311	0.365	0.507	-0.360
-267.297	800.000	0.061	-0.233
-266.282	-25.646	-0.076	0.044
-265.267	800.000	0.099	-0.271
-264.253	-22.671	-0.178	0.107
-263.238	483.115	-0.175	0.395
-262.224	800.000	-0.126	0.416
-261.209	609.418	-0.101	0.250
-260.195	-36.902	0.491	0.262
-259.180	-200.000	0.027	0.392
-258.165	-91.852	0.227	0.064
-257.151	64.550	0.144	0.144
-256.136	-171.964	-0.230	-0.007
-255.122	-200.000	-0.097	0.435
-254.107	41.459	-0.049	0.044
-253.092	800.000	-0.057	0.195
-252.078	800.000	-0.100	-0.390
-251.063	185.729	0.073	-0.108
-250.049	-64.133	-0.193	0.078
-249.034	-63.546	0.107	0.044
-248.019	-18.749	-0.168	0.104
-247.005	295.854	0.130	0.236
-245.990	-41.497	0.241	0.123
-244.976	-77.746	-0.137	-0.047
-243.961	-125.338	-0.252	0.038
-242.946	800.000	-0.058	0.182
-241.932	-71.172	-0.249	-0.093
-240.917	106.758	-0.068	-0.081
-239.903	-200.000	-0.037	-0.266
-238.888	-17.150	-0.157	-0.098
-237.873	-200.000	-0.013	-0.168
-236.859	150.144	0.232	-0.312
-235.844	-200.000	-0.011	-0.267
-234.830	167.370	0.141	-0.199
-233.815	-146.139	-0.069	0.006
-232.800	-200.000	-0.013	-0.170
-231.786	800.000	0.050	0.193
-230.771	3.323	-0.180	0.130
-229.757	-84.504	-0.143	-0.045
-228.742	446.958	-0.049	0.108
-227.727	-125.726	0.197	-0.030
-226.713	83.118	0.047	0.050
-225.698	357.772	-0.103	0.204
-224.684	-200.000	0.027	-0.180
-223.669	-6.103	0.181	-0.123
-222.655	-200.000	0.041	0.292
-221.640	800.000	-0.084	0.280
-220.625	573.467	-0.058	-0.141
-219.611	-200.000	-0.029	-0.137
-218.596	800.000	0.070	-0.249
-217.582	-200.000	-0.020	-0.208
-216.567	-49.493	-0.228	-0.108
-215.552	80.144	0.048	0.052
-214.538	-112.151	-0.400	-0.080
-213.523	66.068	-0.259	-0.260
-212.509	197.510	0.150	0.226
-211.494	-91.419	0.163	0.046
-210.479	182.772	-0.148	0.216
-209.465	-16.455	0.302	-0.190
-208.450	800.000	-0.055	0.213
-207.436	-44.587	0.117	0.058
-206.421	-200.000	-0.013	-0.261
-205.406	536.541	-0.049	-0.115
-204.392	62.812	0.172	0.171
-203.377	-96.892	-0.278	0.072
-202.363	800.000	-0.054	-0.175
-201.348	-157.239	-0.222	-0.013
-200.333	-152.282	0.228	-0.016
-199.319	337.129	-0.082	0.158
-198.304	-111.566	0.395	-0.080
-197.290	-200.000	0.021	-0.304
-196.275	-19.436	0.144	-0.088
-195.260	-200.000	0.055	0.403
-194.246	-11.878	-0.247	-0.161
-193.231	348.003	0.214	-0.417
-192.217	88.479	-0.220	-0.242
-191.202	-41.602	0.383	-0.195
-190.187	112.573	-0.060	0.072
-189.173	800.000	-0.161	0.452
-188.158	-73.626	0.083	-0.030
-187.144	-81.552	-0.239	-0.078
-186.129	-115.631	0.068	-0.013
-185.114	-137.656	0.293	-0.033
-184.100	-127.175	-0.209	0.030
-183.085	49.891	0.122	0.114
-182.071	-107.497	-0.286	-0.062
-181.056	310.547	-0.069	0.129
-180.042	3.454	-0.242	0.175
-179.027	-87.092	-0.199	0.060
-178.012	17.626	0.012	0.009
-176.998	4.056	-0.190	0.137
-175.983	-27.297	-0.275	0.159
-174.969	-59.855	-0.127	0.054
-173.954	-200.000	0.336	-0.001
-172.939	-93.168	0.376	0.103
-171.925	365.268	0.199	0.397
-170.910	169.455	0.076	-0.107
-169.896	576.776	0.046	0.111
-168.881	-200.000	0.006	0.115
-167.866	-200.000	-0.001	-0.094
-166.852	-200.000	-0.053	-0.383
-165.837	737.317	0.112	0.297
-164.823	195.519	-0.169	0.254
-163.808	-118.537	-0.317	-0.055
-162.793	546.356	0.097	-0.228
-161.779	416.208	-0.153	0.322
-160.764	-200.000	-0.033	0.149
-159.750	169.581	0.089	0.125
-158.735	343.752	-0.140	-0.271
-157.720	532.800	-0.032	-0.076
-156.706	-200.000	0.013	0.110
-155.691	-200.000	0.003	0.172
-154.677	-17.273	-0.241	-0.150
-153.662	773.608	-0.070	0.188
-152.647	-121.815	-0.233	-0.038
-151.633	800.000	0.046	-0.178
-150.618	399.018	0.183	-0.378
-149.604	255.544	-0.024	0.041
-148.589	29.158	-0.141	-0.118
-147.574	800.000	-0.094	-0.299
-146.560	-53.101	-0.188	0.085
-145.545	-68.744	0.206	-0.079
-144.531	279.457	0.090	-0.159
-143.516	238.620	-0.030	-0.048
-142.502	800.000	0.146	0.406
-141.487	-200.000	0.021	0.115
-140.472	-5.663	-0.283	0.192
-139.458	-200.000	0.007	0.177
-138.443	-102.318	-0.289	0.068
-137.429	-27.998	0.259	0.148
-136.414	182.840	0.095	0.138
-135.399	115.404	0.174	0.210
-134.385	-40.378	0.226	-0.116
-133.370	-7.225	0.159	0.107
-132.356	-200.000	0.003	0.190
-131.341	575.003	0.111	-0.268
-130.326	-48.709	-0.226	-0.107
-129.312	27.012	0.300	-0.249
-128.297	29.978	0.142	-0.120
-127.283	118.608	0.293	-0.358
-126.268	800.000	0.016	-0.059
-125.253	15.333	0.103	-0.080
-124.239	-47.229	0.268	0.129
-123.224	-21.421	-0.218	-0.132
-122.210	-94.601	0.234	0.063
-121.195	377.387	-0.117	0.237
-120.180	-200.000	-0.042	0.220
-119.166	194.113	-0.158	0.236
-118.151	48.069	-0.357	0.330
-117.137	-144.468	-0.189	0.017
-116.122	-200.000	-0.061	0.278
-115.107	-95.688	0.127	-0.034
-114.093	-33.966	-0.154	-0.084
-113.078	39.060	0.249	0.220
-112.064	190.960	0.100	0.149
-111.049	-29.281	-0.163	-0.092
-110.034	-117.583	-0.225	-0.040
-109.020	177.246	0.058	0.083
-108.005	412.361	0.075	0.157
-106.991	-88.043	0.235	-0.070
-105.976	-200.000	0.079	0.398
-104.962	105.998	0.049	-0.057
-103.947	-114.413	0.158	-0.030
-102.932	-19.999	0.117	-0.071
-101.918	-200.000	0.061	-0.277
-100.903	336.084	0.057	-0.109
-99.889	-200.000	0.054	-0.237
-98.874	49.925	0.304	0.283
-97.859	-73.909	0.091	-0.032
-96.845	189.972	0.035	0.051
-95.830	-147.027	-0.149	0.013
-94.816	-65.296	-0.060	-0.024
-93.801	93.170	0.129	0.144
-92.786	242.589	0.032	0.053
-91.772	-153.871	0.373	0.025
-90.757	-50.141	-0.151	-0.070
-89.743	-200.000	-0.073	0.626
-88.728	30.587	-0.278	0.235
-87.713	-78.354	0.213	-0.072
-86.699	55.889	-0.073	0.070
-85.684	100.563	-0.268	-0.307
-84.670	26.502	0.271	-0.224
-83.655	15.775	0.117	-0.090
-82.640	-34.222	0.045	-0.024
-81.626	-131.447	-0.221	-0.029
-80.611	-67.281	-0.132	-0.051
-79.597	95.848	-0.200	0.225
-78.582	-169.584	0.323	-0.012
-77.567	-12.057	0.325	-0.210
-76.553	120.045	-0.131	-0.160
-75.538	-68.515	-0.034	0.013
-74.524	61.577	0.029	-0.029
-73.509	236.296	-0.071	-0.116
-72.494	-93.297	0.109	-0.030
-71.480	-200.000	0.009	0.186
-70.465	800.000	-0.032	0.126
-69.451	800.000	-0.068	0.205
-68.436	20.328	-0.210	0.167
-67.422	133.736	-0.229	0.292
-66.407	800.000	0.080	0.220
-65.392	24.628	0.190	-0.155
-64.378	-200.000	0.013	0.290
-63.363	-200.000	-0.047	-0.440
-62.349	-200.000	-0.016	-0.189
-61.334	83.143	-1.159	-1.243
-60.319	39.364	0.662	0.584
-59.305	307.987	-0.418	-0.769
-58.290	621.225	0.411	1.018
-57.276	800.000	0.588	1.678
-56.261	-200.000	111.318	638.420
-55.246	524.766	1513.956	3509.151
-54.232	174.295	2699.622	3844.363
-53.217	102.661	2316.949	2670.637
-52.203	35.702	2065.315	1787.915
-51.188	31.005	1982.585	1674.172
-50.173	29.545	1966.377	1647.399
-49.159	46.273	2026.500	1849.891
-48.144	46.206	2042.153	1863.503
-47.130	31.463	1999.430	1692.267
-46.115	29.146	1988.971	1662.464
-45.100	29.125	1985.560	1659.355
-44.086	29.015	1983.786	1656.822
-43.071	28.996	1980.782	1654.072
-42.057	28.940	1979.421	1652.367
-41.042	28.954	1977.114	1650.499
-40.027	29.009	1975.436	1649.530
-39.013	29.090	1973.115	1648.253
-37.998	29.071	1971.309	1646.510
-36.984	29.031	1969.377	1644.471
-35.969	29.047	1967.154	1642.694
-34.954	29.084	1965.711	1641.750
-33.940	29.071	1964.848	1640.848
-32.925	29.082	1963.196	1639.507
-31.911	29.147	1961.278	1638.412
-30.896	29.056	1959.861	1636.353
-29.881	29.100	1958.213	1635.303
-28.867	29.231	1956.406	1634.895
-27.852	29.248	1954.390	1633.294
-26.838	29.185	1952.874	1631.409
-25.823	29.160	1951.440	1629.925
-24.809	29.144	1949.737	1628.292
-23.794	29.220	1947.544	1627.071
-22.779	29.133	1946.470	1625.342
-21.765	29.072	1945.528	1623.951
-20.750	29.176	1942.978	1622.672
-19.736	29.111	1941.530	1620.824
-18.721	29.136	1939.974	1619.685
-17.706	29.162	1937.766	1618.002
-16.692	29.147	1936.659	1616.888
-15.677	29.124	1935.279	1615.471
-14.663	29.136	1933.677	1614.173
-13.648	29.191	1931.746	1612.976
-12.633	29.201	1931.014	1612.388
-11.619	29.070	1929.834	1610.193
-10.604	29.200	1928.298	1609.988
-9.590	29.175	1926.607	1608.290
-8.575	29.092	1925.829	1606.856
-7.560	29.184	1924.446	1606.433
-6.546	29.118	1923.162	1604.725
-5.531	29.100	1922.295	1603.781
-4.517	29.110	1920.519	1602.320
-3.502	29.068	1919.668	1601.186
-2.487	29.077	1918.231	1600.002
-1.473	29.202	1916.855	1599.874
-0.458	29.135	1912.408	1595.524
0.556	29.815	1892.452	1566.229
1.571	25.216	1872.973	1511.329
2.586	21.067	1894.920	1493.460
3.600	20.026	1930.042	1511.927
4.615	19.386	1922.859	1500.597
5.629	14.664	1822.514	1383.135
6.644	6.976	1707.831	1236.091
7.659	3.440	1674.062	1184.414
8.673	3.203	1671.068	1180.370
9.688	3.122	1669.876	1178.803
10.702	3.189	1668.611	1178.321
11.717	3.186	1665.127	1175.734
12.731	3.693	1664.019	1178.717
13.746	8.721	1676.113	1225.749
14.761	16.711	1693.326	1299.799
15.775	20.554	1699.471	1333.947
16.790	20.569	1698.928	1333.515
17.804	19.652	1695.438	1323.635
18.819	18.571	1692.585	1313.018
19.834	18.025	1689.762	1306.540
20.848	17.806	1688.468	1303.748
21.863	17.704	1687.825	1302.362
22.877	17.597	1686.165	1300.145
23.892	17.354	1684.644	1297.003
24.907	17.233	1683.921	1295.412
25.921	17.198	1682.926	1294.264
26.936	17.213	1681.721	1293.340
27.950	17.192	1680.956	1292.476
28.965	17.246	1680.081	1292.103
29.980	17.292	1679.089	1291.569
30.994	17.439	1678.462	1292.094
32.009	17.492	1677.471	1291.614
33.023	17.613	1676.227	1291.464
34.038	17.600	1675.412	1290.620
35.053	17.526	1674.050	1288.901
36.067	17.435	1673.000	1287.286
37.082	17.417	1671.381	1285.788
38.096	17.422	1670.431	1284.987
39.111	17.424	1670.138	1284.661
40.126	17.549	1669.185	1284.756
41.140	17.582	1668.001	1283.979
42.155	17.386	1666.530	1281.257
43.169	17.170	1665.031	1278.364
44.184	17.006	1664.073	1276.283
45.199	17.025	1662.467	1275.081
46.213	17.019	1661.511	1274.189
47.228	17.053	1660.375	1273.466
48.242	17.195	1659.389	1273.663
49.257	17.380	1658.108	1273.948
50.271	17.390	1657.155	1273.177
51.286	17.382	1655.704	1271.892
52.301	17.298	1654.663	1270.351
53.315	17.315	1653.347	1269.352
54.330	17.366	1651.341	1268.087
55.344	17.174	1650.012	1265.522
56.359	17.178	1648.144	1264.003
57.374	17.127	1647.172	1262.771
58.388	17.131	1646.318	1262.035
59.403	17.091	1644.457	1260.199
60.417	17.017	1643.172	1258.551
61.432	16.987	1642.311	1257.556
62.447	16.985	1641.224	1256.598
63.461	16.944	1639.756	1255.061
64.476	16.917	1638.609	1253.873
65.490	16.833	1637.865	1252.576
66.505	16.860	1636.427	1251.561
67.520	16.783	1635.408	1250.100
68.534	16.897	1634.201	1249.908
69.549	16.999	1632.916	1249.568
70.563	16.979	1631.799	1248.456
71.578	16.835	1630.803	1246.527
72.593	16.892	1629.352	1245.726
73.607	16.672	1628.512	1243.353
74.622	16.734	1627.496	1242.921
75.636	16.685	1626.714	1241.859
76.651	16.744	1625.650	1241.367
77.666	16.752	1624.655	1240.556
78.680	16.750	1624.158	1240.056
79.695	16.869	1623.005	1239.937
80.709	16.892	1622.278	1239.439
81.724	16.887	1621.919	1239.016
82.739	16.988	1621.261	1239.143
83.753	17.046	1620.316	1238.735
84.768	17.172	1619.287	1238.754
85.782	17.242	1619.132	1239.037
86.797	17.469	1617.933	1239.665
87.812	17.446	1617.338	1238.935
88.826	17.413	1615.793	1237.399
89.841	17.334	1614.849	1235.992
90.855	17.346	1614.048	1235.355
91.870	17.387	1612.955	1234.707
92.884	17.462	1612.268	1234.621
93.899	17.515	1611.147	1234.034
94.914	17.416	1610.136	1232.431
95.928	17.478	1608.878	1231.809
96.943	17.590	1606.949	1231.037
97.957	17.618	1605.566	1230.065
98.972	17.499	1604.253	1228.095
99.987	17.393	1602.870	1226.161
101.001	17.419	1600.873	1224.711
102.016	17.421	1600.095	1224.027
103.030	17.411	1598.428	1222.567
104.045	17.487	1597.284	1222.130
105.060	17.506	1595.665	1220.920
106.074	17.426	1594.228	1219.140
107.089	17.290	1592.332	1216.607
108.103	17.088	1590.917	1213.977
109.118	16.864	1589.672	1211.316
110.133	16.881	1587.738	1209.859
111.147	16.984	1586.085	1209.226
112.162	16.955	1585.207	1208.244
113.176	16.926	1583.904	1206.939
114.191	17.026	1582.621	1206.563
115.206	17.056	1581.239	1205.618
116.220	17.060	1580.553	1205.018
117.235	17.021	1579.269	1203.652
118.249	17.054	1577.477	1202.413
119.264	17.031	1576.489	1201.393
120.279	16.912	1575.366	1199.588
121.293	16.918	1573.572	1198.156
122.308	16.885	1572.254	1196.818
123.322	16.826	1570.195	1194.729
124.337	16.656	1569.146	1192.626
125.352	16.726	1567.221	1191.546
126.366	16.659	1566.746	1190.610
127.381	16.697	1565.595	1189.897
128.395	16.724	1564.638	1189.258
129.410	16.678	1563.154	1187.696
130.424	16.751	1561.621	1186.939
131.439	16.798	1560.271	1186.139
132.454	16.938	1558.993	1186.043
133.468	17.059	1557.764	1185.850
134.483	17.033	1556.615	1184.685
135.497	17.056	1555.109	1183.597
136.512	17.053	1553.766	1182.450
137.527	17.061	1552.277	1181.267
138.541	17.091	1551.521	1180.797
139.556	17.112	1549.983	1179.667
140.570	17.149	1548.891	1178.984
141.585	17.237	1547.557	1178.479
142.600	17.313	1546.467	1178.071
143.614	17.475	1545.490	1178.344
144.629	17.468	1544.520	1177.453
145.643	17.491	1543.289	1176.569
146.658	17.529	1541.985	1175.729
147.673	17.516	1540.211	1174.184
148.687	17.367	1538.874	1172.036
149.702	17.267	1537.491	1170.192
150.716	17.172	1535.617	1168.004
151.731	17.150	1534.098	1166.596
152.746	17.164	1533.030	1165.775
153.760	17.208	1531.548	1164.848
154.775	17.279	1530.105	1164.134
155.789	17.266	1529.055	1163.141
156.804	17.402	1528.013	1163.177
157.819	17.390	1527.082	1162.285
158.833	17.352	1525.898	1161.018
159.848	17.457	1524.628	1160.667
160.862	17.651	1523.571	1161.082
161.877	17.723	1522.513	1160.664
162.892	17.454	1521.256	1157.770
163.906	17.319	1519.728	1155.591
164.921	17.164	1518.390	1153.419
165.935	17.306	1516.952	1153.186
166.950	17.203	1516.099	1151.741
167.964	17.371	1514.929	1151.883
168.979	17.404	1514.167	1151.426
169.994	17.297	1513.255	1149.910
171.008	17.291	1512.080	1148.876
172.023	17.310	1511.014	1148.090
173.037	17.334	1509.783	1147.215
174.052	17.482	1508.738	1147.319
175.067	17.512	1507.863	1146.755
176.081	17.435	1506.372	1144.998
177.096	17.175	1505.218	1142.276
178.110	17.168	1503.332	1140.691
179.125	17.180	1502.474	1140.024
180.140	17.206	1501.350	1139.243
181.154	17.367	1500.287	1139.414
182.169	17.368	1499.629	1138.822
183.183	17.563	1498.022	1138.800
184.198	17.647	1496.835	1138.360
185.213	17.611	1496.564	1137.816
186.227	17.634	1495.677	1137.191
187.242	17.664	1494.558	1136.442
188.256	17.765	1493.312	1136.067
189.271	17.808	1492.302	1135.485
190.286	17.775	1491.738	1134.731
191.300	17.679	1490.733	1133.232
192.315	17.462	1488.952	1130.338
193.329	17.196	1486.922	1126.928
194.344	17.172	1485.900	1125.897
195.359	17.227	1485.106	1125.559
196.373	17.362	1484.383	1125.803
197.388	17.508	1483.086	1125.685
198.402	17.554	1482.583	1125.509
199.417	17.632	1481.847	1125.370
200.432	17.803	1480.779	1125.583
201.446	17.932	1480.339	1126.003
202.461	18.031	1478.990	1125.528
203.475	18.145	1477.579	1125.107
204.490	18.166	1476.703	1124.478
205.504	18.053	1475.282	1122.550
206.519	17.851	1474.149	1120.266
207.534	17.777	1473.361	1119.085
208.548	17.737	1471.993	1117.678
209.563	17.748	1470.714	1116.684
210.577	17.764	1470.030	1116.173
211.592	17.726	1469.342	1115.297
212.607	17.778	1468.567	1114.952
213.621	17.961	1468.160	1115.744
214.636	18.067	1467.022	1115.468
215.650	17.992	1466.287	1114.325
216.665	18.002	1465.194	1113.458
217.680	17.984	1464.695	1112.867
218.694	18.093	1463.966	1112.924
219.709	18.149	1462.892	1112.368
220.723	18.172	1462.132	1111.841
221.738	18.104	1460.840	1110.323
222.753	18.014	1460.244	1109.186
223.767	18.175	1458.746	1108.991
224.782	18.078	1458.210	1107.861
225.796	18.171	1457.042	1107.473
226.811	18.305	1456.420	1107.775
227.826	18.295	1456.049	1107.329
228.840	18.194	1454.752	1105.591
229.855	18.121	1453.480	1104.056
230.869	18.106	1452.705	1103.275
231.884	18.124	1451.478	1102.361
232.899	18.102	1450.368	1101.276
233.913	18.014	1449.164	1099.697
234.928	17.959	1448.203	1098.517
235.942	17.921	1446.343	1096.766
236.957	17.802	1446.033	1095.666
237.972	17.971	1444.181	1095.252
238.986	17.998	1442.670	1094.182
240.001	17.915	1442.236	1093.224
241.015	17.911	1441.287	1092.387
242.030	17.993	1440.015	1091.850
243.045	18.096	1439.133	1091.739
244.059	18.094	1438.511	1091.156
245.074	18.201	1437.420	1090.914
246.088	18.122	1437.299	1090.225
247.103	18.276	1436.269	1090.326
248.117	18.313	1435.484	1089.871
249.132	18.381	1434.829	1089.708
250.147	18.465	1434.224	1089.691
251.161	18.541	1434.568	1090.334
252.176	18.769	1433.441	1090.832
253.190	18.911	1432.739	1091.105
254.205	18.873	1431.696	1089.969
255.220	18.940	1430.754	1089.583
256.234	18.999	1430.154	1089.402
257.249	18.875	1429.615	1088.107
258.263	18.932	1428.535	1087.553
259.278	19.028	1427.105	1086.975
260.293	18.907	1426.348	1085.540
261.307	18.820	1426.013	1084.639
262.322	18.898	1425.466	1084.617
263.336	19.090	1424.548	1085.035
264.351	19.084	1423.130	1083.816
265.366	19.176	1422.108	1083.527
266.380	19.079	1422.023	1082.753
267.395	19.128	1420.742	1081.988
268.409	19.078	1419.756	1080.830
269.424	19.049	1418.318	1079.457
270.439	18.911	1417.415	1077.812
271.453	18.981	1416.299	1077.306
272.468	18.884	1415.324	1075.858
273.482	18.794	1414.884	1074.866
274.497	18.858	1413.544	1074.154
275.512	18.874	1412.546	1073.403
276.526	18.760	1412.361	1072.454
277.541	18.831	1410.897	1071.689
278.555	18.873	1410.285	1071.390
279.570	18.857	1409.955	1070.948
280.585	18.956	1408.576	1070.419
281.599	19.082	1407.970	1070.648
282.614	19.106	1407.379	1070.251
283.628	19.098	1405.555	1068.720
284.643	18.998	1404.453	1067.168
285.657	18.961	1403.723	1066.288
286.672	18.951	1402.537	1065.236
287.687	18.973	1401.920	1064.806
288.701	18.967	1401.032	1064.001
289.716	18.976	1400.441	1063.513
290.730	19.051	1399.130	1062.887
291.745	19.111	1397.910	1062.236
292.760	19.125	1397.386	1061.830
293.774	19.074	1396.192	1060.518
294.789	19.180	1395.481	1060.536
295.803	19.233	1395.049	1060.437
296.818	19.303	1393.957	1059.944
297.833	19.221	1392.717	1058.404
298.847	19.105	1391.845	1056.938
299.862	19.190	1390.683	1056.483
300.876	19.087	1389.893	1055.156
301.891	19.113	1389.179	1054.682
302.906	19.266	1388.204	1054.786
303.920	19.388	1387.338	1054.777
304.935	19.396	1386.749	1054.288
305.949	19.436	1386.314	1054.109
306.964	19.523	1385.664	1054.049
307.979	19.605	1384.694	1053.721
308.993	19.437	1383.928	1052.019
310.008	19.458	1382.655	1051.084
311.022	19.441	1381.258	1049.830
312.037	19.540	1380.506	1049.767
313.052	19.621	1379.785	1049.619
314.066	19.499	1378.809	1048.039
315.081	19.315	1377.809	1046.071
316.095	19.289	1376.676	1044.960
317.110	19.143	1375.327	1042.958
318.125	19.053	1374.707	1041.850
319.139	19.196	1373.338	1041.589
320.154	19.196	1372.347	1040.747
321.168	19.200	1371.389	1039.948
322.183	19.329	1370.216	1039.745
323.197	19.288	1369.412	1038.799
324.212	19.266	1368.777	1038.093
325.227	19.388	1367.782	1037.976
326.241	19.354	1367.237	1037.266
327.256	19.368	1365.983	1036.308
328.270	19.448	1365.400	1036.257
329.285	19.409	1364.650	1035.358
330.300	19.313	1363.242	1033.628
331.314	19.354	1362.602	1033.293
332.329	19.316	1361.936	1032.473
333.343	19.392	1360.993	1032.118
334.358	19.417	1360.206	1031.583
335.373	19.483	1359.371	1031.253
336.387	19.483	1359.034	1030.901
337.402	19.509	1358.323	1030.428
338.416	19.622	1357.174	1030.141
339.431	19.651	1356.704	1029.866
340.446	19.637	1356.305	1029.389
341.460	19.794	1354.993	1029.232
342.475	19.935	1353.858	1029.118
343.489	20.043	1353.756	1029.593
344.504	20.034	1352.554	1028.534
345.519	20.101	1351.998	1028.418
346.533	20.017	1351.161	1027.190
347.548	20.108	1349.942	1026.713
348.562	20.184	1349.205	1026.510
349.577	20.062	1348.730	1025.339
350.592	20.067	1347.597	1024.417
351.606	19.888	1346.300	1022.280
352.621	19.808	1345.084	1020.794
353.635	19.717	1343.979	1019.333
354.650	19.764	1343.081	1018.836
355.665	19.684	1342.154	1017.572
356.679	19.827	1340.718	1017.236
357.694	19.815	1340.246	1016.715
358.708	19.890	1339.031	1016.144
359.723	19.911	1338.071	1015.447
360.738	19.989	1336.916	1014.936
361.752	19.911	1335.959	1013.665
362.767	20.011	1335.046	1013.472
363.781	20.066	1334.005	1012.909
364.796	19.960	1333.703	1011.973
365.810	20.142	1332.387	1011.946
366.825	20.182	1331.969	1011.772
367.840	20.288	1331.405	1011.875
368.854	20.345	1331.191	1011.953
369.869	20.373	1330.629	1011.598
370.883	20.510	1329.792	1011.673
371.898	20.419	1329.120	1010.543
372.913	20.253	1328.211	1008.795
373.927	20.280	1326.847	1007.828
374.942	20.332	1326.154	1007.515
375.956	20.411	1325.361	1007.277
376.971	20.371	1324.963	1006.655
377.986	20.469	1323.605	1006.105
379.000	20.396	1323.330	1005.379
380.015	20.368	1322.571	1004.556
381.029	20.525	1321.403	1004.486
382.044	20.586	1321.215	1004.606
383.059	20.666	1320.333	1004.310
384.073	20.587	1319.935	1003.461
385.088	20.498	1319.111	1002.232
386.102	20.561	1318.475	1002.026
387.117	20.586	1317.614	1001.422
388.132	20.628	1316.796	1000.955
389.146	20.533	1315.457	999.303
390.161	20.365	1314.520	997.537
391.175	20.308	1314.188	996.873
392.190	20.302	1313.645	996.335
393.205	20.472	1312.427	996.302
394.219	20.561	1311.487	996.009
395.234	20.604	1310.617	995.504
396.248	20.464	1309.369	993.667
397.263	20.453	1307.815	992.336
398.278	20.440	1306.246	990.986
399.292	20.363	1305.209	989.675
400.307	20.365	1303.701	988.453
401.321	20.301	1302.910	987.402
402.336	20.297	1301.840	986.480
403.350	20.300	1300.722	985.566
404.365	20.320	1300.034	985.068
405.380	20.417	1298.584	984.430
406.394	20.371	1298.390	983.938
407.409	20.495	1297.854	984.146
408.423	20.484	1297.263	983.548
409.438	20.743	1296.650	984.464
410.453	20.839	1295.976	984.404
411.467	20.846	1295.341	983.878
412.482	20.796	1295.022	983.265
413.496	20.896	1294.327	983.216
414.511	20.913	1293.538	982.623
415.526	20.989	1293.343	982.818
416.540	21.121	1292.119	982.540
417.555	21.060	1292.092	982.095
418.569	21.144	1291.158	981.767
419.584	21.149	1290.048	980.862
420.599	20.949	1290.240	979.802
421.613	145.009	1434.899	1797.410
422.628	139.988	1455.952	1797.508
