DTS Sentinel unit serial number:	SN413079Multiplexer serial number:	ORYXHardware model number:	OX4-SRSoftware version number:	ORYX F/W v4.00 Oryx Data Collector v3.7.2.0data status	okinstallation	princeton_trtdifferential loss correction	single-endedforward channel	channel 4reverse channel	N/Adate	2019/09/19time	06:49:35forward acquisition time	60.00reverse acquisition time	0.00gamma	496.2192k internal	0.2340k external	0.2340temperature offset calibration	1.0026default loss term (dB/km)	0.3790temperature slope calibration	1.0000multiplexer offset coefficient	1.0000multiplexer slope coefficient	1.0000fibre end	0.00T internal ref (°C)	19.00T ext. ref 1 (°C)	0.56T ext. ref 2 (°C)	12.74length (m)	temperature (°C)	Stokes	anti-Stokes-747.200	-50.079	-0.160	0.076
-746.185	-200.000	0.117	0.000
-745.171	-167.670	0.181	-0.007
-744.156	800.000	-0.064	0.239
-743.142	370.249	0.088	-0.179
-742.127	48.894	0.140	0.131
-741.112	-117.260	-0.139	-0.025
-740.098	288.930	0.043	0.079
-739.083	-200.000	-0.054	-0.275
-738.069	94.935	0.354	-0.403
-737.054	65.559	0.171	-0.174
-736.039	86.132	-0.183	-0.201
-735.025	-11.463	-0.134	0.088
-734.010	-72.071	-0.282	0.105
-732.996	294.534	-0.126	0.231
-731.981	-158.851	0.157	-0.009
-730.966	-200.000	-0.060	0.415
-729.952	-200.000	-0.064	0.294
-728.937	-200.000	0.016	-0.168
-727.923	-85.240	-0.293	0.092
-726.908	-200.000	0.041	-0.292
-725.894	-200.000	-0.074	-0.465
-724.879	800.000	0.037	-0.102
-723.864	-99.063	-0.102	-0.026
-722.850	-91.874	-0.084	0.024
-721.835	800.000	-0.122	-0.499
-720.821	-181.209	0.392	-0.008
-719.806	177.719	-0.144	0.210
-718.791	268.100	-0.176	-0.309
-717.777	176.887	0.165	-0.240
-716.762	5.532	-0.093	0.069
-715.748	-200.000	-0.022	0.416
-714.733	32.240	0.297	0.257
-713.718	-101.495	0.138	0.034
-712.704	338.474	0.174	-0.338
-711.689	21.749	-0.229	-0.187
-710.675	800.000	-0.098	0.333
-709.660	-16.830	0.248	-0.157
-708.645	-200.000	0.006	0.183
-707.631	235.658	0.114	0.188
-706.616	501.676	-0.093	0.215
-705.602	81.378	-0.047	0.051
-704.587	-9.862	-0.460	-0.307
-703.572	-200.000	0.028	-0.212
-702.558	-12.178	-0.126	-0.083
-701.543	-129.623	-0.222	-0.031
-700.529	25.613	-0.160	0.133
-699.514	-200.000	0.014	0.162
-698.499	-154.741	0.341	-0.023
-697.485	-91.599	-0.287	-0.082
-696.470	-200.000	-0.008	-0.098
-695.456	131.584	0.149	0.192
-694.441	-200.000	-0.025	0.217
-693.426	-67.529	0.180	-0.071
-692.412	625.017	-0.141	-0.355
-691.397	-200.000	0.042	-0.247
-690.383	-46.039	0.135	0.067
-689.368	16.422	-0.074	-0.059
-688.354	-105.227	0.373	0.085
-687.339	33.055	-0.097	0.084
-686.324	-200.000	-0.013	-0.141
-685.310	800.000	-0.043	-0.150
-684.295	102.940	-0.092	-0.108
-683.281	-200.000	0.011	-0.284
-682.266	-52.575	0.229	-0.106
-681.251	-200.000	-0.046	-0.207
-680.237	43.369	0.277	0.253
-679.222	503.674	-0.135	0.313
-678.208	268.314	-0.069	0.120
-677.193	84.138	-0.174	-0.190
-676.178	-63.485	-0.040	-0.016
-675.164	57.622	-0.174	-0.170
-674.149	-28.827	0.458	0.263
-673.135	-61.334	-0.437	0.184
-672.120	-200.000	0.015	-0.108
-671.105	-200.000	-0.030	0.239
-670.091	-52.179	0.465	-0.215
-669.076	45.669	-0.075	-0.069
-668.062	-200.000	-0.037	-0.280
-667.047	488.179	-0.051	0.116
-666.032	800.000	-0.149	-0.452
-665.018	535.017	-0.113	0.269
-664.003	175.219	-0.103	0.149
-662.989	190.724	0.133	-0.200
-661.974	-200.000	0.048	-0.289
-660.959	-19.817	0.126	-0.078
-659.945	-200.000	-0.025	-0.121
-658.930	-5.035	0.130	-0.090
-657.916	52.453	-0.280	0.267
-656.901	-24.321	-0.136	0.081
-655.886	-141.027	0.120	-0.012
-654.872	162.785	-0.191	0.267
-653.857	106.211	0.183	-0.216
-652.843	119.684	0.257	-0.319
-651.828	800.000	0.056	-0.210
-650.814	-45.395	-0.136	0.067
-649.799	1.033	0.413	0.296
-648.784	-108.237	-0.201	-0.043
-647.770	-43.842	-0.334	0.168
-646.755	-170.559	0.074	0.003
-645.741	-200.000	-0.018	0.236
-644.726	800.000	0.069	-0.198
-643.711	454.634	0.127	-0.282
-642.697	800.000	0.057	0.238
-641.682	-115.638	-0.429	-0.080
-640.668	800.000	0.084	-0.267
-639.653	486.768	0.057	-0.129
-638.638	-125.588	0.294	0.045
-637.624	242.831	-0.091	0.153
-636.609	-200.000	0.003	0.236
-635.595	34.998	0.262	0.229
-634.580	255.648	-0.057	-0.097
-633.565	-66.063	-0.106	0.042
-632.551	185.206	-0.124	-0.184
-631.536	-37.518	0.269	-0.143
-630.522	-200.000	-0.065	0.481
-629.507	-92.751	-0.142	-0.040
-628.492	-24.135	0.171	0.102
-627.478	-110.214	0.243	0.050
-626.463	97.830	0.308	0.354
-625.449	-10.587	-0.343	-0.226
-624.434	-15.143	-0.195	-0.125
-623.419	34.353	0.220	0.192
-622.405	391.272	0.106	0.220
-621.390	63.186	-0.189	0.189
-620.376	-114.460	0.342	-0.066
-619.361	-167.466	-0.280	0.011
-618.346	88.431	-0.118	0.131
-617.332	-200.000	-0.052	0.238
-616.317	800.000	-0.029	-0.085
-615.303	-59.610	-0.123	0.053
-614.288	728.031	-0.121	-0.321
-613.273	-200.000	0.013	-0.212
-612.259	-90.315	0.106	0.031
-611.244	650.914	-0.059	-0.150
-610.230	-117.734	-0.248	-0.044
-609.215	-75.177	0.137	0.049
-608.201	-160.379	-0.281	-0.015
-607.186	133.197	-0.175	-0.226
-606.171	-200.000	-0.039	-0.380
-605.157	660.647	0.069	-0.176
-604.142	48.674	-0.141	0.131
-603.128	105.427	-0.080	0.094
-602.113	29.048	-0.152	-0.129
-601.098	456.455	0.159	-0.351
-600.084	-86.175	0.227	-0.070
-599.069	-136.589	-0.431	-0.050
-598.055	243.646	-0.031	-0.053
-597.040	70.430	-0.106	0.110
-596.025	71.846	-0.177	-0.183
-595.011	-118.495	0.221	-0.039
-593.996	51.107	0.156	-0.147
-592.982	177.262	-0.203	-0.295
-591.967	-80.249	0.069	0.023
-590.952	-102.212	0.179	-0.043
-589.938	-200.000	-0.027	0.230
-588.923	39.406	0.124	0.111
-587.909	-132.666	-0.414	0.053
-586.894	69.232	0.119	0.122
-585.879	-200.000	-0.026	0.203
-584.865	-200.000	0.008	0.083
-583.850	72.161	-0.232	-0.241
-582.836	-200.000	-0.030	-0.228
-581.821	-12.337	0.150	-0.098
-580.806	-49.746	0.284	-0.134
-579.792	-101.217	-0.181	-0.044
-578.777	-132.452	-0.391	0.050
-577.763	-143.163	-0.171	0.016
-576.748	-126.402	0.331	-0.049
-575.733	-184.950	-0.148	-0.002
-574.719	32.445	0.395	0.340
-573.704	-200.000	-0.037	0.177
-572.690	30.648	-0.158	0.134
-571.675	-133.834	0.281	0.035
-570.661	-132.306	-0.370	-0.048
-569.646	142.836	0.044	-0.059
-568.631	-27.121	-0.119	-0.069
-567.617	800.000	-0.045	0.160
-566.602	754.360	-0.106	-0.286
-565.588	79.378	-0.334	-0.357
-564.573	-66.601	-0.076	-0.030
-563.558	146.790	-0.087	-0.117
-562.544	-200.000	0.077	-0.389
-561.529	-80.056	-0.351	0.117
-560.515	-97.476	0.281	0.073
-559.500	-162.609	0.431	0.021
-558.485	126.662	-0.072	0.091
-557.471	-34.531	-0.237	-0.129
-556.456	405.181	-0.121	-0.254
-555.442	-72.994	-0.129	-0.047
-554.427	33.773	0.117	0.101
-553.412	800.000	0.041	0.124
-552.398	800.000	-0.043	0.157
-551.383	-132.379	0.414	-0.053
-550.369	-92.646	0.280	-0.078
-549.354	800.000	-0.024	0.095
-548.339	800.000	0.072	-0.205
-547.325	351.756	0.108	0.213
-546.310	-143.697	-0.304	0.029
-545.296	800.000	-0.155	-0.449
-544.281	111.076	0.089	-0.107
-543.266	-14.160	0.138	0.088
-542.252	483.748	-0.020	-0.045
-541.237	-0.020	0.149	0.106
-540.223	-169.852	-0.251	-0.009
-539.208	-134.607	0.414	0.050
-538.193	-92.953	-0.213	-0.059
-537.179	-110.067	-0.272	-0.056
-536.164	800.000	-0.069	-0.245
-535.150	-200.000	0.007	0.293
-534.135	-145.807	-0.103	-0.009
-533.121	-87.312	-0.222	-0.067
-532.106	-99.152	0.081	0.020
-531.091	32.347	-0.174	-0.150
-530.077	-200.000	-0.018	0.252
-529.062	-200.000	-0.072	-0.528
-528.048	-20.864	0.122	-0.074
-527.033	-98.724	0.212	-0.054
-526.018	60.756	0.122	0.121
-525.004	-85.046	0.158	0.049
-523.989	371.870	0.064	-0.129
-522.975	30.837	-0.240	-0.204
-521.960	-18.886	-0.089	-0.055
-520.945	422.454	0.102	0.219
-519.931	257.606	0.243	-0.415
-518.916	-200.000	0.069	-0.320
-517.902	422.744	-0.121	0.258
-516.887	-200.000	0.011	-0.068
-515.872	-200.000	-0.010	0.104
-514.858	393.076	-0.086	0.178
-513.843	-22.468	0.373	0.224
-512.829	-107.377	-0.110	0.024
-511.814	672.328	0.044	0.113
-510.799	43.905	0.204	0.186
-509.785	757.029	0.021	-0.056
-508.770	367.989	-0.089	-0.179
-507.756	-200.000	-0.037	0.216
-506.741	-164.697	-0.332	0.015
-505.726	-53.163	0.136	-0.062
-504.712	5.967	-0.202	0.149
-503.697	473.924	0.089	-0.200
-502.683	-102.059	-0.149	0.036
-501.668	-200.000	0.035	-0.305
-500.653	27.829	-0.126	0.105
-499.639	236.992	0.169	0.277
-498.624	-136.078	0.339	0.040
-497.610	80.065	-0.239	-0.255
-496.595	-200.000	-0.058	-0.325
-495.581	-126.155	-0.339	0.050
-494.566	-86.004	-0.013	-0.004
-493.551	-110.476	0.341	-0.070
-492.537	-93.116	0.112	0.031
-491.522	181.300	-0.134	-0.195
-490.508	-87.673	-0.340	0.102
-489.493	-15.123	-0.166	0.105
-488.478	800.000	-0.005	-0.017
-487.464	-200.000	0.002	-0.359
-486.449	-175.892	0.233	-0.006
-485.435	-173.581	0.297	-0.009
-484.420	-143.460	0.157	0.015
-483.405	38.074	-0.257	0.227
-482.391	-200.000	-0.047	0.379
-481.376	800.000	-0.086	-0.370
-480.362	336.072	0.094	-0.181
-479.347	-155.788	0.275	-0.017
-478.332	-117.312	0.272	-0.049
-477.318	-200.000	0.016	0.145
-476.303	-200.000	0.008	0.137
-475.289	37.911	-0.006	0.006
-474.274	-140.363	-0.263	-0.027
-473.259	-53.651	-0.182	0.083
-472.245	170.358	-0.203	-0.288
-471.230	-200.000	-0.009	0.111
-470.216	-34.473	-0.079	-0.043
-469.201	-200.000	-0.014	0.334
-468.186	-88.324	-0.063	0.019
-467.172	800.000	-0.088	-0.330
-466.157	110.405	0.091	-0.109
-465.143	162.335	0.183	0.255
-464.128	113.046	-0.206	-0.248
-463.113	18.857	-0.048	0.038
-462.099	42.120	0.047	-0.042
-461.084	33.793	-0.191	-0.165
-460.070	40.449	-0.011	0.010
-459.055	-200.000	0.038	-0.218
-458.040	161.700	0.331	-0.460
-457.026	-111.994	0.198	0.040
-456.011	-68.435	0.433	-0.166
-454.997	-200.000	-0.012	-0.109
-453.982	-200.000	0.034	-0.220
-452.968	-161.228	0.160	-0.008
-451.953	-117.731	0.143	0.025
-450.938	580.979	-0.084	0.204
-449.924	-92.021	0.451	-0.127
-448.909	198.488	-0.159	-0.241
-447.895	-130.539	-0.107	-0.014
-446.880	254.212	-0.196	-0.331
-445.865	167.235	0.109	0.153
-444.851	-128.773	-0.294	0.041
-443.836	-150.799	-0.257	0.019
-442.822	1.881	-0.228	-0.163
-441.807	800.000	-0.073	0.291
-440.792	152.623	-0.056	0.076
-439.778	72.775	-0.174	0.180
-438.763	349.043	0.131	0.256
-437.749	351.680	-0.029	-0.057
-436.734	-78.656	0.195	-0.066
-435.719	-69.171	0.166	-0.063
-434.705	323.211	-0.082	-0.155
-433.690	-200.000	-0.015	0.324
-432.676	-79.528	-0.124	-0.042
-431.661	-2.636	-0.397	-0.275
-430.646	-116.872	-0.309	0.056
-429.632	-74.800	-0.309	0.110
-428.617	-99.762	0.313	0.078
-427.603	-200.000	-0.045	0.371
-426.588	-200.000	-0.035	0.000
-425.573	-149.098	-0.146	0.012
-424.559	800.000	-0.037	0.131
-423.544	113.506	0.078	-0.093
-422.530	200.469	-0.166	-0.253
-421.515	-200.000	-0.026	-0.175
-420.500	-135.765	0.292	-0.034
-419.486	800.000	-0.111	-0.340
-418.471	-23.984	0.331	0.196
-417.457	-3.568	0.155	0.107
-416.442	161.091	-0.213	0.295
-415.428	-200.000	0.008	0.175
-414.413	90.253	0.250	-0.276
-413.398	-12.122	0.200	0.130
-412.384	-26.232	0.167	-0.097
-411.369	288.551	-0.225	0.403
-410.355	800.000	-0.076	-0.218
-409.340	-37.547	-0.295	-0.156
-408.325	-118.280	0.378	-0.067
-407.311	-43.890	-0.362	-0.180
-406.296	-34.346	0.322	0.175
-405.282	159.694	0.071	-0.097
-404.267	-161.438	-0.368	-0.019
-403.252	-72.859	0.334	-0.122
-402.238	137.156	-0.194	-0.251
-401.223	-30.614	-0.172	-0.097
-400.209	-39.551	0.204	-0.106
-399.194	34.549	0.202	0.175
-398.179	-172.097	0.336	0.011
-397.165	800.000	0.078	0.266
-396.150	148.813	0.077	0.102
-395.136	205.511	-0.118	0.181
-394.121	-47.375	0.194	-0.094
-393.106	-30.627	0.171	0.096
-392.092	126.896	-0.209	-0.262
-391.077	208.031	-0.039	0.060
-390.063	800.000	-0.020	0.078
-389.048	331.476	-0.076	-0.144
-388.033	47.708	0.151	-0.140
-387.019	-162.018	0.311	-0.016
-386.004	-200.000	0.014	-0.241
-384.990	-124.078	0.339	0.053
-383.975	800.000	0.048	-0.131
-382.960	23.349	0.175	-0.142
-381.946	35.405	-0.161	0.140
-380.931	149.971	0.339	0.454
-379.917	1.448	0.013	-0.009
-378.902	-69.175	0.146	0.055
-377.888	-129.816	-0.439	0.060
-376.873	38.838	-0.052	-0.046
-375.858	-31.177	-0.285	0.159
-374.844	221.024	-0.199	-0.316
-373.829	268.898	0.080	-0.138
-372.815	-96.846	0.096	-0.025
-371.800	79.475	-0.230	0.243
-370.785	76.973	0.070	0.074
-369.771	188.944	0.172	-0.255
-368.756	601.594	-0.035	-0.085
-367.742	-16.898	0.038	0.024
-366.727	-99.710	-0.105	0.026
-365.712	135.375	0.123	0.159
-364.698	-7.235	-0.289	0.194
-363.683	-200.000	-0.305	0.000
-362.669	-117.942	0.138	0.024
-361.654	800.000	-0.041	-0.153
-360.639	800.000	0.025	-0.105
-359.625	800.000	-0.060	-0.258
-358.610	-123.553	-0.332	-0.052
-357.596	470.786	0.086	0.192
-356.581	-200.000	-0.019	0.144
-355.566	800.000	-0.087	0.276
-354.552	-200.000	-0.040	-0.294
-353.537	-24.876	-0.196	0.115
-352.523	-76.823	-0.228	0.079
-351.508	448.378	-0.041	-0.089
-350.493	-4.516	-0.066	-0.045
-349.479	-84.240	-0.299	0.094
-348.464	-59.797	0.386	0.163
-347.450	570.856	0.037	0.090
-346.435	-200.000	-0.029	0.269
-345.420	-113.047	-0.235	-0.046
-344.406	-50.774	0.060	-0.028
-343.391	166.550	-0.064	0.089
-342.377	56.135	0.144	0.138
-341.362	-24.467	-0.081	-0.048
-340.348	800.000	-0.036	0.118
-339.333	-64.757	-0.380	-0.152
-338.318	-69.103	-0.071	-0.027
-337.304	-80.365	-0.163	0.054
-336.289	-200.000	0.009	0.215
-335.275	548.459	0.019	-0.046
-334.260	576.229	0.036	0.088
-333.245	-200.000	0.028	0.162
-332.231	67.587	0.086	0.087
-331.216	40.577	0.232	0.206
-330.202	-127.929	0.297	-0.042
-329.187	115.445	0.266	0.320
-328.172	0.286	-0.185	-0.130
-327.158	-25.971	-0.073	-0.042
-326.143	205.641	-0.066	0.101
-325.129	-93.090	-0.175	0.048
-324.114	44.290	0.310	-0.281
-323.099	377.647	0.145	0.293
-322.085	-65.205	-0.126	-0.050
-321.070	-28.961	-0.325	-0.184
-320.056	53.456	-0.067	0.064
-319.041	-200.000	0.034	-0.368
-318.026	-53.978	-0.331	0.149
-317.012	-2.435	-0.121	-0.084
-315.997	-147.489	0.147	0.012
-314.983	455.515	0.087	-0.189
-313.968	95.945	0.113	-0.127
-312.953	206.882	0.212	-0.325
-311.939	97.104	0.195	-0.220
-310.924	-200.000	0.297	0.001
-309.910	614.918	-0.140	-0.345
-308.895	-200.000	0.003	-0.192
-307.880	437.383	-0.081	0.175
-306.866	187.012	-0.380	0.558
-305.851	-200.000	0.018	-0.153
-304.837	-100.194	0.107	-0.026
-303.822	-21.361	0.249	-0.150
-302.807	-16.523	0.056	-0.035
-301.793	93.203	-0.386	0.430
-300.778	-157.604	0.110	-0.006
-299.764	0.766	0.122	-0.086
-298.749	57.895	0.087	-0.084
-297.735	-74.522	0.274	0.097
-296.720	-22.819	-0.224	-0.133
-295.705	155.428	-0.016	-0.022
-294.691	800.000	0.106	0.391
-293.676	187.497	0.102	-0.150
-292.662	-143.704	0.260	-0.024
-291.647	30.334	-0.101	0.085
-290.632	-78.204	0.002	-0.001
-289.618	-200.000	-0.047	0.524
-288.603	264.352	0.016	-0.028
-287.589	149.243	-0.035	0.046
-286.574	348.337	0.080	0.156
-285.559	438.040	0.052	0.111
-284.545	-150.685	0.242	-0.018
-283.530	-69.622	0.249	0.094
-282.516	-26.291	0.227	0.131
-281.501	21.845	-0.149	-0.119
-280.486	-9.628	-0.138	0.090
-279.472	-63.643	-0.158	0.064
-278.457	100.062	-0.156	-0.178
-277.443	-126.250	0.209	0.031
-276.428	179.242	0.161	0.231
-275.413	-11.287	0.097	-0.063
-274.399	-200.000	-0.001	0.049
-273.384	-56.182	-0.081	-0.036
-272.370	127.448	0.143	0.179
-271.355	-60.940	-0.071	0.030
-270.340	-200.000	-0.013	0.068
-269.326	243.622	0.074	-0.121
-268.311	1.914	0.327	-0.232
-267.297	-94.919	-0.173	-0.046
-266.282	154.751	-0.100	0.135
-265.267	800.000	-0.048	0.137
-264.253	-11.811	-0.124	0.080
-263.238	-42.133	-0.282	-0.142
-262.224	-200.000	-0.028	0.161
-261.209	-61.423	0.259	0.107
-260.195	-128.901	-0.118	-0.016
-259.180	37.546	0.165	0.144
-258.165	117.556	0.219	0.264
-257.151	-66.796	-0.197	-0.077
-256.136	-186.652	0.303	0.004
-255.122	-22.530	0.139	0.083
-254.107	-200.000	0.040	0.206
-253.092	-21.923	-0.316	0.189
-252.078	800.000	-0.038	0.136
-251.063	62.138	0.207	0.203
-250.049	-200.000	0.033	0.185
-249.034	-200.000	0.003	0.095
-248.019	-200.000	0.005	-0.084
-247.005	195.716	0.192	-0.287
-245.990	-137.362	0.199	-0.022
-244.976	800.000	0.097	0.331
-243.961	174.363	0.221	0.314
-242.946	-60.819	0.305	0.127
-241.932	-90.162	-0.367	0.105
-240.917	-200.000	0.004	-0.242
-239.903	77.768	0.160	-0.168
-238.888	159.497	0.146	0.200
-237.873	-200.000	-0.044	-0.463
-236.859	-0.092	-0.326	0.228
-235.844	-200.000	0.036	-0.180
-234.830	73.446	0.122	-0.126
-233.815	-128.639	-0.231	-0.032
-232.800	-192.549	0.303	-0.003
-231.786	-200.000	0.025	-0.123
-230.771	159.835	0.009	-0.012
-229.757	-168.105	-0.506	0.019
-228.742	-200.000	0.056	0.263
-227.727	800.000	-0.047	-0.170
-226.713	25.762	0.164	-0.135
-225.698	800.000	0.051	-0.203
-224.684	101.498	-0.129	0.148
-223.669	432.440	-0.071	0.151
-222.655	-139.037	-0.105	0.011
-221.640	-30.660	0.171	0.095
-220.625	2.425	-0.115	-0.082
-219.611	131.029	-0.221	0.279
-218.596	-92.640	-0.281	-0.077
-217.582	91.507	-0.060	0.066
-216.567	-200.000	-0.017	-0.309
-215.552	-64.068	-0.113	-0.045
-214.538	43.568	0.038	-0.034
-213.523	-100.672	-0.362	-0.088
-212.509	-155.129	-0.355	-0.023
-211.494	23.719	-0.112	0.090
-210.479	206.713	-0.142	-0.218
-209.465	754.368	-0.037	-0.097
-208.450	-168.427	-0.049	0.002
-207.436	800.000	0.045	0.163
-206.421	-200.000	0.040	-0.260
-205.406	43.447	0.088	0.079
-204.392	-26.752	0.269	0.154
-203.377	-2.508	0.411	0.282
-202.363	-200.000	0.026	0.126
-201.348	245.700	-0.112	0.185
-200.333	337.088	-0.101	-0.193
-199.319	-145.753	0.159	-0.014
-198.304	137.021	-0.186	0.239
-197.290	131.513	0.031	0.039
-196.275	800.000	-0.015	0.062
-195.260	-200.000	-0.015	0.119
-194.246	-143.018	-0.373	-0.035
-193.231	47.733	0.192	0.176
-192.217	-200.000	0.006	-0.128
-191.202	-23.028	0.224	0.132
-190.187	-200.000	-0.029	0.133
-189.173	-200.000	0.024	0.193
-188.158	60.615	-0.230	-0.223
-187.144	165.726	0.098	-0.137
-186.129	-26.398	-0.120	-0.069
-185.114	-126.971	0.303	-0.044
-184.100	800.000	0.075	0.224
-183.085	-78.738	0.136	0.045
-182.071	226.405	0.120	-0.191
-181.056	-46.681	-0.350	-0.168
-180.042	384.664	0.090	-0.182
-179.027	112.397	-0.066	0.078
-178.012	-16.270	0.221	-0.138
-176.998	114.347	-0.161	-0.193
-175.983	27.991	0.157	0.130
-174.969	-68.396	0.170	0.065
-173.954	-12.458	0.120	0.077
-172.939	800.000	0.034	-0.137
-171.925	800.000	0.018	0.072
-170.910	448.801	0.116	0.251
-169.896	-39.041	-0.167	0.086
-168.881	534.913	0.074	0.173
-167.866	147.408	0.125	-0.164
-166.852	513.715	-0.097	0.222
-165.837	219.539	0.277	-0.434
-164.823	-63.801	-0.320	-0.128
-163.808	800.000	0.062	0.247
-162.793	-43.147	0.325	-0.161
-161.779	-122.199	0.220	0.035
-160.764	356.473	-0.161	-0.315
-159.750	-95.630	0.095	0.025
-158.735	-122.856	0.123	0.019
-157.720	41.718	0.175	0.156
-156.706	-200.000	0.026	0.192
-155.691	13.534	-0.133	-0.101
-154.677	123.890	0.115	0.141
-153.662	800.000	-0.023	0.087
-152.647	23.684	0.131	0.106
-151.633	19.259	-0.121	-0.095
-150.618	-200.000	-0.061	-0.422
-149.604	13.564	-0.087	-0.066
-148.589	-155.564	0.267	0.017
-147.574	-200.000	0.374	-0.001
-146.560	590.136	-0.161	-0.389
-145.545	-121.368	-0.287	0.047
-144.531	-200.000	0.033	0.187
-143.516	-90.526	-0.310	-0.088
-142.502	-200.000	0.048	0.256
-141.487	-200.000	0.001	-0.034
-140.472	-144.031	-0.388	-0.036
-139.458	-21.159	-0.075	-0.045
-138.443	-129.551	0.059	-0.008
-137.429	800.000	0.040	0.138
-136.414	59.666	-0.170	-0.164
-135.399	-64.803	-0.117	0.046
-134.385	-200.000	-0.036	-0.255
-133.370	-56.194	0.388	0.169
-132.356	293.820	-0.156	0.279
-131.341	487.945	0.108	-0.241
-130.326	2.320	0.020	0.014
-129.312	632.039	-0.094	0.232
-128.297	-7.263	-0.253	-0.168
-127.283	-122.946	0.194	-0.030
-126.268	-47.576	0.175	0.083
-125.253	-200.000	-0.034	0.191
-124.239	800.000	0.053	-0.147
-123.224	-200.000	-0.034	0.201
-122.210	-67.625	0.414	0.159
-121.195	-114.469	0.012	-0.002
-120.180	402.002	0.079	0.162
-119.166	-200.000	0.039	0.180
-118.151	-68.066	0.167	-0.064
-117.137	-200.000	-0.004	0.170
-116.122	-147.108	0.267	-0.022
-115.107	139.076	0.194	-0.249
-114.093	-171.858	0.118	0.004
-113.078	-200.000	-0.007	-0.163
-112.064	16.309	-0.048	0.037
-111.049	271.536	-0.074	0.127
-110.034	185.482	-0.044	0.063
-109.020	-21.913	-0.339	-0.201
-108.005	-3.452	0.186	0.127
-106.991	272.804	0.130	0.225
-105.976	31.770	0.081	0.069
-104.962	161.906	0.129	0.177
-103.947	-116.724	0.131	0.023
-102.932	-191.477	-0.206	-0.002
-101.918	800.000	0.073	-0.286
-100.903	-200.000	-0.002	-0.217
-99.889	-60.184	0.149	0.062
-98.874	-149.464	0.198	-0.015
-97.859	-22.358	-0.226	-0.134
-96.845	800.000	-0.070	-0.196
-95.830	800.000	-0.053	0.219
-94.816	-12.651	-0.104	-0.066
-93.801	113.443	-0.147	-0.174
-92.786	-200.000	0.013	0.302
-91.772	98.925	0.096	0.108
-90.757	-134.457	-0.162	-0.019
-89.743	-108.368	0.180	-0.038
-88.728	-179.374	-0.252	-0.005
-87.713	-25.168	-0.218	0.126
-86.699	-38.561	0.253	0.131
-85.684	-200.000	0.055	0.275
-84.670	86.662	-0.139	0.150
-83.655	800.000	0.108	0.310
-82.640	800.000	0.100	-0.310
-81.626	-200.000	-0.010	-0.235
-80.611	40.770	0.066	0.058
-79.597	388.735	0.157	-0.317
-78.582	123.332	-0.177	0.216
-77.567	-147.753	0.072	-0.006
-76.553	258.885	0.055	0.093
-75.538	57.922	0.084	-0.080
-74.524	-200.000	-0.021	0.126
-73.509	800.000	0.102	0.281
-72.494	70.927	-0.283	0.287
-71.480	-200.000	0.013	0.062
-70.465	-137.998	0.375	0.041
-69.451	734.607	0.013	-0.034
-68.436	-6.569	-0.165	-0.110
-67.422	-38.092	-0.124	0.064
-66.407	-200.000	-0.050	0.233
-65.392	-95.236	-0.361	-0.095
-64.378	-149.548	0.106	0.008
-63.363	27.905	0.213	-0.176
-62.349	731.772	-0.150	0.393
-61.334	172.941	-0.795	-1.118
-60.319	51.333	0.851	0.788
-59.305	800.000	-0.470	-1.541
-58.290	800.000	0.640	1.797
-57.276	513.713	0.521	1.186
-56.261	-200.000	135.163	627.689
-55.246	346.126	1629.741	3127.454
-54.232	136.211	2779.550	3536.574
-53.217	73.876	2339.148	2393.783
-52.203	25.094	2090.713	1693.282
-51.188	20.646	2012.196	1589.096
-50.173	19.815	1998.053	1570.317
-49.159	37.387	2075.706	1795.374
-48.144	34.345	2085.819	1775.750
-47.130	20.920	2039.280	1612.758
-46.115	19.082	2028.476	1587.224
-45.100	18.894	2026.035	1583.517
-44.086	18.975	2023.111	1581.909
-43.071	18.886	2020.829	1579.245
-42.057	18.911	2018.698	1577.748
-41.042	18.927	2016.873	1576.410
-40.027	18.957	2014.653	1574.884
-39.013	18.885	2013.234	1573.054
-37.998	18.855	2011.834	1571.625
-36.984	18.944	2010.131	1571.042
-35.969	18.989	2007.901	1569.644
-34.954	18.932	2006.340	1567.845
-33.940	18.975	2005.047	1567.164
-32.925	19.031	2003.218	1566.178
-31.911	19.046	2001.555	1564.958
-30.896	19.012	1999.905	1563.292
-29.881	19.002	1998.113	1561.746
-28.867	19.052	1996.869	1561.165
-27.852	19.059	1995.509	1560.100
-26.838	19.065	1992.851	1558.016
-25.823	19.012	1991.484	1556.404
-24.809	18.939	1990.155	1554.639
-23.794	19.000	1988.087	1553.519
-22.779	19.004	1986.680	1552.390
-21.765	19.034	1984.687	1551.041
-20.750	19.026	1983.057	1549.638
-19.736	18.996	1981.616	1548.181
-18.721	19.083	1979.821	1547.496
-17.706	19.022	1978.458	1545.826
-16.692	18.981	1977.034	1544.277
-15.677	18.980	1975.699	1543.169
-14.663	19.091	1973.840	1542.647
-13.648	19.122	1972.644	1541.934
-12.633	19.018	1971.677	1540.180
-11.619	19.055	1970.259	1539.343
-10.604	19.021	1968.791	1537.830
-9.590	18.958	1967.949	1536.555
-8.575	19.020	1966.021	1535.541
-7.560	18.976	1965.065	1534.337
-6.546	18.966	1963.335	1532.836
-5.531	19.078	1961.782	1532.559
-4.517	19.029	1960.886	1531.360
-3.502	18.909	1960.339	1529.809
-2.487	18.977	1959.071	1529.366
-1.473	19.006	1957.498	1528.335
-0.458	18.981	1952.806	1524.387
0.556	17.672	1932.305	1495.190
1.571	13.432	1912.841	1443.104
2.586	9.699	1937.102	1428.264
3.600	8.898	1971.508	1446.278
4.615	9.003	1962.817	1440.721
5.629	7.097	1863.748	1351.619
6.644	2.982	1755.371	1239.758
7.659	0.721	1726.181	1201.080
8.673	0.626	1723.131	1198.105
9.688	0.542	1722.430	1196.844
10.702	0.642	1720.388	1196.111
11.717	0.439	1716.544	1191.731
12.731	0.727	1714.431	1192.431
13.746	4.151	1721.692	1224.457
14.761	10.802	1734.279	1286.092
15.775	15.828	1744.201	1333.249
16.790	17.058	1745.643	1343.982
17.804	16.170	1743.520	1335.206
18.819	15.304	1739.532	1325.188
19.834	14.657	1736.955	1318.003
20.848	14.429	1735.621	1315.076
21.863	14.170	1733.840	1311.565
22.877	13.941	1732.676	1308.770
23.892	13.717	1730.959	1305.593
24.907	13.630	1730.120	1304.160
25.921	13.570	1728.736	1302.529
26.936	13.582	1727.851	1301.838
27.950	13.553	1727.258	1301.053
28.965	13.678	1726.394	1301.262
29.980	13.655	1726.074	1300.726
30.994	13.744	1724.739	1300.309
32.009	13.782	1723.314	1299.413
33.023	13.794	1722.733	1298.956
34.038	13.790	1722.229	1298.426
35.053	13.814	1720.609	1297.278
36.067	13.819	1719.357	1296.263
37.082	13.811	1718.271	1295.260
38.096	13.751	1717.492	1294.091
39.111	13.758	1716.990	1293.657
40.126	13.926	1715.476	1293.712
41.140	13.774	1714.633	1291.778
42.155	13.746	1712.926	1290.157
43.169	13.678	1711.583	1288.501
44.184	13.672	1710.465	1287.502
45.199	13.617	1709.086	1285.922
46.213	13.620	1708.332	1285.261
47.228	13.614	1707.230	1284.276
48.242	13.598	1706.149	1283.228
49.257	13.682	1704.791	1282.738
50.271	13.695	1703.138	1281.486
51.286	13.667	1702.411	1280.603
52.301	13.682	1701.254	1279.741
53.315	13.724	1699.254	1278.446
54.330	13.666	1697.944	1276.895
55.344	13.688	1696.411	1275.803
56.359	13.686	1694.762	1274.431
57.374	13.610	1693.728	1272.959
58.388	13.624	1692.757	1272.225
59.403	13.636	1690.552	1270.549
60.417	13.559	1689.841	1269.309
61.432	13.479	1689.033	1267.978
62.447	13.639	1686.984	1267.551
63.461	13.583	1685.737	1266.078
64.476	13.551	1684.965	1265.136
65.490	13.543	1683.962	1264.212
66.505	13.494	1682.403	1262.559
67.520	13.532	1681.729	1262.228
68.534	13.640	1680.159	1261.764
69.549	13.582	1679.097	1260.409
70.563	13.639	1677.707	1259.690
71.578	13.524	1676.556	1257.839
72.593	13.600	1675.349	1257.396
73.607	13.516	1674.341	1255.891
74.622	13.588	1672.827	1255.195
75.636	13.551	1672.012	1254.187
76.651	13.591	1670.795	1253.472
77.666	13.494	1670.473	1252.381
78.680	13.578	1669.186	1251.942
79.695	13.589	1667.906	1250.955
80.709	13.571	1666.843	1249.910
81.724	13.598	1666.078	1249.433
82.739	13.597	1665.292	1248.725
83.753	13.661	1664.135	1248.229
84.768	13.622	1663.023	1246.990
85.782	13.741	1662.062	1247.056
86.797	13.783	1661.041	1246.489
87.812	13.753	1660.459	1245.721
88.826	13.683	1658.985	1243.976
89.841	13.665	1657.977	1242.976
90.855	13.606	1656.908	1241.623
91.870	13.727	1655.781	1241.571
92.884	13.744	1654.465	1240.605
93.899	13.733	1653.718	1239.850
94.914	13.833	1651.834	1239.076
95.928	13.753	1651.223	1237.911
96.943	13.736	1650.004	1236.761
97.957	13.725	1648.049	1235.105
98.972	13.803	1646.733	1234.588
99.987	13.804	1644.989	1233.183
101.001	13.798	1643.037	1231.564
102.016	13.634	1642.412	1229.770
103.030	13.589	1640.718	1228.062
104.045	13.750	1639.174	1227.986
105.060	13.823	1637.611	1227.251
106.074	13.755	1636.284	1225.641
107.089	13.695	1634.590	1223.825
108.103	13.642	1633.296	1222.354
109.118	13.641	1631.602	1220.973
110.133	13.570	1630.206	1219.292
111.147	13.616	1628.786	1218.462
112.162	13.543	1627.558	1216.900
113.176	13.629	1625.666	1216.014
114.191	13.639	1624.945	1215.439
115.206	13.654	1623.145	1214.094
116.220	13.700	1621.586	1213.152
117.235	13.700	1620.893	1212.529
118.249	13.689	1619.314	1211.159
119.264	13.689	1618.103	1210.145
120.279	13.748	1616.243	1209.083
121.293	13.725	1614.684	1207.641
122.308	13.643	1613.427	1205.995
123.322	13.625	1611.710	1204.476
124.337	13.668	1610.010	1203.406
125.352	13.605	1608.804	1201.947
126.366	13.602	1608.082	1201.278
127.381	13.664	1606.646	1200.549
128.395	13.585	1605.994	1199.385
129.410	13.551	1604.093	1197.610
130.424	13.629	1602.351	1196.765
131.439	13.629	1601.032	1195.673
132.454	13.622	1599.960	1194.718
133.468	13.665	1598.251	1193.646
134.483	13.682	1596.690	1192.498
135.497	13.801	1594.966	1191.961
136.512	13.785	1594.226	1191.183
137.527	13.687	1593.012	1189.468
138.541	13.731	1591.618	1188.641
139.556	13.680	1590.100	1187.036
140.570	13.772	1588.348	1186.280
141.585	13.741	1587.237	1185.123
142.600	13.849	1586.181	1185.003
143.614	13.891	1584.765	1184.143
144.629	13.891	1583.214	1182.878
145.643	14.025	1581.852	1182.708
146.658	14.032	1580.012	1181.280
147.673	13.857	1579.378	1179.456
148.687	14.016	1577.148	1178.811
149.702	13.868	1576.250	1176.991
150.716	13.894	1574.520	1175.777
151.731	13.944	1572.873	1174.798
152.746	13.862	1571.708	1173.245
153.760	13.802	1570.114	1171.529
154.775	13.877	1568.877	1171.027
155.789	13.901	1567.944	1170.395
156.804	13.957	1566.444	1169.569
157.819	14.023	1565.060	1168.896
158.833	14.023	1563.954	1167.965
159.848	13.939	1563.177	1166.694
160.862	14.114	1560.990	1166.185
161.877	14.092	1559.760	1165.006
162.892	14.067	1558.879	1164.075
163.906	14.004	1557.919	1162.811
164.921	13.997	1556.273	1161.431
165.935	13.979	1555.424	1160.568
166.950	13.959	1554.296	1159.487
167.964	14.043	1552.806	1158.854
168.979	14.082	1551.971	1158.406
169.994	14.137	1550.308	1157.444
171.008	14.038	1549.694	1156.195
172.023	14.073	1548.660	1155.558
173.037	14.148	1547.127	1154.836
174.052	14.181	1545.918	1154.062
175.067	14.206	1545.147	1153.558
176.081	14.121	1543.594	1151.705
177.096	14.081	1542.800	1150.735
178.110	14.165	1541.140	1149.977
179.125	14.105	1539.959	1148.580
180.140	14.168	1538.365	1147.725
181.154	14.117	1537.930	1146.948
182.169	14.103	1536.677	1145.811
183.183	14.190	1535.192	1145.200
184.198	14.233	1534.313	1144.745
185.213	14.271	1533.497	1144.295
186.227	14.289	1531.684	1142.964
187.242	14.305	1530.851	1142.350
188.256	14.358	1529.617	1141.689
189.271	14.356	1528.248	1140.557
190.286	14.394	1527.707	1140.307
191.300	14.334	1526.705	1139.047
192.315	14.206	1525.312	1137.038
193.329	14.262	1523.959	1136.310
194.344	14.208	1522.937	1135.076
195.359	14.392	1521.544	1135.195
196.373	14.284	1520.582	1133.639
197.388	14.320	1519.703	1133.129
198.402	14.423	1518.858	1133.095
199.417	14.489	1517.775	1132.642
200.432	14.454	1516.446	1131.306
201.446	14.497	1515.530	1130.818
202.461	14.497	1514.312	1129.812
203.475	14.513	1513.276	1129.046
204.490	14.528	1512.388	1128.384
205.504	14.488	1511.058	1127.018
206.519	14.499	1510.004	1126.207
207.534	14.504	1509.161	1125.513
208.548	14.563	1507.843	1124.828
209.563	14.586	1506.236	1123.684
210.577	14.592	1505.504	1123.083
211.592	14.581	1504.498	1122.161
212.607	14.491	1504.078	1121.138
213.621	14.736	1502.811	1121.739
214.636	14.757	1502.315	1121.413
215.650	14.627	1501.700	1119.984
216.665	14.672	1500.572	1119.344
217.680	14.615	1499.654	1118.181
218.694	14.732	1498.832	1118.247
219.709	14.833	1497.317	1117.694
220.723	14.670	1496.719	1116.061
221.738	14.710	1495.816	1115.559
222.753	14.753	1494.735	1114.938
223.767	14.708	1494.003	1113.996
224.782	14.713	1493.023	1113.197
225.796	14.839	1491.710	1112.958
226.811	14.842	1490.958	1112.320
227.826	14.976	1489.676	1112.156
228.840	14.916	1488.555	1110.824
229.855	14.869	1488.266	1110.197
230.869	14.894	1487.169	1109.443
231.884	14.844	1486.050	1108.178
232.899	14.858	1485.311	1107.622
233.913	14.902	1483.471	1106.443
234.928	14.898	1482.331	1105.471
235.942	14.822	1481.157	1103.997
236.957	14.866	1479.981	1103.314
237.972	14.898	1478.768	1102.520
238.986	14.833	1477.906	1101.350
240.001	14.894	1476.327	1100.482
241.015	14.854	1476.143	1099.980
242.030	14.803	1474.970	1098.674
243.045	14.901	1473.896	1098.420
244.059	15.039	1472.731	1098.364
245.074	15.088	1471.631	1097.768
246.088	15.101	1470.596	1096.980
247.103	15.038	1470.380	1096.310
248.117	15.057	1469.480	1095.667
249.132	15.030	1468.624	1094.754
250.147	15.096	1468.028	1094.644
251.161	15.158	1467.266	1094.384
252.176	15.281	1466.225	1094.313
253.190	15.270	1465.635	1093.704
254.205	15.324	1464.702	1093.266
255.220	15.305	1463.945	1092.480
256.234	15.367	1463.040	1092.115
257.249	15.407	1462.062	1091.545
258.263	15.423	1461.300	1090.981
259.278	15.349	1460.516	1089.818
260.293	15.367	1459.564	1089.129
261.307	15.410	1458.935	1088.842
262.322	15.448	1457.918	1088.233
263.336	15.479	1457.076	1087.708
264.351	15.498	1455.886	1086.850
265.366	15.472	1455.060	1085.969
266.380	15.635	1454.049	1086.171
267.395	15.469	1453.235	1084.395
268.409	15.545	1452.678	1084.375
269.424	15.628	1450.839	1083.443
270.439	15.531	1450.489	1082.459
271.453	15.622	1448.832	1081.710
272.468	15.567	1448.518	1081.029
273.482	15.511	1447.662	1079.933
274.497	15.654	1446.375	1079.797
275.512	15.569	1445.877	1078.785
276.526	15.644	1445.034	1078.541
277.541	15.672	1443.860	1077.744
278.555	15.675	1442.849	1076.917
279.570	15.642	1442.345	1076.237
280.585	15.777	1440.815	1075.859
281.599	15.651	1440.533	1074.746
282.614	15.745	1439.298	1074.332
283.628	15.685	1438.073	1072.942
284.643	15.752	1437.016	1072.483
285.657	15.780	1435.915	1071.749
286.672	15.762	1434.800	1070.703
287.687	15.705	1433.888	1069.567
288.701	15.751	1432.990	1069.097
289.716	15.856	1432.148	1069.038
290.730	15.823	1431.494	1068.245
291.745	15.848	1430.373	1067.472
292.760	15.791	1429.706	1066.520
293.774	15.831	1428.273	1065.608
294.789	15.861	1427.501	1065.130
295.803	15.948	1426.788	1065.051
296.818	15.898	1425.803	1063.911
297.833	15.918	1424.651	1063.083
298.847	15.974	1423.437	1062.434
299.862	15.974	1422.592	1061.708
300.876	16.013	1421.434	1060.997
301.891	15.977	1420.534	1060.008
302.906	16.115	1419.763	1060.201
303.920	16.060	1419.519	1059.581
304.935	16.067	1418.661	1058.893
305.949	16.094	1417.910	1058.409
306.964	16.153	1416.871	1057.910
307.979	16.155	1415.904	1057.107
308.993	16.174	1415.190	1056.595
310.008	16.247	1413.997	1056.067
311.022	16.084	1413.303	1054.440
312.037	16.264	1411.911	1054.429
313.052	16.257	1411.100	1053.691
314.066	16.155	1409.918	1052.075
315.081	16.218	1408.857	1051.582
316.095	16.327	1407.418	1051.096
317.110	16.230	1406.692	1049.858
318.125	16.254	1405.256	1048.844
319.139	16.230	1404.707	1048.188
320.154	16.233	1403.508	1047.219
321.168	16.280	1402.569	1046.716
322.183	16.251	1402.061	1046.070
323.197	16.323	1400.750	1045.444
324.212	16.311	1399.499	1044.342
325.227	16.328	1399.136	1044.084
326.241	16.350	1398.006	1043.285
327.256	16.389	1397.425	1042.998
328.270	16.291	1396.333	1041.489
329.285	16.331	1395.845	1041.279
330.300	16.342	1394.730	1040.423
331.314	16.318	1393.925	1039.583
332.329	16.409	1392.618	1039.073
333.343	16.336	1391.691	1037.841
334.358	16.352	1391.272	1037.539
335.373	16.459	1390.261	1037.345
336.387	16.443	1389.211	1036.375
337.402	16.508	1388.584	1036.211
338.416	16.546	1388.264	1036.116
339.431	16.504	1387.519	1035.212
340.446	16.544	1386.517	1034.613
341.460	16.554	1385.544	1033.862
342.475	16.634	1384.325	1033.346
343.489	16.503	1384.072	1032.265
344.504	16.676	1382.638	1032.159
345.519	16.611	1381.958	1031.168
346.533	16.682	1380.623	1030.513
347.548	16.788	1379.717	1030.388
348.562	16.643	1379.034	1028.905
349.577	16.736	1377.891	1028.529
350.592	16.798	1377.455	1028.485
351.606	16.740	1376.446	1027.290
352.621	16.700	1375.279	1026.085
353.635	16.638	1374.234	1024.839
354.650	16.656	1373.495	1024.306
355.665	16.673	1372.570	1023.630
356.679	16.703	1371.277	1022.758
357.694	16.716	1370.389	1022.079
358.708	16.797	1368.841	1021.326
359.723	16.754	1368.049	1020.383
360.738	16.961	1366.791	1020.603
361.752	16.960	1365.262	1019.363
362.767	16.913	1364.076	1018.103
363.781	16.868	1363.796	1017.535
364.796	16.861	1363.491	1017.178
365.810	16.949	1362.179	1016.637
366.825	16.912	1361.773	1016.021
367.840	16.995	1360.910	1015.786
368.854	17.018	1360.158	1015.272
369.869	17.107	1359.509	1015.230
370.883	16.966	1359.026	1013.937
371.898	17.080	1357.800	1013.608
372.913	17.102	1356.693	1012.829
373.927	17.014	1356.767	1012.269
374.942	17.075	1355.340	1011.473
375.956	17.128	1354.736	1011.253
376.971	17.179	1354.129	1011.010
377.986	17.198	1353.315	1010.431
379.000	17.186	1352.061	1009.329
380.015	17.201	1351.576	1008.971
381.029	17.126	1350.796	1007.853
382.044	17.204	1349.942	1007.586
383.059	17.299	1348.730	1007.158
384.073	17.269	1348.165	1006.470
385.088	17.364	1347.535	1006.473
386.102	17.323	1347.034	1005.763
387.117	17.458	1346.174	1005.833
388.132	17.380	1345.446	1004.739
389.146	17.371	1344.525	1003.912
390.161	17.280	1343.734	1002.694
391.175	17.264	1342.971	1001.943
392.190	17.323	1342.252	1001.661
393.205	17.369	1341.305	1001.138
394.219	17.451	1340.111	1000.640
395.234	17.406	1338.560	999.132
396.248	17.466	1337.842	998.860
397.263	17.406	1336.496	997.414
398.278	17.511	1334.752	996.637
399.292	17.503	1333.606	995.647
400.307	17.424	1332.957	994.614
401.321	17.568	1331.545	994.311
402.336	17.529	1330.620	993.308
403.350	17.605	1329.712	992.983
404.365	17.591	1328.936	992.235
405.380	17.518	1327.937	990.973
406.394	17.598	1326.961	990.625
407.409	17.527	1326.892	990.071
408.423	17.551	1325.872	989.366
409.438	17.728	1325.201	989.802
410.453	17.685	1324.413	988.877
411.467	17.735	1323.508	988.402
412.482	17.672	1323.159	987.691
413.496	17.617	1322.773	986.995
414.511	17.790	1321.174	986.720
415.526	17.767	1320.601	986.069
416.540	17.912	1319.784	986.208
417.555	17.825	1319.325	985.277
418.569	17.857	1318.488	984.751
419.584	17.822	1318.180	984.232
420.599	17.821	1317.728	983.801
421.613	101.844	1365.177	1493.422
422.628	100.471	1372.004	1493.477
