DTS Sentinel unit serial number:	SN413079Multiplexer serial number:	ORYXHardware model number:	OX4-SRSoftware version number:	ORYX F/W v4.00 Oryx Data Collector v3.7.2.0data status	okinstallation	princeton_trtdifferential loss correction	single-endedforward channel	channel 4reverse channel	N/Adate	2019/09/12time	18:24:18forward acquisition time	15.00reverse acquisition time	0.00gamma	496.2192k internal	0.2307k external	0.2307temperature offset calibration	1.0135default loss term (dB/km)	0.3790temperature slope calibration	1.0000multiplexer offset coefficient	1.0000multiplexer slope coefficient	1.0000fibre end	0.00T internal ref (°C)	33.37T ext. ref 1 (°C)	2.91T ext. ref 2 (°C)	27.91length (m)	temperature (°C)	Stokes	anti-Stokes-747.200	14.701	-0.280	-0.223
-746.185	-93.351	-1.062	0.300
-745.171	-200.000	-0.149	-0.854
-744.156	-200.000	0.024	0.880
-743.142	75.061	0.568	0.608
-742.127	29.225	0.142	0.122
-741.112	172.301	0.396	0.578
-740.098	550.996	0.184	0.449
-739.083	-200.000	-0.022	0.194
-738.069	-82.984	-0.081	0.026
-737.054	43.818	0.455	0.424
-736.039	-149.250	0.058	-0.005
-735.025	31.530	0.766	0.669
-734.010	15.901	0.428	0.342
-732.996	493.741	-0.271	0.632
-731.981	-5.367	0.548	0.382
-730.966	-93.606	-0.277	-0.078
-729.952	395.419	0.147	0.311
-728.937	87.500	0.264	-0.298
-727.923	37.070	0.262	-0.236
-726.908	-63.006	0.129	-0.054
-725.894	-60.623	-0.424	-0.183
-724.879	-95.181	0.138	-0.038
-723.864	-200.000	0.004	0.052
-722.850	-59.045	0.757	0.332
-721.835	-94.174	-0.091	0.025
-720.821	-88.204	-0.351	0.107
-719.806	-90.906	0.571	0.167
-718.791	0.719	-0.293	0.213
-717.777	311.845	-0.153	-0.292
-716.762	-200.000	-0.033	0.159
-715.748	141.670	-0.327	-0.440
-714.733	303.696	-0.216	0.407
-713.718	117.870	0.191	0.239
-712.704	161.732	0.424	-0.603
-711.689	263.699	-0.420	-0.743
-710.675	293.330	-0.165	-0.306
-709.660	105.390	0.698	-0.837
-708.645	-200.000	0.090	-0.660
-707.631	128.960	0.183	-0.237
-706.616	-91.783	0.358	-0.103
-705.602	-146.845	-0.551	0.048
-704.587	-22.799	0.438	-0.268
-703.572	309.980	-0.310	-0.590
-702.558	800.000	-0.061	-0.253
-701.543	-200.000	-0.010	0.639
-700.529	-94.940	-0.231	-0.063
-699.514	-200.000	0.019	-0.683
-698.499	8.489	-0.360	-0.275
-697.485	-29.019	-0.869	0.506
-696.470	-200.000	-0.065	-0.434
-695.456	800.000	0.174	0.493
-694.441	36.679	-0.641	0.574
-693.426	-176.306	0.321	-0.009
-692.412	-103.032	0.662	-0.159
-691.397	72.849	-0.268	-0.284
-690.383	800.000	-0.242	0.945
-689.368	-200.000	-0.276	-0.001
-688.354	800.000	0.079	0.256
-687.339	28.921	-0.719	0.619
-686.324	502.884	-0.106	0.248
-685.310	-11.359	-0.125	0.083
-684.295	800.000	-0.229	-0.660
-683.281	-15.275	0.221	-0.143
-682.266	118.018	-0.233	0.292
-681.251	384.722	-0.469	0.980
-680.237	11.572	0.677	-0.527
-679.222	-85.120	-0.286	-0.091
-678.208	800.000	0.101	-0.416
-677.193	800.000	-0.093	-0.321
-676.178	77.646	-0.312	0.337
-675.164	-200.000	0.030	-0.463
-674.149	223.232	0.109	-0.178
-673.135	-200.000	-0.130	-0.580
-672.120	78.442	-0.562	-0.609
-671.105	-152.463	-0.716	0.052
-670.091	-92.383	0.301	-0.086
-669.076	49.379	0.275	-0.262
-668.062	-91.552	-0.549	-0.159
-667.047	4.756	-0.099	0.074
-666.032	173.095	0.233	-0.341
-665.018	32.727	-0.720	-0.631
-664.003	-200.000	0.036	0.841
-662.989	-200.000	-0.032	1.042
-661.974	-129.551	0.473	0.066
-660.959	-11.562	-0.668	0.445
-659.945	-200.000	-0.044	-0.477
-658.930	-200.000	-0.153	0.897
-657.916	-42.999	0.267	0.137
-656.901	-53.825	0.646	0.299
-655.886	-156.683	-0.490	-0.031
-654.872	468.481	-0.267	-0.608
-653.857	-117.813	1.151	0.209
-652.843	800.000	-0.192	0.770
-651.828	-200.000	-0.108	0.692
-650.814	74.355	-0.404	0.430
-649.799	-200.000	0.004	-0.833
-648.784	800.000	0.215	0.605
-647.770	95.991	-0.088	0.102
-646.755	110.034	0.348	0.424
-645.741	-200.000	0.076	0.443
-644.726	-68.765	-0.307	0.120
-643.711	-200.000	-0.097	-0.661
-642.697	-34.059	0.362	0.202
-641.682	-140.334	-0.602	-0.064
-640.668	-12.609	-0.727	0.480
-639.653	360.388	-0.072	0.147
-638.638	113.215	-0.403	0.495
-637.624	175.387	0.668	0.981
-636.609	-119.681	0.579	-0.101
-635.595	-164.366	0.268	0.012
-634.580	39.652	-0.543	-0.493
-633.565	532.735	0.056	-0.134
-632.551	3.041	-0.170	0.125
-631.536	-3.163	-0.613	-0.433
-630.522	-86.355	0.370	-0.115
-629.507	-200.000	0.040	0.484
-628.492	-44.023	0.068	0.034
-627.478	13.161	-0.270	0.212
-626.463	-200.000	0.102	0.975
-625.449	-58.628	-0.893	-0.392
-624.434	12.944	0.084	0.066
-623.419	-200.000	-0.006	0.495
-622.405	-8.080	-0.092	0.063
-621.390	-53.451	0.287	0.133
-620.376	62.662	0.254	-0.257
-619.361	-2.566	-0.434	-0.307
-618.346	800.000	0.200	-0.776
-617.332	187.963	-0.154	-0.233
-616.317	179.310	-0.129	0.191
-615.303	-177.523	-0.577	-0.014
-614.288	337.533	-0.134	0.265
-613.273	800.000	-0.027	-0.081
-612.259	49.657	0.310	-0.296
-611.244	800.000	0.107	0.421
-610.230	800.000	-0.139	-0.531
-609.215	-200.000	-0.032	0.238
-608.201	103.953	-0.268	-0.318
-607.186	174.475	-0.532	-0.778
-606.171	4.616	0.859	-0.638
-605.157	281.118	0.051	-0.092
-604.142	-158.575	-0.375	0.022
-603.128	-99.284	-0.649	0.166
-602.113	-60.320	0.208	0.089
-601.098	16.907	0.802	0.643
-600.084	21.724	0.548	0.451
-599.069	16.223	0.630	0.502
-598.055	-118.189	-0.837	-0.151
-597.040	-200.000	0.058	-0.499
-596.025	-89.337	-0.462	-0.138
-595.011	800.000	-0.164	0.622
-593.996	800.000	-0.169	-0.710
-592.982	800.000	-0.129	0.362
-591.967	-200.000	0.021	0.418
-590.952	-94.064	-0.533	-0.148
-589.938	-200.000	-0.044	-0.308
-588.923	-47.203	-0.183	-0.090
-587.909	245.362	-0.368	0.626
-586.894	-200.000	-0.033	0.179
-585.879	-23.052	0.793	-0.483
-584.865	-83.250	0.650	0.211
-583.850	800.000	-0.236	-0.675
-582.836	8.029	-0.478	-0.363
-581.821	-159.485	0.529	0.030
-580.806	28.158	-0.569	-0.486
-579.792	800.000	-0.085	0.263
-578.777	277.133	-0.219	-0.393
-577.763	-86.589	0.221	-0.069
-576.748	575.132	-0.325	-0.802
-575.733	114.846	-0.166	0.205
-574.719	193.186	-0.321	0.490
-573.704	-200.000	-0.095	-0.601
-572.690	131.215	-0.203	-0.263
-571.675	-9.102	-0.614	0.415
-570.661	130.846	0.162	0.210
-569.646	-82.295	0.241	-0.079
-568.631	800.000	0.197	-0.836
-567.617	-108.528	0.890	-0.193
-566.602	191.682	0.200	0.304
-565.588	800.000	-0.198	0.647
-564.573	-186.830	0.289	0.004
-563.558	-200.000	-0.073	-0.549
-562.544	-200.000	-0.057	0.422
-561.529	527.020	0.148	-0.353
-560.515	228.869	0.351	0.578
-559.500	-200.000	-0.123	-0.784
-558.485	7.720	0.610	-0.462
-557.471	-93.535	0.884	0.247
-556.456	-3.356	0.344	0.242
-555.442	-200.000	-0.020	0.143
-554.427	-200.000	-0.024	0.111
-553.412	-151.851	-0.517	-0.038
-552.398	132.243	-0.333	0.433
-551.383	-117.561	0.679	0.124
-550.369	-200.000	-0.065	-0.786
-549.354	-153.849	-1.480	-0.102
-548.339	52.566	0.429	0.413
-547.325	331.021	0.524	1.020
-546.310	-102.304	0.823	0.199
-545.296	-184.010	0.602	0.010
-544.281	187.851	-0.284	-0.427
-543.266	-200.000	-0.088	-0.522
-542.252	82.905	-0.596	-0.654
-541.237	-114.429	0.159	0.031
-540.223	-23.287	-0.740	0.449
-539.208	-33.602	-0.189	0.105
-538.193	-165.468	0.206	0.009
-537.179	26.884	-0.275	-0.233
-536.164	-127.898	0.290	0.042
-535.150	-200.000	0.047	0.322
-534.135	-194.124	-0.421	-0.003
-533.121	-74.676	-0.203	0.074
-532.106	-74.898	0.523	-0.189
-531.091	-95.874	-0.169	0.046
-530.077	-200.000	0.040	-0.350
-529.062	-200.000	0.121	-0.552
-528.048	-200.000	-0.021	-0.137
-527.033	-116.892	0.158	0.029
-526.018	-78.138	-0.932	-0.323
-525.004	797.422	-0.196	-0.544
-523.989	-200.000	-0.120	0.560
-522.975	25.573	0.374	0.314
-521.960	-139.498	-0.708	-0.076
-520.945	800.000	-0.339	-0.977
-519.931	7.726	0.397	-0.299
-518.916	-106.339	0.323	0.073
-517.902	-187.056	0.479	0.007
-516.887	42.937	-0.829	0.762
-515.872	-113.527	0.635	0.125
-514.858	-162.050	-0.593	0.030
-513.843	-200.000	-0.012	-0.201
-512.829	-53.050	-0.524	0.243
-511.814	60.391	0.591	0.590
-510.799	-4.822	-0.413	0.287
-509.785	-15.696	0.394	-0.253
-508.770	800.000	-0.099	-0.361
-507.756	-169.327	-0.500	0.019
-506.741	230.430	0.123	0.203
-505.726	-200.000	0.037	0.224
-504.712	-27.012	0.232	-0.137
-503.697	-87.258	0.185	0.057
-502.683	46.040	0.305	0.285
-501.668	-34.606	-0.477	0.263
-500.653	-200.000	0.057	0.300
-499.639	314.101	0.101	0.192
-498.624	-113.613	0.668	0.131
-497.610	365.414	0.293	0.594
-496.595	-26.481	-0.223	0.132
-495.581	800.000	0.155	-0.568
-494.566	-2.566	-0.148	0.104
-493.551	800.000	-0.172	0.556
-492.537	-197.931	-0.952	0.006
-491.522	-122.702	0.255	0.042
-490.508	-66.347	0.943	0.378
-489.493	233.709	0.274	-0.455
-488.478	-7.113	-0.196	0.134
-487.464	-200.000	0.080	-0.401
-486.449	800.000	0.113	0.325
-485.435	-200.000	-0.105	0.673
-484.420	55.805	-0.425	0.415
-483.405	93.778	0.312	0.356
-482.391	-41.023	0.637	-0.331
-481.376	-200.000	0.017	0.109
-480.362	800.000	-0.247	0.831
-479.347	-68.554	-0.681	-0.265
-478.332	-43.554	0.571	-0.290
-477.318	-191.388	0.396	-0.004
-476.303	-200.000	0.008	-0.412
-475.289	-28.287	-0.257	-0.149
-474.274	204.016	-0.113	0.177
-473.259	2.077	-0.356	-0.258
-472.245	-152.587	0.366	0.026
-471.230	19.734	-0.632	-0.512
-470.216	-133.559	0.644	0.081
-469.201	111.461	0.355	0.431
-468.186	155.168	0.373	-0.516
-467.172	93.308	0.217	-0.247
-466.157	238.558	0.338	-0.566
-465.143	-149.534	-0.686	0.055
-464.128	312.452	0.200	0.377
-463.113	279.820	0.154	0.276
-462.099	607.549	-0.033	0.084
-461.084	371.066	0.239	-0.488
-460.070	-121.597	-0.229	-0.038
-459.055	-19.030	0.284	0.178
-458.040	-100.297	-0.287	-0.072
-457.026	-172.553	-0.204	-0.006
-456.011	-23.487	-0.713	0.431
-454.997	272.790	0.215	-0.381
-453.982	11.778	0.287	0.221
-452.968	-200.000	-0.028	0.636
-451.953	219.360	0.431	-0.693
-450.938	-200.000	-0.019	-0.533
-449.924	169.142	-0.446	-0.639
-448.909	-132.293	0.537	-0.070
-447.895	83.553	-0.140	0.154
-446.880	-200.000	0.016	-0.201
-445.865	-84.513	-0.130	-0.041
-444.851	-200.000	0.012	0.516
-443.836	2.163	-0.049	-0.035
-442.822	559.079	0.192	0.466
-441.807	769.915	0.410	1.123
-440.792	78.041	0.410	-0.440
-439.778	-200.000	0.116	-0.781
-438.763	-112.661	0.592	0.118
-437.749	55.149	0.224	0.218
-436.734	305.450	-0.104	0.194
-435.719	-99.167	-0.677	0.172
-434.705	800.000	0.185	0.581
-433.690	800.000	0.081	-0.265
-432.676	80.761	-0.538	-0.583
-431.661	-200.000	0.027	1.070
-430.646	-33.625	-0.615	-0.341
-429.632	800.000	-0.148	0.495
-428.617	-23.435	-0.713	-0.430
-427.603	800.000	-0.067	-0.223
-426.588	-33.518	0.514	0.285
-425.573	66.980	-0.230	0.236
-424.559	800.000	0.157	0.570
-423.544	113.428	-0.299	-0.364
-422.530	-200.000	-0.041	-0.622
-421.515	343.009	0.424	-0.835
-420.500	237.301	0.149	0.248
-419.486	800.000	0.142	0.489
-418.471	48.117	0.786	0.738
-417.457	27.450	0.244	0.206
-416.442	66.566	0.273	0.279
-415.428	-136.261	-0.454	0.053
-414.413	69.949	-0.223	-0.231
-413.398	-200.000	-0.049	0.614
-412.384	65.723	-0.374	-0.380
-411.369	-107.465	0.066	-0.015
-410.355	107.462	-0.373	-0.445
-409.340	-171.034	0.572	0.020
-408.325	12.365	-0.189	-0.146
-407.311	800.000	-0.033	0.093
-406.296	506.417	-0.153	-0.356
-405.282	637.868	-0.160	0.407
-404.267	23.364	-0.569	0.470
-403.252	-159.931	-0.501	-0.028
-402.238	-99.533	-0.495	-0.125
-401.223	272.939	-0.571	-1.012
-400.209	-107.172	-0.427	0.095
-399.194	183.330	-0.097	0.144
-398.179	249.165	0.238	0.405
-397.165	-108.237	0.438	-0.095
-396.150	800.000	-0.084	0.239
-395.136	-165.439	-0.473	0.021
-394.121	210.176	-0.320	0.505
-393.106	-46.214	-0.490	-0.242
-392.092	-51.263	-0.314	0.147
-391.077	-58.993	-0.138	0.060
-390.063	-200.000	0.372	-0.001
-389.048	9.253	0.532	0.403
-388.033	147.958	0.140	0.189
-387.019	190.971	-0.387	-0.583
-386.004	-200.000	-0.079	0.760
-384.990	-115.559	0.339	-0.064
-383.975	-68.172	0.550	0.215
-382.960	52.890	0.459	-0.440
-381.946	-52.684	-0.227	0.105
-380.931	-25.944	-0.458	0.270
-379.917	20.953	-0.492	-0.400
-378.902	-182.615	-0.441	0.008
-377.888	-34.545	0.287	-0.157
-376.873	-200.000	-0.066	0.580
-375.858	-200.000	0.056	0.396
-374.844	13.182	-0.738	-0.573
-373.829	200.693	-0.277	0.426
-372.815	339.000	-0.325	0.634
-371.800	-121.613	0.758	-0.126
-370.785	342.240	0.253	-0.497
-369.771	-188.000	0.768	-0.010
-368.756	-47.612	0.635	0.309
-367.742	40.485	0.586	-0.529
-366.727	-16.491	0.494	0.314
-365.712	35.922	0.286	-0.252
-364.698	271.099	0.275	0.485
-363.683	269.997	-0.228	-0.401
-362.669	-200.000	0.104	-0.513
-361.654	-58.045	-0.540	0.236
-360.639	800.000	-0.176	-0.725
-359.625	-158.302	0.228	0.013
-358.610	-110.834	0.212	-0.044
-357.596	159.773	-0.344	0.480
-356.581	34.379	-0.493	0.431
-355.566	-64.062	-0.598	-0.244
-354.552	-200.000	-0.125	-0.584
-353.537	-92.207	0.355	0.100
-352.523	-152.568	0.375	-0.027
-351.508	218.210	0.200	0.320
-350.493	127.458	0.032	-0.041
-349.479	284.938	0.167	0.301
-348.464	800.000	-0.096	0.364
-347.450	-84.071	-0.910	0.289
-346.435	-70.857	0.161	0.061
-345.420	-96.263	-0.553	-0.147
-344.406	800.000	-0.085	-0.368
-343.391	-200.000	0.015	-0.450
-342.377	278.996	-0.240	-0.428
-341.362	209.601	0.099	0.155
-340.348	-26.139	0.422	-0.248
-339.333	800.000	-0.125	-0.430
-338.318	783.321	-0.108	-0.297
-337.304	32.088	-0.212	-0.183
-336.289	-11.748	0.299	-0.196
-335.275	-200.000	-0.039	-0.668
-334.260	218.785	0.411	-0.657
-333.245	156.373	0.506	-0.699
-332.231	-10.463	0.470	-0.311
-331.216	-200.000	-0.886	-0.003
-330.202	-200.000	-0.038	0.599
-329.187	669.253	-0.113	-0.292
-328.172	-129.243	-0.626	-0.087
-327.158	-106.796	0.152	-0.034
-326.143	719.353	-0.062	-0.166
-325.129	31.667	-0.440	-0.378
-324.114	232.357	-0.224	0.368
-323.099	152.606	0.505	-0.690
-322.085	51.496	-0.047	-0.045
-321.070	125.826	-0.116	0.146
-320.056	-63.098	1.004	0.415
-319.041	800.000	-0.069	-0.299
-318.026	-200.000	0.164	1.109
-317.012	-32.965	-0.760	0.422
-315.997	-103.671	0.275	0.064
-314.983	-120.959	0.353	0.059
-313.968	109.962	-0.611	0.733
-312.953	-126.227	0.578	-0.086
-311.939	-69.054	-0.436	0.168
-310.924	627.997	0.152	0.385
-309.910	-110.786	-0.344	-0.071
-308.895	-200.000	0.077	0.368
-307.880	800.000	0.127	-0.420
-306.866	314.731	-0.196	0.368
-305.851	-65.073	-1.101	-0.444
-304.837	35.931	-0.474	-0.417
-303.822	-111.901	0.146	0.030
-302.807	-62.921	0.280	-0.116
-301.793	-93.096	0.304	-0.085
-300.778	-200.000	-0.006	0.363
-299.764	800.000	-0.104	-0.381
-298.749	-14.871	-0.666	-0.427
-297.735	-77.767	-1.261	-0.436
-296.720	10.721	-0.735	-0.561
-295.705	800.000	-0.221	-0.687
-294.691	373.326	0.316	0.641
-293.676	140.872	-0.446	-0.589
-292.662	-131.378	0.295	-0.039
-291.647	800.000	-0.103	0.433
-290.632	113.813	0.568	0.689
-289.618	-200.000	0.045	0.394
-288.603	-85.038	0.461	-0.144
-287.589	-120.642	-0.539	0.091
-286.574	111.173	0.406	-0.489
-285.559	238.241	-0.334	-0.553
-284.545	-8.636	-0.473	-0.317
-283.530	-187.788	-0.132	0.002
-282.516	800.000	0.121	0.347
-281.501	-200.000	0.033	0.263
-280.486	494.416	-0.317	-0.726
-279.472	-129.515	-0.453	0.063
-278.457	-42.775	-0.221	0.112
-277.443	-200.000	-0.018	-1.026
-276.428	255.009	-0.107	-0.183
-275.413	450.915	0.332	0.732
-274.399	-11.869	0.149	-0.098
-273.384	489.386	-0.434	-0.990
-272.370	-200.000	-0.068	-0.871
-271.355	-200.000	0.008	0.216
-270.340	-200.000	-0.147	0.798
-269.326	21.013	0.656	-0.531
-268.311	-8.514	0.043	-0.029
-267.297	-200.000	-0.030	0.142
-266.282	-43.563	0.906	0.456
-265.267	-200.000	0.036	0.367
-264.253	-91.539	0.654	0.186
-263.238	-122.534	0.583	-0.095
-262.224	361.409	0.262	0.523
-261.209	-12.733	0.456	-0.296
-260.195	-200.000	-0.006	0.493
-259.180	144.127	-0.401	0.534
-258.165	166.733	0.445	-0.629
-257.151	-60.539	-0.605	0.256
-256.136	146.622	0.187	0.251
-255.122	-30.831	-0.502	0.283
-254.107	-200.000	-0.001	0.670
-253.092	37.869	0.292	0.259
-252.078	-186.032	-0.634	0.009
-251.063	794.904	-0.248	-0.682
-250.049	-129.204	-0.595	-0.083
-249.034	-85.557	0.135	0.042
-248.019	-200.000	0.051	0.439
-247.005	-200.000	-0.012	-0.417
-245.990	-200.000	0.196	0.856
-244.976	64.784	0.350	-0.352
-243.961	-200.000	0.021	0.341
-242.946	800.000	0.093	0.325
-241.932	-200.000	-0.002	-0.232
-240.917	-200.000	-0.040	0.942
-239.903	-146.635	1.325	-0.115
-238.888	-71.101	-0.765	0.287
-237.873	-200.000	0.072	-0.504
-236.859	648.590	-0.099	-0.253
-235.844	103.075	0.415	-0.485
-234.830	43.152	0.426	0.387
-233.815	188.810	0.281	0.419
-232.800	73.508	-0.356	-0.371
-231.786	97.519	-0.317	0.363
-230.771	121.585	-0.209	-0.260
-229.757	-200.000	0.061	0.378
-228.742	-64.508	0.823	0.333
-227.727	-200.000	0.020	0.189
-226.713	59.631	0.321	-0.316
-225.698	156.990	-0.157	-0.217
-224.684	138.192	0.339	-0.443
-223.669	-108.875	-0.596	0.127
-222.655	44.703	0.391	0.359
-221.640	-140.589	-1.040	-0.108
-220.625	29.732	-0.339	-0.287
-219.611	121.259	0.179	0.222
-218.596	-57.095	-0.187	-0.082
-217.582	227.125	-0.087	-0.141
-216.567	12.809	0.189	0.146
-215.552	57.048	0.610	-0.593
-214.538	800.000	-0.137	-0.491
-213.523	-54.512	0.385	0.174
-212.509	49.244	0.444	0.416
-211.494	100.462	0.414	-0.478
-210.479	303.881	-0.104	0.191
-209.465	204.386	0.320	-0.495
-208.450	-70.691	-0.914	-0.344
-207.436	-200.000	0.040	-0.481
-206.421	-85.299	0.588	-0.183
-205.406	-23.295	0.829	-0.496
-204.392	3.485	0.297	-0.215
-203.377	-63.022	-0.135	0.056
-202.363	-184.359	0.419	0.007
-201.348	-115.336	-0.343	-0.065
-200.333	-200.000	0.012	0.638
-199.319	254.104	0.221	-0.377
-198.304	800.000	-0.058	-0.229
-197.290	-200.000	-0.130	-0.579
-196.275	800.000	0.150	-0.531
-195.260	-200.000	-0.005	0.532
-194.246	72.514	0.810	0.841
-193.231	-63.926	-0.807	-0.328
-192.217	398.358	0.333	-0.693
-191.202	143.142	0.359	0.476
-190.187	-62.402	0.355	-0.147
-189.173	248.177	0.488	-0.822
-188.158	105.410	-0.168	-0.197
-187.144	-83.810	1.242	-0.394
-186.129	-178.241	-0.464	0.011
-185.114	-42.063	0.219	0.111
-184.100	-107.041	-0.815	-0.179
-183.085	-137.287	0.230	0.026
-182.071	-10.718	-1.019	0.671
-181.056	-200.000	-0.021	0.120
-180.042	-200.000	0.054	-0.308
-179.027	-200.000	-0.038	0.257
-178.012	-79.397	0.345	-0.116
-176.998	127.387	-0.245	-0.309
-175.983	-123.304	0.724	0.115
-174.969	800.000	0.204	-0.732
-173.954	800.000	0.061	0.185
-172.939	-44.447	0.405	0.201
-171.925	45.364	-0.208	-0.191
-170.910	800.000	-0.254	1.081
-169.896	-176.136	0.393	-0.010
-168.881	-200.000	-0.011	0.344
-167.866	-92.352	0.881	0.247
-166.852	23.824	0.584	0.478
-165.837	85.821	0.154	-0.168
-164.823	-94.918	-0.902	0.243
-163.808	800.000	0.303	0.837
-162.793	219.319	-0.185	-0.294
-161.779	370.199	0.162	0.327
-160.764	-200.000	0.007	0.733
-159.750	800.000	0.265	0.984
-158.735	-74.282	-0.625	-0.225
-157.720	641.988	0.266	0.673
-156.706	181.387	-0.563	-0.823
-155.691	-200.000	0.118	-0.881
-154.677	-51.832	1.041	0.481
-153.662	-31.272	0.072	-0.040
-152.647	7.621	-0.507	-0.377
-151.633	158.885	-0.114	-0.157
-150.618	-98.371	-0.269	-0.069
-149.604	-56.941	-0.331	-0.145
-148.589	30.772	-0.184	0.157
-147.574	20.258	-0.169	0.136
-146.560	324.829	-0.701	-1.330
-145.545	14.183	0.646	-0.500
-144.531	108.829	-0.358	-0.425
-143.516	-0.040	-0.760	-0.538
-142.502	40.613	0.193	-0.173
-141.487	467.207	0.314	-0.699
-140.472	-200.000	-0.067	0.642
-139.458	264.640	0.257	-0.444
-138.443	-170.273	0.231	0.008
-137.429	16.213	0.650	0.509
-136.414	743.116	0.116	-0.308
-135.399	-56.005	-0.195	-0.086
-134.385	-38.733	-0.376	-0.197
-133.370	-200.000	-0.117	-0.602
-132.356	-144.922	0.595	-0.054
-131.341	-90.725	-0.388	-0.111
-130.326	82.876	-0.658	0.710
-129.312	-36.859	-0.365	0.194
-128.297	303.820	0.131	-0.242
-127.283	-16.551	0.604	0.380
-126.268	-85.403	-0.337	0.104
-125.253	-50.313	0.595	-0.279
-124.239	141.546	0.053	0.069
-123.224	58.407	0.051	-0.049
-122.210	-77.590	-0.075	-0.026
-121.195	-84.836	0.587	0.183
-120.180	347.754	0.039	0.077
-119.166	-194.536	-0.543	0.004
-118.151	51.602	0.137	-0.130
-117.137	-56.269	0.886	0.391
-116.122	141.888	-0.600	-0.790
-115.107	-157.382	-0.414	0.025
-114.093	-187.601	0.335	0.004
-113.078	800.000	0.122	0.336
-112.064	78.217	0.212	-0.224
-111.049	130.617	-0.288	-0.367
-110.034	-106.018	0.919	0.205
-109.020	344.086	-0.062	0.121
-108.005	246.210	-0.150	-0.250
-106.991	109.862	-0.441	-0.525
-105.976	800.000	0.228	-0.756
-104.962	14.263	-0.243	-0.188
-103.947	-112.751	-0.255	-0.050
-102.932	234.606	-0.325	0.532
-101.918	800.000	-0.168	-0.476
-100.903	-200.000	0.115	0.596
-99.889	24.252	-0.661	0.542
-98.874	534.967	-0.034	-0.081
-97.859	116.920	0.347	0.423
-96.845	-50.803	-0.639	-0.298
-95.830	-200.000	-0.062	0.585
-94.816	21.917	-0.181	0.146
-93.801	11.974	-0.586	0.447
-92.786	-82.610	0.553	0.178
-91.772	352.379	-0.625	1.228
-90.757	-200.000	-0.028	-0.423
-89.743	6.043	-0.369	0.271
-88.728	-106.613	-0.512	-0.113
-87.713	232.099	0.200	-0.326
-86.699	-87.533	0.901	0.270
-85.684	145.342	-0.478	-0.635
-84.670	-51.544	0.276	-0.128
-83.655	57.451	0.356	0.345
-82.640	50.579	-0.417	-0.391
-81.626	82.094	0.212	-0.228
-80.611	-33.449	-0.580	-0.318
-79.597	800.000	-0.209	0.651
-78.582	-70.617	-0.724	-0.271
-77.567	29.407	-0.457	0.384
-76.553	-21.288	0.405	0.245
-75.538	-112.393	0.491	-0.097
-74.524	-200.000	-0.094	0.494
-73.509	75.212	0.121	0.126
-72.494	-0.023	-0.490	-0.346
-71.480	284.326	0.330	0.588
-70.465	-46.520	-0.418	0.203
-69.451	800.000	0.218	0.803
-68.436	273.121	-0.470	0.822
-67.422	-200.000	0.002	-0.185
-66.407	-25.306	0.592	-0.347
-65.392	16.223	-0.389	0.304
-64.378	-200.000	-0.032	0.303
-63.363	-42.380	0.139	0.070
-62.349	-86.021	-0.490	0.150
-61.334	26.028	-0.967	-0.799
-60.319	-200.000	0.117	0.954
-59.305	305.820	-0.592	-1.090
-58.290	24.669	1.295	1.062
-57.276	100.784	1.249	1.438
-56.261	-200.000	95.347	566.265
-55.246	627.702	1369.859	3425.291
-54.232	195.752	2550.201	3838.898
-53.217	108.095	2290.149	2702.762
-52.203	39.734	2050.252	1820.665
-51.188	35.062	1964.902	1703.358
-50.173	33.533	1947.580	1674.782
-49.159	49.181	1997.901	1858.369
-48.144	49.795	2017.352	1881.883
-47.130	35.568	1978.973	1719.815
-46.115	33.499	1966.870	1690.791
-45.100	33.150	1965.600	1686.523
-44.086	33.144	1963.269	1684.402
-43.071	33.235	1959.009	1681.492
-42.057	33.078	1957.752	1678.948
-41.042	33.329	1954.906	1678.665
-40.027	33.249	1953.915	1677.044
-39.013	33.294	1951.565	1675.357
-37.998	33.393	1949.665	1674.539
-36.984	33.379	1948.548	1673.382
-35.969	33.485	1945.439	1671.580
-34.954	33.340	1943.570	1668.631
-33.940	33.119	1944.075	1667.048
-32.925	33.240	1941.364	1665.723
-31.911	33.328	1939.750	1665.053
-30.896	33.404	1937.892	1664.060
-29.881	33.442	1936.446	1663.079
-28.867	33.448	1934.568	1661.460
-27.852	33.323	1933.624	1659.484
-26.838	33.327	1931.792	1657.877
-25.823	33.315	1929.100	1655.404
-24.809	33.437	1927.816	1655.297
-23.794	33.237	1927.575	1653.278
-22.779	33.475	1925.438	1653.454
-21.765	33.414	1922.362	1650.216
-20.750	33.458	1920.931	1649.304
-19.736	33.451	1919.666	1648.099
-18.721	33.353	1918.273	1645.986
-17.706	33.323	1916.730	1644.334
-16.692	33.511	1914.241	1643.759
-15.677	33.525	1913.319	1643.030
-14.663	33.528	1911.045	1641.032
-13.648	33.285	1911.531	1639.284
-12.633	33.478	1910.220	1639.760
-11.619	33.395	1908.847	1637.804
-10.604	33.345	1907.475	1636.124
-9.590	33.418	1905.352	1634.871
-8.575	33.397	1903.467	1633.008
-7.560	33.450	1903.029	1633.027
-6.546	33.262	1902.167	1630.599
-5.531	33.426	1899.470	1629.634
-4.517	33.424	1899.198	1629.320
-3.502	33.572	1898.068	1629.556
-2.487	33.454	1896.320	1626.978
-1.473	33.463	1895.706	1626.460
-0.458	33.518	1890.760	1622.627
0.556	34.228	1871.137	1592.790
1.571	29.985	1851.696	1540.892
2.586	25.664	1873.465	1522.399
3.600	24.612	1908.277	1541.483
4.615	24.004	1901.828	1530.908
5.629	18.341	1802.237	1404.307
6.644	8.446	1682.991	1235.131
7.659	3.307	1645.406	1168.533
8.673	2.834	1641.702	1162.219
9.688	3.070	1639.912	1162.629
10.702	2.978	1639.824	1161.772
11.717	2.758	1636.309	1157.520
12.731	3.499	1635.325	1162.306
13.746	9.770	1651.595	1221.374
14.761	20.078	1672.723	1315.548
15.775	25.177	1682.621	1362.044
16.790	25.858	1682.896	1367.321
17.804	26.009	1683.379	1368.739
18.819	26.165	1681.504	1368.271
19.834	26.312	1681.309	1369.111
20.848	26.452	1680.929	1369.736
21.863	26.605	1679.290	1369.435
22.877	26.637	1679.234	1369.513
23.892	26.488	1679.688	1368.636
24.907	26.679	1677.043	1367.799
25.921	26.552	1677.290	1366.924
26.936	26.547	1675.079	1364.962
27.950	26.581	1674.424	1364.565
28.965	26.627	1673.051	1363.671
29.980	26.618	1672.882	1363.345
30.994	26.713	1670.699	1362.156
32.009	26.609	1670.359	1360.979
33.023	26.438	1669.774	1359.098
34.038	26.572	1668.746	1359.149
35.053	26.726	1666.072	1358.005
36.067	26.397	1666.727	1355.950
37.082	26.689	1665.675	1357.159
38.096	26.535	1665.944	1356.106
39.111	26.807	1662.877	1355.525
40.126	26.680	1664.082	1355.438
41.140	26.838	1661.779	1354.623
42.155	26.732	1660.680	1352.809
43.169	26.471	1659.833	1350.055
44.184	26.513	1659.920	1350.324
45.199	26.659	1658.212	1349.902
46.213	26.610	1656.536	1348.048
47.228	26.615	1655.653	1347.250
48.242	26.648	1655.091	1346.919
49.257	26.679	1652.889	1345.240
50.271	26.605	1653.383	1344.971
51.286	26.745	1650.792	1343.784
52.301	26.663	1649.450	1341.961
53.315	26.732	1648.408	1341.510
54.330	26.635	1647.682	1340.085
55.344	26.747	1645.422	1338.951
56.359	26.600	1644.569	1337.053
57.374	26.654	1643.445	1336.423
58.388	26.937	1640.890	1336.312
59.403	26.676	1641.690	1334.920
60.417	26.887	1640.283	1335.211
61.432	26.952	1638.027	1333.733
62.447	26.850	1637.983	1332.829
63.461	26.787	1637.026	1331.471
64.476	26.787	1636.561	1330.972
65.490	26.749	1635.853	1329.999
66.505	26.668	1634.697	1328.349
67.520	26.742	1633.504	1327.806
68.534	26.509	1632.508	1325.172
69.549	26.891	1630.761	1326.428
70.563	26.973	1629.978	1326.273
71.578	26.817	1628.433	1323.761
72.593	26.765	1627.529	1322.534
73.607	26.972	1626.786	1323.318
74.622	26.749	1627.556	1322.202
75.636	26.832	1625.210	1320.786
76.651	27.164	1623.459	1321.656
77.666	26.682	1624.898	1319.204
78.680	26.654	1622.978	1317.322
79.695	26.904	1622.419	1318.569
80.709	26.984	1621.156	1318.013
81.724	26.951	1620.193	1316.871
82.739	26.833	1620.083	1315.808
83.753	26.991	1618.668	1315.689
84.768	26.903	1617.282	1313.805
85.782	26.773	1618.490	1313.731
86.797	26.931	1615.613	1312.422
87.812	26.731	1615.466	1310.742
88.826	27.074	1613.845	1311.790
89.841	26.904	1612.852	1309.641
90.855	26.935	1612.300	1309.296
91.870	26.852	1610.973	1307.504
92.884	27.059	1609.896	1308.004
93.899	26.762	1610.696	1306.399
94.914	26.793	1608.410	1304.651
95.928	26.913	1606.365	1303.742
96.943	26.921	1605.202	1302.738
97.957	26.994	1603.219	1301.535
98.972	26.914	1603.625	1301.183
99.987	27.069	1601.091	1300.118
101.001	27.011	1598.797	1297.725
102.016	26.852	1598.676	1296.375
103.030	26.783	1597.324	1294.674
104.045	26.955	1597.164	1295.652
105.060	27.099	1594.445	1294.358
106.074	27.016	1593.288	1292.715
107.089	27.011	1592.873	1292.229
108.103	26.858	1590.872	1289.405
109.118	26.946	1590.109	1289.295
110.133	27.066	1589.339	1289.415
111.147	26.860	1588.815	1287.407
112.162	27.165	1586.317	1287.430
113.176	27.125	1584.984	1285.951
114.191	27.382	1582.897	1285.966
115.206	26.985	1583.539	1283.567
116.220	26.844	1583.159	1282.149
117.235	27.139	1580.808	1282.208
118.249	27.049	1580.022	1280.828
119.264	27.096	1578.799	1280.053
120.279	27.101	1577.937	1279.277
121.293	27.080	1578.028	1279.089
122.308	27.084	1575.547	1276.989
123.322	27.101	1573.761	1275.553
124.337	27.270	1572.211	1275.368
125.352	27.347	1570.922	1274.747
126.366	27.052	1571.328	1272.895
127.381	27.040	1570.187	1271.773
128.395	27.264	1568.408	1271.787
129.410	27.408	1568.832	1273.028
130.424	27.123	1566.661	1269.165
131.439	27.335	1565.837	1269.859
132.454	27.099	1565.017	1267.438
133.468	27.369	1562.735	1267.361
134.483	27.296	1562.060	1266.192
135.497	27.224	1561.107	1264.806
136.512	27.321	1559.442	1264.018
137.527	27.338	1557.769	1262.672
138.541	27.167	1557.373	1261.053
139.556	27.259	1556.722	1261.051
140.570	27.301	1554.559	1259.475
141.585	27.235	1553.748	1258.248
142.600	27.130	1553.668	1257.351
143.614	26.996	1551.665	1254.692
144.629	27.064	1551.192	1254.667
145.643	27.236	1550.362	1255.073
146.658	27.268	1547.988	1253.258
147.673	27.225	1547.210	1252.221
148.687	27.169	1546.405	1251.071
149.702	27.289	1544.660	1250.380
150.716	27.093	1544.357	1248.674
151.731	27.279	1542.977	1248.728
152.746	27.261	1542.267	1247.914
153.760	27.337	1540.033	1246.516
154.775	27.101	1539.724	1244.542
155.789	27.376	1538.274	1245.142
156.804	27.540	1536.274	1244.533
157.819	27.296	1535.581	1242.194
158.833	27.293	1534.302	1241.028
159.848	27.330	1534.698	1241.490
160.862	27.343	1533.729	1240.690
161.877	27.520	1531.527	1239.999
162.892	27.346	1530.604	1237.960
163.906	27.546	1530.368	1239.019
164.921	27.380	1529.309	1236.927
165.935	27.467	1528.302	1236.595
166.950	27.527	1528.245	1236.846
167.964	27.551	1526.366	1235.374
168.979	27.536	1525.803	1234.708
169.994	27.576	1525.500	1234.624
171.008	27.576	1523.795	1233.138
172.023	27.598	1522.220	1231.905
173.037	27.555	1521.372	1230.818
174.052	27.408	1520.833	1229.279
175.067	27.638	1520.613	1230.547
176.081	27.709	1518.225	1228.980
177.096	27.816	1517.232	1228.792
178.110	27.464	1516.709	1225.888
179.125	27.552	1515.028	1225.014
180.140	27.573	1514.642	1224.732
181.154	27.757	1513.789	1225.170
182.169	27.534	1513.247	1223.126
183.183	27.364	1512.036	1220.899
184.198	27.589	1510.849	1221.345
185.213	27.538	1510.074	1220.265
186.227	27.553	1509.486	1219.786
187.242	27.854	1508.425	1220.829
188.256	27.633	1507.027	1218.115
189.271	27.472	1507.484	1217.303
190.286	27.716	1505.498	1217.215
191.300	27.725	1504.548	1216.400
192.315	27.723	1505.007	1216.648
193.329	27.912	1503.007	1216.186
194.344	27.559	1502.947	1213.677
195.359	27.924	1501.502	1214.833
196.373	27.588	1502.055	1212.940
197.388	27.563	1501.030	1211.835
198.402	27.602	1499.421	1210.690
199.417	27.611	1499.100	1210.379
200.432	27.677	1497.417	1209.353
201.446	27.623	1497.970	1209.336
202.461	27.957	1495.039	1209.074
203.475	27.713	1493.946	1206.468
204.490	27.763	1494.998	1207.543
205.504	27.868	1493.160	1206.644
206.519	27.833	1492.899	1206.092
207.534	27.749	1491.952	1204.671
208.548	27.908	1490.890	1204.751
209.563	27.974	1489.942	1204.316
210.577	27.743	1489.546	1202.365
211.592	28.013	1488.285	1203.022
212.607	27.742	1488.476	1201.286
213.621	27.804	1486.816	1200.243
214.636	27.880	1485.948	1199.938
215.650	28.047	1484.715	1199.932
216.665	27.952	1484.866	1199.322
217.680	28.117	1483.058	1198.843
218.694	28.212	1482.300	1198.741
219.709	27.846	1482.117	1196.089
220.723	28.155	1481.383	1197.414
221.738	28.003	1481.125	1196.105
222.753	27.927	1480.141	1194.708
223.767	27.800	1479.630	1193.362
224.782	28.001	1477.899	1193.172
225.796	27.928	1477.291	1192.097
226.811	28.059	1475.466	1191.373
227.826	27.759	1476.159	1189.870
228.840	27.998	1475.223	1190.568
229.855	28.138	1474.059	1190.434
230.869	27.975	1473.686	1188.970
231.884	28.002	1471.879	1187.582
232.899	27.979	1470.374	1186.115
233.913	28.079	1470.711	1186.927
234.928	28.095	1468.854	1185.428
235.942	28.098	1468.739	1185.248
236.957	27.857	1468.272	1183.211
237.972	28.094	1466.743	1183.407
238.986	28.031	1464.903	1181.408
240.001	28.128	1464.403	1181.526
241.015	28.162	1463.482	1180.900
242.030	27.932	1462.858	1178.806
243.045	28.150	1462.017	1179.428
244.059	28.406	1460.556	1179.800
245.074	28.304	1459.929	1178.529
246.088	28.409	1458.702	1178.110
247.103	27.954	1460.868	1176.824
248.117	28.283	1458.498	1176.924
249.132	28.364	1457.845	1176.819
250.147	28.148	1456.662	1174.368
251.161	28.287	1456.077	1174.686
252.176	28.265	1455.959	1174.344
253.190	28.531	1454.479	1174.755
254.205	28.437	1454.138	1173.775
255.220	28.364	1452.827	1172.142
256.234	28.508	1452.129	1172.396
257.249	28.362	1451.575	1170.911
258.263	28.378	1450.717	1170.219
259.278	28.391	1449.738	1169.409
260.293	28.347	1448.931	1168.373
261.307	28.418	1448.680	1168.522
262.322	28.446	1448.056	1168.090
263.336	28.381	1447.548	1167.164
264.351	28.410	1447.042	1166.838
265.366	28.497	1445.020	1165.654
266.380	28.616	1444.274	1165.709
267.395	28.223	1444.151	1163.007
268.409	28.567	1442.653	1163.884
269.424	28.688	1441.322	1163.472
270.439	28.420	1440.672	1161.147
271.453	28.474	1439.127	1160.141
272.468	28.621	1438.932	1160.811
273.482	28.198	1439.257	1158.294
274.497	28.444	1437.988	1158.723
275.512	28.567	1436.543	1158.232
276.526	28.534	1436.396	1157.808
277.541	28.791	1434.912	1158.125
278.555	28.697	1434.195	1156.855
279.570	28.865	1432.896	1156.764
280.585	28.433	1433.243	1154.219
281.599	28.361	1433.261	1153.676
282.614	28.602	1431.811	1153.922
283.628	28.620	1429.836	1152.341
284.643	28.659	1429.239	1152.004
285.657	28.684	1427.686	1150.810
286.672	28.870	1426.869	1151.211
287.687	28.830	1426.538	1150.596
288.701	28.689	1424.986	1148.357
289.716	28.517	1425.250	1147.392
290.730	28.723	1425.121	1148.476
291.745	28.748	1423.678	1147.371
292.760	28.609	1423.923	1146.596
293.774	28.853	1421.621	1146.162
294.789	28.731	1420.998	1144.799
295.803	28.856	1420.652	1145.197
296.818	28.865	1420.539	1145.062
297.833	28.858	1419.086	1143.746
298.847	28.929	1418.047	1143.250
299.862	28.874	1417.955	1142.732
300.876	28.858	1417.034	1141.790
301.891	28.956	1415.033	1140.683
302.906	28.975	1415.217	1140.850
303.920	28.878	1415.367	1140.266
304.935	28.984	1413.910	1139.644
305.949	28.983	1413.021	1138.825
306.964	28.842	1413.038	1137.866
307.979	28.827	1411.730	1136.616
308.993	28.880	1411.371	1136.557
310.008	28.869	1410.308	1135.530
311.022	29.088	1409.154	1135.852
312.037	28.871	1408.461	1133.855
313.052	29.107	1406.996	1134.032
314.066	29.024	1406.196	1132.775
315.081	29.304	1405.364	1133.724
316.095	28.960	1404.266	1130.626
317.110	29.025	1403.775	1130.531
318.125	29.159	1402.842	1130.499
319.139	29.170	1401.895	1129.704
320.154	29.366	1400.165	1129.411
321.168	28.889	1400.898	1126.976
322.183	29.063	1399.101	1126.499
323.197	29.153	1398.509	1126.473
324.212	29.070	1398.093	1125.532
325.227	29.353	1395.668	1125.206
326.241	29.267	1395.776	1124.667
327.256	29.237	1395.140	1123.873
328.270	29.135	1394.940	1122.993
329.285	29.151	1394.244	1122.427
330.300	29.401	1392.700	1122.609
331.314	29.262	1391.903	1121.020
332.329	29.098	1391.934	1119.949
333.343	29.002	1390.770	1118.329
334.358	29.135	1390.203	1118.582
335.373	29.297	1388.262	1117.907
336.387	29.299	1388.834	1118.277
337.402	29.411	1388.805	1118.836
338.416	29.254	1388.376	1117.436
339.431	29.452	1385.898	1116.546
340.446	29.238	1386.270	1115.452
341.460	29.194	1385.799	1114.707
342.475	29.288	1384.823	1114.392
343.489	29.444	1383.487	1114.158
344.504	29.566	1382.557	1114.044
345.519	29.384	1380.777	1111.421
346.533	29.712	1379.488	1112.255
347.548	29.476	1379.191	1110.500
348.562	29.496	1378.130	1109.663
349.577	29.325	1378.432	1108.784
350.592	29.423	1378.202	1109.091
351.606	29.651	1376.333	1108.858
352.621	29.278	1376.032	1106.275
353.635	29.182	1375.624	1105.276
354.650	29.451	1373.466	1105.053
355.665	29.438	1373.331	1104.772
356.679	29.311	1371.833	1102.708
357.694	29.503	1370.418	1102.621
358.708	29.370	1370.150	1101.512
359.723	29.335	1369.947	1101.045
360.738	29.312	1367.231	1098.622
361.752	29.076	1367.941	1097.692
362.767	29.383	1365.837	1097.734
363.781	29.118	1365.290	1095.620
364.796	29.193	1364.143	1095.047
365.810	29.559	1362.038	1095.434
366.825	29.373	1362.099	1094.284
367.840	29.503	1362.013	1094.887
368.854	29.396	1361.901	1094.067
369.869	29.192	1361.826	1092.696
370.883	29.226	1361.024	1092.157
371.898	29.216	1359.177	1090.520
372.913	29.218	1359.035	1090.321
373.927	29.132	1358.778	1089.511
374.942	29.362	1356.755	1089.149
375.956	29.253	1356.606	1088.289
376.971	29.111	1355.167	1086.203
377.986	29.234	1355.371	1086.994
379.000	29.089	1354.174	1085.085
380.015	29.086	1352.712	1083.800
381.029	29.006	1352.455	1083.029
382.044	29.149	1351.723	1083.187
383.059	29.247	1350.147	1082.403
384.073	29.092	1349.769	1081.096
385.088	29.249	1349.731	1081.889
386.102	29.225	1349.039	1081.099
387.117	29.110	1348.453	1079.857
388.132	29.104	1347.460	1078.933
389.146	29.090	1346.995	1078.383
390.161	28.863	1347.089	1077.032
391.175	29.308	1344.793	1077.702
392.190	29.229	1344.292	1076.745
393.205	28.769	1343.716	1073.504
394.219	29.214	1342.372	1074.929
395.234	28.925	1341.725	1072.634
396.248	29.082	1339.715	1071.842
397.263	28.960	1340.319	1071.521
398.278	29.202	1338.006	1070.987
399.292	29.029	1337.552	1069.520
400.307	28.948	1336.622	1068.215
401.321	29.082	1335.205	1067.766
402.336	28.966	1334.656	1066.558
403.350	28.938	1334.402	1066.097
404.365	28.692	1333.060	1063.503
405.380	28.883	1332.071	1063.726
406.394	29.132	1330.323	1063.677
407.409	28.866	1330.799	1062.424
408.423	28.790	1330.495	1061.652
409.438	28.867	1329.891	1061.521
410.453	28.818	1329.450	1060.789
411.467	28.884	1326.752	1058.924
412.482	28.909	1326.838	1059.041
413.496	28.815	1325.642	1057.454
414.511	29.246	1324.504	1058.927
415.526	29.141	1324.523	1058.246
416.540	28.883	1323.618	1055.951
417.555	28.858	1323.211	1055.387
418.569	28.911	1322.604	1055.113
419.584	28.842	1321.628	1053.846
420.599	28.724	1321.380	1052.879
421.613	141.871	1437.183	1792.472
422.628	137.912	1454.031	1792.564
