DTS Sentinel unit serial number:	SN413079Multiplexer serial number:	ORYXHardware model number:	OX4-SRSoftware version number:	ORYX F/W v4.00 Oryx Data Collector v3.7.2.0data status	okinstallation	princeton_trtdifferential loss correction	single-endedforward channel	channel 4reverse channel	N/Adate	2019/09/14time	20:09:35forward acquisition time	60.00reverse acquisition time	0.00gamma	496.2192k internal	0.2304k external	0.2304temperature offset calibration	1.0093default loss term (dB/km)	0.3790temperature slope calibration	1.0000multiplexer offset coefficient	1.0000multiplexer slope coefficient	1.0000fibre end	0.00T internal ref (°C)	33.87T ext. ref 1 (°C)	4.89T ext. ref 2 (°C)	28.31length (m)	temperature (°C)	Stokes	anti-Stokes-747.200	-46.595	0.202	0.101
-746.185	-78.235	-0.160	0.056
-745.171	177.168	0.249	0.369
-744.156	221.565	0.132	0.216
-743.142	27.524	-0.052	0.044
-742.127	-26.100	0.256	-0.153
-741.112	-200.000	0.009	0.145
-740.098	799.581	-0.147	0.412
-739.083	-51.057	0.042	-0.020
-738.069	178.904	-0.166	0.247
-737.054	-76.954	-0.402	-0.143
-736.039	-33.422	-0.315	-0.177
-735.025	-67.632	0.295	-0.118
-734.010	272.732	-0.164	0.294
-732.996	179.024	-0.227	-0.338
-731.981	-159.403	-0.209	-0.012
-730.966	21.976	-0.167	0.139
-729.952	411.538	-0.036	-0.077
-728.937	800.000	-0.021	0.067
-727.923	-127.690	0.159	0.023
-726.908	-40.256	0.142	-0.075
-725.894	523.816	0.094	-0.224
-724.879	-157.277	0.196	0.012
-723.864	-166.627	-0.064	-0.003
-722.850	-131.543	0.183	0.025
-721.835	-79.246	-0.086	-0.030
-720.821	19.910	0.027	0.022
-719.806	81.020	0.159	-0.175
-718.791	188.129	-0.100	0.152
-717.777	329.836	-0.070	-0.137
-716.762	636.010	0.054	-0.139
-715.748	-22.904	-0.060	0.037
-714.733	-95.649	0.414	-0.113
-713.718	235.534	-0.170	-0.285
-712.704	800.000	-0.065	0.272
-711.689	738.024	0.070	-0.190
-710.675	-21.854	-0.180	-0.111
-709.660	28.999	0.242	-0.208
-708.645	2.811	0.120	-0.088
-707.631	-77.169	-0.155	0.055
-706.616	-33.393	-0.242	-0.136
-705.602	-200.000	-0.044	-0.245
-704.587	-18.527	0.075	0.048
-703.572	-108.610	-0.287	-0.063
-702.558	5.021	0.161	0.120
-701.543	0.039	-0.079	-0.057
-700.529	127.376	0.150	0.193
-699.514	-14.730	0.033	0.021
-698.499	800.000	-0.071	0.232
-697.485	40.072	-0.099	0.091
-696.470	-200.000	0.009	-0.150
-695.456	-200.000	-0.072	0.351
-694.441	800.000	-0.041	-0.180
-693.426	516.539	-0.054	-0.127
-692.412	778.920	-0.088	0.244
-691.397	-200.000	-0.047	-0.267
-690.383	-109.072	-0.124	0.027
-689.368	-154.734	-0.159	-0.011
-688.354	287.302	-0.067	-0.122
-687.339	65.756	-0.048	-0.049
-686.324	800.000	-0.015	-0.044
-685.310	254.737	-0.045	0.078
-684.295	3.567	-0.194	0.144
-683.281	1.385	-0.158	0.115
-682.266	-86.349	-0.252	0.079
-681.251	-200.000	0.000	-0.224
-680.237	135.540	0.091	0.121
-679.222	238.047	-0.049	-0.083
-678.208	193.867	-0.133	0.205
-677.193	129.104	-0.170	-0.220
-676.178	-58.519	-0.192	-0.085
-675.164	-63.283	0.209	-0.087
-674.149	-36.352	-0.252	0.138
-673.135	800.000	-0.166	-0.588
-672.120	124.751	-0.136	-0.174
-671.105	-151.674	-0.227	0.017
-670.091	-65.264	0.165	0.068
-669.076	38.014	0.112	0.101
-668.062	-200.000	0.026	-0.167
-667.047	191.922	-0.059	-0.091
-666.032	22.370	0.084	-0.070
-665.018	-200.000	-0.001	-0.372
-664.003	184.578	-0.390	0.587
-662.989	800.000	0.050	-0.169
-661.974	800.000	-0.101	-0.293
-660.959	800.000	-0.024	0.091
-659.945	66.198	-0.250	-0.258
-658.930	42.165	-0.116	-0.107
-657.916	800.000	-0.038	-0.141
-656.901	-200.000	-0.053	0.353
-655.886	-155.078	-0.253	0.017
-654.872	-55.630	0.288	-0.131
-653.857	-91.887	0.224	0.064
-652.843	800.000	-0.064	-0.261
-651.828	402.030	0.074	0.158
-650.814	-90.003	-0.421	-0.125
-649.799	-200.000	-0.004	0.393
-648.784	-121.151	-0.050	0.009
-647.770	-151.850	0.114	-0.009
-646.755	-90.480	0.317	-0.093
-645.741	717.402	0.057	0.153
-644.726	-200.000	-0.021	-0.243
-643.711	156.283	0.189	0.264
-642.697	-200.000	-0.010	-0.141
-641.682	-200.000	-0.127	-0.587
-640.668	-200.000	-0.019	0.117
-639.653	-180.487	0.032	0.001
-638.638	-63.732	-0.151	0.063
-637.624	-200.000	-0.012	-0.279
-636.609	-61.312	0.325	0.139
-635.595	68.117	0.169	-0.175
-634.580	-106.366	-0.257	0.058
-633.565	-79.427	0.272	0.093
-632.551	169.469	-0.021	-0.030
-631.536	-164.383	0.094	-0.004
-630.522	-200.000	-0.007	0.077
-629.507	-12.001	0.361	-0.240
-628.492	266.329	-0.134	-0.238
-627.478	756.179	-0.133	-0.364
-626.463	800.000	0.074	-0.295
-625.449	800.000	0.074	0.317
-624.434	524.678	-0.055	0.132
-623.419	800.000	-0.011	-0.046
-622.405	536.351	-0.051	0.123
-621.390	-138.267	0.254	-0.029
-620.376	425.797	0.081	0.176
-619.361	17.795	0.272	-0.219
-618.346	18.623	0.166	0.135
-617.332	190.165	0.221	-0.336
-616.317	-113.861	-0.109	0.021
-615.303	-132.490	-0.309	0.040
-614.288	800.000	0.034	-0.108
-613.273	-200.000	0.013	0.186
-612.259	-79.509	0.307	0.105
-611.244	84.427	0.220	-0.244
-610.230	97.573	0.260	0.303
-609.215	-89.327	-0.161	0.048
-608.201	800.000	0.013	0.055
-607.186	61.914	-0.311	-0.314
-606.171	-79.551	-0.110	-0.038
-605.157	-170.246	0.152	0.005
-604.142	55.059	-0.123	0.120
-603.128	69.773	-0.258	0.269
-602.113	-123.811	-0.218	0.035
-601.098	-200.000	0.060	0.345
-600.084	-77.794	-0.177	-0.062
-599.069	-200.000	0.008	0.204
-598.055	-91.385	-0.151	0.044
-597.040	-200.000	-0.017	-0.123
-596.025	-200.000	0.015	0.072
-595.011	-56.171	0.132	0.060
-593.996	159.257	-0.101	0.142
-592.982	-79.932	0.243	-0.082
-591.967	180.093	0.104	-0.155
-590.952	78.534	-0.224	0.242
-589.938	-61.583	-0.125	-0.053
-588.923	-14.281	-0.254	0.166
-587.909	-142.115	-0.368	-0.037
-586.894	-200.000	0.001	-0.181
-585.879	5.932	0.252	-0.189
-584.865	165.792	0.109	-0.155
-583.850	800.000	0.058	0.189
-582.836	800.000	0.028	-0.079
-581.821	144.608	-0.338	-0.457
-580.806	-200.000	0.014	-0.114
-579.792	-75.823	0.071	0.025
-578.777	-141.279	0.115	0.012
-577.763	30.010	-0.209	0.180
-576.748	800.000	0.155	-0.479
-575.733	-200.000	-0.005	-0.217
-574.719	130.763	0.044	0.057
-573.704	-37.366	0.241	-0.130
-572.690	78.210	-0.164	-0.177
-571.675	572.879	0.139	-0.342
-570.661	-76.718	0.065	-0.023
-569.646	-133.570	0.189	0.024
-568.631	208.653	0.102	0.162
-567.617	204.267	-0.123	0.193
-566.602	800.000	-0.057	0.203
-565.588	-108.154	-0.373	0.082
-564.573	-140.940	0.729	0.076
-563.558	239.998	0.201	-0.339
-562.544	-118.248	-0.067	-0.012
-561.529	-200.000	-0.004	0.157
-560.515	800.000	0.065	-0.204
-559.500	76.203	0.087	-0.093
-558.485	9.118	-0.319	0.244
-557.471	617.177	-0.042	-0.106
-556.456	-82.426	-0.101	-0.033
-555.442	800.000	-0.049	-0.165
-554.427	315.176	0.048	-0.091
-553.412	439.251	0.093	0.205
-552.398	-200.000	0.020	0.387
-551.383	57.510	0.102	-0.101
-550.369	-21.706	0.100	0.062
-549.354	6.196	-0.281	0.210
-548.339	-134.594	0.301	0.037
-547.325	800.000	0.047	0.143
-546.310	800.000	0.007	0.022
-545.296	800.000	0.047	-0.139
-544.281	-32.806	0.121	0.068
-543.266	-200.000	0.013	0.118
-542.252	185.894	0.070	-0.105
-541.237	-146.294	0.193	-0.017
-540.223	141.731	-0.110	0.148
-539.208	-125.412	-0.279	-0.043
-538.193	-78.097	-0.648	-0.225
-537.179	-100.989	-0.304	0.075
-536.164	-9.350	0.275	-0.185
-535.150	369.027	0.025	0.052
-534.135	-179.564	-0.125	0.003
-533.121	7.852	0.391	0.296
-532.106	652.543	0.109	0.282
-531.091	-200.000	0.016	0.240
-530.077	-93.815	0.346	0.096
-529.062	0.607	-0.198	-0.143
-528.048	-68.200	-0.183	0.072
-527.033	-53.405	0.385	-0.178
-526.018	33.037	-0.240	0.210
-525.004	-200.000	-0.075	-0.391
-523.989	125.148	-0.183	-0.233
-522.975	23.903	0.180	-0.150
-521.960	-35.513	-0.189	0.104
-520.945	-146.897	0.262	0.023
-519.931	62.866	-0.228	0.230
-518.916	120.457	-0.064	0.080
-517.902	800.000	-0.014	0.041
-516.887	431.286	-0.108	0.235
-515.872	-55.191	-0.161	-0.073
-514.858	225.434	-0.203	-0.332
-513.843	421.319	0.031	-0.067
-512.829	-106.378	-0.242	-0.055
-511.814	560.704	0.063	-0.153
-510.799	-109.051	-0.135	0.029
-509.785	-59.038	-0.156	-0.068
-508.770	-200.000	0.007	-0.354
-507.756	800.000	0.027	-0.103
-506.741	41.588	0.152	-0.139
-505.726	-163.694	0.108	0.005
-504.712	472.365	-0.158	-0.359
-503.697	238.690	-0.083	-0.139
-502.683	800.000	-0.031	0.103
-501.668	800.000	0.112	-0.319
-500.653	-116.701	-0.127	-0.024
-499.639	-14.688	-0.213	0.138
-498.624	32.158	-0.234	0.204
-497.610	404.701	-0.071	-0.150
-496.595	-174.925	0.334	0.009
-495.581	800.000	0.017	0.064
-494.566	-43.746	0.070	-0.035
-493.551	-93.607	0.112	-0.031
-492.537	800.000	0.118	0.362
-491.522	253.754	-0.098	0.169
-490.508	6.263	0.184	0.138
-489.493	-200.000	0.018	-0.342
-488.478	501.639	-0.180	-0.420
-487.464	54.442	-0.128	-0.124
-486.449	504.083	-0.077	-0.180
-485.435	233.103	-0.053	-0.087
-484.420	73.677	-0.281	0.296
-483.405	51.949	-0.245	0.235
-482.391	70.886	0.062	-0.064
-481.376	800.000	0.016	0.067
-480.362	276.548	0.069	0.123
-479.347	800.000	0.092	-0.366
-478.332	-22.659	0.146	0.089
-477.318	800.000	-0.032	-0.112
-476.303	-83.841	0.044	0.014
-475.289	221.256	-0.151	0.244
-474.274	-200.000	0.045	0.277
-473.259	-200.000	-0.042	0.190
-472.245	-200.000	-0.016	0.128
-471.230	-79.027	0.156	-0.053
-470.216	-200.000	-0.016	0.160
-469.201	305.194	0.104	0.195
-468.186	-109.442	-0.388	-0.083
-467.172	-200.000	-0.021	0.152
-466.157	-200.000	-0.053	-0.341
-465.143	-9.614	0.211	0.142
-464.128	50.270	-0.215	-0.204
-463.113	-2.921	0.047	0.033
-462.099	54.446	-0.245	-0.237
-461.084	-178.604	0.164	0.004
-460.070	92.567	-0.074	0.084
-459.055	441.600	0.156	-0.345
-458.040	-20.236	0.217	-0.134
-457.026	212.781	0.094	0.150
-456.011	626.793	0.023	0.057
-454.997	-200.000	-0.057	0.278
-453.982	320.968	-0.095	0.183
-452.968	47.784	0.287	-0.270
-451.953	800.000	0.054	-0.212
-450.938	-103.940	0.329	0.077
-449.924	800.000	0.116	0.399
-448.909	-115.582	0.181	-0.034
-447.895	-164.930	-0.133	-0.006
-446.880	-78.819	-0.295	0.101
-445.865	-131.841	0.158	0.021
-444.851	566.552	0.046	-0.113
-443.836	800.000	0.083	-0.347
-442.822	-38.926	-0.256	-0.136
-441.807	-48.392	-0.089	0.043
-440.792	48.265	-0.185	-0.174
-439.778	-56.654	-0.310	0.138
-438.763	4.958	-0.031	0.023
-437.749	689.384	0.102	0.268
-436.734	278.824	-0.031	-0.055
-435.719	309.358	-0.315	-0.592
-434.705	800.000	0.091	-0.329
-433.690	-69.545	-0.120	0.046
-432.676	-7.794	-0.042	0.029
-431.661	79.002	-0.287	-0.309
-430.646	-61.623	0.120	-0.051
-429.632	228.117	-0.159	-0.260
-428.617	301.506	0.014	-0.026
-427.603	-2.407	0.220	-0.155
-426.588	-171.420	-0.095	0.003
-425.573	-200.000	-0.011	0.275
-424.559	-67.929	-0.495	-0.194
-423.544	148.684	-0.191	-0.260
-422.530	174.077	-0.102	0.148
-421.515	-200.000	-0.007	0.107
-420.500	-149.855	0.044	-0.003
-419.486	-116.722	-0.105	-0.019
-418.471	-147.133	0.189	-0.016
-417.457	800.000	-0.074	0.317
-416.442	-75.169	-0.074	-0.027
-415.428	-78.767	0.319	-0.109
-414.413	342.220	0.067	0.132
-413.398	-63.616	-0.134	-0.055
-412.384	452.831	-0.164	-0.364
-411.369	-5.592	0.182	-0.125
-410.355	-50.325	0.082	-0.039
-409.340	800.000	0.041	0.156
-408.325	800.000	-0.036	0.101
-407.311	661.518	0.060	0.157
-406.296	-109.277	0.325	0.069
-405.282	-156.291	0.056	0.004
-404.267	-37.837	0.129	0.069
-403.252	-200.000	0.004	-0.260
-402.238	79.566	0.063	0.068
-401.223	-86.734	0.068	0.021
-400.209	-101.997	-0.339	0.082
-399.194	-120.543	-0.096	0.016
-398.179	-71.185	0.150	0.057
-397.165	-129.758	0.083	0.012
-396.150	391.748	0.151	0.314
-395.136	-118.824	0.143	-0.025
-394.121	-200.000	0.025	0.149
-393.106	-200.000	0.018	-0.226
-392.092	-77.204	-0.475	-0.166
-391.077	-81.616	0.168	0.056
-390.063	-141.264	-0.127	-0.013
-389.048	318.086	0.048	-0.091
-388.033	201.041	0.060	-0.093
-387.019	-75.327	0.152	0.054
-386.004	331.701	0.081	-0.156
-384.990	800.000	-0.023	0.082
-383.975	35.795	0.083	-0.074
-382.960	124.944	-0.033	-0.042
-381.946	22.485	0.338	0.277
-380.931	-71.961	0.155	-0.058
-379.917	-97.918	-0.062	-0.016
-378.902	-200.000	-0.017	-0.106
-377.888	-137.238	0.238	-0.027
-376.873	794.644	0.075	0.208
-375.858	229.297	-0.065	-0.107
-374.844	800.000	0.030	0.100
-373.829	-24.967	-0.234	0.139
-372.815	70.236	0.125	0.129
-371.800	-200.000	0.002	0.038
-370.785	2.114	0.165	0.120
-369.771	800.000	-0.069	0.234
-368.756	-83.199	-0.144	0.046
-367.742	-106.940	0.197	-0.044
-366.727	210.230	-0.135	-0.213
-365.712	-80.648	-0.297	-0.099
-364.698	247.052	0.107	0.181
-363.683	59.799	-0.271	-0.268
-362.669	370.841	-0.113	-0.230
-361.654	-98.194	-0.336	0.086
-360.639	-134.213	0.414	-0.051
-359.625	800.000	0.150	0.500
-358.610	-200.000	0.015	-0.147
-357.596	-200.000	0.040	0.302
-356.581	-200.000	-0.016	0.381
-355.566	26.785	0.074	0.062
-354.552	-127.652	0.178	0.026
-353.537	-174.687	-0.278	-0.008
-352.523	3.226	0.166	-0.121
-351.508	-200.000	0.017	0.264
-350.493	242.730	-0.020	-0.033
-349.479	-38.557	-0.144	0.076
-348.464	217.755	-0.075	0.119
-347.450	58.040	-0.088	0.087
-346.435	-88.485	0.122	0.037
-345.420	800.000	-0.042	-0.173
-344.406	-200.000	-0.147	0.000
-343.391	800.000	0.082	0.244
-342.377	-123.479	-0.207	-0.033
-341.362	-200.000	0.011	-0.133
-340.348	-98.285	-0.189	-0.049
-339.333	800.000	0.082	0.283
-338.318	-200.000	-0.000	0.088
-337.304	-96.915	-0.084	-0.022
-336.289	-101.005	0.206	0.051
-335.275	347.757	0.077	0.151
-334.260	381.079	0.132	-0.272
-333.245	107.979	-0.167	0.199
-332.231	-200.000	0.002	0.397
-331.216	63.331	0.266	-0.267
-330.202	-22.965	-0.204	-0.123
-329.187	466.195	0.197	0.441
-328.172	287.364	-0.155	0.281
-327.158	229.817	-0.173	-0.282
-326.143	223.862	0.191	-0.308
-325.129	-200.000	0.059	0.360
-324.114	800.000	0.055	0.167
-323.099	-200.000	0.034	-0.267
-322.085	409.755	-0.045	0.096
-321.070	-74.485	-0.042	-0.015
-320.056	98.615	-0.146	-0.169
-319.041	800.000	0.085	0.324
-318.026	-200.000	0.028	0.263
-317.012	22.177	-0.204	0.167
-315.997	412.011	-0.059	0.125
-314.983	-127.437	-0.352	-0.051
-313.968	617.938	0.143	-0.360
-312.953	-50.060	-0.056	0.026
-311.939	84.584	-0.154	-0.169
-310.924	800.000	0.045	-0.161
-309.910	230.152	-0.056	-0.091
-308.895	-95.718	0.274	0.073
-307.880	-79.907	0.114	0.038
-306.866	800.000	-0.025	-0.090
-305.851	800.000	-0.075	0.265
-304.837	159.148	-0.234	0.326
-303.822	389.186	0.161	-0.333
-302.807	15.343	0.115	0.090
-301.793	-200.000	-0.045	-0.209
-300.778	-35.130	0.126	0.069
-299.764	108.969	0.086	0.103
-298.749	-200.000	-0.002	-0.122
-297.735	-143.964	-0.387	0.036
-296.720	800.000	-0.013	0.056
-295.705	381.637	-0.159	0.326
-294.691	306.067	-0.026	0.048
-293.676	-38.086	0.058	0.031
-292.662	-102.740	-0.288	0.069
-291.647	-196.251	0.435	-0.003
-290.632	-94.272	-0.108	-0.029
-289.618	-144.777	0.261	0.024
-288.603	226.166	-0.058	-0.094
-287.589	-45.685	0.215	0.106
-286.574	107.495	0.188	-0.224
-285.559	86.752	0.058	0.064
-284.545	120.618	-0.283	0.352
-283.530	-45.843	-0.086	-0.042
-282.516	-98.904	-0.111	0.028
-281.501	634.882	0.132	0.334
-280.486	46.887	0.216	-0.201
-279.472	169.637	0.180	0.257
-278.457	800.000	0.028	0.089
-277.443	-21.867	0.277	0.168
-276.428	-153.036	-0.180	0.013
-275.413	-200.000	-0.046	0.244
-274.399	95.550	-0.202	0.231
-273.384	-87.469	0.248	-0.075
-272.370	11.158	0.195	-0.149
-271.355	89.290	-0.167	-0.186
-270.340	-13.218	-0.179	-0.116
-269.326	332.536	0.199	-0.384
-268.311	-111.927	0.293	0.059
-267.297	-98.893	0.237	0.060
-266.282	-96.634	-0.111	0.029
-265.267	40.358	0.104	0.093
-264.253	210.372	-0.066	0.104
-263.238	37.493	-0.018	-0.016
-262.224	-187.317	0.169	-0.002
-261.209	-79.162	0.092	-0.031
-260.195	22.698	-0.143	0.117
-259.180	-200.000	-0.007	-0.143
-258.165	-106.812	0.347	-0.077
-257.151	-118.372	-0.240	0.042
-256.136	800.000	0.065	0.199
-255.122	-120.349	-0.190	0.032
-254.107	56.520	0.011	-0.010
-253.092	-130.863	-0.224	-0.030
-252.078	367.837	-0.096	-0.194
-251.063	-65.682	-0.118	-0.047
-250.049	800.000	-0.101	-0.333
-249.034	-174.520	-0.385	-0.011
-248.019	-182.497	0.263	0.005
-247.005	359.792	-0.021	-0.041
-245.990	53.032	-0.024	-0.023
-244.976	130.412	-0.159	0.203
-243.961	-200.000	-0.005	0.140
-242.946	13.533	0.212	0.164
-241.932	-200.000	0.085	-0.410
-240.917	-200.000	-0.012	-0.193
-239.903	19.635	-0.114	-0.092
-238.888	-200.000	-0.028	0.208
-237.873	-36.237	-0.136	0.073
-236.859	79.890	0.146	0.157
-235.844	-47.654	0.031	-0.015
-234.830	800.000	-0.092	0.365
-233.815	-200.000	0.040	0.359
-232.800	65.897	0.145	0.147
-231.786	-200.000	-0.040	-0.189
-230.771	-200.000	-0.012	-0.451
-229.757	-16.139	0.118	-0.075
-228.742	-200.000	-0.044	-0.241
-227.727	800.000	-0.089	-0.286
-226.713	800.000	0.030	0.083
-225.698	-200.000	0.055	-0.471
-224.684	374.515	-0.118	0.239
-223.669	78.459	-0.135	-0.144
-222.655	-48.573	0.188	-0.090
-221.640	800.000	0.061	-0.245
-220.625	-53.973	0.106	-0.048
-219.611	209.913	-0.023	-0.037
-218.596	81.750	0.149	-0.161
-217.582	-61.312	-0.285	-0.120
-216.567	215.588	0.077	-0.122
-215.552	-29.217	0.177	-0.101
-214.538	-200.000	-0.054	-0.343
-213.523	-93.336	0.121	-0.034
-212.509	-97.388	-0.294	0.076
-211.494	-84.776	-0.199	0.062
-210.479	-180.790	0.251	-0.005
-209.465	800.000	0.062	-0.228
-208.450	-200.000	0.012	0.129
-207.436	-145.325	0.151	-0.014
-206.421	-15.096	-0.294	0.187
-205.406	17.045	-0.397	0.314
-204.392	360.118	0.077	0.153
-203.377	93.374	0.146	0.165
-202.363	-147.664	0.138	0.012
-201.348	800.000	-0.034	-0.141
-200.333	800.000	-0.028	-0.116
-199.319	-197.110	0.218	-0.001
-198.304	800.000	0.058	0.185
-197.290	46.003	0.234	0.216
-196.275	-200.000	0.021	-0.092
-195.260	-125.884	-0.275	-0.041
-194.246	601.882	-0.082	-0.204
-193.231	190.179	-0.098	0.146
-192.217	-200.000	0.035	0.157
-191.202	-122.435	-0.084	-0.014
-190.187	-200.000	0.027	0.279
-189.173	-200.000	-0.019	-0.153
-188.158	5.916	-0.095	-0.070
-187.144	81.216	0.170	-0.183
-186.129	-8.608	-0.269	0.180
-185.114	-47.961	-0.268	-0.129
-184.100	-69.445	-0.241	-0.092
-183.085	-200.000	0.038	0.171
-182.071	-200.000	0.047	-0.222
-181.056	-200.000	0.011	0.220
-180.042	550.766	0.087	0.207
-179.027	-200.000	-0.046	-0.250
-178.012	61.828	0.135	0.134
-176.998	198.904	-0.079	0.121
-175.983	-200.000	-0.039	-0.230
-174.969	-15.143	0.195	0.124
-173.954	800.000	-0.045	0.132
-172.939	221.581	-0.040	0.064
-171.925	800.000	-0.061	0.218
-170.910	-152.141	-0.153	0.011
-169.896	19.061	-0.031	-0.025
-168.881	-8.227	0.154	0.103
-167.866	-84.829	0.121	-0.038
-166.852	243.363	0.108	0.181
-165.837	-141.844	0.317	-0.032
-164.823	25.889	0.107	0.089
-163.808	-40.710	0.209	0.108
-162.793	66.647	0.084	-0.085
-161.779	-200.000	0.040	-0.196
-160.764	-158.995	-0.387	-0.022
-159.750	-200.000	0.030	-0.198
-158.735	-114.176	-0.250	-0.048
-157.720	-95.188	-0.047	0.013
-156.706	-200.000	-0.005	-0.153
-155.691	756.490	-0.048	0.128
-154.677	-72.850	0.364	-0.133
-153.662	-115.587	-0.325	-0.061
-152.647	-101.850	0.265	0.064
-151.633	-200.000	-0.029	0.278
-150.618	-200.000	0.020	0.184
-149.604	-117.566	-0.334	-0.060
-148.589	14.880	0.371	0.289
-147.574	564.072	0.060	-0.144
-146.560	-6.715	0.161	0.109
-145.545	712.803	-0.045	0.118
-144.531	42.912	-0.179	-0.162
-143.516	78.696	0.225	-0.239
-142.502	800.000	-0.080	0.246
-141.487	-9.960	-0.113	0.075
-140.472	-124.366	-0.458	0.071
-139.458	-126.911	-0.218	-0.032
-138.443	800.000	-0.096	-0.267
-137.429	730.159	0.161	-0.429
-136.414	121.520	-0.134	0.166
-135.399	131.952	0.186	-0.237
-134.385	-80.274	0.261	0.087
-133.370	800.000	-0.040	0.145
-132.356	-200.000	0.011	-0.348
-131.341	-172.992	0.056	0.002
-130.326	11.255	-0.334	0.254
-129.312	-89.771	0.100	0.029
-128.297	-148.360	0.424	-0.035
-127.283	-76.946	-0.112	0.039
-126.268	-72.154	-0.308	-0.114
-125.253	182.900	-0.204	-0.300
-124.239	-119.525	-0.370	-0.064
-123.224	0.462	0.248	0.176
-122.210	-200.000	-0.016	-0.229
-121.195	293.197	-0.097	-0.175
-120.180	9.928	-0.174	0.131
-119.166	-83.840	0.068	0.021
-118.151	800.000	-0.033	0.125
-117.137	-200.000	-0.005	0.026
-116.122	135.131	-0.063	-0.081
-115.107	-200.000	-0.007	0.280
-114.093	-200.000	-0.058	0.308
-113.078	-142.096	0.353	-0.035
-112.064	735.416	-0.084	0.224
-111.049	292.257	0.080	-0.145
-110.034	198.309	-0.115	-0.175
-109.020	-200.000	0.019	0.182
-108.005	-86.678	-0.485	0.147
-106.991	10.150	0.078	0.059
-105.976	45.764	0.163	-0.149
-104.962	-91.134	0.332	-0.095
-103.947	-47.810	0.217	-0.105
-102.932	273.697	0.017	0.030
-101.918	-141.290	0.134	-0.014
-100.903	800.000	0.055	-0.203
-99.889	316.584	-0.136	-0.255
-98.874	-10.548	0.345	0.227
-97.859	30.996	0.034	-0.029
-96.845	-200.000	0.026	0.207
-95.830	660.180	0.050	0.129
-94.816	-22.223	-0.561	0.338
-93.801	279.454	0.194	0.343
-92.786	-200.000	0.031	0.391
-91.772	113.735	0.193	0.233
-90.757	206.593	0.102	0.158
-89.743	-141.954	0.338	0.033
-88.728	-200.000	-0.012	0.212
-87.713	-27.001	-0.135	-0.078
-86.699	-135.506	0.319	0.038
-85.684	-49.077	-0.301	-0.143
-84.670	-106.065	0.160	0.036
-83.655	90.731	-0.263	0.293
-82.640	-84.386	0.139	-0.044
-81.626	532.672	0.060	-0.140
-80.611	678.543	-0.100	0.258
-79.597	73.491	-0.058	0.060
-78.582	-200.000	0.007	-0.052
-77.567	-148.371	-0.123	-0.010
-76.553	-111.846	-0.109	0.022
-75.538	800.000	-0.050	0.165
-74.524	764.603	-0.027	0.071
-73.509	127.288	-0.135	0.170
-72.494	-200.000	-0.051	0.277
-71.480	-200.000	-0.012	0.133
-70.465	643.464	-0.080	-0.201
-69.451	-120.043	0.389	0.066
-68.436	52.375	0.210	0.199
-67.422	-200.000	0.004	0.021
-66.407	-107.565	0.147	0.032
-65.392	-200.000	0.024	-0.199
-64.378	248.078	0.207	-0.347
-63.363	800.000	0.074	0.288
-62.349	40.519	-0.067	-0.060
-61.334	142.687	-0.841	-1.107
-60.319	95.060	0.546	0.616
-59.305	800.000	-0.310	-1.044
-58.290	358.713	0.548	1.084
-57.276	-200.000	0.198	1.822
-56.261	-200.000	95.702	570.613
-55.246	619.009	1389.240	3458.714
-54.232	188.551	2589.514	3838.215
-53.217	109.315	2314.842	2746.091
-52.203	40.312	2066.186	1842.086
-51.188	35.558	1980.410	1723.020
-50.173	34.043	1961.983	1693.443
-49.159	49.028	2011.243	1871.340
-48.144	50.853	2030.424	1905.569
-47.130	36.237	1991.166	1738.221
-46.115	33.894	1980.214	1707.572
-45.100	33.797	1976.858	1703.739
-44.086	33.711	1974.933	1701.238
-43.071	33.772	1972.344	1699.485
-42.057	33.674	1970.395	1696.860
-41.042	33.682	1968.519	1695.254
-40.027	33.723	1966.268	1693.614
-39.013	33.769	1963.929	1691.937
-37.998	33.779	1962.600	1690.815
-36.984	33.830	1960.815	1689.663
-35.969	33.730	1959.444	1687.526
-34.954	33.823	1956.767	1685.986
-33.940	33.847	1955.647	1685.162
-32.925	33.884	1953.891	1683.909
-31.911	33.902	1952.307	1682.637
-30.896	33.886	1950.493	1680.866
-29.881	33.852	1949.416	1679.567
-28.867	33.886	1947.930	1678.522
-27.852	33.882	1945.524	1676.351
-26.838	33.916	1943.668	1674.986
-25.823	33.895	1942.048	1673.338
-24.809	33.946	1939.886	1671.860
-23.794	33.903	1938.921	1670.581
-22.779	33.867	1937.277	1668.781
-21.765	33.912	1935.190	1667.315
-20.750	33.907	1933.534	1665.777
-19.736	33.903	1932.440	1664.735
-18.721	33.913	1931.065	1663.567
-17.706	33.866	1929.599	1661.825
-16.692	33.899	1927.110	1659.905
-15.677	33.923	1925.424	1658.599
-14.663	33.991	1923.992	1657.891
-13.648	33.897	1923.229	1656.353
-12.633	34.009	1921.508	1655.775
-11.619	33.877	1920.786	1653.937
-10.604	33.891	1919.463	1652.858
-9.590	33.908	1918.019	1651.692
-8.575	33.878	1916.607	1650.150
-7.560	33.907	1914.859	1648.838
-6.546	33.836	1914.233	1647.613
-5.531	33.893	1913.052	1647.022
-4.517	33.975	1911.460	1646.304
-3.502	33.919	1910.451	1644.879
-2.487	33.904	1909.009	1643.447
-1.473	33.852	1908.704	1642.668
-0.458	33.871	1904.019	1638.737
0.556	34.036	1883.574	1609.964
1.571	29.671	1863.527	1556.034
2.586	25.377	1885.648	1537.684
3.600	24.208	1921.740	1556.776
4.615	23.383	1916.539	1545.233
5.629	18.123	1815.592	1420.147
6.644	9.323	1697.082	1258.717
7.659	5.223	1660.418	1199.962
8.673	4.954	1656.994	1195.324
9.688	4.836	1656.020	1193.607
10.702	4.861	1654.753	1192.783
11.717	4.908	1651.538	1190.719
12.731	5.374	1650.364	1193.325
13.746	10.928	1664.177	1245.850
14.761	18.342	1679.804	1314.562
15.775	20.503	1681.883	1332.668
16.790	19.561	1678.809	1322.899
17.804	18.534	1675.367	1312.212
18.819	17.527	1672.539	1302.186
19.834	16.827	1670.021	1294.764
20.848	16.632	1668.466	1291.956
21.863	16.325	1666.904	1288.286
22.877	16.032	1665.857	1285.130
23.892	15.873	1664.393	1282.682
24.907	15.820	1662.671	1280.832
25.921	15.846	1661.483	1280.004
26.936	15.702	1661.067	1278.474
27.950	15.809	1659.996	1278.348
28.965	15.915	1659.035	1278.303
29.980	16.029	1658.233	1278.435
30.994	15.912	1657.746	1277.060
32.009	16.037	1656.726	1277.107
33.023	16.106	1656.019	1276.975
34.038	16.255	1654.655	1276.939
35.053	16.182	1653.513	1275.387
36.067	16.077	1652.229	1273.491
37.082	16.037	1651.031	1272.153
38.096	16.002	1650.038	1271.014
39.111	15.963	1650.392	1270.881
40.126	16.081	1649.074	1270.642
41.140	16.052	1648.229	1269.661
42.155	15.935	1646.587	1267.402
43.169	15.784	1645.099	1265.010
44.184	15.729	1643.654	1263.376
45.199	15.698	1642.905	1262.454
46.213	15.666	1641.524	1261.041
47.228	15.662	1640.537	1260.142
48.242	15.867	1639.344	1260.650
49.257	15.882	1638.595	1260.075
50.271	15.977	1636.968	1259.422
51.286	15.833	1635.752	1257.297
52.301	15.919	1634.348	1256.750
53.315	15.865	1633.443	1255.537
54.330	15.958	1631.405	1254.554
55.344	15.837	1630.007	1252.466
56.359	15.755	1628.269	1250.412
57.374	15.768	1627.585	1249.873
58.388	15.811	1626.387	1249.158
59.403	15.739	1625.093	1247.524
60.417	15.703	1623.174	1245.669
61.432	15.569	1622.526	1244.071
62.447	15.661	1620.859	1243.362
63.461	15.617	1620.292	1242.495
64.476	15.588	1618.884	1241.092
65.490	15.587	1617.730	1240.087
66.505	15.609	1616.484	1239.186
67.520	15.536	1616.006	1238.171
68.534	15.637	1614.659	1237.778
69.549	15.632	1613.565	1236.790
70.563	15.666	1612.297	1235.959
71.578	15.550	1611.372	1234.289
72.593	15.530	1610.407	1233.294
73.607	15.494	1609.386	1232.135
74.622	15.497	1607.932	1230.938
75.636	15.421	1607.322	1229.801
76.651	15.517	1606.461	1229.738
77.666	15.518	1605.212	1228.684
78.680	15.530	1604.715	1228.282
79.695	15.548	1604.141	1227.865
80.709	15.582	1602.616	1226.839
81.724	15.658	1602.015	1226.820
82.739	15.713	1601.401	1226.644
83.753	15.784	1600.456	1226.328
84.768	15.790	1599.619	1225.620
85.782	15.971	1598.997	1226.355
86.797	16.034	1598.330	1226.192
87.812	16.012	1597.194	1225.053
88.826	15.912	1595.919	1223.244
89.841	15.941	1594.605	1222.335
90.855	15.898	1594.568	1221.887
91.870	15.956	1593.018	1221.013
92.884	15.944	1592.348	1220.301
93.899	16.007	1590.687	1219.381
94.914	15.997	1589.654	1218.410
95.928	15.978	1588.336	1217.152
96.943	16.118	1587.156	1217.149
97.957	16.004	1585.898	1215.257
98.972	16.037	1583.963	1213.906
99.987	15.984	1582.707	1212.450
101.001	15.961	1581.515	1211.267
102.016	15.995	1579.939	1210.198
103.030	15.932	1578.605	1208.615
104.045	16.010	1577.052	1207.877
105.060	16.011	1575.862	1206.868
106.074	15.929	1574.842	1205.395
107.089	15.815	1572.942	1203.016
108.103	15.673	1571.291	1200.635
109.118	15.658	1570.004	1199.438
110.133	15.633	1568.196	1197.771
111.147	15.583	1567.294	1196.622
112.162	15.701	1565.935	1196.315
113.176	15.622	1564.660	1194.675
114.191	15.567	1563.666	1193.417
115.206	15.719	1562.215	1193.289
116.220	15.867	1560.265	1192.740
117.235	15.754	1558.983	1190.857
118.249	15.693	1557.809	1189.419
119.264	15.700	1556.774	1188.577
120.279	15.686	1555.428	1187.340
121.293	15.656	1553.821	1185.800
122.308	15.660	1551.991	1184.328
123.322	15.677	1550.778	1183.413
124.337	15.564	1549.482	1181.524
125.352	15.541	1547.991	1180.124
126.366	15.628	1546.781	1179.709
127.381	15.537	1546.086	1178.434
128.395	15.562	1544.823	1177.540
129.410	15.607	1543.537	1176.773
130.424	15.655	1541.875	1175.737
131.439	15.652	1541.072	1175.000
132.454	15.749	1539.128	1174.091
133.468	15.699	1538.253	1172.974
134.483	15.808	1536.618	1172.383
135.497	15.707	1535.868	1171.004
136.512	15.752	1534.623	1170.261
137.527	15.886	1532.955	1169.814
138.541	15.774	1532.369	1168.489
139.556	15.873	1530.531	1167.672
140.570	15.921	1528.962	1166.705
141.585	15.969	1527.722	1165.983
142.600	15.977	1526.698	1165.155
143.614	16.044	1525.743	1164.791
144.629	16.089	1524.084	1163.727
145.643	16.090	1523.071	1162.859
146.658	16.101	1521.809	1161.865
147.673	16.093	1519.965	1160.305
148.687	16.013	1518.729	1158.706
149.702	15.992	1517.298	1157.367
150.716	15.907	1515.527	1155.330
151.731	15.923	1514.245	1154.359
152.746	15.901	1512.862	1153.054
153.760	15.878	1511.881	1152.046
154.775	15.942	1510.417	1151.267
155.789	16.003	1509.357	1150.776
156.804	15.996	1507.935	1149.543
157.819	16.117	1506.316	1149.029
158.833	16.093	1505.549	1148.178
159.848	16.249	1504.608	1148.420
160.862	16.262	1503.071	1147.235
161.877	16.262	1502.201	1146.470
162.892	16.146	1500.769	1144.491
163.906	16.069	1499.628	1142.997
164.921	16.006	1498.479	1141.588
165.935	16.021	1497.009	1140.471
166.950	16.090	1495.848	1139.955
167.964	16.079	1495.340	1139.388
168.979	16.147	1493.904	1138.653
169.994	16.186	1492.734	1137.924
171.008	16.011	1492.208	1136.243
172.023	16.083	1491.277	1135.921
173.037	16.113	1489.682	1134.806
174.052	16.198	1488.970	1134.735
175.067	16.184	1488.100	1133.876
176.081	16.125	1486.976	1132.526
177.096	16.066	1485.437	1130.853
178.110	16.054	1484.216	1129.743
179.125	16.119	1482.587	1128.840
180.140	15.958	1482.392	1127.516
181.154	16.095	1481.095	1127.342
182.169	16.218	1479.980	1127.221
183.183	16.183	1478.782	1125.973
184.198	16.330	1477.588	1125.947
185.213	16.300	1476.832	1125.068
186.227	16.457	1475.553	1125.036
187.242	16.370	1474.602	1123.637
188.256	16.376	1473.868	1123.019
189.271	16.500	1472.447	1122.661
190.286	16.602	1471.242	1122.317
191.300	16.389	1470.503	1120.240
192.315	16.197	1469.117	1117.812
193.329	16.133	1467.799	1116.287
194.344	16.062	1466.509	1114.741
195.359	16.132	1465.878	1114.626
196.373	16.135	1465.355	1114.147
197.388	16.256	1464.129	1113.915
198.402	16.369	1463.019	1113.718
199.417	16.408	1461.771	1112.929
200.432	16.495	1461.443	1113.151
201.446	16.702	1459.925	1113.261
202.461	16.676	1459.033	1112.307
203.475	16.703	1457.634	1111.320
204.490	16.717	1456.903	1110.756
205.504	16.703	1455.787	1109.718
206.519	16.652	1454.519	1108.319
207.534	16.648	1453.203	1107.190
208.548	16.505	1452.497	1105.620
209.563	16.571	1451.593	1105.265
210.577	16.497	1450.961	1104.200
211.592	16.483	1450.218	1103.444
212.607	16.624	1448.847	1103.226
213.621	16.569	1448.886	1102.799
214.636	16.715	1447.784	1102.814
215.650	16.683	1446.792	1101.755
216.665	16.682	1445.060	1100.327
217.680	16.725	1444.596	1100.159
218.694	16.705	1444.505	1099.864
219.709	16.849	1443.025	1099.574
220.723	16.931	1442.148	1099.336
221.738	16.873	1441.260	1098.189
222.753	16.889	1440.241	1097.415
223.767	16.819	1439.589	1096.374
224.782	16.849	1438.269	1095.460
225.796	16.907	1437.658	1095.276
226.811	16.881	1437.117	1094.599
227.826	16.893	1436.115	1093.814
228.840	16.925	1435.040	1093.105
229.855	16.916	1434.063	1092.211
230.869	16.911	1432.987	1091.260
231.884	17.003	1431.622	1090.713
232.899	16.844	1430.426	1088.685
233.913	16.796	1429.677	1087.711
234.928	16.871	1428.096	1086.891
235.942	16.775	1427.300	1085.573
236.957	16.728	1425.830	1084.061
237.972	16.741	1424.768	1083.240
238.986	16.761	1424.098	1082.764
240.001	16.744	1423.196	1081.871
241.015	16.753	1421.791	1080.768
242.030	16.801	1420.654	1080.116
243.045	16.995	1419.370	1080.276
244.059	16.837	1418.996	1078.889
245.074	16.944	1417.862	1078.612
246.088	17.047	1416.956	1078.483
247.103	17.153	1416.293	1078.554
248.117	17.113	1415.579	1077.661
249.132	17.035	1415.235	1076.811
250.147	17.164	1414.667	1077.100
251.161	17.347	1413.791	1077.496
252.176	17.419	1413.503	1077.639
253.190	17.579	1412.476	1077.772
254.205	17.510	1411.610	1076.583
255.220	17.565	1410.931	1076.319
256.234	17.471	1410.351	1075.182
257.249	17.553	1409.505	1074.961
258.263	17.514	1408.305	1073.706
259.278	17.541	1407.452	1073.130
260.293	17.569	1406.468	1072.460
261.307	17.656	1405.341	1072.058
262.322	17.645	1405.267	1071.836
263.336	17.695	1404.165	1071.214
264.351	17.763	1403.290	1070.877
265.366	17.752	1402.524	1070.132
266.380	17.715	1401.404	1068.946
267.395	17.729	1400.610	1068.333
268.409	17.778	1399.991	1068.077
269.424	17.787	1398.634	1067.000
270.439	17.685	1397.546	1065.442
271.453	17.669	1396.913	1064.761
272.468	17.787	1395.876	1064.616
273.482	17.619	1395.327	1063.054
274.497	17.599	1394.202	1061.981
275.512	17.663	1392.989	1061.358
276.526	17.608	1392.437	1060.502
277.541	17.681	1391.485	1060.137
278.555	17.620	1390.622	1059.008
279.570	17.677	1389.873	1058.701
280.585	17.641	1389.203	1057.869
281.599	17.783	1388.023	1057.759
282.614	17.907	1387.392	1057.955
283.628	17.819	1385.915	1056.187
284.643	17.713	1385.278	1054.952
285.657	17.699	1383.827	1053.668
286.672	17.777	1382.516	1053.058
287.687	17.835	1381.870	1052.831
288.701	17.812	1380.889	1051.846
289.716	17.760	1380.376	1051.045
290.730	17.806	1379.493	1050.560
291.745	17.882	1378.337	1050.054
292.760	17.789	1377.600	1048.828
293.774	17.851	1376.357	1048.171
294.789	17.888	1375.426	1047.599
295.803	17.944	1374.616	1047.231
296.818	18.042	1373.846	1047.154
297.833	18.029	1372.773	1046.164
298.847	17.906	1372.401	1045.036
299.862	17.935	1370.783	1043.885
300.876	17.881	1370.355	1043.138
301.891	18.003	1369.119	1042.848
302.906	18.096	1367.948	1042.432
303.920	18.039	1367.694	1041.799
304.935	18.096	1367.150	1041.639
305.949	18.089	1366.400	1040.933
306.964	18.250	1365.549	1041.173
307.979	18.233	1364.366	1040.073
308.993	18.271	1363.653	1039.668
310.008	18.240	1362.297	1038.356
311.022	18.385	1361.376	1038.441
312.037	18.263	1360.462	1036.915
313.052	18.295	1359.529	1036.303
314.066	18.249	1358.920	1035.471
315.081	18.191	1357.811	1034.181
316.095	18.173	1356.309	1032.837
317.110	18.120	1355.073	1031.489
318.125	18.030	1355.098	1030.872
319.139	18.129	1353.560	1030.206
320.154	18.131	1352.674	1029.455
321.168	18.103	1351.624	1028.394
322.183	18.202	1350.334	1027.918
323.197	18.184	1349.623	1027.175
324.212	18.165	1348.773	1026.323
325.227	18.226	1347.881	1025.921
326.241	18.313	1346.822	1025.546
327.256	18.233	1346.313	1024.587
328.270	18.207	1345.949	1024.066
329.285	18.248	1344.715	1023.278
330.300	18.236	1343.740	1022.378
331.314	18.301	1342.583	1021.794
332.329	18.180	1342.060	1020.583
333.343	18.193	1341.277	1019.977
334.358	18.243	1340.117	1019.298
335.373	18.430	1338.919	1019.415
336.387	18.434	1338.106	1018.728
337.402	18.328	1338.117	1018.013
338.416	18.368	1337.055	1017.353
339.431	18.514	1336.243	1017.516
340.446	18.546	1335.850	1017.312
341.460	18.572	1335.155	1016.847
342.475	18.737	1333.989	1016.848
343.489	18.709	1333.223	1016.011
344.504	18.733	1332.594	1015.581
345.519	18.705	1331.458	1014.460
346.533	18.837	1330.394	1014.339
347.548	18.875	1329.673	1013.923
348.562	18.825	1329.002	1013.028
349.577	18.871	1328.209	1012.603
350.592	18.849	1327.787	1012.061
351.606	18.730	1326.641	1010.399
352.621	18.682	1325.163	1008.901
353.635	18.620	1324.619	1008.034
354.650	18.652	1323.209	1007.063
355.665	18.588	1322.297	1005.905
356.679	18.668	1320.721	1005.084
357.694	18.763	1319.787	1004.840
358.708	18.710	1319.005	1003.843
359.723	18.813	1317.869	1003.491
360.738	18.859	1317.129	1003.110
361.752	18.810	1316.153	1001.990
362.767	18.762	1315.230	1000.918
363.781	18.777	1314.251	1000.172
364.796	18.802	1313.712	999.819
365.810	18.806	1312.913	999.148
366.825	18.873	1312.587	999.202
367.840	19.034	1311.219	999.006
368.854	19.131	1310.801	999.160
369.869	19.066	1310.555	998.507
370.883	19.181	1309.978	998.646
371.898	19.216	1308.796	997.860
372.913	19.148	1307.648	996.507
373.927	19.038	1306.999	995.283
374.942	19.114	1306.060	994.924
375.956	19.147	1305.207	994.377
376.971	19.154	1304.925	994.111
377.986	19.151	1304.101	993.377
379.000	19.186	1303.232	992.828
380.015	19.224	1302.403	992.333
381.029	19.290	1301.716	992.102
382.044	19.401	1301.116	992.189
383.059	19.334	1300.135	990.969
384.073	19.283	1299.969	990.466
385.088	19.362	1298.857	989.981
386.102	19.385	1298.142	989.481
387.117	19.372	1297.627	988.928
388.132	19.329	1296.573	987.789
389.146	19.297	1296.077	987.142
390.161	19.275	1294.948	986.071
391.175	19.290	1294.018	985.358
392.190	19.237	1293.528	984.598
393.205	19.368	1292.836	984.727
394.219	19.426	1291.434	983.904
395.234	19.553	1289.942	983.405
396.248	19.364	1288.851	981.412
397.263	19.357	1287.523	980.276
398.278	19.426	1286.126	979.513
399.292	19.317	1285.144	978.064
400.307	19.233	1284.430	976.954
401.321	19.239	1283.188	975.961
402.336	19.234	1282.202	975.093
403.350	19.209	1281.190	974.099
404.365	19.169	1280.630	973.360
405.380	19.283	1279.540	973.089
406.394	19.308	1278.969	972.710
407.409	19.395	1278.061	972.422
408.423	19.373	1277.487	971.773
409.438	19.584	1276.429	972.072
410.453	19.608	1276.214	971.958
411.467	19.716	1275.373	971.841
412.482	19.639	1274.881	970.945
413.496	19.781	1273.684	970.746
414.511	19.793	1273.602	970.662
415.526	19.899	1272.586	970.399
416.540	19.829	1272.189	969.615
417.555	19.898	1271.057	969.055
418.569	19.858	1270.758	968.518
419.584	19.885	1270.269	968.208
420.599	19.848	1269.843	967.594
421.613	141.234	1431.519	1791.257
422.628	135.713	1455.060	1791.349
