DTS Sentinel unit serial number:	SN413079Multiplexer serial number:	ORYXHardware model number:	OX4-SRSoftware version number:	ORYX F/W v4.00 Oryx Data Collector v3.7.2.0data status	okinstallation	princeton_trtdifferential loss correction	single-endedforward channel	channel 4reverse channel	N/Adate	2019/09/15time	02:41:35forward acquisition time	60.00reverse acquisition time	0.00gamma	496.2192k internal	0.2309k external	0.2309temperature offset calibration	1.0036default loss term (dB/km)	0.3790temperature slope calibration	1.0000multiplexer offset coefficient	1.0000multiplexer slope coefficient	1.0000fibre end	0.00T internal ref (°C)	31.41T ext. ref 1 (°C)	4.58T ext. ref 2 (°C)	25.83length (m)	temperature (°C)	Stokes	anti-Stokes-747.200	60.550	0.169	0.170
-746.185	-31.030	-0.139	-0.079
-745.171	256.076	0.121	0.211
-744.156	-75.514	-0.136	0.049
-743.142	92.511	-0.117	-0.134
-742.127	177.485	-0.254	0.377
-741.112	-112.598	0.056	-0.011
-740.098	-200.000	-0.019	0.154
-739.083	21.743	0.291	-0.241
-738.069	-102.932	-0.217	-0.052
-737.054	82.776	-0.184	-0.203
-736.039	-200.000	0.032	-0.381
-735.025	-144.208	0.253	0.024
-734.010	14.438	-0.274	0.217
-732.996	161.703	-0.148	-0.210
-731.981	-163.109	-0.456	-0.022
-730.966	-92.356	0.152	-0.043
-729.952	-76.714	-0.379	-0.135
-728.937	137.976	0.078	-0.104
-727.923	233.944	-0.170	-0.285
-726.908	-200.000	-0.001	-0.133
-725.894	-47.194	-0.344	0.170
-724.879	220.413	0.142	0.232
-723.864	256.688	0.012	0.021
-722.850	-87.547	-0.121	-0.037
-721.835	-200.000	-0.018	-0.133
-720.821	-81.533	0.144	0.048
-719.806	-146.533	-0.317	-0.028
-718.791	66.633	0.053	0.054
-717.777	-63.071	0.198	0.083
-716.762	234.666	0.099	0.165
-715.748	-113.604	-0.436	-0.087
-714.733	121.817	-0.147	-0.186
-713.718	-108.318	0.254	-0.056
-712.704	105.369	0.141	0.169
-711.689	-111.942	-0.171	-0.035
-710.675	542.969	0.113	0.273
-709.660	800.000	-0.084	0.301
-708.645	-200.000	-0.015	0.135
-707.631	-62.489	0.303	0.128
-706.616	-4.533	0.104	0.073
-705.602	-17.858	0.289	-0.184
-704.587	-200.000	-0.034	0.259
-703.572	-200.000	-0.025	0.118
-702.558	-105.176	-0.170	0.039
-701.543	309.001	0.264	0.499
-700.529	81.803	-0.085	-0.093
-699.514	-139.858	-0.234	0.025
-698.499	296.854	-0.209	-0.390
-697.485	35.637	-0.190	-0.169
-696.470	-27.399	-0.181	0.107
-695.456	365.147	0.036	0.073
-694.441	800.000	-0.083	0.240
-693.426	242.319	0.047	0.080
-692.412	-200.000	-0.049	0.268
-691.397	-200.000	0.027	-0.390
-690.383	-132.929	-0.394	-0.051
-689.368	35.449	0.117	0.104
-688.354	-97.513	-0.459	0.121
-687.339	-100.423	-0.193	0.048
-686.324	605.070	0.089	0.224
-685.310	-28.090	0.108	-0.064
-684.295	-152.058	0.133	0.010
-683.281	-33.203	0.117	-0.066
-682.266	83.485	-0.105	0.116
-681.251	660.373	-0.059	0.154
-680.237	-56.721	0.097	0.044
-679.222	282.048	-0.226	-0.410
-678.208	14.225	-0.122	-0.096
-677.193	13.196	-0.108	-0.085
-676.178	800.000	0.075	-0.231
-675.164	800.000	-0.099	-0.277
-674.149	800.000	0.055	-0.175
-673.135	-37.965	0.159	-0.086
-672.120	-200.000	-0.008	0.180
-671.105	56.806	-0.053	0.052
-670.091	-165.213	-0.219	0.010
-669.076	182.614	-0.032	0.048
-668.062	-132.199	-0.452	-0.059
-667.047	17.607	0.118	-0.095
-666.032	-83.071	-0.248	-0.081
-665.018	57.676	-0.136	0.135
-664.003	-88.699	0.092	0.028
-662.989	-70.227	0.222	0.085
-661.974	-127.078	-0.080	-0.012
-660.959	-32.396	0.193	-0.109
-659.945	-125.122	-0.133	0.021
-658.930	-58.325	0.182	-0.080
-657.916	-92.026	-0.335	0.096
-656.901	-75.781	-0.234	-0.084
-655.886	37.900	-0.111	-0.100
-654.872	65.430	-0.202	-0.207
-653.857	-15.671	-0.238	0.153
-652.843	-37.515	-0.088	0.047
-651.828	-54.329	0.072	-0.033
-650.814	-131.203	-0.145	-0.020
-649.799	2.627	-0.331	-0.243
-648.784	-98.551	-0.318	0.082
-647.770	-98.637	-0.436	0.113
-646.755	-15.958	-0.146	0.094
-645.741	-200.000	-0.002	0.260
-644.726	-200.000	-0.018	0.222
-643.711	-52.202	-0.341	0.160
-642.697	-48.882	0.047	0.023
-641.682	-200.000	-0.035	0.260
-640.668	-119.571	-0.292	-0.051
-639.653	800.000	-0.014	-0.062
-638.638	361.233	0.182	-0.369
-637.624	-200.000	0.013	0.385
-636.609	187.544	-0.106	-0.160
-635.595	-7.120	-0.364	-0.250
-634.580	-117.892	0.114	-0.021
-633.565	5.315	-0.279	-0.208
-632.551	8.117	-0.062	-0.047
-631.536	800.000	0.065	0.272
-630.522	-200.000	0.033	-0.296
-629.507	191.438	0.215	-0.327
-628.492	340.825	0.071	0.140
-627.478	287.960	-0.110	0.202
-626.463	231.325	-0.070	0.116
-625.449	255.653	-0.164	-0.284
-624.434	-16.905	0.125	-0.080
-623.419	-200.000	0.016	-0.244
-622.405	71.065	-0.047	0.049
-621.390	196.191	-0.244	0.376
-620.376	-23.648	-0.168	0.102
-619.361	-94.104	-0.239	0.066
-618.346	388.801	0.042	0.087
-617.332	-88.821	-0.303	0.091
-616.317	-21.430	-0.064	-0.039
-615.303	800.000	0.036	0.141
-614.288	-110.599	-0.368	-0.077
-613.273	800.000	0.042	-0.121
-612.259	800.000	-0.032	0.139
-611.244	-200.000	-0.017	0.156
-610.230	37.449	0.167	-0.149
-609.215	227.112	0.198	-0.325
-608.201	-157.783	-0.306	-0.018
-607.186	91.568	0.070	0.080
-606.171	-174.519	-0.217	0.006
-605.157	-108.506	-0.091	0.020
-604.142	236.671	-0.115	-0.193
-603.128	-103.083	0.054	0.013
-602.113	-71.422	0.233	0.088
-601.098	-187.976	-0.239	-0.003
-600.084	-182.096	-0.376	0.007
-599.069	-200.000	-0.003	-0.353
-598.055	-200.000	0.014	-0.254
-597.040	-100.207	0.202	0.051
-596.025	-19.139	-0.301	-0.189
-595.011	101.072	-0.120	-0.141
-593.996	800.000	-0.033	-0.122
-592.982	-58.253	0.313	0.138
-591.967	-200.000	0.031	-0.249
-590.952	-53.652	0.375	0.173
-589.938	-200.000	0.020	0.118
-588.923	257.060	0.039	-0.068
-587.909	74.270	-0.124	-0.131
-586.894	202.968	0.102	0.160
-585.879	800.000	0.033	-0.117
-584.865	6.637	-0.150	-0.113
-583.850	-146.293	-0.149	-0.013
-582.836	-200.000	-0.023	-0.453
-581.821	31.141	-0.200	-0.173
-580.806	-200.000	0.004	0.323
-579.792	-88.446	0.130	0.039
-578.777	90.877	0.111	-0.125
-577.763	196.520	0.163	0.251
-576.748	-200.000	0.031	0.292
-575.733	500.478	-0.140	-0.326
-574.719	800.000	0.102	-0.331
-573.704	72.909	0.239	-0.252
-572.690	-200.000	0.005	-0.375
-571.675	-29.058	0.115	0.066
-570.661	-63.499	-0.145	-0.060
-569.646	-95.282	0.243	0.066
-568.631	-200.000	-0.031	0.160
-567.617	-200.000	0.004	0.119
-566.602	256.605	-0.070	-0.121
-565.588	-169.037	-0.436	-0.016
-564.573	-151.399	0.336	-0.025
-563.558	-13.602	0.082	-0.054
-562.544	-30.716	0.129	0.074
-561.529	-138.219	-0.132	-0.015
-560.515	7.508	-0.159	0.120
-559.500	164.111	-0.082	0.117
-558.485	403.540	-0.161	0.342
-557.471	-200.000	-0.003	-0.444
-556.456	-137.209	0.103	0.012
-555.442	183.716	0.151	-0.225
-554.427	-33.050	0.028	0.016
-553.412	33.671	0.051	-0.045
-552.398	492.904	-0.050	0.115
-551.383	800.000	0.072	-0.219
-550.369	-200.000	-0.003	-0.184
-549.354	-30.448	-0.272	-0.156
-548.339	118.188	-0.039	0.049
-547.325	-200.000	-0.018	0.126
-546.310	-200.000	-0.021	-0.242
-545.296	-102.435	-0.130	0.031
-544.281	800.000	-0.016	0.066
-543.266	-106.747	0.080	-0.018
-542.252	488.476	0.063	-0.145
-541.237	115.995	-0.303	-0.374
-540.223	-141.949	0.332	0.033
-539.208	17.728	0.306	0.245
-538.193	-21.969	-0.246	-0.151
-537.179	-200.000	-0.012	0.248
-536.164	-200.000	0.030	0.391
-535.150	-200.000	0.106	0.479
-534.135	800.000	0.090	-0.257
-533.121	-179.317	-0.158	-0.004
-532.106	-200.000	0.302	-0.001
-531.091	-200.000	0.019	0.244
-530.077	-45.888	0.040	-0.020
-529.062	-77.718	-0.111	-0.039
-528.048	131.281	-0.176	-0.228
-527.033	-118.894	-0.073	-0.013
-526.018	-200.000	-0.012	0.116
-525.004	-17.022	0.157	-0.100
-523.989	37.943	-0.110	-0.099
-522.975	-23.787	0.115	0.069
-521.960	-31.765	-0.044	-0.025
-520.945	-200.000	-0.024	0.138
-519.931	-200.000	0.178	0.001
-518.916	-1.512	-0.132	0.094
-517.902	117.256	0.276	0.342
-516.887	376.914	0.033	-0.068
-515.872	-134.913	-0.374	0.046
-514.858	-170.327	-0.110	0.004
-513.843	-66.298	-0.035	-0.014
-512.829	-11.145	0.170	0.113
-511.814	800.000	-0.079	0.252
-510.799	111.588	-0.003	-0.004
-509.785	18.915	0.371	-0.299
-508.770	-0.078	-0.296	-0.212
-507.756	-161.265	-0.042	0.002
-506.741	95.921	0.253	0.291
-505.726	-200.000	-0.030	0.262
-504.712	173.839	-0.068	-0.099
-503.697	-79.566	-0.246	-0.083
-502.683	-68.100	0.193	0.076
-501.668	254.361	-0.025	0.043
-500.653	-74.396	-0.288	-0.105
-499.639	-69.169	-0.114	-0.044
-498.624	-186.837	0.256	0.004
-497.610	556.232	-0.116	-0.280
-496.595	-200.000	0.046	-0.372
-495.581	627.931	-0.086	0.218
-494.566	60.148	-0.067	-0.067
-493.551	49.886	-0.283	-0.269
-492.537	-57.795	-0.259	-0.114
-491.522	278.584	0.130	0.233
-490.508	-164.605	-0.212	0.010
-489.493	7.435	-0.186	-0.140
-488.478	-186.768	0.270	-0.004
-487.464	237.707	0.158	-0.264
-486.449	-21.634	-0.354	-0.217
-485.435	70.233	0.207	0.215
-484.420	-200.000	0.033	0.186
-483.405	-127.175	-0.115	-0.017
-482.391	135.008	0.041	0.054
-481.376	277.052	-0.093	0.167
-480.362	800.000	-0.070	-0.288
-479.347	-137.940	0.209	-0.023
-478.332	342.258	-0.056	-0.110
-477.318	-18.034	-0.115	-0.072
-476.303	129.662	0.114	0.146
-475.289	-200.000	-0.026	-0.445
-474.274	-200.000	-0.025	0.158
-473.259	-53.519	-0.172	-0.079
-472.245	98.175	0.195	-0.226
-471.230	97.281	0.054	-0.063
-470.216	204.053	0.023	0.035
-469.201	-75.197	-0.254	-0.091
-468.186	-54.426	-0.313	0.143
-467.172	48.911	0.169	-0.160
-466.157	1.689	-0.313	-0.227
-465.143	7.470	0.069	-0.052
-464.128	-32.609	-0.086	0.048
-463.113	71.529	0.087	-0.090
-462.099	323.276	0.136	-0.260
-461.084	-137.593	-0.335	-0.038
-460.070	800.000	0.025	0.086
-459.055	-81.550	0.475	-0.157
-458.040	-200.000	-0.003	0.074
-457.026	-30.663	-0.077	-0.044
-456.011	800.000	0.033	-0.135
-454.997	-70.384	0.188	0.072
-453.982	153.487	0.141	-0.194
-452.968	-119.384	0.036	0.006
-451.953	160.662	0.233	0.327
-450.938	-83.157	0.268	-0.087
-449.924	-103.189	-0.214	-0.051
-448.909	608.802	-0.079	-0.198
-447.895	-200.000	0.189	-0.001
-446.880	289.983	-0.029	0.052
-445.865	32.609	-0.171	0.148
-444.851	109.669	0.117	0.141
-443.836	6.690	0.252	-0.189
-442.822	-152.838	-0.140	-0.010
-441.807	-120.834	0.030	-0.005
-440.792	-66.206	0.167	-0.067
-439.778	112.807	-0.198	-0.241
-438.763	-200.000	0.001	0.227
-437.749	499.179	0.072	-0.167
-436.734	-36.252	-0.061	-0.033
-435.719	-117.556	-0.242	0.044
-434.705	451.657	0.083	-0.184
-433.690	-35.653	0.071	-0.039
-432.676	-200.000	0.026	-0.282
-431.661	-81.250	0.098	-0.032
-430.646	-148.282	-0.219	-0.018
-429.632	-200.000	0.055	-0.244
-428.617	-200.000	0.001	-0.058
-427.603	9.222	0.223	0.169
-426.588	239.376	-0.044	-0.074
-425.573	183.748	0.154	0.229
-424.559	-153.873	0.242	-0.017
-423.544	104.143	-0.245	0.289
-422.530	54.811	0.218	0.211
-421.515	456.320	-0.114	0.254
-420.500	137.834	0.028	0.037
-419.486	34.736	0.098	0.086
-418.471	391.534	0.034	0.071
-417.457	182.947	0.116	-0.172
-416.442	-200.000	-0.040	-0.244
-415.428	99.948	-0.126	-0.146
-414.413	-95.213	-0.172	-0.047
-413.398	-169.681	0.209	0.008
-412.384	10.387	0.445	0.340
-411.369	-138.022	0.205	0.023
-410.355	-50.397	0.122	0.058
-409.340	53.691	0.215	0.207
-408.325	17.545	0.189	0.151
-407.311	800.000	0.020	0.089
-406.296	-70.995	-0.268	-0.101
-405.282	-200.000	0.035	-0.271
-404.267	-105.033	-0.143	-0.033
-403.252	-200.000	-0.006	0.264
-402.238	-50.901	0.214	-0.101
-401.223	-77.948	0.116	-0.040
-400.209	139.918	-0.223	-0.294
-399.194	13.897	0.141	0.110
-398.179	800.000	0.055	-0.186
-397.165	-49.716	-0.093	0.045
-396.150	138.435	-0.068	0.089
-395.136	-165.062	0.289	-0.013
-394.121	800.000	0.047	0.206
-393.106	-111.714	0.148	-0.030
-392.092	-88.550	-0.212	-0.063
-391.077	-33.047	0.242	0.134
-390.063	-80.894	-0.033	0.011
-389.048	-200.000	-0.013	-0.188
-388.033	-126.312	0.102	0.015
-387.019	550.955	-0.131	0.315
-386.004	-200.000	0.002	-0.088
-384.990	-112.115	-0.089	0.018
-383.975	462.169	0.044	-0.097
-382.960	-53.389	0.189	0.087
-381.946	374.920	-0.200	0.408
-380.931	48.089	0.191	0.179
-379.917	-33.650	0.190	-0.105
-378.902	-98.908	-0.077	0.019
-377.888	54.809	0.082	0.079
-376.873	92.504	-0.198	-0.224
-375.858	155.476	-0.038	0.053
-374.844	-49.270	-0.118	0.056
-373.829	800.000	0.056	0.162
-372.815	-47.148	-0.221	-0.108
-371.800	-68.446	0.161	0.063
-370.785	159.356	0.103	0.144
-369.771	406.867	-0.096	-0.204
-368.756	-7.715	-0.248	0.167
-367.742	-73.456	0.399	0.146
-366.727	-17.461	0.365	0.230
-365.712	-200.000	0.006	0.047
-364.698	-34.908	0.184	-0.100
-363.683	-200.000	0.029	0.405
-362.669	-6.345	-0.284	0.194
-361.654	800.000	-0.058	0.218
-360.639	-107.644	-0.257	-0.056
-359.625	-27.397	-0.161	-0.094
-358.610	85.746	0.129	0.142
-357.596	130.052	0.223	0.286
-356.581	-200.000	-0.027	0.208
-355.566	-72.934	0.244	0.090
-354.552	-159.243	-0.003	0.000
-353.537	800.000	0.052	-0.173
-352.523	18.994	0.217	0.174
-351.508	-79.847	-0.387	-0.130
-350.493	-38.461	-0.115	-0.061
-349.479	73.620	-0.189	-0.198
-348.464	26.014	0.180	-0.150
-347.450	-92.334	0.286	0.081
-346.435	180.749	0.097	0.143
-345.420	-200.000	-0.053	0.258
-344.406	196.497	-0.036	0.055
-343.391	81.341	0.105	0.114
-342.377	800.000	-0.073	0.244
-341.362	15.845	0.254	0.200
-340.348	212.133	0.075	0.119
-339.333	-91.604	0.201	-0.057
-338.318	800.000	-0.070	0.290
-337.304	-73.396	0.228	0.083
-336.289	-100.014	-0.256	0.064
-335.275	-200.000	-0.014	0.406
-334.260	759.989	-0.022	-0.059
-333.245	-88.610	-0.294	-0.087
-332.231	-200.000	0.096	-0.435
-331.216	-45.566	0.051	-0.025
-330.202	19.438	0.061	-0.049
-329.187	-179.397	-0.370	0.008
-328.172	-124.918	-0.062	-0.010
-327.158	800.000	0.033	-0.132
-326.143	800.000	0.132	-0.419
-325.129	-139.971	-0.394	-0.042
-324.114	-200.000	-0.003	0.260
-323.099	41.883	-0.282	-0.256
-322.085	795.305	0.041	0.113
-321.070	-19.564	-0.079	0.049
-320.056	-135.129	-0.297	-0.036
-319.041	9.703	-0.122	-0.092
-318.026	-200.000	-0.004	-0.228
-317.012	112.560	-0.134	0.162
-315.997	-118.895	0.171	-0.030
-314.983	-200.000	0.019	0.104
-313.968	5.933	-0.112	0.083
-312.953	-64.061	-0.063	0.026
-311.939	202.121	0.176	0.271
-310.924	800.000	0.065	-0.187
-309.910	43.978	0.053	-0.049
-308.895	-200.000	-0.010	0.224
-307.880	25.805	-0.087	0.073
-306.866	800.000	-0.014	0.046
-305.851	-200.000	-0.033	0.265
-304.837	800.000	-0.023	0.068
-303.822	-124.878	-0.306	0.047
-302.807	12.241	-0.126	0.097
-301.793	800.000	0.152	-0.493
-300.778	225.088	-0.096	-0.156
-299.764	-46.311	0.405	0.199
-298.749	-200.000	-0.011	-0.136
-297.735	255.210	0.160	-0.273
-296.720	-200.000	-0.010	-0.210
-295.705	14.219	0.214	-0.167
-294.691	-115.497	-0.176	-0.033
-293.676	55.717	0.218	0.211
-292.662	800.000	-0.024	-0.081
-291.647	-105.688	0.204	-0.046
-290.632	-51.473	0.065	-0.030
-289.618	-98.979	0.134	-0.034
-288.603	11.731	-0.187	-0.143
-287.589	-83.127	-0.203	-0.065
-286.574	800.000	0.066	-0.246
-285.559	-118.901	-0.080	0.014
-284.545	362.189	0.118	0.236
-283.530	-200.000	-0.011	-0.296
-282.516	-200.000	0.013	-0.130
-281.501	21.460	0.053	-0.043
-280.486	-43.624	0.126	-0.063
-279.472	-67.916	-0.079	0.031
-278.457	324.061	0.132	-0.252
-277.443	-200.000	0.061	-0.270
-276.428	-200.000	0.015	-0.092
-275.413	172.999	-0.097	-0.139
-274.399	-200.000	0.068	0.000
-273.384	21.464	-0.118	0.095
-272.370	531.109	0.069	-0.162
-271.355	-200.000	0.053	-0.337
-270.340	-200.000	-0.008	0.223
-269.326	462.620	-0.114	0.254
-268.311	67.139	-0.154	-0.156
-267.297	-200.000	0.003	0.147
-266.282	-60.071	0.365	-0.155
-265.267	-20.959	-0.127	0.077
-264.253	240.018	-0.135	-0.224
-263.238	114.841	0.026	0.032
-262.224	-151.174	0.256	0.019
-261.209	674.069	0.071	0.185
-260.195	-173.555	0.262	0.008
-259.180	-84.411	-0.188	-0.059
-258.165	-64.411	-0.173	-0.070
-257.151	-200.000	0.050	0.282
-256.136	-75.354	0.274	0.097
-255.122	-200.000	-0.066	0.417
-254.107	239.581	-0.034	0.057
-253.092	-200.000	0.003	-0.267
-252.078	99.060	0.189	0.218
-251.063	262.033	0.127	0.219
-250.049	-108.433	-0.240	0.052
-249.034	800.000	-0.073	0.252
-248.019	-31.043	-0.065	0.036
-247.005	-39.201	0.410	0.215
-245.990	236.997	-0.138	-0.227
-244.976	-65.285	-0.327	0.131
-243.961	45.292	0.303	-0.279
-242.946	15.292	0.170	-0.133
-241.932	228.991	0.053	-0.085
-240.917	592.234	0.022	0.053
-239.903	-60.386	0.161	-0.068
-238.888	66.344	-0.179	-0.181
-237.873	-134.398	-0.069	0.008
-236.859	426.792	-0.039	0.084
-235.844	-24.254	-0.289	-0.172
-234.830	800.000	-0.031	0.127
-233.815	-113.869	0.379	0.073
-232.800	-72.081	0.299	-0.110
-231.786	-166.614	0.208	0.009
-230.771	-47.390	-0.304	0.147
-229.757	423.476	0.114	0.244
-228.742	72.428	-0.077	-0.080
-227.727	-200.000	0.014	0.075
-226.713	-200.000	0.063	-0.347
-225.698	50.477	-0.225	0.212
-224.684	-200.000	-0.020	0.274
-223.669	223.022	-0.045	-0.072
-222.655	-178.855	-0.405	-0.009
-221.640	-146.463	0.461	0.040
-220.625	152.214	0.056	0.077
-219.611	-200.000	-0.041	0.182
-218.596	698.846	0.056	0.147
-217.582	-83.191	0.065	0.021
-216.567	-53.971	-0.131	0.059
-215.552	-142.197	0.081	0.008
-214.538	318.201	0.172	0.324
-213.523	156.819	-0.212	0.291
-212.509	800.000	0.040	0.140
-211.494	-105.496	0.148	0.033
-210.479	-15.176	-0.172	-0.109
-209.465	-90.687	-0.037	-0.011
-208.450	800.000	0.045	-0.124
-207.436	-200.000	-0.020	0.153
-206.421	-108.561	0.300	0.064
-205.406	800.000	0.049	-0.137
-204.392	800.000	-0.032	0.089
-203.377	306.090	-0.081	0.149
-202.363	-125.200	-0.069	0.011
-201.348	638.855	0.176	0.445
-200.333	-200.000	-0.015	-0.075
-199.319	131.329	0.113	-0.145
-198.304	101.064	0.126	0.145
-197.290	163.280	-0.223	0.311
-196.275	800.000	0.010	-0.035
-195.260	45.834	0.167	-0.154
-194.246	800.000	-0.064	-0.196
-193.231	-42.794	0.250	0.126
-192.217	-6.232	-0.077	-0.052
-191.202	-200.000	-0.009	-0.157
-190.187	774.285	0.024	-0.066
-189.173	-117.431	0.140	0.025
-188.158	-85.857	0.439	0.135
-187.144	-69.557	0.222	-0.084
-186.129	-196.310	0.102	-0.001
-185.114	-93.542	0.173	0.048
-184.100	299.621	0.022	0.040
-183.085	-97.035	-0.218	-0.057
-182.071	60.977	-0.332	-0.328
-181.056	-98.946	-0.371	0.094
-180.042	9.859	0.326	0.246
-179.027	216.351	-0.081	0.129
-178.012	671.822	0.113	-0.292
-176.998	-200.000	-0.015	-0.273
-175.983	-84.197	0.257	-0.081
-174.969	800.000	-0.069	-0.288
-173.954	367.816	-0.063	0.127
-172.939	-200.000	-0.010	0.222
-171.925	-104.932	0.334	0.076
-170.910	-70.901	-0.182	0.068
-169.896	242.190	-0.164	-0.273
-168.881	-119.727	-0.177	-0.030
-167.866	-200.000	0.004	-0.103
-166.852	-200.000	-0.025	-0.175
-165.837	-51.340	0.102	0.047
-164.823	365.479	0.019	-0.039
-163.808	7.137	-0.275	0.204
-162.793	509.458	0.068	0.158
-161.779	-20.982	-0.174	-0.106
-160.764	-50.870	-0.288	0.134
-159.750	16.097	0.282	0.221
-158.735	636.728	0.076	0.191
-157.720	-200.000	0.017	0.117
-156.706	111.653	-0.122	0.146
-155.691	-134.296	0.495	-0.060
-154.677	-155.878	0.333	0.021
-153.662	105.798	-0.352	-0.414
-152.647	-135.576	-0.245	0.029
-151.633	316.496	0.064	0.120
-150.618	-43.853	-0.128	-0.064
-149.604	-165.340	-0.111	-0.005
-148.589	-48.988	0.131	0.062
-147.574	-9.989	-0.104	-0.068
-146.560	-154.753	-0.108	-0.007
-145.545	-116.045	0.163	0.030
-144.531	-71.222	0.176	-0.066
-143.516	-92.065	-0.385	0.108
-142.502	114.687	-0.190	0.230
-141.487	340.411	0.018	0.035
-140.472	-78.506	0.219	0.074
-139.458	-180.896	-0.276	0.006
-138.443	-56.853	-0.145	-0.064
-137.429	-7.156	-0.166	0.112
-136.414	-55.098	-0.102	-0.046
-135.399	-103.267	-0.412	0.097
-134.385	-108.328	0.194	-0.042
-133.370	299.102	0.035	0.064
-132.356	725.046	0.159	-0.419
-131.341	-200.000	-0.070	-0.330
-130.326	-105.923	-0.103	0.023
-129.312	-139.335	-0.020	-0.002
-128.297	33.228	-0.046	0.040
-127.283	800.000	-0.077	0.222
-126.268	-200.000	-0.037	-0.165
-125.253	305.659	0.195	-0.360
-124.239	-62.661	-0.234	-0.096
-123.224	375.169	0.098	0.199
-122.210	800.000	-0.061	0.173
-121.195	-60.475	0.356	0.150
-120.180	-17.212	0.088	0.055
-119.166	-58.676	-0.221	0.095
-118.151	-200.000	-0.014	-0.127
-117.137	800.000	-0.039	0.145
-116.122	800.000	-0.075	0.291
-115.107	800.000	0.069	0.215
-114.093	166.926	0.080	-0.112
-113.078	-200.000	-0.041	-0.250
-112.064	-156.630	-0.116	-0.007
-111.049	195.909	0.170	0.256
-110.034	-126.696	-0.086	-0.013
-109.020	-96.304	-0.059	-0.015
-108.005	-19.990	-0.059	0.036
-106.991	113.312	-0.203	0.244
-105.976	800.000	0.052	0.197
-104.962	-200.000	-0.000	0.347
-103.947	652.608	0.093	-0.236
-102.932	-106.556	-0.214	-0.047
-101.918	78.088	-0.066	-0.070
-100.903	119.267	-0.046	0.057
-99.889	-77.991	0.040	0.013
-98.874	-200.000	-0.085	-0.421
-97.859	452.770	-0.122	-0.268
-96.845	-65.859	0.346	-0.137
-95.830	-28.473	-0.179	0.102
-94.816	-85.135	-0.159	-0.049
-93.801	800.000	-0.110	0.310
-92.786	161.847	-0.029	-0.040
-91.772	800.000	-0.085	-0.267
-90.757	132.494	-0.089	0.114
-89.743	159.369	-0.120	0.166
-88.728	-200.000	-0.023	-0.157
-87.713	-148.381	-0.078	0.006
-86.699	78.608	0.210	0.222
-85.684	191.451	-0.187	0.279
-84.670	-71.397	0.008	0.003
-83.655	612.206	-0.059	-0.145
-82.640	800.000	0.011	0.032
-81.626	-72.290	0.252	-0.092
-80.611	-35.346	-0.022	0.012
-79.597	100.998	-0.073	-0.084
-78.582	-49.868	-0.355	0.167
-77.567	-13.176	-0.321	0.206
-76.553	800.000	0.057	0.174
-75.538	-200.000	-0.026	0.222
-74.524	-200.000	0.020	-0.095
-73.509	-42.097	0.214	0.108
-72.494	-101.078	0.190	-0.046
-71.480	-130.097	0.201	-0.027
-70.465	-175.866	0.041	0.001
-69.451	800.000	0.029	0.113
-68.436	548.615	0.038	-0.091
-67.422	-141.303	-0.326	0.033
-66.407	47.024	-0.225	0.207
-65.392	290.354	0.113	0.204
-64.378	195.094	-0.134	0.201
-63.363	-55.333	0.501	-0.223
-62.349	-200.000	-0.020	-0.153
-61.334	23.704	-1.245	-1.014
-60.319	66.779	0.577	0.581
-59.305	800.000	-0.301	-0.848
-58.290	137.082	0.682	0.881
-57.276	658.033	0.773	1.966
-56.261	-200.000	99.608	607.187
-55.246	596.894	1397.839	3425.163
-54.232	190.361	2585.837	3842.044
-53.217	107.928	2304.227	2715.779
-52.203	38.070	2063.797	1815.858
-51.188	33.150	1978.751	1696.937
-50.173	31.559	1960.788	1667.301
-49.159	46.749	2012.200	1848.508
-48.144	47.904	2030.493	1875.672
-47.130	33.718	1990.949	1712.256
-46.115	31.398	1980.174	1682.073
-45.100	31.319	1977.483	1679.010
-44.086	31.315	1975.070	1676.858
-43.071	31.260	1972.787	1674.358
-42.057	31.235	1970.584	1672.201
-41.042	31.262	1968.549	1670.645
-40.027	31.298	1966.621	1669.263
-39.013	31.305	1964.551	1667.500
-37.998	31.310	1962.862	1666.050
-36.984	31.387	1961.029	1665.112
-35.969	31.393	1958.665	1663.089
-34.954	31.405	1956.885	1661.619
-33.940	31.397	1955.794	1660.561
-32.925	31.428	1954.771	1659.898
-31.911	31.437	1952.354	1657.860
-30.896	31.424	1950.707	1656.279
-29.881	31.418	1949.558	1655.190
-28.867	31.519	1947.311	1654.110
-27.852	31.490	1945.555	1652.290
-26.838	31.470	1944.054	1650.775
-25.823	31.376	1942.549	1648.603
-24.809	31.456	1940.854	1647.807
-23.794	31.453	1938.361	1645.597
-22.779	31.354	1937.759	1644.150
-21.765	31.474	1935.741	1643.426
-20.750	31.437	1933.757	1641.353
-19.736	31.379	1932.638	1639.826
-18.721	31.449	1930.584	1638.630
-17.706	31.423	1929.026	1637.019
-16.692	31.434	1927.204	1635.503
-15.677	31.375	1926.039	1633.936
-14.663	31.445	1924.432	1633.120
-13.648	31.432	1922.979	1631.709
-12.633	31.432	1922.009	1630.819
-11.619	31.434	1920.777	1629.730
-10.604	31.418	1919.133	1628.125
-9.590	31.406	1918.035	1627.027
-8.575	31.370	1916.835	1625.634
-7.560	31.360	1915.686	1624.506
-6.546	31.428	1914.156	1623.734
-5.531	31.334	1913.183	1622.024
-4.517	31.431	1911.745	1621.584
-3.502	31.400	1910.529	1620.223
-2.487	31.403	1909.792	1619.560
-1.473	31.416	1908.609	1618.606
-0.458	31.503	1903.303	1614.791
0.556	30.574	1883.994	1587.206
1.571	26.231	1865.101	1534.356
2.586	22.288	1887.348	1518.548
3.600	21.316	1923.077	1538.604
4.615	20.778	1916.993	1528.882
5.629	16.019	1817.557	1409.729
6.644	8.314	1702.377	1259.694
7.659	4.910	1667.610	1207.514
8.673	4.609	1664.719	1202.982
9.688	4.532	1663.403	1201.332
10.702	4.625	1661.671	1200.691
11.717	4.564	1658.412	1197.757
12.731	4.997	1657.623	1200.419
13.746	9.980	1670.100	1247.919
14.761	16.967	1684.555	1312.872
15.775	19.174	1687.269	1331.961
16.790	18.529	1684.078	1324.346
17.804	17.391	1681.047	1313.066
18.819	16.441	1677.465	1302.832
19.834	15.764	1674.613	1295.285
20.848	15.447	1674.150	1292.377
21.863	15.255	1672.218	1289.295
22.877	14.987	1670.628	1285.893
23.892	14.857	1669.259	1283.730
24.907	14.708	1668.468	1281.862
25.921	14.718	1667.301	1280.931
26.936	14.713	1666.170	1279.904
27.950	14.726	1665.303	1279.231
28.965	14.698	1664.836	1278.540
29.980	14.799	1664.103	1278.641
30.994	14.977	1663.424	1279.361
32.009	15.053	1661.878	1278.646
33.023	15.053	1661.371	1278.140
34.038	15.061	1660.257	1277.227
35.053	15.038	1658.838	1275.851
36.067	15.048	1657.279	1274.613
37.082	14.876	1656.829	1272.845
38.096	14.918	1655.868	1272.311
39.111	14.971	1655.014	1271.952
40.126	14.973	1654.166	1271.197
41.140	14.900	1653.316	1269.880
42.155	14.877	1651.443	1268.157
43.169	14.736	1650.048	1265.906
44.184	14.605	1649.256	1264.188
45.199	14.683	1647.960	1263.679
46.213	14.607	1647.029	1262.277
47.228	14.700	1645.179	1261.446
48.242	14.775	1644.604	1261.462
49.257	14.803	1643.693	1260.865
50.271	14.857	1641.867	1259.755
51.286	14.823	1640.892	1258.645
52.301	14.843	1639.687	1257.760
53.315	14.855	1638.017	1256.458
54.330	14.843	1636.475	1255.068
55.344	14.732	1635.111	1253.079
56.359	14.659	1633.525	1251.208
57.374	14.691	1632.584	1250.615
58.388	14.611	1631.675	1249.211
59.403	14.662	1629.965	1248.170
60.417	14.535	1629.013	1246.386
61.432	14.559	1627.959	1245.649
62.447	14.628	1626.764	1245.135
63.461	14.544	1625.452	1243.393
64.476	14.474	1624.568	1242.086
65.490	14.517	1623.117	1241.185
66.505	14.548	1622.093	1240.530
67.520	14.456	1621.024	1238.913
68.534	14.543	1620.069	1238.718
69.549	14.546	1618.920	1237.755
70.563	14.585	1617.133	1236.570
71.578	14.594	1616.135	1235.766
72.593	14.494	1615.417	1234.367
73.607	14.514	1614.334	1233.578
74.622	14.492	1612.949	1232.248
75.636	14.326	1612.340	1230.447
76.651	14.463	1611.462	1230.675
77.666	14.460	1610.486	1229.801
78.680	14.483	1609.662	1229.229
79.695	14.414	1608.944	1228.071
80.709	14.433	1608.219	1227.544
81.724	14.497	1607.294	1227.203
82.739	14.665	1605.969	1227.319
83.753	14.631	1605.515	1226.611
84.768	14.707	1604.518	1226.301
85.782	14.756	1604.074	1226.207
86.797	14.907	1602.697	1226.156
87.812	14.901	1602.177	1225.609
88.826	14.830	1600.413	1223.628
89.841	14.749	1599.621	1222.322
90.855	14.794	1598.440	1221.645
91.870	14.881	1597.235	1221.249
92.884	14.826	1596.646	1220.288
93.899	14.943	1595.207	1219.936
94.914	14.915	1594.319	1218.943
95.928	14.994	1592.884	1218.312
96.943	15.024	1591.601	1217.444
97.957	14.950	1590.543	1215.988
98.972	14.846	1588.821	1213.806
99.987	14.834	1587.522	1212.621
101.001	14.804	1586.536	1211.544
102.016	14.889	1584.610	1210.579
103.030	14.805	1583.284	1208.850
104.045	14.777	1582.639	1208.049
105.060	14.836	1581.117	1207.209
106.074	14.885	1578.765	1205.656
107.089	14.739	1577.120	1203.247
108.103	14.661	1576.008	1201.726
109.118	14.565	1574.497	1199.777
110.133	14.517	1573.230	1198.360
111.147	14.569	1571.765	1197.514
112.162	14.559	1570.727	1196.543
113.176	14.594	1569.232	1195.549
114.191	14.625	1568.096	1194.800
115.206	14.686	1566.637	1194.023
116.220	14.690	1565.392	1192.994
117.235	14.703	1564.066	1191.971
118.249	14.675	1562.644	1190.580
119.264	14.724	1561.330	1189.824
120.279	14.529	1560.371	1187.603
121.293	14.567	1558.823	1186.589
122.308	14.531	1557.086	1184.908
123.322	14.538	1555.750	1183.837
124.337	14.565	1554.110	1182.671
125.352	14.485	1552.960	1181.129
126.366	14.555	1551.560	1180.450
127.381	14.393	1550.946	1178.736
128.395	14.501	1549.564	1178.345
129.410	14.487	1548.106	1177.029
130.424	14.515	1546.867	1176.179
131.439	14.598	1545.368	1175.524
132.454	14.538	1544.776	1174.549
133.468	14.684	1542.914	1174.052
134.483	14.725	1541.929	1173.490
135.497	14.714	1540.096	1171.916
136.512	14.656	1539.026	1170.589
137.527	14.732	1537.514	1169.867
138.541	14.765	1536.715	1169.386
139.556	14.791	1534.774	1167.988
140.570	14.735	1533.727	1166.699
141.585	14.748	1531.944	1165.328
142.600	14.882	1531.197	1165.592
143.614	15.016	1529.722	1165.298
144.629	14.951	1529.051	1164.228
145.643	14.996	1527.791	1163.480
146.658	15.070	1526.091	1162.594
147.673	15.067	1524.549	1161.302
148.687	14.913	1523.269	1159.157
149.702	14.975	1522.048	1158.554
150.716	14.827	1520.262	1156.066
151.731	14.813	1518.648	1154.640
152.746	14.880	1517.315	1153.988
153.760	14.879	1516.338	1153.132
154.775	14.885	1515.021	1152.069
155.789	14.877	1513.657	1150.878
156.804	15.024	1512.150	1150.640
157.819	14.998	1511.442	1149.822
158.833	15.008	1510.329	1148.946
159.848	15.018	1508.852	1147.789
160.862	15.075	1508.171	1147.556
161.877	15.084	1506.594	1146.314
162.892	15.045	1505.487	1145.105
163.906	14.991	1503.546	1143.160
164.921	14.894	1503.150	1142.098
165.935	14.969	1501.602	1141.333
166.950	14.932	1500.930	1140.462
167.964	15.023	1499.222	1139.690
168.979	15.056	1498.375	1139.167
169.994	15.038	1497.714	1138.441
171.008	14.944	1496.594	1136.849
172.023	15.105	1495.066	1136.684
173.037	15.164	1494.146	1136.284
174.052	15.053	1493.930	1135.268
175.067	15.132	1492.586	1134.675
176.081	15.187	1490.870	1133.645
177.096	15.055	1489.373	1131.513
178.110	14.937	1488.523	1129.971
179.125	15.050	1487.248	1129.665
180.140	15.048	1486.345	1128.866
181.154	15.093	1485.052	1128.089
182.169	15.085	1484.038	1127.165
183.183	15.156	1483.180	1126.892
184.198	15.185	1482.105	1126.171
185.213	15.328	1480.518	1125.824
186.227	15.291	1479.623	1124.798
187.242	15.289	1478.483	1123.819
188.256	15.280	1478.047	1123.327
189.271	15.336	1476.718	1122.586
190.286	15.406	1475.238	1121.830
191.300	15.368	1474.323	1120.783
192.315	15.097	1472.928	1117.817
193.329	14.943	1471.577	1115.664
194.344	14.967	1470.275	1114.741
195.359	14.983	1469.856	1114.427
196.373	15.198	1468.405	1114.658
197.388	15.169	1467.802	1113.909
198.402	15.243	1467.204	1113.849
199.417	15.293	1465.922	1113.113
200.432	15.472	1464.447	1113.079
201.446	15.480	1464.007	1112.697
202.461	15.609	1462.655	1112.429
203.475	15.620	1461.397	1111.444
204.490	15.679	1460.309	1110.911
205.504	15.601	1459.679	1109.817
206.519	15.488	1458.697	1108.227
207.534	15.489	1456.897	1106.764
208.548	15.461	1456.329	1106.054
209.563	15.553	1454.481	1105.154
210.577	15.459	1454.214	1104.237
211.592	15.492	1453.003	1103.439
212.607	15.538	1452.304	1103.112
213.621	15.612	1451.675	1103.023
214.636	15.729	1450.683	1102.936
215.650	15.706	1449.661	1101.914
216.665	15.604	1448.894	1100.565
217.680	15.624	1448.395	1100.217
218.694	15.734	1447.523	1100.176
219.709	15.797	1446.408	1099.645
220.723	15.753	1445.433	1098.518
221.738	15.761	1444.702	1097.917
222.753	15.850	1443.342	1097.367
223.767	15.764	1442.553	1096.110
224.782	15.689	1441.886	1095.019
225.796	15.811	1440.700	1094.814
226.811	15.863	1440.056	1094.566
227.826	15.863	1439.072	1093.719
228.840	15.854	1437.803	1092.601
229.855	15.847	1436.985	1091.842
230.869	15.874	1435.717	1090.956
231.884	15.772	1435.329	1089.902
232.899	15.821	1434.121	1089.202
233.913	15.760	1432.909	1087.796
234.928	15.711	1431.569	1086.361
235.942	15.733	1430.549	1085.636
236.957	15.808	1429.387	1085.139
237.972	15.695	1428.297	1083.491
238.986	15.686	1427.163	1082.475
240.001	15.783	1426.382	1082.412
241.015	15.864	1424.798	1081.631
242.030	15.798	1424.228	1080.683
243.045	15.889	1423.274	1080.444
244.059	15.931	1422.464	1080.006
245.074	15.972	1421.580	1079.499
246.088	15.982	1420.761	1078.848
247.103	15.987	1420.094	1078.278
248.117	15.984	1419.640	1077.819
249.132	16.024	1418.800	1077.340
250.147	16.187	1417.672	1077.429
251.161	16.309	1417.187	1077.744
252.176	16.314	1416.962	1077.510
253.190	16.418	1416.302	1077.575
254.205	16.407	1415.380	1076.707
255.220	16.491	1414.292	1076.319
256.234	16.464	1413.494	1075.447
257.249	16.552	1412.745	1075.339
258.263	16.373	1412.152	1073.656
259.278	16.450	1411.021	1073.192
260.293	16.456	1410.418	1072.674
261.307	16.401	1409.355	1071.424
262.322	16.482	1408.828	1071.439
263.336	16.551	1407.812	1071.012
264.351	16.623	1406.674	1070.505
265.366	16.615	1405.703	1069.621
266.380	16.798	1404.693	1069.912
267.395	16.613	1404.218	1068.291
268.409	16.661	1402.953	1067.533
269.424	16.631	1402.119	1066.621
270.439	16.572	1401.100	1065.376
271.453	16.603	1400.198	1064.793
272.468	16.550	1399.114	1063.540
273.482	16.539	1398.609	1062.993
274.497	16.527	1397.661	1062.100
275.512	16.473	1396.752	1060.978
276.526	16.565	1395.665	1060.636
277.541	16.641	1394.782	1060.347
278.555	16.455	1393.953	1058.460
279.570	16.647	1392.529	1058.488
280.585	16.681	1392.152	1058.319
281.599	16.746	1391.632	1058.233
282.614	16.851	1390.714	1058.097
283.628	16.753	1389.584	1056.532
284.643	16.727	1388.119	1055.162
285.657	16.690	1387.160	1054.113
286.672	16.666	1386.864	1053.644
287.687	16.706	1385.724	1052.936
288.701	16.794	1384.311	1052.315
289.716	16.701	1383.774	1051.235
290.730	16.665	1383.157	1050.449
291.745	16.680	1382.149	1049.682
292.760	16.739	1381.385	1049.376
293.774	16.744	1379.932	1048.210
294.789	16.806	1379.141	1047.901
295.803	16.886	1378.595	1047.890
296.818	16.900	1377.053	1046.707
297.833	16.951	1375.923	1046.071
298.847	16.891	1374.976	1044.892
299.862	16.864	1374.051	1043.931
300.876	16.887	1373.235	1043.358
301.891	16.962	1372.656	1043.287
302.906	17.017	1371.590	1042.723
303.920	17.039	1371.135	1042.419
304.935	17.090	1370.231	1041.955
305.949	17.189	1369.343	1041.793
306.964	17.182	1368.799	1041.245
307.979	17.181	1367.829	1040.406
308.993	17.195	1367.004	1039.773
310.008	17.150	1366.031	1038.669
311.022	17.034	1365.373	1037.367
312.037	17.192	1363.866	1037.091
313.052	17.317	1363.123	1037.201
314.066	17.220	1361.889	1035.578
315.081	17.146	1360.947	1034.320
316.095	17.038	1360.132	1032.950
317.110	17.001	1358.793	1031.618
318.125	17.041	1357.683	1030.924
319.139	17.108	1357.020	1030.735
320.154	17.097	1356.131	1029.904
321.168	17.098	1354.885	1028.872
322.183	17.019	1354.392	1027.930
323.197	17.117	1353.186	1027.518
324.212	17.094	1352.347	1026.649
325.227	17.016	1351.971	1025.800
326.241	17.120	1350.665	1025.347
327.256	17.220	1349.707	1025.133
328.270	17.125	1349.087	1023.998
329.285	17.232	1347.938	1023.679
330.300	17.136	1347.248	1022.488
331.314	17.131	1346.371	1021.703
332.329	17.160	1345.605	1021.205
333.343	17.206	1344.170	1020.304
334.358	17.199	1343.907	1019.971
335.373	17.282	1343.129	1019.789
336.387	17.256	1342.298	1018.909
337.402	17.333	1341.343	1018.555
338.416	17.376	1340.845	1018.342
339.431	17.460	1339.963	1018.087
340.446	17.469	1339.472	1017.676
341.460	17.459	1338.588	1016.858
342.475	17.630	1337.177	1016.717
343.489	17.576	1336.936	1016.118
344.504	17.636	1335.725	1015.467
345.519	17.570	1334.988	1014.425
346.533	17.591	1334.204	1013.864
347.548	17.665	1332.964	1013.273
348.562	17.785	1332.194	1013.311
349.577	17.935	1331.158	1013.324
350.592	17.769	1330.534	1011.770
351.606	17.560	1329.882	1009.949
352.621	17.587	1328.300	1008.815
353.635	17.583	1327.205	1007.872
354.650	17.489	1326.905	1007.001
355.665	17.556	1325.639	1006.344
356.679	17.556	1324.538	1005.419
357.694	17.572	1323.449	1004.601
358.708	17.714	1322.600	1004.703
359.723	17.594	1321.476	1003.055
360.738	17.739	1320.220	1002.863
361.752	17.742	1319.627	1002.342
362.767	17.745	1318.595	1001.490
363.781	17.722	1317.356	1000.323
364.796	17.749	1317.002	1000.127
365.810	17.831	1316.428	1000.079
366.825	17.943	1315.591	1000.014
367.840	17.991	1314.908	999.687
368.854	17.989	1314.387	999.189
369.869	18.066	1314.049	999.296
370.883	18.020	1313.204	998.296
371.898	18.132	1312.108	998.024
372.913	18.080	1311.167	996.918
373.927	17.997	1310.525	995.859
374.942	18.046	1309.914	995.591
375.956	18.171	1308.876	995.441
376.971	18.154	1308.398	994.890
377.986	18.153	1307.332	993.988
379.000	18.151	1306.180	993.009
380.015	18.125	1305.639	992.363
381.029	18.286	1304.675	992.475
382.044	18.230	1304.323	991.797
383.059	18.230	1303.460	991.050
384.073	18.360	1302.865	991.263
385.088	18.242	1302.231	990.008
386.102	18.197	1301.581	989.167
387.117	18.302	1300.922	989.188
388.132	18.347	1299.940	988.613
389.146	18.207	1299.063	987.051
390.161	18.123	1298.507	986.056
391.175	18.169	1297.483	985.457
392.190	18.254	1296.608	985.193
393.205	18.318	1295.664	984.758
394.219	18.274	1294.742	983.716
395.234	18.381	1293.395	983.219
396.248	18.298	1292.250	981.789
397.263	18.219	1291.071	980.353
398.278	18.229	1290.197	979.662
399.292	18.231	1288.615	978.386
400.307	18.125	1287.787	977.064
401.321	18.214	1286.693	976.653
402.336	18.117	1285.655	975.225
403.350	18.165	1284.713	974.697
404.365	18.152	1283.981	973.985
405.380	18.342	1282.960	974.203
406.394	18.226	1282.218	972.895
407.409	18.341	1281.528	972.937
408.423	18.347	1280.581	972.166
409.438	18.457	1280.130	972.364
410.453	18.547	1279.360	972.202
411.467	18.504	1278.879	971.510
412.482	18.655	1278.017	971.624
413.496	18.724	1277.412	971.469
414.511	18.667	1276.841	970.625
415.526	18.736	1276.052	970.328
416.540	18.810	1275.097	969.936
417.555	18.852	1274.491	969.624
418.569	18.755	1274.160	968.736
419.584	18.876	1273.555	968.875
420.599	18.866	1272.997	968.307
421.613	140.295	1432.521	1794.723
422.628	134.885	1455.712	1794.829
