DTS Sentinel unit serial number:	SN413079Multiplexer serial number:	ORYXHardware model number:	OX4-SRSoftware version number:	ORYX F/W v4.00 Oryx Data Collector v3.7.2.0data status	okinstallation	princeton_trtdifferential loss correction	single-endedforward channel	channel 4reverse channel	N/Adate	2019/09/18time	22:49:34forward acquisition time	60.00reverse acquisition time	0.00gamma	496.2192k internal	0.2333k external	0.2333temperature offset calibration	1.0032default loss term (dB/km)	0.3790temperature slope calibration	1.0000multiplexer offset coefficient	1.0000multiplexer slope coefficient	1.0000fibre end	0.00T internal ref (°C)	24.06T ext. ref 1 (°C)	0.78T ext. ref 2 (°C)	18.01length (m)	temperature (°C)	Stokes	anti-Stokes-747.200	-97.534	-0.185	0.048
-746.185	-200.000	0.000	0.399
-745.171	-200.000	0.007	0.204
-744.156	30.046	0.142	0.122
-743.142	-36.432	0.124	-0.067
-742.127	-91.095	0.600	0.173
-741.112	-54.143	-0.172	0.079
-740.098	181.712	-0.101	0.150
-739.083	800.000	-0.066	-0.189
-738.069	524.083	0.073	0.173
-737.054	-77.607	0.182	-0.064
-736.039	-66.444	-0.334	0.134
-735.025	-49.033	0.319	0.153
-734.010	-123.476	-0.401	-0.064
-732.996	610.186	-0.019	-0.048
-731.981	17.888	0.045	0.036
-730.966	125.466	0.013	-0.016
-729.952	800.000	-0.123	-0.514
-728.937	-32.592	-0.124	-0.070
-727.923	800.000	-0.075	-0.256
-726.908	-194.797	-0.384	0.003
-725.894	165.273	0.066	0.094
-724.879	415.352	-0.077	-0.164
-723.864	800.000	0.032	-0.094
-722.850	51.271	0.026	-0.025
-721.835	105.146	-0.131	-0.155
-720.821	-111.112	-0.490	-0.101
-719.806	50.395	0.159	0.151
-718.791	382.384	-0.060	-0.125
-717.777	16.234	0.031	0.025
-716.762	-9.970	-0.058	0.039
-715.748	-104.244	-0.296	0.069
-714.733	-39.959	-0.133	-0.070
-713.718	122.718	-0.025	-0.031
-712.704	-200.000	0.033	-0.276
-711.689	-93.892	0.383	-0.106
-710.675	51.087	0.242	-0.230
-709.660	-200.000	0.008	0.039
-708.645	-44.352	-0.156	0.078
-707.631	49.698	0.022	0.021
-706.616	-200.000	-0.042	0.189
-705.602	-128.835	-0.214	0.030
-704.587	266.547	-0.133	-0.233
-703.572	800.000	0.060	-0.168
-702.558	-65.281	0.121	0.049
-701.543	800.000	-0.082	0.256
-700.529	800.000	0.106	-0.404
-699.514	-143.369	0.060	0.006
-698.499	41.541	-0.250	-0.227
-697.485	335.559	-0.062	-0.121
-696.470	-59.392	0.288	-0.124
-695.456	-7.648	-0.149	-0.101
-694.441	-147.621	-0.129	-0.011
-693.426	64.929	-0.120	-0.121
-692.412	482.643	-0.169	0.385
-691.397	-111.173	0.087	-0.018
-690.383	-113.055	0.356	0.071
-689.368	248.118	-0.087	0.148
-688.354	-94.929	-0.151	0.041
-687.339	6.322	0.245	0.182
-686.324	-200.000	-0.046	0.224
-685.310	-75.978	-0.172	-0.061
-684.295	-200.000	-0.003	0.214
-683.281	2.639	-0.295	-0.215
-682.266	28.401	-0.074	-0.062
-681.251	67.136	-0.110	-0.113
-680.237	-200.000	0.019	-0.254
-679.222	-8.174	0.050	-0.034
-678.208	47.320	0.166	-0.155
-677.193	110.697	0.154	-0.186
-676.178	-161.467	-0.366	-0.019
-675.164	-200.000	0.005	-0.038
-674.149	-93.543	0.160	0.044
-673.135	104.998	-0.138	-0.164
-672.120	-23.510	-0.272	0.164
-671.105	-200.000	0.016	0.168
-670.091	712.020	0.042	0.111
-669.076	199.358	-0.111	0.170
-668.062	-69.043	0.208	0.080
-667.047	91.826	0.145	0.163
-666.032	568.140	-0.114	0.278
-665.018	-4.107	0.252	0.175
-664.003	800.000	-0.021	0.081
-662.989	31.945	-0.057	-0.049
-661.974	481.013	0.137	-0.311
-660.959	424.446	-0.075	-0.162
-659.945	-200.000	0.021	-0.164
-658.930	66.338	0.339	0.346
-657.916	-72.910	-0.334	0.123
-656.901	-0.907	-0.164	0.116
-655.886	-78.034	-0.141	-0.049
-654.872	-37.220	-0.398	0.213
-653.857	600.433	0.052	-0.130
-652.843	-45.164	-0.431	-0.215
-651.828	800.000	-0.099	-0.353
-650.814	-28.265	-0.067	-0.039
-649.799	-63.093	0.119	0.049
-648.784	358.869	0.042	-0.085
-647.770	232.095	0.163	0.268
-646.755	-115.083	-0.290	-0.055
-645.741	-37.122	-0.268	-0.144
-644.726	-200.000	-0.001	-0.202
-643.711	10.860	-0.378	0.289
-642.697	-7.672	-0.109	0.073
-641.682	-27.786	0.186	-0.108
-640.668	99.628	-0.062	0.072
-639.653	-82.667	-0.249	0.081
-638.638	-200.000	-0.008	0.078
-637.624	-76.602	0.197	-0.069
-636.609	651.150	0.104	-0.266
-635.595	115.912	-0.106	-0.130
-634.580	25.386	0.242	-0.202
-633.565	35.402	0.055	0.048
-632.551	-200.000	-0.003	-0.119
-631.536	800.000	-0.032	-0.127
-630.522	-187.502	-0.279	-0.004
-629.507	-96.992	0.102	-0.027
-628.492	-87.790	0.263	0.079
-627.478	-200.000	-0.013	0.297
-626.463	-200.000	-0.006	0.031
-625.449	636.848	-0.073	-0.185
-624.434	-37.417	0.193	0.103
-623.419	302.594	0.047	0.087
-622.405	50.909	0.184	0.175
-621.390	-68.943	0.246	-0.095
-620.376	-42.436	0.105	0.054
-619.361	157.741	-0.063	-0.088
-618.346	800.000	0.030	0.094
-617.332	38.630	-0.178	-0.159
-616.317	66.441	0.113	0.115
-615.303	329.952	0.157	0.303
-614.288	61.110	-0.117	-0.117
-613.273	7.470	-0.276	0.207
-612.259	134.567	-0.143	-0.185
-611.244	-75.760	0.220	-0.078
-610.230	-200.000	-0.043	0.229
-609.215	-200.000	0.010	-0.171
-608.201	33.179	-0.287	-0.249
-607.186	-200.000	0.053	0.293
-606.171	15.618	0.174	-0.137
-605.157	-91.236	0.057	0.016
-604.142	346.135	0.115	0.226
-603.128	-98.975	0.382	-0.097
-602.113	-99.329	0.056	0.014
-601.098	-200.000	-0.007	0.101
-600.084	-18.311	0.211	0.132
-599.069	5.643	-0.109	0.081
-598.055	196.591	-0.202	-0.308
-597.040	-98.413	0.238	-0.061
-596.025	-76.218	-0.213	0.075
-595.011	800.000	0.060	0.241
-593.996	-109.769	-0.227	-0.048
-592.982	800.000	-0.046	-0.177
-591.967	99.028	-0.225	-0.260
-590.952	-65.226	0.019	-0.008
-589.938	-15.907	0.087	0.055
-588.923	-56.384	0.071	0.031
-587.909	800.000	-0.087	-0.251
-586.894	-112.345	-0.118	-0.024
-585.879	-127.188	0.085	-0.012
-584.865	578.844	0.086	0.209
-583.850	204.601	0.092	-0.143
-582.836	-200.000	0.009	-0.139
-581.821	425.170	-0.120	0.257
-580.806	-177.605	0.160	0.004
-579.792	-70.363	0.307	-0.116
-578.777	-200.000	0.011	-0.368
-577.763	236.681	0.045	0.075
-576.748	45.906	-0.038	-0.035
-575.733	-129.365	-0.173	-0.024
-574.719	-200.000	0.013	0.228
-573.704	-74.035	-0.204	-0.074
-572.690	-41.279	0.137	0.070
-571.675	63.990	-0.146	0.147
-570.661	-112.402	0.044	-0.009
-569.646	-145.970	0.191	0.017
-568.631	-200.000	0.008	-0.174
-567.617	-76.277	-0.231	0.081
-566.602	-23.829	-0.149	-0.089
-565.588	-76.701	-0.119	0.042
-564.573	-11.717	0.199	-0.130
-563.558	-200.000	-0.008	0.195
-562.544	-66.927	-0.165	-0.065
-561.529	32.067	0.367	-0.316
-560.515	-191.398	0.327	0.003
-559.500	-40.863	0.087	-0.045
-558.485	176.366	0.157	-0.227
-557.471	-4.763	-0.105	0.073
-556.456	730.976	-0.076	-0.204
-555.442	-53.454	0.175	0.080
-554.427	800.000	0.105	-0.427
-553.412	-133.867	-0.214	0.027
-552.398	-200.000	-0.010	0.184
-551.383	28.225	0.042	-0.035
-550.369	800.000	0.089	0.331
-549.354	96.259	0.131	-0.150
-548.339	104.656	-0.100	-0.118
-547.325	-72.428	-0.133	0.049
-546.310	478.639	0.172	0.388
-545.296	-136.873	-0.132	-0.015
-544.281	800.000	-0.058	-0.238
-543.266	-151.533	-0.155	-0.011
-542.252	-119.632	-0.123	-0.021
-541.237	-200.000	0.018	-0.351
-540.223	-164.593	-0.309	0.014
-539.208	-99.463	0.181	0.045
-538.193	-128.214	0.217	-0.031
-537.179	800.000	-0.144	0.398
-536.164	218.792	-0.327	-0.522
-535.150	-200.000	0.012	-0.410
-534.135	80.982	0.137	-0.148
-533.121	-143.634	0.319	-0.030
-532.106	800.000	-0.024	0.099
-531.091	116.237	-0.087	-0.106
-530.077	800.000	0.117	-0.369
-529.062	737.506	-0.066	-0.176
-528.048	35.690	0.113	-0.099
-527.033	-95.248	0.258	0.069
-526.018	750.044	-0.130	-0.350
-525.004	-71.428	0.386	-0.144
-523.989	8.288	0.161	-0.121
-522.975	-136.724	-0.300	0.035
-521.960	141.966	-0.094	0.124
-520.945	-38.650	0.122	-0.064
-519.931	-63.596	0.118	0.048
-518.916	-113.276	0.245	0.048
-517.902	-172.750	0.246	-0.008
-516.887	173.292	0.163	-0.235
-515.872	-53.283	-0.134	-0.061
-514.858	-63.824	-0.318	0.130
-513.843	34.729	0.207	0.181
-512.829	220.609	-0.157	-0.251
-511.814	247.069	-0.120	0.203
-510.799	-200.000	-0.021	0.097
-509.785	-200.000	0.004	-0.062
-508.770	71.146	0.234	-0.241
-507.756	-131.286	0.286	0.038
-506.741	-143.951	-0.200	0.019
-505.726	-200.000	0.029	0.297
-504.712	-50.149	0.101	-0.047
-503.697	-200.000	-0.071	0.315
-502.683	-147.848	-0.146	0.012
-501.668	-101.132	0.365	-0.089
-500.653	-119.752	0.092	-0.016
-499.639	-200.000	0.035	-0.327
-498.624	-200.000	-0.035	0.157
-497.610	2.838	-0.192	0.139
-496.595	299.183	-0.124	-0.227
-495.581	-188.977	-0.040	0.000
-494.566	-200.000	0.030	-0.142
-493.551	800.000	-0.095	0.264
-492.537	-172.203	-0.198	0.006
-491.522	-200.000	-0.000	-0.066
-490.508	-81.897	-0.355	-0.116
-489.493	800.000	-0.059	-0.189
-488.478	-117.331	-0.185	0.033
-487.464	-200.000	0.007	-0.289
-486.449	-112.548	-0.190	0.038
-485.435	-111.088	0.167	0.034
-484.420	-11.472	-0.277	-0.181
-483.405	671.163	0.036	-0.094
-482.391	-27.400	0.142	0.082
-481.376	800.000	-0.095	0.318
-480.362	4.865	0.277	-0.203
-479.347	-72.134	-0.068	-0.025
-478.332	214.637	-0.063	-0.100
-477.318	-102.117	-0.233	0.056
-476.303	92.411	0.221	-0.248
-475.289	93.426	0.339	-0.382
-474.274	269.767	0.144	-0.252
-473.259	800.000	0.050	-0.212
-472.245	110.941	-0.228	-0.273
-471.230	455.314	0.053	0.116
-470.216	56.649	-0.047	-0.046
-469.201	-131.140	-0.258	0.034
-468.186	800.000	0.101	-0.361
-467.172	80.305	0.050	-0.053
-466.157	6.964	-0.277	-0.205
-465.143	-44.235	-0.238	-0.119
-464.128	128.788	0.090	0.114
-463.113	-100.751	0.250	-0.061
-462.099	84.570	-0.105	0.114
-461.084	-115.272	-0.183	-0.034
-460.070	-98.442	0.280	0.071
-459.055	115.228	-0.140	0.171
-458.040	265.172	0.108	-0.187
-457.026	36.924	-0.164	-0.144
-456.011	-33.403	-0.141	-0.078
-454.997	-200.000	-0.036	-0.214
-453.982	-200.000	0.055	0.281
-452.968	99.022	-0.150	0.172
-451.953	-48.653	-0.396	0.189
-450.938	800.000	0.075	0.218
-449.924	-35.525	-0.065	-0.035
-448.909	44.589	0.135	-0.123
-447.895	-200.000	0.000	0.011
-446.880	429.132	0.208	0.448
-445.865	19.427	-0.248	-0.199
-444.851	-200.000	0.002	-0.061
-443.836	309.771	-0.084	0.156
-442.822	271.775	-0.064	0.112
-441.807	156.855	-0.142	0.195
-440.792	268.008	-0.087	0.151
-439.778	-72.562	-0.346	0.127
-438.763	-16.363	-0.048	-0.030
-437.749	-64.590	0.104	0.042
-436.734	2.417	0.194	0.139
-435.719	240.821	0.128	-0.212
-434.705	18.631	-0.195	-0.155
-433.690	29.723	-0.323	-0.274
-432.676	-116.994	-0.353	-0.064
-431.661	490.542	0.080	0.183
-430.646	258.221	0.188	-0.321
-429.632	-52.363	0.262	-0.120
-428.617	-110.650	0.081	-0.017
-427.603	-200.000	0.002	0.177
-426.588	800.000	0.139	-0.579
-425.573	87.969	0.119	-0.131
-424.559	136.877	0.049	0.064
-423.544	12.061	0.157	-0.120
-422.530	15.415	-0.145	0.113
-421.515	-42.555	-0.064	-0.032
-420.500	-200.000	-0.032	0.433
-419.486	-56.848	-0.249	0.109
-418.471	254.980	-0.290	0.494
-417.457	126.601	0.164	-0.206
-416.442	-138.692	0.271	-0.029
-415.428	-200.000	0.011	0.196
-414.413	-157.377	0.383	-0.023
-413.398	-46.685	0.179	0.087
-412.384	183.613	-0.032	-0.047
-411.369	800.000	0.045	-0.180
-410.355	100.199	-0.220	-0.253
-409.340	800.000	-0.037	-0.122
-408.325	-111.978	-0.111	-0.022
-407.311	42.157	0.359	0.324
-406.296	-87.419	-0.144	0.043
-405.282	6.922	0.421	-0.311
-404.267	-127.067	0.116	0.017
-403.252	145.520	-0.299	0.398
-402.238	272.234	-0.138	-0.241
-401.223	51.255	0.033	0.031
-400.209	-200.000	-0.022	0.130
-399.194	-61.804	-0.054	-0.023
-398.179	-183.006	0.187	0.003
-397.165	-42.948	0.115	-0.058
-396.150	-200.000	-0.015	-0.090
-395.136	207.403	-0.128	-0.198
-394.121	-16.771	0.104	-0.065
-393.106	4.519	0.068	-0.049
-392.092	-58.667	0.238	-0.103
-391.077	-133.853	-0.539	0.067
-390.063	-51.043	0.074	0.034
-389.048	-109.351	0.288	-0.061
-388.033	38.659	-0.035	0.031
-387.019	145.305	0.083	0.110
-386.004	800.000	0.064	0.222
-384.990	-139.340	-0.201	0.021
-383.975	-126.940	0.084	0.012
-382.960	89.365	0.162	-0.179
-381.946	800.000	-0.052	0.223
-380.931	-87.777	-0.388	0.116
-379.917	13.398	0.095	0.073
-378.902	200.131	-0.180	0.274
-377.888	112.439	-0.142	0.170
-376.873	-38.429	-0.061	-0.032
-375.858	-200.000	0.284	-0.001
-374.844	-86.400	0.335	-0.102
-373.829	-175.995	-0.295	0.008
-372.815	-148.772	0.352	0.028
-371.800	-117.595	-0.267	-0.048
-370.785	-200.000	-0.017	0.076
-369.771	-162.392	0.249	-0.012
-368.756	800.000	-0.089	0.307
-367.742	243.455	0.169	-0.281
-366.727	7.065	-0.250	-0.185
-365.712	-120.722	-0.133	-0.022
-364.698	-200.000	0.018	0.238
-363.683	23.607	0.405	-0.330
-362.669	-200.000	-0.008	-0.383
-361.654	437.255	0.070	0.152
-360.639	-87.365	-0.205	-0.062
-359.625	415.750	-0.049	0.103
-358.610	-200.000	-0.029	0.185
-357.596	-98.848	-0.238	0.060
-356.581	-107.553	0.199	-0.043
-355.566	-200.000	-0.021	0.347
-354.552	-200.000	-0.025	0.347
-353.537	198.199	0.161	0.244
-352.523	-110.922	0.128	-0.026
-351.508	-200.000	0.012	0.243
-350.493	19.047	0.153	0.121
-349.479	-69.179	-0.175	-0.067
-348.464	800.000	-0.009	-0.025
-347.450	298.158	0.091	0.166
-346.435	419.134	-0.077	-0.163
-345.420	-49.356	-0.341	0.161
-344.406	-200.000	-0.018	-0.126
-343.391	-146.035	-0.411	-0.036
-342.377	787.963	0.054	-0.146
-341.362	800.000	-0.005	0.023
-340.348	-106.902	0.463	-0.102
-339.333	-146.966	-0.203	0.017
-338.318	-104.563	0.268	0.061
-337.304	-42.060	-0.207	0.105
-336.289	-8.310	0.231	-0.154
-335.275	24.719	0.274	0.224
-334.260	800.000	-0.021	0.085
-333.245	-158.286	0.393	-0.023
-332.231	-146.287	-0.007	-0.001
-331.216	-108.756	0.396	-0.084
-330.202	-115.942	-0.051	-0.009
-329.187	37.572	0.062	-0.055
-328.172	32.002	-0.229	0.195
-327.158	22.365	0.139	-0.112
-326.143	220.522	0.237	0.376
-325.129	332.363	-0.107	-0.204
-324.114	43.535	-0.302	0.274
-323.099	384.440	-0.117	0.238
-322.085	800.000	0.043	0.156
-321.070	-46.796	-0.170	-0.082
-320.056	-97.153	-0.135	0.035
-319.041	-107.691	0.520	0.112
-318.026	-200.000	0.006	0.353
-317.012	-200.000	-0.025	0.131
-315.997	-55.965	-0.054	0.024
-314.983	439.943	0.092	0.198
-313.968	-24.860	-0.331	0.195
-312.953	64.054	-0.180	-0.179
-311.939	191.489	-0.098	0.146
-310.924	460.866	-0.073	0.160
-309.910	-79.065	-0.024	-0.008
-308.895	-41.396	0.101	-0.052
-307.880	-200.000	-0.025	0.116
-306.866	35.293	0.194	-0.168
-305.851	-200.000	0.021	-0.176
-304.837	285.035	-0.157	-0.280
-303.822	-200.000	-0.023	-0.366
-302.807	-7.056	0.304	0.204
-301.793	55.704	0.185	-0.177
-300.778	150.113	-0.137	0.184
-299.764	-200.000	-0.021	-0.226
-298.749	-168.717	-0.181	-0.007
-297.735	-43.854	0.288	0.143
-296.720	-200.000	-0.044	0.270
-295.705	-76.847	0.075	-0.026
-294.691	-200.000	0.021	-0.143
-293.676	17.158	-0.133	-0.104
-292.662	-200.000	0.014	0.288
-291.647	-101.784	0.074	0.018
-290.632	-94.758	-0.228	-0.061
-289.618	-121.635	-0.087	0.014
-288.603	-6.941	0.195	0.131
-287.589	-46.274	0.143	-0.070
-286.574	-62.031	0.231	-0.095
-285.559	199.295	0.094	-0.142
-284.545	-20.511	-0.233	-0.141
-283.530	568.624	-0.234	0.561
-282.516	99.327	0.255	0.291
-281.501	-200.000	0.006	0.284
-280.486	-200.000	0.012	0.157
-279.472	48.286	0.136	-0.126
-278.457	-110.341	-0.228	0.047
-277.443	163.927	-0.092	0.128
-276.428	164.081	0.196	-0.273
-275.413	-69.066	-0.196	0.074
-274.399	583.143	0.012	0.028
-273.384	-27.873	-0.277	0.158
-272.370	-200.000	0.005	-0.107
-271.355	-124.286	0.286	0.044
-270.340	-85.976	0.183	-0.056
-269.326	12.748	-0.388	-0.296
-268.311	148.728	0.225	0.301
-267.297	101.039	0.188	0.216
-266.282	36.814	-0.173	0.151
-265.267	-170.504	-0.048	-0.002
-264.253	267.723	-0.099	0.170
-263.238	485.230	-0.057	0.128
-262.224	-200.000	0.025	0.169
-261.209	800.000	0.052	0.215
-260.195	7.048	-0.213	-0.157
-259.180	-200.000	-0.003	0.388
-258.165	5.369	-0.174	0.126
-257.151	800.000	0.033	-0.110
-256.136	54.416	-0.175	-0.166
-255.122	166.369	-0.130	0.182
-254.107	456.333	0.051	-0.111
-253.092	-99.925	0.156	-0.039
-252.078	-200.000	-0.000	0.165
-251.063	800.000	-0.088	-0.271
-250.049	-47.203	-0.342	-0.164
-249.034	800.000	0.051	-0.155
-248.019	1.768	-0.072	0.051
-247.005	-200.000	-0.019	0.188
-245.990	800.000	0.025	-0.070
-244.976	-12.887	0.032	-0.021
-243.961	-155.576	-0.228	-0.014
-242.946	-200.000	-0.041	0.229
-241.932	167.524	-0.079	0.110
-240.917	-17.909	0.164	-0.101
-239.903	-200.000	-0.027	0.146
-238.888	450.976	0.140	0.304
-237.873	464.049	0.115	-0.253
-236.859	164.541	-0.096	-0.133
-235.844	-200.000	-0.014	-0.336
-234.830	-79.212	-0.426	-0.143
-233.815	-200.000	-0.014	-0.095
-232.800	-200.000	-0.010	0.155
-231.786	-32.028	-0.233	-0.128
-230.771	-200.000	0.042	-0.212
-229.757	-58.101	-0.235	-0.101
-228.742	-51.534	0.293	-0.135
-227.727	800.000	0.120	-0.344
-226.713	-79.155	0.108	0.036
-225.698	740.645	0.121	-0.321
-224.684	-69.942	-0.104	-0.039
-223.669	-100.804	0.369	0.090
-222.655	8.740	-0.277	-0.206
-221.640	250.888	-0.028	-0.047
-220.625	590.683	0.151	0.368
-219.611	-110.740	-0.371	0.075
-218.596	452.406	0.043	0.095
-217.582	260.905	-0.141	0.240
-216.567	-157.486	0.223	-0.013
-215.552	226.301	0.108	0.173
-214.538	-123.269	0.358	0.056
-213.523	-68.162	-0.147	0.057
-212.509	211.129	0.080	-0.124
-211.494	-107.472	-0.165	-0.036
-210.479	-200.000	-0.003	0.332
-209.465	-121.799	-0.402	-0.065
-208.450	-120.778	0.274	0.046
-207.436	51.928	0.170	-0.159
-206.421	-54.312	-0.124	-0.055
-205.406	21.919	-0.146	0.118
-204.392	132.510	-0.112	-0.142
-203.377	800.000	0.031	0.099
-202.363	61.560	-0.154	-0.150
-201.348	83.414	0.123	0.132
-200.333	-18.675	-0.121	-0.074
-199.319	-50.094	0.125	-0.058
-198.304	246.832	-0.133	-0.220
-197.290	178.119	0.096	-0.138
-196.275	193.205	0.108	-0.161
-195.260	-82.942	0.154	0.049
-194.246	298.384	0.163	0.295
-193.231	130.732	-0.148	-0.187
-192.217	149.825	-0.028	-0.037
-191.202	-6.131	0.162	0.109
-190.187	800.000	0.070	0.238
-189.173	-5.931	0.163	0.110
-188.158	-200.000	-0.014	-0.152
-187.144	800.000	-0.108	-0.372
-186.129	-90.592	0.236	0.067
-185.114	-100.855	-0.122	-0.029
-184.100	405.155	0.060	0.125
-183.085	454.258	0.097	-0.212
-182.071	191.122	-0.085	-0.126
-181.056	-1.854	-0.219	-0.151
-180.042	21.683	0.210	-0.169
-179.027	143.298	-0.068	-0.089
-178.012	3.025	0.114	0.081
-176.998	7.898	-0.218	0.161
-175.983	-77.557	0.362	-0.124
-174.969	-170.894	-0.589	-0.020
-173.954	-200.000	-0.006	0.106
-172.939	110.581	0.070	-0.082
-171.925	-99.766	0.447	0.110
-170.910	49.319	-0.239	0.221
-169.896	800.000	0.097	0.301
-168.881	-200.000	0.014	-0.083
-167.866	-44.131	0.097	-0.048
-166.852	-200.000	0.022	0.149
-165.837	-58.618	-0.177	-0.075
-164.823	16.823	-0.141	-0.110
-163.808	-31.393	-0.097	0.053
-162.793	578.955	-0.091	0.219
-161.779	-144.295	-0.377	0.035
-160.764	800.000	0.043	0.132
-159.750	494.443	0.098	0.221
-158.735	-200.000	-0.018	-0.112
-157.720	800.000	0.029	0.088
-156.706	-96.977	0.094	0.024
-155.691	-200.000	0.002	0.303
-154.677	-173.802	0.314	-0.009
-153.662	362.662	-0.059	0.116
-152.647	-120.565	0.133	0.022
-151.633	-80.865	-0.332	0.108
-150.618	342.652	-0.139	0.268
-149.604	81.699	0.269	0.286
-148.589	-66.675	0.350	0.136
-147.574	2.256	0.300	0.213
-146.560	20.770	0.114	0.090
-145.545	-200.000	0.015	0.194
-144.531	-17.287	0.143	0.089
-143.516	-29.566	0.084	0.047
-142.502	123.127	-0.181	0.223
-141.487	-32.796	0.191	0.104
-140.472	219.880	-0.109	0.171
-139.458	-200.000	0.041	0.395
-138.443	294.420	0.089	0.159
-137.429	-133.915	-0.461	0.056
-136.414	800.000	-0.100	0.275
-135.399	-38.889	0.335	0.173
-134.385	-3.038	0.188	-0.129
-133.370	-11.450	-0.017	0.011
-132.356	-78.944	-0.256	0.086
-131.341	292.010	-0.061	0.108
-130.326	-77.435	-0.084	0.029
-129.312	199.002	0.185	-0.278
-128.297	-200.000	-0.016	0.238
-127.283	-77.903	0.071	-0.024
-126.268	488.666	-0.144	0.323
-125.253	4.493	0.137	0.098
-124.239	800.000	-0.069	-0.293
-123.224	-200.000	0.031	0.329
-122.210	-34.218	-0.354	0.191
-121.195	44.977	0.088	0.079
-120.180	187.041	-0.296	0.433
-119.166	45.543	-0.067	-0.060
-118.151	-20.242	0.394	-0.238
-117.137	752.719	-0.039	-0.104
-116.122	58.286	0.122	-0.118
-115.107	-56.938	0.120	0.052
-114.093	-127.903	-0.376	0.053
-113.078	-107.970	0.410	-0.087
-112.064	-46.019	0.107	-0.052
-111.049	-164.898	-0.199	0.009
-110.034	-119.313	-0.240	-0.041
-109.020	-200.000	-0.029	0.178
-108.005	-200.000	0.019	-0.246
-106.991	42.072	-0.262	0.233
-105.976	110.651	-0.230	0.272
-104.962	-119.037	0.369	0.063
-103.947	-80.181	0.193	0.063
-102.932	789.574	-0.031	-0.084
-101.918	-200.000	0.015	-0.125
-100.903	-176.266	-0.369	0.009
-99.889	29.785	-0.534	-0.446
-98.874	66.236	0.306	-0.305
-97.859	800.000	-0.073	-0.210
-96.845	416.829	-0.096	0.201
-95.830	442.030	0.124	0.265
-94.816	64.909	-0.134	-0.133
-93.801	-200.000	0.013	-0.287
-92.786	-19.531	0.118	0.072
-91.772	-127.076	-0.067	-0.010
-90.757	-200.000	-0.023	0.190
-89.743	-200.000	-0.008	-0.247
-88.728	-200.000	-0.017	-0.108
-87.713	-61.795	0.125	0.051
-86.699	-83.580	0.286	0.090
-85.684	34.587	-0.207	0.177
-84.670	169.494	0.037	0.051
-83.655	800.000	-0.049	0.136
-82.640	143.983	0.115	0.151
-81.626	47.536	0.050	-0.046
-80.611	-34.100	0.275	-0.148
-79.597	800.000	-0.067	0.215
-78.582	103.641	0.329	0.379
-77.567	320.576	0.070	-0.130
-76.553	228.286	-0.066	0.105
-75.538	-200.000	-0.041	0.177
-74.524	-57.949	0.338	0.145
-73.509	-13.919	0.195	0.124
-72.494	9.109	0.133	0.099
-71.480	12.038	0.087	-0.066
-70.465	-6.536	0.336	-0.224
-69.451	381.348	0.093	-0.187
-68.436	-200.000	-0.003	-0.175
-67.422	47.031	-0.154	-0.140
-66.407	800.000	0.105	-0.302
-65.392	7.185	-0.146	0.107
-64.378	314.670	0.114	0.211
-63.363	-66.045	0.354	-0.138
-62.349	87.559	0.313	0.340
-61.334	109.737	-1.059	-1.243
-60.319	61.633	0.582	0.567
-59.305	337.279	-0.406	-0.773
-58.290	800.000	0.643	1.820
-57.276	439.664	0.842	1.800
-56.261	-200.000	121.569	645.543
-55.246	430.766	1540.277	3265.009
-54.232	144.615	2703.685	3536.093
-53.217	89.066	2317.283	2525.915
-52.203	30.542	2067.870	1730.974
-51.188	25.870	1983.958	1618.813
-50.173	24.638	1968.003	1594.738
-49.159	42.239	2039.712	1813.854
-48.144	40.753	2052.605	1811.703
-47.130	26.212	2005.278	1639.050
-46.115	24.172	1994.079	1611.403
-45.100	23.985	1991.332	1607.432
-44.086	23.976	1988.556	1605.044
-43.071	23.931	1986.525	1602.935
-42.057	23.950	1984.190	1601.154
-41.042	23.918	1982.740	1599.640
-40.027	23.913	1980.507	1597.727
-39.013	23.964	1978.916	1596.837
-37.998	24.034	1976.474	1595.433
-36.984	23.879	1975.588	1593.266
-35.969	23.995	1973.133	1592.253
-34.954	24.001	1971.777	1591.153
-33.940	23.968	1970.100	1589.443
-32.925	24.044	1968.771	1588.982
-31.911	24.063	1967.046	1587.696
-30.896	24.149	1965.352	1587.035
-29.881	24.118	1964.119	1585.701
-28.867	24.090	1962.515	1584.090
-27.852	24.111	1960.598	1582.669
-26.838	24.181	1958.422	1581.474
-25.823	24.082	1957.390	1579.700
-24.809	24.175	1954.864	1578.421
-23.794	24.068	1953.931	1576.661
-22.779	24.068	1951.758	1574.842
-21.765	24.167	1949.995	1574.234
-20.750	24.120	1948.792	1572.782
-19.736	24.066	1947.502	1571.199
-18.721	24.193	1945.240	1570.432
-17.706	24.131	1943.884	1568.728
-16.692	24.081	1942.237	1566.896
-15.677	24.089	1940.272	1565.325
-14.663	24.065	1939.208	1564.192
-13.648	24.028	1937.954	1562.791
-12.633	24.086	1936.750	1562.269
-11.619	24.026	1935.300	1560.513
-10.604	24.071	1933.822	1559.655
-9.590	24.037	1932.853	1558.512
-8.575	24.042	1931.173	1557.138
-7.560	24.024	1930.166	1556.107
-6.546	24.081	1928.647	1555.317
-5.531	24.049	1928.213	1554.625
-4.517	24.105	1926.215	1553.440
-3.502	24.058	1925.367	1552.285
-2.487	24.034	1923.874	1550.809
-1.473	24.025	1923.110	1550.056
-0.458	24.160	1917.297	1546.485
0.556	22.869	1898.230	1517.464
1.571	18.695	1879.226	1466.549
2.586	14.885	1902.325	1451.433
3.600	14.044	1937.177	1470.458
4.615	13.895	1930.959	1464.290
5.629	10.969	1831.328	1364.116
6.644	4.622	1719.018	1230.257
7.659	1.134	1685.678	1179.193
8.673	0.855	1682.695	1174.837
9.688	0.722	1682.194	1173.345
10.702	0.840	1680.076	1172.685
11.717	0.703	1676.067	1168.719
12.731	1.144	1674.855	1171.182
13.746	5.939	1684.813	1215.231
14.761	13.093	1699.389	1281.321
15.775	16.892	1705.465	1315.324
16.790	17.281	1705.254	1318.063
17.804	16.415	1702.228	1308.903
18.819	15.386	1699.335	1298.597
19.834	14.895	1696.490	1292.517
20.848	14.656	1695.028	1289.444
21.863	14.349	1693.740	1285.976
22.877	14.152	1692.101	1283.100
23.892	13.889	1690.628	1279.844
24.907	13.657	1689.748	1277.278
25.921	13.723	1688.596	1276.796
26.936	13.743	1687.310	1275.870
27.950	13.760	1686.567	1275.320
28.965	13.842	1686.006	1275.417
29.980	13.839	1685.306	1274.752
30.994	13.927	1684.216	1274.491
32.009	13.972	1683.053	1273.843
33.023	14.014	1682.141	1273.364
34.038	14.102	1681.564	1273.484
35.053	13.945	1680.725	1271.538
36.067	13.974	1678.974	1270.321
37.082	13.925	1677.801	1268.944
38.096	13.880	1677.260	1268.080
39.111	13.902	1676.559	1267.604
40.126	13.885	1675.765	1266.766
41.140	13.945	1674.288	1265.992
42.155	13.844	1673.067	1264.185
43.169	13.845	1671.272	1262.729
44.184	13.761	1670.606	1261.477
45.199	13.790	1669.371	1260.652
46.213	13.794	1667.728	1259.330
47.228	13.807	1666.643	1258.497
48.242	13.827	1665.128	1257.393
49.257	13.836	1664.654	1256.995
50.271	13.896	1663.193	1256.228
51.286	13.843	1661.875	1254.724
52.301	13.900	1660.521	1254.017
53.315	13.900	1658.880	1252.669
54.330	13.839	1657.525	1251.080
55.344	13.825	1655.998	1249.705
56.359	13.818	1654.392	1248.332
57.374	13.812	1653.604	1247.582
58.388	13.839	1652.120	1246.552
59.403	13.705	1651.027	1244.615
60.417	13.687	1649.802	1243.446
61.432	13.764	1648.767	1243.132
62.447	13.700	1647.451	1241.555
63.461	13.656	1646.392	1240.316
64.476	13.693	1644.984	1239.417
65.490	13.686	1643.728	1238.312
66.505	13.648	1642.759	1237.190
67.520	13.677	1641.901	1236.652
68.534	13.743	1640.626	1236.071
69.549	13.685	1639.506	1234.686
70.563	13.688	1638.293	1233.689
71.578	13.745	1636.676	1232.787
72.593	13.784	1635.398	1231.998
73.607	13.589	1635.346	1230.408
74.622	13.594	1633.652	1229.056
75.636	13.648	1632.160	1228.225
76.651	13.555	1632.271	1227.514
77.666	13.593	1631.398	1227.027
78.680	13.657	1630.138	1226.449
79.695	13.588	1628.890	1224.886
80.709	13.644	1628.013	1224.537
81.724	13.713	1626.838	1224.056
82.739	13.790	1625.875	1223.790
83.753	13.818	1625.276	1223.436
84.768	13.771	1624.229	1222.188
85.782	13.820	1622.817	1221.381
86.797	13.917	1622.128	1221.469
87.812	13.852	1621.678	1220.541
88.826	13.761	1620.009	1218.509
89.841	13.726	1618.946	1217.346
90.855	13.767	1618.459	1217.173
91.870	13.868	1616.994	1216.707
92.884	13.838	1616.246	1215.817
93.899	13.906	1615.181	1215.405
94.914	13.833	1614.054	1213.911
95.928	13.906	1612.513	1213.178
96.943	13.996	1610.974	1212.571
97.957	13.895	1610.051	1211.036
98.972	13.924	1608.409	1209.904
99.987	13.886	1606.630	1208.183
101.001	13.908	1605.293	1207.226
102.016	13.892	1603.305	1205.511
103.030	13.852	1602.469	1204.486
104.045	13.776	1601.607	1203.177
105.060	13.938	1599.621	1202.752
106.074	13.908	1597.783	1201.050
107.089	13.803	1597.152	1199.709
108.103	13.866	1595.322	1198.682
109.118	13.693	1593.760	1196.155
110.133	13.764	1592.168	1195.366
111.147	13.768	1590.975	1194.395
112.162	13.808	1589.509	1193.474
113.176	13.727	1588.365	1191.933
114.191	13.819	1586.810	1191.316
115.206	13.830	1585.239	1190.109
116.220	13.920	1583.731	1189.518
117.235	13.839	1582.930	1188.231
118.249	13.825	1581.840	1187.210
119.264	13.830	1580.342	1186.017
120.279	13.860	1578.531	1184.763
121.293	13.846	1577.195	1183.558
122.308	13.803	1575.883	1182.164
123.322	13.818	1574.067	1180.800
124.337	13.759	1572.815	1179.342
125.352	13.682	1572.082	1178.139
126.366	13.833	1570.573	1177.976
127.381	13.746	1569.609	1176.528
128.395	13.752	1568.768	1175.841
129.410	13.704	1567.194	1174.218
130.424	13.723	1565.926	1173.296
131.439	13.771	1564.043	1172.123
132.454	13.750	1563.259	1171.279
133.468	13.894	1561.729	1171.049
134.483	13.836	1560.204	1169.388
135.497	13.897	1558.442	1168.394
136.512	13.846	1557.288	1167.068
137.527	13.798	1555.496	1165.286
138.541	13.733	1555.107	1164.437
139.556	13.854	1553.533	1164.001
140.570	13.863	1552.037	1162.844
141.585	13.883	1550.797	1161.952
142.600	13.929	1549.315	1161.059
143.614	13.975	1548.469	1160.642
144.629	14.024	1547.236	1159.959
145.643	13.983	1545.873	1158.544
146.658	14.072	1544.256	1157.850
147.673	14.077	1542.503	1156.469
148.687	14.018	1541.516	1155.216
149.702	14.019	1540.096	1154.059
150.716	14.034	1538.262	1152.687
151.731	14.034	1536.814	1151.500
152.746	14.094	1535.416	1150.763
153.760	14.030	1534.073	1149.216
154.775	14.053	1533.067	1148.516
155.789	14.072	1531.455	1147.338
156.804	14.162	1530.132	1146.868
157.819	14.113	1529.191	1145.724
158.833	14.119	1528.183	1144.907
159.848	14.146	1526.720	1143.895
160.862	14.343	1525.094	1143.931
161.877	14.282	1524.240	1142.769
162.892	14.159	1523.090	1140.961
163.906	14.205	1521.601	1140.060
164.921	14.197	1519.976	1138.685
165.935	14.068	1519.616	1137.432
166.950	14.114	1518.404	1136.745
167.964	14.158	1517.317	1136.127
168.979	14.285	1516.355	1136.171
169.994	14.237	1514.970	1134.706
171.008	14.181	1514.033	1133.526
172.023	14.117	1513.126	1132.309
173.037	14.234	1511.412	1131.721
174.052	14.309	1510.562	1131.496
175.067	14.432	1508.881	1130.970
176.081	14.299	1508.380	1129.592
177.096	14.169	1507.279	1127.788
178.110	14.214	1505.738	1126.840
179.125	14.284	1504.404	1126.218
180.140	14.312	1503.392	1125.544
181.154	14.304	1502.637	1124.826
182.169	14.243	1501.583	1123.529
183.183	14.346	1500.547	1123.347
184.198	14.389	1499.266	1122.582
185.213	14.470	1498.104	1122.153
186.227	14.477	1496.530	1120.923
187.242	14.449	1495.898	1120.165
188.256	14.526	1494.459	1119.500
189.271	14.536	1493.511	1118.761
190.286	14.486	1492.403	1117.497
191.300	14.498	1491.911	1117.107
192.315	14.451	1490.069	1115.318
193.329	14.404	1488.530	1113.750
194.344	14.356	1487.878	1112.846
195.359	14.393	1486.829	1112.207
196.373	14.386	1486.109	1111.528
197.388	14.393	1485.021	1110.663
198.402	14.523	1483.469	1110.266
199.417	14.560	1482.517	1109.701
200.432	14.598	1481.627	1109.188
201.446	14.651	1480.722	1108.767
202.461	14.689	1478.911	1107.567
203.475	14.691	1478.175	1106.926
204.490	14.665	1477.266	1105.976
205.504	14.717	1476.114	1105.360
206.519	14.696	1474.561	1103.959
207.534	14.622	1473.919	1102.897
208.548	14.636	1472.676	1101.959
209.563	14.659	1471.606	1101.216
210.577	14.667	1470.759	1100.533
211.592	14.699	1469.736	1099.885
212.607	14.788	1468.849	1099.707
213.621	14.765	1468.138	1098.926
214.636	14.759	1467.363	1098.206
215.650	14.888	1465.882	1097.852
216.665	14.778	1465.557	1096.785
217.680	14.858	1464.133	1096.150
218.694	14.849	1463.399	1095.444
219.709	14.976	1462.474	1095.485
220.723	14.938	1461.495	1094.411
221.738	14.888	1460.989	1093.605
222.753	14.923	1459.759	1092.819
223.767	14.859	1459.227	1091.904
224.782	14.933	1457.804	1091.224
225.796	14.954	1456.846	1090.549
226.811	15.001	1456.138	1090.230
227.826	14.990	1455.423	1089.523
228.840	14.975	1454.532	1088.663
229.855	14.945	1453.634	1087.700
230.869	14.984	1452.438	1086.966
231.884	14.984	1451.605	1086.246
232.899	14.983	1450.436	1085.263
233.913	14.965	1449.640	1084.457
234.928	15.067	1448.095	1083.864
235.942	14.966	1447.209	1082.455
236.957	14.874	1446.146	1080.965
237.972	14.886	1445.185	1080.231
238.986	15.061	1443.360	1079.901
240.001	14.944	1442.845	1078.665
241.015	14.929	1442.355	1078.105
242.030	15.153	1440.063	1077.739
243.045	15.092	1439.275	1076.664
244.059	15.157	1438.804	1076.635
245.074	15.173	1437.844	1075.923
246.088	15.165	1437.328	1075.390
247.103	15.245	1435.922	1074.758
248.117	15.190	1435.325	1073.860
249.132	15.307	1434.115	1073.610
250.147	15.159	1434.269	1072.680
251.161	15.319	1433.311	1072.895
252.176	15.387	1432.555	1072.666
253.190	15.432	1431.505	1072.072
254.205	15.393	1431.302	1071.580
255.220	15.387	1429.865	1070.370
256.234	15.504	1428.892	1070.292
257.249	15.473	1428.174	1069.463
258.263	15.528	1427.337	1069.091
259.278	15.478	1426.469	1068.031
260.293	15.478	1425.569	1067.258
261.307	15.437	1425.019	1066.491
262.322	15.553	1424.088	1066.439
263.336	15.669	1423.037	1066.293
264.351	15.642	1421.832	1065.124
265.366	15.625	1421.168	1064.426
266.380	15.596	1420.270	1063.478
267.395	15.731	1419.046	1063.318
268.409	15.753	1418.245	1062.760
269.424	15.636	1417.614	1061.459
270.439	15.749	1416.172	1060.995
271.453	15.768	1414.913	1060.081
272.468	15.717	1414.604	1059.431
273.482	15.692	1413.746	1058.537
274.497	15.725	1412.881	1058.007
275.512	15.697	1411.712	1056.863
276.526	15.783	1410.938	1056.725
277.541	15.813	1409.802	1055.970
278.555	15.854	1408.958	1055.504
279.570	15.748	1408.304	1054.252
280.585	15.753	1407.500	1053.589
281.599	15.839	1406.022	1052.929
282.614	15.874	1405.614	1052.752
283.628	15.838	1404.521	1051.613
284.643	15.846	1403.608	1050.888
285.657	15.809	1402.399	1049.659
286.672	15.897	1401.675	1049.573
287.687	15.910	1400.283	1048.519
288.701	15.969	1399.180	1047.968
289.716	15.954	1398.935	1047.595
290.730	15.878	1397.935	1046.280
291.745	15.939	1396.559	1045.540
292.760	15.928	1396.215	1045.117
293.774	16.023	1394.813	1044.564
294.789	16.036	1393.847	1043.833
295.803	15.975	1393.403	1043.031
296.818	16.099	1392.034	1042.680
297.833	16.185	1390.868	1042.244
298.847	15.989	1390.425	1040.612
299.862	16.040	1389.121	1039.856
300.876	16.015	1388.383	1039.057
301.891	16.057	1387.647	1038.671
302.906	16.082	1386.552	1037.914
303.920	16.197	1385.977	1038.103
304.935	16.121	1385.654	1037.302
305.949	16.205	1384.672	1036.991
306.964	16.243	1383.720	1036.417
307.979	16.245	1382.487	1035.415
308.993	16.276	1381.982	1035.137
310.008	16.288	1381.043	1034.415
311.022	16.231	1379.610	1032.902
312.037	16.347	1378.637	1032.791
313.052	16.481	1377.520	1032.679
314.066	16.432	1376.570	1031.576
315.081	16.328	1375.669	1030.174
316.095	16.313	1374.778	1029.328
317.110	16.352	1373.917	1028.827
318.125	16.272	1372.983	1027.553
319.139	16.293	1372.132	1026.954
320.154	16.325	1371.055	1026.247
321.168	16.319	1370.161	1025.451
322.183	16.380	1368.933	1024.813
323.197	16.387	1368.293	1024.284
324.212	16.322	1367.358	1023.101
325.227	16.362	1366.760	1022.808
326.241	16.326	1365.619	1021.643
327.256	16.435	1364.709	1021.530
328.270	16.451	1363.469	1020.608
329.285	16.401	1363.429	1020.186
330.300	16.417	1362.374	1019.406
331.314	16.518	1360.975	1018.875
332.329	16.478	1360.210	1017.975
333.343	16.563	1359.155	1017.604
334.358	16.468	1358.693	1016.596
335.373	16.561	1357.679	1016.304
336.387	16.558	1356.892	1015.610
337.402	16.620	1356.229	1015.395
338.416	16.599	1355.897	1014.933
339.431	16.605	1355.163	1014.329
340.446	16.624	1354.244	1013.664
341.460	16.708	1353.372	1013.422
342.475	16.669	1352.571	1012.500
343.489	16.676	1351.220	1011.446
344.504	16.802	1350.107	1011.273
345.519	16.844	1349.278	1010.814
346.533	16.916	1348.248	1010.382
347.548	16.891	1347.277	1009.411
348.562	16.856	1346.674	1008.662
349.577	16.919	1346.126	1008.542
350.592	16.792	1345.193	1007.000
351.606	16.799	1344.546	1006.466
352.621	16.851	1343.440	1005.853
353.635	16.839	1342.340	1004.870
354.650	16.855	1341.460	1004.219
355.665	16.877	1340.268	1003.368
356.679	16.813	1339.562	1002.370
357.694	16.872	1338.426	1001.784
358.708	16.910	1337.134	1000.952
359.723	16.915	1335.926	999.990
360.738	17.018	1335.163	999.933
361.752	17.023	1333.926	998.951
362.767	16.924	1332.741	997.392
363.781	16.980	1331.939	997.032
364.796	16.969	1331.350	996.441
365.810	17.020	1330.617	996.102
366.825	16.947	1330.168	995.251
367.840	17.023	1329.174	994.865
368.854	17.229	1328.101	995.175
369.869	17.186	1327.650	994.501
370.883	17.124	1327.700	994.089
371.898	17.124	1326.205	992.879
372.913	17.260	1325.581	993.119
373.927	17.187	1324.353	991.688
374.942	17.208	1323.660	991.202
375.956	17.157	1323.327	990.568
376.971	17.233	1322.034	989.953
377.986	17.250	1321.417	989.501
379.000	17.243	1320.560	988.733
380.015	17.290	1320.014	988.512
381.029	17.343	1319.323	988.214
382.044	17.367	1318.544	987.684
383.059	17.314	1317.874	986.786
384.073	17.452	1316.935	986.795
385.088	17.395	1316.444	986.011
386.102	17.405	1315.764	985.468
387.117	17.458	1315.141	985.221
388.132	17.415	1314.183	984.169
389.146	17.509	1313.206	983.892
390.161	17.483	1312.426	983.071
391.175	17.447	1311.324	981.953
392.190	17.561	1310.668	982.030
393.205	17.540	1309.782	981.162
394.219	17.586	1308.782	980.587
395.234	17.575	1307.808	979.711
396.248	17.625	1306.608	979.013
397.263	17.546	1305.059	977.311
398.278	17.471	1303.960	975.970
399.292	17.595	1302.830	975.750
400.307	17.558	1301.720	974.620
401.321	17.536	1300.849	973.758
402.336	17.465	1300.237	972.804
403.350	17.514	1299.024	972.093
404.365	17.519	1298.197	971.413
405.380	17.611	1297.278	971.165
406.394	17.671	1296.478	970.822
407.409	17.653	1295.804	970.129
408.423	17.684	1294.966	969.592
409.438	17.683	1294.381	969.064
410.453	17.745	1293.610	968.755
411.467	17.778	1292.472	968.004
412.482	17.807	1292.199	967.876
413.496	17.832	1291.562	967.456
414.511	17.807	1290.739	966.610
415.526	17.877	1290.155	966.487
416.540	17.878	1289.525	965.934
417.555	17.946	1288.483	965.454
418.569	17.906	1287.962	964.749
419.584	18.003	1287.430	964.814
420.599	17.963	1286.868	964.083
421.613	101.396	1359.465	1488.717
422.628	99.272	1369.976	1488.804
