DTS Sentinel unit serial number:	SN413079Multiplexer serial number:	ORYXHardware model number:	OX4-SRSoftware version number:	ORYX F/W v4.00 Oryx Data Collector v3.7.2.0data status	okinstallation	princeton_trtdifferential loss correction	single-endedforward channel	channel 4reverse channel	N/Adate	2019/09/16time	01:45:34forward acquisition time	60.00reverse acquisition time	0.00gamma	496.2192k internal	0.2323k external	0.2323temperature offset calibration	0.9969default loss term (dB/km)	0.3790temperature slope calibration	1.0000multiplexer offset coefficient	1.0000multiplexer slope coefficient	1.0000fibre end	0.00T internal ref (°C)	27.37T ext. ref 1 (°C)	10.01T ext. ref 2 (°C)	22.24length (m)	temperature (°C)	Stokes	anti-Stokes-747.200	-200.000	0.003	0.237
-746.185	-200.000	-0.063	0.333
-745.171	-148.753	-0.114	-0.009
-744.156	546.320	0.074	-0.178
-743.142	289.462	-0.139	0.254
-742.127	-110.797	0.233	0.048
-741.112	570.323	-0.068	-0.167
-740.098	-51.057	0.174	0.083
-739.083	-200.000	0.008	-0.265
-738.069	311.745	0.082	0.156
-737.054	-168.879	-0.481	0.018
-736.039	800.000	0.092	0.327
-735.025	161.966	-0.058	-0.082
-734.010	-152.665	-0.313	-0.023
-732.996	557.651	-0.032	-0.078
-731.981	365.132	0.076	-0.155
-730.966	-200.000	-0.246	-0.001
-729.952	-62.045	0.342	-0.144
-728.937	139.472	-0.096	-0.127
-727.923	-165.872	-0.096	0.004
-726.908	-7.709	0.166	-0.113
-725.894	121.242	0.246	-0.309
-724.879	-199.401	0.453	0.002
-723.864	-35.315	0.250	0.137
-722.850	-75.830	0.299	-0.107
-721.835	44.721	0.204	0.189
-720.821	120.833	0.222	-0.278
-719.806	800.000	0.032	-0.119
-718.791	-82.864	-0.040	0.013
-717.777	-2.410	-0.053	0.037
-716.762	351.947	0.125	-0.250
-715.748	-153.947	0.241	-0.017
-714.733	-152.442	0.063	-0.005
-713.718	-200.000	-0.227	-0.000
-712.704	-200.000	-0.029	-0.518
-711.689	525.717	-0.052	-0.124
-710.675	-50.965	0.030	-0.014
-709.660	-104.516	0.058	-0.013
-708.645	-166.145	-0.167	0.007
-707.631	453.062	0.136	-0.304
-706.616	800.000	0.032	-0.098
-705.602	194.651	0.060	-0.091
-704.587	-200.000	-0.015	0.086
-703.572	-107.557	-0.238	-0.052
-702.558	-28.703	0.354	-0.206
-701.543	800.000	-0.120	0.339
-700.529	-17.214	0.149	-0.095
-699.514	-103.521	-0.156	0.037
-698.499	306.176	-0.110	0.206
-697.485	-74.742	0.218	0.079
-696.470	-200.000	0.036	0.165
-695.456	107.141	-0.151	0.181
-694.441	-44.781	0.109	-0.055
-693.426	19.391	-0.158	-0.128
-692.412	-200.000	0.073	-0.333
-691.397	126.445	0.126	-0.161
-690.383	53.597	-0.020	0.019
-689.368	58.393	-0.104	0.103
-688.354	212.627	-0.044	0.070
-687.339	-27.918	-0.251	0.147
-686.324	800.000	-0.093	-0.303
-685.310	-12.592	0.218	0.143
-684.295	4.862	-0.220	-0.163
-683.281	425.655	-0.106	0.230
-682.266	-55.712	-0.213	-0.096
-681.251	86.319	-0.076	-0.085
-680.237	71.224	0.101	0.106
-679.222	-200.000	0.017	0.160
-678.208	-8.401	-0.364	-0.246
-677.193	800.000	0.056	0.226
-676.178	-51.378	-0.111	0.052
-675.164	800.000	-0.051	-0.218
-674.149	66.969	0.116	-0.119
-673.135	-87.151	0.237	0.073
-672.120	203.177	-0.055	0.086
-671.105	105.520	0.340	0.405
-670.091	349.021	0.093	0.184
-669.076	327.475	0.182	-0.351
-668.062	-110.084	0.164	-0.035
-667.047	64.739	-0.044	-0.045
-666.032	70.917	0.225	-0.235
-665.018	58.899	0.441	0.436
-664.003	143.909	0.318	-0.427
-662.989	-112.975	-0.120	0.024
-661.974	53.602	-0.161	-0.156
-660.959	114.679	0.110	0.136
-659.945	373.109	-0.189	-0.386
-658.930	800.000	-0.044	0.140
-657.916	800.000	0.055	0.204
-656.901	-169.346	0.128	-0.005
-655.886	56.045	-0.191	-0.186
-654.872	-200.000	0.060	0.304
-653.857	-148.197	0.273	-0.023
-652.843	-200.000	-0.029	0.443
-651.828	-200.000	0.048	-0.486
-650.814	-18.970	-0.200	0.125
-649.799	69.673	-0.342	-0.354
-648.784	-118.351	-0.104	0.019
-647.770	-200.000	-0.023	-0.111
-646.755	175.062	-0.096	-0.140
-645.741	-74.750	-0.014	-0.005
-644.726	-1.442	0.387	-0.275
-643.711	592.842	-0.089	-0.221
-642.697	-100.780	0.188	-0.047
-641.682	440.480	-0.168	0.370
-640.668	420.336	-0.089	0.191
-639.653	91.023	0.152	0.172
-638.638	24.012	-0.185	-0.153
-637.624	-54.269	0.203	-0.093
-636.609	67.795	0.257	-0.265
-635.595	-60.167	0.072	0.031
-634.580	361.545	0.066	0.133
-633.565	1.522	0.120	0.087
-632.551	0.628	-0.123	0.089
-631.536	-150.390	0.224	0.017
-630.522	217.707	-0.166	-0.266
-629.507	-200.000	-0.020	-0.154
-628.492	447.113	0.181	-0.400
-627.478	800.000	-0.070	-0.249
-626.463	-200.000	-0.017	0.080
-625.449	28.604	0.244	-0.208
-624.434	-47.927	0.204	-0.099
-623.419	-142.147	0.125	-0.012
-622.405	-3.487	0.028	0.020
-621.390	-200.000	0.017	-0.194
-620.376	-200.000	0.006	-0.029
-619.361	146.883	-0.178	-0.240
-618.346	117.219	-0.096	-0.119
-617.332	106.825	0.089	0.106
-616.317	-104.395	0.110	-0.026
-615.303	-200.000	-0.028	0.127
-614.288	-88.825	0.236	0.070
-613.273	800.000	-0.010	-0.042
-612.259	-46.341	-0.365	-0.180
-611.244	362.683	0.122	0.246
-610.230	-200.000	0.037	0.220
-609.215	518.288	-0.095	0.223
-608.201	124.857	0.094	0.119
-607.186	706.002	0.020	0.052
-606.171	37.331	-0.290	-0.258
-605.157	-200.000	0.079	-0.367
-604.142	-200.000	-0.063	0.347
-603.128	144.700	-0.188	-0.253
-602.113	-135.549	0.121	-0.015
-601.098	6.931	-0.170	-0.127
-600.084	44.397	-0.149	-0.138
-599.069	-200.000	-0.061	0.336
-598.055	-77.612	0.182	0.063
-597.040	230.317	-0.128	0.211
-596.025	605.413	-0.068	-0.171
-595.011	440.399	-0.043	-0.095
-593.996	-200.000	-0.000	-0.066
-592.982	-118.877	-0.224	-0.040
-591.967	-200.000	-0.004	0.225
-590.952	-118.724	0.318	0.056
-589.938	231.697	0.100	0.164
-588.923	800.000	0.054	-0.231
-587.909	233.889	0.051	-0.084
-586.894	-200.000	0.021	0.106
-585.879	-177.301	-0.411	-0.010
-584.865	384.610	0.124	0.257
-583.850	-54.298	-0.132	-0.060
-582.836	331.986	0.091	0.176
-581.821	35.836	-0.259	0.228
-580.806	255.438	0.134	-0.230
-579.792	688.301	-0.196	-0.514
-578.777	154.032	-0.118	0.162
-577.763	-37.614	0.065	0.035
-576.748	-200.000	-0.004	-0.113
-575.733	-15.659	-0.207	-0.132
-574.719	137.090	-0.156	0.205
-573.704	-200.000	0.028	-0.127
-572.690	-200.000	0.020	-0.239
-571.675	-200.000	0.002	0.124
-570.661	144.865	0.143	0.192
-569.646	370.866	0.044	-0.089
-568.631	255.099	0.151	0.260
-567.617	23.168	0.282	-0.233
-566.602	177.627	0.110	-0.161
-565.588	220.308	-0.125	0.201
-564.573	-166.776	-0.225	-0.009
-563.558	432.357	-0.126	0.274
-562.544	275.095	-0.277	-0.493
-561.529	19.552	-0.210	0.169
-560.515	-27.862	-0.102	0.059
-559.500	66.313	-0.136	0.138
-558.485	-200.000	-0.020	-0.138
-557.471	-200.000	0.059	0.306
-556.456	-73.810	0.189	0.069
-555.442	-200.000	-0.030	-0.376
-554.427	800.000	0.086	0.263
-553.412	-200.000	0.017	-0.367
-552.398	-200.000	-0.036	-0.410
-551.383	119.423	0.078	-0.097
-550.369	259.186	-0.226	0.391
-549.354	35.206	-0.110	0.097
-548.339	800.000	-0.071	-0.282
-547.325	800.000	-0.036	0.152
-546.310	-49.850	0.016	0.007
-545.296	75.470	0.275	0.290
-544.281	-1.386	-0.216	-0.153
-543.266	58.486	0.177	0.174
-542.252	26.115	0.244	-0.204
-541.237	-65.455	-0.228	0.092
-540.223	396.430	-0.219	0.459
-539.208	159.917	-0.253	-0.354
-538.193	-59.839	0.307	-0.131
-537.179	17.882	-0.069	0.055
-536.164	800.000	0.076	-0.325
-535.150	-133.036	0.283	0.036
-534.135	-161.928	-0.219	-0.011
-533.121	-65.782	-0.209	-0.084
-532.106	10.450	0.309	-0.236
-531.091	2.549	0.128	0.093
-530.077	336.606	0.150	0.292
-529.062	-200.000	-0.050	0.257
-528.048	-90.080	0.150	0.044
-527.033	546.704	0.171	-0.410
-526.018	265.807	-0.132	-0.230
-525.004	24.136	0.059	0.049
-523.989	-58.813	0.105	-0.046
-522.975	-65.381	0.250	0.101
-521.960	-149.559	-0.159	-0.013
-520.945	-83.969	0.366	-0.117
-519.931	-26.575	-0.234	-0.137
-518.916	-200.000	-0.029	0.307
-517.902	-200.000	-0.061	0.452
-516.887	257.370	-0.015	-0.025
-515.872	138.279	-0.144	-0.189
-514.858	196.627	-0.132	0.201
-513.843	-200.000	-0.060	-0.439
-512.829	-200.000	0.011	-0.370
-511.814	4.058	0.322	-0.236
-510.799	-200.000	0.006	-0.136
-509.785	-200.000	-0.033	-0.425
-508.770	-129.807	-0.149	-0.020
-507.756	800.000	-0.052	-0.160
-506.741	101.100	0.040	0.046
-505.726	29.426	0.327	-0.278
-504.712	-200.000	0.020	-0.256
-503.697	-62.788	0.255	0.106
-502.683	240.711	0.037	0.061
-501.668	-200.000	-0.004	-0.076
-500.653	-17.635	-0.123	-0.077
-499.639	-200.000	-0.020	0.245
-498.624	35.042	0.093	-0.082
-497.610	248.503	0.227	-0.384
-496.595	-161.659	-0.266	-0.014
-495.581	-79.200	0.190	0.065
-494.566	11.700	-0.128	0.098
-493.551	206.612	0.138	0.216
-492.537	-200.000	0.019	0.142
-491.522	-163.710	0.505	0.024
-490.508	-130.144	0.179	0.024
-489.493	169.791	-0.068	0.097
-488.478	-116.337	0.317	-0.059
-487.464	-117.430	-0.021	0.004
-486.449	-88.886	-0.162	0.048
-485.435	-102.086	-0.154	0.037
-484.420	800.000	0.064	-0.252
-483.405	145.203	-0.260	-0.348
-482.391	-200.000	0.037	0.317
-481.376	-103.127	0.135	0.032
-480.362	-81.214	-0.287	-0.095
-479.347	800.000	0.061	0.241
-478.332	800.000	0.065	0.254
-477.318	-200.000	0.032	-0.343
-476.303	-162.249	0.110	0.006
-475.289	8.807	0.106	-0.080
-474.274	-200.000	-0.053	-0.242
-473.259	-47.409	-0.428	0.208
-472.245	174.325	-0.274	-0.396
-471.230	3.072	0.112	0.082
-470.216	800.000	-0.184	0.529
-469.201	40.281	-0.072	-0.064
-468.186	-200.000	-0.030	-0.260
-467.172	-89.999	0.037	-0.011
-466.157	-118.714	-0.217	-0.038
-465.143	-171.000	0.240	0.008
-464.128	499.930	-0.076	0.175
-463.113	43.525	0.222	-0.203
-462.099	-137.031	0.223	-0.025
-461.084	-108.588	-0.196	0.042
-460.070	298.036	0.068	-0.124
-459.055	-101.423	0.149	0.036
-458.040	-200.000	-0.057	-0.454
-457.026	-172.268	-0.240	-0.008
-456.011	30.718	-0.052	0.044
-454.997	-200.000	0.027	0.372
-453.982	-172.313	-0.329	-0.011
-452.968	-39.542	-0.208	0.109
-451.953	19.658	0.141	0.113
-450.938	275.042	-0.079	0.139
-449.924	37.275	0.171	0.151
-448.909	-88.638	0.089	-0.026
-447.895	-200.000	0.002	-0.039
-446.880	101.380	-0.085	0.099
-445.865	800.000	0.098	0.272
-444.851	40.568	-0.230	-0.206
-443.836	800.000	0.061	-0.266
-442.822	800.000	-0.072	-0.229
-441.807	36.804	0.164	-0.144
-440.792	-48.569	-0.320	0.153
-439.778	800.000	0.072	0.287
-438.763	-47.251	0.113	0.055
-437.749	-200.000	-0.004	0.106
-436.734	-162.455	-0.218	-0.011
-435.719	-198.286	0.234	0.001
-434.705	-87.970	-0.207	-0.062
-433.690	-200.000	-0.006	-0.108
-432.676	43.584	-0.191	-0.175
-431.661	42.423	-0.136	0.123
-430.646	305.524	0.251	0.466
-429.632	-118.118	0.033	-0.006
-428.617	20.743	0.111	-0.090
-427.603	47.009	-0.183	-0.170
-426.588	672.526	-0.067	-0.172
-425.573	-84.678	-0.439	-0.138
-424.559	201.266	0.054	0.083
-423.544	-200.000	0.196	-0.001
-422.530	-193.653	-0.230	0.002
-421.515	-64.227	-0.111	-0.045
-420.500	-117.133	0.070	0.013
-419.486	800.000	0.082	0.287
-418.471	800.000	0.053	0.231
-417.457	-24.259	-0.064	0.038
-416.442	800.000	-0.114	-0.345
-415.428	800.000	0.021	-0.069
-414.413	-15.062	-0.136	0.087
-413.398	17.658	0.154	0.122
-412.384	-93.443	-0.182	0.050
-411.369	71.208	0.398	0.411
-410.355	52.927	0.209	0.199
-409.340	-22.595	-0.137	-0.083
-408.325	459.314	-0.054	-0.120
-407.311	753.938	0.067	-0.180
-406.296	-200.000	-0.068	0.422
-405.282	-1.620	0.203	-0.143
-404.267	-83.290	-0.322	0.103
-403.252	-200.000	-0.008	0.119
-402.238	716.667	0.073	-0.194
-401.223	-200.000	0.037	-0.469
-400.209	-18.611	0.354	-0.220
-399.194	55.114	0.127	0.123
-398.179	-44.178	0.107	0.053
-397.165	110.489	-0.115	0.138
-396.150	226.726	0.123	0.199
-395.136	534.513	-0.042	-0.098
-394.121	-50.130	-0.121	-0.057
-393.106	800.000	-0.034	0.107
-392.092	800.000	0.077	0.244
-391.077	-130.958	0.463	0.062
-390.063	-101.828	0.470	0.113
-389.048	4.667	0.067	0.049
-388.033	-16.589	0.187	-0.118
-387.019	-81.128	-0.154	-0.051
-386.004	800.000	-0.056	0.189
-384.990	126.991	-0.160	-0.202
-383.975	102.296	0.111	-0.129
-382.960	-125.697	-0.364	-0.055
-381.946	796.244	-0.050	0.137
-380.931	194.356	0.198	0.299
-379.917	115.386	-0.073	-0.088
-378.902	-56.724	0.263	0.116
-377.888	-41.063	-0.249	-0.128
-376.873	-187.866	0.184	0.002
-375.858	-14.917	0.247	0.157
-374.844	-100.016	-0.297	-0.074
-373.829	-200.000	-0.017	0.361
-372.815	97.837	0.100	-0.115
-371.800	785.961	-0.106	0.289
-370.785	287.993	-0.106	0.191
-369.771	-2.081	-0.127	-0.088
-368.756	-48.195	-0.215	0.103
-367.742	-61.493	0.324	-0.136
-366.727	204.378	-0.152	-0.234
-365.712	-65.806	-0.092	0.037
-364.698	295.727	-0.154	0.280
-363.683	-174.622	0.273	0.008
-362.669	0.022	0.038	0.027
-361.654	-200.000	0.066	0.329
-360.639	-72.376	-0.347	0.128
-359.625	-200.000	0.053	0.375
-358.610	190.274	-0.154	0.229
-357.596	-200.000	-0.011	-0.091
-356.581	-200.000	0.040	-0.273
-355.566	799.915	-0.073	0.200
-354.552	249.440	0.267	-0.450
-353.537	359.830	-0.065	-0.130
-352.523	210.325	0.132	-0.206
-351.508	-104.494	0.171	0.039
-350.493	-34.955	0.200	0.109
-349.479	521.761	0.119	0.279
-348.464	95.523	0.193	0.219
-347.450	-4.986	-0.061	-0.041
-346.435	-54.987	-0.280	0.125
-345.420	800.000	-0.111	0.337
-344.406	-200.000	0.010	0.293
-343.391	53.358	0.154	-0.146
-342.377	800.000	0.125	0.345
-341.362	-200.000	-0.025	-0.118
-340.348	-70.237	0.396	-0.149
-339.333	54.217	-0.109	-0.104
-338.318	-200.000	0.022	0.149
-337.304	-200.000	-0.006	0.092
-336.289	800.000	-0.073	-0.266
-335.275	-200.000	0.012	-0.168
-334.260	112.476	-0.148	-0.178
-333.245	-200.000	-0.003	0.136
-332.231	800.000	0.057	-0.210
-331.216	-76.677	0.410	-0.143
-330.202	3.853	0.051	-0.037
-329.187	-200.000	-0.034	0.252
-328.172	623.876	0.048	0.119
-327.158	-123.364	0.150	-0.024
-326.143	-89.430	-0.160	-0.047
-325.129	731.187	0.124	-0.331
-324.114	-200.000	-0.054	-0.288
-323.099	135.852	0.147	0.190
-322.085	-13.161	0.169	0.109
-321.070	-129.452	-0.260	-0.036
-320.056	-200.000	-0.005	0.227
-319.041	-154.235	0.174	-0.012
-318.026	140.567	0.060	0.079
-317.012	-15.559	-0.192	0.122
-315.997	-200.000	-0.015	0.231
-314.983	-15.612	-0.123	-0.078
-313.968	-49.986	0.080	-0.037
-312.953	-69.136	-0.263	0.100
-311.939	-200.000	0.032	0.306
-310.924	-65.798	-0.121	0.048
-309.910	-76.328	-0.246	-0.086
-308.895	64.883	0.227	0.227
-307.880	443.212	0.115	-0.251
-306.866	106.200	0.203	-0.239
-305.851	0.223	-0.324	0.230
-304.837	311.522	0.067	0.125
-303.822	-200.000	0.056	0.344
-302.807	-12.030	-0.129	0.084
-301.793	800.000	-0.033	-0.124
-300.778	122.725	0.061	0.076
-299.764	57.262	-0.304	-0.295
-298.749	-112.792	-0.333	-0.066
-297.735	-100.469	0.271	-0.067
-296.720	-167.210	0.148	0.006
-295.705	96.166	-0.120	0.136
-294.691	-52.486	-0.198	-0.091
-293.676	-200.000	-0.031	-0.213
-292.662	-175.501	-0.285	-0.008
-291.647	-88.045	-0.208	-0.062
-290.632	13.605	0.186	0.143
-289.618	220.454	0.112	-0.178
-288.603	-200.000	-0.004	0.032
-287.589	81.071	0.094	0.101
-286.574	-39.245	0.325	-0.169
-285.559	-42.972	-0.100	-0.051
-284.545	-125.740	-0.102	0.015
-283.530	40.659	-0.098	0.088
-282.516	-66.047	-0.159	-0.063
-281.501	-92.018	-0.039	-0.011
-280.486	106.943	0.039	-0.047
-279.472	-138.863	-0.117	-0.013
-278.457	23.009	-0.074	-0.060
-277.443	55.093	-0.057	0.054
-276.428	-200.000	0.007	0.111
-275.413	-200.000	0.002	-0.296
-274.399	463.169	0.081	-0.180
-273.384	-56.953	-0.454	-0.199
-272.370	-200.000	0.000	0.004
-271.355	-127.635	-0.186	-0.027
-270.340	312.920	-0.030	-0.055
-269.326	43.816	0.149	0.136
-268.311	533.523	-0.051	0.120
-267.297	-14.208	-0.152	-0.097
-266.282	88.995	0.036	-0.040
-265.267	-42.599	0.260	-0.131
-264.253	-15.395	-0.202	-0.128
-263.238	-54.402	0.210	-0.094
-262.224	-8.490	0.279	0.186
-261.209	-200.000	-0.019	0.137
-260.195	800.000	0.120	-0.383
-259.180	276.652	-0.117	0.205
-258.165	-200.000	-0.003	-0.024
-257.151	-200.000	0.273	0.000
-256.136	59.888	-0.171	-0.168
-255.122	-151.030	0.201	0.015
-254.107	-160.634	-0.158	0.008
-253.092	58.910	-0.398	-0.387
-252.078	-51.828	0.226	0.104
-251.063	54.548	0.118	0.112
-250.049	0.797	0.149	0.105
-249.034	48.087	0.072	0.067
-248.019	-14.525	-0.236	0.150
-247.005	56.237	0.246	0.237
-245.990	64.926	-0.212	-0.212
-244.976	-98.790	0.082	0.021
-243.961	-125.255	0.188	-0.028
-242.946	229.859	-0.034	-0.054
-241.932	196.713	0.074	-0.112
-240.917	221.839	0.159	0.253
-239.903	-120.600	-0.098	-0.016
-238.888	-182.530	0.319	0.006
-237.873	800.000	-0.056	-0.177
-236.859	526.852	0.044	0.103
-235.844	-109.696	0.090	0.019
-234.830	-35.361	0.225	0.121
-233.815	51.286	0.146	0.137
-232.800	-31.055	0.255	0.142
-231.786	-200.000	0.033	0.207
-230.771	175.822	0.098	-0.141
-229.757	800.000	0.077	0.253
-228.742	-183.397	0.068	-0.001
-227.727	172.936	0.065	0.093
-226.713	-47.022	-0.187	-0.091
-225.698	-44.692	0.179	0.088
-224.684	-110.688	-0.259	-0.053
-223.669	-45.839	-0.237	-0.116
-222.655	-48.010	-0.113	0.054
-221.640	800.000	0.112	0.313
-220.625	24.760	-0.215	0.176
-219.611	-76.981	-0.222	-0.077
-218.596	-166.541	0.387	-0.016
-217.582	555.672	-0.086	-0.205
-216.567	-130.530	0.377	0.050
-215.552	-33.792	-0.039	-0.021
-214.538	-55.252	-0.404	0.180
-213.523	-110.365	-0.287	-0.059
-212.509	-33.572	-0.157	0.086
-211.494	-200.000	0.030	0.218
-210.479	37.070	-0.180	0.157
-209.465	147.931	0.265	0.353
-208.450	165.524	0.072	-0.101
-207.436	-136.445	-0.345	0.040
-206.421	800.000	0.071	-0.241
-205.406	361.611	-0.070	0.138
-204.392	-53.968	0.175	-0.079
-203.377	-133.144	0.198	0.025
-202.363	-107.143	0.437	-0.095
-201.348	77.542	-0.226	-0.238
-200.333	-139.514	0.134	-0.014
-199.319	-36.104	0.150	0.080
-198.304	58.937	-0.224	0.218
-197.290	-141.556	-0.425	-0.042
-196.275	-200.000	-0.019	0.198
-195.260	77.704	0.071	-0.075
-194.246	-5.062	0.149	0.102
-193.231	162.783	-0.139	0.193
-192.217	800.000	0.044	-0.131
-191.202	161.026	-0.137	-0.189
-190.187	-200.000	-0.032	-0.277
-189.173	150.798	-0.172	0.231
-188.158	-83.991	-0.041	0.013
-187.144	-200.000	-0.029	-0.212
-186.129	10.434	-0.344	0.259
-185.114	-90.589	-0.325	0.093
-184.100	-200.000	0.030	-0.297
-183.085	-200.000	0.059	0.259
-182.071	166.432	0.049	0.068
-181.056	-39.904	0.136	0.070
-180.042	643.520	-0.125	0.315
-179.027	-200.000	-0.022	-0.096
-178.012	-118.371	0.288	0.051
-176.998	800.000	0.036	-0.151
-175.983	-29.609	-0.189	0.107
-174.969	800.000	-0.046	0.174
-173.954	339.383	0.152	0.292
-172.939	-200.000	-0.007	0.115
-171.925	535.361	-0.089	-0.209
-170.910	330.648	-0.072	-0.137
-169.896	-192.668	-0.552	-0.005
-168.881	48.093	-0.164	-0.151
-167.866	549.196	0.054	-0.127
-166.852	-200.000	0.079	-0.413
-165.837	-200.000	0.008	-0.086
-164.823	387.080	0.066	-0.134
-163.808	800.000	0.067	-0.202
-162.793	241.007	0.118	0.195
-161.779	-52.589	0.117	-0.053
-160.764	63.236	-0.039	-0.039
-159.750	29.286	0.260	0.218
-158.735	45.646	-0.042	-0.038
-157.720	169.318	0.191	0.270
-156.706	202.325	-0.072	0.110
-155.691	-63.125	-0.197	0.080
-154.677	-117.267	0.246	-0.044
-153.662	-116.872	-0.285	-0.052
-152.647	94.388	0.106	-0.119
-151.633	-31.175	0.162	-0.090
-150.618	132.090	0.217	-0.276
-149.604	-45.619	0.087	0.042
-148.589	-110.198	0.110	0.023
-147.574	335.784	-0.026	0.050
-146.560	800.000	-0.062	0.225
-145.545	-64.685	0.276	0.110
-144.531	-200.000	-0.031	-0.165
-143.516	-165.631	0.245	-0.011
-142.502	-150.472	0.323	-0.024
-141.487	-6.174	-0.091	0.062
-140.472	800.000	0.070	-0.253
-139.458	-200.000	0.027	0.161
-138.443	-200.000	-0.047	0.215
-137.429	182.077	0.125	0.182
-136.414	800.000	-0.083	-0.274
-135.399	-68.239	0.240	-0.092
-134.385	-200.000	0.001	-0.130
-133.370	-163.167	0.065	-0.003
-132.356	-109.716	-0.284	-0.059
-131.341	54.910	0.120	0.114
-130.326	-22.979	-0.133	0.079
-129.312	-0.618	-0.354	-0.248
-128.297	-11.502	0.115	0.074
-127.283	-200.000	-0.017	0.242
-126.268	-125.730	-0.372	0.055
-125.253	-7.880	-0.069	0.046
-124.239	-158.077	-0.139	0.008
-123.224	14.320	-0.060	-0.046
-122.210	213.883	-0.102	-0.160
-121.195	206.817	0.293	0.450
-120.180	-59.674	0.054	-0.023
-119.166	800.000	0.053	-0.173
-118.151	-88.913	0.175	0.051
-117.137	266.062	0.129	-0.223
-116.122	130.349	-0.088	0.112
-115.107	-112.754	0.088	-0.017
-114.093	-47.241	-0.219	-0.105
-113.078	-200.000	0.017	0.126
-112.064	-17.834	-0.153	0.094
-111.049	-200.000	-0.023	-0.288
-110.034	-29.537	0.236	-0.133
-109.020	-82.679	-0.061	0.019
-108.005	44.756	0.314	0.284
-106.991	-200.000	-0.014	0.069
-105.976	86.799	0.064	0.070
-104.962	92.293	0.268	-0.297
-103.947	-145.511	-0.189	-0.017
-102.932	24.663	0.184	-0.150
-101.918	46.162	-0.191	-0.174
-100.903	18.123	-0.301	0.237
-99.889	800.000	-0.142	0.493
-98.874	-68.715	-0.071	0.027
-97.859	124.671	-0.122	0.152
-96.845	130.885	-0.150	0.190
-95.830	800.000	-0.080	-0.313
-94.816	-200.000	0.038	-0.346
-93.801	-20.042	-0.241	-0.146
-92.786	-86.536	0.057	-0.017
-91.772	-156.765	-0.141	-0.009
-90.757	394.476	0.156	0.320
-89.743	-121.003	0.312	-0.052
-88.728	-26.826	-0.196	-0.113
-87.713	40.038	-0.225	0.199
-86.699	157.386	-0.166	-0.226
-85.684	335.927	0.126	0.240
-84.670	407.771	0.066	0.138
-83.655	251.472	0.147	0.246
-82.640	-84.275	-0.251	0.078
-81.626	-200.000	0.052	-0.306
-80.611	171.029	0.035	-0.049
-79.597	800.000	0.083	0.246
-78.582	174.240	0.058	0.082
-77.567	-200.000	-0.001	-0.144
-76.553	49.172	-0.191	0.177
-75.538	-21.569	-0.100	-0.060
-74.524	475.598	-0.153	-0.339
-73.509	54.188	-0.197	-0.186
-72.494	-38.253	0.343	-0.179
-71.480	-130.383	-0.097	0.013
-70.465	15.038	-0.082	0.063
-69.451	171.211	-0.121	-0.171
-68.436	-92.041	0.031	-0.009
-67.422	359.992	0.089	-0.175
-66.407	190.656	0.083	-0.122
-65.392	675.933	0.087	0.221
-64.378	2.158	0.142	-0.101
-63.363	-66.240	-0.234	-0.092
-62.349	-200.000	-0.037	-0.165
-61.334	8.196	-1.203	-0.889
-60.319	-4.742	0.682	0.463
-59.305	800.000	-0.437	-1.332
-58.290	292.429	0.724	1.297
-57.276	573.037	0.618	1.480
-56.261	-200.000	113.040	643.763
-55.246	470.606	1501.002	3318.245
-54.232	145.815	2673.696	3523.704
-53.217	93.650	2316.384	2579.452
-52.203	33.726	2065.022	1765.618
-51.188	29.098	1980.524	1651.892
-50.173	27.754	1963.330	1625.525
-49.159	45.814	2020.707	1836.700
-48.144	45.009	2036.697	1843.890
-47.130	29.732	1996.236	1670.468
-46.115	27.450	1986.223	1641.475
-45.100	27.317	1983.532	1637.995
-44.086	27.295	1981.324	1635.910
-43.071	27.244	1979.001	1633.468
-42.057	27.222	1976.914	1631.484
-41.042	27.215	1974.954	1629.738
-40.027	27.230	1972.908	1628.119
-39.013	27.257	1970.960	1626.687
-37.998	27.286	1968.872	1625.161
-36.984	27.287	1967.860	1624.265
-35.969	27.304	1965.358	1622.292
-34.954	27.306	1963.723	1620.894
-33.940	27.281	1962.593	1619.677
-32.925	27.376	1960.553	1618.772
-31.911	27.347	1959.278	1617.393
-30.896	27.390	1957.484	1616.229
-29.881	27.364	1956.235	1614.907
-28.867	27.466	1954.275	1614.124
-27.852	27.383	1952.868	1612.170
-26.838	27.422	1950.678	1610.642
-25.823	27.419	1949.578	1609.641
-24.809	27.463	1947.439	1608.199
-23.794	27.452	1945.300	1606.273
-22.779	27.444	1944.048	1605.101
-21.765	27.333	1942.565	1602.841
-20.750	27.428	1939.941	1601.448
-19.736	27.440	1939.029	1600.731
-18.721	27.456	1937.497	1599.543
-17.706	27.428	1935.618	1597.684
-16.692	27.363	1933.656	1595.434
-15.677	27.388	1932.861	1594.931
-14.663	27.383	1931.027	1593.313
-13.648	27.445	1929.650	1592.655
-12.633	27.428	1928.803	1591.745
-11.619	27.349	1927.628	1590.026
-10.604	27.417	1925.661	1588.927
-9.590	27.392	1924.425	1587.629
-8.575	27.354	1923.431	1586.418
-7.560	27.361	1922.072	1585.296
-6.546	27.367	1920.910	1584.327
-5.531	27.415	1919.229	1583.291
-4.517	27.410	1918.153	1582.295
-3.502	27.435	1916.920	1581.439
-2.487	27.440	1915.651	1580.365
-1.473	27.392	1914.968	1579.329
-0.458	27.579	1909.659	1576.501
0.556	25.392	1890.235	1548.872
1.571	21.457	1872.194	1500.275
2.586	17.853	1894.824	1486.928
3.600	17.019	1930.121	1507.091
4.615	16.988	1924.912	1502.614
5.629	15.359	1832.549	1416.640
6.644	12.110	1726.691	1308.797
7.659	10.227	1695.788	1270.492
8.673	10.061	1693.187	1267.124
9.688	10.036	1692.135	1266.033
10.702	10.007	1690.182	1264.232
11.717	9.946	1686.264	1260.717
12.731	10.238	1684.729	1261.729
13.746	12.592	1689.628	1283.672
14.761	15.928	1696.882	1315.164
15.775	17.567	1698.425	1329.043
16.790	17.076	1696.655	1323.714
17.804	16.096	1693.280	1313.330
18.819	15.085	1690.109	1302.891
19.834	14.417	1687.025	1295.210
20.848	14.131	1685.561	1291.748
21.863	13.902	1683.855	1288.555
22.877	13.659	1682.609	1285.603
23.892	13.378	1681.015	1282.090
24.907	13.312	1680.027	1280.713
25.921	13.298	1679.086	1279.776
26.936	13.286	1677.996	1278.735
27.950	13.369	1676.689	1278.269
28.965	13.320	1676.763	1277.835
29.980	13.430	1675.720	1277.774
30.994	13.472	1674.494	1277.048
32.009	13.533	1673.468	1276.630
33.023	13.560	1672.788	1276.205
34.038	13.576	1671.833	1275.482
35.053	13.572	1670.188	1274.089
36.067	13.410	1669.212	1271.982
37.082	13.478	1668.060	1271.515
38.096	13.468	1667.062	1270.563
39.111	13.538	1666.410	1270.494
40.126	13.536	1666.002	1270.052
41.140	13.495	1664.816	1268.727
42.155	13.391	1662.850	1266.320
43.169	13.332	1661.444	1264.682
44.184	13.223	1660.825	1263.269
45.199	13.162	1659.742	1261.869
46.213	13.218	1658.170	1260.986
47.228	13.215	1656.957	1259.931
48.242	13.306	1655.782	1259.617
49.257	13.416	1654.606	1259.448
50.271	13.298	1653.765	1257.800
51.286	13.411	1651.901	1257.132
52.301	13.393	1651.231	1256.374
53.315	13.333	1649.658	1254.612
54.330	13.350	1647.918	1253.300
55.344	13.307	1646.170	1251.539
56.359	13.288	1644.829	1250.265
57.374	13.245	1644.028	1249.221
58.388	13.329	1642.172	1248.336
59.403	13.249	1641.398	1247.029
60.417	13.252	1639.388	1245.414
61.432	13.245	1638.856	1244.845
62.447	13.302	1637.408	1244.066
63.461	13.152	1636.922	1242.463
64.476	13.084	1636.064	1241.185
65.490	13.036	1635.031	1239.931
66.505	13.097	1633.580	1239.179
67.520	13.146	1632.381	1238.531
68.534	13.255	1630.968	1238.164
69.549	13.171	1629.981	1236.675
70.563	13.196	1628.924	1235.953
71.578	13.105	1627.584	1234.146
72.593	13.120	1626.678	1233.458
73.607	13.124	1625.276	1232.319
74.622	13.009	1624.465	1230.739
75.636	13.097	1623.088	1230.238
76.651	13.138	1622.286	1229.828
77.666	13.070	1621.836	1228.876
78.680	13.169	1620.899	1228.790
79.695	13.058	1620.186	1227.315
80.709	13.143	1619.161	1227.065
81.724	13.157	1618.542	1226.592
82.739	13.156	1617.672	1225.817
83.753	13.293	1616.407	1225.761
84.768	13.230	1616.213	1225.043
85.782	13.328	1615.124	1224.833
86.797	13.378	1614.192	1224.389
87.812	13.410	1613.056	1223.655
88.826	13.365	1611.544	1222.066
89.841	13.326	1610.811	1221.110
90.855	13.327	1610.018	1220.414
91.870	13.371	1609.074	1219.911
92.884	13.375	1608.140	1219.127
93.899	13.504	1606.368	1218.628
94.914	13.536	1605.457	1218.063
95.928	13.430	1604.726	1216.618
96.943	13.605	1602.627	1216.203
97.957	13.574	1600.963	1214.606
98.972	13.491	1599.356	1212.670
99.987	13.339	1598.481	1210.787
101.001	13.432	1596.721	1210.031
102.016	13.452	1594.673	1208.517
103.030	13.376	1594.202	1207.500
104.045	13.409	1592.682	1206.477
105.060	13.408	1591.103	1205.171
106.074	13.415	1589.418	1203.840
107.089	13.365	1587.929	1202.238
108.103	13.294	1586.238	1200.337
109.118	13.179	1585.288	1198.677
110.133	13.164	1583.841	1197.367
111.147	13.177	1582.172	1196.097
112.162	13.205	1581.079	1195.368
113.176	13.296	1579.296	1194.573
114.191	13.202	1578.304	1193.037
115.206	13.304	1576.848	1192.566
116.220	13.378	1575.142	1191.700
117.235	13.299	1574.353	1190.430
118.249	13.210	1573.537	1189.068
119.264	13.296	1571.930	1188.367
120.279	13.142	1570.759	1186.268
121.293	13.217	1569.460	1185.726
122.308	13.231	1567.354	1184.128
123.322	13.155	1565.866	1182.355
124.337	13.161	1564.212	1181.043
125.352	13.100	1563.205	1179.742
126.366	13.032	1562.232	1178.417
127.381	13.089	1560.804	1177.643
128.395	13.133	1559.612	1176.954
129.410	13.190	1558.068	1176.092
130.424	13.190	1556.684	1174.946
131.439	13.221	1555.554	1174.203
132.454	13.189	1554.390	1172.998
133.468	13.201	1552.623	1171.645
134.483	13.277	1551.313	1171.091
135.497	13.334	1549.885	1170.314
136.512	13.335	1548.781	1169.383
137.527	13.396	1546.884	1168.275
138.541	13.254	1546.139	1166.610
139.556	13.342	1544.376	1165.795
140.570	13.388	1543.039	1165.005
141.585	13.439	1541.782	1164.314
142.600	13.489	1540.038	1163.243
143.614	13.525	1539.074	1162.664
144.629	13.504	1538.103	1161.685
145.643	13.505	1536.736	1160.553
146.658	13.563	1535.298	1159.771
147.673	13.517	1533.771	1158.194
148.687	13.484	1532.392	1156.823
149.702	13.491	1530.928	1155.660
150.716	13.454	1529.108	1153.925
151.731	13.459	1527.842	1152.906
152.746	13.503	1526.171	1151.848
153.760	13.442	1525.400	1150.742
154.775	13.515	1523.840	1149.966
155.789	13.498	1522.670	1148.864
156.804	13.427	1521.568	1147.438
157.819	13.517	1520.292	1147.002
158.833	13.614	1518.913	1146.526
159.848	13.631	1518.360	1146.131
160.862	13.704	1516.969	1145.482
161.877	13.654	1515.558	1143.968
162.892	13.624	1514.356	1142.755
163.906	13.647	1513.130	1141.889
164.921	13.508	1512.351	1140.239
165.935	13.589	1511.062	1139.722
166.950	13.523	1510.171	1138.500
167.964	13.608	1508.803	1137.946
168.979	13.550	1508.278	1137.052
169.994	13.562	1507.142	1136.179
171.008	13.667	1505.657	1135.678
172.023	13.627	1504.724	1134.601
173.037	13.560	1503.480	1133.106
174.052	13.682	1502.514	1133.109
175.067	13.723	1501.475	1132.504
176.081	13.745	1500.151	1131.555
177.096	13.674	1498.800	1129.955
178.110	13.595	1497.718	1128.504
179.125	13.631	1496.128	1127.451
180.140	13.722	1494.743	1126.925
181.154	13.725	1494.310	1126.515
182.169	13.707	1493.476	1125.670
183.183	13.658	1492.236	1124.301
184.198	13.820	1490.662	1124.109
185.213	13.875	1489.234	1123.306
186.227	13.884	1488.683	1122.853
187.242	13.901	1487.710	1122.137
188.256	13.887	1486.889	1121.322
189.271	13.981	1485.324	1120.675
190.286	14.003	1484.591	1120.171
191.300	13.978	1483.236	1118.881
192.315	13.772	1482.404	1116.770
193.329	13.576	1480.959	1114.265
194.344	13.676	1479.466	1113.718
195.359	13.693	1478.410	1112.933
196.373	13.777	1477.537	1112.745
197.388	13.799	1476.674	1112.139
198.402	13.881	1475.704	1111.859
199.417	13.997	1474.502	1111.637
200.432	13.971	1474.012	1110.994
201.446	14.051	1473.120	1110.756
202.461	14.146	1471.674	1110.204
203.475	14.186	1470.149	1109.221
204.490	14.243	1469.234	1108.809
205.504	14.184	1468.068	1107.442
206.519	14.109	1467.244	1106.225
207.534	14.100	1466.122	1105.219
208.548	14.010	1465.180	1103.814
209.563	13.938	1464.343	1102.607
210.577	14.038	1463.097	1102.234
211.592	14.113	1461.956	1101.775
212.607	14.146	1461.504	1101.557
213.621	14.070	1461.079	1100.635
214.636	14.271	1459.701	1100.826
215.650	14.177	1458.784	1099.416
216.665	14.247	1457.760	1099.013
217.680	14.285	1456.506	1098.221
218.694	14.390	1455.706	1098.213
219.709	14.305	1455.274	1097.228
220.723	14.419	1453.737	1096.721
221.738	14.389	1452.869	1095.771
222.753	14.311	1452.584	1094.950
223.767	14.376	1451.090	1094.151
224.782	14.412	1450.061	1093.512
225.796	14.408	1449.438	1092.921
226.811	14.445	1448.969	1092.711
227.826	14.480	1448.084	1092.176
228.840	14.390	1447.359	1090.947
229.855	14.375	1446.643	1090.213
230.869	14.422	1444.937	1089.140
231.884	14.356	1444.179	1088.037
232.899	14.394	1443.143	1087.407
233.913	14.370	1441.774	1086.127
234.928	14.414	1440.609	1085.438
235.942	14.319	1439.584	1083.953
236.957	14.331	1438.428	1083.063
237.972	14.400	1436.804	1082.195
238.986	14.388	1436.078	1081.474
240.001	14.340	1435.694	1080.776
241.015	14.334	1434.367	1079.645
242.030	14.441	1432.927	1079.156
243.045	14.481	1431.938	1078.572
244.059	14.500	1431.510	1078.280
245.074	14.514	1430.338	1077.395
246.088	14.551	1429.792	1077.123
247.103	14.497	1429.061	1076.128
248.117	14.685	1427.909	1076.379
249.132	14.726	1427.335	1076.117
250.147	14.694	1426.798	1075.412
251.161	14.843	1425.995	1075.669
252.176	14.951	1425.344	1075.774
253.190	14.932	1424.290	1074.762
254.205	14.730	1424.409	1073.462
255.220	14.953	1422.828	1073.602
256.234	15.030	1421.958	1073.349
257.249	15.002	1421.312	1072.587
258.263	14.955	1420.603	1071.651
259.278	14.984	1419.250	1070.721
260.293	15.002	1418.260	1069.999
261.307	15.139	1417.335	1070.079
262.322	15.097	1417.064	1069.512
263.336	15.114	1416.094	1068.795
264.351	15.136	1414.842	1067.893
265.366	15.114	1413.933	1066.972
266.380	15.109	1413.250	1066.335
267.395	15.284	1411.678	1066.168
268.409	15.165	1411.204	1064.959
269.424	15.095	1410.938	1064.217
270.439	15.093	1409.366	1062.927
271.453	15.119	1408.524	1062.363
272.468	15.160	1407.221	1061.542
273.482	15.218	1406.755	1061.465
274.497	15.046	1406.133	1059.814
275.512	15.114	1404.976	1059.277
276.526	15.173	1404.064	1058.866
277.541	15.152	1402.988	1057.829
278.555	15.184	1402.021	1057.213
279.570	15.190	1401.596	1056.833
280.585	15.166	1400.683	1055.902
281.599	15.265	1399.659	1055.660
282.614	15.353	1398.780	1055.457
283.628	15.298	1397.745	1054.236
284.643	15.369	1396.236	1053.447
285.657	15.255	1395.229	1051.881
286.672	15.279	1394.300	1051.239
287.687	15.384	1393.357	1051.090
288.701	15.404	1392.390	1050.398
289.716	15.261	1391.554	1048.779
290.730	15.290	1391.211	1048.607
291.745	15.245	1389.878	1047.229
292.760	15.265	1389.177	1046.732
293.774	15.225	1388.257	1045.701
294.789	15.430	1386.793	1045.780
295.803	15.435	1386.365	1045.396
296.818	15.435	1385.508	1044.658
297.833	15.535	1384.259	1044.245
298.847	15.520	1382.821	1042.976
299.862	15.430	1382.338	1041.961
300.876	15.497	1381.225	1041.440
301.891	15.541	1380.230	1040.873
302.906	15.520	1379.517	1040.111
303.920	15.539	1379.207	1039.905
304.935	15.523	1378.551	1039.218
305.949	15.658	1377.407	1039.099
306.964	15.717	1376.791	1038.906
307.979	15.757	1375.623	1038.185
308.993	15.863	1374.473	1037.874
310.008	15.680	1373.798	1036.146
311.022	15.714	1372.838	1035.540
312.037	15.717	1372.116	1034.924
313.052	15.769	1371.009	1034.317
314.066	15.781	1369.918	1033.476
315.081	15.685	1368.735	1031.899
316.095	15.677	1367.268	1030.656
317.110	15.622	1366.798	1029.875
318.125	15.622	1366.121	1029.271
319.139	15.721	1364.361	1028.460
320.154	15.720	1364.006	1028.095
321.168	15.711	1362.675	1026.949
322.183	15.778	1361.560	1026.421
323.197	15.768	1361.045	1025.882
324.212	15.729	1360.286	1024.980
325.227	15.804	1359.409	1024.691
326.241	15.787	1358.540	1023.838
327.256	15.760	1357.693	1022.949
328.270	15.783	1356.703	1022.251
329.285	15.933	1355.760	1022.361
330.300	15.792	1355.037	1020.868
331.314	15.866	1354.288	1020.663
332.329	15.887	1353.079	1019.786
333.343	15.865	1351.964	1018.723
334.358	15.788	1351.365	1017.716
335.373	15.924	1350.776	1018.005
336.387	15.880	1349.898	1016.990
337.402	15.940	1349.026	1016.601
338.416	15.932	1348.500	1016.069
339.431	15.911	1348.117	1015.566
340.446	16.052	1347.215	1015.644
341.460	16.092	1346.420	1015.194
342.475	16.185	1344.840	1014.476
343.489	16.178	1344.260	1013.905
344.504	16.192	1343.562	1013.370
345.519	16.114	1342.764	1012.210
346.533	16.138	1341.686	1011.454
347.548	16.232	1341.087	1011.474
348.562	16.253	1339.946	1010.650
349.577	16.331	1339.345	1010.577
350.592	16.314	1338.516	1009.760
351.606	16.192	1337.800	1008.403
352.621	16.181	1336.207	1007.048
353.635	16.100	1335.575	1005.998
354.650	16.192	1334.770	1005.847
355.665	16.121	1333.570	1004.434
356.679	16.141	1332.310	1003.514
357.694	16.256	1331.459	1003.467
358.708	16.228	1330.524	1002.508
359.723	16.320	1329.228	1001.991
360.738	16.345	1327.995	1001.120
361.752	16.452	1326.929	1000.858
362.767	16.400	1326.039	999.796
363.781	16.314	1325.201	998.562
364.796	16.294	1324.712	997.991
365.810	16.410	1323.920	997.991
366.825	16.492	1323.103	997.768
367.840	16.541	1322.279	997.348
368.854	16.616	1321.736	997.292
369.869	16.565	1321.179	996.485
370.883	16.619	1320.425	996.143
371.898	16.617	1319.784	995.561
372.913	16.588	1318.819	994.576
373.927	16.545	1317.869	993.517
374.942	16.726	1316.804	993.690
375.956	16.649	1316.283	992.755
376.971	16.674	1315.256	992.043
377.986	16.698	1314.598	991.596
379.000	16.606	1314.039	990.551
380.015	16.716	1313.448	990.662
381.029	16.853	1311.954	990.244
382.044	16.783	1311.697	989.554
383.059	16.795	1310.893	988.932
384.073	16.797	1310.296	988.404
385.088	16.908	1309.393	988.283
386.102	16.808	1309.322	987.561
387.117	16.765	1308.333	986.476
388.132	16.852	1307.399	986.190
389.146	16.789	1306.581	985.118
390.161	16.788	1305.571	984.265
391.175	16.780	1304.547	983.361
392.190	16.787	1304.207	983.060
393.205	16.812	1303.142	982.315
394.219	16.940	1301.978	982.092
395.234	16.956	1300.750	981.169
396.248	16.819	1299.582	979.409
397.263	16.856	1298.614	978.804
398.278	16.853	1297.448	977.822
399.292	16.902	1296.293	977.147
400.307	16.807	1295.254	975.734
401.321	16.747	1294.276	974.565
402.336	16.771	1293.082	973.717
403.350	16.817	1292.014	973.092
404.365	16.777	1291.550	972.424
405.380	17.011	1290.130	972.611
406.394	16.943	1289.397	971.586
407.409	16.990	1288.758	971.283
408.423	16.968	1288.542	970.913
409.438	17.015	1287.740	970.490
410.453	17.133	1286.924	970.465
411.467	17.168	1286.189	970.025
412.482	17.215	1285.605	969.764
413.496	17.196	1284.679	968.872
414.511	17.262	1283.987	968.642
415.526	17.236	1283.466	968.013
416.540	17.240	1282.480	967.210
417.555	17.387	1281.914	967.529
418.569	17.360	1281.763	967.177
419.584	17.322	1281.138	966.403
420.599	17.328	1280.053	965.535
421.613	96.884	1355.436	1475.998
422.628	94.724	1366.370	1476.104
