DTS Sentinel unit serial number:	SN413079Multiplexer serial number:	ORYXHardware model number:	OX4-SRSoftware version number:	ORYX F/W v4.00 Oryx Data Collector v3.7.2.0data status	okinstallation	princeton_trtdifferential loss correction	single-endedforward channel	channel 4reverse channel	N/Adate	2019/09/18time	21:17:35forward acquisition time	60.00reverse acquisition time	0.00gamma	496.2192k internal	0.2330k external	0.2330temperature offset calibration	1.0030default loss term (dB/km)	0.3790temperature slope calibration	1.0000multiplexer offset coefficient	1.0000multiplexer slope coefficient	1.0000fibre end	0.00T internal ref (°C)	25.75T ext. ref 1 (°C)	0.84T ext. ref 2 (°C)	18.02length (m)	temperature (°C)	Stokes	anti-Stokes-747.200	-200.000	-0.054	0.390
-746.185	-163.086	-0.289	-0.014
-745.171	800.000	0.049	0.142
-744.156	38.166	-0.428	0.384
-743.142	-38.846	0.245	-0.130
-742.127	17.850	-0.197	0.158
-741.112	-124.230	-0.195	-0.031
-740.098	253.669	-0.194	0.334
-739.083	-107.571	0.147	-0.032
-738.069	-104.076	-0.241	0.057
-737.054	-53.423	0.180	-0.083
-736.039	-44.441	-0.153	-0.077
-735.025	236.811	0.070	0.117
-734.010	-74.404	0.168	-0.061
-732.996	-120.964	-0.355	0.060
-731.981	-55.309	-0.251	0.113
-730.966	-118.582	-0.095	-0.017
-729.952	52.649	-0.138	-0.132
-728.937	800.000	0.046	-0.203
-727.923	150.895	-0.041	-0.056
-726.908	-200.000	-0.021	-0.231
-725.894	-117.493	0.125	0.023
-724.879	157.436	-0.190	0.265
-723.864	-136.000	-0.120	0.014
-722.850	63.737	0.363	-0.366
-721.835	74.936	0.237	0.251
-720.821	-200.000	0.026	-0.193
-719.806	105.017	-0.140	-0.166
-718.791	138.066	-0.089	0.117
-717.777	800.000	0.145	-0.426
-716.762	-16.592	0.134	0.085
-715.748	800.000	-0.024	0.096
-714.733	-1.716	-0.203	0.144
-713.718	-14.319	0.178	-0.116
-712.704	-67.324	-0.133	-0.052
-711.689	-200.000	-0.022	-0.136
-710.675	-200.000	0.011	-0.071
-709.660	-145.244	0.382	0.035
-708.645	574.500	-0.064	0.157
-707.631	-79.372	-0.123	-0.042
-706.616	210.555	-0.245	-0.387
-705.602	-19.286	0.030	0.018
-704.587	799.773	0.019	-0.051
-703.572	-84.232	0.191	0.061
-702.558	800.000	0.086	0.269
-701.543	800.000	-0.024	0.081
-700.529	481.655	0.116	0.266
-699.514	-200.000	-0.017	-0.315
-698.499	-124.345	-0.159	-0.025
-697.485	150.436	-0.095	0.129
-696.470	-200.000	0.004	0.092
-695.456	-118.858	-0.656	0.116
-694.441	-191.032	0.248	0.003
-693.426	425.992	-0.149	-0.322
-692.412	-200.000	0.098	-0.459
-691.397	-96.292	0.074	0.020
-690.383	-159.849	-0.227	0.013
-689.368	-200.000	0.016	0.342
-688.354	-27.712	0.094	0.055
-687.339	338.045	0.128	0.251
-686.324	-34.493	-0.206	0.113
-685.310	-21.178	0.183	0.113
-684.295	-21.857	-0.270	-0.165
-683.281	59.837	0.107	0.106
-682.266	41.468	-0.136	-0.124
-681.251	655.496	0.080	-0.206
-680.237	6.431	-0.218	0.163
-679.222	358.826	-0.167	-0.335
-678.208	-101.099	0.386	-0.095
-677.193	81.918	0.057	0.062
-676.178	246.764	-0.119	-0.202
-675.164	-200.000	-0.041	0.348
-674.149	-6.686	0.153	0.105
-673.135	184.790	0.169	-0.252
-672.120	-200.000	0.001	-0.334
-671.105	393.220	-0.065	0.137
-670.091	-140.464	-0.306	-0.032
-669.076	-25.897	-0.016	0.009
-668.062	-87.519	-0.269	0.082
-667.047	36.611	-0.235	0.208
-666.032	-113.674	-0.296	0.058
-665.018	-1.449	-0.131	-0.093
-664.003	-95.504	-0.463	-0.125
-662.989	129.017	-0.116	0.148
-661.974	-200.000	0.005	0.088
-660.959	-78.948	0.248	-0.085
-659.945	-62.770	-0.376	-0.156
-658.930	-200.000	-0.038	0.324
-657.916	-135.383	0.269	-0.032
-656.901	-152.671	0.124	-0.009
-655.886	-115.743	0.492	0.092
-654.872	-118.308	-0.410	-0.073
-653.857	800.000	0.046	-0.170
-652.843	-48.206	-0.069	0.033
-651.828	73.780	-0.108	-0.113
-650.814	-200.000	0.005	0.040
-649.799	-96.624	0.403	0.107
-648.784	71.247	0.110	0.114
-647.770	800.000	-0.089	-0.295
-646.755	-43.476	0.140	0.071
-645.741	108.193	-0.046	-0.055
-644.726	563.335	-0.141	0.342
-643.711	36.668	0.200	-0.177
-642.697	109.191	0.191	-0.230
-641.682	-44.854	0.535	0.267
-640.668	-21.271	-0.183	-0.112
-639.653	-200.000	-0.049	0.358
-638.638	-200.000	-0.009	-0.127
-637.624	-117.299	0.239	0.044
-636.609	-141.397	-0.193	-0.020
-635.595	-59.937	0.149	-0.064
-634.580	4.150	-0.065	-0.047
-633.565	213.551	-0.129	0.204
-632.551	-53.554	-0.264	0.121
-631.536	126.301	-0.138	0.176
-630.522	-200.000	-0.001	-0.480
-629.507	46.351	0.064	-0.059
-628.492	180.753	-0.148	-0.218
-627.478	-99.895	-0.077	0.019
-626.463	-63.247	-0.215	0.089
-625.449	-200.000	-0.005	-0.042
-624.434	20.281	-0.213	-0.172
-623.419	70.512	0.023	-0.024
-622.405	780.301	-0.032	0.087
-621.390	-166.591	-0.176	-0.007
-620.376	-158.423	0.333	-0.019
-619.361	-200.000	-0.045	-0.297
-618.346	161.330	0.029	0.040
-617.332	241.625	-0.041	-0.068
-616.317	26.699	-0.160	-0.134
-615.303	59.313	-0.151	-0.149
-614.288	800.000	-0.075	-0.212
-613.273	-200.000	-0.030	-0.287
-612.259	169.686	-0.145	-0.207
-611.244	800.000	-0.046	0.148
-610.230	-101.011	-0.250	-0.061
-609.215	19.703	-0.263	-0.212
-608.201	800.000	0.059	0.244
-607.186	800.000	0.142	-0.445
-606.171	-24.564	0.063	0.037
-605.157	175.967	0.160	0.233
-604.142	-127.792	-0.375	-0.054
-603.128	800.000	0.097	-0.380
-602.113	276.252	-0.212	-0.377
-601.098	21.899	-0.142	0.116
-600.084	-29.818	-0.336	-0.192
-599.069	-200.000	0.008	-0.330
-598.055	-35.985	0.236	0.128
-597.040	-200.000	-0.065	0.470
-596.025	167.137	0.059	-0.084
-595.011	-200.000	0.007	0.173
-593.996	-114.064	-0.314	0.061
-592.982	-89.180	-0.249	-0.074
-591.967	132.096	0.097	-0.124
-590.952	-47.567	-0.233	-0.113
-589.938	-85.969	-0.434	0.134
-588.923	-52.955	-0.109	0.050
-587.909	800.000	-0.084	-0.332
-586.894	775.804	0.082	-0.224
-585.879	5.902	-0.234	0.173
-584.865	-21.151	0.301	0.184
-583.850	-13.216	0.058	0.037
-582.836	522.730	-0.054	-0.126
-581.821	-17.441	-0.132	0.083
-580.806	-200.000	-0.040	0.206
-579.792	134.765	0.112	0.145
-578.777	171.692	-0.194	-0.279
-577.763	-108.006	0.184	-0.040
-576.748	-164.825	-0.137	-0.006
-575.733	36.881	-0.136	0.120
-574.719	14.533	0.079	-0.062
-573.704	-94.407	-0.136	0.037
-572.690	-4.828	0.199	-0.137
-571.675	304.539	0.050	-0.092
-570.661	-73.030	-0.178	0.065
-569.646	-36.006	0.147	0.079
-568.631	800.000	0.087	0.252
-567.617	130.523	-0.321	0.412
-566.602	90.984	-0.089	0.099
-565.588	-114.936	-0.066	-0.013
-564.573	98.724	-0.048	0.055
-563.558	305.722	-0.193	0.358
-562.544	-55.674	0.305	0.136
-561.529	-42.527	0.407	0.207
-560.515	-58.699	-0.313	-0.136
-559.500	130.370	0.149	-0.190
-558.485	222.908	0.168	-0.271
-557.471	-109.322	0.175	0.037
-556.456	-103.482	-0.408	-0.096
-555.442	-83.608	0.353	0.113
-554.427	-27.866	-0.083	-0.048
-553.412	-200.000	-0.013	-0.169
-552.398	800.000	-0.089	-0.270
-551.383	-138.499	-0.183	0.020
-550.369	-125.587	-0.538	0.082
-549.354	-12.712	0.216	-0.141
-548.339	-89.746	0.101	0.030
-547.325	-25.958	-0.178	0.105
-546.310	120.236	0.193	0.239
-545.296	429.695	0.083	0.179
-544.281	-5.340	0.171	0.117
-543.266	-38.039	-0.150	0.079
-542.252	-60.806	0.260	-0.110
-541.237	-200.000	0.029	-0.262
-540.223	-200.000	-0.005	0.391
-539.208	356.636	0.050	-0.099
-538.193	748.726	-0.063	-0.168
-537.179	614.568	-0.088	-0.219
-536.164	-80.831	-0.257	-0.085
-535.150	63.083	-0.029	-0.029
-534.135	-200.000	0.023	-0.161
-533.121	800.000	-0.097	-0.426
-532.106	-96.487	0.347	-0.091
-531.091	-88.080	-0.128	-0.038
-530.077	800.000	0.074	-0.246
-529.062	-139.187	-0.228	-0.025
-528.048	284.679	0.039	0.070
-527.033	239.373	-0.246	0.409
-526.018	36.265	0.052	-0.046
-525.004	-200.000	-0.062	0.407
-523.989	-200.000	0.005	0.112
-522.975	87.936	-0.150	-0.166
-521.960	-200.000	-0.002	0.027
-520.945	-41.390	0.397	-0.204
-519.931	-56.110	-0.166	-0.074
-518.916	154.693	0.031	0.042
-517.902	-112.697	0.065	0.013
-516.887	-24.554	0.280	-0.167
-515.872	-59.241	0.226	-0.097
-514.858	-1.789	0.195	0.137
-513.843	-200.000	-0.110	0.536
-512.829	-200.000	-0.032	0.286
-511.814	800.000	0.032	-0.136
-510.799	-0.284	0.161	-0.114
-509.785	-15.183	-0.303	0.194
-508.770	173.432	0.130	-0.187
-507.756	-15.021	0.204	-0.131
-506.741	-151.204	0.237	0.018
-505.726	800.000	0.052	0.164
-504.712	166.947	-0.281	0.397
-503.697	49.093	0.337	0.316
-502.683	-200.000	0.012	-0.184
-501.668	-200.000	-0.006	0.352
-500.653	304.722	-0.028	0.051
-499.639	462.716	-0.088	0.196
-498.624	60.909	0.165	0.164
-497.610	-118.859	0.257	0.045
-496.595	-128.357	-0.551	0.078
-495.581	-200.000	-0.051	0.298
-494.566	47.875	0.293	-0.272
-493.551	-180.184	-0.236	-0.005
-492.537	-71.797	0.303	-0.113
-491.522	-116.456	-0.111	0.020
-490.508	-200.000	0.003	-0.186
-489.493	374.484	-0.135	-0.275
-488.478	-200.000	-0.015	-0.390
-487.464	-200.000	-0.035	0.218
-486.449	-15.619	-0.208	-0.132
-485.435	-154.814	-0.473	0.031
-484.420	378.817	0.166	-0.339
-483.405	800.000	0.055	0.231
-482.391	-200.000	0.023	0.148
-481.376	-140.136	0.088	-0.009
-480.362	-0.436	0.130	0.092
-479.347	-25.995	-0.205	-0.120
-478.332	87.419	-0.071	0.078
-477.318	-200.000	0.003	0.224
-476.303	-200.000	-0.006	-0.085
-475.289	-125.327	0.127	-0.019
-474.274	-73.391	0.120	0.044
-473.259	-200.000	0.021	-0.157
-472.245	-69.090	0.027	-0.010
-471.230	512.051	-0.070	-0.163
-470.216	-200.000	0.006	0.123
-469.201	-105.177	-0.459	-0.104
-468.186	800.000	0.061	0.195
-467.172	-109.928	-0.189	-0.039
-466.157	-200.000	-0.002	0.190
-465.143	-200.000	-0.027	-0.146
-464.128	-121.442	-0.180	0.030
-463.113	-37.293	0.256	-0.136
-462.099	-200.000	-0.002	0.135
-461.084	10.744	0.199	-0.151
-460.070	-24.330	-0.132	0.078
-459.055	-62.252	0.139	0.058
-458.040	93.559	0.140	0.157
-457.026	78.960	-0.179	-0.191
-456.011	-123.930	0.279	0.044
-454.997	-187.037	0.384	-0.005
-453.982	-200.000	-0.060	-0.348
-452.968	126.333	0.195	-0.245
-451.953	150.802	0.096	-0.130
-450.938	35.614	-0.278	0.243
-449.924	-200.000	-0.080	0.492
-448.909	8.569	-0.192	-0.144
-447.895	46.158	0.083	-0.077
-446.880	-6.013	-0.119	-0.081
-445.865	151.396	0.087	-0.118
-444.851	-115.785	0.207	0.039
-443.836	139.020	0.117	-0.153
-442.822	-70.922	-0.198	0.074
-441.807	-15.215	-0.149	-0.095
-440.792	192.737	0.120	-0.180
-439.778	682.796	0.033	0.085
-438.763	-54.497	0.273	-0.123
-437.749	-112.719	0.241	-0.048
-436.734	209.425	0.168	-0.262
-435.719	-200.000	-0.046	0.283
-434.705	301.452	-0.116	-0.212
-433.690	-74.237	0.403	0.145
-432.676	-200.000	0.002	0.146
-431.661	-100.003	-0.096	0.024
-430.646	-200.000	0.047	-0.253
-429.632	284.564	-0.073	0.131
-428.617	-65.957	-0.214	0.085
-427.603	-62.864	-0.237	0.097
-426.588	-200.000	-0.036	-0.489
-425.573	800.000	-0.067	-0.200
-424.559	-200.000	0.005	0.237
-423.544	465.191	-0.143	0.319
-422.530	678.830	0.092	0.238
-421.515	-188.262	0.266	-0.003
-420.500	-51.326	-0.134	-0.062
-419.486	-200.000	-0.031	0.433
-418.471	-109.586	0.091	-0.019
-417.457	-117.348	-0.209	0.038
-416.442	683.097	0.106	0.274
-415.428	-44.348	-0.289	-0.144
-414.413	800.000	0.081	0.305
-413.398	-200.000	0.003	0.116
-412.384	-6.708	-0.095	-0.064
-411.369	175.567	0.260	-0.375
-410.355	-128.648	0.348	-0.049
-409.340	76.906	-0.124	0.130
-408.325	800.000	0.031	-0.086
-407.311	38.820	-0.083	-0.073
-406.296	-60.633	-0.312	-0.132
-405.282	-200.000	0.014	0.291
-404.267	-200.000	0.000	0.074
-403.252	229.959	-0.041	-0.067
-402.238	-51.935	-0.119	-0.055
-401.223	-30.062	-0.066	0.037
-400.209	800.000	0.071	-0.267
-399.194	-99.491	0.271	0.068
-398.179	-200.000	0.080	0.375
-397.165	800.000	0.076	0.230
-396.150	-144.182	0.279	0.026
-395.136	-117.439	-0.113	-0.020
-394.121	800.000	-0.066	0.197
-393.106	-94.531	-0.161	-0.044
-392.092	-200.000	-0.014	-0.128
-391.077	-200.000	0.001	-0.141
-390.063	800.000	-0.057	-0.175
-389.048	800.000	-0.096	-0.279
-388.033	382.293	-0.104	0.212
-387.019	144.312	-0.045	-0.060
-386.004	-200.000	0.010	-0.093
-384.990	83.730	0.209	-0.227
-383.975	-123.649	-0.362	-0.057
-382.960	531.488	0.144	0.337
-381.946	30.675	-0.136	0.116
-380.931	-26.089	0.359	-0.209
-379.917	-200.000	0.004	0.244
-378.902	376.408	-0.083	-0.169
-377.888	-59.654	-0.298	0.127
-376.873	-97.979	0.259	0.066
-375.858	758.367	0.038	-0.101
-374.844	662.967	0.072	-0.183
-373.829	162.167	0.013	-0.018
-372.815	-175.540	-0.306	-0.008
-371.800	-102.802	-0.158	-0.037
-370.785	795.284	-0.056	0.152
-369.771	-119.892	-0.280	-0.048
-368.756	-89.524	-0.434	0.126
-367.742	800.000	-0.032	-0.101
-366.727	185.544	0.021	0.031
-365.712	591.953	-0.082	0.202
-364.698	789.128	-0.181	-0.494
-363.683	324.338	0.124	-0.234
-362.669	-40.581	0.200	0.103
-361.654	-200.000	0.013	-0.200
-360.639	271.757	0.130	-0.227
-359.625	-80.800	-0.106	-0.035
-358.610	-75.468	-0.169	0.060
-357.596	-33.238	0.291	-0.160
-356.581	-99.728	0.488	0.121
-355.566	-200.000	-0.042	0.242
-354.552	27.242	0.173	0.144
-353.537	106.028	0.169	-0.198
-352.523	-58.522	0.315	0.135
-351.508	6.602	0.164	-0.121
-350.493	-200.000	-0.060	0.357
-349.479	215.615	-0.177	-0.278
-348.464	-200.000	-0.033	0.306
-347.450	-113.642	-0.438	-0.085
-346.435	-131.768	0.140	0.018
-345.420	800.000	-0.062	0.202
-344.406	460.352	0.080	-0.176
-343.391	-13.409	0.044	0.028
-342.377	-200.000	-0.013	0.218
-341.362	261.971	0.061	0.104
-340.348	-200.000	0.024	-0.206
-339.333	71.218	-0.130	0.134
-338.318	44.119	0.210	0.190
-337.304	62.762	0.190	0.188
-336.289	-127.412	0.139	-0.020
-335.275	-73.318	-0.140	-0.051
-334.260	-200.000	0.023	-0.129
-333.245	217.641	0.134	-0.211
-332.231	134.848	0.187	0.240
-331.216	800.000	-0.057	0.159
-330.202	199.762	0.180	0.273
-329.187	122.450	0.127	0.157
-328.172	-48.932	0.258	-0.122
-327.158	-8.579	0.210	0.140
-326.143	800.000	0.063	0.189
-325.129	164.181	-0.260	0.363
-324.114	-200.000	-0.016	0.425
-323.099	-200.000	0.042	0.369
-322.085	-200.000	0.015	-0.065
-321.070	-79.620	0.442	-0.148
-320.056	0.010	0.179	-0.126
-319.041	-91.907	-0.105	0.029
-318.026	7.895	0.127	0.094
-317.012	518.268	0.140	-0.324
-315.997	-200.000	-0.040	-0.271
-314.983	-51.349	-0.265	-0.123
-313.968	-37.233	-0.119	0.063
-312.953	-65.338	0.164	0.065
-311.939	128.995	-0.040	0.050
-310.924	97.976	-0.171	0.195
-309.910	77.752	0.245	-0.259
-308.895	800.000	-0.037	0.158
-307.880	-99.539	0.248	-0.062
-306.866	-85.063	-0.139	-0.043
-305.851	-200.000	0.056	-0.484
-304.837	-200.000	0.016	-0.178
-303.822	42.486	-0.175	0.158
-302.807	800.000	0.059	0.233
-301.793	-61.789	-0.191	-0.079
-300.778	-200.000	0.029	-0.170
-299.764	82.748	-0.260	-0.280
-298.749	800.000	-0.063	-0.245
-297.735	-63.446	0.313	0.127
-296.720	171.459	0.188	-0.266
-295.705	222.270	0.140	0.222
-294.691	-52.890	-0.302	-0.137
-293.676	160.995	-0.233	-0.322
-292.662	-57.380	0.303	-0.132
-291.647	134.299	-0.109	-0.139
-290.632	-133.781	0.327	-0.040
-289.618	746.711	-0.106	-0.283
-288.603	-200.000	0.037	0.292
-287.589	-116.222	0.219	-0.040
-286.574	-88.912	0.216	0.063
-285.559	126.885	-0.177	0.221
-284.545	153.009	-0.094	0.128
-283.530	-200.000	0.038	-0.257
-282.516	-136.352	0.107	-0.012
-281.501	303.736	-0.093	-0.170
-280.486	800.000	-0.034	-0.117
-279.472	-130.975	-0.049	0.006
-278.457	88.672	-0.183	-0.201
-277.443	800.000	-0.095	-0.401
-276.428	-91.081	0.190	-0.054
-275.413	-42.636	0.172	0.087
-274.399	48.302	0.248	0.230
-273.384	205.975	0.058	0.090
-272.370	-107.030	0.062	-0.014
-271.355	88.380	-0.130	0.143
-270.340	-190.679	-0.288	-0.003
-269.326	574.126	0.228	-0.550
-268.311	-200.000	-0.001	0.025
-267.297	-200.000	0.007	0.139
-266.282	341.703	-0.067	-0.129
-265.267	-6.608	0.288	-0.194
-264.253	-200.000	0.008	-0.182
-263.238	-7.195	-0.128	-0.085
-262.224	-200.000	-0.061	-0.301
-261.209	-75.727	0.286	0.100
-260.195	-200.000	0.072	0.347
-259.180	-200.000	-0.022	0.131
-258.165	-133.774	0.170	0.021
-257.151	800.000	0.071	-0.283
-256.136	-113.894	0.122	-0.023
-255.122	777.937	-0.127	-0.342
-254.107	800.000	0.076	-0.244
-253.092	-93.469	-0.168	0.046
-252.078	-128.659	-0.190	-0.026
-251.063	-129.043	-0.210	-0.029
-250.049	-200.000	0.028	-0.182
-249.034	167.952	0.137	0.193
-248.019	236.004	0.122	0.199
-247.005	10.635	-0.176	-0.133
-245.990	-27.235	-0.293	-0.168
-244.976	-137.529	-0.238	-0.026
-243.961	34.569	0.203	0.175
-242.946	196.425	-0.065	0.098
-241.932	800.000	0.089	0.265
-240.917	-85.174	0.078	-0.024
-239.903	-40.117	0.270	0.139
-238.888	-94.791	0.140	-0.037
-237.873	-138.251	-0.005	0.001
-236.859	302.282	0.040	0.074
-235.844	-163.034	-0.328	0.016
-234.830	400.787	-0.051	-0.106
-233.815	193.567	0.053	-0.079
-232.800	-61.736	0.097	0.040
-231.786	569.694	0.094	-0.227
-230.771	-132.257	-0.358	0.046
-229.757	-15.496	-0.151	-0.095
-228.742	-18.502	-0.218	-0.135
-227.727	-83.361	0.203	0.064
-226.713	64.727	-0.188	-0.187
-225.698	73.784	-0.093	-0.096
-224.684	80.543	0.104	-0.111
-223.669	76.515	0.216	0.226
-222.655	-116.211	-0.027	-0.005
-221.640	-28.044	0.133	0.076
-220.625	66.854	-0.106	-0.106
-219.611	-200.000	-0.001	0.028
-218.596	-53.717	-0.132	0.060
-217.582	-89.350	0.060	-0.018
-216.567	723.846	0.115	0.302
-215.552	-200.000	0.020	0.239
-214.538	230.552	-0.168	-0.271
-213.523	-200.000	0.008	0.163
-212.509	800.000	-0.064	-0.252
-211.494	168.251	0.151	0.212
-210.479	800.000	0.164	0.556
-209.465	-200.000	0.010	-0.066
-208.450	-120.281	0.135	-0.023
-207.436	-54.557	0.072	0.032
-206.421	158.963	0.138	0.189
-205.406	156.606	-0.142	0.193
-204.392	-106.533	0.394	-0.087
-203.377	184.438	0.080	-0.116
-202.363	-98.304	-0.250	0.063
-201.348	197.088	-0.106	0.160
-200.333	16.236	-0.175	0.136
-199.319	498.015	-0.210	0.477
-198.304	210.603	0.141	0.218
-197.290	-157.544	0.222	-0.013
-196.275	121.614	0.118	-0.145
-195.260	71.299	0.083	-0.085
-194.246	-77.797	-0.300	-0.102
-193.231	-133.278	0.449	0.056
-192.217	-38.650	-0.175	-0.091
-191.202	4.622	0.051	-0.037
-190.187	476.137	0.157	0.350
-189.173	444.704	0.104	0.224
-188.158	432.163	-0.117	0.250
-187.144	-63.148	0.180	-0.073
-186.129	-99.571	-0.135	-0.033
-185.114	-200.000	-0.052	-0.384
-184.100	-37.732	0.071	0.037
-183.085	48.475	-0.028	0.026
-182.071	16.657	-0.193	-0.150
-181.056	142.516	0.082	0.107
-180.042	-83.441	0.244	0.077
-179.027	-46.816	-0.057	0.027
-178.012	-22.057	0.165	-0.099
-176.998	-59.412	-0.031	0.013
-175.983	-79.641	-0.211	0.070
-174.969	-97.741	-0.350	-0.089
-173.954	-200.000	0.001	0.300
-172.939	266.537	-0.116	0.199
-171.925	50.177	0.124	-0.115
-170.910	10.608	-0.198	-0.149
-169.896	-153.046	0.273	0.019
-168.881	800.000	0.062	0.259
-167.866	800.000	-0.106	0.301
-166.852	-10.914	-0.228	0.148
-165.837	-200.000	0.003	-0.063
-164.823	-45.960	0.311	-0.151
-163.808	-200.000	-0.007	-0.119
-162.793	-135.192	-0.392	0.046
-161.779	407.854	0.096	0.201
-160.764	-183.608	-0.145	-0.002
-159.750	800.000	-0.042	0.119
-158.735	-200.000	0.036	-0.213
-157.720	-150.418	0.156	-0.012
-156.706	800.000	-0.071	-0.240
-155.691	800.000	-0.072	0.307
-154.677	250.991	0.099	0.165
-153.662	-115.657	0.237	-0.044
-152.647	-200.000	-0.015	-0.092
-151.633	-50.602	-0.397	0.184
-150.618	26.131	0.276	0.227
-149.604	-200.000	-0.047	0.291
-148.589	180.326	-0.231	-0.333
-147.574	800.000	0.081	0.244
-146.560	-85.952	-0.101	0.031
-145.545	800.000	-0.090	0.251
-144.531	425.493	-0.051	-0.107
-143.516	-200.000	-0.001	0.164
-142.502	800.000	-0.048	0.175
-141.487	-200.000	0.035	-0.210
-140.472	-200.000	0.012	0.171
-139.458	112.686	-0.208	-0.248
-138.443	541.057	-0.023	0.053
-137.429	-185.679	0.236	-0.003
-136.414	89.264	-0.081	-0.089
-135.399	173.809	0.272	0.386
-134.385	-200.000	-0.008	-0.154
-133.370	-52.144	0.190	0.087
-132.356	-101.840	-0.228	-0.054
-131.341	-143.317	-0.141	0.013
-130.326	-84.231	-0.155	0.048
-129.312	-200.000	-0.032	-0.163
-128.297	190.955	-0.031	0.046
-127.283	-186.619	-0.100	0.001
-126.268	15.181	0.145	0.112
-125.253	-200.000	-0.009	0.119
-124.239	140.175	0.088	-0.114
-123.224	419.864	0.062	0.131
-122.210	262.260	-0.111	-0.189
-121.195	144.272	0.130	-0.171
-120.180	225.214	0.181	0.288
-119.166	-200.000	0.034	0.145
-118.151	800.000	0.119	0.402
-117.137	47.637	-0.078	0.072
-116.122	77.040	0.203	0.212
-115.107	32.131	0.266	-0.225
-114.093	-170.315	0.255	-0.009
-113.078	-200.000	0.007	0.113
-112.064	-74.733	0.102	0.036
-111.049	262.154	0.003	0.005
-110.034	-200.000	-0.030	0.157
-109.020	-200.000	-0.011	-0.085
-108.005	72.201	-0.192	-0.197
-106.991	-101.958	0.338	0.080
-105.976	366.718	-0.155	-0.307
-104.962	-200.000	0.053	0.484
-103.947	-37.879	0.118	0.062
-102.932	-21.837	-0.244	0.146
-101.918	36.750	0.228	-0.197
-100.903	-123.227	0.354	0.056
-99.889	-41.678	0.302	0.152
-98.874	-142.763	0.156	0.015
-97.859	800.000	0.093	-0.325
-96.845	-5.711	-0.184	0.124
-95.830	-27.845	-0.024	-0.013
-94.816	-200.000	-0.015	-0.290
-93.801	170.703	0.321	0.452
-92.786	609.193	0.065	0.159
-91.772	-200.000	-0.024	0.191
-90.757	436.773	0.145	0.310
-89.743	-45.052	0.037	-0.018
-88.728	-147.585	0.169	0.014
-87.713	740.886	-0.188	-0.496
-86.699	-150.559	0.238	-0.018
-85.684	-200.000	0.031	0.278
-84.670	-200.000	-0.008	-0.288
-83.655	325.849	0.091	-0.171
-82.640	-101.616	-0.258	0.061
-81.626	-200.000	0.018	0.304
-80.611	-81.734	0.324	0.104
-79.597	-200.000	0.008	-0.192
-78.582	-98.042	0.099	0.025
-77.567	-32.336	-0.130	0.071
-76.553	56.008	0.119	-0.113
-75.538	-200.000	-0.000	-0.285
-74.524	1.798	-0.135	-0.095
-73.509	8.385	0.214	-0.158
-72.494	800.000	-0.074	0.233
-71.480	28.214	-0.211	-0.175
-70.465	-200.000	-0.029	0.191
-69.451	-132.722	-0.283	-0.036
-68.436	0.466	-0.203	0.142
-67.422	30.495	0.114	0.096
-66.407	-200.000	-0.052	0.265
-65.392	800.000	0.137	-0.443
-64.378	-153.663	-0.109	-0.007
-63.363	-200.000	-0.028	0.345
-62.349	-41.217	0.089	-0.045
-61.334	113.150	-1.224	-1.455
-60.319	-12.776	0.523	0.334
-59.305	369.533	-0.554	-1.099
-58.290	266.887	0.675	1.156
-57.276	335.033	0.721	1.368
-56.261	-200.000	119.696	630.057
-55.246	412.021	1536.256	3197.405
-54.232	145.128	2696.137	3534.807
-53.217	89.888	2301.339	2518.787
-52.203	31.979	2049.443	1730.489
-51.188	27.562	1965.509	1620.386
-50.173	26.292	1948.932	1595.452
-49.159	42.184	2016.455	1794.436
-48.144	41.155	2030.655	1797.715
-47.130	27.799	1984.667	1638.042
-46.115	25.783	1974.187	1611.311
-45.100	25.718	1971.206	1608.233
-44.086	25.699	1968.317	1605.641
-43.071	25.660	1966.164	1603.481
-42.057	25.619	1963.978	1601.262
-41.042	25.682	1962.330	1600.417
-40.027	25.661	1960.230	1598.456
-39.013	25.676	1958.167	1596.847
-37.998	25.608	1956.765	1595.036
-36.984	25.612	1954.924	1593.510
-35.969	25.583	1952.922	1591.551
-34.954	25.676	1951.224	1590.933
-33.940	25.634	1949.834	1589.359
-32.925	25.800	1947.891	1589.179
-31.911	25.832	1946.110	1587.949
-30.896	25.723	1944.987	1586.006
-29.881	25.710	1944.173	1585.161
-28.867	25.839	1941.827	1584.323
-27.852	25.821	1940.136	1582.720
-26.838	25.859	1938.109	1581.339
-25.823	25.786	1936.693	1579.481
-24.809	25.794	1935.112	1578.197
-23.794	25.776	1933.560	1576.712
-22.779	25.868	1931.291	1575.607
-21.765	25.800	1930.178	1574.041
-20.750	25.731	1928.361	1571.893
-19.736	25.811	1926.399	1570.928
-18.721	25.787	1925.093	1569.591
-17.706	25.811	1923.507	1568.448
-16.692	25.836	1922.031	1567.398
-15.677	25.820	1920.751	1566.153
-14.663	25.852	1918.109	1564.211
-13.648	25.776	1917.758	1563.204
-12.633	25.696	1916.737	1561.621
-11.619	25.696	1915.864	1560.847
-10.604	25.718	1914.007	1559.464
-9.590	25.734	1912.719	1558.492
-8.575	25.776	1911.083	1557.454
-7.560	25.707	1909.515	1555.524
-6.546	25.768	1908.754	1555.366
-5.531	25.827	1906.684	1554.124
-4.517	25.802	1905.872	1553.184
-3.502	25.794	1904.712	1552.112
-2.487	25.752	1903.620	1550.797
-1.473	25.716	1903.027	1549.939
-0.458	25.721	1897.608	1545.513
0.556	24.170	1876.571	1512.982
1.571	19.211	1856.219	1454.672
2.586	14.810	1876.609	1432.867
3.600	13.607	1910.909	1448.423
4.615	13.465	1903.755	1441.636
5.629	10.709	1807.892	1346.102
6.644	4.720	1696.583	1216.405
7.659	1.151	1663.417	1165.131
8.673	0.796	1660.810	1160.478
9.688	0.933	1659.371	1160.423
10.702	0.831	1657.977	1158.562
11.717	0.800	1654.212	1155.591
12.731	1.272	1652.554	1157.934
13.746	5.893	1662.208	1199.998
14.761	12.939	1677.199	1264.914
15.775	16.886	1683.020	1299.506
16.790	17.316	1682.610	1302.368
17.804	16.474	1679.886	1293.703
18.819	15.458	1676.941	1283.557
19.834	14.980	1673.988	1277.533
20.848	14.635	1672.797	1273.876
21.863	14.385	1670.972	1270.469
22.877	14.158	1669.856	1267.779
23.892	13.899	1668.614	1264.753
24.907	13.823	1667.226	1263.012
25.921	13.781	1665.855	1261.543
26.936	13.751	1665.542	1260.967
27.950	13.776	1664.799	1260.482
28.965	13.838	1663.758	1260.053
29.980	13.848	1663.103	1259.516
30.994	13.844	1662.186	1258.679
32.009	14.038	1660.809	1258.998
33.023	14.063	1660.459	1258.808
34.038	14.011	1659.441	1257.538
35.053	14.050	1658.093	1256.698
36.067	13.894	1658.137	1255.437
37.082	13.996	1656.118	1254.570
38.096	14.001	1655.214	1253.809
39.111	13.946	1654.725	1252.911
40.126	13.979	1653.984	1252.490
41.140	13.991	1652.749	1251.540
42.155	13.930	1650.971	1249.618
43.169	13.938	1649.557	1248.500
44.184	13.768	1649.170	1246.821
45.199	13.797	1647.576	1245.724
46.213	13.780	1646.795	1244.894
47.228	13.855	1645.180	1244.121
48.242	13.781	1644.344	1242.830
49.257	13.920	1642.876	1242.652
50.271	13.894	1641.336	1241.180
51.286	13.855	1640.547	1240.180
52.301	13.899	1639.099	1239.308
53.315	13.871	1637.880	1238.062
54.330	13.960	1635.708	1236.977
55.344	13.883	1634.503	1235.386
56.359	13.693	1633.757	1233.295
57.374	13.831	1632.052	1232.924
58.388	13.854	1630.871	1232.098
59.403	13.779	1630.026	1230.792
60.417	13.775	1628.531	1229.526
61.432	13.802	1626.993	1228.453
62.447	13.755	1625.973	1227.225
63.461	13.777	1624.866	1226.445
64.476	13.647	1623.777	1224.555
65.490	13.751	1622.195	1224.022
66.505	13.657	1621.295	1222.544
67.520	13.796	1620.420	1222.794
68.534	13.728	1619.486	1221.485
69.549	13.766	1618.258	1220.729
70.563	13.790	1616.728	1219.642
71.578	13.761	1615.293	1218.242
72.593	13.785	1614.134	1217.434
73.607	13.744	1613.169	1216.298
74.622	13.655	1612.333	1214.909
75.636	13.604	1611.657	1213.914
76.651	13.659	1610.565	1213.392
77.666	13.718	1609.263	1212.732
78.680	13.675	1608.436	1211.685
79.695	13.742	1607.359	1211.256
80.709	13.622	1606.539	1209.660
81.724	13.739	1605.281	1209.455
82.739	13.695	1604.646	1208.548
83.753	13.743	1603.688	1208.069
84.768	13.712	1602.505	1206.848
85.782	13.844	1601.760	1207.140
86.797	13.884	1600.943	1206.706
87.812	13.850	1599.751	1205.456
88.826	13.843	1598.492	1204.349
89.841	13.754	1598.157	1203.346
90.855	13.892	1596.533	1203.013
91.870	13.911	1595.509	1202.273
92.884	13.930	1594.438	1201.503
93.899	13.933	1593.578	1200.768
94.914	13.942	1591.831	1199.408
95.928	13.990	1590.407	1198.579
96.943	13.930	1589.339	1197.234
97.957	13.907	1588.288	1196.167
98.972	13.955	1586.441	1195.018
99.987	13.936	1585.051	1193.730
101.001	13.932	1583.278	1192.258
102.016	13.907	1581.955	1190.976
103.030	13.829	1581.007	1189.598
104.045	13.824	1579.717	1188.492
105.060	13.929	1577.989	1187.834
106.074	13.938	1576.615	1186.759
107.089	13.812	1574.993	1184.532
108.103	13.851	1573.598	1183.657
109.118	13.724	1572.378	1181.730
110.133	13.844	1570.888	1181.363
111.147	13.778	1569.518	1179.760
112.162	13.743	1568.618	1178.725
113.176	13.823	1566.679	1177.733
114.191	13.799	1565.459	1176.539
115.206	13.787	1564.319	1175.498
116.220	13.848	1563.468	1175.181
117.235	13.893	1561.564	1173.970
118.249	13.872	1560.588	1172.979
119.264	13.893	1559.398	1172.133
120.279	13.805	1557.978	1170.341
121.293	13.786	1556.836	1169.242
122.308	13.779	1554.736	1167.512
123.322	13.782	1553.650	1166.620
124.337	13.880	1551.773	1165.795
125.352	13.861	1550.797	1164.824
126.366	13.822	1549.821	1163.711
127.381	13.825	1548.325	1162.511
128.395	13.804	1547.375	1161.546
129.410	13.873	1545.774	1160.725
130.424	13.735	1544.928	1159.023
131.439	13.835	1543.327	1158.415
132.454	13.879	1541.664	1157.369
133.468	13.794	1541.159	1156.299
134.483	13.893	1539.292	1155.482
135.497	13.887	1537.449	1153.955
136.512	13.937	1536.146	1153.221
137.527	13.846	1534.956	1151.595
138.541	13.920	1533.620	1151.006
139.556	13.966	1532.364	1150.276
140.570	13.931	1531.269	1149.114
141.585	14.009	1529.503	1148.224
142.600	14.053	1528.258	1147.496
143.614	14.085	1527.219	1146.833
144.629	14.089	1526.037	1145.873
145.643	14.093	1524.881	1144.929
146.658	14.092	1523.100	1143.482
147.673	14.068	1522.165	1142.517
148.687	14.000	1520.744	1140.884
149.702	14.054	1519.043	1139.871
150.716	13.998	1517.485	1138.220
151.731	14.110	1515.580	1137.458
152.746	14.017	1514.479	1135.894
153.760	14.000	1513.288	1134.785
154.775	14.092	1511.587	1134.034
155.789	14.173	1510.253	1133.484
156.804	14.131	1509.308	1132.390
157.819	14.168	1507.704	1131.342
158.833	14.144	1506.828	1130.418
159.848	14.136	1506.071	1129.700
160.862	14.161	1504.725	1128.760
161.877	14.263	1502.555	1127.723
162.892	14.320	1501.756	1127.407
163.906	14.111	1501.083	1125.385
164.921	14.201	1499.746	1124.894
165.935	14.147	1498.848	1123.757
166.950	14.146	1497.930	1122.959
167.964	14.213	1496.234	1122.043
168.979	14.242	1495.917	1121.902
169.994	14.314	1494.533	1121.248
171.008	14.245	1493.359	1119.806
172.023	14.156	1492.959	1118.804
173.037	14.322	1491.224	1118.524
174.052	14.361	1490.238	1117.945
175.067	14.402	1488.985	1117.184
176.081	14.274	1488.414	1115.794
177.096	14.276	1486.736	1114.451
178.110	14.288	1485.540	1113.537
179.125	14.194	1485.006	1112.412
180.140	14.364	1483.045	1111.978
181.154	14.322	1482.562	1111.238
182.169	14.351	1481.090	1110.232
183.183	14.370	1479.741	1109.248
184.198	14.429	1478.615	1108.697
185.213	14.363	1478.236	1107.878
186.227	14.486	1476.524	1107.314
187.242	14.356	1476.460	1106.305
188.256	14.426	1474.849	1105.459
189.271	14.488	1473.448	1104.728
190.286	14.669	1472.099	1104.814
191.300	14.479	1471.270	1102.835
192.315	14.446	1470.406	1101.873
193.329	14.416	1468.976	1100.504
194.344	14.394	1467.775	1099.361
195.359	14.370	1467.303	1098.757
196.373	14.330	1466.453	1097.760
197.388	14.400	1465.290	1097.251
198.402	14.452	1463.943	1096.487
199.417	14.568	1462.856	1096.338
200.432	14.587	1462.229	1095.897
201.446	14.714	1460.934	1095.659
202.461	14.676	1459.717	1094.402
203.475	14.762	1458.497	1093.957
204.490	14.825	1457.553	1093.562
205.504	14.814	1455.952	1092.195
206.519	14.735	1455.333	1091.113
207.534	14.721	1453.982	1089.917
208.548	14.711	1452.753	1088.833
209.563	14.701	1452.314	1088.342
210.577	14.752	1450.763	1087.413
211.592	14.798	1449.821	1086.911
212.607	14.829	1449.487	1086.764
213.621	14.787	1449.095	1086.102
214.636	14.800	1447.913	1085.207
215.650	14.875	1446.664	1084.658
216.665	14.786	1446.183	1083.624
217.680	14.797	1445.337	1082.970
218.694	14.925	1444.017	1082.710
219.709	14.893	1443.401	1081.950
220.723	14.949	1442.459	1081.507
221.738	14.912	1441.604	1080.531
222.753	15.002	1440.291	1080.033
223.767	14.939	1439.415	1078.876
224.782	14.975	1438.606	1078.403
225.796	15.022	1437.850	1078.043
226.811	15.072	1436.941	1077.592
227.826	15.044	1436.324	1076.853
228.840	15.030	1435.230	1075.846
229.855	15.050	1434.415	1075.266
230.869	15.119	1433.339	1074.808
231.884	14.942	1432.598	1073.021
232.899	15.076	1431.370	1072.870
233.913	15.016	1430.079	1071.419
234.928	15.032	1428.930	1070.565
235.942	15.028	1427.643	1069.486
236.957	14.960	1426.574	1068.151
237.972	15.048	1425.308	1067.673
238.986	14.996	1424.326	1066.514
240.001	15.073	1423.386	1066.202
241.015	15.132	1422.481	1065.807
242.030	15.085	1421.184	1064.439
243.045	15.135	1420.581	1064.215
244.059	15.077	1419.810	1063.176
245.074	15.164	1418.665	1062.776
246.088	15.180	1418.110	1062.364
247.103	15.216	1417.417	1061.983
248.117	15.251	1416.458	1061.393
249.132	15.227	1415.508	1060.429
250.147	15.336	1414.562	1060.317
251.161	15.404	1413.666	1059.986
252.176	15.463	1413.352	1060.023
253.190	15.434	1412.738	1059.286
254.205	15.520	1411.524	1058.827
255.220	15.580	1410.689	1058.485
256.234	15.530	1410.241	1057.740
257.249	15.487	1409.318	1056.682
258.263	15.547	1408.705	1056.506
259.278	15.392	1407.958	1054.882
260.293	15.544	1406.423	1054.588
261.307	15.686	1405.344	1054.577
262.322	15.631	1404.812	1053.740
263.336	15.601	1404.223	1053.016
264.351	15.724	1402.940	1052.736
265.366	15.713	1402.130	1051.961
266.380	15.695	1400.961	1050.884
267.395	15.721	1399.989	1050.221
268.409	15.728	1399.434	1049.753
269.424	15.750	1398.781	1049.307
270.439	15.721	1397.530	1048.096
271.453	15.762	1396.189	1047.257
272.468	15.688	1395.957	1046.526
273.482	15.760	1394.788	1046.006
274.497	15.799	1394.303	1045.792
275.512	15.811	1393.278	1045.006
276.526	15.763	1392.539	1044.063
277.541	15.751	1391.546	1043.148
278.555	15.616	1391.222	1041.979
279.570	15.823	1390.048	1042.287
280.585	15.851	1388.803	1041.434
281.599	15.861	1387.944	1040.764
282.614	15.836	1387.123	1039.900
283.628	15.837	1385.942	1038.928
284.643	15.901	1384.608	1038.230
285.657	15.891	1384.157	1037.737
286.672	15.935	1382.449	1036.641
287.687	15.923	1381.908	1036.067
288.701	15.901	1381.052	1035.199
289.716	15.984	1380.342	1035.085
290.730	16.027	1379.412	1034.557
291.745	16.034	1378.132	1033.548
292.760	16.114	1377.314	1033.337
293.774	16.125	1376.296	1032.549
294.789	16.036	1375.748	1031.501
295.803	16.029	1375.147	1030.917
296.818	16.198	1373.701	1030.776
297.833	16.131	1372.479	1029.354
298.847	16.075	1372.085	1028.626
299.862	16.082	1371.366	1028.041
300.876	16.076	1370.196	1027.034
301.891	16.105	1368.825	1026.097
302.906	16.135	1368.381	1025.853
303.920	16.277	1367.835	1026.215
304.935	16.270	1366.958	1025.426
305.949	16.261	1365.999	1024.559
306.964	16.293	1365.420	1024.231
307.979	16.237	1364.277	1022.942
308.993	16.230	1363.581	1022.285
310.008	16.304	1362.387	1021.749
311.022	16.303	1361.685	1021.129
312.037	16.366	1360.541	1020.559
313.052	16.458	1359.309	1020.098
314.066	16.423	1358.699	1019.338
315.081	16.293	1357.895	1017.865
316.095	16.339	1356.625	1017.099
317.110	16.324	1355.150	1015.813
318.125	16.302	1354.499	1015.101
319.139	16.330	1353.651	1014.543
320.154	16.433	1352.340	1014.091
321.168	16.443	1351.477	1013.413
322.183	16.295	1350.982	1012.065
323.197	16.323	1349.938	1011.362
324.212	16.451	1348.996	1011.334
325.227	16.436	1348.014	1010.418
326.241	16.518	1346.997	1010.058
327.256	16.473	1346.588	1009.391
328.270	16.478	1345.629	1008.615
329.285	16.496	1344.661	1007.906
330.300	16.507	1343.891	1007.301
331.314	16.496	1342.549	1006.143
332.329	16.524	1341.912	1005.743
333.343	16.530	1341.067	1005.058
334.358	16.593	1340.059	1004.585
335.373	16.605	1339.341	1004.032
336.387	16.573	1338.872	1003.400
337.402	16.582	1338.218	1002.876
338.416	16.616	1337.592	1002.522
339.431	16.665	1337.046	1002.313
340.446	16.636	1336.355	1001.530
341.460	16.721	1334.873	1000.838
342.475	16.736	1333.830	1000.054
343.489	16.746	1333.197	999.549
344.504	16.810	1332.277	999.146
345.519	16.855	1331.090	998.436
346.533	16.784	1330.003	997.112
347.548	16.868	1329.386	997.059
348.562	16.891	1328.617	996.525
349.577	16.877	1327.723	995.685
350.592	17.031	1326.582	995.646
351.606	16.926	1325.924	994.450
352.621	16.919	1325.225	993.793
353.635	16.833	1323.986	992.277
354.650	16.932	1322.887	991.945
355.665	16.891	1322.199	991.097
356.679	16.940	1320.934	990.349
357.694	16.995	1319.777	989.717
358.708	16.920	1318.589	988.299
359.723	17.077	1317.499	988.310
360.738	17.082	1316.800	987.729
361.752	16.994	1315.929	986.474
362.767	17.063	1314.647	985.827
363.781	17.128	1314.086	985.697
364.796	17.059	1313.230	984.565
365.810	17.116	1312.052	983.924
366.825	17.103	1311.792	983.567
367.840	17.182	1310.758	983.166
368.854	17.263	1310.106	983.060
369.869	17.131	1309.891	982.047
370.883	17.235	1309.288	982.106
371.898	17.161	1308.918	981.318
372.913	17.140	1308.031	980.445
373.927	17.244	1306.514	979.818
374.942	17.270	1305.951	979.459
375.956	17.251	1305.114	978.632
376.971	17.315	1304.332	978.330
377.986	17.224	1304.218	977.634
379.000	17.360	1302.715	977.203
380.015	17.333	1301.812	976.286
381.029	17.447	1300.959	976.210
382.044	17.438	1300.300	975.578
383.059	17.448	1299.735	975.124
384.073	17.411	1299.371	974.556
385.088	17.471	1298.295	974.005
386.102	17.530	1297.591	973.731
387.117	17.529	1297.013	973.204
388.132	17.561	1295.836	972.416
389.146	17.469	1295.398	971.478
390.161	17.576	1294.468	971.303
391.175	17.466	1293.785	970.076
392.190	17.447	1293.185	969.435
393.205	17.558	1292.244	969.274
394.219	17.589	1291.336	968.685
395.234	17.592	1290.362	967.884
396.248	17.587	1288.551	966.411
397.263	17.593	1286.982	965.182
398.278	17.578	1286.022	964.293
399.292	17.637	1284.643	963.507
400.307	17.544	1283.934	962.366
401.321	17.533	1283.287	961.732
402.336	17.488	1282.142	960.537
403.350	17.536	1281.288	960.080
404.365	17.563	1280.438	959.511
405.380	17.608	1279.444	958.936
406.394	17.642	1278.480	958.318
407.409	17.631	1278.189	957.955
408.423	17.696	1277.574	957.772
409.438	17.783	1276.688	957.517
410.453	17.804	1275.558	956.700
411.467	17.810	1275.214	956.389
412.482	17.811	1274.458	955.745
413.496	17.741	1274.215	955.084
414.511	17.792	1273.371	954.652
415.526	17.911	1272.081	954.269
416.540	17.873	1271.894	953.831
417.555	17.990	1270.692	953.499
418.569	17.902	1270.726	952.947
419.584	17.957	1269.761	952.449
420.599	18.123	1268.786	952.557
421.613	101.425	1356.653	1487.554
422.628	98.841	1369.405	1487.651
