DTS Sentinel unit serial number:	SN413079Multiplexer serial number:	ORYXHardware model number:	OX4-SRSoftware version number:	ORYX F/W v4.00 Oryx Data Collector v3.7.2.0data status	okinstallation	princeton_trtdifferential loss correction	single-endedforward channel	channel 4reverse channel	N/Adate	2019/09/12time	18:49:19forward acquisition time	15.00reverse acquisition time	0.00gamma	496.2192k internal	0.2307k external	0.2307temperature offset calibration	1.0134default loss term (dB/km)	0.3790temperature slope calibration	1.0000multiplexer offset coefficient	1.0000multiplexer slope coefficient	1.0000fibre end	0.00T internal ref (°C)	32.94T ext. ref 1 (°C)	2.98T ext. ref 2 (°C)	27.41length (m)	temperature (°C)	Stokes	anti-Stokes-747.200	-101.001	0.383	-0.096
-746.185	237.123	-0.230	-0.387
-745.171	196.610	0.096	-0.149
-744.156	-200.000	0.013	0.720
-743.142	800.000	-0.123	0.370
-742.127	85.818	0.433	-0.485
-741.112	-200.000	0.054	-0.568
-740.098	-74.382	-0.511	-0.187
-739.083	800.000	-0.165	-0.485
-738.069	-95.907	0.280	0.076
-737.054	87.216	0.179	0.201
-736.039	-200.000	-0.216	-1.245
-735.025	539.042	0.185	0.446
-734.010	-123.626	0.292	0.047
-732.996	-200.000	-0.145	-0.722
-731.981	173.294	-0.065	-0.095
-730.966	100.633	0.161	-0.191
-729.952	9.147	0.795	-0.610
-728.937	-66.395	-0.520	-0.210
-727.923	-97.100	-0.648	-0.172
-726.908	-139.293	-0.721	-0.079
-725.894	373.547	-0.222	0.459
-724.879	288.975	-0.218	0.402
-723.864	38.614	0.170	0.154
-722.850	31.761	-0.548	-0.479
-721.835	496.307	0.159	-0.371
-720.821	336.771	0.410	0.810
-719.806	597.309	0.092	-0.231
-718.791	800.000	0.163	-0.587
-717.777	800.000	0.132	0.501
-716.762	-170.535	-0.088	-0.003
-715.748	-66.215	-0.440	-0.178
-714.733	174.977	-0.248	-0.365
-713.718	298.802	0.024	-0.046
-712.704	448.051	0.180	-0.402
-711.689	169.513	0.854	-1.239
-710.675	-200.000	0.171	-1.238
-709.660	-92.434	0.147	0.042
-708.645	53.378	-0.225	0.219
-707.631	366.222	0.345	0.706
-706.616	146.880	0.363	-0.496
-705.602	53.545	0.192	-0.187
-704.587	-5.820	0.200	0.139
-703.572	-200.000	-0.163	0.741
-702.558	800.000	0.073	-0.292
-701.543	-196.353	-0.955	-0.007
-700.529	9.275	-0.245	-0.188
-699.514	4.355	-0.290	-0.216
-698.499	-160.614	-0.391	-0.021
-697.485	31.672	-0.736	0.643
-696.470	140.896	0.421	0.565
-695.456	114.137	0.339	0.419
-694.441	15.111	-0.309	-0.246
-693.426	-200.000	0.168	-0.815
-692.412	-108.563	-0.247	-0.054
-691.397	103.067	0.492	-0.585
-690.383	-200.000	-0.067	-0.646
-689.368	203.314	0.208	0.327
-688.354	-110.582	0.124	0.026
-687.339	-4.452	-0.611	-0.428
-686.324	-140.968	-0.352	-0.037
-685.310	336.777	0.392	-0.773
-684.295	-200.000	0.005	0.793
-683.281	125.594	-0.175	0.224
-682.266	-55.411	-0.477	0.217
-681.251	148.427	-0.274	-0.375
-680.237	-200.000	-0.103	-0.594
-679.222	101.402	-0.366	-0.432
-678.208	-66.553	0.384	-0.155
-677.193	800.000	0.060	0.189
-676.178	-200.000	-0.078	0.495
-675.164	120.009	0.213	-0.268
-674.149	34.713	-0.302	-0.268
-673.135	800.000	0.309	1.090
-672.120	-171.408	-0.540	-0.018
-671.105	148.062	-0.275	0.376
-670.091	98.660	-0.460	0.538
-669.076	24.270	-0.245	-0.205
-668.062	251.367	0.317	0.546
-667.047	134.476	-0.904	-1.189
-666.032	521.582	0.323	-0.769
-665.018	95.422	-0.656	-0.759
-664.003	-38.058	0.374	0.201
-662.989	800.000	-0.262	-0.873
-661.974	185.081	0.522	-0.785
-660.959	800.000	-0.092	-0.278
-659.945	800.000	-0.083	0.244
-658.930	607.453	0.193	-0.489
-657.916	800.000	-0.045	-0.153
-656.901	331.146	0.149	-0.292
-655.886	-200.000	0.035	-0.262
-654.872	-91.249	-0.274	0.080
-653.857	-111.630	-0.409	-0.084
-652.843	800.000	0.040	-0.133
-651.828	248.734	-0.042	-0.072
-650.814	-34.167	0.245	-0.136
-649.799	24.628	0.447	-0.375
-648.784	30.244	-0.475	0.411
-647.770	179.949	-0.220	-0.327
-646.755	-41.345	0.196	0.102
-645.741	-22.913	-0.626	0.383
-644.726	-97.366	0.637	-0.168
-643.711	173.942	-0.207	-0.302
-642.697	-200.000	-0.008	-0.052
-641.682	-20.796	0.655	0.407
-640.668	294.610	-0.420	0.777
-639.653	131.462	-0.083	-0.108
-638.638	155.154	0.315	-0.439
-637.624	-200.000	0.027	-0.829
-636.609	33.736	0.354	0.311
-635.595	36.699	0.204	-0.183
-634.580	21.072	-0.383	0.314
-633.565	18.383	0.356	0.288
-632.551	-200.000	0.091	-0.408
-631.536	70.436	-0.610	-0.639
-630.522	105.927	-0.515	0.617
-629.507	-47.139	0.800	0.395
-628.492	79.469	0.438	-0.475
-627.478	-72.459	-0.255	-0.095
-626.463	-200.000	0.021	-0.460
-625.449	-96.778	-0.355	-0.095
-624.434	-79.264	-0.142	0.049
-623.419	-200.000	-0.016	0.082
-622.405	347.841	-0.324	0.646
-621.390	-55.411	-0.582	-0.264
-620.376	-200.000	-0.133	0.804
-619.361	-200.000	0.067	0.303
-618.346	152.999	-0.087	-0.120
-617.332	116.386	0.024	0.030
-616.317	-91.747	0.496	-0.143
-615.303	583.120	-0.195	-0.485
-614.288	14.407	0.843	0.665
-613.273	-5.946	0.519	0.359
-612.259	-28.516	-0.780	0.455
-611.244	-200.000	-0.105	0.964
-610.230	77.694	0.210	0.226
-609.215	-66.960	-0.117	-0.047
-608.201	-119.634	0.165	-0.029
-607.186	-200.000	-0.139	-0.706
-606.171	-200.000	0.009	0.084
-605.157	96.984	-0.138	-0.160
-604.142	-85.368	-0.380	-0.120
-603.128	-90.851	0.586	-0.171
-602.113	-200.000	-0.076	0.797
-601.098	-162.467	-0.658	-0.033
-600.084	428.508	0.329	0.719
-599.069	-135.968	-0.582	-0.069
-598.055	-119.464	-0.581	-0.102
-597.040	-160.456	-0.517	-0.028
-596.025	800.000	-0.196	0.759
-595.011	-180.791	1.224	0.025
-593.996	94.540	0.262	-0.300
-592.982	-200.000	-0.013	0.659
-591.967	221.320	0.111	-0.181
-590.952	104.279	-0.400	-0.476
-589.938	108.530	0.242	-0.292
-588.923	-154.924	0.459	0.031
-587.909	154.360	-0.319	-0.442
-586.894	12.098	0.907	0.706
-585.879	-200.000	-0.013	-0.096
-584.865	800.000	0.184	-0.526
-583.850	-200.000	0.057	0.472
-582.836	-200.000	0.002	-0.268
-581.821	-200.000	0.081	-0.907
-580.806	-61.728	-0.509	-0.215
-579.792	-101.449	0.482	-0.119
-578.777	29.833	0.679	-0.585
-577.763	800.000	0.175	-0.665
-576.748	800.000	0.234	-0.826
-575.733	638.354	-0.072	-0.185
-574.719	-127.738	-0.504	-0.074
-573.704	-200.000	0.099	-0.438
-572.690	-13.066	0.262	-0.172
-571.675	-5.350	-0.719	-0.499
-570.661	-127.086	0.482	-0.071
-569.646	-53.671	-0.632	0.291
-568.631	153.224	-0.305	-0.422
-567.617	-174.355	-0.628	0.018
-566.602	800.000	-0.014	0.056
-565.588	-62.374	-0.463	0.194
-564.573	-17.960	0.711	0.450
-563.558	208.537	-0.171	-0.270
-562.544	728.404	0.099	-0.266
-561.529	-200.000	-0.053	-1.019
-560.515	225.520	-0.213	0.349
-559.500	800.000	0.022	-0.091
-558.485	800.000	-0.187	-0.682
-557.471	-200.000	0.177	1.151
-556.456	62.012	0.198	-0.199
-555.442	-200.000	0.112	0.698
-554.427	800.000	-0.017	-0.074
-553.412	23.076	-0.140	-0.116
-552.398	714.202	0.143	-0.382
-551.383	513.488	-0.328	-0.772
-550.369	106.382	0.042	-0.051
-549.354	-183.615	-0.460	-0.008
-548.339	-76.310	-0.079	0.028
-547.325	-200.000	0.037	-0.214
-546.310	272.637	-0.123	0.219
-545.296	-56.069	-0.698	-0.314
-544.281	800.000	-0.131	-0.522
-543.266	-110.827	-0.240	0.050
-542.252	52.040	-0.213	-0.205
-541.237	-75.003	0.394	-0.142
-540.223	30.148	-0.564	-0.486
-539.208	252.784	0.353	-0.607
-538.193	435.946	0.257	-0.565
-537.179	669.380	-0.257	-0.671
-536.164	41.748	0.402	-0.368
-535.150	56.657	0.316	0.310
-534.135	55.229	0.382	-0.372
-533.121	-200.000	0.026	-0.812
-532.106	78.655	-0.248	-0.267
-531.091	-127.542	-1.130	0.165
-530.077	-200.000	0.139	0.736
-529.062	38.362	0.315	0.283
-528.048	-138.657	0.545	-0.060
-527.033	22.539	-0.724	-0.597
-526.018	69.491	0.382	0.397
-525.004	-120.990	0.535	-0.091
-523.989	146.898	0.236	0.320
-522.975	-85.153	0.836	-0.264
-521.960	120.726	0.281	0.352
-520.945	-64.922	-0.317	-0.129
-519.931	226.627	0.138	0.226
-518.916	-73.910	-0.457	-0.167
-517.902	-128.242	0.475	-0.068
-516.887	165.457	-0.135	-0.192
-515.872	52.522	0.349	0.335
-514.858	90.374	-0.083	0.093
-513.843	-163.272	0.709	-0.034
-512.829	-26.968	-0.579	0.341
-511.814	-200.000	-0.021	-0.322
-510.799	138.111	0.389	0.514
-509.785	273.681	-0.124	-0.222
-508.770	-200.000	-0.012	0.711
-507.756	-150.284	-0.815	-0.063
-506.741	-20.506	0.009	-0.005
-505.726	-156.024	-0.179	-0.011
-504.712	-121.649	-0.869	0.145
-503.697	-109.021	-0.144	0.031
-502.683	-10.218	0.660	-0.441
-501.668	-200.000	0.007	0.204
-500.653	119.778	0.213	-0.265
-499.639	-111.940	-0.506	-0.103
-498.624	800.000	0.063	-0.227
-497.610	-75.724	0.205	0.073
-496.595	-0.199	0.727	-0.521
-495.581	-13.364	0.248	0.162
-494.566	-7.569	-0.461	-0.314
-493.551	-22.651	-0.227	-0.138
-492.537	40.443	-0.408	-0.370
-491.522	93.478	-0.732	0.835
-490.508	-200.000	-0.105	-0.571
-489.493	218.537	0.305	0.490
-488.478	-90.512	-0.395	-0.115
-487.464	-123.045	0.325	0.053
-486.449	-200.000	-0.024	-0.157
-485.435	800.000	0.103	0.394
-484.420	168.958	-0.248	-0.356
-483.405	-200.000	0.093	1.446
-482.391	-97.496	-0.476	0.125
-481.376	-111.959	-0.156	0.032
-480.362	59.018	-0.153	0.152
-479.347	-109.211	0.341	-0.073
-478.332	-200.000	-0.168	0.000
-477.318	283.317	-0.195	0.353
-476.303	-165.770	-0.375	-0.016
-475.289	-200.000	-0.085	-0.382
-474.274	160.702	-0.318	0.447
-473.259	-200.000	-0.017	0.403
-472.245	192.779	0.025	-0.039
-471.230	250.601	-0.152	0.260
-470.216	-120.344	1.330	-0.228
-469.201	-200.000	0.038	-0.236
-468.186	149.217	0.248	-0.338
-467.172	-139.536	0.547	0.059
-466.157	-123.268	-0.241	0.039
-465.143	-71.039	0.385	-0.146
-464.128	-200.000	-0.014	0.486
-463.113	171.729	0.582	0.841
-462.099	-8.497	0.161	0.109
-461.084	33.051	0.520	-0.453
-460.070	-27.447	-0.723	0.423
-459.055	800.000	-0.317	1.139
-458.040	-143.002	-0.098	0.010
-457.026	152.244	0.162	0.223
-456.011	51.341	0.276	-0.264
-454.997	-76.545	0.304	-0.107
-453.982	-127.307	-0.825	0.121
-452.968	29.904	0.277	-0.237
-451.953	-200.000	0.012	0.213
-450.938	800.000	-0.091	-0.393
-449.924	-104.206	0.580	0.135
-448.909	-20.495	-0.646	0.399
-447.895	184.216	-0.364	0.542
-446.880	-200.000	0.102	0.856
-445.865	-35.693	-0.280	0.152
-444.851	-60.831	-0.879	0.374
-443.836	433.184	-0.041	0.089
-442.822	-59.189	0.650	0.281
-441.807	-111.966	-0.616	-0.125
-440.792	-87.461	-0.322	-0.098
-439.778	800.000	0.117	0.482
-438.763	-200.000	0.007	-0.150
-437.749	-200.000	-0.140	1.318
-436.734	-200.000	-0.043	-0.393
-435.719	-30.302	0.482	0.275
-434.705	-200.000	-0.049	-0.290
-433.690	26.617	-0.433	0.364
-432.676	-47.732	-0.897	-0.437
-431.661	800.000	0.103	-0.403
-430.646	-28.421	-0.462	-0.268
-429.632	-200.000	-0.163	-0.810
-428.617	-83.093	0.976	-0.315
-427.603	37.509	-0.145	0.129
-426.588	68.878	0.563	-0.581
-425.573	75.647	0.403	-0.428
-424.559	347.817	-0.220	-0.435
-423.544	800.000	0.092	0.274
-422.530	23.482	0.366	0.302
-421.515	-24.852	0.550	0.328
-420.500	-39.594	-0.766	0.403
-419.486	-56.428	0.390	-0.174
-418.471	-135.232	0.252	-0.030
-417.457	-102.654	-0.184	0.044
-416.442	180.431	-0.449	0.661
-415.428	-149.168	0.643	0.052
-414.413	46.023	-0.461	0.429
-413.398	-200.000	-0.083	-0.548
-412.384	-66.859	-0.574	0.228
-411.369	-184.916	0.425	-0.007
-410.355	-200.000	0.092	0.914
-409.340	-39.850	-0.476	0.249
-408.325	-200.000	0.041	-0.927
-407.311	148.331	0.114	-0.154
-406.296	800.000	0.206	-0.734
-405.282	394.322	-0.261	-0.545
-404.267	-200.000	-0.128	0.770
-403.252	-95.905	-0.810	-0.217
-402.238	103.077	-0.592	-0.696
-401.223	800.000	-0.021	-0.086
-400.209	800.000	0.065	-0.238
-399.194	128.480	0.672	0.859
-398.179	-200.000	0.146	0.919
-397.165	-82.478	-0.224	0.073
-396.150	-141.461	-0.463	-0.047
-395.136	558.951	0.110	-0.267
-394.121	-48.511	-0.357	0.172
-393.106	-108.082	-0.897	0.195
-392.092	-90.465	-0.277	-0.081
-391.077	283.045	-0.155	-0.278
-390.063	800.000	0.361	-1.034
-389.048	-128.447	-0.210	-0.030
-388.033	136.672	0.293	-0.384
-387.019	-80.918	0.400	0.133
-386.004	-200.000	0.015	0.467
-384.990	-176.818	0.396	-0.010
-383.975	194.522	-0.313	0.475
-382.960	-52.998	-0.366	-0.169
-381.946	527.814	-0.324	-0.766
-380.931	-200.000	0.060	-0.495
-379.917	101.540	-0.640	-0.747
-378.902	-200.000	-0.005	-0.451
-377.888	-99.469	0.210	-0.053
-376.873	-158.980	-0.324	0.018
-375.858	61.006	-0.397	0.395
-374.844	-30.192	0.427	0.243
-373.829	565.428	-0.152	-0.369
-372.815	800.000	-0.064	0.258
-371.800	685.648	0.274	-0.718
-370.785	30.609	0.801	-0.687
-369.771	-200.000	-0.144	-0.689
-368.756	247.403	-0.483	0.818
-367.742	24.419	-0.377	0.313
-366.727	800.000	0.091	0.282
-365.712	-200.000	-0.056	-0.424
-364.698	283.952	-0.133	-0.239
-363.683	382.623	-0.433	0.892
-362.669	800.000	-0.157	0.667
-361.654	-122.210	0.811	-0.133
-360.639	-42.872	-0.058	0.030
-359.625	195.056	0.402	-0.611
-358.610	-200.000	0.095	-0.458
-357.596	-182.659	0.450	-0.008
-356.581	20.138	0.743	0.600
-355.566	800.000	0.130	0.545
-354.552	4.120	0.404	0.296
-353.537	459.436	0.332	-0.741
-352.523	-151.802	-0.320	0.024
-351.508	-200.000	-0.093	0.566
-350.493	-67.845	0.744	-0.291
-349.479	33.471	-0.371	0.322
-348.464	-199.652	-0.435	0.002
-347.450	-62.868	-0.214	-0.089
-346.435	-85.967	-0.400	0.124
-345.420	-200.000	-0.065	-0.323
-344.406	642.928	-0.123	-0.313
-343.391	123.197	-0.106	0.133
-342.377	476.059	0.254	0.573
-341.362	-200.000	-0.188	0.995
-340.348	-90.363	0.247	-0.072
-339.333	-124.941	0.323	0.050
-338.318	-143.824	-0.537	0.051
-337.304	800.000	0.018	0.063
-336.289	-200.000	-0.034	0.669
-335.275	-128.123	0.878	0.126
-334.260	42.142	0.436	-0.396
-333.245	315.793	-0.273	0.515
-332.231	-145.803	0.192	0.017
-331.216	-45.825	0.330	-0.163
-330.202	-126.988	0.364	0.054
-329.187	21.981	0.814	0.664
-328.172	-169.961	0.434	0.016
-327.158	-51.053	0.807	0.379
-326.143	223.142	-0.379	-0.611
-325.129	-34.186	0.544	0.299
-324.114	-69.472	-1.209	0.464
-323.099	-200.000	0.194	-1.041
-322.085	36.671	0.354	-0.313
-321.070	-200.000	0.066	1.033
-320.056	301.242	-0.206	-0.380
-319.041	35.990	-0.368	-0.324
-318.026	140.149	0.482	-0.636
-317.012	356.773	-0.097	0.193
-315.997	-92.901	-0.754	-0.211
-314.983	536.387	0.139	-0.330
-313.968	-81.694	0.633	0.208
-312.953	38.861	0.508	0.454
-311.939	-133.868	0.619	0.077
-310.924	-150.050	0.369	-0.029
-309.910	-200.000	-0.011	-0.350
-308.895	328.622	0.512	0.984
-307.880	-151.618	0.920	0.068
-306.866	-200.000	0.072	-0.577
-305.851	-200.000	0.138	0.867
-304.837	-167.611	-0.468	-0.019
-303.822	241.484	0.296	-0.494
-302.807	76.370	0.538	-0.569
-301.793	-24.539	0.515	-0.306
-300.778	-68.579	0.459	0.178
-299.764	725.795	0.276	-0.736
-298.749	63.478	0.351	0.352
-297.735	-140.246	0.618	-0.065
-296.720	135.063	-0.166	-0.216
-295.705	83.719	-0.364	-0.396
-294.691	-65.713	0.553	0.221
-293.676	149.927	-0.333	-0.451
-292.662	-12.323	-0.505	0.330
-291.647	800.000	-0.297	0.973
-290.632	-200.000	0.018	0.311
-289.618	122.490	0.126	0.158
-288.603	-177.373	-0.428	0.011
-287.589	262.864	0.383	0.665
-286.574	-200.000	0.064	-0.547
-285.559	-3.455	0.799	-0.556
-284.545	202.272	-0.093	-0.144
-283.530	800.000	-0.042	0.181
-282.516	-63.878	-0.238	-0.097
-281.501	7.352	-0.493	-0.367
-280.486	-159.610	-0.455	0.025
-279.472	73.024	0.535	0.558
-278.457	-118.646	-0.777	-0.137
-277.443	87.643	-0.433	0.479
-276.428	211.551	-0.077	0.120
-275.413	67.512	-0.177	-0.181
-274.399	800.000	-0.074	-0.314
-273.384	172.177	0.471	0.675
-272.370	-87.096	0.520	-0.158
-271.355	-16.165	0.723	-0.459
-270.340	229.181	-0.241	-0.392
-269.326	87.318	0.327	-0.361
-268.311	-145.117	-0.514	0.047
-267.297	-200.000	0.068	-0.663
-266.282	67.695	-0.522	-0.533
-265.267	106.706	-0.289	-0.342
-264.253	394.613	-0.209	0.434
-263.238	-200.000	0.075	0.345
-262.224	-105.133	0.454	-0.104
-261.209	5.124	0.331	0.243
-260.195	800.000	0.117	0.351
-259.180	-200.000	-0.063	-0.374
-258.165	-10.888	-0.261	-0.172
-257.151	12.624	0.640	-0.493
-256.136	225.567	0.389	0.629
-255.122	177.840	0.468	0.681
-254.107	-24.188	-0.395	-0.235
-253.092	-86.534	0.508	-0.156
-252.078	57.201	-0.420	-0.409
-251.063	-200.000	0.058	-0.397
-250.049	53.080	-0.556	-0.531
-249.034	-200.000	-0.049	0.442
-248.019	239.762	-0.180	0.299
-247.005	525.126	0.122	-0.287
-245.990	3.006	-0.831	-0.602
-244.976	-63.869	0.280	0.114
-243.961	-96.518	0.181	-0.048
-242.946	127.296	0.295	0.374
-241.932	75.218	0.443	0.466
-240.917	8.922	-0.493	-0.371
-239.903	552.789	0.211	-0.506
-238.888	-200.000	0.023	0.399
-237.873	-38.720	0.316	0.166
-236.859	-35.561	0.132	0.071
-235.844	-200.000	0.117	0.557
-234.830	800.000	0.151	0.470
-233.815	-75.197	-0.925	-0.329
-232.800	-93.494	0.520	-0.143
-231.786	800.000	-0.243	-0.952
-230.771	219.467	0.017	-0.027
-229.757	-52.955	-0.668	0.306
-228.742	-158.242	-0.985	0.057
-227.727	-98.818	0.985	-0.250
-226.713	25.359	-0.331	-0.274
-225.698	51.854	-0.408	0.387
-224.684	800.000	0.245	0.793
-223.669	-200.000	0.158	-0.889
-222.655	-185.472	-0.628	0.010
-221.640	-200.000	-0.039	-0.209
-220.625	67.929	-0.444	-0.453
-219.611	236.575	0.156	-0.257
-218.596	297.021	0.203	-0.371
-217.582	-188.124	0.400	0.005
-216.567	-3.850	0.747	0.516
-215.552	800.000	0.101	0.398
-214.538	800.000	0.141	0.568
-213.523	800.000	0.038	0.130
-212.509	-200.000	-0.049	-1.010
-211.494	-200.000	-0.078	-0.584
-210.479	-42.786	0.447	-0.226
-209.465	700.814	-0.133	-0.349
-208.450	607.971	0.442	1.099
-207.436	252.233	-0.151	0.255
-206.421	-160.092	0.471	0.026
-205.406	-168.292	-0.439	0.017
-204.392	-37.860	0.779	0.412
-203.377	-82.717	0.464	0.150
-202.363	175.911	-0.272	-0.392
-201.348	-200.000	-0.064	0.548
-200.333	616.896	-0.218	0.545
-199.319	405.167	-0.279	-0.585
-198.304	-72.577	-0.808	0.297
-197.290	-169.977	-0.574	-0.020
-196.275	-90.995	-0.312	-0.089
-195.260	-200.000	0.191	0.850
-194.246	101.524	0.226	-0.262
-193.231	2.997	-0.325	-0.235
-192.217	-76.053	0.502	-0.177
-191.202	-75.587	-0.774	0.274
-190.187	-108.472	0.843	0.181
-189.173	800.000	-0.177	0.606
-188.158	-104.464	0.275	-0.063
-187.144	800.000	-0.253	0.772
-186.129	800.000	-0.093	0.259
-185.114	28.680	0.186	-0.157
-184.100	-17.872	-0.162	0.101
-183.085	93.085	-0.160	0.180
-182.071	-38.284	-0.405	-0.213
-181.056	-87.879	-0.334	0.100
-180.042	-138.423	-0.344	0.038
-179.027	184.734	0.192	0.283
-178.012	-115.194	-0.443	0.083
-176.998	67.083	-0.221	0.224
-175.983	353.557	-0.141	0.277
-174.969	448.111	-0.182	0.399
-173.954	-35.895	0.250	-0.135
-172.939	-137.009	0.265	0.030
-171.925	-111.220	-0.642	0.131
-170.910	800.000	0.166	-0.502
-169.896	269.619	0.456	0.797
-168.881	4.362	-0.250	0.182
-167.866	-45.664	-0.388	0.191
-166.852	800.000	-0.061	-0.181
-165.837	-101.150	0.257	-0.063
-164.823	182.165	-0.626	-0.917
-163.808	800.000	0.104	-0.337
-162.793	-8.891	-0.064	0.043
-161.779	-160.554	-0.570	-0.030
-160.764	208.837	0.173	0.270
-159.750	587.539	0.117	0.287
-158.735	-65.887	0.280	0.111
-157.720	91.130	-0.453	-0.506
-156.706	-200.000	0.029	0.451
-155.691	171.963	0.299	-0.427
-154.677	-138.573	0.540	0.059
-153.662	-54.470	-1.450	-0.653
-152.647	45.306	0.294	0.270
-151.633	-91.216	0.373	-0.106
-150.618	544.993	0.210	0.498
-149.604	-200.000	0.109	-0.555
-148.589	-200.000	-0.082	-0.492
-147.574	749.674	-0.372	0.997
-146.560	56.486	0.549	-0.531
-145.545	800.000	-0.075	-0.316
-144.531	-200.000	0.025	0.408
-143.516	800.000	-0.158	0.448
-142.502	-73.632	-0.181	-0.066
-141.487	62.259	-0.335	0.332
-140.472	-98.072	-0.741	0.190
-139.458	-44.971	0.172	-0.085
-138.443	-1.582	-0.360	0.252
-137.429	-47.515	0.577	0.278
-136.414	-200.000	-0.028	-0.148
-135.399	23.560	1.092	-0.892
-134.385	7.331	-0.119	0.088
-133.370	159.941	0.111	-0.154
-132.356	800.000	-0.141	-0.572
-131.341	800.000	0.242	0.869
-130.326	-200.000	0.050	-0.887
-129.312	92.952	-0.412	-0.462
-128.297	-67.383	-0.382	-0.149
-127.283	-38.731	0.511	0.268
-126.268	-83.477	-0.129	0.041
-125.253	-25.997	-0.705	-0.412
-124.239	-200.000	0.041	0.197
-123.224	145.329	-0.698	-0.927
-122.210	-200.000	0.054	0.286
-121.195	46.808	-0.433	0.400
-120.180	479.379	0.293	-0.659
-119.166	-27.084	-0.119	0.069
-118.151	39.839	0.850	0.757
-117.137	-76.479	0.386	-0.135
-116.122	754.458	0.179	0.479
-115.107	-46.238	0.052	-0.025
-114.093	-62.912	1.063	-0.436
-113.078	296.922	-0.230	0.418
-112.064	-111.979	-0.221	-0.044
-111.049	-13.096	0.389	0.251
-110.034	-175.063	0.442	0.012
-109.020	14.663	0.562	-0.435
-108.005	-110.138	-0.845	0.175
-106.991	169.375	0.375	-0.531
-105.976	393.761	-0.508	-1.048
-104.962	99.316	-0.230	0.264
-103.947	-49.712	0.432	0.203
-102.932	-149.214	0.786	-0.062
-101.918	-93.697	-1.102	0.301
-100.903	439.654	-0.213	0.461
-99.889	188.156	-0.397	-0.588
-98.874	-180.758	0.504	-0.010
-97.859	-12.973	0.452	0.292
-96.845	800.000	-0.187	-0.755
-95.830	102.410	0.383	0.444
-94.816	-42.938	-1.237	-0.622
-93.801	800.000	0.224	0.684
-92.786	800.000	-0.237	-0.726
-91.772	800.000	-0.120	0.509
-90.757	23.027	-0.639	-0.519
-89.743	-200.000	0.021	-0.527
-88.728	-98.799	0.327	0.083
-87.713	-44.474	-1.003	-0.497
-86.699	239.651	0.106	0.175
-85.684	7.429	-0.524	0.388
-84.670	-19.945	0.267	0.163
-83.655	13.492	-0.449	0.345
-82.640	50.178	0.254	0.238
-81.626	-11.044	-0.117	0.077
-80.611	100.526	-0.339	-0.390
-79.597	130.913	0.241	0.306
-78.582	-159.937	-0.816	-0.044
-77.567	111.646	0.504	0.603
-76.553	-142.597	-0.651	0.063
-75.538	-200.000	-0.026	-0.621
-74.524	-70.935	0.452	0.168
-73.509	-200.000	0.039	0.236
-72.494	137.423	-0.561	-0.727
-71.480	0.264	-0.424	-0.300
-70.465	-200.000	0.087	-0.420
-69.451	800.000	0.150	0.439
-68.436	378.006	0.085	0.173
-67.422	-142.202	-0.495	-0.049
-66.407	-35.067	0.437	0.236
-65.392	-19.814	-0.543	-0.332
-64.378	3.311	0.443	-0.319
-63.363	-72.572	0.569	0.208
-62.349	267.353	0.165	0.286
-61.334	115.140	-0.840	-1.015
-60.319	-200.000	0.012	0.941
-59.305	434.599	0.426	-0.917
-58.290	115.518	0.416	0.503
-57.276	201.371	0.896	1.366
-56.261	-200.000	94.543	576.524
-55.246	654.536	1360.202	3455.060
-54.232	198.856	2533.351	3839.379
-53.217	109.133	2282.958	2703.263
-52.203	39.454	2047.480	1815.257
-51.188	34.553	1964.379	1698.024
-50.173	32.902	1945.799	1667.330
-49.159	48.662	1997.488	1852.996
-48.144	49.508	2014.759	1876.516
-47.130	35.202	1976.137	1713.730
-46.115	32.850	1965.752	1683.697
-45.100	32.990	1963.033	1682.552
-44.086	32.745	1961.263	1678.781
-43.071	32.811	1957.873	1676.400
-42.057	32.757	1955.916	1674.179
-41.042	32.545	1955.434	1671.820
-40.027	32.885	1951.499	1671.399
-39.013	32.830	1949.964	1669.532
-37.998	32.832	1948.150	1667.930
-36.984	32.685	1947.488	1666.005
-35.969	32.798	1944.983	1664.790
-34.954	32.923	1942.915	1664.053
-33.940	33.007	1940.997	1663.088
-32.925	33.241	1938.943	1663.318
-31.911	33.107	1937.354	1660.714
-30.896	33.061	1936.638	1659.626
-29.881	32.705	1936.016	1655.901
-28.867	32.884	1933.484	1655.243
-27.852	33.052	1931.654	1655.080
-26.838	32.861	1929.694	1651.660
-25.823	33.035	1927.590	1651.315
-24.809	33.049	1925.505	1649.593
-23.794	32.867	1925.078	1647.570
-22.779	33.096	1922.067	1646.927
-21.765	32.882	1921.128	1644.185
-20.750	32.956	1919.063	1642.998
-19.736	33.104	1917.357	1642.761
-18.721	33.017	1916.746	1641.419
-17.706	32.958	1914.960	1639.307
-16.692	32.743	1912.854	1635.578
-15.677	32.962	1911.377	1636.146
-14.663	33.051	1910.171	1635.816
-13.648	33.109	1908.206	1634.575
-12.633	32.975	1908.246	1633.381
-11.619	32.855	1906.617	1630.889
-10.604	32.889	1905.834	1630.448
-9.590	32.923	1904.068	1629.161
-8.575	32.772	1903.049	1626.929
-7.560	32.936	1901.256	1626.738
-6.546	32.962	1899.532	1625.426
-5.531	32.983	1899.105	1625.180
-4.517	32.930	1897.190	1623.020
-3.502	32.978	1896.130	1622.463
-2.487	32.877	1895.311	1620.831
-1.473	32.916	1894.155	1620.105
-0.458	32.907	1889.311	1615.827
0.556	33.902	1869.115	1588.065
1.571	29.520	1850.030	1535.361
2.586	25.356	1871.056	1517.575
3.600	24.362	1905.601	1536.889
4.615	23.608	1900.715	1526.332
5.629	18.194	1800.747	1401.689
6.644	8.259	1682.411	1233.044
7.659	3.338	1644.634	1168.013
8.673	3.158	1640.083	1163.313
9.688	2.750	1640.786	1160.626
10.702	2.975	1638.886	1160.877
11.717	3.038	1634.673	1158.267
12.731	3.611	1633.054	1161.329
13.746	9.955	1650.406	1221.675
14.761	19.535	1671.672	1310.366
15.775	24.361	1678.037	1351.918
16.790	25.156	1678.689	1358.341
17.804	25.176	1677.248	1357.214
18.819	24.830	1677.584	1354.743
19.834	25.101	1676.396	1355.714
20.848	25.248	1675.500	1355.983
21.863	25.060	1675.194	1354.188
22.877	25.388	1673.952	1355.543
23.892	25.510	1673.007	1355.575
24.907	25.443	1673.028	1354.974
25.921	25.420	1671.008	1353.039
26.936	25.656	1669.421	1353.413
27.950	25.489	1669.744	1352.300
28.965	25.362	1669.737	1351.217
29.980	25.291	1669.666	1350.506
30.994	25.409	1666.915	1349.044
32.009	25.360	1665.883	1347.724
33.023	25.538	1664.593	1347.893
34.038	25.325	1664.989	1346.502
35.053	25.524	1662.574	1345.921
36.067	25.380	1662.477	1344.643
37.082	25.526	1661.769	1345.044
38.096	25.474	1661.313	1344.170
39.111	25.347	1660.664	1342.573
40.126	25.467	1658.731	1341.787
41.140	25.466	1658.957	1341.846
42.155	25.520	1656.329	1340.002
43.169	25.552	1655.237	1339.239
44.184	25.439	1654.375	1337.581
45.199	25.412	1653.744	1336.752
46.213	25.487	1653.569	1337.053
47.228	25.553	1651.727	1335.937
48.242	25.344	1651.539	1334.107
49.257	25.434	1649.000	1332.606
50.271	25.344	1648.457	1331.386
51.286	25.617	1647.136	1332.219
52.301	25.460	1646.837	1330.702
53.315	25.520	1644.319	1328.990
54.330	25.741	1642.573	1329.093
55.344	25.657	1641.736	1327.682
56.359	25.444	1641.569	1325.855
57.374	25.562	1639.756	1325.146
58.388	25.474	1639.888	1324.484
59.403	25.476	1637.936	1322.806
60.417	25.661	1636.654	1323.012
61.432	25.323	1635.585	1319.550
62.447	25.498	1634.241	1319.632
63.461	25.464	1634.185	1319.223
64.476	25.671	1632.097	1318.936
65.490	25.426	1631.803	1316.788
66.505	25.422	1630.919	1315.927
67.520	25.374	1630.716	1315.292
68.534	25.728	1628.273	1315.798
69.549	25.595	1627.676	1314.224
70.563	25.570	1626.103	1312.654
71.578	25.606	1625.229	1312.099
72.593	25.543	1624.710	1311.102
73.607	25.472	1624.419	1310.237
74.622	25.447	1623.274	1309.011
75.636	25.616	1621.377	1308.595
76.651	25.534	1621.527	1308.005
77.666	25.439	1620.921	1306.709
78.680	25.605	1618.137	1305.555
79.695	25.763	1618.371	1306.778
80.709	25.635	1618.258	1305.638
81.724	25.596	1617.173	1304.365
82.739	25.522	1616.563	1303.223
83.753	25.551	1615.876	1302.766
84.768	25.772	1614.830	1303.405
85.782	25.624	1613.848	1301.428
86.797	25.516	1613.722	1300.426
87.812	25.675	1611.913	1300.004
88.826	25.674	1610.950	1299.106
89.841	25.713	1609.815	1298.356
90.855	25.643	1610.062	1297.935
91.870	25.712	1607.511	1296.259
92.884	25.859	1605.998	1295.981
93.899	25.669	1605.494	1294.098
94.914	25.847	1604.189	1294.210
95.928	25.720	1602.548	1291.857
96.943	25.873	1602.082	1292.462
97.957	25.756	1601.211	1290.811
98.972	25.689	1599.957	1289.204
99.987	25.678	1598.456	1287.805
101.001	25.746	1596.564	1286.654
102.016	25.607	1595.913	1285.017
103.030	25.499	1594.944	1283.356
104.045	25.460	1593.700	1281.964
105.060	25.709	1592.717	1282.833
106.074	25.604	1591.218	1280.763
107.089	25.678	1589.834	1280.065
108.103	25.442	1588.835	1277.465
109.118	25.437	1587.882	1276.555
110.133	25.628	1585.549	1275.921
111.147	25.461	1585.616	1274.677
112.162	25.419	1584.591	1273.440
113.176	25.811	1581.825	1273.876
114.191	25.639	1582.030	1272.718
115.206	25.825	1580.942	1273.043
116.220	25.479	1580.132	1269.831
117.235	25.527	1578.647	1268.867
118.249	25.727	1576.292	1268.266
119.264	25.287	1574.941	1263.975
120.279	25.191	1574.683	1262.975
121.293	25.741	1572.728	1265.164
122.308	25.810	1572.036	1264.978
123.322	25.565	1572.316	1263.370
124.337	25.733	1570.230	1262.762
125.352	25.711	1569.027	1261.532
126.366	25.559	1568.833	1260.199
127.381	25.678	1567.063	1259.500
128.395	25.638	1566.538	1258.685
129.410	25.530	1566.128	1257.485
130.424	25.618	1564.427	1256.623
131.439	25.560	1563.485	1255.354
132.454	25.488	1562.064	1253.599
133.468	25.557	1560.203	1252.477
134.483	25.546	1559.342	1251.597
135.497	25.454	1558.825	1250.429
136.512	25.762	1556.107	1250.276
137.527	25.777	1556.406	1250.513
138.541	25.659	1555.297	1248.692
139.556	25.827	1553.687	1248.451
140.570	25.484	1553.119	1245.510
141.585	25.646	1551.471	1245.196
142.600	25.699	1551.199	1245.235
143.614	25.806	1549.768	1244.717
144.629	25.770	1547.871	1242.834
145.643	25.848	1545.833	1241.630
146.658	25.887	1545.508	1241.525
147.673	25.664	1545.109	1239.560
148.687	25.643	1543.393	1237.925
149.702	25.810	1542.501	1238.247
150.716	25.721	1541.341	1236.597
151.731	25.713	1538.635	1234.263
152.746	25.288	1538.953	1231.494
153.760	25.396	1537.046	1230.597
154.775	25.417	1537.046	1230.634
155.789	25.766	1535.348	1231.553
156.804	25.493	1535.103	1229.383
157.819	25.661	1533.176	1228.874
158.833	25.705	1531.997	1228.120
159.848	25.588	1531.550	1226.859
160.862	25.790	1530.445	1227.242
161.877	26.010	1527.971	1226.646
162.892	25.694	1529.483	1225.597
163.906	25.759	1527.622	1224.439
164.921	25.685	1526.200	1222.688
165.935	25.872	1525.459	1223.255
166.950	25.749	1524.648	1221.666
167.964	25.634	1523.350	1219.737
168.979	25.902	1522.007	1220.368
169.994	25.671	1522.630	1219.192
171.008	25.791	1522.077	1219.458
172.023	25.880	1519.501	1217.883
173.037	25.840	1518.888	1217.014
174.052	25.815	1517.567	1215.685
175.067	26.014	1516.099	1215.737
176.081	25.751	1515.233	1213.163
177.096	25.842	1514.705	1213.246
178.110	25.630	1513.682	1210.897
179.125	25.861	1511.727	1210.776
180.140	25.731	1511.775	1209.834
181.154	25.763	1510.508	1208.927
182.169	25.766	1509.344	1207.909
183.183	25.623	1509.144	1206.685
184.198	25.517	1508.661	1205.482
185.213	25.731	1506.672	1205.218
186.227	25.591	1506.614	1204.129
187.242	25.762	1505.184	1204.019
188.256	25.998	1505.123	1205.446
189.271	25.877	1503.871	1203.528
190.286	25.730	1503.555	1202.184
191.300	25.859	1501.901	1201.618
192.315	25.760	1500.492	1199.722
193.329	25.887	1498.316	1198.721
194.344	25.743	1499.812	1198.856
195.359	25.895	1499.061	1199.157
196.373	25.712	1497.838	1196.855
197.388	25.756	1495.362	1195.068
198.402	25.411	1494.683	1192.127
199.417	25.470	1493.427	1191.413
200.432	25.681	1492.762	1192.172
201.446	25.917	1492.513	1193.432
202.461	25.980	1491.054	1192.578
203.475	25.868	1490.939	1191.641
204.490	25.999	1489.343	1191.121
205.504	25.417	1489.233	1187.085
206.519	25.630	1487.956	1187.366
207.534	25.815	1486.623	1187.420
208.548	25.246	1487.116	1183.957
209.563	25.261	1485.478	1182.644
210.577	25.504	1484.008	1182.971
211.592	25.383	1483.590	1181.733
212.607	25.429	1480.944	1179.825
213.621	25.627	1481.380	1181.370
214.636	25.924	1481.984	1183.696
215.650	25.761	1480.539	1181.368
216.665	25.766	1478.591	1179.739
217.680	25.675	1478.423	1178.906
218.694	25.822	1477.701	1179.191
219.709	25.801	1477.088	1178.457
220.723	25.752	1476.913	1177.893
221.738	25.712	1475.490	1176.395
222.753	25.819	1474.100	1175.881
223.767	25.755	1473.401	1174.802
224.782	25.441	1471.893	1171.447
225.796	25.373	1472.769	1171.595
226.811	25.743	1472.094	1173.366
227.826	25.764	1471.341	1172.801
228.840	25.826	1469.812	1171.882
229.855	25.677	1469.132	1170.270
230.869	25.771	1468.034	1169.900
231.884	25.834	1466.348	1168.863
232.899	25.944	1465.485	1168.785
233.913	25.723	1463.582	1165.728
234.928	25.640	1463.211	1164.794
235.942	25.587	1462.815	1164.035
236.957	25.868	1460.615	1163.997
237.972	25.650	1460.405	1162.317
238.986	25.346	1459.560	1159.580
240.001	25.414	1459.372	1159.767
241.015	25.451	1458.363	1159.098
242.030	25.474	1457.260	1158.272
243.045	25.624	1455.791	1157.964
244.059	25.790	1454.323	1157.761
245.074	25.844	1453.825	1157.609
246.088	25.836	1453.213	1156.969
247.103	25.940	1452.899	1157.282
248.117	26.076	1452.147	1157.456
249.132	25.837	1451.393	1155.219
250.147	25.976	1450.319	1155.153
251.161	26.149	1450.215	1156.073
252.176	26.287	1450.264	1156.899
253.190	26.287	1448.720	1155.561
254.205	26.267	1448.433	1155.106
255.220	26.508	1447.106	1155.484
256.234	26.198	1447.239	1153.504
257.249	26.326	1445.653	1152.956
258.263	26.360	1445.253	1152.754
259.278	26.409	1443.368	1151.457
260.293	26.308	1443.359	1150.706
261.307	26.081	1443.004	1148.876
262.322	26.197	1442.048	1148.755
263.336	26.481	1440.544	1149.255
264.351	26.117	1441.091	1147.277
265.366	26.267	1438.502	1146.068
266.380	26.353	1437.382	1145.618
267.395	26.211	1437.885	1145.015
268.409	26.293	1436.876	1144.632
269.424	26.105	1436.240	1142.836
270.439	26.051	1434.553	1141.047
271.453	26.096	1433.255	1140.200
272.468	26.409	1431.283	1140.507
273.482	26.109	1431.384	1138.590
274.497	26.078	1431.121	1138.085
275.512	26.008	1430.847	1137.328
276.526	25.931	1430.200	1136.228
277.541	25.879	1428.574	1134.506
278.555	25.785	1428.479	1133.737
279.570	26.109	1427.978	1135.279
280.585	26.162	1426.215	1134.112
281.599	26.239	1426.032	1134.345
282.614	26.351	1424.638	1133.838
283.628	26.205	1423.838	1132.187
284.643	26.031	1423.651	1130.848
285.657	26.019	1422.649	1129.876
286.672	26.268	1420.543	1129.661
287.687	26.142	1420.316	1128.591
288.701	25.989	1419.584	1126.954
289.716	26.149	1417.854	1126.480
290.730	26.039	1417.168	1125.153
291.745	26.229	1416.121	1125.403
292.760	26.201	1415.843	1124.909
293.774	26.233	1414.081	1123.610
294.789	26.072	1413.787	1122.275
295.803	26.303	1413.381	1123.289
296.818	26.334	1413.072	1123.139
297.833	26.197	1412.104	1121.417
298.847	26.347	1410.688	1121.124
299.862	26.183	1410.082	1119.525
300.876	26.030	1409.959	1118.383
301.891	26.125	1408.045	1117.355
302.906	26.122	1407.451	1116.762
303.920	26.146	1407.643	1116.963
304.935	26.476	1406.518	1118.017
305.949	26.296	1406.560	1116.836
306.964	26.454	1405.230	1116.655
307.979	26.346	1404.491	1115.306
308.993	26.438	1402.415	1114.121
310.008	26.267	1402.180	1112.784
311.022	26.310	1400.716	1111.792
312.037	26.315	1400.164	1111.286
313.052	26.289	1398.698	1109.859
314.066	26.164	1398.935	1109.182
315.081	26.303	1397.425	1108.739
316.095	26.126	1396.095	1106.504
317.110	25.999	1394.696	1104.517
318.125	25.997	1394.031	1103.882
319.139	26.132	1394.116	1104.680
320.154	26.064	1393.431	1103.622
321.168	26.098	1391.300	1102.043
322.183	26.051	1390.556	1101.070
323.197	25.948	1389.726	1099.690
324.212	26.044	1388.473	1099.182
325.227	26.206	1387.999	1099.698
326.241	26.386	1386.848	1099.782
327.256	26.368	1386.768	1099.511
328.270	26.281	1385.979	1098.259
329.285	26.064	1385.189	1096.220
330.300	26.026	1384.016	1094.967
331.314	26.084	1383.579	1094.873
332.329	26.059	1383.345	1094.439
333.343	26.000	1382.233	1093.107
334.358	26.062	1381.524	1092.824
335.373	26.145	1381.303	1093.055
336.387	26.393	1379.313	1092.883
337.402	26.216	1379.406	1091.789
338.416	26.423	1378.204	1091.994
339.431	26.354	1378.255	1091.520
340.446	26.627	1377.606	1092.554
341.460	26.655	1376.135	1091.461
342.475	26.807	1374.349	1090.859
343.489	26.517	1374.905	1089.461
344.504	26.703	1373.075	1089.036
345.519	26.670	1374.284	1089.699
346.533	26.530	1373.238	1087.931
347.548	26.722	1371.246	1087.405
348.562	26.647	1370.871	1086.566
349.577	26.695	1370.057	1086.111
350.592	26.735	1368.608	1085.106
351.606	26.434	1367.602	1082.413
352.621	26.335	1367.448	1081.603
353.635	26.222	1365.931	1079.629
354.650	26.450	1364.559	1079.809
355.665	26.327	1363.533	1078.170
356.679	26.253	1362.929	1077.157
357.694	26.436	1361.348	1076.901
358.708	26.561	1360.718	1077.048
359.723	26.541	1359.707	1076.035
360.738	26.534	1358.329	1074.807
361.752	26.276	1358.410	1073.248
362.767	26.424	1356.056	1072.170
363.781	26.566	1355.587	1072.543
364.796	26.538	1354.743	1071.618
365.810	26.200	1354.499	1069.326
366.825	26.825	1353.776	1072.358
367.840	26.612	1353.294	1070.622
368.854	26.571	1353.502	1070.451
369.869	26.810	1352.250	1070.777
370.883	26.869	1351.381	1070.341
371.898	26.693	1350.456	1068.478
372.913	26.523	1350.215	1067.190
373.927	26.761	1348.157	1066.870
374.942	26.592	1348.234	1065.841
375.956	26.547	1347.714	1065.068
376.971	26.745	1346.771	1065.397
377.986	26.606	1345.989	1063.866
379.000	26.821	1345.713	1064.815
380.015	26.502	1345.336	1062.551
381.029	26.682	1343.723	1062.240
382.044	26.904	1342.920	1062.809
383.059	27.039	1341.972	1062.753
384.073	26.467	1342.356	1059.614
385.088	26.764	1341.610	1060.673
386.102	26.559	1341.683	1059.433
387.117	26.742	1339.841	1058.955
388.132	26.697	1338.775	1057.758
389.146	26.597	1338.173	1056.607
390.161	26.465	1338.009	1055.611
391.175	26.843	1336.381	1056.437
392.190	26.465	1336.360	1054.123
393.205	26.331	1335.152	1052.298
394.219	26.526	1334.493	1052.822
395.234	26.567	1334.292	1052.804
396.248	26.649	1332.543	1051.812
397.263	26.296	1331.545	1048.881
398.278	26.489	1328.912	1047.834
399.292	26.485	1327.772	1046.818
400.307	26.588	1326.585	1046.383
401.321	26.789	1326.066	1047.041
402.336	26.377	1326.800	1045.151
403.350	26.393	1324.702	1043.496
404.365	26.261	1323.857	1041.979
405.380	26.478	1322.767	1042.276
406.394	26.543	1322.281	1042.174
407.409	26.709	1321.785	1042.648
408.423	26.598	1321.326	1041.557
409.438	26.722	1320.929	1041.862
410.453	26.963	1319.476	1042.007
411.467	26.775	1318.894	1040.378
412.482	26.834	1317.937	1039.870
413.496	26.651	1317.888	1038.691
414.511	26.911	1316.577	1039.051
415.526	27.026	1316.029	1039.187
416.540	26.947	1315.103	1037.912
417.555	27.007	1314.611	1037.773
418.569	27.143	1314.620	1038.469
419.584	26.604	1315.246	1035.787
420.599	26.804	1313.003	1035.073
421.613	142.276	1436.195	1793.013
422.628	138.031	1454.177	1793.053
