DTS Sentinel unit serial number:	SN413079Multiplexer serial number:	ORYXHardware model number:	OX4-SRSoftware version number:	ORYX F/W v4.00 Oryx Data Collector v3.7.2.0data status	okinstallation	princeton_trtdifferential loss correction	single-endedforward channel	channel 4reverse channel	N/Adate	2019/09/13time	10:41:35forward acquisition time	60.00reverse acquisition time	0.00gamma	496.2192k internal	0.2305k external	0.2305temperature offset calibration	1.0192default loss term (dB/km)	0.3790temperature slope calibration	1.0000multiplexer offset coefficient	1.0000multiplexer slope coefficient	1.0000fibre end	0.00T internal ref (°C)	31.44T ext. ref 1 (°C)	4.58T ext. ref 2 (°C)	28.25length (m)	temperature (°C)	Stokes	anti-Stokes-747.200	800.000	-0.035	-0.115
-746.185	-131.978	0.200	-0.027
-745.171	-141.338	-0.456	0.047
-744.156	130.568	0.223	0.291
-743.142	4.423	-0.146	0.109
-742.127	-112.920	-0.334	-0.067
-741.112	-64.826	0.170	-0.070
-740.098	-97.753	-0.114	-0.030
-739.083	48.413	0.083	-0.079
-738.069	-15.530	-0.241	-0.157
-737.054	483.838	0.101	-0.235
-736.039	800.000	-0.116	-0.481
-735.025	-84.890	0.526	0.168
-734.010	-109.972	-0.107	0.023
-732.996	-74.427	-0.162	0.059
-731.981	471.902	0.151	0.347
-730.966	-110.251	-0.210	0.044
-729.952	33.179	-0.112	-0.099
-728.937	16.634	-0.173	0.139
-727.923	-83.899	-0.228	0.074
-726.908	-18.945	-0.102	0.065
-725.894	270.083	-0.100	-0.179
-724.879	-200.000	0.005	-0.224
-723.864	-154.431	0.200	-0.014
-722.850	694.031	0.104	-0.279
-721.835	-136.448	0.182	-0.022
-720.821	-186.288	0.065	0.001
-719.806	336.389	-0.193	-0.381
-718.791	-156.272	-0.413	0.026
-717.777	387.743	-0.046	0.098
-716.762	-180.917	-0.496	-0.010
-715.748	-128.725	-0.402	-0.058
-714.733	-139.972	-0.234	0.025
-713.718	67.077	-0.058	-0.060
-712.704	-200.000	0.020	-0.213
-711.689	800.000	-0.024	-0.105
-710.675	800.000	-0.054	0.173
-709.660	-22.242	0.152	0.094
-708.645	-80.852	-0.218	-0.073
-707.631	60.029	-0.106	0.106
-706.616	-71.305	0.071	0.027
-705.602	-151.237	0.219	-0.017
-704.587	189.526	0.121	0.185
-703.572	455.537	0.005	0.012
-702.558	371.375	0.118	-0.242
-701.543	-93.062	-0.096	-0.027
-700.529	800.000	0.056	0.184
-699.514	-50.688	-0.113	0.054
-698.499	173.499	-0.077	-0.112
-697.485	-200.000	-0.008	-0.204
-696.470	-158.030	-0.098	0.006
-695.456	-19.479	-0.081	-0.051
-694.441	604.657	0.109	0.277
-693.426	349.112	0.085	-0.170
-692.412	-121.036	0.058	0.010
-691.397	-200.000	-0.025	0.167
-690.383	-200.000	0.014	-0.091
-689.368	-144.449	0.082	-0.008
-688.354	-200.000	-0.001	-0.109
-687.339	-71.815	-0.224	-0.085
-686.324	-13.606	0.298	0.196
-685.310	70.960	-0.134	-0.141
-684.295	-114.560	0.192	-0.037
-683.281	-119.037	0.222	-0.039
-682.266	-57.624	0.139	-0.062
-681.251	-200.000	-0.004	-0.064
-680.237	-200.000	0.006	-0.124
-679.222	800.000	-0.084	-0.248
-678.208	-30.036	-0.208	-0.120
-677.193	800.000	-0.017	-0.065
-676.178	-96.993	0.138	-0.037
-675.164	169.753	-0.076	-0.111
-674.149	-200.000	-0.048	0.395
-673.135	195.425	-0.151	0.233
-672.120	263.487	0.194	0.342
-671.105	-178.283	0.293	0.007
-670.091	-164.095	-0.131	-0.006
-669.076	158.924	0.174	-0.246
-668.062	317.088	-0.092	0.177
-667.047	-200.000	-0.022	-0.292
-666.032	351.422	-0.155	-0.312
-665.018	-200.000	-0.046	-0.371
-664.003	-64.059	0.265	-0.110
-662.989	-86.240	-0.324	-0.101
-661.974	-115.432	0.250	-0.048
-660.959	224.868	0.156	0.256
-659.945	519.191	-0.066	0.157
-658.930	-134.167	-0.172	-0.022
-657.916	4.309	0.327	0.243
-656.901	46.243	-0.151	0.141
-655.886	167.340	0.069	-0.100
-654.872	1.847	0.164	-0.120
-653.857	-57.771	0.335	0.149
-652.843	-37.451	-0.320	-0.173
-651.828	800.000	0.047	-0.140
-650.814	-42.882	0.489	-0.252
-649.799	37.913	0.133	0.120
-648.784	800.000	-0.025	-0.075
-647.770	-150.246	0.173	0.014
-646.755	-200.000	-0.002	-0.194
-645.741	80.293	0.050	-0.055
-644.726	-200.000	-0.006	0.039
-643.711	-162.914	0.089	0.004
-642.697	21.911	0.220	-0.182
-641.682	-54.364	-0.294	0.135
-640.668	67.135	-0.254	-0.263
-639.653	128.001	-0.170	0.219
-638.638	-170.028	-0.177	0.006
-637.624	174.079	0.109	0.160
-636.609	-119.581	-0.155	-0.027
-635.595	-200.000	-0.037	-0.253
-634.580	-200.000	-0.057	-0.260
-633.565	31.403	0.157	-0.137
-632.551	464.101	0.104	0.236
-631.536	345.224	-0.012	-0.024
-630.522	-139.036	-0.185	-0.020
-629.507	-118.964	0.182	0.032
-628.492	111.479	0.086	0.105
-627.478	38.253	0.265	0.239
-626.463	90.548	0.147	-0.167
-625.449	180.950	0.042	0.062
-624.434	-30.093	-0.277	0.160
-623.419	-200.000	-0.006	0.104
-622.405	-200.000	0.021	0.235
-621.390	-56.698	-0.329	0.148
-620.376	-105.335	0.265	0.061
-619.361	151.376	-0.065	0.089
-618.346	21.575	-0.159	-0.131
-617.332	39.891	-0.178	-0.162
-616.317	-200.000	0.007	0.128
-615.303	-4.252	-0.485	0.340
-614.288	-114.164	0.193	0.038
-613.273	800.000	-0.056	-0.207
-612.259	72.068	0.140	0.148
-611.244	43.421	-0.274	-0.253
-610.230	-158.082	-0.317	-0.019
-609.215	-130.122	-0.148	0.020
-608.201	-149.587	-0.095	0.008
-607.186	800.000	0.139	-0.405
-606.171	800.000	0.032	-0.121
-605.157	1.448	-0.048	0.035
-604.142	55.320	0.150	0.147
-603.128	-130.323	-0.144	0.020
-602.113	10.712	-0.107	-0.083
-601.098	27.555	0.095	-0.081
-600.084	32.504	-0.276	0.241
-599.069	-161.060	0.355	-0.019
-598.055	499.925	0.070	0.163
-597.040	800.000	-0.034	-0.115
-596.025	-83.358	-0.203	-0.066
-595.011	-42.865	-0.074	-0.038
-593.996	-47.086	0.295	-0.146
-592.982	111.804	0.129	-0.158
-591.967	-58.080	0.286	0.126
-590.952	-84.546	-0.230	-0.073
-589.938	800.000	-0.059	-0.175
-588.923	-200.000	-0.016	0.186
-587.909	326.842	-0.089	-0.173
-586.894	-102.170	-0.136	0.033
-585.879	-57.666	-0.308	-0.136
-584.865	406.455	0.022	-0.047
-583.850	-200.000	-0.028	0.144
-582.836	800.000	0.089	-0.294
-581.821	766.950	0.105	-0.288
-580.806	800.000	0.042	0.137
-579.792	-164.575	0.113	0.005
-578.777	-85.752	-0.294	-0.092
-577.763	84.386	0.053	-0.059
-576.748	-90.574	-0.218	-0.064
-575.733	-0.718	0.167	0.120
-574.719	338.086	-0.035	-0.070
-573.704	-111.951	0.068	0.014
-572.690	-31.556	0.134	-0.076
-571.675	88.093	-0.189	-0.212
-570.661	-68.252	0.352	-0.138
-569.646	-200.000	0.054	0.337
-568.631	-89.325	0.274	0.082
-567.617	469.033	0.107	0.244
-566.602	213.602	-0.128	0.204
-565.588	800.000	0.115	-0.344
-564.573	85.258	-0.146	-0.162
-563.558	-67.041	0.184	0.073
-562.544	-103.625	0.233	-0.055
-561.529	439.921	0.050	-0.110
-560.515	-200.000	-0.380	0.000
-559.500	-200.000	0.007	-0.269
-558.485	72.345	0.134	-0.141
-557.471	-200.000	-0.075	0.467
-556.456	-200.000	0.009	0.054
-555.442	-165.039	-0.370	0.017
-554.427	10.351	-0.085	0.065
-553.412	-200.000	-0.002	0.035
-552.398	569.154	0.041	0.100
-551.383	-135.661	-0.344	0.041
-550.369	337.893	-0.160	-0.314
-549.354	-200.000	0.068	-0.443
-548.339	206.419	-0.226	-0.355
-547.325	579.888	-0.027	-0.068
-546.310	-81.548	-0.450	0.149
-545.296	-179.244	0.053	0.001
-544.281	24.135	-0.392	-0.326
-543.266	19.207	-0.235	-0.190
-542.252	-92.195	0.340	0.097
-541.237	160.254	0.020	-0.029
-540.223	-131.688	-0.121	0.016
-539.208	-37.347	-0.189	-0.102
-538.193	117.113	0.070	-0.087
-537.179	-26.883	-0.075	-0.044
-536.164	111.432	-0.044	-0.054
-535.150	800.000	-0.062	0.188
-534.135	148.470	0.062	-0.084
-533.121	228.836	0.151	0.249
-532.106	707.610	-0.087	0.232
-531.091	-40.212	0.070	-0.037
-530.077	558.938	-0.025	-0.062
-529.062	-0.590	-0.049	-0.035
-528.048	-131.494	0.129	-0.017
-527.033	-80.792	0.160	0.054
-526.018	277.118	0.110	0.197
-525.004	-200.000	-0.024	0.169
-523.989	269.166	0.127	-0.225
-522.975	-159.318	-0.095	0.005
-521.960	-57.993	-0.445	0.196
-520.945	138.142	0.163	-0.216
-519.931	800.000	0.101	0.314
-518.916	-92.813	0.125	0.035
-517.902	342.679	-0.034	-0.067
-516.887	573.557	0.071	-0.175
-515.872	-145.529	0.103	-0.009
-514.858	-62.010	0.199	0.084
-513.843	92.028	-0.140	-0.160
-512.829	-200.000	-0.030	0.328
-511.814	-81.153	-0.370	0.123
-510.799	-175.736	0.126	-0.003
-509.785	92.749	-0.192	0.219
-508.770	-134.698	0.096	0.012
-507.756	68.314	-0.087	-0.090
-506.741	29.303	0.224	-0.192
-505.726	59.602	-0.046	0.046
-504.712	-49.581	0.134	0.064
-503.697	-56.177	-0.232	-0.104
-502.683	569.636	-0.081	0.199
-501.668	-124.396	-0.087	0.014
-500.653	-128.407	-0.147	0.021
-499.639	-200.000	0.031	0.386
-498.624	56.560	0.146	0.143
-497.610	-127.618	0.373	-0.054
-496.595	-136.551	0.385	-0.045
-495.581	-105.272	-0.388	-0.089
-494.566	140.856	-0.067	0.089
-493.551	-145.693	0.367	0.033
-492.537	11.911	0.325	0.252
-491.522	800.000	-0.121	-0.441
-490.508	800.000	-0.053	0.207
-489.493	558.971	0.048	0.118
-488.478	-37.522	-0.264	-0.142
-487.464	-46.267	0.163	-0.081
-486.449	-83.883	0.234	-0.075
-485.435	-136.976	0.291	0.034
-484.420	-95.984	-0.236	-0.063
-483.405	-170.066	-0.209	0.007
-482.391	-5.227	0.331	-0.230
-481.376	-46.348	-0.046	-0.023
-480.362	-93.177	-0.164	-0.046
-479.347	-200.000	0.049	-0.353
-478.332	614.833	-0.063	-0.158
-477.318	93.910	0.116	-0.132
-476.303	-177.522	-0.139	0.003
-475.289	-0.181	0.044	-0.031
-474.274	530.295	-0.164	-0.391
-473.259	182.950	-0.092	0.137
-472.245	-78.795	0.156	0.054
-471.230	800.000	0.023	-0.094
-470.216	274.674	-0.044	0.078
-469.201	-63.203	0.052	0.022
-468.186	-136.319	0.252	-0.030
-467.172	18.264	-0.089	-0.071
-466.157	-148.934	0.298	0.024
-465.143	161.098	-0.091	-0.129
-464.128	130.894	-0.146	-0.189
-463.113	-119.667	0.022	-0.004
-462.099	-74.446	0.076	-0.028
-461.084	-27.306	0.434	-0.255
-460.070	800.000	0.025	0.091
-459.055	-54.476	-0.124	0.056
-458.040	-49.054	-0.178	0.086
-457.026	800.000	-0.015	-0.061
-456.011	-42.749	0.088	-0.045
-454.997	-120.542	-0.280	0.048
-453.982	800.000	-0.146	-0.455
-452.968	81.082	-0.188	0.204
-451.953	-200.000	-0.003	-0.104
-450.938	-200.000	0.402	0.002
-449.924	-112.814	-0.306	0.061
-448.909	-64.877	0.243	-0.099
-447.895	40.993	-0.005	0.004
-446.880	800.000	0.066	-0.241
-445.865	-200.000	-0.071	0.371
-444.851	-200.000	-0.025	0.473
-443.836	-145.176	-0.127	0.012
-442.822	-140.111	-0.022	0.002
-441.807	191.741	0.127	-0.192
-440.792	800.000	-0.133	0.413
-439.778	18.938	-0.101	0.081
-438.763	40.082	-0.069	0.062
-437.749	318.810	0.095	0.180
-436.734	10.474	-0.049	0.038
-435.719	-46.456	0.200	-0.099
-434.705	-28.336	0.481	-0.279
-433.690	-40.545	-0.242	0.126
-432.676	800.000	0.069	-0.226
-431.661	271.223	-0.183	0.324
-430.646	391.910	0.267	0.557
-429.632	-77.960	0.271	-0.094
-428.617	-200.000	-0.005	-0.152
-427.603	-200.000	-0.017	0.323
-426.588	190.802	-0.029	-0.044
-425.573	-200.000	0.019	-0.136
-424.559	-52.651	-0.176	0.082
-423.544	253.673	-0.098	0.167
-422.530	-181.138	-0.270	0.005
-421.515	800.000	0.036	-0.140
-420.500	-200.000	-0.059	0.282
-419.486	800.000	-0.043	0.186
-418.471	800.000	0.030	0.121
-417.457	78.510	0.169	-0.181
-416.442	800.000	0.081	0.270
-415.428	86.024	0.049	0.054
-414.413	-200.000	-0.003	0.234
-413.398	262.209	-0.187	0.326
-412.384	-53.748	-0.074	-0.034
-411.369	-104.828	0.233	-0.054
-410.355	343.966	0.030	0.060
-409.340	62.643	-0.212	-0.213
-408.325	10.699	-0.359	0.275
-407.311	-11.945	0.224	0.147
-406.296	15.202	0.254	0.200
-405.282	-200.000	-0.007	0.226
-404.267	-200.000	-0.026	0.158
-403.252	562.926	0.114	0.277
-402.238	-200.000	0.009	-0.069
-401.223	160.182	-0.132	-0.185
-400.209	581.961	-0.082	0.202
-399.194	209.174	0.229	-0.360
-398.179	800.000	-0.011	-0.032
-397.165	-158.275	-0.233	0.014
-396.150	800.000	0.093	0.277
-395.136	505.040	-0.087	0.203
-394.121	9.821	-0.110	-0.084
-393.106	55.202	0.136	0.132
-392.092	-44.475	-0.196	-0.098
-391.077	48.031	0.137	0.129
-390.063	-91.276	-0.222	0.064
-389.048	-7.335	0.103	-0.070
-388.033	189.474	-0.122	-0.184
-387.019	-41.718	-0.117	-0.060
-386.004	103.686	0.101	-0.119
-384.990	-102.155	0.183	0.044
-383.975	-120.468	-0.369	-0.063
-382.960	291.710	0.046	0.085
-381.946	-89.162	0.271	-0.080
-380.931	-15.126	-0.022	-0.014
-379.917	-80.734	-0.394	-0.131
-378.902	21.282	0.116	0.095
-377.888	-105.997	0.581	0.131
-376.873	209.674	0.033	0.053
-375.858	26.272	0.135	-0.113
-374.844	-200.000	0.013	-0.189
-373.829	77.215	0.162	0.173
-372.815	89.856	-0.163	-0.183
-371.800	-200.000	-0.015	-0.071
-370.785	-200.000	0.006	-0.041
-369.771	-25.831	0.307	0.181
-368.756	-200.000	-0.032	0.327
-367.742	39.012	-0.325	0.292
-366.727	479.828	-0.050	0.114
-365.712	-145.021	0.225	-0.021
-364.698	2.367	-0.076	-0.055
-363.683	-198.476	0.170	-0.001
-362.669	22.800	0.213	-0.175
-361.654	-42.265	-0.249	0.127
-360.639	-31.094	0.048	0.027
-359.625	-153.198	0.274	0.019
-358.610	-73.047	-0.346	0.127
-357.596	-186.948	0.102	-0.001
-356.581	325.531	0.038	0.073
-355.566	110.663	0.025	-0.030
-354.552	-146.510	-0.260	0.023
-353.537	-46.446	-0.134	0.066
-352.523	-200.000	-0.007	0.326
-351.508	86.994	-0.280	0.310
-350.493	-28.443	0.160	-0.092
-349.479	-200.000	0.085	0.000
-348.464	800.000	-0.061	0.203
-347.450	-138.872	0.385	-0.042
-346.435	361.913	-0.165	0.332
-345.420	800.000	-0.081	0.242
-344.406	-95.776	0.061	0.016
-343.391	361.598	0.180	-0.361
-342.377	-101.467	-0.079	0.019
-341.362	50.891	0.168	-0.159
-340.348	112.341	-0.123	0.149
-339.333	234.388	0.063	-0.103
-338.318	219.102	-0.089	-0.143
-337.304	-75.945	0.325	-0.115
-336.289	800.000	-0.022	-0.085
-335.275	-108.815	-0.129	0.028
-334.260	44.819	0.065	-0.060
-333.245	-156.471	0.020	-0.001
-332.231	-6.726	0.254	0.173
-331.216	366.404	0.074	-0.149
-330.202	-40.311	-0.200	-0.104
-329.187	-59.745	-0.295	-0.126
-328.172	43.629	0.158	0.144
-327.158	-77.238	0.047	0.017
-326.143	-108.764	-0.188	-0.040
-325.129	-200.000	-0.034	0.190
-324.114	172.080	-0.102	-0.147
-323.099	30.845	-0.336	-0.288
-322.085	-167.202	-0.157	-0.006
-321.070	102.786	-0.031	0.037
-320.056	-157.897	-0.078	0.005
-319.041	44.029	-0.174	-0.160
-318.026	636.997	-0.020	0.050
-317.012	134.671	0.200	-0.260
-315.997	800.000	0.064	-0.201
-314.983	-86.359	0.167	-0.051
-313.968	-8.090	0.356	0.240
-312.953	-200.000	0.055	-0.328
-311.939	286.152	0.101	-0.182
-310.924	11.083	0.090	-0.069
-309.910	-120.416	-0.491	-0.084
-308.895	99.331	0.229	-0.266
-307.880	-126.089	-0.385	-0.058
-306.866	-35.226	0.308	-0.168
-305.851	257.191	-0.170	0.292
-304.837	106.808	0.153	-0.182
-303.822	391.619	-0.082	-0.171
-302.807	-200.000	0.013	-0.079
-301.793	700.041	0.022	0.059
-300.778	-183.423	-0.047	0.001
-299.764	217.878	0.061	0.097
-298.749	241.660	0.137	-0.228
-297.735	-114.525	-0.349	0.067
-296.720	363.959	-0.135	0.271
-295.705	800.000	-0.068	-0.283
-294.691	-200.000	-0.050	0.247
-293.676	59.980	-0.036	-0.036
-292.662	-187.568	-0.028	-0.000
-291.647	2.872	0.225	0.163
-290.632	-100.562	0.138	-0.034
-289.618	-133.354	0.204	-0.026
-288.603	528.143	0.045	0.105
-287.589	550.581	-0.062	-0.148
-286.574	116.339	-0.136	-0.167
-285.559	115.696	-0.325	0.397
-284.545	-68.616	-0.192	0.074
-283.530	800.000	0.010	0.032
-282.516	194.119	0.209	-0.316
-281.501	-32.429	0.165	0.092
-280.486	36.748	0.125	-0.110
-279.472	80.353	-0.241	-0.259
-278.457	-86.698	-0.252	-0.077
-277.443	316.254	-0.114	-0.215
-276.428	-76.153	-0.387	-0.137
-275.413	114.544	0.167	-0.204
-274.399	-200.000	-0.040	-0.312
-273.384	-200.000	0.032	-0.211
-272.370	-23.896	-0.129	-0.077
-271.355	-69.036	0.414	0.159
-270.340	-200.000	-0.048	0.219
-269.326	-61.891	0.094	0.039
-268.311	338.101	-0.177	0.343
-267.297	-127.756	0.171	-0.025
-266.282	318.500	0.145	-0.274
-265.267	-62.225	-0.211	0.088
-264.253	647.749	-0.133	0.340
-263.238	-200.000	-0.069	-0.371
-262.224	800.000	0.017	-0.055
-261.209	-118.799	0.174	-0.031
-260.195	-16.772	0.282	0.178
-259.180	-37.079	0.166	-0.089
-258.165	111.116	0.159	0.191
-257.151	-65.926	0.164	0.065
-256.136	151.435	-0.204	0.277
-255.122	-30.080	-0.251	-0.143
-254.107	167.398	0.203	-0.288
-253.092	-38.322	0.139	-0.074
-252.078	75.933	0.201	0.212
-251.063	41.733	0.129	-0.117
-250.049	87.823	-0.051	0.056
-249.034	-132.713	-0.143	0.018
-248.019	-44.217	-0.222	-0.111
-247.005	-57.822	-0.056	-0.024
-245.990	-69.899	0.180	-0.068
-244.976	-50.524	0.234	0.110
-243.961	-102.503	-0.376	-0.090
-242.946	374.452	0.091	-0.185
-241.932	5.239	0.216	0.159
-240.917	-84.735	0.218	0.068
-239.903	222.837	-0.241	-0.387
-238.888	303.030	0.138	0.255
-237.873	226.700	0.150	0.243
-236.859	75.743	-0.219	-0.230
-235.844	-138.388	0.148	0.016
-234.830	-200.000	-0.004	0.103
-233.815	-38.001	0.122	0.065
-232.800	-111.634	-0.351	0.071
-231.786	-93.233	-0.258	-0.071
-230.771	-52.143	-0.350	-0.162
-229.757	681.628	0.040	-0.105
-228.742	-90.930	0.297	0.085
-227.727	129.011	0.089	0.113
-226.713	140.277	-0.059	-0.078
-225.698	556.968	-0.125	-0.300
-224.684	800.000	-0.072	-0.300
-223.669	800.000	-0.116	0.355
-222.655	34.013	-0.154	-0.133
-221.640	242.064	0.144	0.241
-220.625	-54.045	0.060	-0.027
-219.611	40.065	-0.121	0.108
-218.596	-58.031	0.120	0.052
-217.582	120.135	0.156	0.193
-216.567	-143.387	0.405	-0.039
-215.552	536.538	0.165	0.391
-214.538	-69.342	0.198	-0.076
-213.523	161.036	-0.147	0.205
-212.509	155.180	-0.133	-0.183
-211.494	-157.986	-0.261	0.015
-210.479	85.568	-0.089	0.098
-209.465	800.000	-0.051	0.207
-208.450	-104.288	0.053	0.012
-207.436	5.537	-0.121	0.089
-206.421	51.792	-0.077	0.073
-205.406	15.458	0.150	-0.117
-204.392	243.952	-0.104	0.174
-203.377	518.269	-0.088	-0.205
-202.363	-200.000	-0.005	-0.132
-201.348	212.538	0.059	-0.092
-200.333	-200.000	-0.018	0.094
-199.319	-148.997	0.219	-0.018
-198.304	-200.000	-0.138	0.001
-197.290	-113.847	-0.056	0.011
-196.275	-11.621	-0.110	0.072
-195.260	212.285	-0.203	-0.319
-194.246	58.979	0.125	0.122
-193.231	-61.563	0.287	-0.120
-192.217	-62.365	0.178	0.074
-191.202	355.201	0.049	0.097
-190.187	156.291	-0.083	-0.113
-189.173	285.508	-0.055	-0.099
-188.158	-27.919	0.198	-0.114
-187.144	-118.750	-0.277	-0.049
-186.129	-124.278	0.268	0.042
-185.114	-115.934	0.137	0.025
-184.100	-144.464	-0.039	-0.004
-183.085	654.439	-0.128	-0.327
-182.071	-200.000	0.004	-0.110
-181.056	-200.000	0.037	0.206
-180.042	701.082	-0.018	0.047
-179.027	-3.415	-0.104	-0.072
-178.012	-28.440	0.178	0.102
-176.998	69.071	0.191	-0.195
-175.983	-9.537	0.275	0.183
-174.969	-48.335	-0.096	-0.046
-173.954	-115.824	-0.298	-0.055
-172.939	800.000	-0.126	0.390
-171.925	800.000	0.053	-0.221
-170.910	-200.000	-0.026	-0.133
-169.896	-143.406	-0.073	0.007
-168.881	44.755	0.097	-0.089
-167.866	-41.579	-0.135	-0.069
-166.852	800.000	0.036	0.133
-165.837	-46.225	0.171	0.084
-164.823	-37.393	0.209	-0.111
-163.808	-200.000	-0.003	-0.031
-162.793	-143.735	0.269	-0.025
-161.779	-104.449	-0.101	0.023
-160.764	-7.746	0.080	0.054
-159.750	119.181	-0.087	-0.107
-158.735	-200.000	-0.021	0.152
-157.720	292.995	-0.093	0.169
-156.706	-54.945	0.401	0.180
-155.691	117.790	0.133	0.163
-154.677	-200.000	-0.071	0.329
-153.662	97.364	0.097	0.111
-152.647	-87.823	0.458	-0.137
-151.633	97.575	-0.190	-0.218
-150.618	-22.028	-0.361	0.218
-149.604	-99.298	0.270	0.068
-148.589	800.000	-0.048	0.193
-147.574	-9.645	0.114	-0.076
-146.560	45.348	0.162	0.149
-145.545	800.000	0.019	0.079
-144.531	193.078	-0.120	0.180
-143.516	-153.176	0.226	-0.016
-142.502	-73.303	0.174	-0.063
-141.487	350.161	-0.084	-0.165
-140.472	692.685	-0.055	-0.143
-139.458	-43.957	-0.265	0.132
-138.443	247.912	-0.142	0.239
-137.429	-189.074	-0.062	-0.001
-136.414	-200.000	-0.055	-0.322
-135.399	-200.000	-0.020	-0.275
-134.385	-50.001	0.082	-0.039
-133.370	-103.717	-0.179	-0.042
-132.356	98.901	-0.151	-0.173
-131.341	-200.000	0.009	-0.236
-130.326	103.970	0.116	0.136
-129.312	-200.000	-0.009	0.050
-128.297	-200.000	0.039	0.200
-127.283	-134.860	0.204	0.024
-126.268	11.969	0.282	-0.216
-125.253	-165.504	0.147	-0.006
-124.239	-79.373	0.112	0.038
-123.224	-200.000	0.015	0.080
-122.210	18.057	-0.108	0.086
-121.195	153.639	0.142	0.194
-120.180	-58.801	-0.179	0.077
-119.166	800.000	0.124	0.392
-118.151	39.304	0.022	-0.019
-117.137	-49.906	-0.220	-0.104
-116.122	180.920	-0.100	0.146
-115.107	5.101	-0.224	-0.164
-114.093	31.111	0.153	-0.131
-113.078	-155.156	-0.190	-0.012
-112.064	73.517	-0.222	-0.231
-111.049	-79.900	0.373	-0.125
-110.034	157.143	-0.204	0.280
-109.020	-158.112	0.196	-0.011
-108.005	117.070	0.120	0.146
-106.991	-116.514	0.072	-0.013
-105.976	-200.000	0.034	0.158
-104.962	86.559	0.252	0.276
-103.947	84.882	0.263	0.287
-102.932	35.367	0.067	0.058
-101.918	-38.207	0.128	0.067
-100.903	-200.000	0.060	0.373
-99.889	-113.332	0.056	0.011
-98.874	-200.000	0.030	-0.143
-97.859	-42.805	-0.081	0.041
-96.845	-200.000	-0.017	0.224
-95.830	119.049	0.230	0.282
-94.816	800.000	-0.106	0.341
-93.801	800.000	0.083	0.248
-92.786	97.698	-0.059	0.068
-91.772	369.664	0.113	0.228
-90.757	-99.179	-0.170	-0.043
-89.743	-200.000	0.005	0.215
-88.728	800.000	-0.037	0.107
-87.713	356.247	-0.054	-0.107
-86.699	800.000	0.049	-0.198
-85.684	-187.951	0.248	0.003
-84.670	-200.000	-0.026	-0.205
-83.655	800.000	-0.021	0.077
-82.640	224.101	-0.080	-0.128
-81.626	35.108	0.203	-0.176
-80.611	-17.132	0.220	-0.138
-79.597	-200.000	0.031	0.249
-78.582	518.738	0.110	0.256
-77.567	-200.000	-0.031	0.153
-76.553	-200.000	-0.015	0.141
-75.538	-200.000	0.024	-0.252
-74.524	790.110	-0.045	-0.123
-73.509	123.096	0.199	0.248
-72.494	-77.376	-0.348	0.120
-71.480	481.107	-0.092	-0.206
-70.465	-200.000	-0.024	-0.264
-69.451	-200.000	-0.043	0.363
-68.436	-200.000	-0.031	0.250
-67.422	464.906	-0.019	-0.041
-66.407	-50.345	-0.342	-0.160
-65.392	-73.016	-0.179	-0.065
-64.378	-200.000	-0.037	-0.400
-63.363	-200.000	-0.015	0.096
-62.349	243.289	0.085	-0.141
-61.334	95.314	-0.727	-0.821
-60.319	-200.000	0.027	0.374
-59.305	800.000	-0.230	-0.845
-58.290	133.776	0.863	1.107
-57.276	595.115	0.658	1.613
-56.261	-200.000	95.488	594.117
-55.246	620.296	1391.594	3466.562
-54.232	188.265	2594.572	3842.277
-53.217	108.972	2329.762	2759.941
-52.203	38.203	2087.805	1841.089
-51.188	33.152	2002.175	1719.708
-50.173	31.580	1983.605	1689.517
-49.159	46.467	2032.827	1867.799
-48.144	47.850	2050.387	1896.496
-47.130	33.765	2012.978	1734.318
-46.115	31.462	2002.665	1704.397
-45.100	31.326	1999.271	1700.208
-44.086	31.352	1996.881	1698.346
-43.071	31.251	1994.347	1695.203
-42.057	31.199	1992.244	1692.882
-41.042	31.378	1989.975	1692.505
-40.027	31.263	1988.716	1690.325
-39.013	31.348	1986.332	1689.002
-37.998	31.415	1984.517	1687.998
-36.984	31.401	1982.421	1686.018
-35.969	31.310	1980.734	1683.700
-34.954	31.370	1978.872	1682.587
-33.940	31.444	1977.568	1682.075
-32.925	31.441	1975.652	1680.351
-31.911	31.453	1974.006	1678.993
-30.896	31.452	1972.372	1677.534
-29.881	31.561	1970.617	1676.947
-28.867	31.501	1969.547	1675.429
-27.852	31.396	1967.825	1672.958
-26.838	31.527	1966.124	1672.624
-25.823	31.458	1963.785	1669.952
-24.809	31.468	1962.065	1668.506
-23.794	31.402	1960.756	1666.740
-22.779	31.473	1958.338	1665.253
-21.765	31.422	1956.822	1663.442
-20.750	31.349	1955.694	1661.768
-19.736	31.413	1954.016	1660.843
-18.721	31.481	1952.141	1659.792
-17.706	31.391	1950.700	1657.700
-16.692	31.398	1948.643	1655.950
-15.677	31.457	1947.302	1655.264
-14.663	31.543	1945.233	1654.202
-13.648	31.494	1944.259	1652.879
-12.633	31.470	1943.397	1651.868
-11.619	31.393	1942.379	1650.250
-10.604	31.478	1940.397	1649.257
-9.590	31.491	1938.905	1648.033
-8.575	31.469	1937.189	1646.321
-7.560	31.516	1935.793	1645.478
-6.546	31.438	1934.801	1643.886
-5.531	31.483	1933.896	1643.449
-4.517	31.452	1932.503	1641.921
-3.502	31.399	1931.757	1640.764
-2.487	31.401	1930.448	1639.600
-1.473	31.443	1929.776	1639.336
-0.458	31.543	1924.821	1635.934
0.556	33.699	1905.716	1609.914
1.571	29.460	1886.526	1557.867
2.586	25.512	1910.541	1543.738
3.600	24.482	1946.122	1563.327
4.615	23.370	1940.299	1548.802
5.629	18.170	1838.318	1424.089
6.644	9.307	1720.280	1263.177
7.659	4.811	1683.508	1201.439
8.673	4.471	1680.592	1196.633
9.688	4.573	1679.042	1196.206
10.702	4.640	1677.697	1195.652
11.717	4.646	1674.492	1193.311
12.731	5.168	1674.257	1197.045
13.746	11.171	1688.417	1253.362
14.761	19.283	1705.665	1328.860
15.775	22.415	1710.717	1356.858
16.790	22.425	1708.983	1355.434
17.804	21.476	1705.992	1345.649
18.819	20.407	1703.177	1335.095
19.834	19.835	1700.706	1328.646
20.848	19.661	1699.379	1326.155
21.863	19.542	1697.956	1324.017
22.877	19.453	1696.605	1322.162
23.892	19.258	1695.528	1319.717
24.907	19.222	1694.654	1318.641
25.921	19.128	1693.453	1316.871
26.936	19.146	1692.032	1315.790
27.950	19.138	1691.454	1315.166
28.965	19.195	1690.739	1314.924
29.980	19.238	1689.913	1314.496
30.994	19.393	1688.970	1314.830
32.009	19.488	1688.287	1314.902
33.023	19.641	1687.179	1315.087
34.038	19.620	1686.010	1313.902
35.053	19.552	1685.078	1312.538
36.067	19.465	1683.813	1310.778
37.082	19.470	1682.593	1309.753
38.096	19.320	1681.985	1308.022
39.111	19.374	1681.068	1307.606
40.126	19.481	1680.262	1307.671
41.140	19.448	1679.408	1306.644
42.155	19.217	1677.756	1303.494
43.169	18.922	1676.177	1299.918
44.184	18.887	1674.646	1298.354
45.199	18.900	1673.808	1297.686
46.213	18.871	1672.652	1296.457
47.228	18.963	1671.793	1296.375
48.242	19.119	1670.983	1296.804
49.257	19.307	1669.900	1297.264
50.271	19.231	1668.586	1295.554
51.286	19.225	1667.513	1294.565
52.301	19.218	1666.402	1293.536
53.315	19.304	1664.774	1292.799
54.330	19.221	1663.292	1290.915
55.344	19.044	1661.378	1287.991
56.359	18.960	1659.440	1285.743
57.374	18.880	1658.776	1284.518
58.388	19.028	1657.444	1284.479
59.403	18.876	1656.469	1282.472
60.417	18.877	1654.493	1280.840
61.432	18.795	1653.909	1279.666
62.447	18.820	1652.495	1278.641
63.461	18.663	1651.825	1276.846
64.476	18.598	1650.232	1275.012
65.490	18.571	1649.712	1274.297
66.505	18.597	1648.226	1273.231
67.520	18.590	1647.789	1272.730
68.534	18.616	1646.670	1271.946
69.549	18.735	1644.980	1271.406
70.563	18.731	1644.030	1270.536
71.578	18.622	1643.224	1268.988
72.593	18.520	1642.068	1267.230
73.607	18.484	1640.478	1265.625
74.622	18.404	1639.461	1264.137
75.636	18.404	1638.902	1263.595
76.651	18.539	1637.921	1263.726
77.666	18.446	1637.452	1262.564
78.680	18.560	1636.456	1262.529
79.695	18.549	1635.816	1261.836
80.709	18.700	1635.095	1262.282
81.724	18.738	1633.991	1261.594
82.739	18.870	1633.573	1262.133
83.753	19.053	1632.073	1262.204
84.768	19.141	1631.471	1262.271
85.782	19.284	1631.057	1262.885
86.797	19.409	1630.715	1263.428
87.812	19.349	1630.057	1262.363
88.826	19.363	1627.938	1260.719
89.841	19.225	1627.623	1259.348
90.855	19.355	1626.113	1259.019
91.870	19.381	1624.838	1258.111
92.884	19.401	1624.756	1258.081
93.899	19.378	1624.156	1257.342
94.914	19.464	1622.444	1256.527
95.928	19.516	1621.599	1256.140
96.943	19.502	1619.992	1254.686
97.957	19.443	1618.685	1253.130
98.972	19.360	1616.812	1250.970
99.987	19.418	1615.901	1250.572
101.001	19.409	1613.640	1248.647
102.016	19.375	1612.119	1247.117
103.030	19.342	1611.404	1246.216
104.045	19.415	1610.223	1245.719
105.060	19.360	1608.795	1244.102
106.074	19.349	1606.957	1242.493
107.089	19.227	1605.043	1240.026
108.103	18.870	1603.442	1236.110
109.118	18.748	1601.858	1233.906
110.133	18.672	1600.333	1232.077
111.147	18.636	1599.323	1230.928
112.162	18.616	1597.967	1229.633
113.176	18.696	1596.448	1228.933
114.191	18.691	1595.761	1228.259
115.206	18.801	1594.284	1227.795
116.220	18.825	1593.262	1227.073
117.235	18.868	1591.766	1226.120
118.249	18.777	1590.565	1224.436
119.264	18.648	1589.315	1222.450
120.279	18.691	1587.865	1221.531
121.293	18.557	1586.338	1219.297
122.308	18.583	1584.531	1217.980
123.322	18.511	1583.070	1216.238
124.337	18.453	1581.654	1214.632
125.352	18.405	1579.944	1212.871
126.366	18.426	1578.787	1212.028
127.381	18.479	1577.310	1211.161
128.395	18.389	1576.619	1209.884
129.410	18.492	1575.027	1209.282
130.424	18.464	1574.067	1208.242
131.439	18.485	1573.326	1207.719
132.454	18.592	1571.689	1207.108
133.468	18.810	1570.362	1207.509
134.483	18.806	1569.388	1206.626
135.497	18.843	1567.503	1205.335
136.512	18.768	1566.896	1204.234
137.527	18.949	1565.056	1203.976
138.541	18.860	1563.707	1202.214
139.556	18.931	1562.755	1201.869
140.570	18.989	1561.607	1201.284
141.585	19.022	1560.286	1200.397
142.600	19.212	1559.417	1200.945
143.614	19.355	1557.782	1200.574
144.629	19.359	1557.576	1200.340
145.643	19.442	1556.022	1199.612
146.658	19.547	1554.405	1198.990
147.673	19.394	1552.909	1196.669
148.687	19.204	1551.706	1194.314
149.702	19.104	1549.772	1192.028
150.716	19.007	1548.054	1189.932
151.731	18.998	1546.185	1188.331
152.746	18.964	1545.344	1187.341
153.760	19.003	1544.042	1186.507
154.775	18.964	1542.941	1185.285
155.789	19.121	1542.109	1185.620
156.804	19.141	1540.877	1184.708
157.819	19.213	1539.971	1184.400
158.833	19.223	1538.822	1183.482
159.848	19.375	1537.555	1183.448
160.862	19.527	1536.186	1183.332
161.877	19.459	1535.629	1182.332
162.892	19.407	1533.612	1180.314
163.906	19.077	1532.242	1176.898
164.921	18.954	1530.989	1174.997
165.935	18.913	1529.909	1173.780
166.950	19.020	1528.376	1173.233
167.964	19.130	1527.370	1173.106
168.979	19.190	1526.684	1172.885
169.994	19.095	1526.033	1171.632
171.008	19.036	1524.410	1169.881
172.023	19.078	1523.493	1169.356
173.037	19.094	1522.437	1168.555
174.052	19.324	1521.160	1169.033
175.067	19.388	1520.845	1169.120
176.081	19.325	1519.174	1167.305
177.096	19.047	1517.112	1163.739
178.110	18.981	1516.063	1162.385
179.125	18.957	1515.225	1161.475
180.140	19.094	1514.056	1161.400
181.154	19.108	1512.815	1160.439
182.169	19.280	1512.007	1160.878
183.183	19.305	1511.175	1160.306
184.198	19.365	1510.297	1159.928
185.213	19.490	1509.054	1159.715
186.227	19.371	1508.029	1158.023
187.242	19.472	1507.165	1157.936
188.256	19.555	1505.742	1157.297
189.271	19.513	1505.228	1156.518
190.286	19.674	1504.283	1156.769
191.300	19.588	1502.786	1154.936
192.315	19.338	1501.292	1152.015
193.329	18.951	1499.374	1147.863
194.344	18.970	1498.520	1147.233
195.359	18.939	1497.494	1146.138
196.373	19.159	1496.615	1146.833
197.388	19.262	1495.550	1146.599
198.402	19.238	1495.078	1145.978
199.417	19.461	1493.583	1146.208
200.432	19.676	1493.024	1147.109
201.446	19.724	1492.531	1146.941
202.461	19.809	1491.779	1146.829
203.475	19.815	1490.956	1146.133
204.490	19.989	1489.658	1146.189
205.504	19.819	1488.370	1143.968
206.519	19.669	1487.029	1141.846
207.534	19.524	1485.567	1139.667
208.548	19.551	1484.529	1138.948
209.563	19.410	1483.732	1137.304
210.577	19.458	1482.301	1136.422
211.592	19.537	1481.968	1136.589
212.607	19.550	1480.976	1135.815
213.621	19.685	1480.461	1136.204
214.636	19.822	1479.658	1136.390
215.650	19.774	1478.655	1135.205
216.665	19.600	1477.869	1133.355
217.680	19.750	1477.698	1134.110
218.694	19.936	1476.076	1133.984
219.709	20.036	1475.273	1133.916
220.723	19.978	1474.702	1133.000
221.738	19.959	1473.406	1131.781
222.753	19.871	1472.712	1130.569
223.767	19.979	1471.306	1130.100
224.782	19.876	1470.417	1128.644
225.796	19.900	1469.916	1128.318
226.811	20.123	1468.985	1128.952
227.826	20.149	1468.634	1128.750
228.840	19.998	1467.175	1126.548
229.855	19.909	1466.215	1125.137
230.869	19.877	1465.277	1124.110
231.884	19.834	1464.662	1123.260
232.899	19.881	1462.852	1122.071
233.913	19.784	1461.328	1120.178
234.928	19.662	1460.636	1118.758
235.942	19.625	1458.917	1117.104
236.957	19.672	1457.745	1116.413
237.972	19.533	1456.541	1114.491
238.986	19.536	1455.514	1113.625
240.001	19.678	1454.581	1113.729
241.015	19.669	1453.457	1112.712
242.030	19.593	1452.311	1111.249
243.045	19.844	1451.099	1111.835
244.059	19.852	1450.804	1111.566
245.074	19.871	1449.968	1110.947
246.088	19.919	1449.087	1110.480
247.103	19.993	1448.759	1110.608
248.117	20.090	1447.802	1110.398
249.132	20.200	1446.768	1110.209
250.147	20.289	1446.775	1110.685
251.161	20.507	1446.380	1111.680
252.176	20.670	1446.383	1112.625
253.190	20.655	1445.611	1111.835
254.205	20.780	1444.582	1111.744
255.220	20.903	1443.632	1111.699
256.234	20.894	1443.254	1111.254
257.249	20.836	1442.338	1110.082
258.263	20.830	1441.540	1109.332
259.278	20.827	1440.414	1108.348
260.293	20.786	1439.261	1107.100
261.307	20.833	1438.599	1106.790
262.322	20.904	1438.116	1106.771
263.336	21.009	1437.597	1106.942
264.351	20.977	1435.877	1105.315
265.366	20.991	1435.265	1104.835
266.380	20.967	1434.373	1103.903
267.395	21.087	1433.338	1103.763
268.409	20.964	1432.896	1102.547
269.424	20.920	1431.176	1100.849
270.439	20.770	1430.477	1099.268
271.453	20.780	1428.942	1098.052
272.468	20.844	1428.201	1097.794
273.482	20.684	1427.541	1096.176
274.497	20.569	1426.569	1094.609
275.512	20.603	1425.474	1093.888
276.526	20.618	1424.975	1093.501
277.541	20.572	1423.826	1092.232
278.555	20.659	1422.548	1091.703
279.570	20.710	1421.867	1091.403
280.585	20.877	1420.869	1091.587
281.599	20.914	1420.916	1091.763
282.614	21.035	1419.631	1091.431
283.628	20.873	1418.668	1089.583
284.643	20.751	1417.595	1087.901
285.657	20.730	1415.837	1086.325
286.672	20.752	1415.604	1086.185
287.687	20.834	1414.581	1085.817
288.701	20.765	1413.200	1084.229
289.716	20.781	1412.411	1083.632
290.730	20.806	1411.959	1083.343
291.745	20.748	1411.175	1082.287
292.760	20.838	1409.947	1081.808
293.774	20.853	1408.548	1080.731
294.789	20.846	1407.987	1080.159
295.803	20.999	1407.669	1080.771
296.818	21.082	1406.642	1080.399
297.833	20.989	1405.472	1078.829
298.847	20.792	1404.299	1076.617
299.862	20.790	1403.439	1075.848
300.876	20.823	1402.781	1075.454
301.891	20.829	1401.608	1074.498
302.906	20.951	1400.631	1074.403
303.920	21.029	1400.132	1074.404
304.935	21.145	1399.771	1074.750
305.949	21.200	1398.882	1074.311
306.964	21.344	1398.289	1074.641
307.979	21.460	1397.703	1074.813
308.993	21.330	1396.004	1072.610
310.008	21.345	1394.826	1071.706
311.022	21.180	1394.067	1070.015
312.037	21.434	1392.801	1070.506
313.052	21.337	1392.272	1069.411
314.066	21.311	1390.847	1068.062
315.081	21.174	1389.933	1066.430
316.095	21.019	1388.370	1064.189
317.110	20.832	1387.696	1062.440
318.125	20.954	1386.131	1061.886
319.139	20.838	1385.704	1060.758
320.154	20.918	1384.504	1060.236
321.168	20.851	1383.517	1058.978
322.183	20.898	1382.424	1058.335
323.197	20.885	1381.625	1057.551
324.212	20.927	1380.846	1057.111
325.227	21.016	1380.245	1057.100
326.241	21.137	1378.864	1056.681
327.256	21.107	1377.941	1055.699
328.270	21.092	1377.455	1055.144
329.285	20.949	1376.894	1053.756
330.300	20.959	1375.215	1052.437
331.314	21.048	1374.689	1052.480
332.329	21.037	1374.050	1051.828
333.343	20.991	1373.025	1050.673
334.358	21.025	1372.508	1050.393
335.373	21.178	1371.824	1050.698
336.387	21.300	1371.066	1050.756
337.402	21.406	1369.694	1050.245
338.416	21.306	1369.524	1049.421
339.431	21.333	1369.011	1049.097
340.446	21.472	1368.366	1049.349
341.460	21.521	1367.772	1049.094
342.475	21.578	1366.721	1048.533
343.489	21.762	1365.845	1048.869
344.504	21.871	1364.895	1048.702
345.519	21.877	1364.123	1048.048
346.533	21.929	1363.310	1047.642
347.548	21.946	1362.053	1046.684
348.562	21.989	1361.592	1046.496
349.577	22.058	1360.847	1046.241
350.592	21.922	1359.675	1044.440
351.606	21.683	1358.667	1042.150
352.621	21.531	1357.301	1040.109
353.635	21.477	1356.111	1038.784
354.650	21.483	1354.720	1037.660
355.665	21.423	1353.622	1036.370
356.679	21.471	1353.133	1036.189
357.694	21.478	1352.187	1035.417
358.708	21.623	1350.822	1035.138
359.723	21.713	1349.891	1034.864
360.738	21.679	1349.028	1033.908
361.752	21.773	1347.882	1033.492
362.767	21.699	1347.055	1032.329
363.781	21.724	1345.778	1031.408
364.796	21.666	1345.575	1030.821
365.810	21.912	1344.646	1031.462
366.825	21.975	1344.539	1031.662
367.840	22.113	1343.636	1031.684
368.854	22.156	1343.274	1031.573
369.869	22.223	1343.045	1031.694
370.883	22.358	1341.643	1031.319
371.898	22.302	1341.153	1030.522
372.913	22.156	1340.399	1028.997
373.927	22.145	1338.964	1027.743
374.942	22.032	1338.188	1026.391
375.956	22.144	1338.059	1026.861
376.971	22.192	1337.380	1026.529
377.986	22.126	1336.145	1025.103
379.000	22.150	1335.166	1024.404
380.015	22.203	1334.756	1024.304
381.029	22.451	1334.032	1025.104
382.044	22.485	1333.163	1024.544
383.059	22.498	1332.724	1024.188
384.073	22.520	1331.721	1023.458
385.088	22.369	1331.382	1022.228
386.102	22.304	1330.648	1021.198
387.117	22.446	1329.787	1021.268
388.132	22.383	1328.818	1020.069
389.146	22.209	1327.725	1018.130
390.161	22.041	1326.791	1016.352
391.175	21.999	1326.226	1015.589
392.190	22.063	1325.064	1014.975
393.205	22.104	1324.283	1014.528
394.219	22.245	1323.772	1014.862
395.234	22.406	1322.371	1014.621
396.248	22.269	1320.895	1012.613
397.263	22.210	1319.664	1011.238
398.278	22.178	1318.382	1009.984
399.292	22.200	1316.848	1008.849
400.307	22.007	1316.133	1007.103
401.321	21.935	1314.711	1005.515
402.336	21.983	1313.948	1005.112
403.350	21.920	1313.020	1003.953
404.365	21.941	1312.242	1003.394
405.380	22.013	1310.871	1002.666
406.394	22.090	1310.511	1002.740
407.409	22.060	1309.977	1002.071
408.423	22.178	1309.272	1002.119
409.438	22.371	1308.387	1002.451
410.453	22.530	1308.006	1002.974
411.467	22.652	1307.287	1003.027
412.482	22.712	1306.569	1002.731
413.496	22.655	1306.379	1002.171
414.511	22.677	1305.933	1001.866
415.526	22.812	1304.902	1001.756
416.540	22.941	1303.854	1001.591
417.555	22.886	1304.208	1001.465
418.569	22.992	1303.216	1001.216
419.584	22.793	1302.514	999.458
420.599	22.787	1301.683	998.700
421.613	144.873	1433.719	1794.872
422.628	140.283	1452.943	1794.964
