DTS Sentinel unit serial number:	SN413079Multiplexer serial number:	ORYXHardware model number:	OX4-SRSoftware version number:	ORYX F/W v4.00 Oryx Data Collector v3.7.2.0data status	okinstallation	princeton_trtdifferential loss correction	single-endedforward channel	channel 4reverse channel	N/Adate	2019/09/19time	14:13:34forward acquisition time	60.00reverse acquisition time	0.00gamma	496.2192k internal	0.2307k external	0.2307temperature offset calibration	1.0020default loss term (dB/km)	0.3790temperature slope calibration	1.0000multiplexer offset coefficient	1.0000multiplexer slope coefficient	1.0000fibre end	0.00T internal ref (°C)	31.59T ext. ref 1 (°C)	1.04T ext. ref 2 (°C)	28.80length (m)	temperature (°C)	Stokes	anti-Stokes-747.200	481.106	0.100	0.231
-746.185	-127.829	-0.366	0.054
-745.171	-103.425	0.328	0.079
-744.156	43.442	0.125	0.116
-743.142	134.113	-0.051	0.067
-742.127	-200.000	0.023	0.170
-741.112	-200.000	-0.008	0.087
-740.098	137.520	-0.458	0.610
-739.083	-145.313	0.213	0.020
-738.069	178.183	0.077	0.114
-737.054	49.029	-0.163	0.155
-736.039	-91.179	-0.289	-0.084
-735.025	2.458	0.331	0.244
-734.010	221.070	-0.099	-0.162
-732.996	273.292	-0.130	0.234
-731.981	-200.000	0.001	-0.392
-730.966	200.123	-0.106	-0.166
-729.952	-100.046	-0.131	-0.033
-728.937	7.572	0.110	-0.084
-727.923	-200.000	0.035	-0.356
-726.908	-79.375	-0.263	0.090
-725.894	203.874	-0.097	0.153
-724.879	-9.700	-0.104	-0.070
-723.864	25.970	0.131	0.111
-722.850	-196.107	-0.146	-0.001
-721.835	268.162	0.120	0.215
-720.821	-74.723	-0.126	-0.046
-719.806	412.884	-0.064	0.138
-718.791	-200.000	-0.015	0.172
-717.777	-23.316	-0.421	-0.257
-716.762	208.939	-0.033	-0.053
-715.748	-196.600	-0.220	0.001
-714.733	-154.519	-0.273	-0.019
-713.718	800.000	-0.098	0.304
-712.704	-200.000	0.020	-0.221
-711.689	800.000	0.076	-0.303
-710.675	800.000	-0.128	-0.437
-709.660	800.000	-0.102	-0.422
-708.645	-11.728	-0.280	-0.187
-707.631	-200.000	-0.006	-0.080
-706.616	-200.000	-0.034	-0.168
-705.602	-200.000	-0.013	-0.143
-704.587	-200.000	0.002	-0.241
-703.572	3.680	-0.030	-0.022
-702.558	-11.527	0.119	0.079
-701.543	-200.000	-0.016	-0.273
-700.529	800.000	0.073	0.236
-699.514	-200.000	-0.009	-0.125
-698.499	-181.549	-0.082	-0.002
-697.485	-200.000	0.028	-0.334
-696.470	800.000	0.034	-0.125
-695.456	229.327	0.052	0.086
-694.441	697.084	-0.071	-0.189
-693.426	-150.920	-0.062	-0.005
-692.412	800.000	-0.026	-0.076
-691.397	-200.000	0.045	0.250
-690.383	-65.010	0.469	-0.192
-689.368	-127.202	-0.291	0.043
-688.354	-200.000	0.037	0.203
-687.339	-35.488	-0.178	0.098
-686.324	-129.904	-0.151	0.021
-685.310	-60.148	0.393	0.170
-684.295	65.275	-0.162	-0.166
-683.281	-30.282	0.137	-0.079
-682.266	-200.000	0.022	0.105
-681.251	199.159	-0.215	0.335
-680.237	-38.850	-0.029	-0.015
-679.222	203.244	-0.180	-0.282
-678.208	-167.041	0.104	0.004
-677.193	-200.000	-0.002	-0.303
-676.178	-51.212	0.275	-0.131
-675.164	800.000	0.048	-0.186
-674.149	146.577	-0.166	0.226
-673.135	-109.995	0.124	-0.026
-672.120	-200.000	-0.045	-0.279
-671.105	180.390	-0.242	0.360
-670.091	-55.211	-0.214	0.098
-669.076	-146.247	-0.391	-0.035
-668.062	467.073	-0.047	0.107
-667.047	-200.000	-0.001	0.230
-666.032	800.000	0.018	-0.060
-665.018	-76.281	0.228	-0.082
-664.003	-73.502	-0.234	0.087
-662.989	80.646	0.046	-0.050
-661.974	-107.502	-0.361	-0.080
-660.959	-59.454	0.146	-0.063
-659.945	234.564	-0.235	0.393
-658.930	259.092	0.106	0.186
-657.916	1.750	0.080	-0.058
-656.901	154.113	0.112	0.156
-655.886	-158.414	-0.187	-0.011
-654.872	-200.000	0.000	-0.060
-653.857	75.836	-0.232	0.248
-652.843	-164.278	-0.092	-0.004
-651.828	-83.492	-0.130	0.042
-650.814	50.795	-0.340	0.326
-649.799	-76.262	-0.088	-0.031
-648.784	-25.615	0.325	0.194
-647.770	338.928	0.150	-0.296
-646.755	54.114	-0.195	0.190
-645.741	800.000	-0.102	0.296
-644.726	-98.442	0.284	0.074
-643.711	164.781	0.097	-0.139
-642.697	566.550	0.060	-0.147
-641.682	-26.162	-0.296	0.176
-640.668	-153.798	0.068	-0.005
-639.653	-200.000	-0.003	0.314
-638.638	55.865	-0.122	-0.120
-637.624	-120.959	0.129	0.022
-636.609	80.201	-0.171	0.187
-635.595	-122.595	0.172	0.028
-634.580	-124.318	-0.492	-0.078
-633.565	-71.390	-0.198	0.075
-632.551	-59.301	0.093	0.040
-631.536	-104.501	0.404	0.094
-630.522	-200.000	-0.030	-0.346
-629.507	-85.823	0.107	0.034
-628.492	13.483	-0.256	-0.201
-627.478	629.034	-0.072	0.183
-626.463	-200.000	0.024	-0.180
-625.449	1.428	-0.191	-0.139
-624.434	41.326	0.164	-0.150
-623.419	24.628	-0.048	-0.040
-622.405	91.149	0.085	0.096
-621.390	-200.000	-0.011	-0.059
-620.376	-30.573	-0.142	0.081
-619.361	-136.777	-0.167	-0.019
-618.346	79.165	0.203	-0.221
-617.332	-192.558	-0.253	0.002
-616.317	128.290	-0.088	0.113
-615.303	352.180	0.121	-0.242
-614.288	800.000	-0.104	-0.322
-613.273	24.878	0.252	0.212
-612.259	-42.543	-0.180	0.093
-611.244	272.561	-0.219	-0.392
-610.230	-117.604	-0.388	0.071
-609.215	131.714	0.127	0.166
-608.201	-153.792	-0.114	0.008
-607.186	-110.383	-0.019	0.004
-606.171	784.587	-0.128	-0.354
-605.157	38.478	-0.280	-0.252
-604.142	440.932	0.061	0.135
-603.128	-130.846	-0.577	0.078
-602.113	800.000	0.056	-0.175
-601.098	-154.851	0.224	-0.015
-600.084	7.070	0.102	0.077
-599.069	116.194	0.030	-0.037
-598.055	-30.971	0.236	-0.135
-597.040	-200.000	-0.011	0.100
-596.025	-200.000	0.005	0.321
-595.011	52.801	-0.247	-0.239
-593.996	109.096	0.194	-0.235
-592.982	-74.335	0.133	0.049
-591.967	800.000	-0.119	0.467
-590.952	-199.692	-0.287	-0.001
-589.938	800.000	-0.060	0.214
-588.923	-51.013	-0.234	0.111
-587.909	537.927	-0.191	-0.460
-586.894	-128.609	0.060	-0.009
-585.879	52.848	0.174	0.168
-584.865	589.943	-0.102	0.253
-583.850	800.000	-0.057	-0.204
-582.836	800.000	0.080	-0.243
-581.821	-131.253	-0.270	-0.036
-580.806	3.822	0.240	0.177
-579.792	-200.000	-0.002	-0.057
-578.777	717.528	-0.034	-0.091
-577.763	-176.242	0.113	0.003
-576.748	-200.000	-0.008	0.093
-575.733	354.370	0.126	0.253
-574.719	636.480	-0.061	0.157
-573.704	-73.644	0.218	0.080
-572.690	123.834	0.310	0.393
-571.675	192.959	0.309	0.472
-570.661	45.019	-0.219	-0.204
-569.646	-130.499	0.326	-0.044
-568.631	319.597	0.097	0.185
-567.617	247.477	0.099	-0.169
-566.602	28.949	-0.353	-0.303
-565.588	-62.944	-0.056	0.023
-564.573	164.224	0.128	-0.182
-563.558	73.467	-0.040	-0.042
-562.544	143.978	-0.044	0.059
-561.529	668.522	-0.108	0.282
-560.515	-52.581	-0.233	-0.109
-559.500	-62.489	0.297	-0.124
-558.485	800.000	0.021	-0.068
-557.471	-83.095	0.095	0.031
-556.456	86.511	-0.086	-0.095
-555.442	-54.323	-0.379	0.174
-554.427	-135.091	0.256	-0.031
-553.412	21.180	-0.110	0.090
-552.398	122.497	0.079	0.099
-551.383	-111.930	-0.288	-0.059
-550.369	-95.868	-0.233	-0.063
-549.354	84.455	0.196	0.217
-548.339	800.000	-0.057	-0.205
-547.325	-109.482	-0.291	0.062
-546.310	-200.000	0.028	0.146
-545.296	-175.637	-0.195	-0.005
-544.281	16.479	-0.316	-0.252
-543.266	140.038	0.012	-0.016
-542.252	-200.000	-0.031	0.161
-541.237	7.262	-0.140	0.105
-540.223	-200.000	0.018	-0.116
-539.208	83.662	0.185	0.203
-538.193	-200.000	-0.035	-0.173
-537.179	-63.260	0.245	-0.102
-536.164	-123.088	0.210	0.034
-535.150	-137.972	0.173	0.019
-534.135	504.199	-0.103	0.240
-533.121	201.225	0.096	0.149
-532.106	800.000	0.014	-0.048
-531.091	141.967	-0.143	-0.191
-530.077	18.925	-0.093	-0.075
-529.062	209.996	-0.096	0.152
-528.048	348.701	-0.044	0.088
-527.033	-88.714	-0.196	0.059
-526.018	-200.000	0.013	-0.526
-525.004	-24.579	-0.126	0.075
-523.989	45.919	0.153	-0.143
-522.975	-200.000	0.042	-0.466
-521.960	27.871	-0.083	0.071
-520.945	105.316	-0.067	-0.080
-519.931	-19.067	-0.286	0.179
-518.916	199.072	0.155	-0.239
-517.902	-128.003	-0.347	0.050
-516.887	114.246	0.096	-0.118
-515.872	-102.666	0.168	0.040
-514.858	-106.652	-0.193	0.043
-513.843	-200.000	-0.011	-0.363
-512.829	78.162	-0.192	0.206
-511.814	800.000	-0.080	0.329
-510.799	-103.678	-0.116	-0.027
-509.785	-68.930	0.190	-0.074
-508.770	73.648	-0.094	0.100
-507.756	262.944	-0.023	-0.041
-506.741	497.731	0.110	0.255
-505.726	-82.989	0.211	0.068
-504.712	-200.000	0.004	0.186
-503.697	-78.094	-0.127	0.044
-502.683	64.478	0.249	-0.253
-501.668	744.118	0.030	-0.082
-500.653	-58.318	0.300	-0.131
-499.639	109.504	-0.245	0.296
-498.624	-99.123	0.068	0.017
-497.610	422.225	0.059	0.127
-496.595	-51.242	0.285	0.135
-495.581	-200.000	0.009	-0.078
-494.566	-102.191	-0.238	-0.058
-493.551	-103.437	0.369	-0.087
-492.537	800.000	0.048	-0.199
-491.522	-200.000	-0.001	-0.068
-490.508	90.983	0.134	-0.151
-489.493	800.000	0.075	-0.221
-488.478	-200.000	0.045	-0.274
-487.464	-158.834	0.263	0.015
-486.449	-87.825	0.218	-0.066
-485.435	82.751	-0.302	0.330
-484.420	521.008	-0.025	-0.059
-483.405	593.532	0.068	0.170
-482.391	74.056	-0.237	-0.251
-481.376	256.230	-0.142	-0.245
-480.362	800.000	-0.069	0.204
-479.347	158.838	0.131	0.183
-478.332	-200.000	0.021	-0.140
-477.318	113.627	0.121	0.148
-476.303	114.672	-0.089	0.109
-475.289	-46.177	-0.138	-0.068
-474.274	-200.000	0.026	0.157
-473.259	-106.123	0.399	0.090
-472.245	-54.605	-0.147	-0.067
-471.230	-10.424	-0.170	-0.113
-470.216	-30.301	0.267	-0.152
-469.201	-140.868	0.648	0.067
-468.186	-114.605	0.245	0.047
-467.172	395.563	-0.109	-0.229
-466.157	800.000	-0.030	0.110
-465.143	-100.167	0.352	-0.088
-464.128	-112.988	0.509	0.101
-463.113	29.890	0.129	0.111
-462.099	-107.212	-0.153	0.034
-461.084	53.965	0.047	-0.045
-460.070	37.404	0.025	0.022
-459.055	-22.422	0.265	0.161
-458.040	-19.844	-0.187	-0.116
-457.026	-200.000	-0.062	-0.303
-456.011	-53.235	0.183	0.084
-454.997	-94.643	-0.196	0.054
-453.982	168.914	-0.059	-0.084
-452.968	281.195	-0.045	0.082
-451.953	44.075	-0.202	0.186
-450.938	-200.000	0.019	0.125
-449.924	-119.323	0.042	0.007
-448.909	138.135	-0.076	-0.100
-447.895	-97.760	0.224	-0.058
-446.880	480.374	-0.118	-0.268
-445.865	-200.000	0.014	0.112
-444.851	130.024	0.162	0.209
-443.836	4.066	0.075	0.055
-442.822	32.067	-0.057	-0.050
-441.807	800.000	-0.024	-0.080
-440.792	-200.000	0.026	0.216
-439.778	124.130	0.173	0.219
-438.763	30.772	-0.222	0.191
-437.749	507.429	-0.123	0.288
-436.734	324.145	-0.082	-0.158
-435.719	800.000	0.084	-0.352
-434.705	-175.748	-0.363	-0.010
-433.690	561.512	0.126	-0.306
-432.676	102.421	-0.218	0.256
-431.661	-200.000	0.014	0.270
-430.646	-14.142	-0.064	-0.042
-429.632	473.647	0.019	-0.042
-428.617	-14.753	-0.172	-0.111
-427.603	584.638	0.066	0.163
-426.588	39.311	-0.166	0.149
-425.573	-200.000	0.000	-0.488
-424.559	-6.525	-0.157	0.107
-423.544	-54.605	-0.241	0.110
-422.530	-83.105	-0.081	0.026
-421.515	-200.000	0.005	0.089
-420.500	800.000	0.024	-0.074
-419.486	800.000	-0.100	-0.292
-418.471	167.848	0.156	0.223
-417.457	-200.000	0.031	0.336
-416.442	-4.138	-0.065	0.045
-415.428	-200.000	0.003	0.032
-414.413	-200.000	-0.039	0.171
-413.398	800.000	-0.053	-0.163
-412.384	60.087	0.066	-0.065
-411.369	-10.807	0.161	0.107
-410.355	-84.241	-0.176	0.056
-409.340	40.418	0.187	-0.169
-408.325	-121.083	0.279	-0.047
-407.311	800.000	-0.067	0.219
-406.296	-200.000	-0.039	-0.202
-405.282	161.484	-0.253	0.355
-404.267	-85.642	0.334	-0.104
-403.252	800.000	-0.039	0.108
-402.238	800.000	0.079	0.288
-401.223	-16.033	-0.236	-0.150
-400.209	192.815	0.069	-0.105
-399.194	-200.000	-0.008	0.308
-398.179	204.760	0.109	-0.169
-397.165	85.061	0.154	0.169
-396.150	-8.822	-0.098	-0.066
-395.136	736.047	-0.169	0.455
-394.121	-78.182	0.268	0.093
-393.106	6.660	0.338	-0.252
-392.092	22.545	0.186	-0.152
-391.077	-48.019	-0.280	-0.136
-390.063	-60.769	0.318	0.135
-389.048	-67.063	-0.246	-0.097
-388.033	-200.000	-0.012	-0.368
-387.019	-200.000	0.030	0.312
-386.004	402.933	0.157	0.330
-384.990	71.832	-0.085	0.089
-383.975	-200.000	0.006	0.366
-382.960	-28.392	0.186	0.108
-381.946	-200.000	-0.012	-0.108
-380.931	43.040	0.214	0.196
-379.917	124.597	-0.219	-0.276
-378.902	-169.454	0.461	0.017
-377.888	800.000	0.094	-0.297
-376.873	86.538	0.113	-0.125
-375.858	-56.365	0.312	-0.139
-374.844	800.000	0.059	-0.203
-373.829	70.104	-0.194	-0.201
-372.815	-124.806	0.156	0.024
-371.800	-200.000	-0.049	0.254
-370.785	-200.000	-0.047	-0.265
-369.771	-147.607	-0.297	-0.025
-368.756	-200.000	0.041	-0.323
-367.742	51.219	-0.138	-0.131
-366.727	-106.901	-0.143	0.032
-365.712	134.046	-0.268	-0.348
-364.698	-93.910	-0.265	0.073
-363.683	66.414	-0.240	0.244
-362.669	91.267	0.133	-0.149
-361.654	259.304	-0.169	-0.292
-360.639	-200.000	-0.006	-0.052
-359.625	34.149	0.095	-0.083
-358.610	-2.975	0.194	0.136
-357.596	-14.212	0.064	-0.041
-356.581	-200.000	-0.011	-0.086
-355.566	-13.497	0.045	-0.029
-354.552	-200.000	-0.040	0.181
-353.537	-200.000	-0.034	-0.243
-352.523	-23.020	0.287	-0.173
-351.508	-78.809	-0.093	-0.032
-350.493	800.000	-0.068	0.201
-349.479	400.837	0.052	0.108
-348.464	538.928	0.086	0.205
-347.450	-25.908	0.235	-0.139
-346.435	51.015	-0.247	0.235
-345.420	-200.000	-0.058	0.255
-344.406	-127.457	0.323	-0.047
-343.391	-37.405	-0.151	0.081
-342.377	10.199	0.139	-0.106
-341.362	-200.000	0.006	0.072
-340.348	-114.876	0.231	-0.044
-339.333	-200.000	0.025	0.253
-338.318	-170.527	-0.035	0.001
-337.304	13.725	0.033	-0.026
-336.289	-200.000	-0.010	-0.239
-335.275	-37.341	0.059	0.032
-334.260	560.545	0.074	0.179
-333.245	-132.840	0.187	0.024
-332.231	-32.181	-0.283	-0.158
-331.216	281.504	-0.044	-0.078
-330.202	-119.849	-0.163	-0.028
-329.187	800.000	0.066	0.204
-328.172	-7.087	0.104	-0.070
-327.158	443.171	-0.107	-0.234
-326.143	160.517	0.181	-0.253
-325.129	-8.983	-0.195	0.131
-324.114	-81.229	-0.137	0.045
-323.099	-42.913	0.061	-0.031
-322.085	-4.415	-0.024	0.016
-321.070	-115.001	-0.272	0.052
-320.056	-126.924	0.328	0.048
-319.041	108.092	-0.125	-0.149
-318.026	268.269	-0.117	-0.204
-317.012	13.414	0.047	-0.037
-315.997	-79.072	-0.264	0.090
-314.983	800.000	0.069	0.195
-313.968	53.945	0.200	-0.193
-312.953	51.814	0.115	0.109
-311.939	-200.000	-0.052	0.360
-310.924	-200.000	-0.043	-0.202
-309.910	-62.044	-0.151	0.063
-308.895	-117.693	-0.066	0.012
-307.880	43.843	0.097	0.089
-306.866	-121.783	0.296	-0.049
-305.851	800.000	0.026	-0.111
-304.837	-132.539	0.435	0.056
-303.822	-39.761	0.120	-0.063
-302.807	64.541	0.110	0.111
-301.793	372.326	0.045	-0.091
-300.778	-4.565	0.023	-0.016
-299.764	-39.251	-0.318	0.167
-298.749	-100.318	-0.480	-0.119
-297.735	-21.613	0.229	0.140
-296.720	-110.369	-0.071	0.015
-295.705	-48.524	0.234	-0.112
-294.691	178.680	0.321	0.469
-293.676	380.500	0.125	0.255
-292.662	347.886	-0.131	-0.257
-291.647	278.871	0.140	-0.249
-290.632	179.542	0.094	0.138
-289.618	-92.536	0.299	-0.084
-288.603	22.945	0.316	0.259
-287.589	88.324	0.142	0.158
-286.574	-133.428	-0.193	0.024
-285.559	338.901	0.154	0.300
-284.545	-0.075	-0.296	0.210
-283.530	-158.416	-0.159	-0.009
-282.516	-69.356	-0.393	-0.151
-281.501	-41.194	0.435	-0.224
-280.486	-200.000	0.018	0.159
-279.472	-200.000	-0.028	0.384
-278.457	56.685	0.060	0.059
-277.443	-200.000	0.041	-0.353
-276.428	-200.000	-0.011	-0.109
-275.413	-139.111	-0.066	0.007
-274.399	499.860	0.101	-0.232
-273.384	-90.039	-0.250	0.073
-272.370	-9.905	-0.320	0.212
-271.355	-64.486	-0.075	0.030
-270.340	-101.932	-0.157	-0.038
-269.326	98.853	-0.077	0.089
-268.311	69.925	-0.272	0.280
-267.297	-200.000	-0.028	-0.154
-266.282	41.382	0.083	0.075
-265.267	-200.000	0.026	0.254
-264.253	-89.090	0.148	0.044
-263.238	800.000	-0.068	-0.196
-262.224	207.004	0.141	0.219
-261.209	-200.000	0.035	0.250
-260.195	-200.000	0.011	0.138
-259.180	800.000	-0.013	-0.041
-258.165	-33.202	0.109	-0.060
-257.151	-140.836	-0.146	0.015
-256.136	253.147	0.143	-0.244
-255.122	-47.895	-0.139	-0.067
-254.107	-33.052	0.052	0.029
-253.092	89.586	-0.040	-0.044
-252.078	32.360	-0.181	-0.156
-251.063	475.838	0.135	-0.304
-250.049	-103.185	0.030	0.007
-249.034	-6.492	0.068	-0.046
-248.019	100.826	0.110	-0.128
-247.005	800.000	-0.054	-0.180
-245.990	-102.590	0.152	0.036
-244.976	73.893	-0.056	-0.058
-243.961	-200.000	0.017	0.140
-242.946	-159.261	-0.212	-0.012
-241.932	-163.660	0.275	0.013
-240.917	41.677	-0.171	0.155
-239.903	-200.000	-0.067	-0.528
-238.888	-6.012	-0.198	-0.135
-237.873	9.189	0.232	-0.175
-236.859	-159.019	-0.210	0.012
-235.844	-114.812	0.338	0.064
-234.830	-61.125	-0.233	-0.098
-233.815	-200.000	-0.025	-0.207
-232.800	-100.877	0.111	-0.027
-231.786	3.050	-0.258	0.187
-230.771	800.000	0.054	-0.200
-229.757	-80.789	0.097	-0.032
-228.742	-108.008	-0.210	0.045
-227.727	735.895	0.072	-0.191
-226.713	-43.197	-0.354	-0.178
-225.698	-100.206	0.274	-0.068
-224.684	-22.541	-0.173	-0.104
-223.669	800.000	-0.047	-0.175
-222.655	-200.000	-0.004	0.131
-221.640	-30.113	0.165	-0.094
-220.625	-32.082	-0.120	0.067
-219.611	-200.000	-0.023	0.387
-218.596	-111.944	0.273	0.055
-217.582	10.434	-0.227	-0.172
-216.567	-200.000	-0.002	-0.325
-215.552	-200.000	-0.038	-0.165
-214.538	-22.378	-0.190	-0.114
-213.523	105.495	-0.361	0.425
-212.509	-66.222	-0.322	-0.128
-211.494	800.000	-0.024	0.100
-210.479	-200.000	-0.032	0.285
-209.465	131.996	0.149	-0.190
-208.450	273.603	0.010	0.018
-207.436	-64.564	-0.202	0.082
-206.421	-110.883	0.132	-0.027
-205.406	47.496	-0.214	-0.199
-204.392	71.129	0.259	-0.268
-203.377	-61.299	0.225	-0.094
-202.363	163.332	-0.080	0.112
-201.348	449.702	-0.101	0.223
-200.333	-110.550	0.267	-0.055
-199.319	-120.911	0.389	0.065
-198.304	-155.650	-0.306	-0.020
-197.290	-100.869	-0.154	-0.038
-196.275	431.608	0.136	-0.294
-195.260	-200.000	-0.010	0.106
-194.246	185.138	0.056	-0.082
-193.231	688.357	0.142	0.370
-192.217	76.537	0.102	0.107
-191.202	57.975	0.141	0.138
-190.187	-200.000	0.002	0.069
-189.173	-200.000	-0.020	-0.235
-188.158	101.854	-0.105	-0.122
-187.144	-48.604	-0.132	-0.063
-186.129	32.764	-0.087	0.075
-185.114	-200.000	-0.011	0.229
-184.100	745.041	0.022	-0.058
-183.085	38.248	-0.119	-0.105
-182.071	-49.307	-0.081	0.039
-181.056	109.091	0.113	-0.134
-180.042	35.644	0.073	-0.064
-179.027	-150.762	-0.137	-0.010
-178.012	393.620	-0.155	0.321
-176.998	426.855	0.194	-0.417
-175.983	-200.000	-0.001	-0.121
-174.969	-73.695	0.177	0.064
-173.954	143.829	-0.253	0.336
-172.939	-78.704	-0.186	0.063
-171.925	146.900	-0.105	-0.140
-170.910	800.000	-0.058	-0.192
-169.896	800.000	-0.013	0.047
-168.881	181.931	0.011	0.016
-167.866	673.535	-0.112	0.289
-166.852	3.361	0.263	0.190
-165.837	-22.779	-0.150	0.090
-164.823	121.013	-0.094	0.116
-163.808	800.000	0.024	-0.086
-162.793	327.026	0.070	-0.134
-161.779	-200.000	-0.013	0.309
-160.764	590.845	-0.115	0.283
-159.750	-200.000	-0.021	0.207
-158.735	-60.074	0.254	0.108
-157.720	-76.546	-0.208	-0.073
-156.706	73.473	0.321	-0.334
-155.691	-82.613	0.077	-0.025
-154.677	-195.373	0.220	-0.002
-153.662	800.000	-0.047	-0.174
-152.647	268.050	-0.075	0.131
-151.633	128.199	0.186	-0.235
-150.618	-0.862	0.127	-0.089
-149.604	-52.201	0.070	0.032
-148.589	-200.000	0.020	-0.168
-147.574	800.000	-0.036	0.119
-146.560	-197.740	0.392	-0.002
-145.545	-99.836	-0.229	0.057
-144.531	-148.768	0.188	0.015
-143.516	-83.181	-0.267	0.085
-142.502	-56.178	0.349	0.154
-141.487	-138.602	-0.154	0.017
-140.472	-200.000	0.012	0.181
-139.458	519.948	-0.038	0.088
-138.443	252.176	-0.072	-0.122
-137.429	-127.261	-0.025	-0.004
-136.414	-107.179	-0.358	0.078
-135.399	761.129	-0.010	0.026
-134.385	501.721	-0.073	-0.168
-133.370	-200.000	0.045	-0.256
-132.356	-88.950	-0.085	0.025
-131.341	-200.000	0.028	-0.134
-130.326	-104.490	-0.209	0.048
-129.312	202.148	0.075	-0.115
-128.297	172.252	-0.150	-0.214
-127.283	11.451	0.243	0.185
-126.268	800.000	-0.061	-0.195
-125.253	-63.202	0.109	0.045
-124.239	219.697	0.096	-0.153
-123.224	95.485	-0.124	0.141
-122.210	177.083	0.169	0.244
-121.195	-139.417	0.078	0.008
-120.180	350.306	0.186	0.365
-119.166	-49.201	0.051	-0.024
-118.151	234.607	-0.052	-0.086
-117.137	-93.651	0.259	-0.071
-116.122	-152.090	-0.136	-0.010
-115.107	-172.317	0.333	0.011
-114.093	144.549	0.255	0.338
-113.078	-200.000	-0.033	-0.239
-112.064	298.851	0.150	-0.273
-111.049	-103.797	0.097	0.023
-110.034	11.808	0.093	0.071
-109.020	47.290	0.089	-0.082
-108.005	-200.000	0.003	-0.040
-106.991	31.750	0.271	-0.232
-105.976	800.000	-0.032	-0.135
-104.962	-115.821	-0.158	0.029
-103.947	68.683	0.114	0.116
-102.932	267.333	0.070	0.121
-101.918	-138.843	0.107	0.012
-100.903	-200.000	-0.002	0.255
-99.889	-200.000	0.027	0.159
-98.874	41.396	-0.072	-0.064
-97.859	28.142	-0.091	0.076
-96.845	800.000	0.071	-0.233
-95.830	-145.720	-0.386	-0.034
-94.816	256.218	0.114	-0.193
-93.801	632.127	0.101	0.255
-92.786	335.208	0.075	0.144
-91.772	187.935	-0.203	0.300
-90.757	-90.156	0.012	-0.003
-89.743	-57.436	0.348	-0.151
-88.728	490.402	0.028	0.063
-87.713	-39.627	-0.223	-0.116
-86.699	89.336	0.123	-0.135
-85.684	-6.618	0.200	-0.135
-84.670	317.619	-0.055	-0.103
-83.655	273.510	0.139	-0.243
-82.640	123.646	0.141	0.176
-81.626	800.000	0.058	0.173
-80.611	20.202	0.318	-0.254
-79.597	800.000	0.054	-0.185
-78.582	800.000	0.024	0.076
-77.567	144.938	-0.084	-0.112
-76.553	-21.549	-0.070	0.042
-75.538	-200.000	0.002	0.164
-74.524	-79.459	0.310	0.104
-73.509	552.195	-0.100	0.238
-72.494	15.729	0.007	0.005
-71.480	521.524	0.038	0.088
-70.465	40.603	0.086	0.077
-69.451	-185.407	0.185	-0.003
-68.436	-95.825	0.301	-0.079
-67.422	397.073	0.130	-0.269
-66.407	800.000	-0.112	-0.371
-65.392	800.000	-0.095	0.391
-64.378	-56.113	0.127	0.056
-63.363	-200.000	-0.001	-0.008
-62.349	800.000	-0.009	0.039
-61.334	4.788	-0.986	-0.717
-60.319	-27.984	0.469	0.269
-59.305	800.000	-0.427	-1.194
-58.290	362.931	0.568	1.129
-57.276	800.000	0.551	1.624
-56.261	-200.000	94.494	565.065
-55.246	497.528	1405.085	3201.205
-54.232	149.054	2621.645	3510.503
-53.217	100.149	2363.453	2713.030
-52.203	38.186	2122.110	1869.661
-51.188	33.250	2035.359	1747.705
-50.173	31.739	2016.763	1717.820
-49.159	46.626	2065.330	1897.592
-48.144	47.599	2083.119	1922.890
-47.130	33.989	2045.936	1763.368
-46.115	31.550	2035.891	1732.096
-45.100	31.452	2032.917	1728.585
-44.086	31.472	2030.305	1726.478
-43.071	31.484	2027.103	1723.800
-42.057	31.403	2025.296	1721.454
-41.042	31.380	2023.340	1719.512
-40.027	31.475	2021.055	1718.374
-39.013	31.529	2019.623	1717.578
-37.998	31.502	2017.639	1715.576
-36.984	31.491	2015.841	1713.880
-35.969	31.531	2013.643	1712.313
-34.954	31.572	2012.019	1711.233
-33.940	31.617	2010.342	1710.156
-32.925	31.635	2008.530	1708.706
-31.911	31.577	2007.114	1706.902
-30.896	31.575	2005.748	1705.656
-29.881	31.588	2003.940	1704.170
-28.867	31.677	2002.132	1703.374
-27.852	31.742	2000.100	1702.172
-26.838	31.645	1998.349	1699.735
-25.823	31.580	1996.774	1697.733
-24.809	31.582	1994.892	1696.082
-23.794	31.558	1992.686	1693.927
-22.779	31.663	1990.678	1693.103
-21.765	31.555	1989.322	1690.908
-20.750	31.631	1986.880	1689.448
-19.736	31.534	1986.247	1687.968
-18.721	31.667	1984.140	1687.309
-17.706	31.584	1982.919	1685.455
-16.692	31.561	1981.235	1683.754
-15.677	31.641	1978.930	1682.443
-14.663	31.644	1977.686	1681.345
-13.648	31.606	1976.540	1679.964
-12.633	31.557	1975.675	1678.718
-11.619	31.691	1974.237	1678.636
-10.604	31.674	1972.349	1676.808
-9.590	31.613	1971.125	1675.157
-8.575	31.538	1970.044	1673.504
-7.560	31.677	1968.500	1673.368
-6.546	31.621	1967.189	1671.683
-5.531	31.572	1966.261	1670.390
-4.517	31.634	1965.102	1669.896
-3.502	31.650	1963.910	1668.955
-2.487	31.658	1962.296	1667.592
-1.473	31.693	1961.299	1666.992
-0.458	31.706	1956.801	1663.214
0.556	31.090	1937.390	1640.434
1.571	27.060	1918.804	1589.377
2.586	22.671	1940.430	1568.209
3.600	20.883	1975.559	1580.254
4.615	19.798	1968.642	1564.770
5.629	15.193	1864.732	1442.495
6.644	6.392	1742.800	1276.958
7.659	1.570	1703.972	1210.096
8.673	1.113	1700.891	1204.177
9.688	1.075	1699.844	1203.026
10.702	1.083	1697.978	1201.658
11.717	0.909	1694.763	1197.906
12.731	1.324	1694.207	1200.688
13.746	7.118	1706.141	1255.081
14.761	14.371	1720.895	1323.638
15.775	17.222	1724.817	1349.208
16.790	17.443	1724.159	1350.326
17.804	16.546	1720.729	1340.417
18.819	15.572	1718.214	1330.627
19.834	14.954	1716.048	1323.940
20.848	14.665	1713.643	1319.684
21.863	14.359	1712.139	1315.993
22.877	14.182	1709.996	1312.830
23.892	13.911	1708.753	1309.621
24.907	13.797	1707.846	1307.915
25.921	13.815	1706.570	1306.966
26.936	13.722	1705.797	1305.529
27.950	13.781	1704.990	1305.253
28.965	13.869	1704.424	1305.397
29.980	13.947	1703.421	1305.128
30.994	13.944	1702.737	1304.468
32.009	13.957	1701.348	1303.390
33.023	14.025	1700.927	1303.481
34.038	14.044	1699.743	1302.607
35.053	14.015	1699.017	1301.714
36.067	13.971	1697.547	1300.124
37.082	13.907	1696.401	1298.632
38.096	13.920	1695.760	1298.128
39.111	13.932	1694.903	1297.448
40.126	14.069	1693.444	1297.287
41.140	13.946	1692.902	1295.801
42.155	13.855	1691.807	1294.137
43.169	13.835	1690.364	1292.761
44.184	13.783	1689.657	1291.698
45.199	13.822	1687.914	1290.560
46.213	13.777	1687.269	1289.605
47.228	13.784	1686.088	1288.642
48.242	13.825	1684.863	1287.907
49.257	13.906	1683.702	1287.536
50.271	13.944	1682.103	1286.490
51.286	13.909	1681.014	1285.277
52.301	13.899	1679.413	1283.858
53.315	13.892	1677.847	1282.495
54.330	13.883	1676.325	1281.149
55.344	13.828	1674.716	1279.383
56.359	13.786	1673.655	1278.130
57.374	13.816	1672.226	1277.162
58.388	13.790	1670.802	1275.760
59.403	13.833	1669.297	1274.832
60.417	13.747	1668.302	1273.295
61.432	13.728	1666.710	1271.818
62.447	13.806	1665.042	1271.033
63.461	13.695	1664.117	1269.363
64.476	13.679	1663.191	1268.423
65.490	13.702	1662.010	1267.589
66.505	13.721	1661.076	1266.906
67.520	13.763	1659.702	1266.066
68.534	13.754	1658.900	1265.273
69.549	13.809	1657.840	1264.772
70.563	13.776	1656.171	1263.142
71.578	13.708	1655.109	1261.702
72.593	13.744	1653.905	1260.946
73.607	13.680	1653.079	1259.716
74.622	13.620	1652.011	1258.333
75.636	13.684	1651.381	1258.231
76.651	13.600	1650.437	1256.762
77.666	13.672	1649.319	1256.342
78.680	13.614	1648.269	1254.994
79.695	13.703	1647.085	1254.658
80.709	13.634	1646.220	1253.367
81.724	13.749	1644.911	1253.128
82.739	13.663	1644.704	1252.205
83.753	13.763	1643.084	1251.614
84.768	13.762	1642.317	1250.917
85.782	13.868	1641.501	1250.984
86.797	13.911	1640.446	1250.392
87.812	13.901	1639.289	1249.321
88.826	13.843	1637.920	1247.735
89.841	13.739	1637.136	1246.242
90.855	13.878	1636.164	1246.438
91.870	13.790	1635.399	1245.086
92.884	13.863	1634.070	1244.511
93.899	13.856	1632.660	1243.270
94.914	13.959	1631.299	1242.897
95.928	13.868	1630.676	1241.629
96.943	13.948	1629.094	1240.914
97.957	13.984	1626.828	1239.348
98.972	13.897	1626.035	1237.985
99.987	13.900	1624.499	1236.732
101.001	13.852	1623.001	1235.120
102.016	13.846	1621.304	1233.676
103.030	13.823	1620.209	1232.561
104.045	13.896	1618.523	1231.715
105.060	13.892	1617.374	1230.703
106.074	13.841	1615.876	1229.071
107.089	13.751	1614.989	1227.625
108.103	13.845	1613.032	1226.725
109.118	13.760	1611.662	1224.942
110.133	13.875	1609.774	1224.253
111.147	13.756	1608.898	1222.597
112.162	13.765	1607.140	1221.217
113.176	13.745	1606.311	1220.333
114.191	13.784	1604.524	1219.153
115.206	13.789	1603.445	1218.268
116.220	13.817	1602.461	1217.619
117.235	13.780	1601.006	1216.129
118.249	13.878	1599.308	1215.451
119.264	13.831	1598.431	1214.331
120.279	13.829	1596.937	1213.078
121.293	13.741	1595.583	1211.300
122.308	13.806	1593.765	1210.284
123.322	13.808	1592.296	1209.074
124.337	13.770	1591.036	1207.733
125.352	13.751	1590.054	1206.745
126.366	13.854	1588.472	1206.189
127.381	13.838	1587.233	1205.023
128.395	13.783	1586.286	1203.800
129.410	13.828	1585.081	1203.101
130.424	13.856	1583.250	1201.812
131.439	13.872	1582.265	1201.072
132.454	13.906	1580.326	1199.737
133.468	13.901	1578.914	1198.528
134.483	13.930	1577.734	1197.733
135.497	13.905	1576.180	1196.264
136.512	13.922	1574.925	1195.329
137.527	13.915	1573.698	1194.246
138.541	13.901	1572.511	1193.137
139.556	13.959	1570.762	1192.118
140.570	13.969	1569.152	1190.868
141.585	13.939	1567.739	1189.473
142.600	14.002	1566.759	1189.071
143.614	14.067	1565.186	1188.236
144.629	14.068	1564.254	1187.438
145.643	14.042	1562.720	1185.978
146.658	14.072	1561.665	1185.285
147.673	14.100	1559.338	1183.618
148.687	13.953	1558.556	1181.874
149.702	14.010	1557.285	1181.207
150.716	14.143	1555.108	1180.393
151.731	13.994	1554.019	1178.408
152.746	14.039	1552.218	1177.256
153.760	14.103	1550.679	1176.439
154.775	13.984	1549.892	1174.894
155.789	14.107	1548.410	1174.536
156.804	14.124	1547.013	1173.491
157.819	14.136	1545.784	1172.543
158.833	14.173	1544.919	1172.043
159.848	14.291	1543.239	1171.497
160.862	14.218	1542.742	1170.499
161.877	14.234	1541.432	1169.520
162.892	14.164	1539.918	1167.771
163.906	14.138	1538.896	1166.716
164.921	14.188	1537.290	1165.739
165.935	14.203	1536.851	1165.410
166.950	14.200	1535.869	1164.538
167.964	14.130	1534.605	1162.993
168.979	14.177	1533.270	1162.207
169.994	14.215	1532.286	1161.621
171.008	14.163	1531.088	1160.245
172.023	14.210	1529.811	1159.502
173.037	14.180	1528.962	1158.550
174.052	14.298	1527.579	1158.219
175.067	14.333	1526.459	1157.511
176.081	14.354	1525.024	1156.466
177.096	14.237	1524.148	1154.890
178.110	14.218	1522.902	1153.711
179.125	14.261	1521.349	1152.731
180.140	14.267	1520.080	1151.704
181.154	14.372	1519.021	1151.533
182.169	14.318	1518.089	1150.347
183.183	14.306	1516.497	1148.958
184.198	14.473	1515.016	1148.881
185.213	14.390	1514.455	1147.785
186.227	14.423	1513.191	1146.953
187.242	14.439	1512.077	1146.117
188.256	14.493	1510.866	1145.471
189.271	14.465	1510.375	1144.805
190.286	14.500	1509.157	1144.019
191.300	14.502	1507.948	1143.014
192.315	14.347	1506.577	1140.816
193.329	14.381	1505.381	1140.040
194.344	14.319	1503.802	1138.321
195.359	14.455	1503.031	1138.562
196.373	14.416	1502.246	1137.599
197.388	14.370	1501.260	1136.441
198.402	14.505	1500.151	1136.418
199.417	14.511	1498.955	1135.453
200.432	14.522	1498.065	1134.753
201.446	14.652	1496.732	1134.529
202.461	14.637	1495.489	1133.382
203.475	14.674	1494.279	1132.619
204.490	14.673	1493.667	1132.045
205.504	14.717	1492.601	1131.440
206.519	14.684	1491.343	1130.164
207.534	14.718	1489.888	1129.189
208.548	14.694	1488.778	1128.086
209.563	14.721	1487.618	1127.288
210.577	14.667	1486.595	1126.046
211.592	14.774	1485.754	1126.036
212.607	14.820	1484.764	1125.495
213.621	14.786	1484.348	1124.847
214.636	14.835	1483.401	1124.359
215.650	14.747	1482.514	1123.000
216.665	14.882	1481.256	1122.853
217.680	14.865	1480.664	1122.192
218.694	14.817	1480.328	1121.514
219.709	14.882	1478.921	1120.782
220.723	14.941	1477.797	1120.229
221.738	14.913	1476.915	1119.273
222.753	14.899	1476.101	1118.467
223.767	15.030	1474.804	1118.261
224.782	14.911	1474.013	1116.761
225.796	14.949	1473.076	1116.208
226.811	14.957	1472.415	1115.666
227.826	15.092	1471.375	1115.673
228.840	15.021	1470.459	1114.412
229.855	15.024	1469.638	1113.711
230.869	15.000	1468.788	1112.804
231.884	14.972	1467.798	1111.774
232.899	15.024	1466.378	1110.946
233.913	15.033	1465.077	1109.920
234.928	15.028	1464.301	1109.202
235.942	14.958	1462.992	1107.646
236.957	15.029	1461.989	1107.259
237.972	15.032	1460.484	1106.043
238.986	15.067	1459.241	1105.235
240.001	15.113	1458.285	1104.716
241.015	14.967	1457.603	1103.136
242.030	15.178	1455.999	1103.214
243.045	15.129	1455.164	1102.165
244.059	15.230	1454.267	1102.047
245.074	15.232	1453.668	1101.511
246.088	15.179	1452.778	1100.394
247.103	15.244	1451.673	1099.885
248.117	15.167	1451.045	1098.808
249.132	15.315	1450.061	1098.933
250.147	15.275	1449.655	1098.266
251.161	15.382	1448.723	1098.161
252.176	15.366	1447.842	1097.291
253.190	15.436	1447.057	1097.058
254.205	15.328	1446.287	1095.674
255.220	15.390	1445.599	1095.460
256.234	15.551	1444.581	1095.640
257.249	15.577	1443.522	1094.914
258.263	15.572	1443.018	1094.401
259.278	15.610	1441.799	1093.624
260.293	15.588	1440.741	1092.584
261.307	15.678	1439.976	1092.488
262.322	15.602	1439.595	1091.611
263.336	15.528	1439.101	1090.657
264.351	15.693	1437.323	1090.285
265.366	15.678	1436.349	1089.354
266.380	15.703	1435.629	1088.874
267.395	15.707	1434.697	1088.096
268.409	15.698	1433.777	1087.241
269.424	15.705	1432.749	1086.410
270.439	15.684	1431.996	1085.610
271.453	15.758	1430.646	1084.970
272.468	15.706	1429.774	1083.874
273.482	15.683	1429.083	1083.111
274.497	15.772	1428.221	1082.934
275.512	15.777	1427.364	1082.221
276.526	15.759	1427.095	1081.804
277.541	15.740	1425.552	1080.415
278.555	15.787	1424.271	1079.651
279.570	15.836	1424.052	1079.702
280.585	15.832	1422.528	1078.427
281.599	15.882	1421.603	1077.951
282.614	15.815	1421.214	1077.131
283.628	15.907	1419.682	1076.461
284.643	15.907	1418.538	1075.503
285.657	15.976	1417.053	1074.717
286.672	15.965	1416.977	1074.494
287.687	15.948	1415.767	1073.378
288.701	15.950	1414.822	1072.574
289.716	15.949	1414.255	1072.042
290.730	16.027	1413.584	1071.938
291.745	16.038	1411.866	1070.607
292.760	15.998	1411.032	1069.629
293.774	15.995	1409.994	1068.730
294.789	16.015	1409.125	1068.099
295.803	16.059	1408.063	1067.481
296.818	16.092	1407.268	1066.993
297.833	16.064	1406.470	1066.116
298.847	16.173	1405.314	1065.832
299.862	16.150	1404.514	1064.985
300.876	16.135	1403.655	1064.149
301.891	16.132	1402.630	1063.261
302.906	16.150	1402.144	1062.910
303.920	16.155	1401.290	1062.196
304.935	16.189	1400.613	1061.807
305.949	16.122	1399.802	1060.674
306.964	16.241	1399.241	1060.906
307.979	16.230	1397.657	1059.540
308.993	16.258	1397.141	1059.230
310.008	16.214	1396.041	1058.027
311.022	16.324	1394.946	1057.792
312.037	16.376	1393.467	1056.904
313.052	16.331	1393.100	1056.252
314.066	16.390	1391.784	1055.530
315.081	16.336	1390.709	1054.281
316.095	16.290	1389.709	1053.145
317.110	16.302	1388.945	1052.545
318.125	16.376	1387.815	1052.059
319.139	16.343	1387.101	1051.219
320.154	16.336	1386.063	1050.298
321.168	16.371	1384.842	1049.492
322.183	16.382	1384.034	1048.858
323.197	16.384	1382.860	1047.887
324.212	16.329	1382.482	1047.166
325.227	16.423	1381.341	1046.791
326.241	16.525	1380.268	1046.517
327.256	16.465	1379.464	1045.445
328.270	16.419	1378.816	1044.574
329.285	16.486	1377.763	1044.100
330.300	16.425	1376.971	1043.031
331.314	16.452	1376.039	1042.400
332.329	16.599	1374.748	1042.237
333.343	16.467	1373.993	1040.759
334.358	16.574	1373.126	1040.665
335.373	16.586	1372.327	1040.046
336.387	16.589	1371.645	1039.455
337.402	16.628	1370.747	1038.923
338.416	16.585	1370.670	1038.506
339.431	16.684	1369.738	1038.312
340.446	16.705	1369.029	1037.812
341.460	16.690	1367.564	1036.520
342.475	16.781	1366.928	1036.506
343.489	16.749	1365.779	1035.343
344.504	16.836	1364.737	1034.992
345.519	16.914	1363.719	1034.608
346.533	16.852	1362.886	1033.508
347.548	16.763	1362.330	1032.452
348.562	16.861	1361.350	1032.214
349.577	16.894	1360.287	1031.515
350.592	16.923	1359.444	1030.963
351.606	16.941	1359.072	1030.700
352.621	16.816	1357.715	1028.817
353.635	16.919	1356.580	1028.493
354.650	16.788	1356.290	1027.385
355.665	16.899	1354.770	1026.820
356.679	16.868	1353.755	1025.767
357.694	16.888	1352.660	1024.967
358.708	16.978	1351.436	1024.492
359.723	16.951	1350.521	1023.551
360.738	16.991	1349.365	1022.824
361.752	16.982	1348.372	1021.923
362.767	17.068	1347.344	1021.575
363.781	16.961	1346.358	1020.090
364.796	17.072	1345.665	1020.142
365.810	16.990	1345.328	1019.306
366.825	17.090	1344.445	1019.144
367.840	17.137	1343.600	1018.695
368.854	17.169	1342.660	1018.088
369.869	17.306	1342.087	1018.382
370.883	17.253	1341.481	1017.512
371.898	17.283	1340.351	1016.748
372.913	17.122	1340.235	1015.604
373.927	17.208	1338.984	1015.084
374.942	17.298	1338.173	1014.916
375.956	17.330	1337.378	1014.413
376.971	17.286	1336.748	1013.586
377.986	17.246	1335.886	1012.602
379.000	17.288	1334.347	1011.597
380.015	17.404	1333.805	1011.785
381.029	17.434	1333.006	1011.266
382.044	17.344	1332.887	1010.554
383.059	17.465	1331.839	1010.386
384.073	17.396	1330.945	1009.212
385.088	17.374	1330.901	1008.957
386.102	17.293	1330.331	1007.956
387.117	17.379	1328.848	1007.253
388.132	17.370	1328.570	1006.897
389.146	17.465	1327.309	1006.418
390.161	17.519	1326.584	1006.097
391.175	17.491	1325.633	1005.119
392.190	17.459	1325.042	1004.397
393.205	17.500	1324.440	1004.090
394.219	17.512	1323.664	1003.488
395.234	17.645	1321.600	1002.617
396.248	17.571	1320.497	1001.255
397.263	17.612	1319.397	1000.570
398.278	17.603	1317.830	999.242
399.292	17.667	1316.557	998.563
400.307	17.678	1315.845	998.002
401.321	17.576	1314.787	996.512
402.336	17.606	1313.537	995.652
403.350	17.558	1312.677	994.634
404.365	17.638	1311.943	994.456
405.380	17.625	1311.075	993.633
406.394	17.671	1310.421	993.316
407.409	17.740	1309.372	992.835
408.423	17.658	1308.777	991.817
409.438	17.749	1307.945	991.630
410.453	17.799	1307.201	991.267
411.467	17.816	1306.542	990.783
412.482	17.906	1305.462	990.394
413.496	17.841	1305.102	989.659
414.511	17.980	1304.244	989.728
415.526	17.917	1303.745	988.895
416.540	18.049	1302.826	988.875
417.555	17.955	1302.243	987.802
418.569	17.990	1301.735	987.531
419.584	18.070	1301.012	987.353
420.599	17.968	1300.267	986.115
421.613	94.343	1353.257	1462.463
422.628	92.855	1360.939	1462.579
