DTS Sentinel unit serial number:	SN413079Multiplexer serial number:	ORYXHardware model number:	OX4-SRSoftware version number:	ORYX F/W v4.00 Oryx Data Collector v3.7.2.0data status	okinstallation	princeton_trtdifferential loss correction	single-endedforward channel	channel 4reverse channel	N/Adate	2019/09/13time	23:01:35forward acquisition time	60.00reverse acquisition time	0.00gamma	496.2192k internal	0.2322k external	0.2322temperature offset calibration	1.0138default loss term (dB/km)	0.3790temperature slope calibration	1.0000multiplexer offset coefficient	1.0000multiplexer slope coefficient	1.0000fibre end	0.00T internal ref (°C)	27.31T ext. ref 1 (°C)	3.21T ext. ref 2 (°C)	21.30length (m)	temperature (°C)	Stokes	anti-Stokes-747.200	-200.000	-0.003	0.333
-746.185	-200.000	-0.025	0.275
-745.171	-105.892	-0.172	-0.039
-744.156	57.835	-0.292	0.289
-743.142	-97.887	0.114	0.030
-742.127	644.403	0.087	0.226
-741.112	800.000	-0.054	-0.204
-740.098	85.343	-0.284	0.315
-739.083	125.538	0.142	0.181
-738.069	-73.010	-0.102	-0.038
-737.054	241.453	-0.065	0.110
-736.039	-63.803	-0.459	0.190
-735.025	-27.088	-0.298	-0.176
-734.010	800.000	0.071	-0.209
-732.996	43.343	-0.024	0.022
-731.981	-164.001	0.134	-0.006
-730.966	-200.000	0.005	-0.104
-729.952	57.160	-0.053	0.052
-728.937	-144.427	-0.254	-0.024
-727.923	-135.234	0.112	-0.014
-726.908	394.136	0.099	0.208
-725.894	355.682	0.092	-0.184
-724.879	-127.069	-0.252	-0.037
-723.864	252.394	0.041	0.071
-722.850	-52.976	-0.237	0.110
-721.835	-116.831	-0.135	-0.025
-720.821	-28.030	-0.096	0.056
-719.806	-115.053	0.235	0.045
-718.791	142.573	-0.089	0.120
-717.777	-108.548	0.328	-0.071
-716.762	-200.000	0.023	0.113
-715.748	229.156	-0.136	0.223
-714.733	-139.326	0.188	0.020
-713.718	56.999	0.070	0.069
-712.704	41.586	-0.218	0.199
-711.689	800.000	0.141	0.552
-710.675	-47.434	-0.258	-0.127
-709.660	50.715	-0.031	0.029
-708.645	-200.000	-0.005	0.182
-707.631	-200.000	0.048	-0.391
-706.616	-200.000	0.031	-0.175
-705.602	-117.651	-0.232	-0.042
-704.587	204.139	0.168	0.263
-703.572	800.000	-0.079	0.264
-702.558	355.573	-0.099	-0.199
-701.543	-72.152	-0.321	-0.120
-700.529	-185.663	0.134	-0.002
-699.514	800.000	-0.055	-0.179
-698.499	-200.000	0.029	0.143
-697.485	217.008	0.176	0.283
-696.470	-48.765	0.157	0.076
-695.456	-126.625	0.350	-0.052
-694.441	204.213	-0.188	-0.294
-693.426	800.000	0.061	0.266
-692.412	800.000	0.101	0.325
-691.397	-1.582	-0.253	0.180
-690.383	222.364	-0.072	-0.117
-689.368	-8.343	-0.183	0.124
-688.354	-200.000	-0.014	0.190
-687.339	-200.000	-0.051	-0.247
-686.324	-49.996	-0.325	-0.155
-685.310	159.145	0.071	0.099
-684.295	-200.000	-0.019	0.231
-683.281	-97.323	0.288	-0.076
-682.266	-200.000	0.004	-0.124
-681.251	361.263	0.103	-0.208
-680.237	183.489	0.175	-0.261
-679.222	95.825	-0.054	-0.062
-678.208	249.496	-0.091	0.155
-677.193	-122.476	0.148	0.024
-676.178	-68.172	-0.428	-0.168
-675.164	-200.000	0.004	-0.156
-674.149	-101.805	0.330	-0.080
-673.135	800.000	-0.116	-0.391
-672.120	800.000	0.073	-0.207
-671.105	309.391	0.118	0.223
-670.091	800.000	-0.059	0.180
-669.076	-200.000	-0.009	0.118
-668.062	-178.231	0.168	-0.004
-667.047	4.164	0.108	0.080
-666.032	-152.363	-0.140	-0.010
-665.018	-25.580	-0.096	-0.057
-664.003	-98.778	-0.326	-0.084
-662.989	-92.430	-0.054	0.015
-661.974	-200.000	-0.046	-0.544
-660.959	-200.000	-0.013	0.229
-659.945	-200.000	-0.057	-0.434
-658.930	112.150	-0.101	0.123
-657.916	-200.000	-0.072	0.365
-656.901	247.061	-0.159	0.270
-655.886	9.379	-0.148	0.113
-654.872	-200.000	-0.005	-0.150
-653.857	-200.000	-0.034	-0.169
-652.843	367.194	0.086	-0.176
-651.828	45.147	-0.124	-0.115
-650.814	-200.000	-0.005	0.048
-649.799	422.250	-0.075	-0.161
-648.784	62.013	-0.153	-0.153
-647.770	-116.797	-0.233	-0.043
-646.755	-200.000	-0.014	-0.087
-645.741	-200.000	-0.014	-0.210
-644.726	59.144	-0.196	-0.194
-643.711	-200.000	-0.003	0.032
-642.697	-62.970	-0.261	0.109
-641.682	-200.000	0.058	0.371
-640.668	-200.000	-0.034	-0.163
-639.653	800.000	-0.047	-0.183
-638.638	-100.988	-0.119	0.029
-637.624	172.482	-0.165	0.239
-636.609	-67.538	0.133	-0.053
-635.595	-98.463	-0.156	-0.040
-634.580	-102.069	-0.274	-0.066
-633.565	118.358	0.240	0.298
-632.551	800.000	0.019	0.068
-631.536	-200.000	0.054	-0.269
-630.522	123.306	-0.011	0.013
-629.507	-45.622	-0.147	0.073
-628.492	95.065	-0.053	-0.060
-627.478	18.955	-0.211	0.170
-626.463	-65.111	0.139	0.057
-625.449	-26.653	-0.035	0.020
-624.434	-200.000	0.036	0.180
-623.419	-56.565	-0.183	-0.082
-622.405	-159.253	-0.161	0.009
-621.390	-110.232	-0.063	0.013
-620.376	181.818	0.071	-0.105
-619.361	36.888	-0.196	0.174
-618.346	67.099	0.079	0.081
-617.332	-35.454	-0.169	0.093
-616.317	-81.339	-0.249	-0.082
-615.303	335.218	-0.262	-0.512
-614.288	-31.804	0.157	-0.088
-613.273	653.019	0.060	-0.154
-612.259	-200.000	-0.001	-0.301
-611.244	200.778	0.097	-0.150
-610.230	-36.478	-0.085	0.046
-609.215	53.503	0.219	0.211
-608.201	800.000	0.127	-0.368
-607.186	-200.000	0.019	0.210
-606.171	800.000	-0.027	-0.092
-605.157	92.928	-0.177	-0.201
-604.142	479.062	-0.117	-0.266
-603.128	-47.014	-0.248	-0.122
-602.113	181.139	-0.072	-0.106
-601.098	-147.689	-0.091	-0.008
-600.084	-200.000	0.018	-0.149
-599.069	-65.007	0.300	0.122
-598.055	-7.330	0.306	0.208
-597.040	111.875	0.299	-0.363
-596.025	-16.093	-0.242	-0.155
-595.011	-131.406	0.284	0.038
-593.996	-70.147	0.222	0.085
-592.982	-77.495	-0.349	0.122
-591.967	-102.357	0.179	0.043
-590.952	-154.733	-0.376	0.025
-589.938	800.000	-0.040	0.153
-588.923	-200.000	0.018	-0.183
-587.909	-142.619	0.400	0.039
-586.894	300.926	0.032	0.059
-585.879	-44.904	0.346	-0.173
-584.865	-35.645	0.138	-0.075
-583.850	-13.889	0.106	-0.069
-582.836	-191.324	0.105	0.001
-581.821	391.618	0.125	0.260
-580.806	-200.000	0.024	0.338
-579.792	50.559	0.309	0.294
-578.777	135.045	-0.020	-0.027
-577.763	-93.390	0.142	-0.040
-576.748	3.424	-0.162	-0.118
-575.733	-39.873	-0.255	-0.134
-574.719	129.290	0.181	-0.232
-573.704	634.159	-0.052	0.133
-572.690	-44.908	0.268	-0.134
-571.675	576.961	0.082	0.202
-570.661	-200.000	0.020	-0.089
-569.646	-111.910	-0.316	0.064
-568.631	786.921	0.043	-0.117
-567.617	48.417	-0.084	-0.079
-566.602	-105.257	-0.229	-0.052
-565.588	-200.000	-0.042	-0.202
-564.573	-154.592	-0.031	-0.002
-563.558	83.498	-0.107	0.117
-562.544	25.249	-0.120	-0.100
-561.529	-93.272	-0.167	-0.047
-560.515	-10.229	-0.182	0.121
-559.500	-99.309	-0.061	-0.015
-558.485	-200.000	-0.016	-0.226
-557.471	-8.904	-0.226	-0.152
-556.456	196.762	0.139	-0.212
-555.442	-200.000	-0.008	-0.035
-554.427	44.262	0.074	0.069
-553.412	-200.000	-0.025	0.191
-552.398	-58.094	-0.253	-0.111
-551.383	5.994	-0.043	0.032
-550.369	83.766	0.155	-0.170
-549.354	-145.696	-0.299	-0.027
-548.339	-64.914	-0.132	-0.053
-547.325	-200.000	-0.002	0.216
-546.310	-200.000	-0.020	-0.184
-545.296	-82.184	0.429	-0.140
-544.281	177.600	-0.036	-0.053
-543.266	800.000	0.071	0.202
-542.252	-200.000	0.036	0.312
-541.237	-24.233	-0.123	-0.074
-540.223	800.000	-0.051	-0.168
-539.208	-71.555	-0.211	-0.079
-538.193	-120.782	-0.127	-0.021
-537.179	-200.000	-0.049	-0.443
-536.164	-49.301	0.064	-0.031
-535.150	-99.356	0.079	-0.020
-534.135	5.521	0.204	0.151
-533.121	800.000	-0.031	-0.107
-532.106	-165.362	0.028	0.001
-531.091	-200.000	-0.008	-0.123
-530.077	-36.562	-0.100	-0.054
-529.062	-148.474	0.107	-0.009
-528.048	257.300	-0.069	-0.119
-527.033	-162.490	0.268	-0.013
-526.018	467.149	-0.125	0.280
-525.004	-200.000	0.051	0.246
-523.989	-143.202	-0.107	-0.010
-522.975	800.000	0.022	0.077
-521.960	800.000	-0.039	0.134
-520.945	-109.628	-0.167	-0.035
-519.931	-144.700	0.194	-0.018
-518.916	-147.053	0.314	-0.027
-517.902	339.817	0.119	-0.233
-516.887	800.000	0.073	-0.274
-515.872	199.519	-0.116	-0.178
-514.858	130.240	0.061	0.078
-513.843	-166.382	-0.188	0.008
-512.829	-200.000	0.008	-0.241
-511.814	207.568	-0.048	-0.076
-510.799	-50.104	0.335	-0.159
-509.785	286.217	-0.115	-0.208
-508.770	224.434	-0.206	-0.333
-507.756	-200.000	0.028	0.371
-506.741	-200.000	-0.179	-0.001
-505.726	-200.000	-0.014	-0.123
-504.712	-200.000	-0.054	0.357
-503.697	537.264	-0.100	-0.237
-502.683	24.593	0.284	-0.235
-501.668	-33.869	0.175	-0.097
-500.653	-135.132	-0.241	-0.029
-499.639	-83.181	-0.358	-0.115
-498.624	16.524	-0.108	-0.085
-497.610	-4.077	-0.119	-0.083
-496.595	-74.541	0.472	-0.170
-495.581	-162.726	0.094	0.005
-494.566	800.000	0.076	-0.222
-493.551	800.000	0.048	0.140
-492.537	-86.293	0.376	0.116
-491.522	437.540	-0.017	-0.038
-490.508	-167.217	-0.053	-0.002
-489.493	399.566	-0.138	0.289
-488.478	52.220	-0.084	-0.081
-487.464	-47.817	0.283	0.137
-486.449	-200.000	-0.003	-0.155
-485.435	-153.979	0.190	0.013
-484.420	67.258	-0.130	-0.133
-483.405	-133.240	-0.132	-0.017
-482.391	800.000	0.075	0.220
-481.376	134.058	-0.199	-0.258
-480.362	-102.268	-0.335	-0.081
-479.347	-68.733	0.247	-0.096
-478.332	-200.000	0.020	-0.296
-477.318	-200.000	-0.060	0.324
-476.303	164.283	0.149	-0.210
-475.289	275.403	0.296	-0.525
-474.274	-200.000	-0.020	0.297
-473.259	-89.635	-0.283	-0.083
-472.245	-104.577	-0.361	0.083
-471.230	85.840	0.124	0.136
-470.216	-47.947	0.096	0.047
-469.201	73.470	0.319	0.333
-468.186	-47.745	-0.283	0.137
-467.172	62.596	-0.092	0.092
-466.157	-200.000	0.073	0.333
-465.143	51.016	-0.362	-0.343
-464.128	-57.179	0.336	0.148
-463.113	5.236	-0.171	0.126
-462.099	-104.996	-0.190	-0.044
-461.084	-126.205	0.102	-0.015
-460.070	335.304	0.113	-0.219
-459.055	449.696	-0.052	-0.116
-458.040	-38.486	-0.207	0.109
-457.026	-59.158	-0.283	-0.122
-456.011	118.541	0.134	-0.165
-454.997	437.655	0.067	0.147
-453.982	42.374	0.179	0.163
-452.968	703.364	-0.052	-0.138
-451.953	800.000	-0.026	0.100
-450.938	-34.167	-0.127	0.070
-449.924	50.050	-0.301	0.284
-448.909	183.204	-0.084	-0.124
-447.895	-200.000	0.033	-0.330
-446.880	-32.999	0.507	0.281
-445.865	87.157	-0.119	0.132
-444.851	-62.483	-0.437	-0.182
-443.836	-200.000	-0.060	0.273
-442.822	800.000	0.107	0.374
-441.807	800.000	0.050	0.173
-440.792	161.925	0.167	0.234
-439.778	-130.893	-0.225	0.030
-438.763	189.294	-0.036	-0.055
-437.749	-200.000	-0.007	0.097
-436.734	-200.000	-0.008	0.085
-435.719	7.719	-0.172	0.128
-434.705	-74.801	0.109	0.039
-433.690	133.379	-0.247	0.318
-432.676	-69.876	-0.317	0.121
-431.661	-143.841	-0.293	-0.028
-430.646	139.428	0.083	0.109
-429.632	-157.930	0.318	0.019
-428.617	495.960	-0.102	-0.235
-427.603	180.867	0.184	0.270
-426.588	-112.488	-0.026	0.005
-425.573	800.000	0.038	-0.133
-424.559	-200.000	-0.023	0.297
-423.544	-84.319	-0.111	-0.035
-422.530	-81.635	0.130	-0.043
-421.515	361.406	0.067	0.134
-420.500	697.876	0.008	0.020
-419.486	-200.000	0.062	0.289
-418.471	-133.125	-0.234	0.030
-417.457	-109.766	-0.234	-0.049
-416.442	-144.367	0.240	0.022
-415.428	18.468	-0.082	-0.065
-414.413	590.493	-0.059	-0.146
-413.398	-4.843	-0.130	0.089
-412.384	126.787	-0.121	-0.153
-411.369	-200.000	0.009	0.281
-410.355	800.000	0.155	0.467
-409.340	-62.426	-0.303	-0.126
-408.325	-72.813	0.148	-0.054
-407.311	800.000	-0.064	-0.248
-406.296	96.536	0.092	0.105
-405.282	-43.396	0.237	-0.119
-404.267	-62.519	-0.040	-0.017
-403.252	208.149	0.155	0.241
-402.238	21.988	-0.273	0.222
-401.223	-200.000	-0.048	0.248
-400.209	-34.504	0.131	0.071
-399.194	-94.204	0.061	-0.017
-398.179	-79.531	0.066	0.022
-397.165	-10.043	-0.298	-0.197
-396.150	-123.812	0.216	-0.034
-395.136	-200.000	0.006	0.072
-394.121	-100.641	0.122	-0.030
-393.106	-98.521	0.178	0.045
-392.092	-116.172	0.108	-0.020
-391.077	-9.099	0.328	0.219
-390.063	121.577	0.209	0.259
-389.048	-200.000	-0.016	0.219
-388.033	170.175	0.182	-0.260
-387.019	-88.455	-0.176	-0.052
-386.004	-77.657	0.169	0.058
-384.990	-109.259	0.227	0.048
-383.975	-114.716	-0.115	-0.022
-382.960	78.586	-0.168	0.179
-381.946	-200.000	0.092	0.507
-380.931	-152.348	0.197	-0.014
-379.917	179.329	-0.072	-0.105
-378.902	-27.305	-0.006	-0.003
-377.888	800.000	0.074	0.212
-376.873	-104.437	-0.320	-0.074
-375.858	-34.336	0.435	0.238
-374.844	489.357	-0.021	-0.048
-373.829	100.490	0.213	-0.246
-372.815	-200.000	-0.018	0.257
-371.800	-200.000	0.001	-0.071
-370.785	-82.411	-0.158	0.051
-369.771	-200.000	-0.033	0.172
-368.756	-200.000	0.033	0.320
-367.742	-131.360	0.191	-0.025
-366.727	-167.656	-0.216	0.009
-365.712	646.587	0.071	0.180
-364.698	132.449	0.176	-0.226
-363.683	-93.662	0.271	0.075
-362.669	749.821	-0.072	-0.192
-361.654	-78.269	0.223	0.076
-360.639	800.000	-0.005	0.018
-359.625	800.000	-0.054	-0.185
-358.610	-200.000	0.040	0.254
-357.596	800.000	-0.106	-0.411
-356.581	-22.111	-0.080	-0.048
-355.566	163.764	-0.006	-0.008
-354.552	133.685	0.214	0.275
-353.537	-75.794	-0.295	-0.104
-352.523	-52.011	0.073	0.034
-351.508	111.490	-0.296	-0.355
-350.493	183.564	0.129	0.190
-349.479	73.028	-0.194	-0.201
-348.464	163.099	0.109	-0.152
-347.450	-200.000	0.006	-0.051
-346.435	-10.201	0.063	-0.042
-345.420	117.640	-0.106	0.130
-344.406	-17.748	0.218	0.136
-343.391	-75.463	-0.064	0.023
-342.377	-125.831	0.190	0.029
-341.362	800.000	-0.050	-0.163
-340.348	-200.000	0.030	0.303
-339.333	-126.515	-0.261	-0.039
-338.318	800.000	0.079	-0.241
-337.304	800.000	0.055	0.208
-336.289	620.719	0.060	0.150
-335.275	-129.477	0.346	0.048
-334.260	-200.000	-0.008	0.065
-333.245	-143.130	0.153	-0.015
-332.231	-78.669	0.119	-0.040
-331.216	-200.000	-0.046	0.453
-330.202	-101.092	-0.171	0.042
-329.187	118.078	-0.125	-0.153
-328.172	-112.796	0.030	-0.006
-327.158	-80.201	0.045	0.015
-326.143	-200.000	0.008	0.071
-325.129	800.000	0.100	-0.366
-324.114	56.293	-0.105	-0.102
-323.099	800.000	-0.054	-0.154
-322.085	20.433	0.205	-0.165
-321.070	57.388	-0.266	-0.259
-320.056	139.529	0.074	-0.097
-319.041	-163.478	-0.062	-0.003
-318.026	10.141	0.043	0.033
-317.012	-200.000	0.005	-0.343
-315.997	800.000	-0.053	-0.210
-314.983	9.244	0.271	-0.204
-313.968	-47.612	-0.179	0.086
-312.953	137.377	-0.086	-0.111
-311.939	268.337	-0.123	0.214
-310.924	13.214	0.040	0.031
-309.910	-200.000	-0.027	-0.140
-308.895	0.479	0.089	-0.063
-307.880	-126.521	0.342	-0.050
-306.866	-119.132	0.376	-0.065
-305.851	-102.320	0.277	0.066
-304.837	800.000	-0.059	0.164
-303.822	82.748	0.129	-0.140
-302.807	-121.372	-0.237	-0.039
-301.793	-200.000	-0.000	-0.040
-300.778	-150.620	0.075	0.006
-299.764	-94.251	-0.146	0.040
-298.749	83.759	-0.128	-0.139
-297.735	-50.173	-0.256	0.120
-296.720	800.000	-0.073	0.235
-295.705	248.311	-0.051	0.086
-294.691	-6.259	-0.146	-0.099
-293.676	-55.077	0.179	-0.080
-292.662	-130.669	-0.371	-0.050
-291.647	332.038	-0.102	-0.196
-290.632	289.737	0.164	0.295
-289.618	-30.644	0.267	0.150
-288.603	-162.641	-0.498	-0.024
-287.589	193.977	-0.103	0.154
-286.574	-90.604	-0.067	0.019
-285.559	800.000	0.088	-0.275
-284.545	-200.000	-0.003	-0.083
-283.530	68.861	0.173	-0.176
-282.516	-24.620	-0.377	0.223
-281.501	701.188	0.082	-0.214
-280.486	-200.000	0.006	0.329
-279.472	35.362	-0.116	-0.101
-278.457	-54.896	-0.169	0.075
-277.443	76.907	0.206	-0.217
-276.428	800.000	0.044	-0.125
-275.413	99.063	-0.093	-0.107
-274.399	-37.397	0.190	0.101
-273.384	-114.010	0.199	-0.038
-272.370	120.118	-0.016	0.019
-271.355	-135.200	-0.232	-0.028
-270.340	44.224	0.142	-0.130
-269.326	11.939	0.309	-0.236
-268.311	-152.248	0.151	0.011
-267.297	-134.615	-0.176	-0.021
-266.282	126.622	0.174	0.219
-265.267	-48.706	-0.074	0.035
-264.253	-57.473	-0.183	0.079
-263.238	-200.000	-0.026	0.251
-262.224	-92.687	-0.140	0.039
-261.209	-200.000	0.007	0.091
-260.195	16.210	0.126	0.098
-259.180	-35.352	0.248	-0.134
-258.165	777.699	-0.128	-0.346
-257.151	-200.000	0.002	0.015
-256.136	-110.129	0.011	-0.002
-255.122	45.806	-0.278	-0.255
-254.107	204.366	0.126	0.193
-253.092	343.872	-0.139	0.270
-252.078	-200.000	0.039	-0.399
-251.063	-136.620	0.206	-0.024
-250.049	22.494	0.151	-0.122
-249.034	-47.806	-0.167	0.080
-248.019	-167.304	-0.186	0.007
-247.005	-43.844	0.195	-0.097
-245.990	-105.670	-0.079	-0.018
-244.976	61.175	0.054	-0.053
-243.961	-200.000	0.001	-0.012
-242.946	800.000	0.070	0.273
-241.932	117.195	0.193	0.235
-240.917	186.049	-0.193	0.284
-239.903	-24.272	0.229	0.135
-238.888	159.076	0.151	-0.207
-237.873	-26.525	-0.189	-0.110
-236.859	-192.742	-0.205	0.002
-235.844	69.701	0.079	0.080
-234.830	-200.000	0.003	0.065
-233.815	-108.332	0.016	-0.004
-232.800	78.726	0.031	0.033
-231.786	800.000	0.015	0.049
-230.771	-21.788	0.097	-0.059
-229.757	108.902	0.205	0.243
-228.742	9.466	-0.369	0.277
-227.727	633.767	0.074	0.187
-226.713	-172.514	-0.324	0.010
-225.698	-200.000	-0.062	-0.303
-224.684	-200.000	-0.011	-0.093
-223.669	157.051	0.150	0.205
-222.655	-200.000	-0.039	-0.323
-221.640	-60.792	-0.336	-0.141
-220.625	-44.372	-0.207	-0.103
-219.611	264.233	0.116	0.200
-218.596	-153.702	-0.354	0.024
-217.582	-200.000	-0.009	-0.158
-216.567	-193.193	0.127	0.001
-215.552	-52.591	0.192	-0.088
-214.538	800.000	-0.025	-0.096
-213.523	-60.179	0.336	-0.142
-212.509	353.638	-0.042	-0.083
-211.494	82.083	-0.193	0.207
-210.479	433.373	-0.027	0.058
-209.465	-99.497	0.107	-0.027
-208.450	-185.703	-0.144	-0.002
-207.436	-200.000	-0.073	0.361
-206.421	-81.089	0.227	0.074
-205.406	599.341	0.038	0.094
-204.392	-200.000	0.191	-0.000
-203.377	12.091	0.235	0.179
-202.363	765.589	0.084	0.225
-201.348	214.583	0.016	0.026
-200.333	177.841	0.129	-0.187
-199.319	-62.309	0.330	-0.136
-198.304	-200.000	0.036	-0.196
-197.290	-200.000	-0.020	-0.303
-196.275	243.553	-0.177	0.293
-195.260	-7.060	-0.060	-0.040
-194.246	-151.236	0.344	0.025
-193.231	-137.968	0.047	-0.005
-192.217	-200.000	-0.007	0.065
-191.202	-200.000	-0.060	0.492
-190.187	-47.817	0.128	0.061
-189.173	-62.103	-0.174	0.072
-188.158	-104.179	0.325	0.075
-187.144	-159.697	0.287	-0.016
-186.129	-200.000	-0.030	-0.140
-185.114	-44.791	-0.272	-0.134
-184.100	-79.114	-0.138	0.046
-183.085	-84.211	0.162	0.051
-182.071	-64.289	0.258	-0.104
-181.056	-29.006	-0.374	-0.212
-180.042	-137.306	0.337	-0.038
-179.027	-9.272	0.161	-0.106
-178.012	-95.763	-0.212	0.056
-176.998	800.000	-0.079	0.243
-175.983	40.063	-0.182	0.161
-174.969	253.889	-0.284	0.480
-173.954	-40.397	-0.039	-0.020
-172.939	-23.115	0.310	-0.184
-171.925	-200.000	0.025	-0.134
-170.910	-26.428	0.143	-0.083
-169.896	-81.504	-0.198	0.064
-168.881	-43.849	0.151	-0.075
-167.866	90.378	0.107	0.119
-166.852	-91.661	0.213	-0.060
-165.837	-46.862	-0.174	0.084
-164.823	0.811	0.122	0.086
-163.808	-10.656	-0.174	-0.114
-162.793	-35.942	0.413	0.221
-161.779	-200.000	0.078	0.356
-160.764	670.967	0.044	0.112
-159.750	-133.645	-0.258	0.032
-158.735	800.000	0.030	0.097
-157.720	275.298	0.060	-0.105
-156.706	221.681	0.086	-0.136
-155.691	-146.203	-0.185	-0.016
-154.677	274.993	0.070	0.122
-153.662	800.000	-0.041	-0.148
-152.647	-104.545	-0.274	-0.063
-151.633	203.519	0.181	-0.277
-150.618	-200.000	-0.015	-0.169
-149.604	207.721	0.178	0.274
-148.589	-101.830	-0.298	-0.071
-147.574	-86.041	0.296	-0.090
-146.560	296.055	-0.127	0.229
-145.545	-1.730	0.145	-0.101
-144.531	25.831	-0.424	0.349
-143.516	800.000	-0.029	0.105
-142.502	-70.011	0.261	-0.098
-141.487	-200.000	-0.039	0.168
-140.472	-200.000	0.016	0.276
-139.458	281.824	-0.098	0.173
-138.443	138.547	-0.053	0.069
-137.429	-105.342	-0.173	0.039
-136.414	800.000	-0.108	-0.302
-135.399	-103.375	0.221	0.051
-134.385	800.000	-0.099	0.365
-133.370	-48.073	-0.290	0.138
-132.356	-61.485	0.054	0.023
-131.341	151.214	0.127	0.171
-130.326	336.335	0.157	0.301
-129.312	-14.960	-0.069	-0.044
-128.297	543.232	0.067	0.158
-127.283	-36.154	-0.112	-0.060
-126.268	-111.806	0.082	-0.016
-125.253	-89.414	0.259	0.075
-124.239	86.297	-0.221	0.241
-123.224	-103.131	0.165	0.039
-122.210	52.312	-0.300	-0.282
-121.195	374.847	-0.113	0.227
-120.180	-200.000	0.071	0.504
-119.166	2.013	0.140	0.100
-118.151	-200.000	-0.053	0.255
-117.137	800.000	-0.051	0.208
-116.122	73.684	0.097	-0.100
-115.107	106.194	-0.291	0.340
-114.093	-67.028	0.047	-0.018
-113.078	571.220	-0.114	-0.274
-112.064	6.730	0.114	-0.083
-111.049	800.000	0.039	0.123
-110.034	-153.282	0.225	0.015
-109.020	-43.556	0.208	0.103
-108.005	44.240	0.208	0.188
-106.991	-27.254	0.161	0.092
-105.976	800.000	-0.037	-0.153
-104.962	121.507	-0.173	0.212
-103.947	-47.640	-0.233	0.111
-102.932	264.349	0.107	-0.184
-101.918	-37.920	0.179	0.094
-100.903	426.325	0.063	-0.135
-99.889	-200.000	-0.077	-0.338
-98.874	-40.884	-0.199	0.102
-97.859	0.064	0.144	-0.101
-96.845	-76.218	-0.157	-0.054
-95.830	800.000	0.053	-0.181
-94.816	-97.386	0.194	0.050
-93.801	178.339	0.099	0.143
-92.786	5.096	0.275	0.200
-91.772	-200.000	0.007	-0.139
-90.757	429.645	-0.209	0.446
-89.743	-56.621	-0.237	0.103
-88.728	307.928	-0.149	-0.274
-87.713	147.202	0.182	-0.241
-86.699	-154.152	0.301	0.020
-85.684	83.366	-0.124	-0.133
-84.670	184.648	0.065	0.095
-83.655	-200.000	-0.035	0.352
-82.640	-200.000	0.022	-0.176
-81.626	800.000	0.018	-0.054
-80.611	-171.306	0.209	0.007
-79.597	-200.000	-0.040	0.248
-78.582	182.315	0.234	0.340
-77.567	339.606	-0.208	0.400
-76.553	-65.558	0.169	-0.067
-75.538	-77.761	-0.141	0.048
-74.524	-98.591	-0.430	0.108
-73.509	-104.102	0.144	0.033
-72.494	-200.000	-0.029	0.191
-71.480	268.665	0.181	-0.312
-70.465	-179.891	0.215	0.005
-69.451	63.748	-0.027	-0.026
-68.436	-200.000	-0.021	-0.317
-67.422	91.490	-0.117	0.129
-66.407	-200.000	0.003	0.024
-65.392	629.042	-0.134	-0.332
-64.378	-143.754	0.147	0.014
-63.363	-126.019	-0.257	0.038
-62.349	68.235	0.063	-0.064
-61.334	33.827	-1.008	-0.863
-60.319	24.679	0.569	0.464
-59.305	-200.000	-0.196	-1.061
-58.290	81.922	0.955	1.018
-57.276	800.000	0.480	1.453
-56.261	-200.000	115.920	663.499
-55.246	533.041	1520.397	3540.790
-54.232	175.246	2697.250	3843.670
-53.217	99.127	2319.141	2635.515
-52.203	33.952	2064.864	1768.307
-51.188	29.086	1980.872	1652.751
-50.173	27.720	1963.792	1626.264
-49.159	46.159	2022.685	1842.343
-48.144	44.850	2039.175	1845.446
-47.130	29.571	1997.561	1670.799
-46.115	27.371	1986.800	1641.916
-45.100	27.302	1983.732	1638.685
-44.086	27.262	1981.861	1636.720
-43.071	27.194	1978.723	1633.455
-42.057	27.129	1977.244	1631.579
-41.042	27.165	1975.549	1630.442
-40.027	27.183	1973.456	1628.811
-39.013	27.193	1971.528	1627.241
-37.998	27.274	1969.870	1626.536
-36.984	27.217	1967.984	1624.404
-35.969	27.191	1965.945	1622.427
-34.954	27.265	1964.096	1621.498
-33.940	27.218	1962.782	1619.925
-32.925	27.345	1961.001	1619.519
-31.911	27.297	1959.601	1617.876
-30.896	27.294	1957.588	1616.125
-29.881	27.325	1956.550	1615.480
-28.867	27.364	1954.219	1613.836
-27.852	27.231	1953.508	1612.005
-26.838	27.374	1951.629	1611.654
-25.823	27.343	1949.271	1609.373
-24.809	27.305	1947.552	1607.549
-23.794	27.423	1945.364	1606.725
-22.779	27.414	1943.838	1605.320
-21.765	27.363	1942.232	1603.476
-20.750	27.450	1940.372	1602.650
-19.736	27.428	1938.980	1601.236
-18.721	27.298	1937.851	1599.099
-17.706	27.334	1935.860	1597.710
-16.692	27.364	1934.126	1596.481
-15.677	27.314	1932.870	1594.938
-14.663	27.384	1931.358	1594.243
-13.648	27.325	1930.108	1592.633
-12.633	27.320	1929.067	1591.666
-11.619	27.310	1927.735	1590.412
-10.604	27.339	1926.057	1589.225
-9.590	27.290	1924.876	1587.757
-8.575	27.286	1923.466	1586.499
-7.560	27.308	1922.146	1585.538
-6.546	27.314	1920.695	1584.326
-5.531	27.352	1919.759	1583.822
-4.517	27.285	1918.451	1582.097
-3.502	27.286	1917.727	1581.451
-2.487	27.326	1916.243	1580.510
-1.473	27.329	1915.218	1579.626
-0.458	27.374	1910.528	1576.086
0.556	28.060	1889.687	1545.764
1.571	23.568	1870.175	1491.987
2.586	19.423	1891.937	1473.879
3.600	18.308	1927.378	1491.642
4.615	17.878	1920.173	1482.209
5.629	13.659	1819.544	1369.618
6.644	6.699	1706.927	1230.625
7.659	3.498	1674.135	1182.369
8.673	3.178	1671.056	1177.637
9.688	3.230	1670.013	1177.198
10.702	3.173	1668.793	1175.799
11.717	3.249	1664.832	1173.483
12.731	3.728	1663.866	1176.344
13.746	8.440	1675.450	1220.486
14.761	16.143	1692.414	1291.959
15.775	20.123	1699.707	1327.966
16.790	20.488	1698.505	1329.705
17.804	19.573	1695.605	1320.327
18.819	18.564	1692.416	1310.017
19.834	17.999	1689.831	1303.596
20.848	17.712	1689.102	1300.723
21.863	17.645	1687.478	1298.846
22.877	17.469	1686.062	1296.307
23.892	17.298	1684.841	1293.950
24.907	17.157	1683.814	1291.976
25.921	17.120	1682.341	1290.450
26.936	17.143	1681.324	1289.725
27.950	17.204	1680.448	1289.407
28.965	17.259	1679.877	1289.271
29.980	17.376	1678.988	1289.363
30.994	17.351	1678.520	1288.697
32.009	17.557	1676.845	1288.860
33.023	17.521	1676.655	1288.326
34.038	17.642	1675.454	1288.200
35.053	17.598	1673.815	1286.500
36.067	17.351	1672.683	1283.651
37.082	17.351	1671.664	1282.753
38.096	17.406	1670.617	1282.254
39.111	17.408	1669.682	1281.433
40.126	17.412	1669.027	1280.850
41.140	17.488	1667.983	1280.506
42.155	17.293	1666.415	1277.723
43.169	17.044	1664.563	1274.320
44.184	16.945	1663.517	1272.660
45.199	16.945	1662.185	1271.529
46.213	16.960	1661.463	1270.981
47.228	16.993	1660.275	1270.209
48.242	17.096	1659.091	1269.961
49.257	17.370	1658.025	1271.079
50.271	17.318	1656.879	1269.697
51.286	17.206	1655.743	1267.881
52.301	17.270	1654.424	1267.237
53.315	17.250	1653.084	1265.946
54.330	17.326	1651.085	1264.872
55.344	17.224	1649.480	1262.769
56.359	17.033	1648.412	1260.422
57.374	17.045	1647.338	1259.580
58.388	17.089	1646.201	1258.925
59.403	17.041	1644.638	1257.260
60.417	16.912	1643.335	1255.202
61.432	16.976	1642.167	1254.671
62.447	16.942	1640.911	1253.347
63.461	16.873	1639.607	1251.728
64.476	16.810	1638.577	1250.370
65.490	16.776	1637.337	1249.061
66.505	16.735	1636.497	1248.010
67.520	16.822	1635.024	1247.419
68.534	16.916	1634.174	1247.351
69.549	16.929	1633.205	1246.597
70.563	16.837	1632.452	1245.230
71.578	16.853	1630.808	1243.989
72.593	16.852	1629.718	1243.033
73.607	16.659	1628.551	1240.619
74.622	16.623	1627.574	1239.503
75.636	16.674	1627.046	1239.365
76.651	16.650	1626.151	1238.398
77.666	16.762	1624.973	1238.213
78.680	16.791	1623.930	1237.521
79.695	16.736	1623.624	1236.777
80.709	16.808	1622.724	1236.505
81.724	16.869	1621.679	1236.043
82.739	16.941	1620.898	1235.861
83.753	16.979	1620.083	1235.412
84.768	17.057	1619.567	1235.476
85.782	17.200	1618.778	1235.806
86.797	17.421	1617.831	1236.578
87.812	17.454	1617.006	1236.076
88.826	17.397	1615.240	1234.203
89.841	17.284	1614.429	1232.656
90.855	17.286	1613.934	1232.184
91.870	17.340	1612.496	1231.370
92.884	17.360	1611.675	1230.779
93.899	17.405	1610.660	1230.216
94.914	17.403	1609.492	1229.207
95.928	17.485	1608.121	1228.638
96.943	17.453	1606.818	1227.308
97.957	17.421	1604.993	1225.573
98.972	17.473	1603.665	1224.826
99.987	17.429	1601.707	1222.906
101.001	17.429	1600.245	1221.680
102.016	17.375	1598.860	1220.123
103.030	17.339	1597.661	1218.848
104.045	17.465	1596.647	1218.864
105.060	17.385	1595.281	1217.143
106.074	17.291	1593.569	1215.059
107.089	17.146	1592.421	1213.040
108.103	16.940	1590.385	1209.913
109.118	16.803	1589.271	1207.982
110.133	16.761	1587.547	1206.264
111.147	16.849	1585.688	1205.367
112.162	16.834	1585.182	1204.774
113.176	16.860	1583.115	1203.277
114.191	17.018	1581.390	1202.983
115.206	16.986	1581.093	1202.420
116.220	17.019	1579.519	1201.352
117.235	17.063	1577.645	1200.129
118.249	17.050	1576.334	1198.935
119.264	17.029	1575.480	1198.030
120.279	16.957	1573.746	1196.101
121.293	16.882	1572.125	1194.231
122.308	16.783	1570.846	1192.458
123.322	16.813	1568.918	1191.106
124.337	16.820	1567.619	1190.060
125.352	16.806	1566.363	1188.906
126.366	16.662	1565.732	1187.311
127.381	16.704	1564.840	1186.821
128.395	16.711	1563.444	1185.709
129.410	16.703	1562.092	1184.520
130.424	16.757	1560.816	1183.827
131.439	16.840	1559.156	1183.043
132.454	16.845	1558.312	1182.330
133.468	16.817	1557.243	1181.219
134.483	16.933	1555.438	1180.557
135.497	16.932	1554.013	1179.362
136.512	16.936	1553.113	1178.603
137.527	16.952	1551.761	1177.583
138.541	17.053	1549.920	1176.785
139.556	17.131	1548.685	1176.283
140.570	17.132	1547.814	1175.520
141.585	17.186	1546.271	1174.621
142.600	17.190	1545.242	1173.763
143.614	17.358	1544.551	1174.294
144.629	17.424	1542.979	1173.449
145.643	17.527	1541.591	1173.000
146.658	17.494	1540.223	1171.629
147.673	17.463	1538.885	1170.293
148.687	17.247	1537.695	1167.802
149.702	17.196	1536.103	1166.136
150.716	17.103	1534.649	1164.296
151.731	17.104	1533.203	1163.103
152.746	17.109	1532.014	1162.132
153.760	17.080	1530.245	1160.490
154.775	17.224	1528.697	1160.195
155.789	17.208	1527.598	1159.149
156.804	17.295	1527.193	1159.329
157.819	17.387	1525.640	1158.678
158.833	17.429	1524.666	1158.121
159.848	17.424	1523.500	1157.101
160.862	17.577	1522.161	1157.019
161.877	17.626	1521.394	1156.667
162.892	17.522	1519.631	1154.515
163.906	17.217	1518.485	1151.475
164.921	17.114	1516.604	1149.251
165.935	17.196	1515.573	1148.925
166.950	17.241	1514.600	1148.386
167.964	17.283	1513.524	1147.757
168.979	17.287	1512.683	1147.046
169.994	17.307	1511.766	1146.381
171.008	17.292	1510.007	1144.847
172.023	17.278	1509.231	1144.064
173.037	17.285	1508.610	1143.537
174.052	17.517	1507.096	1143.845
175.067	17.553	1506.263	1143.354
176.081	17.453	1504.654	1141.358
177.096	17.283	1503.240	1139.045
178.110	17.156	1501.992	1137.153
179.125	17.123	1501.071	1136.130
180.140	17.303	1500.109	1136.507
181.154	17.209	1499.398	1135.241
182.169	17.356	1498.180	1135.198
183.183	17.524	1496.704	1135.099
184.198	17.541	1495.778	1134.408
185.213	17.629	1495.297	1134.530
186.227	17.653	1493.813	1133.464
187.242	17.616	1492.960	1132.474
188.256	17.622	1492.163	1131.807
189.271	17.662	1491.082	1131.149
190.286	17.749	1490.041	1130.838
191.300	17.705	1488.890	1129.576
192.315	17.481	1486.986	1126.544
193.329	17.153	1485.818	1123.396
194.344	17.252	1484.357	1122.840
195.359	17.295	1483.827	1122.628
196.373	17.334	1482.832	1122.035
197.388	17.455	1481.828	1121.970
198.402	17.583	1480.990	1122.082
199.417	17.753	1479.923	1122.295
200.432	17.788	1479.266	1121.923
201.446	17.812	1478.667	1121.532
202.461	18.060	1477.196	1121.942
203.475	17.971	1476.561	1120.778
204.490	18.124	1475.320	1120.737
205.504	18.032	1474.368	1119.315
206.519	17.867	1473.030	1117.119
207.534	17.798	1471.614	1115.495
208.548	17.754	1470.751	1114.456
209.563	17.729	1469.438	1113.194
210.577	17.744	1468.684	1112.626
211.592	17.777	1467.966	1112.201
212.607	17.714	1467.476	1111.320
213.621	17.922	1466.879	1112.120
214.636	17.989	1466.273	1111.999
215.650	17.982	1464.581	1110.571
216.665	17.940	1463.971	1109.742
217.680	17.865	1463.086	1108.483
218.694	18.147	1462.434	1109.721
219.709	18.191	1461.662	1109.321
220.723	18.234	1460.735	1108.798
221.738	18.072	1459.766	1106.919
222.753	18.205	1458.413	1106.656
223.767	18.064	1457.763	1105.150
224.782	18.026	1457.191	1104.374
225.796	18.169	1456.078	1104.358
226.811	18.225	1455.303	1104.031
227.826	18.281	1454.390	1103.606
228.840	18.176	1453.378	1102.060
229.855	18.067	1452.247	1100.402
230.869	18.038	1451.292	1099.400
231.884	17.984	1450.451	1098.314
232.899	18.073	1449.031	1097.715
233.913	17.951	1447.948	1096.016
234.928	17.944	1446.639	1094.884
235.942	17.923	1445.270	1093.615
236.957	17.909	1444.012	1092.478
237.972	17.912	1442.709	1091.410
238.986	17.863	1441.996	1090.464
240.001	17.860	1441.514	1089.984
241.015	17.933	1440.000	1089.211
242.030	17.961	1438.419	1088.094
243.045	18.062	1437.886	1088.234
244.059	18.134	1436.992	1087.921
245.074	18.084	1436.479	1087.118
246.088	18.083	1435.827	1086.526
247.103	18.240	1434.757	1086.614
248.117	18.368	1433.675	1086.514
249.132	18.440	1433.477	1086.720
250.147	18.383	1433.386	1086.196
251.161	18.603	1432.613	1086.909
252.176	18.762	1431.899	1087.278
253.190	18.852	1431.124	1087.160
254.205	18.870	1430.357	1086.598
255.220	18.903	1429.405	1085.983
256.234	18.875	1428.974	1085.388
257.249	18.913	1428.175	1084.922
258.263	18.857	1427.238	1083.764
259.278	18.917	1426.300	1083.328
260.293	18.797	1425.162	1081.615
261.307	18.899	1424.339	1081.536
262.322	18.848	1423.905	1080.789
263.336	19.051	1423.305	1081.512
264.351	19.026	1421.828	1080.142
265.366	18.998	1421.323	1079.487
266.380	19.104	1419.955	1079.015
267.395	19.118	1419.371	1078.566
268.409	19.003	1418.778	1077.301
269.424	19.016	1417.153	1076.049
270.439	18.864	1415.929	1074.075
271.453	18.918	1414.800	1073.461
272.468	18.872	1414.352	1072.737
273.482	18.836	1413.370	1071.676
274.497	18.815	1412.490	1070.783
275.512	18.837	1411.411	1070.005
276.526	18.826	1410.897	1069.451
277.541	18.780	1409.889	1068.311
278.555	18.966	1408.910	1068.630
279.570	18.916	1407.923	1067.472
280.585	18.930	1407.329	1067.014
281.599	19.003	1406.970	1067.101
282.614	19.047	1406.233	1066.723
283.628	19.029	1404.708	1065.359
284.643	18.868	1403.563	1063.403
285.657	19.010	1402.202	1063.156
286.672	18.899	1401.371	1061.744
287.687	19.053	1400.360	1061.833
288.701	18.987	1399.109	1060.382
289.716	18.963	1398.726	1059.852
290.730	19.083	1397.637	1059.673
291.745	19.040	1397.022	1058.846
292.760	19.060	1395.805	1057.956
293.774	19.113	1394.665	1057.323
294.789	19.164	1394.411	1057.351
295.803	19.176	1393.709	1056.795
296.818	19.237	1392.660	1056.281
297.833	19.201	1391.322	1054.952
298.847	19.099	1390.354	1053.501
299.862	19.066	1389.489	1052.553
300.876	19.051	1388.486	1051.610
301.891	19.095	1387.233	1050.835
302.906	19.196	1386.756	1050.994
303.920	19.252	1386.195	1050.819
304.935	19.365	1385.523	1050.906
305.949	19.405	1384.728	1050.452
306.964	19.526	1384.047	1050.582
307.979	19.530	1383.273	1049.925
308.993	19.419	1382.410	1048.502
310.008	19.425	1381.259	1047.571
311.022	19.472	1379.972	1046.786
312.037	19.435	1379.325	1045.983
313.052	19.517	1378.286	1045.599
314.066	19.476	1377.158	1044.401
315.081	19.325	1376.263	1042.716
316.095	19.239	1375.076	1041.207
317.110	19.151	1373.810	1039.622
318.125	19.234	1372.476	1039.022
319.139	19.192	1372.336	1038.568
320.154	19.305	1370.867	1038.046
321.168	19.305	1369.554	1036.960
322.183	19.160	1369.079	1035.641
323.197	19.227	1367.991	1035.129
324.212	19.346	1367.052	1035.039
325.227	19.379	1366.044	1034.384
326.241	19.400	1365.348	1033.887
327.256	19.390	1364.819	1033.336
328.270	19.356	1363.758	1032.240
329.285	19.324	1363.014	1031.395
330.300	19.324	1362.062	1030.584
331.314	19.314	1361.480	1029.990
332.329	19.222	1360.440	1028.561
333.343	19.347	1359.614	1028.596
334.358	19.372	1358.629	1027.909
335.373	19.407	1358.058	1027.590
336.387	19.512	1357.644	1027.813
337.402	19.525	1356.817	1027.175
338.416	19.616	1355.887	1026.920
339.431	19.716	1355.182	1026.891
340.446	19.698	1354.645	1026.286
341.460	19.751	1353.450	1025.599
342.475	19.931	1352.646	1025.970
343.489	19.842	1352.092	1024.930
344.504	19.853	1351.276	1024.283
345.519	20.047	1350.041	1024.408
346.533	19.977	1349.686	1023.635
347.548	20.049	1348.715	1023.235
348.562	20.137	1347.476	1022.718
349.577	20.093	1346.878	1021.919
350.592	20.078	1345.852	1020.960
351.606	19.901	1344.966	1019.152
352.621	19.754	1343.706	1017.243
353.635	19.777	1342.421	1016.320
354.650	19.781	1341.467	1015.531
355.665	19.582	1340.630	1013.635
356.679	19.646	1340.013	1013.457
357.694	19.795	1338.810	1013.331
358.708	19.878	1337.506	1012.740
359.723	19.854	1336.752	1011.936
360.738	19.994	1335.499	1011.716
361.752	19.965	1334.532	1010.726
362.767	20.058	1333.320	1010.263
363.781	19.954	1332.493	1008.941
364.796	19.971	1331.965	1008.547
365.810	20.070	1331.394	1008.606
366.825	20.197	1330.348	1008.462
367.840	20.260	1330.057	1008.518
368.854	20.310	1329.151	1008.034
369.869	20.444	1328.664	1008.350
370.883	20.551	1327.846	1008.260
371.898	20.470	1327.422	1007.379
372.913	20.251	1326.501	1005.322
373.927	20.337	1325.285	1004.813
374.942	20.223	1325.014	1003.858
375.956	20.315	1324.307	1003.767
376.971	20.339	1323.473	1003.183
377.986	20.251	1322.794	1002.071
379.000	20.341	1321.698	1001.674
380.015	20.386	1320.935	1001.265
381.029	20.505	1320.117	1001.243
382.044	20.607	1319.595	1001.343
383.059	20.586	1318.960	1000.655
384.073	20.600	1318.249	1000.106
385.088	20.525	1317.451	998.981
386.102	20.535	1316.752	998.421
387.117	20.633	1316.172	998.455
388.132	20.553	1314.809	996.872
389.146	20.418	1313.883	995.310
390.161	20.397	1313.210	994.591
391.175	20.369	1312.314	993.661
392.190	20.419	1311.270	993.071
393.205	20.362	1310.774	992.279
394.219	20.383	1310.194	991.876
395.234	20.577	1308.687	991.752
396.248	20.474	1307.047	989.837
397.263	20.514	1305.693	988.949
398.278	20.418	1304.854	987.682
399.292	20.489	1302.946	986.552
400.307	20.322	1302.006	984.806
401.321	20.343	1300.834	983.952
402.336	20.170	1299.944	982.212
403.350	20.318	1299.022	982.268
404.365	20.364	1298.203	981.821
405.380	20.224	1297.854	980.676
406.394	20.392	1296.830	980.768
407.409	20.432	1296.006	980.282
408.423	20.597	1294.936	980.316
409.438	20.660	1294.973	980.610
410.453	20.728	1294.202	980.323
411.467	20.794	1293.379	979.984
412.482	20.729	1293.367	979.527
413.496	20.960	1292.221	979.869
414.511	20.890	1291.546	978.878
415.526	21.070	1290.598	979.081
416.540	21.062	1290.413	978.807
417.555	21.074	1289.971	978.454
418.569	21.142	1289.123	978.104
419.584	21.088	1288.413	977.178
420.599	21.055	1287.778	976.425
421.613	145.858	1434.568	1797.460
422.628	140.733	1455.935	1797.517
