DTS Sentinel unit serial number:	SN413079Multiplexer serial number:	ORYXHardware model number:	OX4-SRSoftware version number:	ORYX F/W v4.00 Oryx Data Collector v3.7.2.0data status	okinstallation	princeton_trtdifferential loss correction	single-endedforward channel	channel 4reverse channel	N/Adate	2019/09/16time	21:25:35forward acquisition time	60.00reverse acquisition time	0.00gamma	496.2192k internal	0.2313k external	0.2313temperature offset calibration	0.9968default loss term (dB/km)	0.3790temperature slope calibration	1.0000multiplexer offset coefficient	1.0000multiplexer slope coefficient	1.0000fibre end	0.00T internal ref (°C)	31.56T ext. ref 1 (°C)	0.05T ext. ref 2 (°C)	25.49length (m)	temperature (°C)	Stokes	anti-Stokes-747.200	-172.858	0.043	-0.001
-746.185	45.987	-0.080	0.076
-745.171	-200.000	0.045	0.451
-744.156	-127.250	-0.106	-0.016
-743.142	-200.000	0.038	0.322
-742.127	-158.912	0.030	0.002
-741.112	-136.487	0.150	0.018
-740.098	-60.803	-0.543	0.233
-739.083	-40.413	0.208	-0.109
-738.069	-152.364	0.257	0.019
-737.054	-154.641	0.349	0.024
-736.039	43.947	-0.042	0.039
-735.025	-107.972	0.095	-0.021
-734.010	-68.280	0.424	-0.167
-732.996	-3.596	-0.217	-0.153
-731.981	-119.832	-0.164	0.029
-730.966	-152.972	-0.178	0.013
-729.952	68.901	-0.237	-0.247
-728.937	-200.000	0.004	-0.063
-727.923	-119.567	0.114	-0.020
-726.908	177.846	-0.066	0.097
-725.894	-200.000	-0.038	-0.259
-724.879	800.000	-0.051	-0.188
-723.864	68.476	0.188	-0.195
-722.850	-121.594	-0.232	0.039
-721.835	-200.000	-0.041	-0.278
-720.821	-169.208	0.127	-0.005
-719.806	-200.000	0.014	-0.265
-718.791	-44.592	-0.208	-0.105
-717.777	-62.032	-0.198	0.084
-716.762	800.000	-0.041	0.147
-715.748	-11.843	-0.102	-0.068
-714.733	47.358	0.121	-0.114
-713.718	-200.000	0.013	0.064
-712.704	-36.796	-0.113	-0.061
-711.689	104.565	0.271	-0.324
-710.675	128.427	0.317	-0.408
-709.660	165.972	-0.102	-0.146
-708.645	-61.189	-0.223	-0.095
-707.631	-200.000	0.065	0.310
-706.616	44.825	0.036	0.033
-705.602	456.631	-0.053	-0.119
-704.587	-32.171	-0.072	-0.041
-703.572	-200.000	-0.029	-0.354
-702.558	91.166	-0.138	-0.156
-701.543	353.352	-0.045	0.091
-700.529	-102.409	-0.436	0.106
-699.514	102.750	0.357	-0.423
-698.499	800.000	-0.132	-0.462
-697.485	334.290	-0.107	0.210
-696.470	-200.000	-0.002	0.294
-695.456	317.133	0.275	0.527
-694.441	-30.838	0.049	-0.028
-693.426	-132.052	-0.221	-0.029
-692.412	-200.000	0.005	0.056
-691.397	-48.565	-0.173	-0.084
-690.383	-32.464	-0.128	0.072
-689.368	82.888	0.159	-0.175
-688.354	161.324	-0.155	-0.220
-687.339	-49.536	0.141	-0.068
-686.324	-200.000	-0.010	0.055
-685.310	15.615	0.092	-0.073
-684.295	202.275	-0.219	0.342
-683.281	-132.416	-0.063	0.008
-682.266	-200.000	-0.027	-0.413
-681.251	18.008	0.209	0.168
-680.237	-116.851	-0.275	-0.051
-679.222	198.187	-0.286	-0.443
-678.208	141.358	0.196	0.262
-677.193	341.213	0.017	0.033
-676.178	-177.224	0.312	0.008
-675.164	-200.000	-0.001	-0.039
-674.149	178.902	0.145	0.214
-673.135	-79.475	0.515	0.176
-672.120	16.477	-0.029	0.024
-671.105	400.584	-0.047	-0.100
-670.091	-17.038	0.090	-0.058
-669.076	66.548	-0.293	-0.301
-668.062	214.214	-0.041	0.066
-667.047	40.501	-0.055	-0.050
-666.032	800.000	0.055	0.184
-665.018	-200.000	0.022	-0.376
-664.003	800.000	0.104	-0.336
-662.989	30.460	0.126	0.109
-661.974	800.000	-0.121	0.381
-660.959	-200.000	-0.022	-0.112
-659.945	-20.443	-0.300	-0.187
-658.930	-40.442	-0.187	0.098
-657.916	-200.000	-0.053	-0.277
-656.901	-200.000	-0.040	0.224
-655.886	21.055	-0.142	-0.116
-654.872	-200.000	-0.018	0.165
-653.857	-90.823	-0.169	-0.049
-652.843	57.090	0.259	0.256
-651.828	75.495	-0.151	0.161
-650.814	-93.797	-0.126	0.035
-649.799	123.967	0.095	-0.121
-648.784	42.740	0.352	0.324
-647.770	-162.734	-0.522	-0.026
-646.755	35.535	-0.061	-0.054
-645.741	-161.841	-0.225	0.012
-644.726	-13.991	-0.204	0.133
-643.711	343.976	0.028	0.056
-642.697	-55.398	-0.106	0.048
-641.682	-12.904	-0.201	0.132
-640.668	-200.000	0.023	-0.307
-639.653	74.350	0.051	-0.054
-638.638	-200.000	-0.004	-0.207
-637.624	-104.868	0.103	-0.024
-636.609	-200.000	-0.008	0.253
-635.595	201.992	0.126	-0.196
-634.580	-8.137	-0.065	0.044
-633.565	800.000	-0.083	0.255
-632.551	-10.669	-0.214	0.143
-631.536	133.811	-0.033	0.044
-630.522	800.000	0.054	-0.208
-629.507	-54.177	-0.110	0.051
-628.492	-2.387	0.204	-0.144
-627.478	506.166	-0.036	0.085
-626.463	-85.533	0.053	0.017
-625.449	-200.000	0.014	-0.392
-624.434	-200.000	-0.121	-0.538
-623.419	92.172	0.168	-0.191
-622.405	-113.121	-0.321	0.064
-621.390	6.802	0.033	-0.025
-620.376	-67.373	-0.444	0.176
-619.361	-200.000	0.016	0.291
-618.346	-86.029	0.228	0.071
-617.332	-129.905	0.141	0.020
-616.317	-200.000	0.040	-0.219
-615.303	-18.040	0.114	-0.072
-614.288	10.351	0.458	-0.352
-613.273	46.093	0.129	0.121
-612.259	800.000	-0.059	0.191
-611.244	-94.062	0.180	0.050
-610.230	-17.902	0.289	-0.183
-609.215	-128.542	0.080	-0.011
-608.201	-70.485	0.376	0.144
-607.186	68.237	-0.094	0.097
-606.171	-45.054	0.278	0.140
-605.157	-109.153	0.031	-0.007
-604.142	-182.771	0.191	-0.003
-603.128	-109.529	0.160	-0.034
-602.113	-47.716	-0.122	-0.060
-601.098	-200.000	-0.527	-0.002
-600.084	-200.000	-0.050	-0.455
-599.069	-53.469	0.146	0.067
-598.055	-89.094	0.234	-0.070
-597.040	-39.307	-0.179	0.095
-596.025	4.739	-0.160	-0.119
-595.011	0.948	0.228	-0.165
-593.996	800.000	0.042	0.142
-592.982	-82.220	-0.035	0.011
-591.967	-64.390	-0.151	0.062
-590.952	-103.859	-0.172	-0.041
-589.938	42.617	-0.241	0.222
-588.923	118.191	0.073	-0.091
-587.909	800.000	-0.083	-0.253
-586.894	-107.254	0.017	0.004
-585.879	-15.593	-0.404	0.260
-584.865	114.197	-0.102	-0.126
-583.850	19.537	-0.118	0.095
-582.836	-124.975	-0.088	0.014
-581.821	708.942	-0.117	0.312
-580.806	-137.807	-0.215	0.024
-579.792	392.644	0.083	0.174
-578.777	-27.162	0.125	0.073
-577.763	-22.024	0.268	0.164
-576.748	-200.000	0.005	0.476
-575.733	-200.000	-0.010	0.210
-574.719	9.044	-0.149	0.114
-573.704	-119.295	-0.067	-0.012
-572.690	-200.000	-0.004	-0.273
-571.675	188.213	-0.060	0.090
-570.661	-9.560	0.090	-0.060
-569.646	-30.845	0.225	-0.128
-568.631	-200.000	-0.022	-0.114
-567.617	177.893	-0.231	-0.340
-566.602	-137.444	0.395	-0.045
-565.588	35.709	-0.157	-0.139
-564.573	-13.723	-0.364	-0.237
-563.558	-200.000	0.009	0.146
-562.544	167.449	0.128	-0.184
-561.529	800.000	-0.073	-0.233
-560.515	-75.337	0.242	0.087
-559.500	-200.000	-0.046	-0.285
-558.485	45.403	-0.162	-0.151
-557.471	-119.442	0.382	-0.067
-556.456	530.198	-0.094	-0.222
-555.442	-38.167	-0.182	0.097
-554.427	624.657	0.132	0.335
-553.412	135.673	0.265	0.347
-552.398	-114.134	-0.165	0.032
-551.383	-86.913	0.267	-0.082
-550.369	126.698	-0.028	-0.036
-549.354	-200.000	0.026	0.188
-548.339	290.143	0.025	-0.046
-547.325	-200.000	0.012	-0.235
-546.310	122.726	-0.142	-0.178
-545.296	-107.398	-0.146	0.032
-544.281	23.027	0.191	-0.158
-543.266	58.426	0.156	0.154
-542.252	800.000	0.047	-0.191
-541.237	121.959	0.150	0.188
-540.223	-127.464	-0.112	-0.016
-539.208	-200.000	0.025	0.193
-538.193	-200.000	-0.008	-0.134
-537.179	-155.989	-0.299	0.019
-536.164	-60.807	0.175	-0.074
-535.150	-200.000	0.004	-0.186
-534.135	-200.000	0.002	0.185
-533.121	-78.674	0.170	-0.058
-532.106	50.334	0.076	0.072
-531.091	-91.217	0.137	0.040
-530.077	722.200	-0.086	0.229
-529.062	800.000	-0.092	0.328
-528.048	200.280	-0.146	-0.226
-527.033	-200.000	0.015	-0.111
-526.018	556.333	-0.042	-0.103
-525.004	-59.166	0.139	-0.060
-523.989	106.282	-0.175	-0.209
-522.975	133.581	-0.145	-0.188
-521.960	237.567	-0.042	0.070
-520.945	25.452	0.052	0.044
-519.931	-176.924	0.235	-0.006
-518.916	-123.033	0.188	0.030
-517.902	-74.860	0.288	0.104
-516.887	121.755	0.120	0.151
-515.872	-84.972	-0.216	-0.068
-514.858	-57.364	0.129	-0.057
-513.843	86.097	-0.208	0.230
-512.829	641.171	-0.064	0.163
-511.814	75.369	0.081	-0.086
-510.799	800.000	-0.077	-0.275
-509.785	48.458	0.189	-0.178
-508.770	-2.119	0.198	0.140
-507.756	59.815	-0.238	0.237
-506.741	271.017	-0.137	0.242
-505.726	-200.000	-0.008	-0.336
-504.712	-20.638	-0.354	-0.218
-503.697	-123.581	-0.154	-0.024
-502.683	-200.000	0.004	-0.120
-501.668	217.253	-0.175	-0.281
-500.653	465.938	0.038	0.085
-499.639	597.152	-0.126	-0.314
-498.624	-200.000	-0.008	-0.367
-497.610	-200.000	0.017	-0.130
-496.595	129.197	-0.331	-0.425
-495.581	21.217	-0.042	0.034
-494.566	-108.196	0.314	-0.068
-493.551	11.105	-0.193	-0.148
-492.537	-90.860	0.371	0.107
-491.522	742.017	0.096	-0.258
-490.508	-82.052	0.031	0.010
-489.493	-91.204	0.075	0.021
-488.478	-174.650	-0.163	-0.005
-487.464	-200.000	0.023	0.594
-486.449	-127.586	-0.227	-0.033
-485.435	72.876	-0.148	-0.156
-484.420	7.211	-0.194	-0.145
-483.405	427.991	-0.055	0.119
-482.391	-32.448	-0.110	0.061
-481.376	67.827	-0.255	0.261
-480.362	-167.869	0.133	-0.005
-479.347	-127.165	0.201	0.029
-478.332	-75.184	-0.108	-0.039
-477.318	-158.779	-0.224	0.013
-476.303	373.338	-0.137	0.280
-475.289	234.200	-0.032	0.053
-474.274	-175.646	-0.315	0.009
-473.259	-9.738	-0.389	-0.260
-472.245	176.164	0.070	-0.102
-471.230	76.421	0.108	-0.115
-470.216	-147.762	0.041	-0.003
-469.201	-99.177	0.077	-0.019
-468.186	-200.000	0.045	0.287
-467.172	160.077	0.061	0.085
-466.157	-153.811	0.271	-0.019
-465.143	-157.867	-0.354	0.021
-464.128	135.298	0.052	0.068
-463.113	-200.000	-0.014	-0.236
-462.099	-56.277	-0.063	-0.028
-461.084	-65.031	0.086	0.035
-460.070	800.000	0.063	-0.250
-459.055	254.879	0.096	-0.165
-458.040	-50.789	0.247	0.116
-457.026	-155.580	-0.226	-0.015
-456.011	-200.000	-0.012	-0.218
-454.997	-200.000	0.041	-0.199
-453.982	-70.634	0.060	0.023
-452.968	273.602	0.107	0.190
-451.953	333.346	-0.085	0.164
-450.938	-95.243	0.335	0.090
-449.924	-111.855	-0.273	0.055
-448.909	-200.000	-0.060	0.461
-447.895	16.464	0.168	0.133
-446.880	-200.000	0.009	-0.206
-445.865	-36.056	-0.118	-0.064
-444.851	-143.438	-0.041	-0.004
-443.836	-127.294	0.050	-0.007
-442.822	207.560	0.135	-0.211
-441.807	642.690	0.119	-0.304
-440.792	357.318	0.141	-0.282
-439.778	-79.119	0.117	0.040
-438.763	-64.889	0.313	-0.127
-437.749	-34.170	-0.203	0.112
-436.734	-62.394	0.379	0.158
-435.719	-200.000	-0.053	-0.396
-434.705	-36.200	-0.211	0.114
-433.690	-52.357	0.255	-0.118
-432.676	44.359	0.134	0.123
-431.661	461.832	-0.135	-0.302
-430.646	507.951	0.026	0.061
-429.632	398.417	0.142	-0.297
-428.617	190.695	0.127	0.192
-427.603	800.000	0.044	0.137
-426.588	-34.548	-0.185	0.101
-425.573	-200.000	-0.008	-0.167
-424.559	-171.147	-0.189	-0.006
-423.544	169.398	-0.164	-0.234
-422.530	205.160	-0.176	-0.273
-421.515	-91.525	0.341	0.097
-420.500	231.081	0.172	0.281
-419.486	-69.697	0.293	-0.112
-418.471	800.000	-0.017	0.059
-417.457	-64.658	0.136	0.055
-416.442	284.056	-0.179	-0.323
-415.428	-200.000	0.007	-0.054
-414.413	-181.146	-0.448	-0.009
-413.398	47.198	0.147	-0.137
-412.384	107.927	-0.185	0.220
-411.369	800.000	0.135	-0.435
-410.355	-42.032	0.384	-0.197
-409.340	-200.000	-0.061	-0.351
-408.325	73.954	-0.239	-0.251
-407.311	268.988	-0.068	-0.119
-406.296	-200.000	-0.008	-0.276
-405.282	-6.075	-0.185	0.127
-404.267	43.244	0.079	-0.072
-403.252	-57.323	-0.175	0.077
-402.238	9.427	0.246	0.186
-401.223	-170.908	-0.310	-0.011
-400.209	3.477	-0.072	-0.053
-399.194	72.645	0.089	-0.093
-398.179	117.673	-0.090	0.110
-397.165	103.415	-0.076	-0.090
-396.150	152.670	0.132	0.180
-395.136	-139.031	-0.344	0.037
-394.121	-55.323	0.153	-0.069
-393.106	339.310	0.090	-0.176
-392.092	-200.000	-0.005	-0.022
-391.077	206.639	0.056	0.087
-390.063	2.374	-0.033	-0.024
-389.048	-78.367	0.565	0.194
-388.033	800.000	0.142	-0.404
-387.019	294.830	-0.075	-0.137
-386.004	35.943	-0.032	-0.028
-384.990	-200.000	0.028	-0.214
-383.975	246.910	0.041	0.069
-382.960	189.015	0.169	0.252
-381.946	121.210	-0.121	-0.151
-380.931	-103.162	0.427	0.101
-379.917	-22.132	-0.235	0.143
-378.902	174.114	-0.153	0.221
-377.888	-200.000	0.021	0.282
-376.873	-65.865	-0.139	0.056
-375.858	-200.000	0.014	0.131
-374.844	-4.719	-0.288	0.199
-373.829	62.826	0.057	-0.057
-372.815	569.918	-0.182	-0.443
-371.800	72.209	-0.167	0.174
-370.785	-74.929	-0.191	-0.069
-369.771	-62.797	-0.082	0.034
-368.756	302.679	-0.118	0.217
-367.742	138.412	-0.199	0.261
-366.727	-187.758	0.221	0.003
-365.712	152.733	-0.102	-0.140
-364.698	-113.101	-0.328	-0.065
-363.683	-191.036	-0.468	0.005
-362.669	-160.721	0.451	-0.024
-361.654	101.482	0.088	-0.102
-360.639	208.364	0.165	-0.257
-359.625	282.825	0.144	0.258
-358.610	-125.875	-0.112	0.017
-357.596	-49.503	0.316	0.151
-356.581	-142.512	0.296	0.029
-355.566	390.874	-0.133	0.275
-354.552	-89.277	-0.218	-0.064
-353.537	-52.116	-0.108	-0.050
-352.523	-61.154	-0.242	0.102
-351.508	-43.089	-0.536	0.271
-350.493	570.153	0.076	0.185
-349.479	-13.395	0.136	0.088
-348.464	-200.000	-0.004	-0.109
-347.450	-177.477	-0.165	-0.004
-346.435	427.457	-0.100	0.217
-345.420	23.854	-0.150	0.123
-344.406	137.298	0.244	-0.319
-343.391	-32.715	0.113	-0.063
-342.377	402.249	-0.220	-0.462
-341.362	-162.030	0.183	-0.009
-340.348	-200.000	-0.006	0.265
-339.333	52.817	0.216	0.206
-338.318	249.550	0.019	0.032
-337.304	-39.960	-0.103	0.053
-336.289	-200.000	-0.013	-0.290
-335.275	-71.117	0.216	0.081
-334.260	177.812	-0.187	0.272
-333.245	37.170	-0.098	0.087
-332.231	-152.302	-0.337	0.024
-331.216	165.941	-0.083	0.118
-330.202	-200.000	0.015	0.265
-329.187	50.017	0.117	-0.110
-328.172	77.909	-0.337	-0.358
-327.158	-93.798	-0.245	0.067
-326.143	800.000	0.131	0.448
-325.129	180.291	0.283	0.414
-324.114	-92.723	0.215	0.060
-323.099	18.612	-0.056	-0.045
-322.085	-40.200	0.187	-0.097
-321.070	-200.000	-0.024	0.394
-320.056	-200.000	-0.014	-0.247
-319.041	-200.000	-0.048	0.220
-318.026	-200.000	0.019	-0.153
-317.012	43.220	-0.169	0.154
-315.997	-200.000	0.039	0.176
-314.983	105.042	0.146	0.171
-313.968	334.801	0.086	0.166
-312.953	-200.000	-0.104	0.480
-311.939	107.303	0.205	-0.243
-310.924	-19.990	0.154	-0.095
-309.910	-200.000	0.012	0.199
-308.895	-17.704	-0.206	-0.129
-307.880	360.760	-0.108	-0.217
-306.866	-103.027	0.095	0.023
-305.851	-132.650	0.070	-0.009
-304.837	-126.298	-0.179	0.027
-303.822	13.875	0.019	0.015
-302.807	80.567	-0.082	0.088
-301.793	38.886	0.313	0.279
-300.778	-39.865	-0.165	-0.086
-299.764	-52.206	-0.256	0.118
-298.749	-21.829	0.096	0.058
-297.735	800.000	-0.066	0.182
-296.720	31.219	0.208	0.178
-295.705	725.546	-0.085	0.225
-294.691	95.764	-0.116	-0.132
-293.676	56.301	-0.183	0.177
-292.662	634.894	0.162	0.409
-291.647	73.556	-0.234	-0.244
-290.632	-76.932	-0.063	-0.022
-289.618	346.829	0.093	-0.183
-288.603	47.326	-0.383	0.355
-287.589	158.572	-0.223	0.308
-286.574	50.066	0.362	-0.340
-285.559	-6.433	0.072	-0.049
-284.545	-28.446	0.125	-0.072
-283.530	-140.246	0.073	0.008
-282.516	800.000	0.080	-0.334
-281.501	800.000	-0.051	-0.155
-280.486	-127.171	-0.094	-0.014
-279.472	-76.849	-0.170	-0.059
-278.457	62.472	-0.044	-0.044
-277.443	800.000	0.014	-0.046
-276.428	-80.439	0.227	0.075
-275.413	352.862	-0.013	-0.027
-274.399	6.150	-0.167	-0.124
-273.384	127.456	0.022	-0.027
-272.370	61.012	0.112	-0.111
-271.355	-200.000	-0.010	0.141
-270.340	-116.487	-0.208	-0.038
-269.326	-129.594	-0.127	-0.017
-268.311	-74.298	0.164	-0.059
-267.297	448.111	-0.088	0.193
-266.282	-78.570	-0.129	0.044
-265.267	-186.220	-0.179	-0.003
-264.253	338.991	-0.146	-0.283
-263.238	-34.007	-0.240	-0.132
-262.224	-200.000	0.013	0.125
-261.209	-200.000	0.020	-0.291
-260.195	-80.647	0.132	0.044
-259.180	-26.742	-0.023	0.013
-258.165	-53.313	-0.078	0.036
-257.151	15.762	-0.023	0.018
-256.136	8.432	-0.254	-0.190
-255.122	-110.116	0.113	0.024
-254.107	226.351	-0.062	-0.101
-253.092	-34.623	-0.140	-0.076
-252.078	178.312	0.101	0.146
-251.063	92.489	-0.162	-0.182
-250.049	-110.840	0.209	0.043
-249.034	-37.872	-0.051	-0.027
-248.019	140.949	-0.052	-0.068
-247.005	-200.000	0.002	0.259
-245.990	-71.032	0.211	-0.079
-244.976	92.974	0.021	-0.023
-243.961	51.954	-0.038	-0.036
-242.946	175.353	-0.061	-0.088
-241.932	459.213	0.134	-0.297
-240.917	81.195	0.185	-0.199
-239.903	800.000	-0.141	-0.439
-238.888	207.842	-0.158	-0.245
-237.873	58.144	0.298	-0.290
-236.859	-170.858	0.394	-0.013
-235.844	-49.025	-0.149	0.071
-234.830	-13.845	0.131	0.084
-233.815	35.013	-0.177	-0.154
-232.800	-200.000	-0.007	0.169
-231.786	476.048	0.113	0.254
-230.771	-3.827	-0.057	0.039
-229.757	36.268	0.192	-0.169
-228.742	74.317	0.159	0.166
-227.727	227.637	0.111	-0.180
-226.713	75.504	-0.053	-0.056
-225.698	36.115	0.214	0.188
-224.684	-200.000	0.005	0.191
-223.669	-200.000	0.002	0.137
-222.655	-93.642	0.318	0.087
-221.640	29.443	0.214	0.181
-220.625	-153.533	-0.245	0.017
-219.611	286.167	-0.195	-0.349
-218.596	95.626	-0.095	0.108
-217.582	597.301	0.165	0.405
-216.567	-72.063	-0.224	0.083
-215.552	346.725	-0.181	-0.354
-214.538	157.912	0.381	-0.524
-213.523	-36.477	-0.277	0.148
-212.509	-149.420	0.179	-0.014
-211.494	800.000	0.082	0.235
-210.479	-23.442	0.099	0.059
-209.465	15.488	0.107	0.084
-208.450	-97.274	-0.154	0.040
-207.436	364.984	-0.180	0.360
-206.421	749.315	-0.099	0.264
-205.406	171.356	-0.130	-0.185
-204.392	226.647	-0.109	-0.176
-203.377	-155.901	-0.245	-0.015
-202.363	800.000	0.056	-0.199
-201.348	-127.877	-0.301	0.043
-200.333	3.839	0.103	0.075
-199.319	23.698	-0.208	-0.170
-198.304	-107.111	-0.496	0.109
-197.290	-84.482	0.447	-0.140
-196.275	53.547	-0.135	0.128
-195.260	-105.255	-0.133	0.030
-194.246	150.297	-0.160	0.216
-193.231	13.599	0.184	-0.142
-192.217	-116.852	-0.242	-0.044
-191.202	-200.000	-0.029	-0.174
-190.187	32.455	-0.215	0.185
-189.173	-200.000	0.038	-0.253
-188.158	-200.000	-0.041	0.456
-187.144	-64.036	0.360	0.146
-186.129	-16.467	0.165	0.104
-185.114	-67.193	-0.219	-0.085
-184.100	-200.000	0.031	0.259
-183.085	-105.868	0.509	-0.114
-182.071	49.250	-0.135	0.126
-181.056	16.882	0.328	0.257
-180.042	4.783	0.137	-0.100
-179.027	-170.873	-0.278	0.009
-178.012	-142.523	0.238	0.023
-176.998	-34.206	0.143	0.078
-175.983	800.000	-0.013	0.038
-174.969	800.000	0.109	-0.301
-173.954	168.931	0.121	-0.171
-172.939	-10.801	0.133	0.087
-171.925	-142.131	0.404	0.040
-170.910	115.274	0.176	0.213
-169.896	203.125	0.103	0.158
-168.881	-36.008	0.334	0.179
-167.866	3.566	0.252	-0.182
-166.852	-182.398	0.208	0.004
-165.837	8.063	-0.273	0.203
-164.823	800.000	-0.050	-0.140
-163.808	245.629	0.058	-0.097
-162.793	83.647	0.208	0.225
-161.779	800.000	0.167	0.523
-160.764	274.534	0.183	0.321
-159.750	800.000	-0.103	0.298
-158.735	144.771	0.190	-0.252
-157.720	800.000	-0.081	0.271
-156.706	101.245	-0.215	-0.248
-155.691	-200.000	0.026	0.241
-154.677	800.000	-0.022	-0.064
-153.662	80.950	-0.151	-0.162
-152.647	-86.140	0.606	0.185
-151.633	2.102	0.232	0.166
-150.618	-146.842	0.200	-0.017
-149.604	399.621	-0.122	0.253
-148.589	-72.960	0.435	0.158
-147.574	-106.300	0.482	-0.107
-146.560	-47.847	-0.394	-0.189
-145.545	800.000	0.152	0.473
-144.531	-150.437	0.129	-0.010
-143.516	-111.698	-0.299	0.060
-142.502	193.600	-0.133	-0.199
-141.487	103.951	0.216	-0.252
-140.472	-92.957	-0.152	-0.042
-139.458	107.754	0.156	-0.184
-138.443	-1.704	-0.124	-0.086
-137.429	-155.274	0.277	-0.018
-136.414	-10.658	0.172	-0.113
-135.399	83.381	-0.165	-0.178
-134.385	-200.000	-0.025	0.207
-133.370	-64.707	-0.161	0.064
-132.356	42.587	0.131	0.118
-131.341	-130.365	0.156	0.021
-130.326	-58.696	0.164	0.071
-129.312	-33.493	-0.164	-0.090
-128.297	-91.451	-0.315	0.089
-127.283	-136.604	-0.054	-0.006
-126.268	163.295	-0.074	0.103
-125.253	357.140	0.162	0.320
-124.239	-200.000	-0.055	-0.267
-123.224	83.765	-0.085	0.092
-122.210	-66.957	-0.273	-0.107
-121.195	142.345	0.106	-0.139
-120.180	-111.576	0.047	0.009
-119.166	-18.108	-0.213	0.132
-118.151	237.614	-0.228	0.374
-117.137	145.422	-0.048	-0.064
-116.122	-72.195	-0.231	0.085
-115.107	9.005	0.149	-0.111
-114.093	189.154	-0.028	0.041
-113.078	108.244	-0.326	-0.385
-112.064	256.414	0.072	0.122
-111.049	-18.246	0.203	0.125
-110.034	19.449	-0.055	-0.043
-109.020	-200.000	-0.012	-0.393
-108.005	-146.165	0.282	0.025
-106.991	-150.056	-0.178	0.014
-105.976	-200.000	-0.009	0.099
-104.962	-124.864	0.458	0.070
-103.947	-26.116	-0.160	0.093
-102.932	107.226	0.156	0.183
-101.918	197.153	-0.157	0.236
-100.903	800.000	0.022	0.084
-99.889	79.878	0.253	0.269
-98.874	781.375	0.058	0.157
-97.859	-179.359	-0.300	-0.007
-96.845	-162.130	0.136	0.007
-95.830	800.000	0.081	0.266
-94.816	-135.255	0.102	-0.012
-93.801	-192.029	0.291	0.003
-92.786	5.938	-0.251	0.184
-91.772	78.882	-0.052	-0.055
-90.757	-85.513	-0.295	0.091
-89.743	-134.841	-0.291	0.035
-88.728	122.096	0.159	0.197
-87.713	30.337	-0.046	-0.039
-86.699	-21.688	0.106	-0.064
-85.684	-136.734	0.293	-0.033
-84.670	-73.945	0.140	0.050
-83.655	256.185	0.063	0.107
-82.640	179.591	-0.176	-0.255
-81.626	212.352	-0.033	-0.052
-80.611	-45.781	-0.195	-0.095
-79.597	-128.746	-0.122	0.017
-78.582	800.000	-0.097	-0.393
-77.567	21.904	0.220	0.178
-76.553	-30.372	0.078	0.044
-75.538	19.029	-0.233	-0.184
-74.524	472.746	-0.089	-0.199
-73.509	-200.000	0.010	-0.223
-72.494	54.000	0.076	-0.072
-71.480	135.216	0.303	0.389
-70.465	-83.631	-0.074	-0.023
-69.451	-200.000	-0.012	-0.244
-68.436	764.417	-0.046	0.123
-67.422	-200.000	0.060	-0.424
-66.407	78.951	0.353	-0.374
-65.392	-104.172	0.060	0.014
-64.378	-200.000	0.006	0.324
-63.363	133.530	0.105	-0.134
-62.349	-91.980	0.266	-0.074
-61.334	10.087	-1.064	-0.798
-60.319	36.423	0.652	0.568
-59.305	357.165	-0.689	-1.356
-58.290	615.231	0.542	1.341
-57.276	706.469	0.560	1.459
-56.261	-200.000	98.199	591.158
-55.246	520.590	1393.303	3225.183
-54.232	157.301	2570.561	3510.550
-53.217	102.036	2298.131	2648.252
-52.203	38.031	2057.828	1806.478
-51.188	33.269	1972.276	1688.925
-50.173	31.746	1954.235	1659.929
-49.159	46.973	2005.787	1840.780
-48.144	48.138	2024.007	1867.893
-47.130	33.888	1984.819	1704.960
-46.115	31.555	1974.824	1675.439
-45.100	31.469	1971.986	1672.200
-44.086	31.424	1969.975	1670.026
-43.071	31.417	1967.095	1667.458
-42.057	31.362	1965.204	1665.295
-41.042	31.410	1963.037	1663.819
-40.027	31.436	1961.020	1662.274
-39.013	31.475	1959.023	1660.862
-37.998	31.493	1957.538	1659.702
-36.984	31.575	1955.053	1658.249
-35.969	31.475	1953.681	1656.140
-34.954	31.541	1951.641	1654.927
-33.940	31.622	1950.027	1654.205
-32.925	31.631	1948.619	1653.029
-31.911	31.631	1946.755	1651.378
-30.896	31.573	1945.730	1649.934
-29.881	31.549	1944.477	1648.599
-28.867	31.641	1942.415	1647.591
-27.852	31.641	1940.598	1645.987
-26.838	31.597	1938.788	1644.001
-25.823	31.618	1937.058	1642.647
-24.809	31.506	1935.622	1640.383
-23.794	31.515	1933.935	1638.965
-22.779	31.655	1931.423	1637.997
-21.765	31.565	1930.307	1636.202
-20.750	31.529	1928.850	1634.583
-19.736	31.523	1927.080	1632.973
-18.721	31.612	1925.727	1632.536
-17.706	31.580	1923.786	1630.541
-16.692	31.592	1921.952	1629.030
-15.677	31.523	1921.087	1627.631
-14.663	31.542	1919.593	1626.469
-13.648	31.569	1917.974	1625.265
-12.633	31.585	1916.947	1624.468
-11.619	31.560	1915.379	1622.855
-10.604	31.567	1914.164	1621.822
-9.590	31.574	1912.727	1620.609
-8.575	31.646	1910.836	1619.561
-7.560	31.580	1910.092	1618.298
-6.546	31.537	1908.620	1616.616
-5.531	31.533	1907.927	1615.929
-4.517	31.502	1906.553	1614.428
-3.502	31.628	1905.007	1614.144
-2.487	31.516	1903.968	1612.232
-1.473	31.559	1902.940	1611.669
-0.458	31.674	1897.802	1608.243
0.556	29.322	1878.786	1579.550
1.571	25.067	1859.135	1526.739
2.586	21.080	1881.350	1510.403
3.600	19.984	1916.826	1529.069
4.615	19.765	1912.012	1523.167
5.629	15.385	1812.444	1407.065
6.644	6.118	1691.750	1240.407
7.659	0.653	1652.799	1169.517
8.673	0.165	1649.471	1163.292
9.688	0.109	1648.054	1161.753
10.702	0.017	1647.074	1160.250
11.717	-0.071	1643.475	1156.936
12.731	0.531	1643.062	1161.174
13.746	7.280	1657.521	1223.531
14.761	15.583	1674.102	1300.162
15.775	17.904	1675.521	1319.103
16.790	16.961	1672.908	1309.655
17.804	15.841	1669.299	1298.082
18.819	14.847	1666.718	1288.297
19.834	14.279	1664.202	1281.870
20.848	14.093	1662.076	1278.688
21.863	13.743	1660.992	1275.054
22.877	13.477	1659.696	1271.902
23.892	13.297	1657.901	1269.028
24.907	13.110	1656.899	1266.722
25.921	13.131	1655.765	1265.898
26.936	13.156	1654.578	1265.075
27.950	13.157	1654.171	1264.656
28.965	13.152	1654.028	1264.400
29.980	13.291	1652.808	1264.416
30.994	13.347	1651.768	1263.932
32.009	13.429	1650.829	1263.733
33.023	13.452	1649.938	1263.112
34.038	13.416	1649.598	1262.465
35.053	13.419	1648.244	1261.340
36.067	13.320	1646.755	1259.336
37.082	13.401	1645.712	1259.044
38.096	13.393	1644.359	1257.833
39.111	13.373	1643.873	1257.201
40.126	13.427	1642.661	1256.575
41.140	13.338	1642.315	1255.524
42.155	13.364	1640.718	1254.390
43.169	13.163	1639.594	1251.896
44.184	13.237	1638.071	1251.177
45.199	13.214	1637.211	1250.241
46.213	13.126	1636.281	1248.752
47.228	13.066	1635.257	1247.406
48.242	13.222	1633.215	1246.918
49.257	13.274	1632.554	1246.690
50.271	13.310	1631.414	1245.983
51.286	13.240	1630.446	1244.610
52.301	13.170	1629.151	1242.978
53.315	13.275	1627.714	1242.565
54.330	13.286	1626.407	1241.538
55.344	13.219	1624.698	1239.625
56.359	13.161	1623.358	1238.052
57.374	13.200	1621.905	1237.133
58.388	13.217	1620.985	1236.448
59.403	13.074	1619.775	1234.346
60.417	13.203	1617.691	1233.610
61.432	13.134	1616.748	1232.267
62.447	13.148	1615.439	1231.264
63.461	13.079	1613.974	1229.529
64.476	13.022	1613.300	1228.478
65.490	13.066	1611.793	1227.553
66.505	13.088	1610.848	1226.886
67.520	13.053	1610.047	1225.905
68.534	13.098	1608.859	1225.230
69.549	13.103	1607.829	1224.374
70.563	13.095	1606.945	1223.534
71.578	13.074	1605.080	1221.845
72.593	13.105	1603.795	1220.988
73.607	13.047	1603.360	1220.123
74.622	13.062	1601.918	1219.024
75.636	12.973	1601.578	1218.004
76.651	13.005	1600.215	1217.093
77.666	12.972	1599.611	1216.285
78.680	13.014	1598.873	1215.929
79.695	13.090	1597.656	1215.455
80.709	12.999	1596.644	1213.906
81.724	13.105	1595.581	1213.767
82.739	13.138	1595.219	1213.628
83.753	13.139	1594.019	1212.618
84.768	13.260	1593.099	1212.699
85.782	13.261	1592.193	1211.905
86.797	13.276	1591.462	1211.357
87.812	13.299	1590.335	1210.556
88.826	13.267	1589.017	1209.210
89.841	13.228	1588.048	1208.083
90.855	13.258	1587.020	1207.410
91.870	13.282	1585.959	1206.676
92.884	13.239	1585.387	1205.819
93.899	13.330	1583.982	1205.304
94.914	13.406	1582.356	1204.517
95.928	13.446	1581.489	1204.041
96.943	13.392	1580.216	1202.575
97.957	13.380	1579.023	1201.471
98.972	13.371	1577.498	1200.140
99.987	13.372	1576.027	1198.919
101.001	13.406	1574.341	1197.775
102.016	13.365	1573.058	1196.399
103.030	13.304	1571.806	1194.899
104.045	13.423	1570.558	1194.703
105.060	13.421	1568.875	1193.308
106.074	13.313	1567.560	1191.422
107.089	13.247	1565.888	1189.573
108.103	13.168	1564.524	1187.861
109.118	13.082	1563.160	1186.102
110.133	13.113	1561.851	1185.227
111.147	13.144	1560.663	1184.440
112.162	13.174	1559.293	1183.515
113.176	13.190	1557.746	1182.350
114.191	13.166	1556.660	1181.246
115.206	13.250	1555.644	1180.975
116.220	13.225	1554.415	1179.756
117.235	13.218	1552.862	1178.422
118.249	13.216	1551.553	1177.315
119.264	13.263	1550.466	1176.719
120.279	13.274	1549.021	1175.594
121.293	13.249	1547.730	1174.333
122.308	13.138	1546.761	1172.703
123.322	13.122	1544.910	1171.088
124.337	13.081	1543.789	1169.839
125.352	13.175	1542.213	1169.208
126.366	13.121	1541.534	1168.207
127.381	13.139	1540.249	1167.260
128.395	13.149	1539.164	1166.406
129.410	13.112	1537.655	1164.896
130.424	13.169	1536.441	1164.277
131.439	13.198	1534.945	1163.243
132.454	13.211	1533.817	1162.378
133.468	13.283	1532.240	1161.586
134.483	13.280	1530.438	1160.091
135.497	13.278	1529.438	1159.216
136.512	13.302	1528.533	1158.597
137.527	13.268	1526.783	1156.936
138.541	13.290	1525.654	1156.127
139.556	13.326	1523.966	1155.000
140.570	13.331	1522.655	1153.941
141.585	13.384	1521.337	1153.209
142.600	13.364	1520.297	1152.180
143.614	13.468	1518.807	1151.668
144.629	13.459	1517.690	1150.658
145.643	13.571	1515.836	1149.928
146.658	13.529	1515.047	1148.936
147.673	13.405	1513.673	1146.935
148.687	13.455	1512.052	1145.950
149.702	13.418	1510.859	1144.690
150.716	13.446	1509.101	1143.450
151.731	13.401	1507.684	1141.962
152.746	13.411	1506.257	1140.851
153.760	13.395	1504.520	1139.325
154.775	13.446	1503.686	1138.945
155.789	13.471	1502.571	1138.166
156.804	13.494	1501.215	1137.198
157.819	13.444	1500.225	1136.007
158.833	13.557	1498.794	1135.596
159.848	13.520	1497.452	1134.222
160.862	13.634	1496.533	1134.212
161.877	13.705	1495.243	1133.619
162.892	13.633	1494.214	1132.241
163.906	13.501	1493.280	1130.537
164.921	13.431	1491.836	1128.867
165.935	13.488	1490.583	1128.203
166.950	13.442	1489.802	1127.200
167.964	13.523	1488.754	1126.859
168.979	13.599	1487.102	1126.024
169.994	13.630	1486.170	1125.428
171.008	13.583	1485.287	1124.343
172.023	13.617	1483.869	1123.400
173.037	13.654	1482.956	1122.860
174.052	13.703	1481.694	1122.137
175.067	13.714	1480.445	1121.167
176.081	13.738	1479.119	1120.229
177.096	13.625	1478.276	1118.722
178.110	13.435	1477.232	1116.551
179.125	13.582	1475.907	1116.448
180.140	13.617	1474.683	1115.659
181.154	13.781	1473.612	1115.848
182.169	13.639	1472.688	1114.100
183.183	13.662	1471.708	1113.411
184.198	13.784	1470.242	1113.026
185.213	13.766	1469.291	1112.087
186.227	13.825	1468.637	1111.888
187.242	13.865	1467.341	1111.071
188.256	13.815	1466.315	1109.861
189.271	13.920	1465.281	1109.682
190.286	13.856	1464.510	1108.573
191.300	13.877	1463.022	1107.489
192.315	13.733	1461.785	1105.497
193.329	13.673	1460.201	1103.799
194.344	13.630	1459.189	1102.655
195.359	13.699	1458.195	1102.261
196.373	13.688	1457.799	1101.792
197.388	13.841	1456.342	1101.612
198.402	13.873	1455.507	1101.092
199.417	13.965	1454.428	1100.791
200.432	13.892	1453.471	1099.481
201.446	14.012	1452.336	1099.324
202.461	14.144	1450.867	1098.983
203.475	14.116	1450.198	1098.198
204.490	14.091	1449.235	1097.203
205.504	14.121	1448.441	1096.703
206.519	14.079	1447.289	1095.458
207.534	14.058	1446.123	1094.342
208.548	14.080	1444.257	1092.976
209.563	14.065	1443.299	1092.057
210.577	14.102	1442.450	1091.563
211.592	14.058	1442.002	1090.836
212.607	14.097	1441.361	1090.508
213.621	14.144	1440.674	1090.202
214.636	14.236	1439.611	1089.905
215.650	14.159	1438.583	1088.524
216.665	14.298	1437.224	1088.306
217.680	14.173	1437.207	1087.384
218.694	14.175	1436.559	1086.810
219.709	14.251	1435.287	1086.244
220.723	14.233	1434.451	1085.403
221.738	14.307	1432.901	1084.612
222.753	14.305	1432.523	1084.217
223.767	14.354	1431.421	1083.606
224.782	14.284	1430.369	1082.259
225.796	14.327	1429.545	1081.817
226.811	14.421	1428.439	1081.496
227.826	14.438	1428.028	1081.204
228.840	14.419	1427.285	1080.419
229.855	14.326	1426.395	1079.049
230.869	14.301	1425.361	1078.008
231.884	14.358	1424.261	1077.451
232.899	14.456	1422.898	1076.958
233.913	14.354	1422.158	1075.642
234.928	14.384	1420.727	1074.660
235.942	14.321	1419.717	1073.395
236.957	14.400	1418.074	1072.566
237.972	14.328	1417.199	1071.344
238.986	14.392	1415.710	1070.533
240.001	14.294	1415.683	1069.791
241.015	14.396	1414.369	1069.355
242.030	14.431	1413.089	1068.520
243.045	14.384	1412.409	1067.612
244.059	14.480	1411.054	1067.109
245.074	14.441	1410.583	1066.405
246.088	14.486	1409.836	1066.031
247.103	14.554	1409.095	1065.817
248.117	14.506	1408.405	1064.893
249.132	14.628	1407.391	1064.811
250.147	14.583	1407.227	1064.306
251.161	14.707	1406.494	1064.446
252.176	14.830	1405.519	1064.395
253.190	14.997	1404.314	1064.451
254.205	14.899	1403.842	1063.374
255.220	15.014	1402.646	1063.104
256.234	14.946	1402.122	1062.186
257.249	14.976	1401.322	1061.674
258.263	14.940	1400.457	1060.698
259.278	14.887	1399.654	1059.661
260.293	14.932	1398.517	1058.992
261.307	15.040	1397.977	1059.169
262.322	15.030	1397.010	1058.281
263.336	14.973	1396.440	1057.396
264.351	15.061	1394.906	1056.697
265.366	15.051	1394.269	1056.057
266.380	15.068	1393.696	1055.638
267.395	15.111	1392.544	1054.942
268.409	15.117	1391.637	1054.199
269.424	15.104	1390.814	1053.403
270.439	15.179	1389.585	1052.845
271.453	15.194	1388.334	1051.901
272.468	15.061	1387.994	1050.714
273.482	15.122	1386.841	1050.130
274.497	15.079	1386.421	1049.453
275.512	15.102	1385.273	1048.631
276.526	15.124	1384.480	1048.075
277.541	15.153	1383.640	1047.528
278.555	15.174	1382.767	1046.911
279.570	15.184	1381.859	1046.189
280.585	15.232	1381.214	1045.909
281.599	15.261	1380.405	1045.385
282.614	15.279	1379.347	1044.607
283.628	15.267	1378.205	1043.573
284.643	15.152	1377.435	1042.181
285.657	15.257	1376.063	1041.703
286.672	15.268	1374.939	1040.831
287.687	15.230	1374.319	1040.033
288.701	15.168	1373.663	1039.061
289.716	15.252	1373.027	1039.008
290.730	15.343	1371.694	1038.469
291.745	15.286	1370.661	1037.241
292.760	15.244	1369.574	1036.069
293.774	15.367	1368.661	1036.047
294.789	15.461	1367.514	1035.663
295.803	15.514	1366.891	1035.427
296.818	15.574	1365.919	1034.968
297.833	15.518	1364.693	1033.603
298.847	15.458	1364.112	1032.705
299.862	15.465	1362.982	1031.802
300.876	15.437	1362.149	1030.907
301.891	15.549	1360.979	1030.620
302.906	15.585	1360.510	1030.390
303.920	15.605	1359.919	1029.976
304.935	15.591	1359.137	1029.208
305.949	15.607	1358.638	1028.837
306.964	15.629	1357.761	1028.212
307.979	15.671	1357.019	1027.821
308.993	15.668	1355.699	1026.708
310.008	15.721	1354.672	1026.164
311.022	15.743	1354.286	1025.915
312.037	15.776	1352.860	1024.949
313.052	15.860	1351.516	1024.348
314.066	15.728	1351.142	1023.171
315.081	15.674	1350.041	1021.918
316.095	15.631	1349.168	1020.907
317.110	15.675	1348.118	1020.291
318.125	15.771	1346.752	1019.746
319.139	15.667	1345.813	1018.312
320.154	15.681	1344.876	1017.599
321.168	15.753	1343.774	1017.110
322.183	15.774	1343.043	1016.599
323.197	15.654	1342.343	1015.250
324.212	15.701	1341.356	1014.698
325.227	15.835	1340.516	1014.785
326.241	15.790	1339.481	1013.639
327.256	15.808	1338.786	1013.129
328.270	15.805	1337.955	1012.396
329.285	15.700	1337.354	1011.220
330.300	15.852	1336.497	1011.392
331.314	15.739	1335.563	1009.918
332.329	15.810	1334.489	1009.446
333.343	15.833	1333.420	1008.681
334.358	15.850	1332.725	1008.167
335.373	15.884	1332.135	1007.837
336.387	15.919	1331.737	1007.660
337.402	16.015	1330.544	1007.237
338.416	15.931	1330.163	1006.360
339.431	15.920	1329.886	1005.997
340.446	15.997	1328.904	1005.623
341.460	16.065	1327.279	1004.707
342.475	16.093	1326.557	1004.241
343.489	16.154	1325.965	1004.069
344.504	16.195	1324.393	1003.032
345.519	16.157	1323.787	1002.261
346.533	16.213	1323.203	1002.060
347.548	16.279	1322.461	1001.802
348.562	16.215	1321.434	1000.557
349.577	16.268	1320.776	1000.284
350.592	16.198	1319.866	999.089
351.606	16.235	1318.969	998.544
352.621	16.224	1317.656	997.392
353.635	16.166	1316.730	996.262
354.650	16.096	1316.233	995.387
355.665	16.125	1315.007	994.541
356.679	16.277	1313.625	994.303
357.694	16.252	1312.838	993.474
358.708	16.221	1312.224	992.736
359.723	16.315	1311.203	992.428
360.738	16.368	1309.627	991.460
361.752	16.278	1309.006	990.374
362.767	16.386	1308.053	990.200
363.781	16.396	1307.125	989.464
364.796	16.364	1306.707	988.877
365.810	16.421	1305.565	988.255
366.825	16.467	1304.737	987.809
367.840	16.451	1304.051	987.112
368.854	16.635	1303.310	987.536
369.869	16.565	1302.839	986.687
370.883	16.636	1302.342	986.638
371.898	16.591	1301.527	985.670
372.913	16.540	1300.810	984.740
373.927	16.491	1300.044	983.790
374.942	16.564	1299.028	983.360
375.956	16.753	1298.030	983.614
376.971	16.623	1297.380	982.278
377.986	16.610	1296.641	981.556
379.000	16.682	1295.750	981.210
380.015	16.796	1294.578	980.897
381.029	16.757	1293.955	980.112
382.044	16.787	1293.666	979.984
383.059	16.770	1293.091	979.363
384.073	16.842	1292.210	979.020
385.088	16.808	1291.612	978.286
386.102	16.801	1291.145	977.805
387.117	16.899	1289.897	977.339
388.132	16.873	1289.099	976.499
389.146	16.852	1288.486	975.825
390.161	16.683	1287.708	974.179
391.175	16.797	1286.731	974.012
392.190	16.750	1286.045	973.135
393.205	16.906	1285.196	973.303
394.219	16.884	1284.389	972.478
395.234	16.946	1282.938	971.650
396.248	16.925	1281.855	970.620
397.263	16.957	1280.429	969.639
398.278	16.909	1279.015	968.207
399.292	16.907	1278.159	967.463
400.307	16.885	1277.007	966.382
401.321	16.903	1276.041	965.665
402.336	16.798	1275.449	964.537
403.350	17.004	1274.192	964.673
404.365	16.827	1273.317	962.915
405.380	16.969	1272.284	962.858
406.394	16.990	1271.664	962.423
407.409	17.048	1270.686	961.926
408.423	17.032	1270.221	961.399
409.438	17.083	1269.773	961.264
410.453	17.102	1268.955	960.668
411.467	17.101	1268.328	960.100
412.482	17.125	1267.901	959.826
413.496	17.276	1266.748	959.719
414.511	17.221	1266.047	958.794
415.526	17.242	1265.550	958.452
416.540	17.244	1264.727	957.753
417.555	17.248	1263.899	957.067
418.569	17.315	1263.420	956.995
419.584	17.385	1263.050	957.023
420.599	17.381	1262.077	956.179
421.613	94.384	1349.871	1462.571
422.628	91.878	1362.644	1462.657
