DTS Sentinel unit serial number:	SN413079Multiplexer serial number:	ORYXHardware model number:	OX4-SRSoftware version number:	ORYX F/W v4.00 Oryx Data Collector v3.7.2.0data status	okinstallation	princeton_trtdifferential loss correction	single-endedforward channel	channel 4reverse channel	N/Adate	2019/09/15time	02:57:35forward acquisition time	60.00reverse acquisition time	0.00gamma	496.2192k internal	0.2310k external	0.2310temperature offset calibration	1.0033default loss term (dB/km)	0.3790temperature slope calibration	1.0000multiplexer offset coefficient	1.0000multiplexer slope coefficient	1.0000fibre end	0.00T internal ref (°C)	31.25T ext. ref 1 (°C)	4.56T ext. ref 2 (°C)	25.66length (m)	temperature (°C)	Stokes	anti-Stokes-747.200	98.650	0.146	0.171
-746.185	-77.116	-0.206	-0.073
-745.171	14.496	-0.237	-0.188
-744.156	80.719	0.151	-0.165
-743.142	-131.355	-0.112	0.015
-742.127	-200.000	0.020	0.173
-741.112	-200.000	-0.001	0.317
-740.098	-141.454	-0.042	-0.004
-739.083	-200.000	-0.027	-0.192
-738.069	-200.000	0.030	0.229
-737.054	-43.715	0.146	-0.075
-736.039	456.554	-0.147	-0.330
-735.025	231.445	-0.110	0.183
-734.010	-200.000	-0.031	-0.285
-732.996	-86.779	-0.436	0.135
-731.981	233.450	-0.099	-0.166
-730.966	304.688	0.031	-0.059
-729.952	-188.339	-0.209	0.003
-728.937	35.075	-0.290	0.257
-727.923	112.551	-0.107	0.132
-726.908	120.023	-0.249	0.313
-725.894	-98.993	0.091	-0.023
-724.879	96.789	0.138	0.160
-723.864	800.000	-0.118	0.443
-722.850	-144.483	-0.097	-0.009
-721.835	-153.924	-0.368	-0.025
-720.821	440.905	-0.127	-0.283
-719.806	206.900	-0.154	-0.244
-718.791	2.944	-0.289	0.213
-717.777	-40.643	0.175	0.092
-716.762	800.000	-0.068	-0.289
-715.748	100.564	-0.276	-0.326
-714.733	114.257	0.325	-0.401
-713.718	-7.151	0.345	0.237
-712.704	21.372	0.137	0.113
-711.689	133.111	-0.285	0.374
-710.675	13.950	-0.294	0.232
-709.660	202.211	-0.054	-0.085
-708.645	-200.000	-0.008	0.253
-707.631	129.759	0.220	-0.285
-706.616	-200.000	-0.015	0.090
-705.602	-99.115	0.429	0.110
-704.587	76.431	-0.064	-0.069
-703.572	-178.981	0.136	-0.003
-702.558	180.069	-0.206	0.306
-701.543	-200.000	-0.026	0.220
-700.529	27.733	0.171	-0.146
-699.514	-200.000	-0.013	0.182
-698.499	92.773	0.083	-0.095
-697.485	26.249	0.184	0.156
-696.470	-87.479	-0.421	0.129
-695.456	-54.362	0.416	0.191
-694.441	148.471	0.019	-0.026
-693.426	-200.000	0.003	0.075
-692.412	447.305	0.220	-0.492
-691.397	-200.000	-0.016	-0.307
-690.383	315.548	-0.102	-0.195
-689.368	-36.236	-0.137	0.075
-688.354	-102.312	0.038	-0.009
-687.339	12.381	-0.312	-0.244
-686.324	800.000	-0.172	0.499
-685.310	-14.816	0.069	0.045
-684.295	800.000	0.048	-0.206
-683.281	-200.000	-0.034	0.398
-682.266	293.121	-0.064	-0.119
-681.251	-117.390	-0.348	0.064
-680.237	582.476	-0.054	0.134
-679.222	-8.624	0.223	-0.151
-678.208	-88.497	-0.577	0.174
-677.193	-107.626	-0.143	-0.032
-676.178	-200.000	0.004	0.434
-675.164	194.369	-0.188	-0.289
-674.149	800.000	-0.108	-0.351
-673.135	67.174	0.097	-0.101
-672.120	55.194	-0.224	-0.220
-671.105	-58.441	0.098	-0.043
-670.091	74.015	0.094	-0.100
-669.076	9.272	0.207	0.159
-668.062	27.534	0.121	0.103
-667.047	-70.474	-0.368	-0.141
-666.032	-200.000	-0.028	0.207
-665.018	-29.842	-0.230	-0.133
-664.003	94.221	0.318	0.366
-662.989	586.641	0.087	-0.217
-661.974	120.634	0.084	0.106
-660.959	187.545	0.175	-0.264
-659.945	-200.000	0.006	0.274
-658.930	-73.754	-0.162	0.060
-657.916	182.288	-0.103	0.154
-656.901	249.892	0.176	-0.303
-655.886	-200.000	-0.012	-0.265
-654.872	377.622	0.043	0.089
-653.857	-200.000	0.004	-0.329
-652.843	191.384	0.204	-0.310
-651.828	-165.439	0.092	-0.004
-650.814	-23.914	-0.418	-0.253
-649.799	-43.544	-0.165	-0.084
-648.784	-84.048	-0.035	0.011
-647.770	-200.000	0.038	0.272
-646.755	-9.153	0.315	0.213
-645.741	800.000	0.076	-0.249
-644.726	-130.550	-0.169	0.023
-643.711	-102.275	-0.211	-0.051
-642.697	-41.965	-0.174	0.090
-641.682	-84.831	0.162	-0.051
-640.668	-200.000	-0.029	0.465
-639.653	-33.174	-0.269	0.151
-638.638	-28.935	-0.143	-0.083
-637.624	-10.665	0.150	0.100
-636.609	-200.000	0.022	-0.151
-635.595	-38.986	-0.425	-0.226
-634.580	-200.000	-0.003	-0.035
-633.565	800.000	-0.054	-0.186
-632.551	289.689	0.109	0.201
-631.536	-40.565	-0.222	-0.116
-630.522	47.966	0.058	0.054
-629.507	-151.594	-0.156	-0.012
-628.492	-200.000	0.008	-0.195
-627.478	-23.387	-0.174	-0.105
-626.463	800.000	0.077	0.247
-625.449	391.340	-0.072	0.152
-624.434	93.992	-0.142	-0.163
-623.419	-200.000	0.099	-0.466
-622.405	380.329	0.100	0.207
-621.390	-200.000	-0.036	0.306
-620.376	165.268	-0.101	0.145
-619.361	-107.645	-0.269	-0.059
-618.346	-200.000	0.044	0.222
-617.332	-143.067	-0.374	0.037
-616.317	-38.234	0.230	-0.123
-615.303	348.314	0.047	-0.094
-614.288	-70.736	-0.017	0.007
-613.273	-123.881	0.197	-0.031
-612.259	-81.179	-0.218	-0.073
-611.244	-34.706	-0.323	0.179
-610.230	-200.000	0.060	-0.372
-609.215	71.093	0.158	-0.166
-608.201	215.463	0.021	0.033
-607.186	215.149	0.123	0.197
-606.171	-169.333	-0.231	-0.009
-605.157	-12.579	0.108	-0.071
-604.142	182.584	-0.163	0.243
-603.128	25.579	0.077	0.064
-602.113	-47.907	-0.044	-0.022
-601.098	800.000	-0.040	0.114
-600.084	155.954	0.116	0.161
-599.069	-92.463	0.026	0.007
-598.055	-136.509	0.196	-0.023
-597.040	131.551	0.078	0.101
-596.025	582.025	-0.075	-0.186
-595.011	20.679	0.109	0.089
-593.996	-200.000	-0.057	0.291
-592.982	28.596	-0.168	-0.143
-591.967	-19.629	-0.109	-0.068
-590.952	-200.000	-0.008	-0.392
-589.938	-182.737	0.276	0.005
-588.923	602.004	0.003	-0.009
-587.909	-200.000	0.025	0.191
-586.894	-26.936	0.144	-0.085
-585.879	-200.000	-0.004	0.024
-584.865	36.476	0.089	-0.079
-583.850	281.386	-0.166	-0.299
-582.836	-200.000	-0.039	-0.198
-581.821	-93.933	0.398	-0.110
-580.806	800.000	0.096	0.315
-579.792	800.000	-0.024	-0.081
-578.777	79.789	0.134	-0.145
-577.763	800.000	-0.143	-0.412
-576.748	88.041	-0.228	0.255
-575.733	-43.360	-0.090	-0.046
-574.719	86.959	0.075	-0.083
-573.704	101.421	-0.100	-0.118
-572.690	536.198	0.034	0.082
-571.675	-75.306	-0.197	0.071
-570.661	78.100	-0.059	0.064
-569.646	-29.181	-0.279	-0.161
-568.631	106.029	-0.199	-0.237
-567.617	90.642	0.131	-0.148
-566.602	-18.415	-0.046	-0.029
-565.588	-10.650	0.214	0.143
-564.573	-200.000	-0.008	0.140
-563.558	-200.000	0.038	0.196
-562.544	-133.369	0.316	-0.040
-561.529	-52.610	0.099	-0.046
-560.515	-75.295	0.253	0.091
-559.500	45.409	0.392	-0.365
-558.485	-200.000	0.045	-0.284
-557.471	-50.670	0.114	-0.054
-556.456	-200.000	-0.006	0.131
-555.442	-75.149	0.151	0.054
-554.427	-200.000	-0.001	0.039
-553.412	-2.766	0.036	-0.025
-552.398	325.837	0.166	-0.320
-551.383	602.661	-0.076	0.192
-550.369	396.498	0.086	-0.180
-549.354	-28.887	-0.367	-0.213
-548.339	-55.235	-0.060	0.027
-547.325	-56.665	0.351	-0.157
-546.310	-148.556	-0.082	0.007
-545.296	-200.000	-0.002	0.254
-544.281	-94.896	0.267	-0.073
-543.266	92.983	-0.173	-0.197
-542.252	81.808	0.273	-0.298
-541.237	14.674	0.159	-0.125
-540.223	75.205	0.180	-0.191
-539.208	-57.487	0.064	-0.028
-538.193	-200.000	0.031	0.226
-537.179	-72.881	-0.070	0.026
-536.164	800.000	-0.056	-0.206
-535.150	-120.906	-0.121	-0.020
-534.135	-5.992	-0.054	0.037
-533.121	-96.339	-0.182	0.048
-532.106	323.509	-0.095	0.183
-531.091	-200.000	-0.023	0.142
-530.077	50.301	-0.069	0.066
-529.062	87.405	0.178	-0.198
-528.048	315.691	-0.136	0.258
-527.033	632.486	-0.038	-0.097
-526.018	528.241	0.087	0.206
-525.004	-35.345	0.250	-0.137
-523.989	262.089	-0.114	0.198
-522.975	364.330	0.156	0.316
-521.960	-93.024	-0.107	0.030
-520.945	-200.000	-0.003	0.109
-519.931	310.352	0.040	-0.076
-518.916	166.235	0.020	0.029
-517.902	-53.688	-0.236	0.109
-516.887	-200.000	0.032	-0.142
-515.872	800.000	-0.037	-0.145
-514.858	-117.484	0.191	0.035
-513.843	155.704	-0.202	0.280
-512.829	691.489	-0.092	0.243
-511.814	64.706	-0.227	-0.230
-510.799	-200.000	-0.011	0.263
-509.785	-200.000	-0.009	0.071
-508.770	-200.000	-0.012	0.356
-507.756	-141.362	0.076	-0.008
-506.741	-115.052	0.213	-0.041
-505.726	-64.824	-0.275	0.112
-504.712	211.227	-0.155	-0.246
-503.697	-84.221	0.060	-0.019
-502.683	-45.024	-0.362	0.181
-501.668	800.000	0.096	0.293
-500.653	197.234	-0.080	0.122
-499.639	-22.703	0.569	-0.346
-498.624	140.416	0.159	0.211
-497.610	-3.914	-0.045	0.031
-496.595	186.367	0.179	0.268
-495.581	248.033	-0.055	-0.093
-494.566	-89.499	0.061	-0.018
-493.551	455.837	-0.156	0.348
-492.537	-200.000	0.034	0.370
-491.522	78.638	0.084	-0.090
-490.508	-200.000	-0.059	-0.359
-489.493	-88.281	-0.167	-0.050
-488.478	-200.000	0.002	-0.146
-487.464	-70.879	0.240	0.091
-486.449	-200.000	0.007	-0.162
-485.435	731.964	-0.030	-0.082
-484.420	-2.080	-0.182	-0.129
-483.405	264.818	-0.091	-0.159
-482.391	-117.413	-0.043	0.008
-481.376	280.080	-0.027	-0.049
-480.362	172.742	0.060	-0.087
-479.347	62.428	0.475	0.477
-478.332	-200.000	0.006	0.180
-477.318	-24.539	-0.166	0.099
-476.303	152.287	-0.087	-0.119
-475.289	141.822	-0.107	-0.142
-474.274	-127.863	-0.035	-0.005
-473.259	-98.312	0.349	-0.090
-472.245	-75.217	0.164	0.059
-471.230	-156.993	0.119	0.007
-470.216	-200.000	-0.008	-0.253
-469.201	226.017	0.153	0.250
-468.186	800.000	0.011	-0.041
-467.172	-200.000	-0.004	0.159
-466.157	88.558	-0.175	0.195
-465.143	22.458	-0.160	0.131
-464.128	193.768	0.058	-0.088
-463.113	610.880	0.077	-0.194
-462.099	-200.000	-0.008	-0.168
-461.084	-63.344	0.072	-0.030
-460.070	-95.707	-0.502	0.135
-459.055	96.543	0.116	-0.134
-458.040	-107.111	0.291	-0.064
-457.026	-200.000	-0.042	-0.380
-456.011	-147.709	0.201	-0.017
-454.997	169.004	0.128	0.183
-453.982	-9.655	-0.092	-0.061
-452.968	404.438	0.191	-0.404
-451.953	21.557	0.093	0.076
-450.938	-31.083	0.284	0.161
-449.924	222.736	0.119	-0.192
-448.909	-30.512	0.202	0.115
-447.895	-37.815	-0.051	0.027
-446.880	118.637	-0.165	0.205
-445.865	-85.943	-0.031	0.010
-444.851	-200.000	0.005	-0.194
-443.836	-167.270	-0.198	0.008
-442.822	-104.312	-0.209	-0.049
-441.807	38.747	0.101	-0.090
-440.792	-28.479	-0.272	0.158
-439.778	58.908	-0.152	-0.150
-438.763	-156.625	-0.333	0.021
-437.749	-46.334	-0.171	-0.084
-436.734	-83.268	-0.267	-0.086
-435.719	45.995	0.026	0.024
-434.705	-56.867	0.523	-0.232
-433.690	-63.908	-0.325	-0.133
-432.676	-79.324	-0.430	0.146
-431.661	107.235	-0.210	0.251
-430.646	-127.999	0.027	-0.004
-429.632	-180.079	0.488	-0.010
-428.617	184.369	0.125	0.186
-427.603	35.532	0.180	0.158
-426.588	25.119	0.252	-0.210
-425.573	445.379	0.039	-0.085
-424.559	-200.000	-0.078	0.352
-423.544	-200.000	0.005	0.450
-422.530	-200.000	-0.019	0.195
-421.515	777.089	0.090	-0.246
-420.500	-172.830	0.221	-0.007
-419.486	334.388	0.071	-0.138
-418.471	208.047	0.121	-0.190
-417.457	800.000	-0.059	-0.246
-416.442	94.212	-0.051	-0.058
-415.428	67.013	0.216	-0.221
-414.413	-81.221	-0.630	0.209
-413.398	-85.277	-0.190	-0.059
-412.384	107.784	-0.210	-0.251
-411.369	-83.497	0.356	0.114
-410.355	-5.574	0.323	-0.222
-409.340	800.000	0.085	-0.333
-408.325	86.436	-0.068	0.076
-407.311	-120.209	-0.401	-0.069
-406.296	33.563	0.145	0.127
-405.282	-4.004	-0.260	-0.181
-404.267	-200.000	-0.047	0.207
-403.252	-9.853	0.188	0.125
-402.238	-84.875	-0.214	0.067
-401.223	92.818	-0.263	-0.298
-400.209	-83.707	0.251	0.080
-399.194	-169.960	0.240	-0.009
-398.179	-3.701	-0.180	0.125
-397.165	-113.245	0.144	-0.028
-396.150	55.947	0.198	0.192
-395.136	-0.392	-0.188	-0.134
-394.121	-44.164	0.248	-0.124
-393.106	-46.996	-0.231	-0.113
-392.092	301.144	0.137	-0.253
-391.077	-87.798	-0.321	-0.097
-390.063	758.436	-0.042	-0.115
-389.048	-200.000	-0.002	0.124
-388.033	-184.419	-0.277	0.005
-387.019	12.187	-0.180	-0.139
-386.004	-49.909	0.324	0.154
-384.990	20.524	-0.174	0.141
-383.975	800.000	0.095	-0.347
-382.960	800.000	0.044	0.167
-381.946	295.293	-0.094	0.172
-380.931	-154.035	0.052	0.004
-379.917	288.493	0.054	-0.097
-378.902	-115.192	-0.503	0.095
-377.888	-200.000	0.021	0.374
-376.873	-200.000	-0.012	-0.104
-375.858	792.953	-0.044	-0.121
-374.844	-157.841	0.307	-0.018
-373.829	392.107	-0.082	0.170
-372.815	39.854	0.077	-0.069
-371.800	4.788	0.372	0.274
-370.785	175.128	-0.083	0.121
-369.771	182.418	-0.144	0.212
-368.756	-200.000	-0.005	0.078
-367.742	-200.000	-0.026	0.132
-366.727	444.235	-0.075	-0.165
-365.712	-111.932	-0.173	-0.035
-364.698	-111.085	0.164	0.034
-363.683	-200.000	0.010	-0.064
-362.669	-62.193	-0.121	0.051
-361.654	150.620	0.233	0.317
-360.639	-0.204	-0.208	-0.148
-359.625	-149.714	0.300	0.024
-358.610	-112.481	-0.110	-0.022
-357.596	-200.000	0.018	-0.126
-356.581	-69.884	-0.082	0.031
-355.566	-64.252	0.306	0.125
-354.552	61.701	-0.051	0.051
-353.537	29.066	-0.209	0.177
-352.523	-200.000	0.007	0.277
-351.508	154.166	0.150	-0.206
-350.493	-200.000	-0.034	0.150
-349.479	745.625	0.054	0.146
-348.464	-123.805	-0.231	-0.036
-347.450	98.750	0.266	0.307
-346.435	-158.770	0.073	0.004
-345.420	800.000	-0.117	0.368
-344.406	-94.334	-0.180	-0.049
-343.391	-90.275	0.021	0.006
-342.377	141.333	-0.072	0.096
-341.362	84.937	0.179	0.196
-340.348	-83.349	-0.443	0.142
-339.333	-200.000	0.083	-0.383
-338.318	-82.472	-0.285	-0.093
-337.304	-85.689	-0.249	0.077
-336.289	62.755	0.273	0.273
-335.275	194.317	-0.112	0.169
-334.260	-4.052	-0.108	0.075
-333.245	128.325	-0.125	-0.159
-332.231	-160.133	-0.197	-0.011
-331.216	91.545	0.166	0.186
-330.202	-200.000	-0.044	-0.245
-329.187	-108.518	0.152	0.033
-328.172	46.896	0.013	0.012
-327.158	-200.000	0.003	-0.060
-326.143	63.745	-0.062	0.063
-325.129	347.468	-0.128	-0.253
-324.114	213.216	0.097	-0.153
-323.099	-161.329	-0.182	0.009
-322.085	22.635	0.159	0.130
-321.070	7.881	0.333	-0.249
-320.056	-200.000	-0.023	0.104
-319.041	-200.000	-0.047	0.336
-318.026	-66.395	-0.083	-0.033
-317.012	-180.338	-0.103	0.002
-315.997	136.749	-0.115	0.150
-314.983	800.000	0.073	0.219
-313.968	-1.442	-0.576	0.406
-312.953	-200.000	0.055	0.253
-311.939	27.386	0.195	-0.164
-310.924	398.624	0.088	0.184
-309.910	38.950	0.118	-0.105
-308.895	-142.283	0.279	0.028
-307.880	-52.517	0.117	-0.054
-306.866	200.108	-0.093	0.143
-305.851	51.201	0.145	0.137
-304.837	-13.036	0.245	-0.159
-303.822	-200.000	0.000	-0.350
-302.807	-164.366	0.209	0.010
-301.793	-19.467	0.167	-0.103
-300.778	-200.000	-0.062	-0.356
-299.764	194.631	-0.092	-0.139
-298.749	-177.330	0.394	-0.010
-297.735	345.798	-0.174	0.341
-296.720	-54.729	-0.230	-0.104
-295.705	-31.231	0.198	-0.111
-294.691	255.361	-0.063	-0.107
-293.676	36.239	0.194	-0.170
-292.662	516.875	-0.042	-0.097
-291.647	-25.481	-0.119	-0.070
-290.632	-148.559	-0.238	0.019
-289.618	272.702	0.189	-0.333
-288.603	200.055	0.186	-0.285
-287.589	-46.485	0.076	-0.037
-286.574	-200.000	-0.007	0.057
-285.559	-64.086	-0.176	-0.072
-284.545	29.133	0.120	-0.102
-283.530	-200.000	0.018	0.079
-282.516	502.582	0.086	0.199
-281.501	149.209	0.152	-0.205
-280.486	-86.126	0.590	0.182
-279.472	-98.228	0.137	0.035
-278.457	-42.015	-0.174	0.089
-277.443	-119.249	0.461	0.080
-276.428	44.291	-0.097	0.089
-275.413	-99.185	-0.308	0.078
-274.399	114.001	-0.149	-0.180
-273.384	-43.315	0.057	-0.029
-272.370	-108.309	-0.158	0.034
-271.355	-68.601	0.194	-0.075
-270.340	-88.681	-0.139	-0.041
-269.326	-131.798	-0.194	-0.025
-268.311	165.649	-0.161	-0.228
-267.297	264.310	0.068	0.117
-266.282	800.000	0.020	-0.059
-265.267	-109.892	-0.122	-0.025
-264.253	-161.864	0.198	-0.010
-263.238	134.637	0.101	0.131
-262.224	-37.799	0.123	0.065
-261.209	94.381	-0.296	0.335
-260.195	657.459	0.172	-0.442
-259.180	-120.469	-0.373	0.063
-258.165	218.529	-0.255	-0.405
-257.151	80.169	-0.217	-0.233
-256.136	-66.067	0.260	0.104
-255.122	69.526	0.247	-0.253
-254.107	800.000	-0.058	0.181
-253.092	-50.648	0.337	0.158
-252.078	-140.221	0.278	-0.029
-251.063	-124.006	0.324	-0.051
-250.049	32.112	0.145	0.124
-249.034	-119.158	-0.466	-0.081
-248.019	488.759	0.062	-0.140
-247.005	89.826	-0.131	0.146
-245.990	127.102	0.233	0.294
-244.976	-184.452	0.183	0.003
-243.961	-0.731	-0.179	0.126
-242.946	-32.905	-0.103	0.057
-241.932	395.046	-0.051	0.106
-240.917	8.292	0.212	0.158
-239.903	-103.295	0.042	-0.010
-238.888	-101.937	0.079	0.019
-237.873	-148.115	-0.055	0.005
-236.859	1.251	-0.242	-0.173
-235.844	53.162	-0.152	-0.145
-234.830	-200.000	-0.019	-0.117
-233.815	-63.315	-0.333	-0.136
-232.800	-41.179	0.074	0.038
-231.786	0.089	-0.072	-0.051
-230.771	312.477	0.240	0.449
-229.757	-200.000	0.053	0.319
-228.742	152.986	0.072	-0.099
-227.727	200.608	0.197	-0.302
-226.713	13.378	-0.226	0.175
-225.698	-8.631	0.253	-0.169
-224.684	-56.209	0.233	-0.103
-223.669	686.037	-0.177	0.461
-222.655	-96.292	-0.346	-0.091
-221.640	108.827	-0.185	-0.220
-220.625	-85.851	0.099	0.031
-219.611	-200.000	-0.009	-0.090
-218.596	148.362	-0.114	0.153
-217.582	-122.224	-0.297	0.048
-216.567	321.623	0.072	-0.136
-215.552	-200.000	0.029	-0.584
-214.538	310.641	-0.134	-0.250
-213.523	49.910	-0.311	0.292
-212.509	31.444	0.014	0.012
-211.494	-182.432	-0.190	0.003
-210.479	407.151	-0.017	-0.037
-209.465	-53.944	-0.270	-0.123
-208.450	248.537	0.108	0.182
-207.436	-81.663	-0.105	0.034
-206.421	567.946	0.107	0.258
-205.406	-46.148	0.064	-0.031
-204.392	275.144	0.147	-0.259
-203.377	-200.000	0.015	0.268
-202.363	800.000	0.104	-0.436
-201.348	-200.000	0.023	0.144
-200.333	25.541	0.097	-0.081
-199.319	-140.027	-0.325	-0.034
-198.304	78.168	0.183	-0.195
-197.290	-147.097	-0.067	0.006
-196.275	-6.932	0.080	0.054
-195.260	193.241	-0.277	-0.417
-194.246	800.000	0.084	0.278
-193.231	456.211	0.065	0.143
-192.217	40.887	0.199	0.179
-191.202	-171.000	-0.432	-0.015
-190.187	-68.956	0.149	0.057
-189.173	639.554	-0.082	-0.208
-188.158	423.389	0.143	0.306
-187.144	11.746	-0.200	0.152
-186.129	270.248	0.100	-0.174
-185.114	800.000	0.136	0.486
-184.100	63.428	0.209	-0.209
-183.085	82.046	0.044	-0.047
-182.071	-200.000	-0.003	0.223
-181.056	-200.000	0.004	-0.207
-180.042	670.682	0.006	-0.017
-179.027	105.233	-0.216	-0.254
-178.012	-62.467	0.107	-0.044
-176.998	63.474	-0.117	-0.116
-175.983	247.604	0.179	0.301
-174.969	272.747	0.158	0.278
-173.954	800.000	0.118	0.464
-172.939	-64.387	0.102	0.041
-171.925	102.700	0.067	0.078
-170.910	108.304	-0.126	-0.150
-169.896	230.965	0.172	0.280
-168.881	-118.373	0.154	0.027
-167.866	-200.000	-0.070	-0.329
-166.852	-12.883	-0.019	0.012
-165.837	-200.000	0.033	-0.168
-164.823	-157.683	0.081	-0.005
-163.808	710.926	-0.045	0.119
-162.793	-36.631	0.077	0.041
-161.779	-200.000	0.032	-0.268
-160.764	112.793	0.235	-0.282
-159.750	544.975	0.066	-0.157
-158.735	-70.433	-0.317	-0.119
-157.720	358.493	-0.128	0.253
-156.706	94.025	-0.066	-0.075
-155.691	-200.000	0.011	0.302
-154.677	-200.000	0.003	-0.095
-153.662	-200.000	0.049	-0.363
-152.647	626.453	-0.084	-0.211
-151.633	-55.464	-0.203	0.090
-150.618	-27.961	0.153	0.088
-149.604	155.908	-0.033	0.046
-148.589	247.201	-0.136	0.229
-147.574	52.695	0.101	0.096
-146.560	213.226	0.091	-0.142
-145.545	-145.525	0.223	0.020
-144.531	-146.874	-0.148	0.013
-143.516	173.960	-0.033	-0.047
-142.502	-86.460	-0.209	0.064
-141.487	400.643	0.033	0.069
-140.472	800.000	0.064	0.264
-139.458	-63.690	-0.210	0.085
-138.443	71.973	0.086	-0.089
-137.429	-200.000	0.042	-0.198
-136.414	800.000	-0.085	0.321
-135.399	-10.786	-0.157	-0.103
-134.385	-200.000	-0.019	0.145
-133.370	-200.000	0.028	0.210
-132.356	233.249	-0.141	0.230
-131.341	-13.241	0.137	-0.088
-130.326	152.590	0.096	0.129
-129.312	206.571	0.185	0.286
-128.297	444.209	-0.054	0.118
-127.283	-200.000	-0.007	0.174
-126.268	108.796	0.150	0.178
-125.253	-163.046	-0.117	-0.006
-124.239	-200.000	-0.002	-0.068
-123.224	7.930	0.169	-0.126
-122.210	-116.371	0.013	-0.002
-121.195	-200.000	0.032	-0.297
-120.180	-163.422	0.077	-0.004
-119.166	-66.875	-0.084	-0.033
-118.151	172.589	-0.075	0.107
-117.137	298.681	0.206	0.375
-116.122	-67.888	-0.217	0.084
-115.107	111.385	-0.252	0.301
-114.093	-88.308	-0.260	0.077
-113.078	38.285	-0.117	-0.103
-112.064	-63.150	-0.212	0.087
-111.049	-200.000	-0.023	0.112
-110.034	-38.163	-0.285	0.150
-109.020	800.000	0.082	-0.322
-108.005	118.784	0.114	-0.140
-106.991	188.711	0.255	-0.378
-105.976	-160.001	0.081	0.004
-104.962	-123.777	0.307	-0.048
-103.947	-200.000	-0.057	-0.387
-102.932	458.756	0.048	-0.106
-101.918	-142.458	0.211	-0.021
-100.903	-75.587	0.252	0.089
-99.889	800.000	0.063	-0.262
-98.874	199.770	0.116	0.176
-97.859	46.646	0.159	-0.146
-96.845	66.077	0.105	-0.105
-95.830	143.226	0.035	-0.046
-94.816	42.531	-0.066	0.060
-93.801	-118.104	0.267	0.047
-92.786	-73.485	0.382	0.138
-91.772	166.974	-0.137	-0.192
-90.757	299.037	0.132	0.240
-89.743	-106.151	-0.200	-0.045
-88.728	-200.000	0.017	-0.168
-87.713	-134.233	0.159	0.019
-86.699	-82.613	-0.089	-0.029
-85.684	-131.922	0.380	0.049
-84.670	229.778	0.130	0.211
-83.655	-100.554	-0.105	-0.026
-82.640	-69.179	0.130	-0.049
-81.626	800.000	-0.052	0.182
-80.611	-200.000	0.076	-0.351
-79.597	732.402	0.058	0.153
-78.582	-200.000	0.021	0.139
-77.567	800.000	0.046	0.158
-76.553	-165.802	0.282	0.012
-75.538	208.629	-0.027	-0.042
-74.524	-136.277	0.068	0.008
-73.509	-200.000	0.018	0.156
-72.494	-71.239	0.093	0.035
-71.480	-200.000	0.010	0.223
-70.465	-113.046	0.304	0.059
-69.451	-91.010	-0.156	0.044
-68.436	-104.983	0.352	-0.080
-67.422	-26.066	0.103	-0.060
-66.407	800.000	-0.041	-0.118
-65.392	139.617	-0.053	-0.069
-64.378	-34.529	-0.264	-0.143
-63.363	234.907	0.136	0.222
-62.349	482.926	0.162	0.364
-61.334	10.216	-0.953	-0.717
-60.319	166.171	0.525	0.736
-59.305	800.000	-0.198	-0.787
-58.290	335.347	0.764	1.465
-57.276	690.856	0.515	1.333
-56.261	-200.000	100.588	611.725
-55.246	589.080	1405.244	3423.712
-54.232	189.396	2594.530	3844.283
-53.217	108.602	2305.624	2722.220
-52.203	37.991	2064.052	1814.369
-51.188	33.042	1977.604	1694.073
-50.173	31.457	1959.707	1664.577
-49.159	47.096	2012.048	1850.475
-48.144	48.155	2030.292	1876.738
-47.130	33.520	1991.033	1709.620
-46.115	31.212	1980.264	1679.569
-45.100	31.120	1977.108	1675.996
-44.086	31.062	1975.010	1673.628
-43.071	31.036	1972.691	1671.363
-42.057	31.034	1970.232	1669.195
-41.042	31.109	1968.213	1668.092
-40.027	31.189	1965.889	1666.769
-39.013	31.179	1964.129	1665.122
-37.998	31.146	1962.605	1663.475
-36.984	31.196	1960.845	1662.355
-35.969	31.240	1958.801	1660.952
-34.954	31.162	1956.991	1658.654
-33.940	31.223	1955.473	1657.846
-32.925	31.269	1953.954	1656.897
-31.911	31.223	1952.553	1655.241
-30.896	31.251	1950.661	1653.820
-29.881	31.267	1949.260	1652.702
-28.867	31.302	1947.593	1651.537
-27.852	31.331	1945.765	1650.179
-26.838	31.326	1943.858	1648.454
-25.823	31.192	1942.624	1646.161
-24.809	31.305	1940.245	1645.074
-23.794	31.314	1938.492	1643.600
-22.779	31.306	1937.095	1642.279
-21.765	31.258	1935.706	1640.615
-20.750	31.287	1933.684	1639.087
-19.736	31.276	1932.024	1637.520
-18.721	31.242	1930.486	1635.859
-17.706	31.324	1929.129	1635.360
-16.692	31.266	1927.133	1633.092
-15.677	31.254	1925.728	1631.735
-14.663	31.296	1924.283	1630.810
-13.648	31.367	1922.880	1630.179
-12.633	31.270	1921.863	1628.401
-11.619	31.271	1920.528	1627.218
-10.604	31.246	1918.856	1625.520
-9.590	31.193	1918.051	1624.308
-8.575	31.203	1916.554	1623.067
-7.560	31.173	1915.250	1621.633
-6.546	31.329	1913.303	1621.278
-5.531	31.260	1912.550	1619.979
-4.517	31.233	1911.316	1618.634
-3.502	31.283	1909.996	1617.884
-2.487	31.306	1908.914	1617.104
-1.473	31.211	1908.219	1615.624
-0.458	31.334	1903.603	1612.721
0.556	30.309	1883.460	1584.031
1.571	26.084	1865.216	1532.741
2.586	22.114	1887.523	1516.743
3.600	21.123	1922.814	1536.246
4.615	20.633	1917.121	1527.261
5.629	16.044	1817.635	1409.582
6.644	8.276	1702.147	1258.846
7.659	4.902	1667.854	1207.265
8.673	4.622	1664.578	1202.627
9.688	4.522	1662.932	1200.559
10.702	4.564	1662.216	1200.257
11.717	4.522	1658.826	1197.380
12.731	4.839	1658.423	1199.423
13.746	10.084	1669.889	1248.197
14.761	16.957	1684.171	1312.108
15.775	19.202	1687.311	1331.814
16.790	18.532	1684.049	1323.950
17.804	17.399	1681.258	1312.904
18.819	16.383	1677.947	1302.373
19.834	15.725	1675.404	1295.216
20.848	15.407	1673.924	1291.511
21.863	15.264	1672.242	1289.002
22.877	15.036	1670.486	1285.782
23.892	14.809	1669.629	1283.260
24.907	14.658	1669.080	1281.567
25.921	14.604	1667.438	1279.779
26.936	14.674	1666.545	1279.521
27.950	14.788	1664.793	1278.932
28.965	14.757	1664.841	1278.618
29.980	14.753	1664.469	1278.194
30.994	14.805	1663.512	1277.739
32.009	14.937	1661.991	1277.465
33.023	15.038	1661.132	1277.464
34.038	15.036	1660.825	1277.098
35.053	14.975	1659.407	1275.432
36.067	15.001	1657.399	1273.972
37.082	14.843	1656.872	1272.255
38.096	14.912	1655.910	1271.926
39.111	14.830	1655.370	1270.778
40.126	14.949	1654.541	1270.927
41.140	14.945	1653.148	1269.720
42.155	14.757	1651.966	1267.273
43.169	14.677	1650.723	1265.599
44.184	14.682	1649.218	1264.368
45.199	14.676	1647.666	1263.025
46.213	14.644	1646.683	1261.915
47.228	14.633	1645.844	1261.083
48.242	14.702	1644.751	1260.654
49.257	14.707	1643.881	1259.912
50.271	14.856	1642.005	1259.485
51.286	14.718	1641.768	1258.153
52.301	14.771	1640.210	1257.246
53.315	14.813	1638.218	1255.923
54.330	14.833	1636.552	1254.684
55.344	14.708	1635.129	1252.547
56.359	14.704	1633.561	1251.205
57.374	14.651	1633.020	1250.282
58.388	14.671	1631.806	1249.387
59.403	14.660	1630.706	1248.354
60.417	14.651	1628.902	1246.799
61.432	14.546	1628.428	1245.537
62.447	14.520	1626.636	1243.865
63.461	14.543	1625.311	1242.914
64.476	14.477	1624.554	1241.733
65.490	14.459	1623.387	1240.598
66.505	14.399	1622.310	1239.218
67.520	14.440	1620.951	1238.377
68.534	14.583	1619.875	1238.502
69.549	14.575	1618.969	1237.639
70.563	14.544	1617.949	1236.523
71.578	14.584	1616.518	1235.614
72.593	14.477	1615.914	1234.256
73.607	14.428	1615.195	1233.235
74.622	14.406	1613.101	1231.366
75.636	14.361	1613.007	1230.852
76.651	14.405	1612.047	1230.333
77.666	14.439	1610.669	1229.422
78.680	14.439	1609.870	1228.704
79.695	14.481	1609.276	1228.451
80.709	14.439	1608.181	1227.201
81.724	14.599	1607.214	1227.529
82.739	14.582	1607.002	1227.131
83.753	14.709	1605.364	1226.710
84.768	14.724	1604.673	1226.183
85.782	14.793	1604.156	1226.182
86.797	14.919	1602.843	1225.992
87.812	14.903	1602.184	1225.267
88.826	14.824	1600.882	1223.584
89.841	14.754	1599.727	1222.079
90.855	14.855	1598.968	1222.132
91.870	14.878	1597.370	1220.966
92.884	14.920	1596.368	1220.402
93.899	14.907	1596.026	1219.936
94.914	14.778	1594.999	1218.099
95.928	14.982	1593.738	1218.520
96.943	14.949	1591.894	1216.762
97.957	14.946	1590.227	1215.360
98.972	14.911	1589.295	1214.286
99.987	14.913	1587.278	1212.652
101.001	14.851	1585.954	1211.080
102.016	14.889	1584.473	1210.121
103.030	14.845	1583.247	1208.756
104.045	14.882	1581.760	1207.785
105.060	14.843	1580.737	1206.613
106.074	14.860	1579.049	1205.338
107.089	14.724	1577.326	1202.937
108.103	14.628	1576.077	1201.187
109.118	14.521	1574.849	1199.374
110.133	14.479	1573.336	1197.816
111.147	14.610	1571.791	1197.472
112.162	14.558	1570.226	1195.804
113.176	14.627	1569.119	1195.350
114.191	14.629	1567.857	1194.294
115.206	14.627	1566.824	1193.391
116.220	14.574	1565.756	1192.090
117.235	14.724	1563.854	1191.607
118.249	14.615	1562.933	1190.026
119.264	14.631	1561.306	1188.794
120.279	14.649	1560.006	1187.824
121.293	14.539	1558.665	1185.915
122.308	14.559	1557.121	1184.783
123.322	14.465	1555.758	1182.972
124.337	14.516	1554.361	1182.165
125.352	14.455	1552.919	1180.533
126.366	14.490	1551.888	1179.894
127.381	14.497	1550.551	1178.818
128.395	14.474	1549.870	1178.033
129.410	14.533	1548.405	1177.234
130.424	14.481	1547.014	1175.705
131.439	14.658	1545.562	1175.746
132.454	14.624	1544.386	1174.509
133.468	14.621	1542.595	1173.024
134.483	14.714	1541.491	1172.735
135.497	14.779	1540.094	1172.024
136.512	14.670	1539.116	1170.411
137.527	14.663	1537.771	1169.236
138.541	14.712	1536.316	1168.365
139.556	14.810	1534.823	1167.814
140.570	14.756	1533.552	1166.368
141.585	14.792	1532.517	1165.726
142.600	14.857	1531.205	1165.080
143.614	15.010	1530.058	1165.166
144.629	14.951	1528.821	1163.710
145.643	15.050	1527.404	1163.216
146.658	14.965	1526.612	1161.921
147.673	15.004	1525.173	1160.992
148.687	14.943	1523.174	1158.946
149.702	14.941	1521.680	1157.692
150.716	14.746	1520.400	1155.271
151.731	14.785	1518.966	1154.349
152.746	14.843	1517.532	1153.556
153.760	14.777	1516.289	1152.054
154.775	14.936	1515.204	1152.221
155.789	14.862	1514.112	1150.781
156.804	14.978	1512.259	1150.067
157.819	14.911	1511.810	1149.168
158.833	15.045	1509.992	1148.602
159.848	15.057	1508.806	1147.677
160.862	15.089	1508.117	1147.271
161.877	15.180	1506.608	1146.648
162.892	15.067	1505.774	1145.136
163.906	15.002	1504.628	1143.719
164.921	14.792	1503.481	1141.310
165.935	14.973	1502.029	1141.345
166.950	14.993	1501.156	1140.714
167.964	14.994	1500.059	1139.792
168.979	14.967	1499.067	1138.748
169.994	15.052	1497.789	1138.254
171.008	15.019	1496.847	1137.219
172.023	15.044	1496.088	1136.707
173.037	14.970	1494.905	1135.205
174.052	15.113	1493.590	1135.079
175.067	15.215	1492.681	1134.974
176.081	15.080	1491.223	1132.851
177.096	15.042	1489.749	1131.374
178.110	14.931	1488.683	1129.721
179.125	15.008	1487.011	1128.866
180.140	15.054	1486.198	1128.461
181.154	15.073	1485.616	1128.048
182.169	15.172	1484.292	1127.611
183.183	15.132	1483.379	1126.550
184.198	15.204	1481.909	1125.813
185.213	15.192	1480.995	1124.943
186.227	15.238	1479.896	1124.313
187.242	15.255	1479.260	1123.844
188.256	15.372	1477.996	1123.573
189.271	15.303	1476.790	1122.089
190.286	15.358	1475.834	1121.634
191.300	15.304	1474.740	1120.344
192.315	15.125	1473.078	1117.785
193.329	14.916	1472.108	1115.558
194.344	15.022	1470.597	1115.023
195.359	15.057	1469.699	1114.476
196.373	15.071	1469.143	1114.047
197.388	15.149	1467.839	1113.481
198.402	15.241	1467.073	1113.406
199.417	15.398	1465.480	1113.142
200.432	15.503	1464.585	1113.060
201.446	15.533	1463.619	1112.424
202.461	15.569	1462.682	1111.857
203.475	15.579	1461.816	1111.163
204.490	15.576	1460.603	1110.124
205.504	15.656	1459.041	1109.368
206.519	15.587	1457.895	1107.940
207.534	15.453	1457.426	1106.603
208.548	15.420	1455.977	1105.186
209.563	15.509	1454.775	1104.767
210.577	15.401	1454.012	1103.379
211.592	15.433	1453.061	1102.765
212.607	15.510	1452.361	1102.643
213.621	15.684	1451.661	1103.155
214.636	15.615	1450.950	1102.069
215.650	15.537	1450.154	1100.855
216.665	15.637	1448.846	1100.420
217.680	15.571	1448.516	1099.641
218.694	15.660	1448.047	1099.765
219.709	15.860	1446.657	1099.920
220.723	15.791	1445.314	1098.352
221.738	15.778	1444.576	1097.610
222.753	15.822	1443.474	1096.962
223.767	15.662	1443.236	1095.641
224.782	15.654	1442.202	1094.705
225.796	15.690	1441.212	1094.096
226.811	15.836	1440.390	1094.323
227.826	15.874	1439.645	1093.905
228.840	15.870	1438.539	1092.942
229.855	15.755	1437.704	1091.467
230.869	15.753	1436.698	1090.591
231.884	15.804	1435.433	1089.865
232.899	15.726	1434.586	1088.619
233.913	15.729	1433.472	1087.702
234.928	15.735	1431.990	1086.518
235.942	15.659	1430.857	1085.068
236.957	15.709	1429.495	1084.266
237.972	15.666	1429.028	1083.534
238.986	15.715	1427.427	1082.541
240.001	15.675	1426.773	1081.693
241.015	15.691	1425.712	1080.897
242.030	15.701	1424.430	1079.891
243.045	15.772	1423.763	1079.746
244.059	15.934	1422.050	1079.393
245.074	15.919	1421.765	1078.980
246.088	15.905	1421.365	1078.497
247.103	15.896	1420.511	1077.693
248.117	15.969	1419.627	1077.393
249.132	15.957	1419.183	1076.884
250.147	16.123	1418.067	1077.004
251.161	16.202	1418.087	1077.431
252.176	16.276	1416.902	1076.905
253.190	16.445	1416.408	1077.512
254.205	16.351	1415.620	1076.214
255.220	16.391	1414.636	1075.629
256.234	16.419	1413.891	1075.147
257.249	16.529	1412.852	1074.961
258.263	16.427	1412.434	1073.897
259.278	16.371	1411.494	1072.730
260.293	16.437	1410.497	1072.296
261.307	16.421	1409.816	1071.584
262.322	16.452	1408.879	1070.976
263.336	16.599	1407.869	1071.041
264.351	16.599	1406.940	1070.244
265.366	16.582	1405.913	1069.256
266.380	16.704	1404.936	1069.193
267.395	16.651	1404.292	1068.268
268.409	16.588	1403.497	1067.173
269.424	16.583	1402.269	1066.116
270.439	16.512	1401.593	1065.056
271.453	16.561	1400.584	1064.504
272.468	16.548	1399.688	1063.648
273.482	16.568	1398.774	1062.983
274.497	16.488	1398.133	1061.904
275.512	16.536	1396.867	1061.150
276.526	16.592	1396.078	1060.806
277.541	16.570	1394.813	1059.613
278.555	16.583	1394.607	1059.443
279.570	16.575	1393.328	1058.326
280.585	16.615	1392.699	1058.008
281.599	16.655	1391.925	1057.574
282.614	16.826	1390.409	1057.399
283.628	16.730	1389.657	1056.131
284.643	16.646	1389.043	1055.052
285.657	16.590	1387.594	1053.507
286.672	16.626	1386.386	1052.720
287.687	16.678	1385.878	1052.563
288.701	16.644	1384.925	1051.536
289.716	16.760	1383.784	1051.299
290.730	16.738	1382.980	1050.459
291.745	16.679	1382.090	1049.322
292.760	16.743	1381.492	1049.171
293.774	16.841	1380.277	1048.764
294.789	16.796	1379.213	1047.582
295.803	16.812	1378.790	1047.268
296.818	16.904	1377.721	1046.934
297.833	16.904	1376.364	1045.810
298.847	16.860	1375.230	1044.587
299.862	16.879	1374.103	1043.754
300.876	16.869	1373.301	1042.992
301.891	16.859	1372.648	1042.341
302.906	16.731	1372.296	1041.194
303.920	17.054	1370.958	1042.071
304.935	16.965	1370.735	1041.260
305.949	17.065	1369.711	1041.003
306.964	17.033	1369.066	1040.224
307.979	17.245	1368.105	1040.705
308.993	17.067	1367.363	1038.955
310.008	17.153	1366.199	1038.507
311.022	17.184	1365.290	1037.911
312.037	17.215	1364.308	1037.265
313.052	17.195	1363.435	1036.388
314.066	17.189	1362.306	1035.401
315.081	17.141	1361.081	1034.082
316.095	17.012	1360.213	1032.550
317.110	16.972	1359.395	1031.594
318.125	16.995	1358.425	1030.904
319.139	16.927	1357.594	1029.771
320.154	17.127	1356.107	1029.765
321.168	17.023	1355.453	1028.546
322.183	17.048	1354.436	1027.837
323.197	17.040	1353.208	1026.761
324.212	17.084	1352.281	1026.235
325.227	17.122	1352.045	1026.196
326.241	17.163	1350.616	1025.268
327.256	17.094	1350.053	1024.335
328.270	17.172	1349.245	1024.101
329.285	17.185	1348.104	1023.222
330.300	17.225	1347.024	1022.552
331.314	17.084	1346.478	1021.199
332.329	17.176	1345.436	1020.873
333.343	17.196	1344.389	1020.103
334.358	17.161	1344.088	1019.578
335.373	17.146	1343.284	1018.787
336.387	17.328	1342.321	1019.058
337.402	17.300	1341.308	1018.028
338.416	17.344	1341.009	1017.976
339.431	17.428	1340.155	1017.743
340.446	17.344	1339.822	1016.894
341.460	17.482	1338.582	1016.686
342.475	17.524	1337.483	1016.014
343.489	17.489	1337.023	1015.369
344.504	17.682	1335.867	1015.550
345.519	17.652	1334.950	1014.583
346.533	17.743	1333.913	1014.245
347.548	17.628	1333.318	1013.023
348.562	17.690	1332.518	1012.694
349.577	17.737	1331.730	1012.282
350.592	17.641	1330.994	1011.065
351.606	17.573	1330.313	1010.054
352.621	17.627	1328.623	1009.003
353.635	17.553	1327.876	1007.906
354.650	17.516	1327.101	1007.010
355.665	17.541	1326.005	1006.236
356.679	17.587	1324.825	1005.525
357.694	17.562	1323.992	1004.657
358.708	17.565	1323.041	1003.864
359.723	17.674	1321.834	1003.500
360.738	17.748	1320.641	1002.938
361.752	17.724	1319.787	1002.064
362.767	17.721	1319.021	1001.377
363.781	17.714	1317.718	1000.254
364.796	17.827	1317.105	1000.362
365.810	17.816	1316.333	999.624
366.825	17.825	1315.983	999.326
367.840	17.883	1315.525	999.225
368.854	17.983	1314.561	998.991
369.869	17.958	1314.050	998.371
370.883	18.052	1313.519	998.426
371.898	17.989	1312.467	997.169
372.913	18.032	1311.412	996.533
373.927	18.048	1310.603	995.924
374.942	18.006	1309.960	995.102
375.956	18.024	1309.845	995.027
376.971	18.079	1308.549	994.275
377.986	18.103	1307.564	993.579
379.000	18.044	1306.871	992.620
380.015	18.088	1306.352	992.394
381.029	18.116	1305.382	991.734
382.044	18.237	1304.559	991.723
383.059	18.223	1304.166	991.253
384.073	18.204	1303.123	990.261
385.088	18.223	1302.753	990.007
386.102	18.238	1301.646	989.163
387.117	18.307	1300.931	988.930
388.132	18.242	1300.502	988.145
389.146	18.201	1299.278	986.887
390.161	18.123	1298.340	985.638
391.175	18.239	1297.484	985.571
392.190	18.200	1296.711	984.672
393.205	18.241	1295.896	984.202
394.219	18.259	1295.431	983.864
395.234	18.365	1293.588	982.984
396.248	18.295	1292.550	981.708
397.263	18.294	1291.283	980.655
398.278	18.327	1289.639	979.505
399.292	18.303	1288.605	978.499
400.307	18.254	1287.711	977.454
401.321	18.185	1286.716	976.219
402.336	18.214	1285.747	975.561
403.350	18.183	1285.033	974.757
404.365	18.257	1283.856	974.198
405.380	18.180	1282.933	972.975
406.394	18.304	1282.217	973.052
407.409	18.256	1281.929	972.469
408.423	18.349	1280.962	972.178
409.438	18.390	1280.660	972.099
410.453	18.537	1279.834	972.218
411.467	18.489	1279.369	971.508
412.482	18.508	1278.667	970.996
413.496	18.546	1277.979	970.604
414.511	18.653	1276.941	970.334
415.526	18.610	1276.397	969.592
416.540	18.726	1275.575	969.539
417.555	18.793	1274.915	969.326
418.569	18.744	1274.447	968.608
419.584	18.745	1273.747	967.996
420.599	18.766	1272.867	967.363
421.613	140.852	1432.366	1796.899
422.628	135.415	1455.595	1796.986
