DTS Sentinel unit serial number:	SN413079Multiplexer serial number:	ORYXHardware model number:	OX4-SRSoftware version number:	ORYX F/W v4.00 Oryx Data Collector v3.7.2.0data status	okinstallation	princeton_trtdifferential loss correction	single-endedforward channel	channel 4reverse channel	N/Adate	2019/09/17time	07:37:35forward acquisition time	60.00reverse acquisition time	0.00gamma	496.2192k internal	0.2320k external	0.2320temperature offset calibration	0.9984default loss term (dB/km)	0.3790temperature slope calibration	1.0000multiplexer offset coefficient	1.0000multiplexer slope coefficient	1.0000fibre end	0.00T internal ref (°C)	27.14T ext. ref 1 (°C)	0.12T ext. ref 2 (°C)	21.87length (m)	temperature (°C)	Stokes	anti-Stokes-747.200	262.610	-0.149	-0.262
-746.185	-103.597	0.077	0.018
-745.171	-200.000	0.044	-0.241
-744.156	800.000	-0.075	0.284
-743.142	-200.000	-0.054	0.263
-742.127	-48.447	-0.561	0.273
-741.112	800.000	-0.045	-0.139
-740.098	-116.344	-0.319	-0.060
-739.083	-200.000	0.017	0.393
-738.069	250.199	0.024	-0.040
-737.054	-58.564	-0.353	0.155
-736.039	326.707	-0.170	-0.330
-735.025	199.731	0.142	-0.220
-734.010	-54.510	0.130	-0.059
-732.996	250.660	0.143	-0.246
-731.981	-130.132	0.228	-0.031
-730.966	-53.691	-0.140	-0.065
-729.952	-109.432	-0.368	-0.079
-728.937	-173.075	0.193	-0.006
-727.923	-39.599	-0.310	-0.164
-726.908	-200.000	-0.025	0.276
-725.894	-137.830	-0.437	-0.049
-724.879	149.634	0.089	0.122
-723.864	-2.749	0.236	0.167
-722.850	563.636	-0.122	-0.299
-721.835	-89.809	-0.272	0.080
-720.821	-164.651	-0.378	0.017
-719.806	-43.991	0.280	0.142
-718.791	-103.158	-0.400	0.096
-717.777	167.216	-0.051	0.073
-716.762	-54.704	-0.303	-0.138
-715.748	-26.812	-0.210	0.124
-714.733	-103.976	0.153	0.036
-713.718	-98.744	0.310	-0.080
-712.704	286.351	0.147	0.269
-711.689	7.974	0.206	0.156
-710.675	30.133	-0.236	0.203
-709.660	-200.000	-0.027	-0.206
-708.645	-110.835	-0.437	-0.091
-707.631	396.187	-0.071	-0.149
-706.616	-188.184	-0.063	-0.001
-705.602	310.917	0.126	-0.239
-704.587	-36.183	-0.146	0.080
-703.572	-170.938	0.052	-0.002
-702.558	-13.841	-0.369	0.241
-701.543	-154.391	-0.337	-0.023
-700.529	-60.837	-0.077	-0.033
-699.514	140.790	0.209	0.279
-698.499	-63.622	0.192	0.080
-697.485	-115.959	0.291	-0.055
-696.470	-114.995	-0.504	0.097
-695.456	800.000	0.033	0.129
-694.441	-109.492	0.098	0.021
-693.426	-106.278	0.313	0.071
-692.412	-17.768	0.088	0.056
-691.397	-97.059	0.115	0.031
-690.383	-200.000	-0.025	-0.292
-689.368	11.270	-0.049	0.038
-688.354	-103.505	-0.591	0.140
-687.339	170.358	-0.066	0.096
-686.324	-196.850	-0.077	-0.001
-685.310	800.000	0.012	-0.040
-684.295	142.861	0.080	0.107
-683.281	-70.996	0.236	0.090
-682.266	-200.000	-0.048	-0.233
-681.251	-136.803	-0.069	-0.008
-680.237	266.434	-0.077	0.136
-679.222	-200.000	0.011	0.070
-678.208	638.839	0.064	-0.164
-677.193	-200.000	0.029	-0.201
-676.178	171.667	0.059	0.086
-675.164	-47.020	0.143	0.070
-674.149	-125.128	0.048	0.007
-673.135	800.000	-0.054	-0.177
-672.120	-3.099	-0.166	0.117
-671.105	800.000	-0.065	0.200
-670.091	800.000	0.061	-0.252
-669.076	127.830	-0.032	-0.041
-668.062	-105.198	-0.054	0.013
-667.047	-200.000	-0.009	-0.214
-666.032	370.400	-0.051	0.105
-665.018	-200.000	0.002	0.144
-664.003	-93.324	-0.143	-0.040
-662.989	-160.429	0.231	-0.012
-661.974	800.000	-0.197	-0.597
-660.959	-200.000	-0.054	0.331
-659.945	-200.000	0.008	0.058
-658.930	-138.597	0.120	-0.013
-657.916	-62.590	-0.059	-0.025
-656.901	-106.249	0.258	0.058
-655.886	-51.101	0.281	-0.133
-654.872	-40.845	-0.075	0.039
-653.857	-200.000	-0.009	-0.279
-652.843	9.544	-0.271	0.207
-651.828	173.147	-0.200	0.291
-650.814	387.940	-0.062	0.129
-649.799	-45.756	-0.158	-0.079
-648.784	-159.213	-0.156	0.009
-647.770	800.000	0.112	-0.386
-646.755	-95.707	0.055	0.015
-645.741	100.619	0.042	0.049
-644.726	216.811	0.107	0.172
-643.711	265.441	0.194	0.341
-642.697	-200.000	-0.004	0.232
-641.682	-152.992	-0.095	-0.007
-640.668	4.219	-0.326	0.240
-639.653	-200.000	0.009	-0.085
-638.638	89.464	0.175	-0.196
-637.624	-76.879	-0.182	-0.064
-636.609	19.458	0.186	-0.150
-635.595	181.254	-0.110	-0.163
-634.580	7.276	-0.381	0.286
-633.565	277.865	-0.180	0.323
-632.551	-5.801	0.277	-0.191
-631.536	-200.000	-0.076	0.478
-630.522	85.276	-0.107	0.119
-629.507	6.435	-0.160	0.120
-628.492	-157.213	0.134	-0.008
-627.478	-2.875	0.076	0.053
-626.463	501.628	0.039	0.091
-625.449	221.484	-0.088	0.142
-624.434	31.167	-0.364	-0.314
-623.419	-200.000	-0.017	-0.129
-622.405	-125.725	0.293	0.045
-621.390	-104.626	0.119	0.028
-620.376	-200.000	0.101	0.453
-619.361	-200.000	0.008	0.042
-618.346	-146.683	-0.141	0.012
-617.332	-130.428	0.318	0.043
-616.317	170.448	0.164	-0.236
-615.303	346.392	-0.079	-0.156
-614.288	-85.501	-0.330	-0.103
-613.273	800.000	-0.053	-0.191
-612.259	-89.403	-0.405	-0.120
-611.244	-172.171	-0.217	-0.007
-610.230	176.436	0.181	0.264
-609.215	416.943	0.054	-0.116
-608.201	80.163	0.203	0.220
-607.186	-200.000	-0.022	-0.257
-606.171	-200.000	-0.020	0.355
-605.157	-48.836	0.150	0.073
-604.142	-200.000	-0.022	-0.263
-603.128	-159.151	-0.095	0.005
-602.113	223.696	0.231	0.375
-601.098	126.859	-0.041	0.052
-600.084	-20.484	0.198	-0.122
-599.069	457.537	-0.181	0.404
-598.055	-200.000	-0.048	0.305
-597.040	-35.808	-0.141	0.077
-596.025	46.532	0.126	-0.118
-595.011	-123.241	-0.087	-0.014
-593.996	-108.900	-0.107	0.023
-592.982	-41.745	0.029	-0.015
-591.967	-122.477	0.154	0.025
-590.952	371.003	-0.107	0.219
-589.938	-60.445	-0.269	-0.115
-588.923	-200.000	-0.033	-0.151
-587.909	-200.000	-0.003	-0.103
-586.894	-200.000	0.033	0.215
-585.879	347.329	-0.104	-0.205
-584.865	-162.589	0.415	0.021
-583.850	-90.881	-0.271	-0.078
-582.836	-87.617	0.218	0.066
-581.821	-200.000	0.023	-0.217
-580.806	-137.432	-0.250	0.028
-579.792	800.000	0.056	-0.200
-578.777	112.609	0.158	0.192
-577.763	-98.752	-0.070	-0.018
-576.748	-200.000	-0.023	0.314
-575.733	-10.086	-0.280	0.187
-574.719	-56.564	-0.411	0.183
-573.704	109.761	-0.104	0.126
-572.690	10.052	-0.195	0.148
-571.675	-200.000	0.018	-0.180
-570.661	-23.328	0.077	-0.047
-569.646	-200.000	-0.058	0.275
-568.631	663.818	0.088	-0.227
-567.617	-101.592	0.267	-0.065
-566.602	498.109	-0.065	0.149
-565.588	-200.000	0.007	-0.073
-564.573	4.396	0.071	-0.052
-563.558	-40.333	0.325	-0.170
-562.544	-125.110	-0.381	-0.059
-561.529	-143.782	-0.106	0.010
-560.515	-200.000	-0.049	0.307
-559.500	-200.000	-0.024	-0.341
-558.485	-76.603	0.022	-0.008
-557.471	800.000	0.022	0.064
-556.456	353.188	-0.127	0.253
-555.442	381.882	0.046	0.096
-554.427	-27.104	0.111	-0.065
-553.412	332.431	0.096	-0.187
-552.398	12.954	-0.220	0.171
-551.383	800.000	-0.050	0.201
-550.369	-200.000	0.003	-0.216
-549.354	336.041	-0.021	-0.041
-548.339	-117.333	0.426	0.077
-547.325	1.459	0.186	0.134
-546.310	-150.130	-0.081	-0.006
-545.296	132.738	0.063	0.082
-544.281	-135.797	0.114	0.014
-543.266	231.384	-0.150	0.246
-542.252	-86.549	-0.217	0.067
-541.237	800.000	0.106	0.404
-540.223	-200.000	0.022	0.158
-539.208	-64.504	-0.186	-0.076
-538.193	4.052	-0.142	-0.104
-537.179	10.342	-0.113	-0.086
-536.164	-122.113	-0.137	0.022
-535.150	117.252	0.080	0.099
-534.135	-59.601	-0.114	-0.049
-533.121	-161.917	0.322	-0.016
-532.106	-48.869	-0.361	0.174
-531.091	800.000	0.061	-0.225
-530.077	3.977	0.030	-0.022
-529.062	-88.340	-0.214	-0.064
-528.048	800.000	-0.018	-0.077
-527.033	800.000	-0.038	-0.115
-526.018	158.113	0.170	0.236
-525.004	84.002	-0.227	-0.248
-523.989	-34.487	0.128	-0.070
-522.975	800.000	0.027	-0.087
-521.960	-200.000	0.001	-0.147
-520.945	-85.946	-0.258	-0.080
-519.931	-200.000	-0.004	-0.241
-518.916	800.000	-0.048	0.164
-517.902	-200.000	-0.016	-0.143
-516.887	25.281	0.184	0.153
-515.872	-65.842	-0.178	-0.072
-514.858	-131.945	0.158	0.021
-513.843	509.787	-0.051	-0.118
-512.829	-168.156	0.347	-0.014
-511.814	-200.000	-0.030	-0.321
-510.799	-83.285	0.237	-0.076
-509.785	580.591	0.147	-0.362
-508.770	-157.713	0.129	0.008
-507.756	-200.000	-0.007	0.152
-506.741	80.383	-0.073	0.079
-505.726	134.521	0.115	0.150
-504.712	-92.896	-0.069	0.019
-503.697	-9.309	-0.128	-0.085
-502.683	-47.133	-0.287	0.140
-501.668	-31.594	0.207	-0.117
-500.653	-200.000	-0.005	-0.260
-499.639	-105.315	-0.200	-0.046
-498.624	486.977	0.071	-0.162
-497.610	20.850	-0.108	-0.088
-496.595	-126.655	-0.037	-0.006
-495.581	-37.575	-0.305	-0.163
-494.566	-153.693	0.353	-0.024
-493.551	361.296	-0.164	-0.329
-492.537	2.742	0.128	-0.093
-491.522	-85.252	-0.144	-0.045
-490.508	684.170	0.104	-0.272
-489.493	301.768	0.075	-0.138
-488.478	-84.244	0.266	0.084
-487.464	7.666	0.224	-0.168
-486.449	5.811	0.255	0.189
-485.435	-200.000	0.002	-0.138
-484.420	587.817	-0.022	0.055
-483.405	161.968	0.015	-0.021
-482.391	-141.226	0.051	0.005
-481.376	-17.427	-0.082	0.052
-480.362	-200.000	-0.016	-0.085
-479.347	405.486	-0.056	-0.118
-478.332	-200.000	0.104	-0.482
-477.318	-85.818	0.097	-0.030
-476.303	800.000	0.081	-0.253
-475.289	173.265	-0.193	-0.278
-474.274	-200.000	-0.019	-0.161
-473.259	-101.889	-0.216	-0.052
-472.245	146.966	-0.266	-0.357
-471.230	-60.587	0.187	0.079
-470.216	262.508	0.050	0.087
-469.201	-7.431	-0.148	0.100
-468.186	427.309	-0.176	-0.380
-467.172	-81.835	-0.170	0.056
-466.157	800.000	-0.029	-0.110
-465.143	-17.894	0.383	0.240
-464.128	-200.000	0.049	-0.325
-463.113	-200.000	-0.017	0.274
-462.099	-78.253	0.051	-0.017
-461.084	-200.000	0.043	0.355
-460.070	-200.000	-0.007	-0.145
-459.055	-14.273	0.147	-0.095
-458.040	-200.000	-0.002	0.149
-457.026	800.000	-0.062	-0.175
-456.011	300.722	-0.122	0.225
-454.997	97.962	0.156	0.180
-453.982	105.255	-0.149	0.176
-452.968	150.132	0.237	0.322
-451.953	19.982	-0.106	0.085
-450.938	-180.132	0.313	0.007
-449.924	304.731	0.093	0.173
-448.909	-200.000	0.010	0.160
-447.895	604.484	-0.113	0.282
-446.880	-200.000	0.023	0.276
-445.865	196.013	-0.195	0.296
-444.851	-200.000	-0.090	0.594
-443.836	149.781	-0.111	0.150
-442.822	-97.137	-0.229	-0.060
-441.807	66.238	-0.114	-0.115
-440.792	-109.665	0.149	-0.031
-439.778	-200.000	0.022	-0.126
-438.763	-200.000	0.005	-0.105
-437.749	753.267	0.159	-0.430
-436.734	53.239	0.063	-0.061
-435.719	-77.348	-0.397	-0.138
-434.705	137.291	0.185	0.242
-433.690	800.000	-0.034	-0.140
-432.676	177.743	0.067	-0.097
-431.661	-200.000	0.004	-0.111
-430.646	-110.881	-0.226	-0.046
-429.632	179.108	0.068	0.100
-428.617	66.308	-0.255	-0.259
-427.603	-74.478	0.108	-0.039
-426.588	800.000	0.071	-0.275
-425.573	800.000	0.032	0.122
-424.559	155.065	0.142	-0.195
-423.544	275.472	-0.118	0.209
-422.530	508.614	0.089	-0.206
-421.515	-101.253	0.234	0.057
-420.500	-148.414	-0.137	0.011
-419.486	-200.000	-0.027	-0.129
-418.471	-200.000	0.029	-0.143
-417.457	-43.700	0.144	-0.073
-416.442	-70.105	0.054	0.021
-415.428	-30.017	0.210	0.119
-414.413	-200.000	0.108	0.525
-413.398	552.222	0.105	0.252
-412.384	-200.000	0.029	-0.201
-411.369	800.000	0.029	-0.080
-410.355	-53.142	-0.222	-0.102
-409.340	-76.370	-0.156	-0.055
-408.325	-70.916	-0.323	0.122
-407.311	-200.000	0.002	-0.128
-406.296	207.179	0.053	-0.083
-405.282	-92.649	0.067	0.019
-404.267	-153.816	-0.255	0.017
-403.252	386.599	0.074	0.152
-402.238	-200.000	0.088	-0.419
-401.223	-200.000	0.019	0.130
-400.209	171.324	-0.197	0.282
-399.194	-54.976	0.120	-0.054
-398.179	800.000	-0.006	0.019
-397.165	55.675	-0.102	0.099
-396.150	134.965	0.169	0.219
-395.136	9.129	0.120	0.090
-394.121	-0.380	0.129	-0.091
-393.106	-121.174	-0.180	0.030
-392.092	88.130	0.122	0.135
-391.077	-119.783	0.329	-0.057
-390.063	-200.000	0.006	-0.038
-389.048	-63.699	-0.088	-0.036
-388.033	-112.402	0.131	-0.026
-387.019	653.483	-0.070	0.178
-386.004	-82.926	0.258	-0.083
-384.990	-200.000	-0.012	-0.295
-383.975	-85.786	0.115	-0.036
-382.960	147.650	-0.118	-0.158
-381.946	56.925	0.084	0.082
-380.931	545.302	0.077	0.182
-379.917	115.708	-0.194	-0.237
-378.902	24.593	0.006	0.005
-377.888	305.453	0.061	-0.114
-376.873	-200.000	-0.014	0.303
-375.858	800.000	0.118	0.422
-374.844	772.068	0.061	0.166
-373.829	65.312	-0.188	0.189
-372.815	-186.537	-0.190	-0.003
-371.800	-200.000	-0.211	0.000
-370.785	-73.925	0.051	0.018
-369.771	800.000	-0.020	-0.069
-368.756	749.734	0.070	-0.187
-367.742	-200.000	0.004	0.179
-366.727	23.055	0.223	-0.182
-365.712	-200.000	0.037	0.442
-364.698	-200.000	-0.051	-0.251
-363.683	134.080	-0.199	-0.257
-362.669	-172.887	-0.188	-0.006
-361.654	85.958	-0.164	0.179
-360.639	800.000	0.043	0.166
-359.625	-200.000	0.017	0.138
-358.610	-70.898	0.061	-0.023
-357.596	208.570	0.081	0.127
-356.581	-59.764	0.308	0.132
-355.566	-49.410	0.367	0.174
-354.552	367.014	-0.080	-0.160
-353.537	-128.886	0.166	-0.023
-352.523	-83.033	0.129	-0.041
-351.508	208.259	-0.049	0.076
-350.493	-200.000	0.009	0.192
-349.479	197.664	-0.061	-0.093
-348.464	248.820	0.074	0.126
-347.450	800.000	-0.116	0.350
-346.435	26.449	-0.313	-0.261
-345.420	-200.000	-0.014	-0.140
-344.406	-35.655	-0.091	0.049
-343.391	6.969	-0.096	-0.072
-342.377	-109.840	0.429	0.090
-341.362	112.922	-0.073	-0.089
-340.348	-200.000	-0.019	0.087
-339.333	-200.000	-0.022	-0.100
-338.318	53.193	-0.269	-0.256
-337.304	-66.027	-0.474	0.188
-336.289	-21.821	-0.255	-0.155
-335.275	793.235	0.058	-0.159
-334.260	-200.000	-0.015	-0.189
-333.245	-65.726	0.156	-0.062
-332.231	56.198	0.132	-0.128
-331.216	-94.649	-0.329	0.089
-330.202	39.772	-0.195	0.174
-329.187	-53.370	0.146	0.066
-328.172	800.000	-0.098	0.274
-327.158	800.000	0.037	0.126
-326.143	-121.508	-0.264	-0.044
-325.129	141.113	0.174	-0.228
-324.114	216.758	-0.146	0.232
-323.099	-18.918	-0.119	-0.074
-322.085	-200.000	0.008	0.364
-321.070	199.201	0.094	0.143
-320.056	800.000	0.024	0.087
-319.041	-23.190	-0.158	-0.095
-318.026	187.820	-0.125	-0.186
-317.012	246.830	0.176	-0.295
-315.997	-59.290	-0.226	0.097
-314.983	-136.268	-0.049	-0.006
-313.968	-53.877	0.176	0.080
-312.953	-42.626	-0.414	0.210
-311.939	9.330	0.577	0.434
-310.924	800.000	-0.105	-0.448
-309.910	-200.000	-0.010	-0.056
-308.895	-200.000	-0.015	0.095
-307.880	64.645	-0.078	-0.078
-306.866	133.659	-0.210	-0.270
-305.851	-117.735	0.559	-0.100
-304.837	-51.602	-0.103	-0.048
-303.822	-95.826	-0.355	0.094
-302.807	-200.000	0.021	0.133
-301.793	-8.694	0.212	-0.141
-300.778	-138.091	-0.030	-0.003
-299.764	284.612	-0.181	-0.323
-298.749	77.504	-0.070	-0.074
-297.735	82.895	-0.073	0.079
-296.720	-200.000	0.015	0.166
-295.705	-142.412	0.255	-0.025
-294.691	-98.157	0.246	0.063
-293.676	800.000	0.035	0.148
-292.662	138.748	0.051	0.067
-291.647	339.110	-0.188	-0.364
-290.632	52.208	-0.072	0.068
-289.618	-82.433	-0.077	0.025
-288.603	800.000	0.105	-0.425
-287.589	414.551	-0.247	0.522
-286.574	243.150	0.111	-0.184
-285.559	5.119	0.091	0.067
-284.545	315.776	0.068	-0.128
-283.530	-144.152	0.249	-0.023
-282.516	560.449	0.058	-0.140
-281.501	-152.814	0.301	-0.021
-280.486	800.000	-0.079	0.270
-279.472	-87.408	-0.413	0.124
-278.457	456.341	-0.065	-0.143
-277.443	49.887	-0.110	0.103
-276.428	44.742	0.036	-0.033
-275.413	-37.206	0.072	-0.038
-274.399	9.122	-0.124	-0.093
-273.384	-38.990	0.227	0.119
-272.370	-22.376	-0.206	-0.124
-271.355	-14.286	-0.297	0.190
-270.340	800.000	-0.085	0.263
-269.326	249.510	-0.073	-0.123
-268.311	364.061	0.119	0.238
-267.297	-58.745	-0.153	0.066
-266.282	136.524	0.170	-0.220
-265.267	-78.418	-0.242	0.082
-264.253	-17.469	-0.402	0.251
-263.238	146.243	-0.026	-0.035
-262.224	-200.000	-0.020	0.118
-261.209	68.742	-0.159	0.162
-260.195	-97.009	0.461	-0.120
-259.180	-77.962	-0.222	0.076
-258.165	800.000	-0.020	-0.071
-257.151	397.618	0.074	0.154
-256.136	97.932	0.144	0.165
-255.122	72.034	0.199	0.205
-254.107	-200.000	0.014	0.154
-253.092	279.756	-0.056	-0.099
-252.078	-200.000	-0.082	0.447
-251.063	-56.411	0.169	0.074
-250.049	-200.000	0.018	-0.199
-249.034	19.058	0.218	-0.173
-248.019	27.868	0.124	-0.104
-247.005	-147.910	-0.210	-0.017
-245.990	-23.792	-0.055	0.033
-244.976	-200.000	0.054	0.378
-243.961	-75.543	0.323	-0.114
-242.946	-56.961	0.362	0.159
-241.932	-51.512	0.188	-0.087
-240.917	11.889	0.215	-0.164
-239.903	117.406	0.338	-0.412
-238.888	-88.367	-0.303	-0.090
-237.873	-200.000	-0.021	-0.149
-236.859	118.519	-0.132	0.162
-235.844	-127.958	0.197	0.028
-234.830	-200.000	0.063	-0.350
-233.815	277.952	-0.057	0.100
-232.800	108.827	-0.191	-0.227
-231.786	-194.111	0.374	0.003
-230.771	102.662	0.149	-0.173
-229.757	474.187	0.082	0.183
-228.742	-200.000	0.061	0.402
-227.727	13.405	-0.309	-0.238
-226.713	443.007	0.081	0.175
-225.698	-95.712	-0.110	-0.029
-224.684	317.661	-0.114	-0.214
-223.669	-200.000	-0.017	-0.190
-222.655	44.773	-0.289	-0.264
-221.640	-200.000	0.029	-0.169
-220.625	-116.640	-0.142	-0.026
-219.611	-190.628	0.077	0.001
-218.596	-21.198	-0.263	-0.160
-217.582	461.961	-0.075	-0.165
-216.567	288.432	-0.150	0.268
-215.552	-200.000	-0.015	0.110
-214.538	165.122	0.203	-0.284
-213.523	800.000	0.054	0.160
-212.509	203.280	0.091	-0.140
-211.494	62.865	0.120	0.119
-210.479	227.508	-0.131	0.211
-209.465	-200.000	0.006	0.166
-208.450	-76.638	-0.338	-0.117
-207.436	800.000	0.047	0.190
-206.421	760.281	0.093	-0.249
-205.406	79.811	-0.096	-0.102
-204.392	-61.510	0.098	0.041
-203.377	-50.081	0.189	0.088
-202.363	397.599	-0.091	0.188
-201.348	-200.000	-0.021	-0.229
-200.333	244.670	-0.117	0.195
-199.319	101.659	0.116	-0.134
-198.304	-200.000	-0.031	-0.272
-197.290	33.364	0.076	-0.065
-196.275	39.183	-0.198	-0.175
-195.260	92.975	-0.126	0.140
-194.246	539.424	0.095	-0.224
-193.231	227.518	-0.028	-0.046
-192.217	800.000	-0.034	-0.110
-191.202	-53.449	-0.165	0.075
-190.187	36.771	0.198	-0.173
-189.173	800.000	0.036	0.151
-188.158	-46.896	-0.288	-0.140
-187.144	-62.228	0.117	-0.048
-186.129	-151.620	0.077	0.006
-185.114	-49.587	0.035	-0.017
-184.100	-42.836	0.392	-0.197
-183.085	-200.000	-0.020	-0.478
-182.071	-41.516	-0.331	-0.168
-181.056	-200.000	0.023	0.151
-180.042	-200.000	0.010	0.183
-179.027	147.637	0.129	0.172
-178.012	311.920	0.115	0.213
-176.998	-173.510	-0.291	0.009
-175.983	-178.345	0.373	-0.009
-174.969	104.157	0.032	-0.038
-173.954	-200.000	-0.030	-0.220
-172.939	-63.046	0.279	0.114
-171.925	384.087	-0.051	-0.103
-170.910	101.285	0.278	-0.320
-169.896	9.284	0.173	-0.129
-168.881	-91.950	0.534	0.149
-167.866	-200.000	0.016	0.200
-166.852	-48.909	0.201	-0.095
-165.837	-53.901	0.415	0.187
-164.823	23.761	0.096	0.078
-163.808	-150.409	0.048	0.004
-162.793	-136.029	-0.167	-0.019
-161.779	639.911	0.066	-0.165
-160.764	34.300	-0.112	0.096
-159.750	-200.000	0.012	0.091
-158.735	800.000	0.062	-0.220
-157.720	-200.000	-0.043	0.206
-156.706	-109.202	0.354	-0.074
-155.691	267.221	-0.192	0.332
-154.677	800.000	-0.101	-0.378
-153.662	218.788	0.098	0.155
-152.647	-200.000	-0.017	-0.211
-151.633	23.403	-0.172	-0.140
-150.618	-150.947	-0.295	0.022
-149.604	800.000	-0.054	0.222
-148.589	317.726	0.083	-0.155
-147.574	290.888	-0.123	0.220
-146.560	-115.569	0.218	0.040
-145.545	-76.863	-0.174	-0.060
-144.531	537.057	0.188	0.440
-143.516	800.000	-0.060	0.171
-142.502	239.069	0.048	0.078
-141.487	46.565	0.263	-0.241
-140.472	198.514	0.104	0.157
-139.458	83.197	0.171	0.184
-138.443	-200.000	0.010	-0.155
-137.429	233.677	0.168	0.273
-136.414	19.488	0.118	0.094
-135.399	-57.351	-0.062	0.027
-134.385	-108.465	0.230	0.049
-133.370	-54.733	-0.151	-0.067
-132.356	-34.714	-0.098	-0.053
-131.341	104.627	0.134	-0.156
-130.326	-34.162	-0.239	-0.129
-129.312	-1.723	-0.313	-0.218
-128.297	-109.237	0.239	0.050
-127.283	-179.766	0.326	0.007
-126.268	-1.995	-0.140	0.097
-125.253	-200.000	-0.025	0.143
-124.239	69.544	0.392	0.399
-123.224	30.760	0.055	0.046
-122.210	-200.000	0.029	-0.305
-121.195	-79.500	-0.258	-0.086
-120.180	-187.007	0.843	-0.011
-119.166	-123.285	0.166	-0.026
-118.151	-91.591	0.174	0.049
-117.137	505.294	-0.171	-0.392
-116.122	-181.886	-0.311	-0.006
-115.107	-200.000	-0.017	-0.315
-114.093	-77.561	-0.311	0.106
-113.078	44.367	-0.049	0.044
-112.064	-21.137	0.150	0.091
-111.049	800.000	0.052	-0.162
-110.034	260.280	0.183	-0.313
-109.020	-196.767	0.232	-0.002
-108.005	-121.515	-0.057	-0.009
-106.991	-200.000	0.002	0.198
-105.976	800.000	0.013	-0.037
-104.962	87.904	0.083	-0.090
-103.947	26.464	-0.084	0.070
-102.932	800.000	-0.036	-0.134
-101.918	223.647	0.107	-0.171
-100.903	218.642	-0.066	-0.104
-99.889	-122.795	0.326	-0.052
-98.874	239.720	0.198	-0.326
-97.859	-109.364	0.336	0.070
-96.845	-20.649	0.244	0.148
-95.830	800.000	-0.034	0.105
-94.816	-21.497	-0.253	-0.152
-93.801	180.272	0.146	0.211
-92.786	-200.000	0.076	-0.527
-91.772	685.807	-0.018	-0.045
-90.757	-44.483	0.082	0.040
-89.743	57.222	-0.201	-0.193
-88.728	800.000	-0.091	0.290
-87.713	27.169	-0.134	-0.111
-86.699	59.431	0.043	0.042
-85.684	-143.465	-0.007	0.001
-84.670	-200.000	-0.041	-0.227
-83.655	-50.258	-0.059	0.028
-82.640	-81.693	-0.374	0.121
-81.626	800.000	-0.138	0.413
-80.611	259.474	0.083	0.142
-79.597	-200.000	0.020	0.158
-78.582	22.530	0.212	-0.171
-77.567	-30.171	0.306	-0.171
-76.553	-111.454	0.088	-0.018
-75.538	-88.283	0.044	-0.013
-74.524	800.000	0.094	0.255
-73.509	-89.930	-0.234	-0.067
-72.494	-26.558	0.167	0.096
-71.480	-200.000	-0.043	-0.232
-70.465	800.000	-0.037	0.126
-69.451	112.810	0.068	0.081
-68.436	-44.770	-0.150	-0.074
-67.422	506.749	-0.053	0.122
-66.407	-200.000	0.009	-0.118
-65.392	97.957	-0.115	-0.130
-64.378	-66.796	0.317	-0.124
-63.363	148.265	-0.110	0.147
-62.349	-157.639	0.142	-0.008
-61.334	235.290	-0.819	-1.332
-60.319	56.448	0.571	0.546
-59.305	552.926	-0.522	-1.235
-58.290	144.327	0.979	1.286
-57.276	800.000	0.417	1.663
-56.261	-200.000	114.729	646.524
-55.246	466.319	1508.489	3326.008
-54.232	144.722	2680.584	3526.180
-53.217	93.537	2319.994	2585.575
-52.203	33.576	2068.512	1769.383
-51.188	28.940	1982.751	1654.369
-50.173	27.560	1965.666	1627.734
-49.159	45.755	2024.185	1841.593
-48.144	44.614	2040.373	1845.907
-47.130	29.456	1999.412	1672.682
-46.115	27.179	1989.089	1643.425
-45.100	27.061	1986.265	1639.955
-44.086	27.103	1983.843	1638.273
-43.071	27.051	1981.424	1635.740
-42.057	26.989	1979.155	1633.241
-41.042	27.014	1977.185	1631.777
-40.027	27.004	1975.559	1630.283
-39.013	27.038	1973.471	1628.802
-37.998	26.983	1972.157	1627.159
-36.984	27.037	1969.738	1625.584
-35.969	27.063	1967.984	1624.301
-34.954	27.082	1966.584	1623.253
-33.940	27.114	1964.881	1622.067
-32.925	27.101	1963.367	1620.636
-31.911	27.161	1961.009	1619.156
-30.896	27.135	1960.083	1618.100
-29.881	27.185	1957.640	1616.460
-28.867	27.235	1956.455	1615.865
-27.852	27.256	1954.457	1614.336
-26.838	27.233	1953.351	1613.154
-25.823	27.170	1951.383	1610.907
-24.809	27.157	1949.727	1609.357
-23.794	27.194	1948.094	1608.275
-22.779	27.196	1946.469	1606.889
-21.765	27.229	1944.398	1605.410
-20.750	27.142	1942.905	1603.344
-19.736	27.203	1940.865	1602.130
-18.721	27.203	1939.653	1601.069
-17.706	27.134	1938.294	1599.281
-16.692	27.206	1936.073	1598.015
-15.677	27.187	1934.655	1596.617
-14.663	27.179	1933.381	1595.424
-13.648	27.159	1932.447	1594.416
-12.633	27.182	1931.089	1593.438
-11.619	27.087	1930.218	1591.818
-10.604	27.108	1928.042	1590.146
-9.590	27.097	1927.276	1589.355
-8.575	27.131	1925.634	1588.237
-7.560	27.087	1924.274	1586.670
-6.546	27.181	1922.849	1586.251
-5.531	27.163	1921.239	1584.706
-4.517	27.100	1920.747	1583.686
-3.502	27.142	1919.290	1582.787
-2.487	27.140	1918.267	1581.866
-1.473	27.155	1917.063	1580.935
-0.458	27.169	1912.166	1576.958
0.556	25.243	1892.461	1549.002
1.571	21.054	1873.567	1497.517
2.586	17.074	1895.483	1480.262
3.600	16.035	1930.265	1498.059
4.615	15.938	1924.637	1492.698
5.629	12.477	1824.539	1385.813
6.644	5.004	1707.695	1237.806
7.659	0.481	1672.734	1177.131
8.673	0.142	1669.527	1172.131
9.688	0.130	1667.593	1170.578
10.702	0.132	1666.005	1169.371
11.717	0.076	1662.812	1166.597
12.731	0.638	1661.817	1170.150
13.746	6.285	1674.572	1223.012
14.761	14.048	1689.994	1294.845
15.775	17.044	1694.458	1321.520
16.790	16.906	1692.370	1318.699
17.804	15.899	1689.126	1308.232
18.819	14.901	1685.932	1297.898
19.834	14.370	1683.420	1291.739
20.848	14.067	1682.595	1288.645
21.863	13.841	1680.151	1284.910
22.877	13.598	1678.830	1281.904
23.892	13.346	1677.398	1278.745
24.907	13.272	1676.835	1277.637
25.921	13.218	1675.265	1275.907
26.936	13.269	1673.863	1275.122
27.950	13.218	1673.509	1274.345
28.965	13.325	1673.128	1274.769
29.980	13.384	1672.166	1274.375
30.994	13.442	1671.047	1273.856
32.009	13.488	1670.036	1273.324
33.023	13.461	1669.655	1272.716
34.038	13.491	1668.433	1271.898
35.053	13.529	1667.272	1271.198
36.067	13.415	1666.706	1269.773
37.082	13.482	1665.172	1269.009
38.096	13.476	1664.509	1268.345
39.111	13.474	1663.408	1267.381
40.126	13.446	1662.965	1266.719
41.140	13.548	1661.200	1266.039
42.155	13.293	1660.172	1263.199
43.169	13.263	1659.017	1261.979
44.184	13.244	1657.872	1260.845
45.199	13.269	1656.643	1259.992
46.213	13.256	1655.649	1259.025
47.228	13.198	1654.901	1257.906
48.242	13.239	1653.210	1256.823
49.257	13.294	1651.949	1256.171
50.271	13.283	1650.702	1255.028
51.286	13.289	1649.859	1254.319
52.301	13.257	1648.363	1252.825
53.315	13.287	1646.687	1251.670
54.330	13.274	1645.549	1250.593
55.344	13.302	1643.865	1249.414
56.359	13.215	1642.009	1247.242
57.374	13.281	1641.209	1247.019
58.388	13.260	1639.497	1245.453
59.403	13.329	1638.090	1244.787
60.417	13.160	1637.113	1242.669
61.432	13.192	1635.622	1241.668
62.447	13.180	1634.773	1240.818
63.461	13.125	1633.407	1239.260
64.476	13.137	1632.042	1238.205
65.490	13.052	1631.175	1236.805
66.505	13.045	1630.271	1235.954
67.520	13.094	1628.820	1235.111
68.534	13.222	1627.981	1235.323
69.549	13.193	1627.102	1234.327
70.563	13.200	1625.337	1232.932
71.578	13.219	1624.501	1232.333
72.593	13.131	1623.457	1230.775
73.607	13.084	1622.188	1229.355
74.622	13.146	1620.587	1228.495
75.636	13.070	1620.047	1227.409
76.651	13.131	1619.192	1227.104
77.666	13.108	1618.151	1226.038
78.680	13.059	1617.494	1225.073
79.695	13.058	1616.458	1224.169
80.709	13.088	1615.250	1223.372
81.724	13.126	1613.945	1222.551
82.739	13.214	1612.891	1222.294
83.753	13.230	1612.416	1221.947
84.768	13.299	1611.604	1221.733
85.782	13.254	1611.229	1221.007
86.797	13.344	1609.977	1220.617
87.812	13.395	1608.699	1219.914
88.826	13.367	1607.195	1218.461
89.841	13.260	1606.579	1217.100
90.855	13.270	1605.313	1216.105
91.870	13.309	1603.997	1215.287
92.884	13.321	1602.977	1214.492
93.899	13.405	1601.998	1214.263
94.914	13.355	1601.221	1213.198
95.928	13.459	1599.371	1212.449
96.943	13.435	1598.320	1211.373
97.957	13.451	1597.039	1210.409
98.972	13.380	1595.066	1208.292
99.987	13.418	1593.996	1207.649
101.001	13.396	1592.177	1206.004
102.016	13.439	1590.583	1205.005
103.030	13.406	1589.484	1203.822
104.045	13.363	1588.608	1202.739
105.060	13.373	1587.176	1201.621
106.074	13.367	1585.754	1200.394
107.089	13.320	1584.238	1198.804
108.103	13.181	1582.680	1196.510
109.118	13.177	1581.257	1195.302
110.133	13.114	1579.947	1193.747
111.147	13.167	1578.544	1192.967
112.162	13.264	1577.175	1192.525
113.176	13.253	1575.336	1190.952
114.191	13.183	1574.972	1190.069
115.206	13.183	1573.909	1189.155
116.220	13.323	1572.447	1188.954
117.235	13.263	1570.881	1187.232
118.249	13.267	1569.861	1186.387
119.264	13.199	1568.399	1184.689
120.279	13.278	1566.745	1183.903
121.293	13.239	1565.416	1182.515
122.308	13.269	1563.479	1181.162
123.322	13.231	1562.398	1179.964
124.337	13.146	1560.920	1178.140
125.352	13.218	1559.417	1177.413
126.366	13.152	1558.694	1176.296
127.381	13.165	1557.405	1175.314
128.395	13.165	1556.739	1174.703
129.410	13.189	1554.841	1173.340
130.424	13.157	1553.829	1172.244
131.439	13.204	1552.487	1171.463
132.454	13.241	1551.030	1170.519
133.468	13.207	1549.766	1169.222
134.483	13.330	1548.224	1168.821
135.497	13.282	1547.074	1167.516
136.512	13.321	1545.893	1166.791
137.527	13.367	1544.213	1165.749
138.541	13.352	1543.272	1164.828
139.556	13.339	1541.719	1163.458
140.570	13.299	1540.458	1162.122
141.585	13.357	1538.861	1161.227
142.600	13.386	1538.093	1160.747
143.614	13.427	1536.571	1159.780
144.629	13.436	1535.099	1158.628
145.643	13.558	1533.836	1158.429
146.658	13.575	1532.486	1157.423
147.673	13.540	1530.444	1155.536
148.687	13.459	1529.602	1154.233
149.702	13.486	1527.809	1152.969
150.716	13.430	1526.620	1151.577
151.731	13.456	1525.282	1150.646
152.746	13.451	1524.005	1149.551
153.760	13.377	1522.791	1148.020
154.775	13.441	1521.428	1147.334
155.789	13.502	1520.132	1146.677
156.804	13.552	1519.080	1146.129
157.819	13.588	1518.003	1145.461
158.833	13.645	1516.325	1144.487
159.848	13.667	1515.482	1143.899
160.862	13.642	1514.378	1142.796
161.877	13.765	1512.855	1142.393
162.892	13.641	1511.748	1140.602
163.906	13.531	1510.531	1138.825
164.921	13.472	1508.977	1137.145
165.935	13.555	1508.184	1137.018
166.950	13.520	1506.965	1135.757
167.964	13.585	1505.538	1135.027
168.979	13.605	1504.862	1134.554
169.994	13.630	1504.135	1134.079
171.008	13.641	1502.478	1132.803
172.023	13.703	1501.140	1132.118
173.037	13.710	1500.138	1131.313
174.052	13.734	1499.125	1130.610
175.067	13.666	1498.049	1129.233
176.081	13.668	1496.972	1128.336
177.096	13.693	1495.287	1127.135
178.110	13.633	1494.466	1126.011
179.125	13.648	1493.304	1125.137
180.140	13.723	1492.133	1124.663
181.154	13.711	1491.329	1123.874
182.169	13.643	1490.256	1122.511
183.183	13.742	1488.722	1121.924
184.198	13.724	1487.763	1120.984
185.213	13.831	1486.763	1120.849
186.227	13.814	1485.599	1119.759
187.242	13.810	1484.938	1119.134
188.256	13.929	1483.133	1118.476
189.271	13.886	1482.304	1117.466
190.286	13.941	1481.259	1116.946
191.300	13.847	1480.374	1115.547
192.315	13.728	1479.286	1113.834
193.329	13.734	1477.409	1112.359
194.344	13.692	1476.441	1111.251
195.359	13.783	1475.263	1110.875
196.373	13.846	1474.149	1110.357
197.388	13.843	1473.564	1109.802
198.402	13.924	1472.317	1109.304
199.417	14.047	1471.095	1109.106
200.432	13.986	1470.129	1107.871
201.446	14.048	1469.457	1107.681
202.461	14.153	1468.162	1107.309
203.475	14.145	1467.366	1106.554
204.490	14.173	1465.991	1105.606
205.504	14.220	1464.807	1104.925
206.519	14.057	1464.076	1103.200
207.534	14.034	1462.632	1101.859
208.548	14.186	1461.029	1101.557
209.563	14.148	1460.080	1100.494
210.577	14.099	1459.428	1099.580
211.592	14.048	1458.850	1098.715
212.607	14.121	1458.001	1098.456
213.621	14.243	1457.546	1098.824
214.636	14.249	1456.031	1097.624
215.650	14.207	1455.216	1096.637
216.665	14.240	1454.312	1096.073
217.680	14.250	1453.400	1095.357
218.694	14.264	1452.710	1094.833
219.709	14.309	1451.992	1094.487
220.723	14.392	1450.601	1093.890
221.738	14.309	1449.799	1092.644
222.753	14.317	1449.050	1092.037
223.767	14.231	1448.389	1090.877
224.782	14.343	1446.945	1090.426
225.796	14.450	1446.256	1090.506
226.811	14.490	1445.199	1089.879
227.826	14.442	1444.894	1089.238
228.840	14.437	1443.868	1088.335
229.855	14.383	1442.877	1087.140
230.869	14.423	1441.424	1086.205
231.884	14.407	1440.594	1085.386
232.899	14.381	1439.249	1084.102
233.913	14.347	1438.258	1083.039
234.928	14.347	1437.108	1082.078
235.942	14.441	1435.777	1081.592
236.957	14.416	1434.510	1080.379
237.972	14.348	1433.624	1079.173
238.986	14.500	1431.988	1078.831
240.001	14.358	1431.889	1077.743
241.015	14.457	1430.177	1076.999
242.030	14.453	1429.064	1076.039
243.045	14.552	1427.723	1075.574
244.059	14.520	1427.486	1075.093
245.074	14.631	1426.046	1074.626
246.088	14.536	1425.892	1073.807
247.103	14.575	1425.071	1073.344
248.117	14.648	1424.159	1073.031
249.132	14.641	1423.783	1072.605
250.147	14.617	1423.077	1071.829
251.161	14.787	1422.439	1072.342
252.176	14.826	1421.686	1071.932
253.190	14.894	1420.839	1071.631
254.205	14.921	1419.937	1071.033
255.220	14.935	1419.355	1070.584
256.234	15.000	1418.152	1070.002
257.249	14.985	1417.352	1069.207
258.263	15.012	1416.620	1068.731
259.278	14.982	1415.526	1067.621
260.293	14.935	1414.913	1066.765
261.307	15.030	1414.031	1066.612
262.322	15.081	1413.160	1066.179
263.336	15.063	1412.397	1065.400
264.351	15.139	1411.224	1064.902
265.366	15.045	1410.610	1063.748
266.380	15.141	1409.718	1063.587
267.395	15.248	1408.651	1063.369
268.409	15.134	1407.851	1061.948
269.424	15.066	1407.183	1060.919
270.439	15.119	1405.897	1060.190
271.453	15.160	1404.241	1059.111
272.468	15.137	1403.986	1058.680
273.482	15.112	1403.315	1057.921
274.497	15.124	1402.201	1057.066
275.512	15.131	1401.189	1056.246
276.526	15.095	1400.774	1055.616
277.541	15.145	1399.427	1054.821
278.555	15.226	1398.723	1054.708
279.570	15.214	1397.469	1053.595
280.585	15.286	1396.866	1053.498
281.599	15.388	1395.623	1053.106
282.614	15.245	1395.149	1051.758
283.628	15.400	1393.608	1051.475
284.643	15.328	1392.801	1050.325
285.657	15.303	1391.719	1049.262
286.672	15.278	1390.932	1048.416
287.687	15.365	1389.897	1048.089
288.701	15.272	1388.837	1046.617
289.716	15.230	1388.408	1045.939
290.730	15.305	1387.822	1045.870
291.745	15.356	1386.441	1045.057
292.760	15.386	1385.174	1044.192
293.774	15.449	1384.440	1043.938
294.789	15.357	1383.786	1042.785
295.803	15.397	1383.371	1042.627
296.818	15.461	1382.009	1041.903
297.833	15.508	1380.869	1041.248
298.847	15.361	1379.931	1039.532
299.862	15.432	1378.904	1039.105
300.876	15.478	1377.696	1038.391
301.891	15.543	1377.047	1038.208
302.906	15.566	1376.150	1037.583
303.920	15.680	1374.959	1037.297
304.935	15.719	1374.144	1036.832
305.949	15.622	1373.813	1035.893
306.964	15.634	1373.457	1035.605
307.979	15.751	1372.349	1035.402
308.993	15.725	1370.824	1034.001
310.008	15.744	1370.087	1033.469
311.022	15.747	1368.955	1032.539
312.037	15.777	1368.503	1032.295
313.052	15.728	1367.389	1031.062
314.066	15.740	1366.282	1030.211
315.081	15.713	1365.282	1029.200
316.095	15.778	1364.439	1028.871
317.110	15.705	1363.273	1027.454
318.125	15.705	1362.270	1026.605
319.139	15.783	1361.588	1026.478
320.154	15.750	1360.501	1025.364
321.168	15.712	1359.827	1024.536
322.183	15.745	1358.877	1023.927
323.197	15.879	1357.330	1023.487
324.212	15.769	1356.899	1022.405
325.227	15.899	1356.014	1022.434
326.241	15.878	1354.903	1021.379
327.256	15.917	1354.276	1021.052
328.270	15.840	1353.566	1019.962
329.285	15.887	1352.162	1019.100
330.300	15.843	1351.646	1018.351
331.314	15.982	1350.456	1018.205
332.329	15.852	1349.742	1016.792
333.343	15.774	1349.385	1015.963
334.358	15.841	1348.242	1015.417
335.373	15.898	1347.187	1014.878
336.387	15.994	1346.175	1014.600
337.402	16.012	1345.597	1014.186
338.416	16.047	1344.743	1013.661
339.431	16.067	1344.421	1013.450
340.446	16.061	1343.544	1012.660
341.460	16.085	1342.890	1012.222
342.475	16.090	1341.665	1011.241
343.489	16.135	1341.028	1010.941
344.504	16.249	1339.859	1010.654
345.519	16.231	1338.569	1009.481
346.533	16.267	1337.572	1008.858
347.548	16.333	1336.627	1008.450
348.562	16.417	1335.855	1008.277
349.577	16.272	1335.504	1007.057
350.592	16.262	1334.961	1006.501
351.606	16.309	1333.540	1005.621
352.621	16.267	1332.752	1004.690
353.635	16.230	1331.917	1003.751
354.650	16.226	1330.867	1002.847
355.665	16.165	1330.332	1001.988
356.679	16.242	1328.849	1001.245
357.694	16.314	1327.499	1000.561
358.708	16.281	1326.690	999.670
359.723	16.406	1325.687	999.563
360.738	16.402	1324.608	998.639
361.752	16.487	1323.273	998.046
362.767	16.382	1322.567	996.809
363.781	16.291	1322.042	995.785
364.796	16.511	1320.524	995.847
365.810	16.478	1320.017	995.183
366.825	16.505	1319.534	994.891
367.840	16.543	1318.580	994.307
368.854	16.469	1318.439	993.681
369.869	16.608	1317.619	993.792
370.883	16.679	1316.913	993.585
371.898	16.470	1316.458	991.930
372.913	16.570	1315.293	991.546
373.927	16.642	1314.266	991.108
374.942	16.537	1313.847	990.089
375.956	16.645	1312.859	989.888
376.971	16.583	1312.113	988.879
377.986	16.629	1311.316	988.456
379.000	16.669	1310.233	987.785
380.015	16.725	1309.734	987.648
381.029	16.834	1308.967	987.622
382.044	16.733	1308.680	986.728
383.059	16.846	1307.585	986.473
384.073	16.796	1306.691	985.422
385.088	16.820	1306.565	985.374
386.102	16.875	1305.714	984.966
387.117	16.861	1305.025	984.279
388.132	16.861	1304.165	983.542
389.146	16.888	1303.076	982.791
390.161	16.877	1302.298	982.055
391.175	16.893	1301.211	981.237
392.190	16.913	1300.689	980.877
393.205	16.818	1300.385	980.013
394.219	16.941	1298.827	979.462
395.234	16.977	1297.535	978.607
396.248	16.961	1296.586	977.712
397.263	16.853	1295.457	976.150
398.278	16.999	1293.843	975.691
399.292	16.853	1292.885	974.044
400.307	16.927	1291.532	973.360
401.321	16.880	1290.675	972.360
402.336	16.893	1289.546	971.500
403.350	16.780	1288.998	970.348
404.365	16.972	1287.553	970.275
405.380	17.059	1286.910	970.200
406.394	17.012	1286.077	969.223
407.409	17.077	1285.457	969.038
408.423	17.051	1284.713	968.243
409.438	17.122	1284.189	968.170
410.453	17.138	1283.635	967.753
411.467	17.212	1282.202	967.013
412.482	17.212	1282.331	967.021
413.496	17.198	1281.874	966.515
414.511	17.279	1280.350	965.738
415.526	17.457	1279.134	965.748
416.540	17.306	1279.386	964.993
417.555	17.323	1278.598	964.409
418.569	17.362	1278.308	964.328
419.584	17.350	1277.418	963.502
420.599	17.360	1276.921	963.097
421.613	97.347	1355.803	1478.485
422.628	95.076	1367.236	1478.557
