DTS Sentinel unit serial number:	SN413079Multiplexer serial number:	ORYXHardware model number:	OX4-SRSoftware version number:	ORYX F/W v4.00 Oryx Data Collector v3.7.2.0data status	okinstallation	princeton_trtdifferential loss correction	single-endedforward channel	channel 4reverse channel	N/Adate	2019/09/13time	08:29:35forward acquisition time	60.00reverse acquisition time	0.00gamma	496.2192k internal	0.2317k external	0.2317temperature offset calibration	1.0200default loss term (dB/km)	0.3790temperature slope calibration	1.0000multiplexer offset coefficient	1.0000multiplexer slope coefficient	1.0000fibre end	0.00T internal ref (°C)	27.45T ext. ref 1 (°C)	4.28T ext. ref 2 (°C)	24.24length (m)	temperature (°C)	Stokes	anti-Stokes-747.200	64.544	0.115	-0.118
-746.185	57.643	-0.113	0.112
-745.171	357.073	-0.119	0.241
-744.156	460.917	0.277	0.626
-743.142	-200.000	0.036	0.176
-742.127	-96.986	-0.230	-0.061
-741.112	-177.319	-0.255	0.006
-740.098	182.816	0.062	0.093
-739.083	-64.270	-0.327	-0.135
-738.069	618.552	0.116	-0.296
-737.054	489.260	-0.106	-0.245
-736.039	-39.347	-0.204	-0.109
-735.025	-94.839	0.087	0.024
-734.010	32.499	-0.143	-0.125
-732.996	169.715	0.136	0.197
-731.981	-114.463	-0.169	-0.033
-730.966	-35.960	-0.148	-0.081
-729.952	-50.955	-0.201	0.096
-728.937	800.000	-0.103	0.330
-727.923	-24.706	-0.141	0.085
-726.908	-34.654	-0.081	0.045
-725.894	26.875	0.143	0.121
-724.879	-16.367	0.057	0.037
-723.864	-24.855	-0.269	-0.162
-722.850	82.077	-0.090	0.099
-721.835	-70.128	-0.249	0.096
-720.821	-88.655	-0.245	-0.074
-719.806	-35.742	0.252	0.138
-718.791	-100.550	-0.281	0.070
-717.777	-200.000	-0.044	0.226
-716.762	-26.215	0.189	-0.112
-715.748	331.424	-0.092	-0.179
-714.733	353.247	0.137	-0.275
-713.718	-41.841	-0.246	-0.127
-712.704	-59.925	-0.100	0.043
-711.689	4.745	-0.195	-0.145
-710.675	-9.832	-0.087	0.058
-709.660	-58.877	-0.244	0.107
-708.645	-25.498	-0.256	0.153
-707.631	-116.725	-0.314	0.058
-706.616	-200.000	0.010	-0.099
-705.602	-94.209	-0.205	-0.057
-704.587	54.807	0.304	0.296
-703.572	-181.314	0.123	0.002
-702.558	62.938	0.201	0.203
-701.543	-73.796	-0.185	-0.068
-700.529	668.551	0.038	-0.100
-699.514	-64.695	-0.129	-0.053
-698.499	-17.184	-0.055	-0.035
-697.485	-32.450	-0.235	0.133
-696.470	291.021	0.088	-0.162
-695.456	68.079	0.153	-0.158
-694.441	-200.000	0.059	-0.388
-693.426	-31.247	-0.219	-0.125
-692.412	505.413	-0.158	-0.371
-691.397	332.719	-0.070	-0.137
-690.383	33.265	0.041	0.036
-689.368	-149.759	-0.389	-0.031
-688.354	-200.000	-0.043	-0.215
-687.339	106.087	-0.098	0.117
-686.324	30.857	-0.085	-0.074
-685.310	800.000	0.109	-0.382
-684.295	-106.279	0.128	0.029
-683.281	-200.000	-0.026	-0.211
-682.266	-97.726	0.056	-0.015
-681.251	-80.870	0.178	-0.060
-680.237	-52.694	-0.031	-0.015
-679.222	478.127	-0.176	0.402
-678.208	800.000	-0.058	0.237
-677.193	571.742	-0.065	-0.160
-676.178	-105.151	-0.064	0.015
-675.164	384.367	0.102	0.213
-674.149	107.619	-0.088	0.106
-673.135	-113.556	0.338	0.067
-672.120	618.481	-0.036	-0.091
-671.105	-59.041	-0.199	-0.087
-670.091	-45.799	0.234	-0.117
-669.076	37.236	-0.088	-0.078
-668.062	191.125	-0.078	-0.118
-667.047	-64.849	-0.207	0.084
-666.032	-110.121	0.146	-0.031
-665.018	-61.967	-0.243	0.103
-664.003	-7.709	0.181	-0.123
-662.989	-159.261	0.239	0.014
-661.974	800.000	0.080	0.275
-660.959	-15.285	-0.330	0.213
-659.945	-200.000	-0.048	-0.220
-658.930	800.000	-0.074	-0.231
-657.916	128.980	0.139	0.179
-656.901	-27.194	-0.325	0.191
-655.886	-7.648	0.170	0.116
-654.872	-103.882	-0.063	0.015
-653.857	-26.996	-0.174	-0.102
-652.843	367.941	0.075	0.152
-651.828	-200.000	0.123	0.000
-650.814	349.426	0.144	-0.287
-649.799	-200.000	-0.077	0.342
-648.784	40.886	0.211	0.192
-647.770	161.296	-0.139	-0.196
-646.755	-130.231	-0.150	-0.021
-645.741	-200.000	-0.003	0.359
-644.726	261.847	-0.090	-0.158
-643.711	-30.942	0.194	-0.110
-642.697	-43.493	0.318	-0.162
-641.682	-89.828	0.326	-0.096
-640.668	-162.232	-0.169	-0.009
-639.653	-60.214	0.134	0.058
-638.638	141.878	-0.076	0.101
-637.624	-200.000	0.002	-0.054
-636.609	77.403	0.280	0.300
-635.595	-108.602	-0.293	0.063
-634.580	-129.441	0.292	0.041
-633.565	410.279	-0.110	-0.236
-632.551	118.259	-0.142	-0.177
-631.536	225.216	-0.084	-0.137
-630.522	377.541	-0.021	-0.042
-629.507	-89.919	-0.098	-0.029
-628.492	273.354	0.092	-0.164
-627.478	54.209	0.142	-0.138
-626.463	800.000	-0.056	-0.195
-625.449	-200.000	-0.016	0.259
-624.434	728.627	0.072	-0.194
-623.419	-89.838	0.318	-0.094
-622.405	-200.000	0.063	-0.307
-621.390	66.167	0.040	-0.041
-620.376	-200.000	-0.017	-0.126
-619.361	-174.065	-0.261	-0.008
-618.346	222.540	0.143	0.232
-617.332	-16.192	0.396	0.253
-616.317	-122.724	0.348	0.057
-615.303	-200.000	0.014	0.161
-614.288	-49.685	0.192	-0.092
-613.273	-6.230	-0.043	0.029
-612.259	69.024	0.095	0.098
-611.244	-99.523	0.204	0.052
-610.230	-151.646	-0.153	0.011
-609.215	170.940	0.101	-0.145
-608.201	-48.281	-0.224	0.109
-607.186	-52.075	-0.164	-0.076
-606.171	800.000	-0.043	0.191
-605.157	117.742	-0.168	-0.209
-604.142	715.720	0.038	-0.101
-603.128	-65.801	0.199	-0.080
-602.113	-129.708	-0.164	0.023
-601.098	-130.137	-0.239	-0.033
-600.084	800.000	0.018	0.071
-599.069	542.933	-0.143	0.344
-598.055	32.640	0.029	0.025
-597.040	-200.000	-0.010	0.528
-596.025	800.000	-0.093	-0.349
-595.011	-154.663	-0.398	0.027
-593.996	-107.038	0.203	-0.045
-592.982	205.514	0.053	-0.083
-591.967	237.326	-0.210	-0.351
-590.952	395.211	-0.120	0.252
-589.938	-200.000	-0.029	-0.277
-588.923	-26.676	-0.118	-0.070
-587.909	-15.347	0.092	0.060
-586.894	161.621	-0.272	-0.383
-585.879	-44.267	0.149	-0.075
-584.865	36.652	0.101	0.090
-583.850	-53.885	-0.163	-0.075
-582.836	132.142	-0.227	0.294
-581.821	27.240	-0.035	0.030
-580.806	-165.160	0.389	0.017
-579.792	697.769	0.085	-0.225
-578.777	-41.312	0.113	0.059
-577.763	-116.780	-0.151	-0.028
-576.748	800.000	-0.107	0.354
-575.733	-200.000	0.014	0.091
-574.719	-35.553	-0.172	0.094
-573.704	-101.044	0.330	0.081
-572.690	-56.219	-0.218	-0.097
-571.675	800.000	-0.009	0.038
-570.661	12.885	0.228	-0.178
-569.646	-130.246	0.275	0.038
-568.631	-131.205	0.059	-0.008
-567.617	2.476	0.237	0.173
-566.602	218.364	-0.062	0.099
-565.588	-5.530	-0.192	0.132
-564.573	-22.328	0.196	0.119
-563.558	-4.489	0.247	-0.171
-562.544	-200.000	-0.073	0.375
-561.529	-200.000	0.003	-0.106
-560.515	123.062	-0.282	-0.356
-559.500	140.157	-0.072	-0.096
-558.485	-91.523	-0.312	-0.089
-557.471	-46.830	-0.099	-0.049
-556.456	475.464	-0.051	-0.115
-555.442	92.046	0.106	0.120
-554.427	516.943	0.096	0.225
-553.412	142.639	-0.112	-0.150
-552.398	-105.125	0.181	-0.042
-551.383	800.000	0.026	0.107
-550.369	-139.689	0.356	-0.038
-549.354	-200.000	-0.072	0.432
-548.339	-200.000	-0.074	0.392
-547.325	-200.000	-0.032	0.256
-546.310	-51.003	0.269	-0.127
-545.296	420.842	-0.091	-0.196
-544.281	500.511	-0.049	0.114
-543.266	285.130	-0.294	0.532
-542.252	662.000	0.067	0.172
-541.237	-69.126	-0.231	-0.089
-540.223	91.272	0.193	0.217
-539.208	787.151	-0.120	0.332
-538.193	-88.596	-0.065	-0.020
-537.179	101.745	-0.095	-0.112
-536.164	269.430	-0.047	-0.082
-535.150	-200.000	0.008	0.130
-534.135	800.000	-0.078	-0.330
-533.121	21.893	-0.142	0.116
-532.106	-200.000	-0.003	-0.098
-531.091	91.587	-0.099	-0.112
-530.077	254.983	-0.119	-0.205
-529.062	-200.000	0.031	0.363
-528.048	-128.989	-0.085	0.012
-527.033	-156.430	-0.112	-0.007
-526.018	-40.697	0.194	-0.101
-525.004	71.173	0.092	0.096
-523.989	61.166	-0.222	0.221
-522.975	-37.766	0.080	-0.043
-521.960	605.818	-0.096	0.239
-520.945	-84.663	0.073	-0.023
-519.931	-71.073	-0.275	-0.104
-518.916	652.207	0.021	0.053
-517.902	127.276	0.038	0.048
-516.887	-200.000	0.020	0.100
-515.872	-166.967	-0.148	-0.006
-514.858	-200.000	-0.034	0.178
-513.843	-200.000	-0.020	-0.324
-512.829	-200.000	0.014	0.082
-511.814	36.496	-0.180	-0.160
-510.799	-200.000	0.009	0.184
-509.785	800.000	0.037	0.152
-508.770	43.891	-0.276	-0.254
-507.756	76.323	-0.344	-0.366
-506.741	-15.306	-0.114	-0.073
-505.726	800.000	0.087	0.241
-504.712	-104.676	-0.100	0.023
-503.697	-13.393	-0.107	0.070
-502.683	-61.870	0.068	0.029
-501.668	800.000	-0.027	-0.096
-500.653	-53.372	-0.255	-0.117
-499.639	437.429	0.053	-0.116
-498.624	795.789	0.036	0.101
-497.610	189.816	-0.147	-0.221
-496.595	396.732	0.063	0.133
-495.581	33.200	-0.338	-0.294
-494.566	-200.000	0.005	0.225
-493.551	-22.692	-0.092	-0.055
-492.537	144.681	-0.116	0.155
-491.522	-74.888	-0.169	0.061
-490.508	-127.806	-0.314	0.045
-489.493	248.923	-0.115	0.196
-488.478	-92.053	0.148	0.042
-487.464	25.642	0.313	0.261
-486.449	-7.558	-0.127	-0.086
-485.435	-26.196	-0.347	-0.205
-484.420	-32.692	0.243	-0.135
-483.405	721.634	0.031	-0.083
-482.391	-161.735	-0.089	-0.005
-481.376	110.783	-0.052	-0.062
-480.362	-128.642	0.116	-0.016
-479.347	520.578	0.068	-0.159
-478.332	-53.909	-0.315	-0.144
-477.318	-118.016	-0.232	-0.042
-476.303	-151.693	0.260	0.019
-475.289	72.892	-0.190	0.199
-474.274	-107.173	0.282	-0.062
-473.259	-22.367	0.259	-0.157
-472.245	-182.970	0.369	-0.007
-471.230	-18.875	-0.158	0.099
-470.216	-200.000	-0.016	0.085
-469.201	44.092	-0.026	-0.024
-468.186	-200.000	0.004	-0.134
-467.172	36.325	0.086	0.076
-466.157	-200.000	0.052	-0.304
-465.143	-200.000	-0.003	0.110
-464.128	84.044	-0.031	-0.034
-463.113	-131.724	-0.194	-0.025
-462.099	-200.000	-0.016	-0.283
-461.084	-77.719	0.043	-0.015
-460.070	-200.000	0.000	0.206
-459.055	-28.308	-0.024	0.014
-458.040	-7.764	-0.129	0.087
-457.026	-30.110	-0.125	0.071
-456.011	800.000	-0.090	0.366
-454.997	-31.761	0.105	-0.059
-453.982	132.406	-0.152	-0.196
-452.968	329.375	0.088	0.170
-451.953	800.000	-0.045	0.170
-450.938	-17.701	-0.480	-0.302
-449.924	800.000	0.107	0.304
-448.909	-200.000	0.062	0.410
-447.895	156.556	0.004	0.005
-446.880	800.000	0.063	0.176
-445.865	-30.581	-0.350	0.199
-444.851	237.284	-0.054	0.089
-443.836	252.886	-0.159	0.272
-442.822	-19.117	-0.159	0.099
-441.807	109.485	-0.044	-0.052
-440.792	800.000	-0.146	0.431
-439.778	-51.601	-0.092	0.043
-438.763	-118.205	-0.070	-0.012
-437.749	800.000	0.055	-0.172
-436.734	-94.819	0.357	0.097
-435.719	-200.000	0.004	-0.114
-434.705	-71.968	-0.076	0.028
-433.690	-7.136	-0.219	0.148
-432.676	-200.000	0.054	-0.246
-431.661	-200.000	0.416	0.001
-430.646	177.721	-0.122	-0.178
-429.632	-200.000	-0.002	0.036
-428.617	231.049	-0.111	0.182
-427.603	-70.369	-0.098	0.037
-426.588	197.751	-0.030	0.045
-425.573	258.472	-0.115	-0.198
-424.559	-25.622	-0.255	-0.151
-423.544	181.119	0.105	0.155
-422.530	-200.000	0.033	-0.169
-421.515	-200.000	-0.064	0.636
-420.500	-73.995	-0.378	0.137
-419.486	-7.807	0.056	-0.038
-418.471	172.505	0.132	-0.190
-417.457	-200.000	-0.047	0.505
-416.442	-200.000	0.076	-0.402
-415.428	800.000	0.039	0.138
-414.413	800.000	0.113	0.320
-413.398	-97.528	-0.104	-0.027
-412.384	150.883	0.056	0.076
-411.369	-2.187	-0.167	0.117
-410.355	57.564	-0.161	0.158
-409.340	-101.436	0.350	-0.085
-408.325	41.059	-0.197	-0.178
-407.311	-19.823	-0.282	0.174
-406.296	-200.000	0.047	-0.307
-405.282	-98.565	-0.331	0.085
-404.267	-4.045	-0.125	-0.086
-403.252	33.061	-0.310	-0.269
-402.238	388.899	-0.123	-0.255
-401.223	228.853	-0.120	-0.195
-400.209	18.100	0.264	-0.210
-399.194	14.465	0.181	0.141
-398.179	-200.000	-0.037	-0.203
-397.165	-200.000	-0.005	0.085
-396.150	-100.537	-0.275	-0.068
-395.136	245.330	0.142	0.238
-394.121	-78.762	0.200	0.068
-393.106	800.000	-0.035	-0.126
-392.092	-200.000	-0.016	0.126
-391.077	800.000	-0.071	0.298
-390.063	800.000	0.119	0.352
-389.048	-136.823	-0.084	0.010
-388.033	158.155	0.223	-0.308
-387.019	125.093	-0.076	-0.096
-386.004	-22.486	-0.110	0.066
-384.990	400.812	0.085	-0.178
-383.975	-44.659	0.042	0.021
-382.960	-66.874	0.158	-0.062
-381.946	131.973	0.127	0.164
-380.931	-135.897	0.256	-0.030
-379.917	-102.021	-0.062	0.015
-378.902	79.701	0.348	-0.373
-377.888	800.000	0.100	-0.292
-376.873	-200.000	0.011	-0.424
-375.858	-44.661	-0.015	0.008
-374.844	101.546	-0.148	0.173
-373.829	-200.000	0.016	-0.130
-372.815	-9.882	-0.087	-0.058
-371.800	-14.695	-0.110	0.070
-370.785	-14.231	0.208	0.134
-369.771	-200.000	0.021	-0.167
-368.756	-16.802	-0.285	-0.180
-367.742	378.962	-0.102	-0.208
-366.727	-9.269	0.168	0.112
-365.712	-10.247	0.169	-0.112
-364.698	-200.000	-0.023	0.172
-363.683	-50.170	-0.182	0.086
-362.669	-28.009	-0.173	0.100
-361.654	-94.265	-0.039	-0.011
-360.639	-27.656	0.267	0.155
-359.625	-151.484	0.238	0.018
-358.610	5.996	0.135	-0.100
-357.596	-200.000	0.032	-0.204
-356.581	-58.604	-0.076	0.033
-355.566	800.000	0.059	-0.245
-354.552	800.000	0.051	-0.218
-353.537	133.384	-0.062	-0.080
-352.523	800.000	-0.063	-0.198
-351.508	92.130	0.159	-0.179
-350.493	800.000	0.070	-0.227
-349.479	492.950	0.084	-0.191
-348.464	-106.516	0.172	-0.038
-347.450	59.225	0.144	0.141
-346.435	-153.279	-0.116	0.008
-345.420	-27.735	-0.052	-0.030
-344.406	511.177	-0.075	-0.174
-343.391	-147.834	0.254	0.021
-342.377	-44.826	0.100	-0.050
-341.362	188.239	-0.095	0.142
-340.348	800.000	-0.044	-0.177
-339.333	800.000	-0.017	0.051
-338.318	164.645	0.099	0.139
-337.304	-20.093	0.286	0.176
-336.289	759.702	0.076	0.205
-335.275	53.719	-0.183	-0.175
-334.260	115.059	-0.110	0.134
-333.245	-152.013	0.124	0.009
-332.231	-200.000	0.071	0.454
-331.216	-88.432	-0.064	0.019
-330.202	-46.731	0.244	0.119
-329.187	-59.416	-0.163	0.070
-328.172	432.432	0.199	0.430
-327.158	-95.615	0.361	0.096
-326.143	800.000	-0.089	-0.287
-325.129	-0.806	0.291	-0.205
-324.114	403.569	-0.091	0.191
-323.099	-15.565	0.233	-0.148
-322.085	-200.000	0.005	-0.125
-321.070	204.656	0.053	0.081
-320.056	-48.136	-0.192	0.092
-319.041	-5.743	0.147	-0.101
-318.026	210.280	-0.148	-0.232
-317.012	-17.246	-0.368	0.231
-315.997	224.615	-0.151	0.243
-314.983	-200.000	-0.000	-0.079
-313.968	-200.000	-0.041	-0.200
-312.953	361.437	0.168	-0.335
-311.939	-97.700	0.389	-0.100
-310.924	21.103	0.109	-0.088
-309.910	496.633	0.130	-0.298
-308.895	-37.159	-0.074	0.039
-307.880	-160.470	0.138	-0.007
-306.866	800.000	-0.027	0.080
-305.851	-68.323	-0.290	-0.112
-304.837	31.210	0.120	0.102
-303.822	-55.708	-0.343	0.153
-302.807	80.018	0.144	0.155
-301.793	-76.191	0.166	-0.058
-300.778	-112.229	-0.217	-0.043
-299.764	327.176	-0.067	0.128
-298.749	461.823	-0.066	-0.146
-297.735	800.000	-0.058	-0.246
-296.720	800.000	0.029	0.094
-295.705	617.809	0.106	-0.265
-294.691	-200.000	0.009	0.173
-293.676	538.642	-0.137	0.324
-292.662	-200.000	-0.002	-0.105
-291.647	90.560	-0.131	-0.145
-290.632	-200.000	-0.020	-0.225
-289.618	283.811	-0.112	0.200
-288.603	-114.843	0.091	0.017
-287.589	84.447	-0.167	-0.182
-286.574	800.000	-0.029	-0.085
-285.559	28.951	0.295	-0.248
-284.545	509.397	0.077	0.179
-283.530	800.000	-0.110	-0.378
-282.516	266.953	0.206	0.358
-281.501	55.871	-0.127	0.123
-280.486	-191.365	0.352	0.004
-279.472	-27.366	-0.266	-0.154
-278.457	221.106	0.142	-0.227
-277.443	-200.000	0.000	-0.058
-276.428	102.624	0.166	0.193
-275.413	69.908	0.183	0.188
-274.399	-200.000	0.033	0.348
-273.384	-114.812	0.182	-0.035
-272.370	223.231	0.091	0.145
-271.355	383.633	0.088	0.181
-270.340	-200.000	0.021	-0.263
-269.326	218.127	0.084	-0.134
-268.311	-28.568	-0.238	-0.137
-267.297	-48.928	-0.191	0.091
-266.282	122.538	0.079	0.098
-265.267	-156.854	-0.319	-0.019
-264.253	-132.401	0.164	0.021
-263.238	-200.000	0.056	-0.243
-262.224	-22.319	-0.338	-0.203
-261.209	-200.000	-0.007	0.073
-260.195	-83.149	0.226	0.072
-259.180	785.134	0.134	0.365
-258.165	450.543	-0.129	-0.284
-257.151	-93.024	0.289	-0.080
-256.136	-200.000	0.042	0.240
-255.122	-58.081	0.188	-0.081
-254.107	185.467	0.222	0.328
-253.092	-71.357	-0.322	0.120
-252.078	-102.388	-0.479	-0.114
-251.063	-53.632	0.162	-0.074
-250.049	386.375	0.098	0.200
-249.034	-108.323	-0.460	-0.099
-248.019	-175.521	0.390	0.011
-247.005	-200.000	-0.028	-0.193
-245.990	-67.024	-0.089	-0.035
-244.976	-150.550	0.364	-0.028
-243.961	-200.000	0.000	0.135
-242.946	-32.806	0.066	-0.036
-241.932	-88.861	0.353	0.104
-240.917	-91.555	-0.320	0.090
-239.903	41.992	0.088	-0.079
-238.888	800.000	-0.002	-0.006
-237.873	108.899	-0.165	-0.196
-236.859	144.562	0.186	-0.246
-235.844	-44.256	0.281	0.140
-234.830	-3.919	0.293	-0.202
-233.815	-20.220	-0.078	0.047
-232.800	-55.694	-0.177	0.079
-231.786	-200.000	-0.005	0.109
-230.771	156.105	-0.067	0.092
-229.757	373.238	0.061	0.124
-228.742	127.083	-0.085	-0.107
-227.727	-33.843	0.224	0.122
-226.713	-108.831	0.144	0.031
-225.698	302.630	-0.114	-0.209
-224.684	92.867	-0.079	-0.089
-223.669	-122.894	0.496	-0.079
-222.655	800.000	-0.030	-0.103
-221.640	176.101	0.150	0.216
-220.625	-127.060	0.153	-0.022
-219.611	-70.464	-0.123	-0.046
-218.596	-200.000	0.062	0.337
-217.582	-58.556	0.179	0.077
-216.567	78.568	0.043	0.046
-215.552	-113.003	-0.169	0.033
-214.538	800.000	-0.148	-0.451
-213.523	-52.040	-0.165	0.076
-212.509	-200.000	0.004	-0.061
-211.494	-200.000	0.022	0.248
-210.479	-200.000	0.115	0.513
-209.465	358.027	0.127	-0.251
-208.450	-123.183	-0.111	-0.018
-207.436	-179.091	-0.320	0.007
-206.421	-11.902	0.193	-0.126
-205.406	60.654	0.014	-0.014
-204.392	-200.000	-0.022	0.211
-203.377	-41.050	-0.059	0.030
-202.363	800.000	0.058	0.182
-201.348	-75.134	0.242	-0.086
-200.333	-143.687	0.240	-0.023
-199.319	218.837	-0.230	0.364
-198.304	71.253	-0.207	0.213
-197.290	-59.675	0.076	-0.032
-196.275	352.044	-0.060	0.117
-195.260	800.000	0.020	0.074
-194.246	-104.852	-0.269	-0.061
-193.231	-200.000	0.038	0.185
-192.217	-70.345	-0.219	-0.082
-191.202	-76.243	0.371	-0.130
-190.187	-200.000	0.062	-0.300
-189.173	23.833	0.098	-0.080
-188.158	800.000	-0.070	-0.243
-187.144	-63.622	0.066	0.027
-186.129	31.475	0.064	-0.055
-185.114	-38.756	-0.065	-0.034
-184.100	5.062	0.205	0.150
-183.085	-172.010	-0.245	-0.008
-182.071	-3.126	0.127	-0.088
-181.056	800.000	0.073	-0.291
-180.042	-200.000	0.004	-0.034
-179.027	-183.698	0.079	-0.001
-178.012	-41.003	0.137	0.070
-176.998	237.926	-0.209	-0.343
-175.983	187.128	-0.130	-0.192
-174.969	-31.508	0.049	0.027
-173.954	-200.000	-0.014	-0.155
-172.939	165.733	-0.119	-0.167
-171.925	120.335	0.268	0.329
-170.910	-71.115	-0.303	0.113
-169.896	800.000	0.060	0.168
-168.881	-132.932	0.095	0.012
-167.866	-200.000	-0.004	-0.045
-166.852	347.388	0.049	-0.095
-165.837	44.334	0.105	-0.095
-164.823	61.456	0.131	-0.129
-163.808	-200.000	0.089	-0.466
-162.793	554.095	0.046	0.109
-161.779	37.305	-0.174	-0.153
-160.764	26.799	-0.157	0.130
-159.750	342.235	-0.083	0.160
-158.735	126.525	0.115	0.144
-157.720	-155.904	0.124	-0.008
-156.706	800.000	0.037	-0.156
-155.691	93.499	0.117	-0.131
-154.677	477.046	-0.047	-0.105
-153.662	653.819	-0.136	-0.345
-152.647	40.359	0.063	-0.056
-151.633	-92.954	0.206	-0.057
-150.618	260.743	0.102	-0.174
-149.604	-94.803	0.087	0.023
-148.589	-200.000	-0.031	0.194
-147.574	248.556	-0.059	-0.098
-146.560	-13.385	-0.250	-0.161
-145.545	423.803	0.113	-0.240
-144.531	239.045	-0.051	0.084
-143.516	538.094	-0.023	-0.054
-142.502	800.000	-0.034	0.104
-141.487	584.942	-0.049	-0.120
-140.472	224.746	0.129	-0.207
-139.458	800.000	0.125	0.352
-138.443	-42.953	-0.104	0.052
-137.429	-68.159	-0.059	0.023
-136.414	373.949	-0.135	-0.272
-135.399	-200.000	0.002	-0.040
-134.385	68.693	0.124	0.126
-133.370	-132.579	0.236	0.030
-132.356	-200.000	-0.016	-0.164
-131.341	131.614	0.049	0.062
-130.326	-193.343	0.138	-0.001
-129.312	800.000	-0.056	0.211
-128.297	-29.820	0.344	-0.194
-127.283	476.645	-0.078	-0.174
-126.268	318.177	-0.118	-0.221
-125.253	-82.427	0.244	0.078
-124.239	-39.081	0.199	-0.103
-123.224	59.910	-0.184	0.179
-122.210	-200.000	0.037	0.165
-121.195	323.794	-0.336	-0.633
-120.180	-142.809	0.290	-0.028
-119.166	175.885	0.066	-0.095
-118.151	151.553	0.324	0.437
-117.137	172.610	0.234	0.332
-116.122	800.000	0.049	0.194
-115.107	-113.578	0.162	0.031
-114.093	80.544	0.231	-0.246
-113.078	242.265	-0.071	0.118
-112.064	-148.361	-0.031	0.003
-111.049	8.805	-0.121	-0.090
-110.034	-200.000	0.003	0.132
-109.020	-200.000	0.026	0.126
-108.005	-114.907	-0.170	-0.032
-106.991	-58.284	0.263	-0.113
-105.976	328.769	0.115	0.218
-104.962	-118.497	-0.192	0.034
-103.947	-82.121	-0.719	-0.232
-102.932	-200.000	-0.011	-0.130
-101.918	122.670	0.179	-0.221
-100.903	-200.000	0.072	0.469
-99.889	-183.570	-0.200	0.003
-98.874	800.000	-0.063	-0.171
-97.859	-20.668	0.120	0.072
-96.845	-51.873	0.135	0.062
-95.830	110.036	0.230	-0.273
-94.816	245.977	0.118	0.196
-93.801	-116.801	0.209	0.038
-92.786	182.155	-0.101	0.147
-91.772	-109.671	0.292	-0.061
-90.757	313.761	-0.171	-0.317
-89.743	389.924	0.162	-0.331
-88.728	800.000	0.113	-0.333
-87.713	800.000	0.009	-0.033
-86.699	59.121	-0.266	-0.258
-85.684	-54.475	-0.316	-0.141
-84.670	36.866	0.085	-0.074
-83.655	116.382	0.228	-0.276
-82.640	-200.000	0.063	0.332
-81.626	376.591	0.047	0.094
-80.611	16.357	-0.145	-0.113
-79.597	14.807	0.118	-0.091
-78.582	150.705	-0.102	-0.137
-77.567	328.291	0.096	-0.182
-76.553	-142.150	0.301	0.029
-75.538	351.313	0.048	0.095
-74.524	169.750	0.006	-0.008
-73.509	157.587	0.155	0.212
-72.494	-113.458	0.178	-0.034
-71.480	6.156	0.127	0.093
-70.465	-200.000	0.022	-0.209
-69.451	62.104	-0.075	0.074
-68.436	800.000	0.012	-0.045
-67.422	394.815	0.121	0.249
-66.407	-167.092	0.153	-0.006
-65.392	37.293	-0.148	0.130
-64.378	-10.412	-0.237	-0.155
-63.363	50.597	0.150	0.140
-62.349	-52.974	0.310	0.141
-61.334	320.473	-0.797	-1.493
-60.319	112.399	0.362	0.432
-59.305	800.000	-0.260	-0.854
-58.290	362.812	0.571	1.130
-57.276	800.000	0.433	1.255
-56.261	-200.000	113.169	637.552
-55.246	517.402	1529.536	3526.598
-54.232	172.368	2709.511	3841.956
-53.217	98.817	2336.940	2658.545
-52.203	34.134	2082.733	1789.190
-51.188	29.206	1997.842	1671.616
-50.173	27.767	1980.944	1644.456
-49.159	45.907	2039.551	1859.445
-48.144	44.774	2055.393	1863.464
-47.130	29.763	2013.651	1689.666
-46.115	27.474	2003.163	1659.966
-45.100	27.390	2000.837	1657.202
-44.086	27.317	1998.394	1654.454
-43.071	27.277	1995.494	1651.626
-42.057	27.301	1993.426	1650.064
-41.042	27.339	1991.393	1648.663
-40.027	27.423	1989.349	1647.667
-39.013	27.336	1988.288	1645.929
-37.998	27.327	1986.229	1644.083
-36.984	27.345	1984.224	1642.520
-35.969	27.335	1981.990	1640.511
-34.954	27.352	1980.406	1639.291
-33.940	27.368	1979.196	1638.364
-32.925	27.386	1977.500	1637.058
-31.911	27.487	1975.719	1636.427
-30.896	27.422	1973.953	1634.313
-29.881	27.519	1972.729	1634.108
-28.867	27.444	1971.078	1632.009
-27.852	27.542	1968.903	1631.020
-26.838	27.462	1967.774	1629.302
-25.823	27.564	1965.921	1628.614
-24.809	27.458	1964.395	1626.334
-23.794	27.449	1962.456	1624.592
-22.779	27.569	1959.922	1623.496
-21.765	27.456	1958.862	1621.548
-20.750	27.499	1956.820	1620.172
-19.736	27.529	1955.270	1619.095
-18.721	27.569	1953.274	1617.728
-17.706	27.436	1952.371	1615.742
-16.692	27.454	1950.643	1614.405
-15.677	27.538	1948.908	1613.648
-14.663	27.443	1947.883	1611.892
-13.648	27.417	1946.808	1610.709
-12.633	27.492	1945.096	1609.895
-11.619	27.521	1944.099	1609.260
-10.604	27.501	1942.387	1607.600
-9.590	27.432	1941.036	1605.810
-8.575	27.442	1939.818	1604.830
-7.560	27.519	1938.028	1603.962
-6.546	27.532	1936.735	1602.940
-5.531	27.497	1935.552	1601.589
-4.517	27.516	1934.365	1600.717
-3.502	27.457	1933.378	1599.314
-2.487	27.469	1932.515	1598.640
-1.473	27.465	1930.947	1597.248
-0.458	27.513	1926.895	1594.254
0.556	29.840	1907.030	1568.923
1.571	25.744	1889.840	1520.139
2.586	22.087	1913.065	1507.371
3.600	21.135	1948.983	1527.208
4.615	20.556	1941.253	1515.961
5.629	15.992	1840.121	1399.049
6.644	8.344	1724.515	1251.311
7.659	4.601	1689.727	1197.179
8.673	4.181	1687.123	1192.000
9.688	4.309	1685.505	1191.735
10.702	4.361	1684.834	1191.556
11.717	4.289	1680.792	1188.037
12.731	4.919	1679.698	1191.983
13.746	10.122	1693.105	1241.419
14.761	18.157	1710.000	1315.757
15.775	22.103	1716.435	1351.004
16.790	22.620	1715.881	1354.420
17.804	21.601	1713.132	1344.308
18.819	20.621	1710.397	1334.528
19.834	20.101	1707.939	1328.512
20.848	19.905	1706.560	1325.819
21.863	19.863	1705.947	1324.902
22.877	19.768	1704.421	1322.870
23.892	19.572	1702.934	1320.101
24.907	19.499	1702.099	1318.778
25.921	19.495	1700.349	1317.282
26.936	19.420	1699.702	1316.087
27.950	19.402	1699.138	1315.397
28.965	19.389	1698.871	1314.976
29.980	19.623	1697.609	1315.662
30.994	19.726	1696.944	1315.815
32.009	19.750	1695.936	1315.098
33.023	19.861	1695.077	1315.165
34.038	19.950	1694.016	1314.900
35.053	19.822	1692.855	1312.909
36.067	19.719	1691.448	1310.924
37.082	19.630	1690.255	1309.204
38.096	19.570	1689.821	1308.300
39.111	19.743	1688.046	1308.120
40.126	19.702	1688.159	1307.781
41.140	19.743	1686.666	1306.816
42.155	19.490	1685.042	1303.532
43.169	19.233	1683.384	1300.194
44.184	19.090	1682.372	1298.221
45.199	19.028	1681.149	1296.696
46.213	19.065	1680.547	1296.392
47.228	19.222	1679.535	1296.685
48.242	19.405	1678.291	1296.981
49.257	19.549	1677.134	1297.057
50.271	19.600	1675.981	1296.430
51.286	19.467	1674.637	1294.280
52.301	19.555	1673.297	1293.792
53.315	19.524	1671.883	1292.349
54.330	19.550	1670.083	1291.037
55.344	19.346	1668.545	1288.211
56.359	19.210	1666.989	1285.878
57.374	19.203	1666.022	1284.971
58.388	19.223	1664.616	1283.921
59.403	19.192	1663.364	1282.609
60.417	19.047	1662.108	1280.452
61.432	19.034	1661.190	1279.530
62.447	19.067	1659.942	1278.702
63.461	18.933	1659.054	1276.909
64.476	18.910	1657.886	1275.725
65.490	18.928	1656.544	1274.713
66.505	18.844	1655.453	1273.144
67.520	18.880	1654.770	1272.771
68.534	18.927	1653.463	1271.998
69.549	18.982	1651.970	1271.147
70.563	18.829	1651.470	1269.519
71.578	18.849	1649.756	1268.232
72.593	18.797	1648.625	1266.871
73.607	18.690	1647.618	1265.194
74.622	18.706	1646.328	1264.211
75.636	18.629	1645.642	1263.004
76.651	18.632	1645.402	1262.734
77.666	18.693	1644.566	1262.429
78.680	18.804	1643.543	1262.348
79.695	18.882	1642.408	1261.934
80.709	18.995	1641.513	1261.962
81.724	18.968	1641.401	1261.570
82.739	19.154	1640.428	1262.075
83.753	19.311	1638.838	1261.885
84.768	19.386	1638.742	1262.250
85.782	19.526	1638.448	1262.934
86.797	19.689	1637.626	1263.383
87.812	19.734	1636.433	1262.677
88.826	19.683	1635.356	1261.366
89.841	19.439	1634.580	1258.872
90.855	19.570	1633.718	1259.057
91.870	19.721	1632.007	1258.726
92.884	19.676	1631.936	1258.227
93.899	19.789	1630.473	1257.813
94.914	19.764	1629.285	1256.604
95.928	19.781	1628.719	1256.174
96.943	19.788	1627.207	1254.949
97.957	19.761	1625.507	1253.336
98.972	19.720	1624.059	1251.809
99.987	19.689	1622.556	1250.314
101.001	19.668	1620.921	1248.796
102.016	19.735	1619.584	1248.135
103.030	19.693	1618.535	1246.915
104.045	19.693	1617.128	1245.720
105.060	19.758	1615.661	1244.949
106.074	19.663	1614.043	1242.909
107.089	19.363	1612.428	1239.397
108.103	18.993	1610.284	1234.988
109.118	18.993	1608.774	1233.719
110.133	18.854	1607.573	1231.690
111.147	18.845	1606.152	1230.431
112.162	18.967	1604.515	1229.942
113.176	18.989	1603.235	1229.006
114.191	19.069	1601.746	1228.326
115.206	19.086	1600.773	1227.591
116.220	19.130	1599.798	1227.054
117.235	18.976	1598.496	1224.849
118.249	19.121	1596.532	1224.269
119.264	19.067	1595.345	1222.863
120.279	18.956	1594.505	1221.324
121.293	18.862	1592.627	1219.107
122.308	18.781	1591.599	1217.639
123.322	18.765	1589.485	1215.803
124.337	18.558	1587.652	1212.831
125.352	18.646	1586.482	1212.447
126.366	18.751	1585.084	1212.012
127.381	18.583	1584.651	1210.389
128.395	18.677	1583.336	1209.943
129.410	18.632	1581.900	1208.424
130.424	18.666	1580.479	1207.467
131.439	18.672	1579.128	1206.373
132.454	18.784	1578.681	1206.710
133.468	18.976	1577.447	1207.006
134.483	18.941	1576.280	1205.764
135.497	19.062	1574.186	1204.899
136.512	19.050	1573.040	1203.830
137.527	19.033	1571.997	1202.809
138.541	19.075	1570.953	1202.195
139.556	19.173	1569.148	1201.391
140.570	19.220	1568.064	1200.785
141.585	19.336	1566.536	1200.319
142.600	19.342	1566.133	1199.945
143.614	19.505	1564.808	1199.954
144.629	19.632	1563.875	1200.019
145.643	19.707	1562.989	1199.753
146.658	19.732	1561.345	1198.559
147.673	19.623	1559.419	1196.214
148.687	19.474	1558.345	1194.259
149.702	19.366	1556.393	1191.907
150.716	19.294	1554.538	1189.882
151.731	19.154	1553.713	1188.186
152.746	19.184	1552.329	1187.222
153.760	19.190	1550.181	1185.522
154.775	19.215	1549.342	1184.945
155.789	19.240	1548.242	1184.172
156.804	19.415	1547.102	1184.395
157.819	19.426	1546.423	1183.844
158.833	19.516	1544.743	1183.075
159.848	19.586	1543.983	1182.865
160.862	19.697	1542.939	1182.722
161.877	19.763	1541.934	1182.299
162.892	19.563	1541.116	1180.199
163.906	19.296	1538.706	1176.429
164.921	19.127	1537.231	1174.039
165.935	19.086	1536.775	1173.308
166.950	19.173	1535.386	1172.737
167.964	19.300	1534.474	1172.802
168.979	19.399	1533.654	1172.745
169.994	19.344	1532.503	1171.386
171.008	19.234	1531.563	1169.816
172.023	19.294	1530.260	1169.129
173.037	19.357	1529.199	1168.640
174.052	19.623	1528.212	1169.582
175.067	19.692	1527.420	1169.340
176.081	19.490	1525.853	1166.671
177.096	19.175	1524.664	1163.529
178.110	19.173	1522.973	1162.121
179.125	19.217	1521.909	1161.509
180.140	19.236	1520.996	1160.835
181.154	19.334	1520.074	1160.690
182.169	19.436	1518.846	1160.335
183.183	19.533	1518.309	1160.474
184.198	19.686	1517.517	1160.795
185.213	19.657	1516.101	1159.415
186.227	19.692	1515.271	1158.907
187.242	19.750	1514.466	1158.578
188.256	19.738	1512.856	1157.166
189.271	19.927	1511.733	1157.469
190.286	19.912	1511.162	1156.829
191.300	19.905	1509.878	1155.695
192.315	19.505	1508.304	1151.724
193.329	19.163	1506.361	1147.854
194.344	19.074	1505.398	1146.431
195.359	19.164	1504.783	1146.456
196.373	19.371	1503.463	1146.727
197.388	19.355	1502.880	1146.076
198.402	19.481	1501.464	1145.731
199.417	19.749	1500.532	1146.695
200.432	19.881	1499.857	1146.950
201.446	20.021	1499.038	1147.149
202.461	20.130	1498.226	1147.153
203.475	20.194	1497.300	1146.766
204.490	20.205	1496.711	1146.284
205.504	20.047	1495.165	1143.956
206.519	19.810	1493.915	1141.335
207.534	19.722	1492.253	1139.381
208.548	19.627	1491.285	1137.917
209.563	19.639	1490.283	1137.133
210.577	19.581	1489.650	1136.164
211.592	19.685	1488.686	1136.011
212.607	19.739	1487.765	1135.567
213.621	19.823	1487.503	1135.817
214.636	20.039	1486.406	1136.297
215.650	19.954	1485.461	1134.918
216.665	19.948	1484.382	1133.951
217.680	20.037	1483.335	1133.635
218.694	20.215	1483.088	1134.506
219.709	20.358	1481.844	1134.388
220.723	20.166	1481.672	1132.905
221.738	20.174	1480.713	1132.123
222.753	20.114	1479.179	1130.459
223.767	20.111	1478.416	1129.757
224.782	20.127	1476.999	1128.675
225.796	20.068	1476.543	1127.846
226.811	20.328	1475.911	1128.951
227.826	20.376	1475.064	1128.520
228.840	20.305	1473.666	1126.885
229.855	20.119	1472.919	1125.010
230.869	19.944	1472.376	1123.359
231.884	20.081	1470.421	1122.659
232.899	19.936	1469.718	1121.079
233.913	19.964	1468.223	1120.020
234.928	19.793	1466.698	1117.656
235.942	19.763	1465.321	1116.317
236.957	19.781	1464.358	1115.594
237.972	19.680	1463.260	1114.008
238.986	19.647	1462.541	1113.155
240.001	19.679	1461.358	1112.362
241.015	19.763	1460.295	1111.992
242.030	19.786	1459.058	1111.099
243.045	19.930	1458.307	1111.354
244.059	19.929	1458.134	1111.115
245.074	19.936	1456.956	1110.164
246.088	20.032	1456.091	1110.023
247.103	20.090	1455.454	1109.811
248.117	20.230	1454.823	1110.126
249.132	20.305	1454.309	1110.116
250.147	20.466	1453.402	1110.359
251.161	20.647	1453.275	1111.316
252.176	20.937	1452.879	1112.768
253.190	20.824	1452.710	1111.817
254.205	21.049	1451.309	1112.081
255.220	21.085	1450.443	1111.547
256.234	21.165	1449.516	1111.251
257.249	21.063	1449.005	1110.110
258.263	21.064	1448.342	1109.509
259.278	21.098	1447.205	1108.762
260.293	21.009	1446.127	1107.267
261.307	20.946	1445.845	1106.558
262.322	21.096	1444.722	1106.552
263.336	21.292	1443.751	1106.952
264.351	21.247	1443.207	1106.153
265.366	21.247	1442.008	1105.135
266.380	21.313	1440.804	1104.528
267.395	21.267	1439.886	1103.436
268.409	21.294	1438.782	1102.666
269.424	21.115	1438.150	1100.955
270.439	21.067	1436.596	1099.362
271.453	20.930	1436.018	1097.960
272.468	20.946	1435.238	1097.366
273.482	20.870	1434.003	1095.848
274.497	20.697	1433.362	1094.177
275.512	20.799	1431.945	1093.635
276.526	20.837	1431.288	1093.274
277.541	20.814	1430.293	1092.276
278.555	20.866	1429.220	1091.688
279.570	20.820	1428.997	1091.130
280.585	21.026	1427.600	1091.258
281.599	21.068	1427.670	1091.473
282.614	21.267	1426.308	1091.581
283.628	21.059	1425.396	1089.491
284.643	20.924	1424.157	1087.604
285.657	20.903	1423.098	1086.566
286.672	20.948	1422.079	1085.972
287.687	20.932	1421.116	1085.041
288.701	20.954	1420.229	1084.407
289.716	21.039	1419.331	1084.154
290.730	21.014	1418.285	1083.102
291.745	20.955	1417.414	1081.972
292.760	21.070	1416.442	1081.849
293.774	21.076	1415.540	1081.100
294.789	21.092	1414.615	1080.399
295.803	21.194	1414.384	1080.758
296.818	21.259	1413.720	1080.555
297.833	21.141	1411.959	1078.385
298.847	21.112	1410.808	1077.232
299.862	20.982	1409.804	1075.569
300.876	21.015	1408.629	1074.784
301.891	21.074	1407.987	1074.560
302.906	21.163	1407.086	1074.329
303.920	21.245	1407.047	1074.703
304.935	21.412	1406.258	1075.034
305.949	21.453	1405.661	1074.734
306.964	21.586	1405.194	1075.100
307.979	21.659	1403.857	1074.427
308.993	21.569	1402.608	1072.826
310.008	21.474	1401.380	1071.210
311.022	21.396	1400.913	1070.284
312.037	21.506	1399.808	1070.017
313.052	21.536	1399.399	1069.793
314.066	21.529	1397.786	1068.419
315.081	21.292	1396.582	1065.961
316.095	21.131	1395.097	1063.749
317.110	21.073	1393.932	1062.419
318.125	21.097	1392.631	1061.477
319.139	21.023	1392.324	1060.701
320.154	21.003	1391.230	1059.649
321.168	21.202	1389.732	1059.623
322.183	21.064	1389.002	1058.133
323.197	21.151	1387.949	1057.766
324.212	21.185	1387.528	1057.556
325.227	21.109	1387.260	1056.802
326.241	21.222	1385.829	1056.298
327.256	21.297	1384.565	1055.699
328.270	21.319	1383.993	1055.301
329.285	21.172	1383.219	1053.727
330.300	21.220	1381.888	1052.909
331.314	21.199	1381.078	1052.075
332.329	21.141	1380.457	1051.158
333.343	21.122	1379.578	1050.282
334.358	21.179	1379.144	1050.203
335.373	21.252	1378.370	1049.959
336.387	21.445	1377.353	1050.247
337.402	21.479	1376.634	1049.814
338.416	21.594	1376.090	1049.992
339.431	21.595	1375.822	1049.702
340.446	21.766	1374.791	1049.848
341.460	21.793	1373.695	1049.080
342.475	21.894	1373.229	1049.234
343.489	21.953	1372.432	1048.884
344.504	22.066	1371.586	1048.822
345.519	22.114	1370.582	1048.248
346.533	22.099	1369.939	1047.574
347.548	22.180	1368.562	1046.911
348.562	22.247	1368.322	1047.031
349.577	22.254	1367.236	1046.149
350.592	22.052	1366.741	1044.475
351.606	21.898	1365.353	1042.412
352.621	21.651	1363.940	1039.773
353.635	21.656	1362.489	1038.603
354.650	21.536	1361.422	1036.989
355.665	21.537	1360.552	1036.238
356.679	21.626	1359.866	1036.150
357.694	21.652	1358.930	1035.498
358.708	21.679	1357.799	1034.706
359.723	21.803	1356.790	1034.580
360.738	21.954	1355.740	1034.576
361.752	21.798	1354.921	1032.941
362.767	21.852	1353.583	1032.146
363.781	21.870	1352.716	1031.498
364.796	21.892	1352.095	1031.063
365.810	22.006	1351.180	1030.948
366.825	22.164	1350.977	1031.628
367.840	22.186	1350.544	1031.334
368.854	22.543	1349.636	1032.642
369.869	22.602	1349.400	1032.716
370.883	22.520	1348.649	1031.567
371.898	22.420	1347.709	1030.172
372.913	22.248	1346.815	1028.391
373.927	22.193	1345.949	1027.323
374.942	22.305	1345.006	1027.163
375.956	22.360	1344.407	1026.936
376.971	22.462	1343.549	1026.785
377.986	22.301	1343.107	1025.420
379.000	22.349	1341.995	1024.755
380.015	22.530	1341.166	1025.087
381.029	22.538	1340.862	1024.807
382.044	22.677	1339.995	1024.866
383.059	22.691	1339.217	1024.260
384.073	22.593	1339.097	1023.512
385.088	22.488	1338.096	1022.041
386.102	22.597	1337.253	1021.944
387.117	22.631	1336.689	1021.616
388.132	22.563	1335.420	1020.166
389.146	22.346	1334.179	1017.867
390.161	22.278	1333.208	1016.644
391.175	22.205	1332.760	1015.792
392.190	22.195	1332.162	1015.191
393.205	22.348	1330.825	1014.963
394.219	22.436	1330.022	1014.767
395.234	22.622	1328.881	1014.880
396.248	22.476	1327.506	1012.898
397.263	22.363	1325.965	1010.986
398.278	22.318	1324.975	1009.882
399.292	22.376	1323.165	1008.744
400.307	22.204	1322.215	1006.947
401.321	22.111	1320.938	1005.353
402.336	22.044	1320.724	1004.720
403.350	22.075	1319.224	1003.665
404.365	22.031	1318.324	1002.638
405.380	22.064	1317.708	1002.269
406.394	22.219	1316.954	1002.494
407.409	22.348	1316.150	1002.529
408.423	22.528	1315.875	1003.254
409.438	22.516	1315.534	1002.835
410.453	22.739	1314.501	1003.228
411.467	22.821	1313.838	1003.102
412.482	22.837	1313.398	1002.765
413.496	22.884	1313.100	1002.719
414.511	22.981	1311.782	1002.170
415.526	23.024	1311.161	1001.852
416.540	23.083	1310.975	1001.959
417.555	23.136	1310.537	1001.836
418.569	23.154	1309.703	1001.210
419.584	23.034	1309.363	1000.182
420.599	22.981	1308.531	999.156
421.613	146.753	1435.049	1795.510
422.628	142.329	1453.442	1795.627
