DTS Sentinel unit serial number:	SN413079Multiplexer serial number:	ORYXHardware model number:	OX4-SRSoftware version number:	ORYX F/W v4.00 Oryx Data Collector v3.7.2.0data status	okinstallation	princeton_trtdifferential loss correction	single-endedforward channel	channel 4reverse channel	N/Adate	2019/09/18time	13:09:34forward acquisition time	60.00reverse acquisition time	0.00gamma	496.2192k internal	0.2303k external	0.2303temperature offset calibration	0.9991default loss term (dB/km)	0.3790temperature slope calibration	1.0000multiplexer offset coefficient	1.0000multiplexer slope coefficient	1.0000fibre end	0.00T internal ref (°C)	33.80T ext. ref 1 (°C)	0.58T ext. ref 2 (°C)	31.64length (m)	temperature (°C)	Stokes	anti-Stokes-747.200	25.102	0.234	0.198
-746.185	161.164	0.172	0.245
-745.171	19.301	0.162	-0.132
-744.156	-82.248	0.170	0.056
-743.142	42.715	0.186	0.173
-742.127	276.860	-0.174	0.315
-741.112	12.783	0.317	-0.249
-740.098	701.515	0.068	0.183
-739.083	-154.617	0.099	0.007
-738.069	-200.000	-0.020	0.296
-737.054	-185.862	-0.100	0.002
-736.039	78.930	-0.170	-0.186
-735.025	-120.365	-0.077	-0.013
-734.010	-100.101	-0.240	0.061
-732.996	81.001	-0.144	-0.158
-731.981	1.265	0.187	-0.137
-730.966	-24.315	0.198	-0.120
-729.952	-200.000	-0.001	-0.275
-728.937	373.124	-0.138	0.286
-727.923	800.000	0.076	-0.246
-726.908	570.197	0.132	-0.328
-725.894	800.000	0.147	0.536
-724.879	-110.268	0.270	0.057
-723.864	-45.586	-0.189	-0.095
-722.850	67.798	-0.143	0.149
-721.835	-200.000	0.037	-0.167
-720.821	800.000	0.062	-0.227
-719.806	433.870	-0.129	-0.285
-718.791	800.000	-0.114	0.348
-717.777	-121.880	0.540	0.091
-716.762	214.822	0.098	0.158
-715.748	-190.685	-0.472	0.005
-714.733	-37.761	0.092	-0.050
-713.718	-33.975	0.193	0.108
-712.704	112.383	-0.038	-0.047
-711.689	-12.627	-0.272	-0.180
-710.675	117.018	-0.066	-0.082
-709.660	262.691	0.021	-0.037
-708.645	-185.635	-0.108	0.002
-707.631	-200.000	-0.060	0.457
-706.616	-77.216	-0.058	-0.021
-705.602	-119.141	0.048	-0.009
-704.587	-200.000	-0.028	-0.147
-703.572	28.132	-0.204	0.175
-702.558	800.000	-0.119	0.375
-701.543	-101.221	0.306	-0.076
-700.529	-75.595	0.159	-0.057
-699.514	-93.056	0.226	0.064
-698.499	335.122	-0.060	0.118
-697.485	-200.000	-0.047	-0.277
-696.470	87.195	-0.167	0.188
-695.456	-200.000	-0.044	-0.496
-694.441	259.004	0.123	0.216
-693.426	397.100	0.043	0.092
-692.412	800.000	-0.142	-0.427
-691.397	292.268	-0.179	-0.331
-690.383	524.502	-0.022	-0.052
-689.368	-36.108	0.223	-0.123
-688.354	-28.860	-0.075	0.044
-687.339	300.976	-0.039	0.073
-686.324	800.000	0.089	0.264
-685.310	165.894	0.102	-0.146
-684.295	44.794	0.219	0.205
-683.281	800.000	0.035	0.154
-682.266	-102.745	0.159	-0.038
-681.251	59.230	0.073	-0.073
-680.237	800.000	-0.076	0.326
-679.222	-190.330	0.112	-0.001
-678.208	800.000	-0.067	-0.283
-677.193	-127.454	-0.493	-0.073
-676.178	-200.000	-0.031	0.177
-675.164	-160.058	0.176	0.010
-674.149	-120.029	-0.073	0.013
-673.135	56.906	-0.340	0.337
-672.120	-200.000	-0.009	-0.247
-671.105	218.756	0.144	-0.233
-670.091	91.068	0.104	0.119
-669.076	42.973	-0.301	-0.278
-668.062	-200.000	-0.002	0.040
-667.047	603.553	-0.010	0.026
-666.032	-62.444	0.210	-0.089
-665.018	-48.400	-0.193	-0.094
-664.003	-60.416	0.099	0.043
-662.989	-90.667	0.105	-0.031
-661.974	-183.634	0.271	-0.005
-660.959	-200.000	-0.071	0.409
-659.945	20.062	0.042	-0.034
-658.930	-189.436	0.193	-0.002
-657.916	-17.876	0.245	-0.156
-656.901	-27.769	0.319	-0.188
-655.886	-96.660	-0.265	-0.071
-654.872	-200.000	0.008	-0.241
-653.857	-23.095	-0.286	0.175
-652.843	139.601	0.165	0.220
-651.828	-200.000	0.014	-0.079
-650.814	-85.890	0.203	0.064
-649.799	-200.000	0.006	-0.042
-648.784	-140.961	-0.180	0.019
-647.770	-112.737	0.141	0.028
-646.755	-18.115	-0.077	-0.049
-645.741	-200.000	0.068	-0.302
-644.726	-48.848	-0.288	0.140
-643.711	-150.856	-0.104	-0.008
-642.697	-71.766	-0.177	-0.067
-641.682	-119.385	0.469	0.083
-640.668	157.875	-0.175	-0.246
-639.653	-99.591	0.078	-0.020
-638.638	192.025	-0.175	0.268
-637.624	800.000	0.067	-0.265
-636.609	242.887	-0.107	0.181
-635.595	-75.888	-0.220	-0.079
-634.580	-78.843	0.124	-0.043
-633.565	-51.316	-0.221	0.105
-632.551	635.182	0.035	-0.091
-631.536	-109.632	0.352	0.075
-630.522	800.000	-0.046	-0.146
-629.507	282.488	0.205	-0.374
-628.492	800.000	0.056	0.242
-627.478	-90.322	-0.165	-0.048
-626.463	-187.785	0.262	-0.003
-625.449	287.554	-0.190	-0.349
-624.434	-38.871	-0.115	0.061
-623.419	133.932	0.152	0.200
-622.405	166.176	-0.155	0.223
-621.390	174.227	0.067	-0.098
-620.376	7.252	-0.245	0.185
-619.361	67.356	-0.280	-0.289
-618.346	266.139	0.076	-0.134
-617.332	-200.000	-0.024	0.179
-616.317	456.729	0.048	-0.108
-615.303	-95.949	-0.340	-0.092
-614.288	-170.015	-0.240	0.009
-613.273	800.000	0.036	0.161
-612.259	-91.622	-0.362	-0.104
-611.244	692.187	-0.129	-0.344
-610.230	1.028	-0.111	0.081
-609.215	-43.260	0.159	-0.082
-608.201	339.675	-0.008	-0.016
-607.186	3.034	-0.125	0.092
-606.171	-162.806	0.401	0.020
-605.157	-43.621	-0.346	0.177
-604.142	-46.971	0.120	-0.060
-603.128	-68.618	-0.166	0.065
-602.113	800.000	0.097	0.354
-601.098	800.000	0.086	-0.337
-600.084	26.795	-0.061	-0.052
-599.069	-20.755	0.087	0.054
-598.055	184.183	0.124	-0.187
-597.040	-118.083	0.283	-0.051
-596.025	465.628	0.087	0.197
-595.011	800.000	-0.060	-0.180
-593.996	28.758	-0.175	0.150
-592.982	-101.667	-0.192	0.047
-591.967	-7.309	-0.282	-0.193
-590.952	366.890	0.098	-0.200
-589.938	800.000	0.113	-0.387
-588.923	-170.427	0.294	0.010
-587.909	-64.255	0.156	0.064
-586.894	-8.927	-0.313	-0.212
-585.879	86.923	-0.082	0.092
-584.865	8.388	0.287	-0.218
-583.850	505.763	-0.081	0.190
-582.836	228.708	-0.101	-0.166
-581.821	800.000	0.061	0.245
-580.806	112.359	-0.100	0.122
-579.792	-142.866	-0.565	-0.056
-578.777	40.254	0.338	0.308
-577.763	-157.980	-0.228	0.014
-576.748	78.915	0.063	0.068
-575.733	-14.231	-0.139	0.091
-574.719	-200.000	-0.025	0.230
-573.704	123.933	0.064	-0.082
-572.690	-94.712	-0.373	0.103
-571.675	247.860	0.140	-0.240
-570.661	376.013	0.094	-0.194
-569.646	331.898	0.031	-0.060
-568.631	73.011	0.059	-0.062
-567.617	635.245	0.057	0.146
-566.602	-200.000	-0.019	-0.235
-565.588	-124.085	-0.159	0.025
-564.573	246.475	-0.179	-0.305
-563.558	-61.062	0.378	0.162
-562.544	79.905	-0.077	0.084
-561.529	-42.174	-0.140	0.072
-560.515	116.609	0.165	0.205
-559.500	111.016	0.100	-0.122
-558.485	-200.000	-0.001	-0.110
-557.471	110.817	-0.080	0.097
-556.456	-200.000	-0.008	0.125
-555.442	800.000	0.084	-0.258
-554.427	150.686	-0.064	-0.088
-553.412	800.000	-0.052	-0.202
-552.398	103.256	-0.223	0.265
-551.383	800.000	0.013	-0.038
-550.369	-106.011	0.288	0.065
-549.354	-200.000	-0.036	0.350
-548.339	800.000	0.113	-0.371
-547.325	-200.000	0.029	-0.142
-546.310	514.174	0.109	0.257
-545.296	800.000	0.051	-0.204
-544.281	-143.641	0.397	-0.038
-543.266	396.237	-0.080	-0.169
-542.252	-147.418	-0.121	-0.010
-541.237	354.988	-0.057	0.115
-540.223	-53.945	0.392	0.181
-539.208	-14.829	-0.268	0.174
-538.193	27.889	0.184	-0.157
-537.179	-200.000	0.047	-0.280
-536.164	110.211	0.154	0.186
-535.150	-200.000	0.057	0.315
-534.135	120.953	-0.286	-0.359
-533.121	-171.529	0.604	0.020
-532.106	-36.914	-0.159	0.086
-531.091	-10.507	-0.263	-0.176
-530.077	-98.860	-0.075	0.019
-529.062	343.014	-0.173	-0.343
-528.048	-106.980	-0.470	-0.105
-527.033	82.347	-0.250	-0.274
-526.018	251.245	-0.088	0.152
-525.004	26.703	0.200	-0.169
-523.989	-200.000	-0.002	-0.118
-522.975	57.734	0.190	-0.188
-521.960	494.637	-0.086	-0.198
-520.945	-88.457	0.146	0.044
-519.931	-200.000	0.028	0.166
-518.916	800.000	0.134	0.452
-517.902	-152.793	0.240	-0.017
-516.887	-103.894	-0.191	-0.045
-515.872	284.855	-0.063	-0.114
-514.858	-200.000	0.042	-0.348
-513.843	473.987	0.109	0.249
-512.829	153.514	0.059	0.082
-511.814	-200.000	0.008	0.322
-510.799	-38.201	0.255	0.137
-509.785	46.849	0.151	0.141
-508.770	-184.117	-0.110	-0.002
-507.756	-90.373	-0.189	0.055
-506.741	-7.481	0.119	0.081
-505.726	800.000	-0.087	0.243
-504.712	152.385	-0.115	-0.159
-503.697	29.094	-0.202	0.173
-502.683	161.140	-0.044	0.063
-501.668	33.201	0.173	-0.151
-500.653	-43.589	0.161	-0.082
-499.639	789.360	0.157	0.435
-498.624	253.639	-0.114	-0.197
-497.610	-31.789	0.212	-0.120
-496.595	31.258	-0.066	-0.057
-495.581	800.000	-0.127	-0.463
-494.566	100.987	0.222	-0.260
-493.551	-2.812	0.054	-0.038
-492.537	800.000	-0.075	-0.217
-491.522	10.151	0.163	-0.125
-490.508	-200.000	0.036	-0.189
-489.493	-200.000	-0.007	0.196
-488.478	-62.608	0.209	-0.087
-487.464	-112.178	0.197	-0.040
-486.449	-200.000	0.008	-0.098
-485.435	228.890	0.129	0.212
-484.420	50.109	0.060	0.057
-483.405	800.000	-0.096	-0.266
-482.391	58.301	-0.203	-0.201
-481.376	408.332	0.057	0.122
-480.362	800.000	0.033	-0.126
-479.347	68.436	-0.106	-0.109
-478.332	80.415	-0.086	-0.093
-477.318	331.736	-0.124	-0.241
-476.303	800.000	0.056	-0.172
-475.289	98.028	0.116	-0.135
-474.274	-73.907	-0.075	-0.027
-473.259	-8.797	0.243	0.165
-472.245	9.059	0.231	-0.176
-471.230	-86.224	0.131	0.041
-470.216	800.000	-0.084	-0.235
-469.201	0.242	-0.261	-0.188
-468.186	686.116	-0.018	0.047
-467.172	-200.000	-0.000	-0.157
-466.157	1.339	-0.012	0.009
-465.143	-23.454	0.228	-0.138
-464.128	2.351	0.486	-0.355
-463.113	-58.565	0.116	0.051
-462.099	-200.000	0.078	0.421
-461.084	62.941	-0.171	-0.173
-460.070	800.000	-0.047	-0.165
-459.055	183.529	0.114	-0.169
-458.040	60.216	-0.093	0.092
-457.026	-152.752	0.100	0.007
-456.011	-200.000	-0.003	-0.232
-454.997	32.980	-0.267	-0.233
-453.982	-200.000	-0.033	-0.213
-452.968	800.000	-0.089	-0.261
-451.953	800.000	0.052	-0.215
-450.938	325.718	0.173	-0.334
-449.924	-67.295	-0.190	0.075
-448.909	777.236	0.088	-0.243
-447.895	-200.000	-0.013	-0.196
-446.880	-170.304	0.112	-0.004
-445.865	-97.994	0.285	-0.074
-444.851	107.821	-0.033	-0.039
-443.836	27.565	-0.387	0.327
-442.822	-200.000	-0.019	-0.287
-441.807	530.102	0.106	0.253
-440.792	-200.000	0.015	-0.136
-439.778	57.277	0.055	0.055
-438.763	-74.764	-0.137	0.050
-437.749	-118.026	-0.122	0.022
-436.734	-200.000	-0.037	0.428
-435.719	-0.059	0.224	0.160
-434.705	28.764	-0.370	0.315
-433.690	137.467	-0.383	-0.504
-432.676	-68.556	0.455	0.177
-431.661	237.582	0.068	0.113
-430.646	39.108	0.088	-0.079
-429.632	15.913	-0.100	-0.079
-428.617	-200.000	-0.001	-0.468
-427.603	201.085	-0.042	0.065
-426.588	43.648	-0.209	0.192
-425.573	-128.554	-0.248	0.035
-424.559	-127.676	-0.494	-0.072
-423.544	-62.745	0.407	0.170
-422.530	800.000	-0.109	0.355
-421.515	-22.694	-0.111	0.067
-420.500	-133.773	0.497	-0.062
-419.486	-137.747	-0.245	0.028
-418.471	-200.000	0.053	0.311
-417.457	-130.055	-0.242	-0.033
-416.442	-138.408	0.279	0.031
-415.428	-200.000	0.000	0.413
-414.413	12.971	0.079	0.062
-413.398	196.063	-0.082	0.125
-412.384	-84.883	-0.345	-0.109
-411.369	-39.731	0.190	0.100
-410.355	-200.000	-0.011	0.149
-409.340	-148.991	-0.538	0.044
-408.325	76.607	0.103	0.110
-407.311	-200.000	0.033	-0.180
-406.296	-200.000	-0.002	0.045
-405.282	-200.000	-0.028	-0.400
-404.267	474.211	-0.085	-0.193
-403.252	-125.981	0.124	-0.019
-402.238	51.296	-0.179	-0.171
-401.223	-32.250	0.277	0.155
-400.209	-146.708	-0.330	-0.029
-399.194	375.544	0.019	-0.038
-398.179	46.771	-0.101	-0.094
-397.165	800.000	0.142	0.492
-396.150	552.961	0.098	0.236
-395.136	-200.000	-0.005	0.218
-394.121	547.148	-0.087	-0.210
-393.106	800.000	0.069	0.273
-392.092	-128.257	-0.405	0.058
-391.077	-8.266	0.183	0.123
-390.063	-200.000	-0.009	0.222
-389.048	148.330	0.305	-0.413
-388.033	658.844	-0.114	0.295
-387.019	-200.000	0.003	0.139
-386.004	-200.000	-0.004	0.181
-384.990	-40.350	-0.077	-0.040
-383.975	-119.603	-0.222	0.039
-382.960	-115.553	0.293	0.055
-381.946	54.468	0.220	0.213
-380.931	319.685	0.111	0.211
-379.917	-43.246	0.190	0.097
-378.902	352.861	0.103	0.204
-377.888	-200.000	-0.029	-0.276
-376.873	215.048	-0.113	0.180
-375.858	143.182	0.099	0.132
-374.844	-70.204	-0.108	0.041
-373.829	164.422	-0.123	-0.174
-372.815	-100.160	0.086	-0.022
-371.800	-131.371	0.273	0.036
-370.785	-191.160	0.209	0.002
-369.771	224.926	-0.108	0.175
-368.756	-200.000	0.005	0.121
-367.742	160.847	0.056	-0.079
-366.727	5.609	0.209	0.155
-365.712	-53.894	-0.074	-0.034
-364.698	-42.900	-0.345	-0.176
-363.683	159.259	-0.099	-0.139
-362.669	-200.000	0.005	0.258
-361.654	800.000	-0.036	0.111
-360.639	-43.905	-0.185	-0.093
-359.625	-94.253	-0.230	0.063
-358.610	-200.000	-0.040	-0.250
-357.596	-57.783	-0.141	0.062
-356.581	149.053	-0.233	0.316
-355.566	-52.012	-0.190	0.089
-354.552	-114.507	-0.068	0.013
-353.537	-200.000	0.082	-0.440
-352.523	-117.824	-0.242	-0.044
-351.508	55.679	-0.308	-0.299
-350.493	181.673	0.173	0.256
-349.479	-139.017	0.213	-0.023
-348.464	-159.324	0.273	0.015
-347.450	-124.066	-0.310	-0.049
-346.435	-3.877	0.189	-0.131
-345.420	-102.478	0.036	-0.009
-344.406	170.395	0.173	-0.249
-343.391	-200.000	0.030	0.219
-342.377	-200.000	0.012	-0.236
-341.362	226.019	0.107	0.173
-340.348	-200.000	-0.034	0.256
-339.333	321.970	-0.131	0.250
-338.318	800.000	-0.085	-0.298
-337.304	130.341	-0.094	-0.121
-336.289	-200.000	0.021	-0.133
-335.275	800.000	0.070	0.255
-334.260	-162.494	0.079	-0.004
-333.245	-110.434	-0.150	0.031
-332.231	-26.913	0.179	0.105
-331.216	731.847	0.039	-0.105
-330.202	800.000	0.018	0.077
-329.187	-200.000	-0.020	0.172
-328.172	-114.908	0.027	0.005
-327.158	442.789	0.038	-0.084
-326.143	122.685	-0.156	-0.196
-325.129	-73.873	0.194	-0.071
-324.114	-58.595	-0.095	-0.041
-323.099	-99.823	-0.116	-0.029
-322.085	-130.411	-0.155	0.021
-321.070	-104.755	0.187	0.043
-320.056	39.667	-0.028	-0.026
-319.041	352.104	0.089	0.177
-318.026	573.757	-0.024	-0.059
-317.012	406.163	0.078	0.165
-315.997	-39.198	0.343	0.181
-314.983	-24.464	-0.186	0.111
-313.968	-110.218	-0.304	-0.064
-312.953	558.418	-0.116	0.281
-311.939	165.324	-0.125	0.177
-310.924	758.811	0.104	0.282
-309.910	800.000	0.082	0.237
-308.895	-106.682	0.349	-0.078
-307.880	-149.826	0.235	0.018
-306.866	-82.108	0.049	0.016
-305.851	23.036	-0.093	0.076
-304.837	-200.000	-0.004	0.090
-303.822	182.267	-0.170	0.251
-302.807	-200.000	0.026	0.209
-301.793	546.016	0.109	-0.261
-300.778	25.855	0.125	0.105
-299.764	98.311	0.008	-0.009
-298.749	-26.426	0.097	0.057
-297.735	-200.000	-0.049	-0.241
-296.720	-79.172	-0.159	0.054
-295.705	-119.802	0.270	-0.046
-294.691	79.328	0.158	-0.169
-293.676	-64.912	-0.145	0.059
-292.662	43.704	-0.061	0.056
-291.647	-114.469	-0.219	0.042
-290.632	49.397	-0.142	0.133
-289.618	48.170	0.175	0.164
-288.603	408.249	0.085	-0.179
-287.589	477.033	0.122	-0.276
-286.574	582.684	-0.032	0.079
-285.559	-200.000	0.033	0.324
-284.545	416.510	0.072	0.153
-283.530	238.590	-0.138	0.229
-282.516	-114.605	0.111	-0.021
-281.501	800.000	0.013	0.042
-280.486	696.311	-0.109	-0.286
-279.472	-200.000	0.010	0.061
-278.457	129.828	-0.112	0.143
-277.443	-78.442	0.159	-0.054
-276.428	21.609	0.095	0.077
-275.413	800.000	-0.031	-0.103
-274.399	-169.819	-0.277	0.010
-273.384	-156.276	0.304	0.019
-272.370	-19.713	-0.210	0.130
-271.355	-71.209	0.139	-0.052
-270.340	800.000	0.118	-0.327
-269.326	21.326	-0.089	0.072
-268.311	800.000	0.088	0.383
-267.297	800.000	-0.040	0.128
-266.282	-156.695	0.108	-0.007
-265.267	17.357	-0.205	-0.162
-264.253	-10.189	0.179	0.119
-263.238	-114.441	0.224	0.043
-262.224	-18.480	-0.409	-0.255
-261.209	-103.521	-0.294	-0.069
-260.195	-200.000	0.002	0.087
-259.180	-200.000	-0.001	0.129
-258.165	133.504	0.133	0.172
-257.151	10.895	0.209	-0.160
-256.136	-107.657	0.203	0.044
-255.122	495.281	-0.075	-0.172
-254.107	13.370	0.049	0.038
-253.092	-104.142	0.210	0.049
-252.078	800.000	0.083	-0.329
-251.063	-117.763	-0.175	-0.031
-250.049	-145.593	0.202	-0.018
-249.034	104.653	-0.255	0.300
-248.019	-82.764	-0.103	0.033
-247.005	359.107	-0.061	0.122
-245.990	111.390	-0.132	0.159
-244.976	-200.000	-0.081	-0.413
-243.961	-123.443	-0.229	-0.036
-242.946	-200.000	0.047	0.296
-241.932	81.670	0.017	0.018
-240.917	800.000	-0.063	-0.214
-239.903	800.000	0.069	-0.249
-238.888	242.340	0.022	0.037
-237.873	800.000	0.056	-0.238
-236.859	-36.129	-0.264	0.143
-235.844	-188.459	0.295	-0.004
-234.830	800.000	-0.096	-0.311
-233.815	353.838	-0.155	0.306
-232.800	-82.455	0.259	0.084
-231.786	-33.126	-0.304	0.168
-230.771	-72.654	0.274	-0.101
-229.757	-56.338	0.211	-0.094
-228.742	800.000	0.082	0.358
-227.727	77.340	-0.287	-0.305
-226.713	-103.305	-0.043	0.010
-225.698	-13.054	-0.238	0.154
-224.684	-200.000	-0.009	0.066
-223.669	21.172	-0.150	-0.122
-222.655	-200.000	-0.030	0.353
-221.640	800.000	0.039	0.112
-220.625	-30.639	0.079	-0.045
-219.611	800.000	0.028	-0.120
-218.596	-27.938	0.231	-0.133
-217.582	-130.659	-0.286	-0.038
-216.567	113.867	-0.117	-0.142
-215.552	41.411	0.144	-0.130
-214.538	-100.308	0.236	0.058
-213.523	-16.218	0.333	-0.211
-212.509	-16.103	-0.204	-0.129
-211.494	800.000	0.047	0.177
-210.479	-200.000	0.007	-0.081
-209.465	-26.119	0.081	-0.048
-208.450	-200.000	-0.013	0.279
-207.436	50.205	-0.115	0.108
-206.421	-200.000	-0.024	-0.124
-205.406	800.000	0.103	0.366
-204.392	-50.533	-0.135	-0.064
-203.377	0.752	-0.376	0.269
-202.363	258.781	0.053	0.091
-201.348	102.252	-0.188	-0.220
-200.333	-200.000	-0.012	-0.227
-199.319	91.062	0.050	0.056
-198.304	800.000	-0.075	0.289
-197.290	146.939	-0.199	0.267
-196.275	-110.954	-0.149	0.030
-195.260	49.960	0.097	0.091
-194.246	-27.998	-0.243	0.140
-193.231	800.000	0.037	0.127
-192.217	-74.935	0.171	-0.061
-191.202	800.000	-0.097	0.284
-190.187	-124.156	0.137	0.021
-189.173	132.368	-0.150	0.193
-188.158	71.290	0.162	-0.168
-187.144	359.006	0.119	-0.237
-186.129	-200.000	0.021	0.169
-185.114	-200.000	0.036	0.196
-184.100	-46.186	0.180	0.088
-183.085	78.511	0.079	-0.085
-182.071	800.000	0.056	0.194
-181.056	151.548	0.245	-0.333
-180.042	-10.953	0.011	-0.007
-179.027	-200.000	0.027	0.134
-178.012	113.474	0.248	0.300
-176.998	-68.612	0.292	0.113
-175.983	-62.495	0.353	-0.146
-174.969	800.000	0.045	0.162
-173.954	76.087	-0.128	0.135
-172.939	-176.493	0.099	0.003
-171.925	-195.738	-0.112	-0.001
-170.910	-69.857	-0.104	-0.040
-169.896	651.859	-0.105	-0.268
-168.881	115.833	0.088	0.108
-167.866	-200.000	0.004	0.192
-166.852	-104.984	0.292	0.067
-165.837	-91.238	0.189	0.054
-164.823	-64.790	0.357	-0.144
-163.808	800.000	-0.063	0.241
-162.793	26.477	-0.105	-0.087
-161.779	152.035	0.252	-0.343
-160.764	127.426	-0.105	0.132
-159.750	-134.920	-0.221	-0.027
-158.735	800.000	0.035	-0.125
-157.720	141.749	0.018	-0.024
-156.706	-200.000	0.007	-0.431
-155.691	6.709	-0.271	-0.201
-154.677	800.000	-0.030	0.118
-153.662	5.541	0.059	-0.044
-152.647	217.669	-0.065	-0.104
-151.633	-200.000	0.011	-0.133
-150.618	-200.000	-0.053	-0.260
-149.604	800.000	0.030	-0.113
-148.589	77.872	-0.069	0.073
-147.574	-139.765	-0.377	0.040
-146.560	129.667	0.088	0.112
-145.545	178.714	0.188	0.273
-144.531	704.253	-0.082	0.215
-143.516	-61.110	-0.102	-0.043
-142.502	-104.741	-0.298	-0.068
-141.487	-95.800	0.263	0.070
-140.472	-149.171	-0.232	-0.019
-139.458	-167.832	-0.188	0.007
-138.443	51.575	-0.163	0.154
-137.429	800.000	0.119	0.427
-136.414	715.852	0.104	0.274
-135.399	-200.000	-0.047	-0.215
-134.385	-70.458	-0.160	-0.060
-133.370	-200.000	0.011	0.152
-132.356	-200.000	0.090	0.409
-131.341	800.000	-0.067	0.190
-130.326	222.384	-0.194	0.311
-129.312	800.000	-0.145	-0.416
-128.297	170.096	0.208	0.296
-127.283	-67.676	-0.210	0.082
-126.268	98.551	-0.043	0.049
-125.253	-200.000	-0.010	0.106
-124.239	-28.190	0.125	0.072
-123.224	-149.221	0.078	0.006
-122.210	604.716	0.089	-0.221
-121.195	-66.481	-0.460	0.182
-120.180	33.258	0.163	-0.141
-119.166	-86.700	-0.176	-0.054
-118.151	-119.260	-0.181	0.031
-117.137	182.666	0.124	0.182
-116.122	800.000	-0.051	0.172
-115.107	-90.315	-0.242	0.070
-114.093	274.429	-0.149	0.263
-113.078	800.000	-0.041	0.178
-112.064	-200.000	0.005	-0.271
-111.049	39.995	0.237	0.212
-110.034	243.588	0.109	-0.182
-109.020	-50.097	-0.126	0.059
-108.005	221.482	0.073	-0.116
-106.991	34.934	-0.342	0.297
-105.976	-83.874	0.063	-0.020
-104.962	-200.000	0.104	0.507
-103.947	-34.132	-0.028	-0.016
-102.932	66.738	0.100	0.101
-101.918	800.000	0.103	0.429
-100.903	20.435	-0.151	0.121
-99.889	800.000	0.090	0.289
-98.874	800.000	-0.119	-0.481
-97.859	-34.480	0.102	-0.055
-96.845	-200.000	0.035	-0.296
-95.830	272.533	-0.293	0.514
-94.816	-54.720	-0.252	0.113
-93.801	-45.554	-0.184	-0.090
-92.786	-17.814	0.198	-0.123
-91.772	-36.350	-0.136	0.073
-90.757	-98.546	-0.084	0.021
-89.743	-200.000	0.040	-0.279
-88.728	-200.000	-0.019	0.327
-87.713	-69.401	0.132	0.050
-86.699	-200.000	0.016	-0.138
-85.684	625.212	0.083	-0.208
-84.670	-87.124	-0.321	-0.097
-83.655	145.411	-0.088	0.118
-82.640	291.562	-0.074	-0.133
-81.626	258.499	0.060	0.103
-80.611	195.106	-0.097	0.146
-79.597	-143.538	-0.240	0.023
-78.582	-126.638	0.211	-0.031
-77.567	-200.000	0.001	0.308
-76.553	-200.000	-0.013	0.306
-75.538	91.346	-0.094	-0.105
-74.524	131.750	-0.094	-0.119
-73.509	3.582	-0.124	-0.089
-72.494	-22.290	-0.184	0.111
-71.480	-147.281	-0.064	0.005
-70.465	-21.879	0.138	-0.083
-69.451	-200.000	0.038	-0.166
-68.436	-200.000	0.000	0.148
-67.422	800.000	-0.017	-0.070
-66.407	91.535	-0.030	-0.034
-65.392	-84.877	-0.174	-0.054
-64.378	99.623	0.192	-0.221
-63.363	-76.357	-0.376	-0.131
-62.349	-6.174	0.130	0.088
-61.334	107.258	-0.809	-0.953
-60.319	106.475	0.248	0.292
-59.305	800.000	-0.137	-0.595
-58.290	109.843	0.745	0.886
-57.276	800.000	0.622	1.862
-56.261	-200.000	95.998	541.703
-55.246	488.305	1428.951	3235.909
-54.232	141.405	2664.344	3497.219
-53.217	99.696	2388.735	2742.393
-52.203	40.037	2131.313	1898.842
-51.188	35.374	2042.856	1776.893
-50.173	33.930	2024.534	1747.622
-49.159	47.156	2076.144	1915.757
-48.144	49.309	2095.608	1953.742
-47.130	36.144	2054.248	1793.683
-46.115	33.760	2043.052	1761.743
-45.100	33.737	2039.212	1758.155
-44.086	33.677	2037.773	1756.290
-43.071	33.663	2034.510	1753.275
-42.057	33.573	2032.291	1750.463
-41.042	33.589	2030.472	1748.979
-40.027	33.675	2028.554	1748.050
-39.013	33.606	2026.453	1745.535
-37.998	33.644	2024.469	1744.098
-36.984	33.737	2022.217	1742.950
-35.969	33.724	2020.302	1741.107
-34.954	33.783	2018.329	1739.876
-33.940	33.718	2017.240	1738.277
-32.925	33.732	2015.706	1737.010
-31.911	33.812	2013.426	1735.712
-30.896	33.819	2011.620	1734.144
-29.881	33.661	2010.744	1731.880
-28.867	33.849	2008.872	1731.918
-27.852	33.853	2007.324	1730.549
-26.838	33.816	2005.153	1728.268
-25.823	33.796	2002.299	1725.562
-24.809	33.703	2001.976	1724.371
-23.794	33.799	1999.471	1723.019
-22.779	33.865	1997.706	1722.025
-21.765	33.667	1996.601	1719.212
-20.750	33.788	1994.737	1718.635
-19.736	33.840	1993.175	1717.683
-18.721	33.797	1991.637	1715.906
-17.706	33.840	1989.903	1714.734
-16.692	33.869	1987.623	1712.963
-15.677	33.869	1986.037	1711.528
-14.663	33.941	1984.684	1710.941
-13.648	33.969	1983.464	1710.073
-12.633	33.837	1982.487	1707.977
-11.619	33.893	1981.265	1707.358
-10.604	33.791	1979.627	1704.959
-9.590	33.834	1978.002	1703.877
-8.575	33.817	1976.343	1702.231
-7.560	33.841	1975.316	1701.496
-6.546	33.925	1973.804	1700.873
-5.531	33.905	1972.597	1699.590
-4.517	33.856	1971.683	1698.301
-3.502	33.868	1970.682	1697.472
-2.487	33.877	1968.976	1696.019
-1.473	33.889	1968.245	1695.430
-0.458	34.039	1963.509	1692.620
0.556	32.696	1944.595	1668.538
1.571	28.925	1924.574	1618.109
2.586	24.678	1946.827	1598.782
3.600	23.078	1983.150	1613.880
4.615	21.926	1977.024	1598.264
5.629	16.861	1872.261	1469.637
6.644	6.889	1746.383	1289.682
7.659	1.196	1705.284	1213.759
8.673	0.649	1701.624	1206.674
9.688	0.646	1699.918	1205.334
10.702	0.589	1698.510	1203.780
11.717	0.457	1695.408	1200.419
12.731	1.020	1695.334	1204.745
13.746	7.651	1710.532	1268.506
14.761	15.727	1726.391	1344.987
15.775	17.830	1727.646	1362.662
16.790	17.141	1724.909	1354.888
17.804	16.177	1722.327	1345.055
18.819	15.214	1718.924	1334.615
19.834	14.576	1716.745	1327.726
20.848	14.344	1714.793	1324.251
21.863	14.046	1713.162	1320.515
22.877	13.825	1711.492	1317.356
23.892	13.531	1710.173	1313.892
24.907	13.420	1708.928	1311.935
25.921	13.335	1707.808	1310.289
26.936	13.359	1706.446	1309.320
27.950	13.496	1705.932	1309.889
28.965	13.446	1705.546	1309.081
29.980	13.568	1704.540	1309.155
30.994	13.642	1703.253	1308.639
32.009	13.664	1702.159	1307.855
33.023	13.632	1701.464	1306.953
34.038	13.633	1700.315	1305.965
35.053	13.648	1699.580	1305.400
36.067	13.627	1698.272	1304.114
37.082	13.545	1697.693	1302.907
38.096	13.567	1696.064	1301.718
39.111	13.659	1695.160	1301.633
40.126	13.637	1694.721	1301.006
41.140	13.601	1693.838	1299.933
42.155	13.521	1691.939	1297.729
43.169	13.466	1691.510	1296.854
44.184	13.458	1690.120	1295.613
45.199	13.447	1688.723	1294.342
46.213	13.387	1687.473	1292.798
47.228	13.438	1686.260	1292.159
48.242	13.429	1685.447	1291.349
49.257	13.477	1683.576	1290.177
50.271	13.441	1682.973	1289.316
51.286	13.444	1681.680	1288.234
52.301	13.532	1679.825	1287.385
53.315	13.563	1678.035	1286.139
54.330	13.529	1676.736	1284.770
55.344	13.478	1675.132	1283.029
56.359	13.401	1674.112	1281.538
57.374	13.398	1673.100	1280.628
58.388	13.530	1671.426	1280.256
59.403	13.459	1669.905	1278.424
60.417	13.397	1668.622	1276.852
61.432	13.405	1667.584	1276.010
62.447	13.408	1666.206	1274.861
63.461	13.342	1665.235	1273.500
64.476	13.333	1664.218	1272.537
65.490	13.302	1663.209	1271.420
66.505	13.404	1661.394	1270.701
67.520	13.373	1660.759	1269.865
68.534	13.370	1659.937	1269.102
69.549	13.426	1658.233	1268.112
70.563	13.303	1657.270	1266.321
71.578	13.449	1656.216	1266.524
72.593	13.394	1655.193	1265.209
73.607	13.331	1654.113	1263.789
74.622	13.215	1653.071	1261.998
75.636	13.310	1651.779	1261.626
76.651	13.261	1651.177	1260.676
77.666	13.287	1650.040	1259.896
78.680	13.270	1649.227	1259.034
79.695	13.264	1648.621	1258.417
80.709	13.311	1646.889	1257.342
81.724	13.298	1646.606	1256.915
82.739	13.328	1645.521	1256.202
83.753	13.360	1644.557	1255.598
84.768	13.454	1642.783	1254.842
85.782	13.385	1642.529	1254.017
86.797	13.629	1640.815	1254.445
87.812	13.570	1640.276	1253.473
88.826	13.524	1638.610	1251.741
89.841	13.468	1637.773	1250.568
90.855	13.471	1636.643	1249.616
91.870	13.492	1635.676	1248.930
92.884	13.562	1634.686	1248.593
93.899	13.604	1633.674	1248.025
94.914	13.641	1632.335	1247.170
95.928	13.621	1631.317	1246.129
96.943	13.627	1629.787	1244.893
97.957	13.603	1628.429	1243.565
98.972	13.574	1626.635	1241.866
99.987	13.610	1625.649	1241.277
101.001	13.524	1623.712	1239.047
102.016	13.541	1622.571	1238.190
103.030	13.479	1621.222	1236.587
104.045	13.484	1620.052	1235.628
105.060	13.593	1617.982	1234.752
106.074	13.492	1616.445	1232.715
107.089	13.357	1615.208	1230.655
108.103	13.445	1613.647	1230.018
109.118	13.437	1612.244	1228.780
110.133	13.339	1610.659	1226.732
111.147	13.404	1609.253	1226.038
112.162	13.381	1608.265	1225.006
113.176	13.449	1606.202	1223.828
114.191	13.454	1604.955	1222.806
115.206	13.443	1604.130	1221.987
116.220	13.473	1602.547	1220.891
117.235	13.422	1601.146	1219.347
118.249	13.448	1599.938	1218.508
119.264	13.487	1598.444	1217.548
120.279	13.494	1597.182	1216.531
121.293	13.399	1595.898	1214.746
122.308	13.471	1594.236	1213.903
123.322	13.463	1592.449	1212.373
124.337	13.381	1591.156	1210.683
125.352	13.420	1589.789	1209.819
126.366	13.382	1588.926	1208.781
127.381	13.418	1587.612	1207.940
128.395	13.461	1586.405	1207.229
129.410	13.477	1584.557	1205.830
130.424	13.406	1583.751	1204.592
131.439	13.429	1582.650	1203.812
132.454	13.520	1580.784	1202.949
133.468	13.504	1579.600	1201.829
134.483	13.509	1578.142	1200.651
135.497	13.568	1576.587	1199.787
136.512	13.541	1575.425	1198.597
137.527	13.532	1573.892	1197.264
138.541	13.493	1572.665	1195.945
139.556	13.507	1571.094	1194.741
140.570	13.595	1569.585	1194.124
141.585	13.601	1568.250	1193.043
142.600	13.520	1566.950	1191.369
143.614	13.687	1565.496	1191.356
144.629	13.613	1564.630	1190.058
145.643	13.769	1563.052	1189.877
146.658	13.648	1561.864	1188.000
147.673	13.700	1560.203	1187.004
148.687	13.649	1558.874	1185.523
149.702	13.646	1556.924	1183.910
150.716	13.705	1555.033	1182.790
151.731	13.637	1553.925	1181.359
152.746	13.637	1552.857	1180.445
153.760	13.678	1551.301	1179.444
154.775	13.700	1550.096	1178.582
155.789	13.714	1548.881	1177.654
156.804	13.760	1547.445	1176.780
157.819	13.703	1546.303	1175.404
158.833	13.785	1545.040	1174.921
159.848	13.814	1543.731	1174.030
160.862	13.840	1542.380	1173.085
161.877	13.845	1541.011	1171.972
162.892	13.850	1539.877	1171.044
163.906	13.811	1538.361	1169.509
164.921	13.760	1537.548	1168.432
165.935	13.729	1536.247	1167.117
166.950	13.736	1535.568	1166.549
167.964	13.775	1534.067	1165.582
168.979	13.798	1532.984	1164.812
169.994	13.838	1531.276	1163.697
171.008	13.899	1530.805	1163.661
172.023	13.872	1529.377	1162.286
173.037	13.843	1528.236	1161.111
174.052	13.878	1527.494	1160.688
175.067	13.952	1525.659	1159.712
176.081	13.915	1524.912	1158.778
177.096	13.831	1523.676	1157.156
178.110	13.874	1522.058	1156.123
179.125	13.841	1521.463	1155.340
180.140	13.915	1519.617	1154.347
181.154	13.846	1518.649	1153.033
182.169	13.920	1517.644	1152.678
183.183	13.847	1516.663	1151.325
184.198	13.940	1515.425	1150.925
185.213	14.000	1514.522	1150.560
186.227	14.056	1513.082	1149.750
187.242	14.063	1512.021	1148.890
188.256	14.121	1511.290	1148.636
189.271	14.111	1509.890	1147.396
190.286	14.148	1508.802	1146.723
191.300	14.122	1507.865	1145.729
192.315	14.130	1506.372	1144.549
193.329	14.003	1505.194	1142.683
194.344	13.903	1504.622	1141.461
195.359	13.907	1503.419	1140.473
196.373	14.149	1502.055	1140.999
197.388	14.121	1501.033	1139.931
198.402	14.169	1499.924	1139.311
199.417	14.113	1498.680	1137.885
200.432	14.257	1497.715	1138.039
201.446	14.205	1496.991	1137.028
202.461	14.285	1495.505	1136.345
203.475	14.307	1494.544	1135.663
204.490	14.434	1493.098	1135.333
205.504	14.438	1492.004	1134.423
206.519	14.324	1491.038	1132.818
207.534	14.260	1490.418	1131.808
208.548	14.320	1488.843	1130.918
209.563	14.376	1487.544	1130.211
210.577	14.315	1486.647	1129.019
211.592	14.344	1485.784	1128.457
212.607	14.210	1485.244	1127.040
213.621	14.409	1484.526	1127.745
214.636	14.425	1483.398	1126.893
215.650	14.419	1482.354	1125.966
216.665	14.341	1481.538	1124.715
217.680	14.461	1480.709	1124.801
218.694	14.485	1480.160	1124.445
219.709	14.450	1479.303	1123.459
220.723	14.459	1477.992	1122.425
221.738	14.556	1476.601	1121.920
222.753	14.534	1475.747	1121.022
223.767	14.503	1475.245	1120.337
224.782	14.372	1474.396	1118.710
225.796	14.585	1473.027	1119.003
226.811	14.606	1471.731	1118.060
227.826	14.616	1471.331	1117.721
228.840	14.596	1470.183	1116.618
229.855	14.600	1469.647	1116.139
230.869	14.624	1468.183	1115.087
231.884	14.627	1467.196	1114.259
232.899	14.641	1465.965	1113.320
233.913	14.617	1464.821	1112.193
234.928	14.583	1463.825	1111.111
235.942	14.651	1462.263	1110.278
236.957	14.547	1461.408	1108.840
237.972	14.581	1459.927	1107.847
238.986	14.673	1458.654	1107.390
240.001	14.541	1458.246	1106.112
241.015	14.618	1457.085	1105.641
242.030	14.619	1455.738	1104.530
243.045	14.618	1454.791	1103.706
244.059	14.671	1454.073	1103.411
245.074	14.753	1453.329	1103.295
246.088	14.743	1452.489	1102.490
247.103	14.790	1451.430	1101.898
248.117	14.831	1450.682	1101.503
249.132	14.835	1450.034	1100.944
250.147	14.866	1449.450	1100.604
251.161	15.002	1448.327	1100.552
252.176	15.050	1447.312	1099.993
253.190	15.051	1446.634	1099.390
254.205	15.087	1445.624	1098.758
255.220	15.068	1444.950	1098.027
256.234	15.105	1444.416	1097.765
257.249	15.065	1443.696	1096.862
258.263	15.101	1442.615	1096.176
259.278	15.020	1441.724	1094.871
260.293	15.133	1440.855	1094.857
261.307	15.059	1440.219	1093.791
262.322	15.154	1439.394	1093.689
263.336	15.385	1437.707	1093.813
264.351	15.286	1437.205	1092.691
265.366	15.258	1436.443	1091.833
266.380	15.210	1435.484	1090.694
267.395	15.358	1434.246	1090.624
268.409	15.362	1433.530	1090.007
269.424	15.349	1432.316	1088.899
270.439	15.297	1431.335	1087.720
271.453	15.354	1430.264	1087.184
272.468	15.401	1428.949	1086.388
273.482	15.293	1429.105	1085.716
274.497	15.334	1428.408	1085.352
275.512	15.287	1427.133	1083.987
276.526	15.322	1426.148	1083.364
277.541	15.323	1425.590	1082.851
278.555	15.355	1424.681	1082.272
279.570	15.404	1423.633	1081.698
280.585	15.405	1422.624	1080.840
281.599	15.411	1421.532	1079.958
282.614	15.490	1420.648	1079.698
283.628	15.476	1419.264	1078.457
284.643	15.470	1418.376	1077.651
285.657	15.545	1417.350	1077.259
286.672	15.494	1416.199	1075.961
287.687	15.459	1415.331	1074.982
288.701	15.514	1414.128	1074.322
289.716	15.478	1413.642	1073.631
290.730	15.523	1413.183	1073.476
291.745	15.525	1411.952	1072.455
292.760	15.585	1410.916	1071.959
293.774	15.649	1409.862	1071.469
294.789	15.616	1408.685	1070.272
295.803	15.600	1408.313	1069.792
296.818	15.737	1406.883	1069.480
297.833	15.636	1406.074	1068.131
298.847	15.600	1405.489	1067.363
299.862	15.672	1404.205	1066.750
300.876	15.702	1403.138	1066.033
301.891	15.709	1401.969	1065.096
302.906	15.670	1401.751	1064.593
303.920	15.867	1400.471	1064.772
304.935	15.864	1399.666	1064.042
305.949	15.895	1398.937	1063.594
306.964	15.902	1398.205	1062.987
307.979	15.986	1397.130	1062.606
308.993	15.938	1396.337	1061.606
310.008	15.888	1395.875	1060.846
311.022	15.958	1394.707	1060.304
312.037	16.029	1392.900	1059.282
313.052	16.004	1392.200	1058.499
314.066	15.958	1391.533	1057.611
315.081	16.000	1390.162	1056.734
316.095	15.934	1389.246	1055.531
317.110	15.955	1388.230	1054.798
318.125	15.904	1387.333	1053.706
319.139	15.940	1386.527	1053.225
320.154	16.035	1385.053	1052.606
321.168	16.029	1384.379	1051.965
322.183	15.922	1383.453	1050.497
323.197	15.935	1382.898	1050.069
324.212	15.953	1381.661	1049.144
325.227	16.100	1380.636	1049.192
326.241	16.002	1380.012	1048.013
327.256	16.009	1379.073	1047.249
328.270	16.118	1378.344	1047.283
329.285	16.117	1376.881	1046.073
330.300	16.073	1376.347	1045.302
331.314	16.076	1375.527	1044.602
332.329	16.122	1374.538	1044.041
333.343	16.116	1373.289	1042.963
334.358	16.089	1373.047	1042.522
335.373	16.194	1371.717	1042.069
336.387	16.206	1370.953	1041.468
337.402	16.142	1369.980	1040.244
338.416	16.214	1369.590	1040.303
339.431	16.274	1368.817	1039.990
340.446	16.324	1368.620	1040.060
341.460	16.276	1367.063	1038.486
342.475	16.244	1366.705	1037.926
343.489	16.453	1365.482	1038.189
344.504	16.333	1364.464	1036.588
345.519	16.430	1363.596	1036.432
346.533	16.484	1362.730	1036.012
347.548	16.424	1361.972	1034.979
348.562	16.492	1360.573	1034.237
349.577	16.493	1359.966	1033.691
350.592	16.489	1359.200	1032.991
351.606	16.417	1358.643	1032.041
352.621	16.524	1356.825	1031.218
353.635	16.512	1356.280	1030.642
354.650	16.402	1355.407	1029.217
355.665	16.373	1354.483	1028.246
356.679	16.490	1353.661	1028.243
357.694	16.480	1351.981	1026.814
358.708	16.525	1350.933	1026.205
359.723	16.474	1349.933	1025.039
360.738	16.549	1348.962	1024.665
361.752	16.623	1347.603	1023.991
362.767	16.484	1346.858	1022.495
363.781	16.522	1346.343	1022.245
364.796	16.626	1345.378	1022.047
365.810	16.601	1344.753	1021.330
366.825	16.662	1344.171	1021.170
367.840	16.634	1343.063	1020.069
368.854	16.768	1342.154	1020.092
369.869	16.706	1341.973	1019.492
370.883	16.784	1340.997	1019.129
371.898	16.839	1340.409	1018.922
372.913	16.816	1339.436	1017.958
373.927	16.850	1338.693	1017.504
374.942	16.801	1338.057	1016.638
375.956	16.858	1336.897	1016.008
376.971	16.950	1335.996	1015.783
377.986	16.921	1335.337	1015.017
379.000	16.982	1334.205	1014.435
380.015	16.851	1333.688	1013.171
381.029	16.996	1332.783	1013.260
382.044	16.937	1332.103	1012.297
383.059	17.040	1331.300	1012.215
384.073	17.043	1330.917	1011.850
385.088	17.038	1330.036	1011.060
386.102	17.146	1328.983	1010.813
387.117	17.077	1328.563	1009.996
388.132	17.026	1327.832	1009.049
389.146	17.085	1327.025	1008.696
390.161	17.063	1326.613	1008.163
391.175	17.131	1325.362	1007.525
392.190	17.038	1324.596	1006.301
393.205	17.135	1323.621	1006.049
394.219	17.185	1322.312	1005.258
395.234	17.293	1320.834	1004.685
396.248	17.331	1319.815	1004.047
397.263	17.224	1318.589	1002.392
398.278	17.235	1317.319	1001.404
399.292	17.091	1316.433	999.793
400.307	17.126	1315.368	999.103
401.321	17.126	1314.122	998.069
402.336	17.196	1313.028	997.561
403.350	17.096	1312.380	996.390
404.365	17.147	1311.379	995.843
405.380	17.147	1310.483	995.073
406.394	17.225	1309.744	994.880
407.409	17.345	1308.490	994.543
408.423	17.316	1308.294	994.135
409.438	17.338	1307.607	993.655
410.453	17.304	1306.975	992.887
411.467	17.414	1305.836	992.577
412.482	17.407	1305.611	992.279
413.496	17.461	1304.885	991.953
414.511	17.447	1303.897	991.031
415.526	17.511	1303.189	990.780
416.540	17.535	1302.750	990.495
417.555	17.542	1301.767	989.705
418.569	17.429	1301.765	988.958
419.584	17.524	1301.216	989.006
420.599	17.573	1300.272	988.484
421.613	91.531	1348.703	1449.253
422.628	90.186	1355.730	1449.357
