DTS Sentinel unit serial number:	SN413079Multiplexer serial number:	ORYXHardware model number:	OX4-SRSoftware version number:	ORYX F/W v4.00 Oryx Data Collector v3.7.2.0data status	okinstallation	princeton_trtdifferential loss correction	single-endedforward channel	channel 4reverse channel	N/Adate	2019/09/18time	20:29:34forward acquisition time	60.00reverse acquisition time	0.00gamma	496.2192k internal	0.2324k external	0.2324temperature offset calibration	1.0038default loss term (dB/km)	0.3790temperature slope calibration	1.0000multiplexer offset coefficient	1.0000multiplexer slope coefficient	1.0000fibre end	0.00T internal ref (°C)	28.31T ext. ref 1 (°C)	0.99T ext. ref 2 (°C)	19.19length (m)	temperature (°C)	Stokes	anti-Stokes-747.200	-200.000	-0.075	0.390
-746.185	800.000	-0.086	0.300
-745.171	8.680	0.140	0.107
-744.156	-165.688	0.071	0.003
-743.142	-134.029	-0.248	0.031
-742.127	572.759	-0.094	0.230
-741.112	-121.275	0.352	-0.059
-740.098	66.709	0.048	0.049
-739.083	243.535	0.122	0.207
-738.069	-85.179	-0.236	0.075
-737.054	159.426	0.169	0.237
-736.039	-200.000	0.042	0.245
-735.025	-98.905	0.401	-0.103
-734.010	-115.904	-0.276	0.052
-732.996	-34.456	0.060	-0.033
-731.981	-130.457	-0.222	-0.030
-730.966	-73.209	0.158	-0.058
-729.952	408.793	0.046	-0.098
-728.937	-46.463	0.085	-0.042
-727.923	800.000	0.027	0.099
-726.908	-151.753	-0.201	0.015
-725.894	-150.895	-0.194	-0.015
-724.879	-78.976	0.347	0.119
-723.864	149.702	0.149	-0.204
-722.850	30.567	0.146	-0.126
-721.835	-100.362	-0.391	-0.098
-720.821	-65.441	-0.089	-0.036
-719.806	-200.000	-0.004	-0.131
-718.791	800.000	-0.102	-0.343
-717.777	-2.813	0.248	-0.175
-716.762	-132.649	0.336	-0.043
-715.748	-148.385	0.099	-0.008
-714.733	-68.183	0.304	0.119
-713.718	-78.760	-0.209	-0.072
-712.704	-152.426	-0.096	0.007
-711.689	182.741	-0.039	-0.058
-710.675	285.925	0.099	0.181
-709.660	-73.918	0.144	0.053
-708.645	29.221	-0.157	0.134
-707.631	11.155	-0.247	0.190
-706.616	-142.828	0.224	-0.022
-705.602	800.000	-0.056	0.175
-704.587	-200.000	0.009	-0.172
-703.572	-135.017	0.183	0.022
-702.558	393.395	0.027	-0.056
-701.543	-77.921	0.077	-0.027
-700.529	-121.284	0.356	-0.060
-699.514	-110.146	0.163	0.034
-698.499	-156.756	-0.381	0.024
-697.485	-200.000	0.001	-0.064
-696.470	-78.799	0.109	-0.037
-695.456	-137.124	-0.295	0.034
-694.441	7.605	0.031	0.023
-693.426	282.167	0.173	-0.312
-692.412	-200.000	0.005	0.062
-691.397	101.222	-0.116	-0.136
-690.383	39.106	0.004	0.004
-689.368	264.738	-0.091	0.160
-688.354	-6.765	-0.244	-0.167
-687.339	-200.000	-0.018	0.432
-686.324	538.283	-0.085	-0.203
-685.310	-48.594	0.070	-0.034
-684.295	-122.044	0.053	0.009
-683.281	94.847	-0.052	0.059
-682.266	226.248	-0.141	-0.230
-681.251	-172.214	-0.449	0.015
-680.237	-200.000	0.007	0.206
-679.222	65.702	0.125	-0.127
-678.208	800.000	-0.085	0.347
-677.193	-75.535	-0.603	-0.216
-676.178	98.813	0.294	0.342
-675.164	-7.137	-0.104	-0.071
-674.149	70.455	0.134	0.140
-673.135	-156.488	-0.111	-0.007
-672.120	56.607	-0.135	0.132
-671.105	178.498	-0.136	-0.200
-670.091	-110.069	-0.182	0.038
-669.076	800.000	-0.158	-0.493
-668.062	-109.626	-0.209	0.044
-667.047	64.017	-0.095	0.096
-666.032	-103.307	0.276	0.066
-665.018	141.238	-0.256	-0.341
-664.003	294.419	-0.071	0.131
-662.989	-200.000	-0.038	0.215
-661.974	-42.715	-0.186	-0.095
-660.959	-175.661	0.208	-0.006
-659.945	800.000	-0.033	0.134
-658.930	-110.511	-0.039	0.008
-657.916	-142.815	-0.162	-0.016
-656.901	118.541	0.047	0.058
-655.886	-45.010	-0.262	-0.131
-654.872	-180.345	0.213	-0.004
-653.857	-200.000	-0.003	0.191
-652.843	259.081	0.033	0.058
-651.828	-42.760	-0.350	0.179
-650.814	721.281	0.020	0.053
-649.799	-9.789	-0.125	0.084
-648.784	187.143	0.257	-0.386
-647.770	183.534	-0.089	-0.132
-646.755	-117.607	-0.283	0.051
-645.741	-68.642	0.300	-0.117
-644.726	-156.878	0.069	0.004
-643.711	121.311	0.029	0.036
-642.697	-28.702	0.080	0.046
-641.682	-200.000	0.045	-0.339
-640.668	-200.000	0.004	-0.106
-639.653	27.787	0.067	-0.057
-638.638	-200.000	-0.015	-0.121
-637.624	-130.313	-0.327	0.045
-636.609	800.000	0.091	-0.258
-635.595	-198.111	-0.222	0.001
-634.580	426.564	-0.056	-0.121
-633.565	-39.019	0.155	-0.082
-632.551	-90.233	-0.020	0.006
-631.536	246.992	-0.044	0.075
-630.522	-200.000	-0.005	0.056
-629.507	-127.020	-0.195	-0.029
-628.492	193.141	0.200	0.303
-627.478	31.936	0.350	0.303
-626.463	-50.405	0.198	-0.094
-625.449	800.000	0.035	0.107
-624.434	699.206	-0.110	-0.291
-623.419	-110.928	0.085	-0.018
-622.405	-176.663	0.143	0.004
-621.390	41.544	0.169	0.154
-620.376	348.380	0.115	0.227
-619.361	-50.063	-0.176	0.084
-618.346	291.313	0.057	-0.104
-617.332	-200.000	0.021	-0.147
-616.317	800.000	-0.069	-0.255
-615.303	-42.228	-0.156	-0.080
-614.288	-200.000	-0.046	0.299
-613.273	248.143	0.089	-0.151
-612.259	-68.646	0.098	0.038
-611.244	-200.000	0.048	-0.330
-610.230	-57.701	0.389	-0.171
-609.215	800.000	-0.054	0.169
-608.201	-100.404	-0.282	0.070
-607.186	256.355	-0.065	-0.111
-606.171	40.355	0.202	-0.182
-605.157	-120.535	-0.145	0.025
-604.142	94.655	0.150	0.172
-603.128	-36.401	-0.095	0.051
-602.113	744.976	0.140	0.377
-601.098	-8.976	-0.171	-0.115
-600.084	-200.000	0.047	-0.508
-599.069	-24.418	0.121	0.073
-598.055	175.627	-0.066	0.096
-597.040	-118.011	-0.181	0.033
-596.025	-200.000	0.015	-0.455
-595.011	-200.000	0.030	-0.159
-593.996	-200.000	0.003	0.057
-592.982	-200.000	-0.021	0.162
-591.967	-54.883	-0.045	-0.020
-590.952	252.133	0.120	0.206
-589.938	-61.541	-0.260	0.110
-588.923	-58.481	-0.446	-0.194
-587.909	446.067	-0.088	-0.195
-586.894	55.623	-0.341	0.332
-585.879	-7.331	-0.134	0.091
-584.865	145.619	0.310	0.416
-583.850	-145.068	-0.212	0.019
-582.836	103.039	0.127	0.149
-581.821	-32.742	-0.194	0.108
-580.806	248.638	0.128	-0.217
-579.792	45.090	0.122	0.113
-578.777	-35.339	-0.166	-0.091
-577.763	-15.366	0.096	0.062
-576.748	-29.813	0.221	-0.126
-575.733	-200.000	0.019	-0.118
-574.719	64.681	0.307	0.311
-573.704	-26.339	0.134	0.079
-572.690	-34.453	0.033	0.018
-571.675	15.382	0.176	0.139
-570.661	-163.343	-0.103	-0.005
-569.646	-69.903	-0.112	0.043
-568.631	-200.000	-0.030	-0.174
-567.617	116.896	0.108	0.133
-566.602	-60.339	-0.124	-0.053
-565.588	-87.264	0.341	-0.104
-564.573	-150.684	0.188	0.014
-563.558	-3.216	0.223	0.156
-562.544	-200.000	0.046	0.220
-561.529	485.446	0.222	-0.507
-560.515	-144.792	-0.266	-0.024
-559.500	163.638	0.253	0.357
-558.485	-27.456	0.094	-0.055
-557.471	-200.000	0.001	0.068
-556.456	-79.436	0.192	-0.065
-555.442	-99.798	0.182	0.046
-554.427	-200.000	0.087	-0.396
-553.412	-126.926	-0.375	-0.055
-552.398	-34.850	0.151	-0.083
-551.383	525.589	0.046	-0.108
-550.369	26.291	-0.257	0.215
-549.354	376.940	-0.061	0.124
-548.339	-200.000	0.005	0.064
-547.325	-129.519	0.127	-0.018
-546.310	-128.357	-0.034	0.005
-545.296	135.196	-0.110	-0.143
-544.281	152.589	0.211	-0.288
-543.266	-200.000	-0.013	-0.225
-542.252	157.420	-0.099	-0.137
-541.237	471.365	-0.033	-0.074
-540.223	-172.738	0.119	-0.004
-539.208	124.569	-0.110	0.139
-538.193	24.699	0.238	-0.197
-537.179	-103.923	0.297	0.069
-536.164	-109.186	-0.337	-0.072
-535.150	-200.000	0.034	-0.177
-534.135	167.821	0.123	0.176
-533.121	-48.037	-0.262	0.127
-532.106	-137.229	-0.298	0.034
-531.091	-43.809	0.130	-0.066
-530.077	-135.008	-0.151	-0.018
-529.062	160.085	-0.097	-0.135
-528.048	43.471	-0.147	-0.135
-527.033	47.754	-0.161	0.150
-526.018	-45.585	-0.078	0.039
-525.004	743.946	0.060	0.162
-523.989	800.000	0.058	-0.175
-522.975	-200.000	0.054	-0.308
-521.960	-85.756	0.238	0.074
-520.945	227.231	0.117	0.190
-519.931	-138.626	0.308	-0.034
-518.916	192.832	0.250	-0.377
-517.902	-200.000	0.042	-0.411
-516.887	-200.000	0.007	-0.271
-515.872	214.474	-0.120	0.191
-514.858	800.000	0.098	0.291
-513.843	-135.527	-0.278	-0.033
-512.829	-200.000	0.042	-0.304
-511.814	-183.197	-0.537	0.009
-510.799	218.417	-0.062	0.098
-509.785	-179.018	0.183	0.004
-508.770	31.747	0.216	-0.186
-507.756	126.272	0.268	-0.339
-506.741	439.238	-0.084	0.183
-505.726	-33.024	0.121	-0.067
-504.712	148.421	-0.076	0.103
-503.697	-166.410	0.335	0.014
-502.683	-200.000	-0.040	0.176
-501.668	-92.383	0.159	0.045
-500.653	527.826	-0.039	-0.093
-499.639	-200.000	-0.030	-0.375
-498.624	-200.000	0.000	-0.125
-497.610	-0.118	0.288	0.205
-496.595	-34.786	0.059	-0.032
-495.581	-161.738	0.223	0.011
-494.566	195.172	-0.202	-0.307
-493.551	-40.415	0.170	-0.088
-492.537	-17.274	0.247	0.156
-491.522	29.474	0.231	0.196
-490.508	-69.236	-0.343	0.132
-489.493	-111.488	-0.292	0.059
-488.478	800.000	-0.157	0.441
-487.464	-200.000	0.021	-0.149
-486.449	-66.513	-0.284	-0.113
-485.435	800.000	-0.048	0.147
-484.420	213.541	0.056	-0.088
-483.405	285.091	-0.030	0.053
-482.391	10.918	0.264	-0.202
-481.376	-200.000	-0.016	-0.167
-480.362	138.908	-0.241	-0.317
-479.347	-86.704	-0.050	-0.015
-478.332	800.000	0.028	0.106
-477.318	99.335	0.205	0.237
-476.303	-30.748	-0.163	0.092
-475.289	-106.633	0.145	0.032
-474.274	420.870	-0.044	0.094
-473.259	108.586	0.141	0.169
-472.245	-13.294	0.015	0.010
-471.230	358.058	-0.089	-0.177
-470.216	86.691	-0.207	0.228
-469.201	-200.000	-0.013	0.133
-468.186	169.736	0.067	-0.096
-467.172	-106.739	0.318	0.071
-466.157	800.000	0.077	-0.222
-465.143	85.675	0.235	0.258
-464.128	800.000	-0.108	0.317
-463.113	-126.610	-0.301	-0.044
-462.099	-150.406	-0.164	0.013
-461.084	4.894	-0.210	-0.154
-460.070	-118.350	0.409	-0.073
-459.055	-78.545	-0.251	0.086
-458.040	-200.000	-0.008	0.202
-457.026	-41.845	-0.439	-0.225
-456.011	-200.000	-0.092	-0.492
-454.997	-200.000	0.022	-0.259
-453.982	169.668	-0.126	0.179
-452.968	-104.598	-0.171	-0.039
-451.953	371.892	0.143	0.290
-450.938	217.216	-0.057	0.090
-449.924	221.557	0.142	-0.228
-448.909	64.773	-0.199	0.200
-447.895	-88.482	0.128	0.038
-446.880	-200.000	0.012	-0.059
-445.865	-200.000	-0.003	0.265
-444.851	-102.254	-0.255	-0.061
-443.836	119.238	0.129	-0.159
-442.822	800.000	-0.022	0.065
-441.807	-97.886	0.156	0.040
-440.792	-15.488	-0.287	0.183
-439.778	-200.000	0.033	0.271
-438.763	704.073	0.104	-0.272
-437.749	-53.687	-0.314	-0.143
-436.734	411.994	-0.158	-0.335
-435.719	-118.294	-0.217	-0.038
-434.705	4.489	0.316	0.231
-433.690	-37.345	-0.344	0.183
-432.676	800.000	0.058	0.159
-431.661	-27.875	-0.102	-0.059
-430.646	800.000	-0.083	0.231
-429.632	622.721	-0.104	0.262
-428.617	368.898	-0.072	-0.146
-427.603	-200.000	0.054	-0.289
-426.588	-44.304	0.094	-0.047
-425.573	800.000	-0.046	0.137
-424.559	-169.780	0.298	-0.011
-423.544	-200.000	-0.028	0.146
-422.530	-121.542	0.429	0.071
-421.515	280.691	-0.145	-0.258
-420.500	736.623	0.078	-0.208
-419.486	-200.000	-0.054	0.237
-418.471	428.042	-0.051	-0.110
-417.457	-173.547	0.347	-0.010
-416.442	-200.000	-0.007	0.301
-415.428	-0.514	-0.461	-0.326
-414.413	-42.706	-0.141	0.071
-413.398	282.589	0.130	0.232
-412.384	143.845	-0.112	-0.149
-411.369	-27.946	-0.312	0.180
-410.355	256.447	-0.163	0.279
-409.340	324.538	-0.221	-0.420
-408.325	229.045	-0.057	0.092
-407.311	382.571	-0.083	-0.171
-406.296	-200.000	-0.057	0.386
-405.282	-1.394	-0.174	-0.122
-404.267	315.250	-0.097	0.183
-403.252	-41.775	0.110	0.056
-402.238	47.973	0.033	-0.031
-401.223	-200.000	0.007	-0.185
-400.209	-44.685	-0.171	-0.085
-399.194	-155.239	-0.153	0.010
-398.179	-200.000	-0.008	0.231
-397.165	-200.000	0.008	0.053
-396.150	-46.925	0.348	-0.170
-395.136	-200.000	-0.011	0.079
-394.121	-146.801	-0.083	-0.007
-393.106	-181.989	-0.127	-0.002
-392.092	-200.000	-0.010	0.045
-391.077	800.000	-0.076	0.248
-390.063	-189.700	-0.197	-0.002
-389.048	272.677	0.091	-0.159
-388.033	-170.903	0.118	-0.004
-387.019	-109.403	-0.419	0.088
-386.004	-147.159	0.258	-0.022
-384.990	-193.923	-0.074	-0.001
-383.975	-155.479	0.219	-0.014
-382.960	443.145	0.125	0.273
-381.946	567.244	0.157	-0.379
-380.931	19.931	0.160	-0.128
-379.917	-133.206	-0.137	-0.017
-378.902	248.924	-0.185	0.312
-377.888	116.400	-0.023	0.028
-376.873	-200.000	-0.028	0.290
-375.858	454.784	-0.109	-0.239
-374.844	434.609	-0.074	-0.160
-373.829	-200.000	0.015	0.176
-372.815	-75.067	-0.095	-0.034
-371.800	-200.000	0.028	0.218
-370.785	-83.035	0.149	0.048
-369.771	-200.000	-0.043	-0.257
-368.756	-87.703	-0.162	-0.048
-367.742	17.672	0.224	-0.177
-366.727	62.894	-0.060	-0.060
-365.712	-155.649	-0.035	-0.002
-364.698	10.777	-0.240	0.182
-363.683	165.755	0.037	-0.052
-362.669	-69.256	0.257	-0.098
-361.654	-78.187	-0.053	-0.018
-360.639	176.560	0.144	0.209
-359.625	800.000	0.108	0.425
-358.610	686.320	-0.050	-0.129
-357.596	-200.000	0.014	-0.073
-356.581	361.431	-0.039	-0.077
-355.566	-4.495	-0.164	0.112
-354.552	-200.000	0.043	0.270
-353.537	-200.000	-0.046	0.205
-352.523	300.050	0.118	0.217
-351.508	-0.209	0.158	0.112
-350.493	-26.622	-0.373	0.217
-349.479	144.569	0.207	0.274
-348.464	33.113	-0.181	0.156
-347.450	-37.876	-0.110	0.058
-346.435	800.000	-0.014	0.056
-345.420	5.245	-0.151	-0.111
-344.406	-54.348	0.229	-0.103
-343.391	45.543	0.307	0.281
-342.377	71.164	0.189	-0.195
-341.362	359.881	-0.071	-0.142
-340.348	-50.345	0.141	-0.066
-339.333	85.241	0.064	0.070
-338.318	-94.455	-0.211	0.057
-337.304	-96.225	0.155	0.041
-336.289	46.669	0.267	0.246
-335.275	-200.000	0.008	0.148
-334.260	-4.841	0.147	0.101
-333.245	131.011	-0.082	0.104
-332.231	-200.000	0.043	-0.329
-331.216	43.204	0.079	0.072
-330.202	7.035	0.150	-0.111
-329.187	25.299	-0.284	-0.234
-328.172	-23.133	-0.198	0.118
-327.158	34.631	-0.080	-0.069
-326.143	-200.000	-0.014	-0.414
-325.129	-0.116	0.044	-0.031
-324.114	-116.962	0.038	0.007
-323.099	16.803	-0.227	0.178
-322.085	-36.314	0.210	0.113
-321.070	-121.526	-0.461	0.076
-320.056	-0.275	-0.146	0.103
-319.041	-200.000	-0.022	0.265
-318.026	-109.042	0.391	0.083
-317.012	641.509	-0.120	0.304
-315.997	800.000	-0.057	0.157
-314.983	-35.642	0.116	0.062
-313.968	-15.841	0.312	0.197
-312.953	83.293	-0.087	-0.094
-311.939	-41.442	-0.255	0.130
-310.924	-200.000	0.000	0.259
-309.910	-156.182	0.178	-0.011
-308.895	800.000	0.047	-0.159
-307.880	-6.751	-0.154	-0.104
-306.866	52.164	-0.042	-0.039
-305.851	416.543	-0.177	0.375
-304.837	800.000	0.100	-0.302
-303.822	211.161	0.140	-0.219
-302.807	800.000	0.027	0.091
-301.793	-200.000	0.073	0.348
-300.778	800.000	-0.036	-0.124
-299.764	-116.657	0.274	0.050
-298.749	78.636	0.162	-0.172
-297.735	153.274	-0.108	0.147
-296.720	-92.601	0.039	0.011
-295.705	-65.512	-0.325	0.129
-294.691	-200.000	-0.071	0.379
-293.676	800.000	0.049	-0.203
-292.662	478.724	0.008	0.018
-291.647	-169.331	-0.146	0.005
-290.632	410.406	-0.111	0.234
-289.618	-200.000	0.066	0.473
-288.603	83.908	0.164	-0.177
-287.589	243.660	0.114	0.190
-286.574	-200.000	-0.007	-0.072
-285.559	42.495	0.218	-0.197
-284.545	518.002	0.040	0.093
-283.530	0.426	-0.131	0.093
-282.516	152.024	-0.086	0.116
-281.501	-111.837	-0.281	0.056
-280.486	-74.489	-0.148	-0.053
-279.472	-10.466	-0.052	0.034
-278.457	99.203	0.131	-0.150
-277.443	381.177	-0.112	-0.228
-276.428	-63.818	0.095	0.039
-275.413	-87.376	0.380	-0.114
-274.399	106.201	0.069	-0.081
-273.384	-97.379	-0.296	-0.077
-272.370	181.461	-0.201	-0.292
-271.355	113.028	0.167	0.200
-270.340	-96.945	-0.290	0.075
-269.326	800.000	-0.049	-0.139
-268.311	800.000	-0.050	-0.138
-267.297	-93.075	0.140	-0.039
-266.282	-200.000	0.032	-0.232
-265.267	-200.000	0.028	-0.216
-264.253	-106.231	-0.340	0.076
-263.238	-34.508	-0.204	-0.110
-262.224	90.361	-0.264	-0.293
-261.209	29.425	0.223	-0.188
-260.195	-186.390	0.196	0.003
-259.180	-200.000	-0.040	-0.283
-258.165	1.113	0.339	-0.241
-257.151	210.317	0.030	0.047
-256.136	-93.096	-0.179	0.049
-255.122	23.816	-0.118	0.096
-254.107	-56.013	-0.212	-0.094
-253.092	438.458	0.048	-0.103
-252.078	-9.774	0.027	-0.018
-251.063	30.121	0.220	0.186
-250.049	10.322	-0.218	-0.164
-249.034	-44.636	-0.218	-0.108
-248.019	429.161	0.050	0.107
-247.005	800.000	0.111	-0.361
-245.990	99.873	0.154	0.177
-244.976	-200.000	0.015	-0.155
-243.961	-95.422	0.233	-0.062
-242.946	139.560	-0.107	-0.139
-241.932	-15.808	-0.273	-0.172
-240.917	800.000	-0.066	-0.212
-239.903	-36.597	0.050	0.027
-238.888	-200.000	-0.014	-0.116
-237.873	-49.253	0.191	0.090
-236.859	-46.753	0.085	-0.041
-235.844	-200.000	0.013	-0.168
-234.830	-104.303	-0.099	0.023
-233.815	69.855	0.226	-0.231
-232.800	440.169	-0.139	0.301
-231.786	396.256	0.124	0.257
-230.771	-68.770	0.314	0.120
-229.757	260.959	-0.239	-0.409
-228.742	-93.300	-0.291	-0.080
-227.727	-200.000	-0.010	0.118
-226.713	-177.844	0.180	0.004
-225.698	4.553	0.058	0.042
-224.684	-21.807	0.068	-0.041
-223.669	-147.952	-0.306	-0.025
-222.655	-81.173	0.227	0.074
-221.640	800.000	0.025	-0.103
-220.625	800.000	-0.114	-0.382
-219.611	135.623	-0.203	0.261
-218.596	800.000	-0.098	0.278
-217.582	77.554	-0.080	0.084
-216.567	388.668	-0.085	-0.174
-215.552	204.010	-0.132	0.203
-214.538	-152.057	0.373	-0.027
-213.523	-125.735	0.162	-0.024
-212.509	-57.604	-0.088	-0.038
-211.494	-3.565	-0.407	-0.280
-210.479	41.375	0.076	0.068
-209.465	800.000	-0.072	0.230
-208.450	-70.647	-0.078	-0.029
-207.436	-162.770	0.441	0.021
-206.421	-200.000	-0.010	0.075
-205.406	800.000	-0.018	0.050
-204.392	-200.000	0.037	-0.260
-203.377	-43.403	-0.488	0.244
-202.363	121.630	0.136	-0.168
-201.348	-64.362	0.278	-0.112
-200.333	477.859	0.031	-0.070
-199.319	800.000	0.066	0.276
-198.304	-200.000	0.024	-0.196
-197.290	-140.476	-0.303	-0.031
-196.275	232.056	0.122	0.197
-195.260	-15.924	-0.030	-0.019
-194.246	-168.475	-0.105	0.004
-193.231	137.295	0.233	-0.302
-192.217	-15.027	-0.191	-0.121
-191.202	69.135	-0.214	-0.217
-190.187	800.000	0.039	-0.163
-189.173	800.000	-0.027	0.082
-188.158	-97.448	-0.143	-0.037
-187.144	127.836	0.283	-0.355
-186.129	188.030	-0.133	-0.197
-185.114	-9.045	-0.209	0.138
-184.100	157.821	-0.147	0.201
-183.085	6.669	0.072	0.053
-182.071	-73.054	-0.366	-0.133
-181.056	509.403	0.107	-0.246
-180.042	-29.610	0.249	0.141
-179.027	392.091	0.245	0.502
-178.012	-124.560	-0.154	0.024
-176.998	24.987	-0.121	0.099
-175.983	-154.292	0.325	0.022
-174.969	-45.097	0.325	0.159
-173.954	-200.000	0.048	0.734
-172.939	7.209	0.180	-0.133
-171.925	43.596	0.278	-0.251
-170.910	-47.808	0.278	-0.133
-169.896	800.000	0.038	0.107
-168.881	-200.000	-0.015	-0.152
-167.866	89.812	-0.172	0.190
-166.852	74.409	-0.208	0.216
-165.837	-6.360	0.151	0.102
-164.823	547.698	0.102	-0.240
-163.808	7.361	-0.130	0.096
-162.793	-95.425	0.329	0.087
-161.779	-157.026	0.202	-0.012
-160.764	-5.722	-0.181	-0.122
-159.750	-41.043	0.107	-0.055
-158.735	-44.037	0.175	0.087
-157.720	-200.000	0.100	0.445
-156.706	-16.851	0.392	0.245
-155.691	31.735	-0.229	-0.194
-154.677	-55.913	0.117	-0.052
-153.662	-4.707	-0.065	-0.044
-152.647	-105.979	-0.233	0.052
-151.633	-88.759	-0.172	0.051
-150.618	-52.004	-0.366	0.168
-149.604	183.525	-0.080	0.116
-148.589	47.758	-0.128	0.118
-147.574	800.000	0.044	-0.175
-146.560	22.706	-0.175	-0.141
-145.545	385.985	-0.083	0.170
-144.531	-153.481	0.191	-0.013
-143.516	307.706	-0.219	0.403
-142.502	-200.000	0.056	0.450
-141.487	62.716	-0.257	0.254
-140.472	-156.406	-0.195	0.012
-139.458	800.000	-0.022	-0.073
-138.443	-45.936	0.106	-0.052
-137.429	68.423	-0.208	0.210
-136.414	-9.089	-0.086	0.057
-135.399	-200.000	-0.078	0.513
-134.385	760.629	-0.070	-0.186
-133.370	-100.578	-0.262	-0.064
-132.356	800.000	-0.012	0.049
-131.341	388.498	-0.103	0.210
-130.326	112.515	0.089	-0.106
-129.312	-44.456	-0.127	-0.063
-128.297	-31.067	0.125	-0.070
-127.283	392.633	-0.009	0.019
-126.268	-89.701	0.224	0.065
-125.253	149.329	-0.053	0.070
-124.239	-200.000	-0.015	-0.091
-123.224	48.898	0.093	0.086
-122.210	-120.039	-0.214	0.036
-121.195	-200.000	-0.060	0.294
-120.180	800.000	-0.076	0.208
-119.166	-4.986	-0.132	-0.089
-118.151	-42.817	-0.149	0.075
-117.137	800.000	-0.029	0.100
-116.122	356.963	0.208	0.408
-115.107	-200.000	0.003	0.069
-114.093	63.019	0.205	0.202
-113.078	-22.418	-0.235	-0.140
-112.064	-43.868	0.261	-0.129
-111.049	-200.000	-0.011	0.299
-110.034	692.163	0.055	-0.141
-109.020	404.398	-0.097	0.202
-108.005	-200.000	-0.005	0.077
-106.991	32.656	0.204	0.174
-105.976	-97.131	0.190	-0.049
-104.962	-83.638	-0.326	0.103
-103.947	312.663	-0.068	0.125
-102.932	114.951	0.331	-0.397
-101.918	53.810	0.369	0.349
-100.903	-73.744	0.350	-0.125
-99.889	-78.416	-0.074	-0.025
-98.874	-34.877	0.155	0.083
-97.859	-77.774	-0.051	-0.017
-96.845	-49.059	-0.229	0.108
-95.830	610.414	-0.139	-0.341
-94.816	24.221	-0.087	-0.071
-93.801	177.409	-0.291	0.417
-92.786	30.009	-0.328	0.276
-91.772	800.000	0.066	-0.189
-90.757	-144.547	-0.135	-0.012
-89.743	284.244	-0.075	-0.133
-88.728	800.000	0.044	0.180
-87.713	435.018	-0.092	-0.196
-86.699	-91.626	-0.245	0.069
-85.684	-36.797	0.021	0.011
-84.670	187.153	0.226	0.331
-83.655	-109.149	0.297	-0.062
-82.640	-200.000	0.018	0.368
-81.626	100.583	-0.062	-0.071
-80.611	224.856	0.221	0.352
-79.597	-48.205	0.227	-0.108
-78.582	147.069	-0.099	0.132
-77.567	304.354	-0.054	-0.098
-76.553	11.707	-0.207	-0.157
-75.538	-75.084	0.178	-0.063
-74.524	-106.707	0.122	-0.027
-73.509	140.562	-0.332	-0.432
-72.494	24.339	0.041	0.034
-71.480	-39.941	0.174	0.089
-70.465	-200.000	0.060	0.336
-69.451	-200.000	0.015	0.069
-68.436	59.832	0.157	-0.153
-67.422	-119.516	0.120	0.020
-66.407	31.017	-0.117	0.099
-65.392	-200.000	0.033	0.177
-64.378	-200.000	0.030	0.263
-63.363	-76.339	-0.101	0.035
-62.349	104.730	-0.164	-0.190
-61.334	80.254	-1.025	-1.084
-60.319	-53.668	0.545	0.245
-59.305	-200.000	-0.295	-1.397
-58.290	174.311	0.992	1.410
-57.276	435.427	0.657	1.404
-56.261	-200.000	112.989	669.475
-55.246	508.164	1477.381	3371.182
-54.232	149.792	2648.187	3527.821
-53.217	96.036	2307.151	2590.745
-52.203	34.809	2060.102	1770.783
-51.188	30.095	1977.224	1657.433
-50.173	28.716	1959.650	1630.401
-49.159	46.302	2017.829	1837.747
-48.144	45.482	2033.844	1844.868
-47.130	30.643	1993.643	1675.875
-46.115	28.349	1983.380	1646.592
-45.100	28.261	1979.930	1642.870
-44.086	28.212	1977.637	1640.466
-43.071	28.151	1975.396	1637.993
-42.057	28.131	1973.266	1635.985
-41.042	28.151	1971.776	1634.862
-40.027	28.257	1969.471	1633.827
-39.013	28.232	1967.954	1632.281
-37.998	28.174	1966.223	1630.269
-36.984	28.175	1964.476	1628.763
-35.969	28.247	1962.167	1627.427
-34.954	28.222	1960.459	1625.721
-33.940	28.205	1958.950	1624.254
-32.925	28.357	1957.301	1624.165
-31.911	28.379	1955.569	1622.865
-30.896	28.319	1954.092	1621.042
-29.881	28.319	1952.026	1619.260
-28.867	28.397	1950.814	1618.886
-27.852	28.448	1948.957	1617.728
-26.838	28.344	1947.582	1615.602
-25.823	28.362	1946.008	1614.396
-24.809	28.309	1944.126	1612.306
-23.794	28.311	1942.026	1610.513
-22.779	28.370	1940.330	1609.563
-21.765	28.296	1938.663	1607.464
-20.750	28.355	1937.238	1606.736
-19.736	28.355	1934.855	1604.696
-18.721	28.378	1934.042	1604.160
-17.706	28.289	1932.739	1602.239
-16.692	28.397	1930.614	1601.360
-15.677	28.293	1929.095	1599.127
-14.663	28.338	1927.622	1598.229
-13.648	28.300	1926.655	1597.036
-12.633	28.376	1925.055	1596.313
-11.619	28.363	1924.136	1595.375
-10.604	28.349	1922.193	1593.575
-9.590	28.321	1921.078	1592.341
-8.575	28.293	1919.863	1591.030
-7.560	28.307	1918.890	1590.282
-6.546	28.371	1916.851	1589.088
-5.531	28.302	1916.123	1587.823
-4.517	28.306	1914.834	1586.725
-3.502	28.229	1913.626	1584.992
-2.487	28.297	1911.874	1584.065
-1.473	28.297	1911.256	1583.488
-0.458	28.295	1906.210	1579.229
0.556	26.823	1884.017	1544.698
1.571	21.209	1862.360	1479.392
2.586	16.345	1881.369	1452.625
3.600	14.822	1915.321	1465.369
4.615	14.441	1908.949	1457.035
5.629	11.509	1811.529	1358.203
6.644	5.161	1699.145	1224.170
7.659	1.363	1664.993	1170.236
8.673	0.973	1661.960	1165.002
9.688	0.977	1660.704	1164.046
10.702	1.095	1659.136	1163.752
11.717	0.895	1655.536	1159.589
12.731	1.321	1654.014	1161.684
13.746	6.135	1664.128	1205.672
14.761	13.470	1677.955	1272.129
15.775	17.236	1684.480	1305.961
16.790	17.634	1683.912	1308.464
17.804	16.695	1681.094	1298.959
18.819	15.739	1678.001	1289.127
19.834	15.140	1675.264	1282.327
20.848	14.871	1673.775	1279.013
21.863	14.573	1672.617	1275.741
22.877	14.395	1670.702	1272.805
23.892	14.095	1669.570	1269.543
24.907	13.944	1668.776	1267.673
25.921	13.904	1667.535	1266.313
26.936	13.953	1666.600	1265.866
27.950	14.031	1665.274	1265.341
28.965	14.063	1664.906	1265.187
29.980	14.106	1663.618	1264.427
30.994	14.132	1662.627	1263.757
32.009	14.185	1661.989	1263.569
33.023	14.307	1660.720	1263.413
34.038	14.301	1660.037	1262.733
35.053	14.132	1659.565	1260.988
36.067	14.221	1657.993	1260.354
37.082	14.225	1656.999	1259.514
38.096	14.115	1656.188	1257.956
39.111	14.163	1655.637	1257.787
40.126	14.135	1655.089	1257.048
41.140	14.150	1653.835	1256.102
42.155	14.103	1652.459	1254.591
43.169	13.998	1651.402	1252.882
44.184	13.987	1650.080	1251.687
45.199	13.985	1648.640	1250.471
46.213	13.966	1647.373	1249.255
47.228	13.974	1646.649	1248.652
48.242	14.011	1644.862	1247.469
49.257	14.099	1643.916	1247.302
50.271	14.068	1642.835	1246.133
51.286	14.177	1641.042	1245.481
52.301	14.135	1639.582	1243.953
53.315	14.076	1638.554	1242.620
54.330	14.016	1637.146	1240.995
55.344	13.999	1635.662	1239.633
56.359	13.968	1634.188	1238.171
57.374	14.007	1633.195	1237.600
58.388	14.065	1631.292	1236.481
59.403	13.986	1630.531	1235.206
60.417	13.935	1629.226	1233.733
61.432	13.909	1627.909	1232.431
62.447	13.976	1627.070	1232.182
63.461	13.904	1625.783	1230.569
64.476	13.916	1624.453	1229.538
65.490	13.951	1623.028	1228.616
66.505	13.905	1622.193	1227.536
67.520	13.920	1621.045	1226.663
68.534	13.954	1620.012	1226.028
69.549	13.985	1619.091	1225.453
70.563	13.984	1617.374	1224.036
71.578	13.981	1616.726	1223.413
72.593	13.876	1615.381	1221.517
73.607	13.899	1614.610	1220.997
74.622	13.909	1613.291	1219.962
75.636	13.779	1612.140	1218.026
76.651	13.893	1611.237	1218.073
77.666	13.847	1610.559	1217.117
78.680	13.855	1609.677	1216.405
79.695	13.899	1608.356	1215.616
80.709	13.878	1607.546	1214.742
81.724	13.910	1606.547	1214.114
82.739	13.918	1605.426	1213.220
83.753	14.049	1604.444	1213.326
84.768	14.024	1603.519	1212.337
85.782	14.042	1602.861	1211.863
86.797	14.152	1601.562	1211.576
87.812	14.103	1600.859	1210.576
88.826	14.001	1599.682	1208.840
89.841	13.990	1598.649	1207.873
90.855	14.048	1596.832	1206.814
91.870	14.050	1596.164	1206.214
92.884	14.052	1595.477	1205.608
93.899	14.014	1594.299	1204.333
94.914	14.064	1593.056	1203.648
95.928	14.097	1592.317	1203.224
96.943	14.218	1589.830	1202.112
97.957	14.176	1588.992	1201.069
98.972	14.104	1588.061	1199.738
99.987	14.106	1586.005	1198.098
101.001	14.007	1584.559	1196.184
102.016	14.033	1583.153	1195.207
103.030	14.022	1581.548	1193.811
104.045	14.145	1580.440	1193.751
105.060	14.071	1579.099	1192.101
106.074	14.135	1577.032	1190.891
107.089	14.053	1575.813	1189.276
108.103	13.951	1574.456	1187.423
109.118	13.955	1573.034	1186.273
110.133	14.027	1571.429	1185.468
111.147	14.008	1570.441	1184.487
112.162	14.010	1569.363	1183.583
113.176	13.978	1567.893	1182.137
114.191	13.995	1566.719	1181.272
115.206	14.083	1565.079	1180.555
116.220	14.099	1563.879	1179.657
117.235	14.021	1562.504	1177.961
118.249	14.044	1561.154	1177.007
119.264	14.036	1559.830	1175.843
120.279	13.948	1558.633	1174.216
121.293	13.958	1557.599	1173.403
122.308	14.058	1555.684	1172.568
123.322	13.988	1553.786	1170.538
124.337	14.029	1552.170	1169.506
125.352	14.023	1551.248	1168.666
126.366	14.002	1550.056	1167.516
127.381	13.975	1548.959	1166.399
128.395	14.002	1547.770	1165.584
129.410	13.951	1546.270	1163.994
130.424	14.009	1544.989	1163.338
131.439	14.023	1543.282	1162.048
132.454	14.024	1542.583	1161.421
133.468	14.044	1540.741	1160.073
134.483	14.038	1539.204	1158.769
135.497	14.088	1537.940	1158.065
136.512	14.077	1536.861	1157.071
137.527	14.101	1535.166	1155.861
138.541	14.038	1534.213	1154.604
139.556	13.971	1533.014	1153.135
140.570	14.150	1531.377	1153.042
141.585	14.075	1529.807	1151.244
142.600	14.156	1528.652	1150.826
143.614	14.224	1527.478	1150.316
144.629	14.265	1526.051	1149.422
145.643	14.336	1524.678	1148.775
146.658	14.256	1523.783	1147.449
147.673	14.285	1521.748	1146.014
148.687	14.222	1520.746	1144.721
149.702	14.144	1519.827	1143.392
150.716	14.246	1517.682	1142.378
151.731	14.199	1516.462	1141.035
152.746	14.245	1514.646	1139.883
153.760	14.201	1513.704	1138.773
154.775	14.243	1512.551	1138.091
155.789	14.262	1510.909	1136.889
156.804	14.338	1509.693	1136.388
157.819	14.376	1508.334	1135.526
158.833	14.374	1507.547	1134.821
159.848	14.364	1506.339	1133.738
160.862	14.519	1504.570	1133.365
161.877	14.472	1503.185	1131.903
162.892	14.400	1502.430	1130.742
163.906	14.366	1500.995	1129.332
164.921	14.331	1499.858	1128.138
165.935	14.324	1498.839	1127.227
166.950	14.402	1497.654	1126.762
167.964	14.276	1496.507	1124.949
168.979	14.422	1495.386	1124.995
169.994	14.362	1494.568	1123.870
171.008	14.409	1493.623	1123.380
172.023	14.436	1492.686	1122.760
173.037	14.440	1491.400	1121.719
174.052	14.444	1490.300	1120.817
175.067	14.533	1489.365	1120.612
176.081	14.478	1488.053	1119.157
177.096	14.394	1486.990	1117.698
178.110	14.387	1485.841	1116.690
179.125	14.474	1484.075	1115.841
180.140	14.513	1482.717	1114.987
181.154	14.626	1481.551	1114.763
182.169	14.503	1480.488	1113.044
183.183	14.603	1479.334	1112.745
184.198	14.551	1479.048	1112.084
185.213	14.694	1476.837	1111.279
186.227	14.630	1476.727	1110.671
187.242	14.599	1475.721	1109.609
188.256	14.624	1474.223	1108.551
189.271	14.713	1473.255	1108.312
190.286	14.759	1472.282	1107.787
191.300	14.649	1471.242	1106.178
192.315	14.648	1469.640	1104.870
193.329	14.602	1468.501	1103.615
194.344	14.571	1467.585	1102.621
195.359	14.605	1466.859	1102.201
196.373	14.597	1465.651	1101.142
197.388	14.563	1464.955	1100.302
198.402	14.681	1463.388	1099.805
199.417	14.754	1462.243	1099.323
200.432	14.820	1461.308	1098.961
201.446	14.863	1460.048	1098.196
202.461	14.824	1459.627	1097.527
203.475	14.879	1457.721	1096.358
204.490	14.911	1456.813	1095.787
205.504	14.991	1455.747	1095.415
206.519	14.894	1454.908	1094.050
207.534	14.890	1453.890	1093.163
208.548	14.791	1452.783	1091.584
209.563	14.931	1451.465	1091.413
210.577	14.888	1450.598	1090.380
211.592	15.024	1449.473	1090.325
212.607	14.891	1449.496	1089.383
213.621	15.050	1448.501	1089.573
214.636	15.052	1447.318	1088.601
215.650	15.071	1446.374	1087.919
216.665	15.072	1445.009	1086.802
217.680	15.063	1444.868	1086.542
218.694	15.153	1443.822	1086.237
219.709	15.158	1443.256	1085.752
220.723	15.036	1442.152	1084.034
221.738	15.091	1440.866	1083.329
222.753	15.183	1440.094	1083.245
223.767	15.104	1439.344	1082.073
224.782	15.144	1438.423	1081.545
225.796	15.271	1437.025	1081.214
226.811	15.265	1436.483	1080.673
227.826	15.149	1436.135	1079.570
228.840	15.235	1434.912	1079.111
229.855	15.172	1433.699	1077.699
230.869	15.145	1432.759	1076.719
231.884	15.295	1431.656	1076.761
232.899	15.181	1430.572	1075.118
233.913	15.214	1429.247	1074.239
234.928	15.236	1428.250	1073.538
235.942	15.208	1427.087	1072.385
236.957	15.210	1426.274	1071.696
237.972	15.165	1425.101	1070.432
238.986	15.294	1423.775	1070.162
240.001	15.225	1423.234	1069.219
241.015	15.302	1422.179	1068.823
242.030	15.289	1420.495	1067.380
243.045	15.205	1420.316	1066.621
244.059	15.346	1418.855	1066.325
245.074	15.419	1418.161	1066.169
246.088	15.320	1417.858	1065.223
247.103	15.371	1416.756	1064.621
248.117	15.475	1415.795	1064.468
249.132	15.492	1414.936	1063.832
250.147	15.441	1414.470	1063.067
251.161	15.531	1413.811	1063.048
252.176	15.653	1413.283	1063.325
253.190	15.580	1412.480	1062.168
254.205	15.650	1411.226	1061.569
255.220	15.642	1410.325	1060.747
256.234	15.743	1409.342	1060.553
257.249	15.684	1408.698	1059.604
258.263	15.686	1408.402	1059.300
259.278	15.712	1406.770	1058.140
260.293	15.711	1406.116	1057.547
261.307	15.723	1405.301	1056.916
262.322	15.845	1404.489	1056.980
263.336	15.822	1403.918	1056.313
264.351	15.821	1402.784	1055.358
265.366	15.919	1401.686	1055.058
266.380	15.952	1400.916	1054.586
267.395	15.910	1400.005	1053.546
268.409	15.919	1398.996	1052.752
269.424	15.987	1398.643	1052.815
270.439	15.935	1397.318	1051.398
271.453	15.889	1396.431	1050.352
272.468	15.973	1395.563	1050.129
273.482	15.941	1395.138	1049.517
274.497	15.882	1394.194	1048.348
275.512	15.932	1393.270	1047.873
276.526	15.920	1392.624	1047.220
277.541	15.930	1391.361	1046.238
278.555	15.944	1390.215	1045.371
279.570	16.001	1389.231	1044.891
280.585	16.092	1388.098	1044.509
281.599	16.075	1387.525	1043.885
282.614	15.993	1387.002	1042.890
283.628	16.077	1385.967	1042.539
284.643	16.061	1384.567	1041.291
285.657	16.032	1383.488	1040.210
286.672	16.089	1383.050	1040.142
287.687	16.044	1382.064	1039.033
288.701	16.218	1380.614	1038.922
289.716	16.118	1380.211	1037.912
290.730	16.112	1379.518	1037.262
291.745	16.266	1378.458	1037.319
292.760	16.142	1377.450	1035.706
293.774	16.189	1375.973	1034.795
294.789	16.206	1375.393	1034.367
295.803	16.285	1374.305	1033.941
296.818	16.302	1373.470	1033.327
297.833	16.302	1372.764	1032.705
298.847	16.367	1371.593	1032.130
299.862	16.251	1370.895	1030.807
300.876	16.338	1369.471	1030.173
301.891	16.266	1369.029	1029.308
302.906	16.400	1368.048	1029.297
303.920	16.446	1367.240	1028.878
304.935	16.413	1366.993	1028.404
305.949	16.383	1365.960	1027.353
306.964	16.517	1364.873	1027.259
307.979	16.590	1363.981	1026.936
308.993	16.485	1363.238	1025.647
310.008	16.557	1362.103	1025.144
311.022	16.580	1361.155	1024.478
312.037	16.513	1360.659	1023.606
313.052	16.660	1359.364	1023.429
314.066	16.645	1358.012	1022.233
315.081	16.687	1356.961	1021.605
316.095	16.600	1356.264	1020.466
317.110	16.519	1355.145	1019.044
318.125	16.570	1354.175	1018.534
319.139	16.534	1353.826	1017.965
320.154	16.574	1352.545	1017.150
321.168	16.563	1351.588	1016.276
322.183	16.569	1350.027	1015.046
323.197	16.659	1349.022	1014.742
324.212	16.569	1348.890	1014.012
325.227	16.548	1348.116	1013.217
326.241	16.591	1347.236	1012.722
327.256	16.608	1346.378	1012.088
328.270	16.623	1345.421	1011.367
329.285	16.704	1344.071	1010.750
330.300	16.586	1343.727	1009.696
331.314	16.573	1343.020	1008.999
332.329	16.736	1341.451	1008.701
333.343	16.652	1341.142	1007.878
334.358	16.709	1339.920	1007.212
335.373	16.750	1339.157	1006.791
336.387	16.782	1338.433	1006.350
337.402	16.808	1337.555	1005.751
338.416	16.734	1337.133	1004.906
339.431	16.868	1336.560	1005.184
340.446	16.862	1335.756	1004.452
341.460	16.946	1334.074	1003.600
342.475	16.984	1333.509	1003.305
343.489	16.960	1332.589	1002.383
344.504	17.010	1331.684	1001.908
345.519	17.051	1330.864	1001.446
346.533	17.036	1329.771	1000.446
347.548	17.021	1329.123	999.783
348.562	17.079	1328.210	999.347
349.577	17.139	1327.388	998.996
350.592	17.097	1326.893	998.288
351.606	17.097	1325.633	997.250
352.621	16.999	1325.162	996.232
353.635	17.194	1323.487	996.032
354.650	17.173	1322.701	995.225
355.665	17.066	1322.175	994.117
356.679	17.156	1320.969	993.650
357.694	17.132	1319.869	992.595
358.708	17.119	1318.658	991.520
359.723	17.090	1317.805	990.618
360.738	17.117	1316.758	989.905
361.752	17.091	1316.078	989.151
362.767	17.297	1314.750	989.263
363.781	17.217	1313.826	988.020
364.796	17.109	1313.542	987.089
365.810	17.126	1312.884	986.607
366.825	17.334	1311.745	986.872
367.840	17.370	1310.927	986.374
368.854	17.307	1310.208	985.381
369.869	17.484	1309.398	985.714
370.883	17.371	1308.966	984.645
371.898	17.375	1308.545	984.264
372.913	17.457	1307.958	984.207
373.927	17.467	1306.249	982.894
374.942	17.480	1306.100	982.772
375.956	17.445	1305.204	981.809
376.971	17.474	1304.311	981.217
377.986	17.431	1303.897	980.567
379.000	17.481	1302.408	979.651
380.015	17.572	1301.696	979.552
381.029	17.585	1300.908	978.945
382.044	17.530	1300.286	978.079
383.059	17.593	1299.947	978.099
384.073	17.660	1299.043	977.713
385.088	17.652	1298.304	977.023
386.102	17.668	1298.036	976.828
387.117	17.710	1297.024	976.220
388.132	17.720	1296.012	975.431
389.146	17.733	1295.026	974.676
390.161	17.616	1294.607	973.606
391.175	17.702	1293.865	973.451
392.190	17.654	1292.990	972.437
393.205	17.649	1292.250	971.764
394.219	17.718	1291.266	971.332
395.234	17.803	1290.057	970.819
396.248	17.773	1288.679	969.523
397.263	17.788	1287.434	968.589
398.278	17.822	1285.737	967.419
399.292	17.772	1285.022	966.511
400.307	17.795	1284.138	965.889
401.321	17.664	1283.159	964.328
402.336	17.743	1282.157	963.939
403.350	17.785	1281.080	963.277
404.365	17.871	1280.059	962.913
405.380	17.802	1279.402	961.942
406.394	17.836	1278.601	961.446
407.409	17.921	1278.213	961.548
408.423	17.866	1277.449	960.580
409.438	17.944	1276.575	960.278
410.453	18.027	1275.717	960.011
411.467	17.991	1275.093	959.253
412.482	18.055	1274.832	959.335
413.496	18.103	1273.714	958.675
414.511	18.138	1273.259	958.444
415.526	18.071	1272.619	957.502
416.540	18.112	1271.775	957.016
417.555	18.122	1271.102	956.476
418.569	18.199	1270.356	956.262
419.584	18.150	1270.044	955.671
420.599	18.194	1269.158	955.161
421.613	99.738	1355.215	1480.096
422.628	97.232	1367.694	1480.203
