DTS Sentinel unit serial number:	SN413079Multiplexer serial number:	ORYXHardware model number:	OX4-SRSoftware version number:	ORYX F/W v4.00 Oryx Data Collector v3.7.2.0data status	okinstallation	princeton_trtdifferential loss correction	single-endedforward channel	channel 4reverse channel	N/Adate	2019/09/15time	18:25:35forward acquisition time	60.00reverse acquisition time	0.00gamma	496.2192k internal	0.2276k external	0.2276temperature offset calibration	0.9918default loss term (dB/km)	0.3790temperature slope calibration	1.0000multiplexer offset coefficient	1.0000multiplexer slope coefficient	1.0000fibre end	0.00T internal ref (°C)	44.25T ext. ref 1 (°C)	6.69T ext. ref 2 (°C)	38.01length (m)	temperature (°C)	Stokes	anti-Stokes-747.200	-200.000	-0.064	-0.317
-746.185	-8.051	0.223	0.155
-745.171	-145.638	-0.118	-0.011
-744.156	128.413	0.090	-0.118
-743.142	-102.123	-0.089	0.022
-742.127	-80.489	-0.211	-0.072
-741.112	215.185	0.102	0.167
-740.098	272.959	0.128	0.233
-739.083	34.724	-0.263	-0.237
-738.069	190.794	-0.265	0.410
-737.054	-200.000	-0.007	-0.108
-736.039	800.000	-0.077	0.303
-735.025	800.000	0.107	0.349
-734.010	101.325	0.216	0.259
-732.996	800.000	-0.028	0.107
-731.981	-148.730	0.047	-0.004
-730.966	800.000	0.059	0.176
-729.952	-145.014	-0.537	-0.050
-728.937	-13.083	0.132	-0.088
-727.923	-200.000	-0.022	-0.102
-726.908	-0.695	0.155	0.113
-725.894	24.011	-0.166	-0.141
-724.879	800.000	0.072	0.258
-723.864	269.082	-0.070	-0.126
-722.850	533.937	-0.083	-0.202
-721.835	-14.409	-0.018	0.012
-720.821	197.746	-0.144	-0.226
-719.806	-182.486	0.364	0.007
-718.791	-139.011	-0.124	0.014
-717.777	147.390	-0.104	0.144
-716.762	589.088	-0.083	-0.212
-715.748	-37.193	0.223	0.123
-714.733	-140.162	-0.069	-0.007
-713.718	-105.222	-0.219	0.051
-712.704	-31.501	0.083	0.048
-711.689	242.702	0.097	-0.167
-710.675	-116.367	0.202	0.038
-709.660	141.849	0.166	-0.226
-708.645	103.976	-0.096	0.116
-707.631	324.797	-0.119	0.233
-706.616	-125.790	-0.324	-0.050
-705.602	-22.871	0.152	0.094
-704.587	-58.892	0.156	-0.069
-703.572	800.000	0.016	0.060
-702.558	278.538	0.088	-0.162
-701.543	-200.000	0.030	0.163
-700.529	-128.802	0.141	0.020
-699.514	-17.447	-0.276	-0.178
-698.499	736.635	-0.109	0.300
-697.485	532.910	0.039	0.096
-696.470	-98.977	-0.223	0.058
-695.456	478.567	0.061	0.142
-694.441	-54.746	0.178	-0.083
-693.426	800.000	-0.050	0.187
-692.412	-129.926	-0.276	0.039
-691.397	-28.934	-0.434	-0.257
-690.383	196.028	-0.124	-0.194
-689.368	513.121	0.160	-0.383
-688.354	-32.742	-0.193	0.110
-687.339	-23.975	0.344	0.211
-686.324	800.000	-0.025	-0.078
-685.310	83.259	0.158	-0.176
-684.295	-138.600	-0.114	-0.013
-683.281	-58.924	0.148	0.066
-682.266	800.000	-0.023	0.090
-681.251	-200.000	0.052	0.285
-680.237	-121.548	-0.207	-0.035
-679.222	-172.286	0.597	-0.020
-678.208	-131.680	-0.248	-0.033
-677.193	-43.905	0.242	0.125
-676.178	-103.767	-0.295	0.071
-675.164	-66.860	0.308	0.125
-674.149	-87.977	-0.168	0.052
-673.135	110.040	0.060	-0.074
-672.120	106.190	-0.227	-0.276
-671.105	-200.000	-0.031	-0.167
-670.091	234.210	-0.013	-0.021
-669.076	483.067	0.164	0.382
-668.062	92.338	-0.161	-0.186
-667.047	-200.000	0.011	-0.065
-666.032	-200.000	-0.017	-0.137
-665.018	-105.136	0.173	0.041
-664.003	-200.000	0.225	-0.001
-662.989	-200.000	0.069	0.467
-661.974	122.116	-0.321	0.411
-660.959	800.000	0.020	-0.073
-659.945	-139.253	-0.035	0.004
-658.930	44.780	-0.188	-0.178
-657.916	-122.506	0.031	-0.005
-656.901	-111.162	-0.248	0.052
-655.886	81.686	-0.121	-0.134
-654.872	-12.072	0.237	-0.160
-653.857	232.643	-0.157	-0.265
-652.843	-16.496	-0.124	0.081
-651.828	-200.000	0.020	0.145
-650.814	31.100	-0.074	0.065
-649.799	44.802	-0.099	-0.094
-648.784	219.474	0.111	0.183
-647.770	126.687	-0.016	-0.021
-646.755	-102.289	-0.259	-0.064
-645.741	800.000	-0.036	-0.103
-644.726	-2.119	-0.043	0.031
-643.711	-67.967	0.054	-0.022
-642.697	-1.457	0.216	0.156
-641.682	-200.000	0.090	0.000
-640.668	-153.622	-0.152	-0.011
-639.653	-15.166	-0.147	-0.097
-638.638	207.736	-0.076	-0.121
-637.624	-200.000	-0.033	0.152
-636.609	-200.000	-0.003	-0.148
-635.595	-200.000	-0.063	-0.315
-634.580	169.756	0.058	0.085
-633.565	-8.700	-0.260	-0.179
-632.551	-146.847	0.329	-0.029
-631.536	-200.000	-0.014	0.158
-630.522	765.469	-0.061	0.169
-629.507	-52.858	-0.139	-0.066
-628.492	-88.846	-0.372	0.113
-627.478	21.789	-0.202	0.169
-626.463	-200.000	0.017	0.087
-625.449	109.345	0.125	0.154
-624.434	-152.815	-0.310	-0.023
-623.419	11.501	-0.276	0.217
-622.405	-200.000	0.012	-0.126
-621.390	-44.992	0.334	-0.170
-620.376	-73.842	0.080	0.030
-619.361	-200.000	-0.012	0.094
-618.346	-110.125	0.184	-0.039
-617.332	204.876	-0.224	-0.356
-616.317	800.000	-0.165	-0.514
-615.303	-54.500	0.100	0.046
-614.288	-200.000	0.014	-0.066
-613.273	-67.727	0.138	-0.055
-612.259	268.844	0.139	-0.250
-611.244	-57.542	0.060	0.027
-610.230	-13.094	0.230	0.153
-609.215	-200.000	-0.059	-0.353
-608.201	-75.494	0.126	0.046
-607.186	-125.189	-0.517	0.081
-606.171	-200.000	-0.080	0.391
-605.157	-65.641	0.096	0.040
-604.142	415.682	0.120	-0.262
-603.128	536.993	0.100	-0.243
-602.113	9.140	-0.341	0.264
-601.098	-130.986	-0.302	-0.041
-600.084	84.224	0.217	0.244
-599.069	-200.000	0.005	-0.065
-598.055	191.820	0.162	-0.250
-597.040	-200.000	0.036	-0.187
-596.025	48.757	0.102	-0.098
-595.011	-146.389	0.186	0.017
-593.996	-87.822	0.189	-0.058
-592.982	-59.728	0.155	-0.068
-591.967	-200.000	-0.010	-0.321
-590.952	334.340	0.117	0.232
-589.938	-122.346	0.323	-0.054
-588.923	-69.780	-0.141	0.055
-587.909	-89.550	-0.279	0.084
-586.894	-137.312	0.252	0.029
-585.879	-131.384	-0.193	-0.026
-584.865	-200.000	0.023	-0.125
-583.850	-9.277	0.216	-0.148
-582.836	-122.459	0.114	0.019
-581.821	-200.000	0.003	0.014
-580.806	-200.000	-0.011	0.088
-579.792	25.156	-0.246	-0.209
-578.777	-37.757	0.242	0.132
-577.763	800.000	0.007	0.027
-576.748	-200.000	-0.021	0.308
-575.733	-136.247	-0.236	0.028
-574.719	-200.000	-0.002	-0.226
-573.704	84.145	0.089	-0.100
-572.690	-25.864	0.193	-0.117
-571.675	-125.641	0.152	0.024
-570.661	-63.754	-0.073	-0.031
-569.646	-104.762	0.090	-0.021
-568.631	240.930	0.124	-0.212
-567.617	-200.000	0.006	-0.204
-566.602	100.765	-0.074	-0.088
-565.588	345.989	0.029	-0.058
-564.573	-164.730	0.146	0.007
-563.558	169.612	0.033	0.049
-562.544	23.452	0.167	0.140
-561.529	-95.004	0.214	0.059
-560.515	140.901	0.116	0.157
-559.500	466.194	0.129	-0.295
-558.485	-89.596	0.169	0.051
-557.471	-200.000	-0.006	-0.144
-556.456	4.810	0.083	0.063
-555.442	-59.199	0.051	0.023
-554.427	-200.000	0.017	-0.120
-553.412	63.137	0.079	-0.081
-552.398	-159.677	0.216	0.012
-551.383	-148.741	0.247	-0.021
-550.369	73.691	-0.290	0.311
-549.354	800.000	-0.073	-0.272
-548.339	-148.632	-0.181	-0.015
-547.325	-200.000	0.008	-0.036
-546.310	181.248	0.115	0.173
-545.296	-200.000	-0.015	-0.229
-544.281	-36.447	-0.176	-0.097
-543.266	157.880	0.071	-0.100
-542.252	-56.856	-0.185	0.084
-541.237	800.000	0.087	0.374
-540.223	-194.565	0.101	-0.001
-539.208	137.518	-0.144	0.193
-538.193	142.201	-0.127	0.173
-537.179	-49.229	-0.214	-0.105
-536.164	-200.000	-0.001	-0.079
-535.150	698.530	0.124	0.334
-534.135	-56.657	-0.084	0.038
-533.121	162.669	-0.055	0.080
-532.106	-102.568	0.186	0.045
-531.091	102.571	-0.033	-0.039
-530.077	557.818	-0.021	0.051
-529.062	800.000	0.136	0.465
-528.048	-59.024	-0.071	-0.031
-527.033	316.461	-0.086	-0.166
-526.018	800.000	0.019	0.073
-525.004	-200.000	-0.023	-0.272
-523.989	-125.941	-0.300	0.046
-522.975	800.000	0.016	-0.050
-521.960	56.258	0.023	-0.023
-520.945	-19.231	-0.158	0.100
-519.931	235.163	-0.130	0.219
-518.916	-200.000	0.008	0.377
-517.902	-182.319	0.066	0.001
-516.887	-84.332	-0.245	-0.079
-515.872	22.963	-0.116	0.097
-514.858	-200.000	-0.053	-0.429
-513.843	20.967	-0.248	-0.206
-512.829	421.945	-0.108	-0.236
-511.814	0.090	-0.095	0.069
-510.799	-39.929	0.211	0.112
-509.785	-149.653	0.255	-0.021
-508.770	27.962	-0.243	-0.209
-507.756	-70.752	0.106	-0.041
-506.741	-123.002	-0.259	-0.043
-505.726	-10.705	0.263	0.178
-504.712	191.578	0.114	0.176
-503.697	-200.000	0.028	0.129
-502.683	88.665	0.246	0.279
-501.668	-200.000	0.009	-0.197
-500.653	28.522	-0.134	0.116
-499.639	59.083	-0.260	0.261
-498.624	-200.000	0.003	-0.176
-497.610	-93.354	-0.110	0.031
-496.595	134.261	0.135	0.178
-495.581	30.375	0.168	0.147
-494.566	-146.265	0.350	0.031
-493.551	-100.891	-0.105	0.026
-492.537	20.792	0.154	0.127
-491.522	-38.633	-0.142	0.076
-490.508	17.958	0.036	-0.029
-489.493	-96.882	-0.173	0.046
-488.478	-99.568	-0.298	-0.077
-487.464	-86.116	-0.335	-0.106
-486.449	671.606	-0.021	0.054
-485.435	-125.577	0.377	-0.058
-484.420	276.446	-0.149	-0.270
-483.405	-200.000	-0.039	0.179
-482.391	800.000	-0.206	0.601
-481.376	540.745	-0.028	0.069
-480.362	-200.000	0.007	-0.198
-479.347	495.166	-0.030	0.071
-478.332	217.318	-0.116	-0.189
-477.318	531.997	-0.017	-0.041
-476.303	-7.696	-0.126	0.087
-475.289	185.184	-0.038	-0.057
-474.274	-182.329	0.106	0.002
-473.259	381.670	-0.145	0.304
-472.245	-36.273	-0.259	-0.142
-471.230	-98.269	-0.314	0.082
-470.216	180.592	-0.021	0.031
-469.201	46.274	-0.070	-0.066
-468.186	-66.422	0.058	-0.023
-467.172	534.651	0.071	-0.172
-466.157	-200.000	0.031	0.159
-465.143	58.886	-0.071	0.071
-464.128	112.805	0.027	0.033
-463.113	-150.410	-0.061	0.005
-462.099	120.826	-0.354	-0.449
-461.084	562.362	0.160	0.395
-460.070	-76.927	0.234	0.084
-459.055	197.374	0.109	0.169
-458.040	447.789	0.043	0.096
-457.026	-89.228	-0.423	0.127
-456.011	-171.288	0.189	0.006
-454.997	-40.276	-0.205	0.109
-453.982	428.581	0.049	-0.109
-452.968	-200.000	0.022	0.494
-451.953	-200.000	0.012	0.106
-450.938	536.960	0.091	-0.220
-449.924	166.885	0.104	0.150
-448.909	294.553	0.076	0.141
-447.895	18.100	-0.011	0.009
-446.880	-82.617	-0.353	-0.117
-445.865	170.871	0.234	0.342
-444.851	27.769	0.114	-0.098
-443.836	-144.447	-0.432	0.041
-442.822	207.959	0.106	0.169
-441.807	55.579	0.137	0.135
-440.792	-200.000	-0.019	-0.161
-439.778	-12.064	-0.167	0.112
-438.763	110.207	-0.187	0.229
-437.749	136.324	0.206	-0.274
-436.734	171.977	-0.161	0.236
-435.719	458.738	-0.038	-0.087
-434.705	-34.536	-0.046	-0.026
-433.690	-200.000	-0.047	-0.243
-432.676	-104.671	-0.083	0.019
-431.661	-168.563	0.155	0.006
-430.646	280.376	-0.012	-0.023
-429.632	-36.216	0.105	0.058
-428.617	-200.000	0.042	-0.224
-427.603	-200.000	-0.007	-0.222
-426.588	-200.000	0.022	-0.120
-425.573	-99.138	0.057	-0.015
-424.559	-200.000	0.332	-0.001
-423.544	-140.674	0.300	-0.032
-422.530	54.306	-0.058	0.057
-421.515	-154.363	-0.122	-0.008
-420.500	-200.000	-0.041	-0.270
-419.486	282.257	0.186	0.339
-418.471	-25.964	-0.291	-0.174
-417.457	20.374	-0.155	0.127
-416.442	-200.000	0.012	-0.066
-415.428	-200.000	0.009	-0.043
-414.413	-98.638	0.020	0.005
-413.398	-200.000	-0.012	0.178
-412.384	-52.719	0.149	-0.070
-411.369	8.052	0.061	0.047
-410.355	69.673	0.208	0.218
-409.340	257.177	-0.076	-0.133
-408.325	800.000	0.047	0.172
-407.311	-114.311	0.298	-0.058
-406.296	3.255	0.080	-0.059
-405.282	-200.000	0.053	0.274
-404.267	-172.107	0.296	0.010
-403.252	17.103	-0.175	0.141
-402.238	-200.000	-0.042	-0.256
-401.223	23.427	-0.156	-0.131
-400.209	104.404	0.037	-0.044
-399.194	57.223	0.182	0.181
-398.179	-53.198	-0.110	0.051
-397.165	-200.000	0.022	-0.194
-396.150	64.009	0.156	-0.160
-395.136	13.277	0.307	-0.242
-394.121	800.000	-0.045	0.182
-393.106	284.217	-0.070	-0.128
-392.092	800.000	-0.043	-0.151
-391.077	4.510	-0.106	0.079
-390.063	160.839	-0.031	0.045
-389.048	800.000	-0.022	0.075
-388.033	-94.471	-0.365	0.101
-387.019	-79.943	-0.174	0.060
-386.004	-185.171	-0.276	0.004
-384.990	-200.000	-0.047	-0.250
-383.975	655.865	-0.104	0.272
-382.960	-200.000	-0.042	0.255
-381.946	32.814	0.121	-0.106
-380.931	-38.161	-0.241	-0.130
-379.917	-98.130	0.359	-0.094
-378.902	12.269	0.131	-0.103
-377.888	-65.699	0.195	0.079
-376.873	188.661	0.186	0.283
-375.858	21.722	0.147	-0.122
-374.844	800.000	0.129	-0.379
-373.829	-60.658	0.095	0.041
-372.815	112.725	0.134	0.164
-371.800	8.614	-0.118	0.091
-370.785	61.518	0.078	0.079
-369.771	57.399	0.077	-0.076
-368.756	-132.468	0.181	-0.024
-367.742	-17.676	-0.113	-0.072
-366.727	398.824	-0.105	0.223
-365.712	-20.582	0.281	-0.175
-364.698	115.399	0.296	0.368
-363.683	-27.207	0.264	0.156
-362.669	182.401	0.156	0.233
-361.654	800.000	-0.047	0.185
-360.639	43.609	-0.132	0.123
-359.625	-158.187	-0.361	-0.021
-358.610	-200.000	0.006	-0.404
-357.596	-200.000	-0.040	-0.281
-356.581	222.927	-0.121	-0.198
-355.566	-79.125	-0.243	0.084
-354.552	288.881	-0.094	0.173
-353.537	-89.877	-0.237	-0.070
-352.523	-200.000	0.029	-0.286
-351.508	-200.000	0.008	-0.041
-350.493	46.351	-0.140	-0.132
-349.479	-73.109	-0.155	0.058
-348.464	-200.000	0.035	-0.200
-347.450	-111.902	-0.151	0.031
-346.435	121.360	0.173	0.219
-345.420	-92.067	-0.079	-0.023
-344.406	320.200	0.108	0.208
-343.391	-122.136	-0.306	-0.051
-342.377	-68.596	0.345	-0.136
-341.362	316.319	-0.122	0.234
-340.348	122.979	0.189	0.241
-339.333	135.279	0.164	-0.217
-338.318	-200.000	-0.048	-0.236
-337.304	257.431	0.111	-0.193
-336.289	-161.807	0.157	0.008
-335.275	237.910	0.263	-0.443
-334.260	-144.745	-0.274	0.026
-333.245	46.136	0.069	0.065
-332.231	189.099	0.224	0.341
-331.216	372.719	0.090	-0.185
-330.202	-200.000	-0.044	-0.513
-329.187	-45.978	0.119	0.059
-328.172	-33.661	0.113	0.063
-327.158	336.960	0.004	0.008
-326.143	-67.185	-0.252	0.101
-325.129	504.147	0.074	-0.173
-324.114	369.626	-0.250	-0.512
-323.099	49.875	-0.124	-0.119
-322.085	748.260	-0.117	-0.320
-321.070	-200.000	-0.075	-0.428
-320.056	3.334	0.084	0.062
-319.041	800.000	0.113	0.323
-318.026	231.631	-0.133	0.220
-317.012	800.000	-0.065	-0.197
-315.997	-200.000	-0.024	0.198
-314.983	-32.532	0.090	-0.051
-313.968	-200.000	-0.051	-0.277
-312.953	-149.233	0.275	-0.022
-311.939	-200.000	-0.008	-0.063
-310.924	160.165	-0.260	-0.367
-309.910	-200.000	-0.033	0.168
-308.895	800.000	-0.053	0.202
-307.880	-125.582	0.191	-0.029
-306.866	0.758	0.324	-0.235
-305.851	591.498	-0.207	0.519
-304.837	-200.000	-0.055	0.307
-303.822	-71.230	-0.260	0.099
-302.807	800.000	-0.041	-0.150
-301.793	-87.250	0.086	-0.026
-300.778	-200.000	0.022	-0.146
-299.764	-200.000	-0.071	0.344
-298.749	-200.000	0.058	-0.295
-297.735	-115.951	0.167	0.031
-296.720	-42.187	-0.178	0.092
-295.705	440.243	-0.120	-0.265
-294.691	-70.732	0.225	-0.086
-293.676	-45.055	-0.300	-0.151
-292.662	-11.184	-0.317	-0.212
-291.647	-105.952	-0.106	-0.024
-290.632	35.173	-0.320	0.284
-289.618	-122.303	-0.542	-0.090
-288.603	800.000	-0.068	0.259
-287.589	-200.000	0.001	0.311
-286.574	-58.953	0.246	0.108
-285.559	-152.591	-0.147	0.011
-284.545	55.363	-0.021	0.020
-283.530	83.541	-0.167	0.184
-282.516	65.952	-0.239	0.245
-281.501	-130.498	-0.352	-0.048
-280.486	490.198	-0.079	-0.184
-279.472	561.238	-0.144	-0.353
-278.457	-200.000	-0.002	0.123
-277.443	800.000	0.065	0.198
-276.428	308.538	0.040	0.076
-275.413	410.298	0.053	0.115
-274.399	800.000	0.083	0.250
-273.384	-157.647	0.357	-0.022
-272.370	-69.389	-0.139	-0.054
-271.355	-200.000	0.016	0.088
-270.340	800.000	0.016	-0.064
-269.326	554.538	0.116	0.283
-268.311	-200.000	0.013	-0.197
-267.297	-8.535	-0.207	0.141
-266.282	-16.556	0.248	0.159
-265.267	370.691	0.135	-0.277
-264.253	48.088	0.036	-0.034
-263.238	-62.997	-0.334	-0.140
-262.224	178.960	-0.127	-0.188
-261.209	-79.948	-0.402	-0.137
-260.195	-98.848	0.442	-0.114
-259.180	800.000	0.056	-0.244
-258.165	256.387	-0.049	-0.085
-257.151	-177.956	-0.372	0.009
-256.136	800.000	-0.072	0.285
-255.122	-153.002	0.244	-0.017
-254.107	119.276	0.169	0.212
-253.092	-157.588	0.019	0.001
-252.078	445.255	0.075	0.166
-251.063	-200.000	0.002	-0.062
-250.049	800.000	0.101	-0.329
-249.034	181.552	-0.297	-0.442
-248.019	117.551	0.039	0.049
-247.005	-77.946	0.277	0.096
-245.990	523.747	-0.087	-0.208
-244.976	44.958	0.158	-0.147
-243.961	-200.000	-0.061	0.287
-242.946	241.701	0.136	0.230
-241.932	124.327	-0.208	0.264
-240.917	-19.040	0.141	-0.089
-239.903	-197.757	0.351	-0.002
-238.888	18.029	0.191	-0.154
-237.873	800.000	0.094	0.289
-236.859	-118.871	0.212	0.038
-235.844	-33.560	-0.227	-0.126
-234.830	-200.000	0.021	-0.342
-233.815	27.831	0.486	-0.414
-232.800	6.344	-0.295	0.222
-231.786	163.205	-0.090	0.127
-230.771	-23.381	0.219	0.133
-229.757	-2.898	0.062	0.044
-228.742	-33.917	0.220	-0.122
-227.727	-124.498	-0.198	0.031
-226.713	-70.219	0.166	-0.064
-225.698	-190.965	-0.259	0.003
-224.684	95.723	-0.098	0.112
-223.669	-59.052	0.234	0.102
-222.655	-200.000	0.036	-0.223
-221.640	-60.422	-0.207	0.089
-220.625	132.893	-0.274	0.357
-219.611	-78.558	0.263	0.091
-218.596	-65.977	-0.374	-0.151
-217.582	298.698	0.220	0.408
-216.567	800.000	-0.074	0.269
-215.552	-200.000	-0.003	0.137
-214.538	-200.000	-0.022	0.154
-213.523	77.298	0.382	-0.410
-212.509	222.480	-0.102	0.166
-211.494	-16.156	0.180	-0.116
-210.479	-200.000	0.002	0.125
-209.465	800.000	0.033	-0.113
-208.450	402.314	-0.063	0.133
-207.436	-200.000	-0.028	-0.216
-206.421	800.000	0.060	-0.192
-205.406	31.498	-0.103	0.089
-204.392	9.660	0.256	0.196
-203.377	800.000	-0.023	-0.070
-202.363	800.000	0.008	-0.030
-201.348	-125.333	0.185	-0.029
-200.333	61.684	0.116	0.117
-199.319	-200.000	0.077	0.452
-198.304	122.608	-0.231	-0.291
-197.290	159.488	-0.188	-0.264
-196.275	-185.036	-0.118	0.002
-195.260	-89.502	-0.037	-0.011
-194.246	-142.407	-0.105	-0.010
-193.231	-200.000	0.014	0.145
-192.217	800.000	0.068	-0.212
-191.202	485.971	0.038	0.087
-190.187	-200.000	-0.040	0.257
-189.173	800.000	-0.080	0.247
-188.158	-200.000	-0.071	0.371
-187.144	66.913	0.272	-0.279
-186.129	189.998	-0.028	0.042
-185.114	-78.910	-0.206	-0.071
-184.100	68.527	0.362	-0.375
-183.085	800.000	0.085	-0.267
-182.071	-200.000	0.005	0.144
-181.056	-200.000	-0.027	-0.168
-180.042	2.667	-0.157	0.115
-179.027	184.857	0.138	-0.206
-178.012	-9.808	-0.123	-0.083
-176.998	-144.597	0.138	-0.013
-175.983	95.371	0.111	-0.127
-174.969	-149.306	-0.156	0.013
-173.954	-92.614	0.404	0.114
-172.939	-157.818	-0.281	0.017
-171.925	-22.211	0.158	0.097
-170.910	629.172	-0.071	0.181
-169.896	289.571	0.055	0.100
-168.881	420.576	0.304	-0.658
-167.866	-200.000	-0.015	-0.225
-166.852	16.147	0.098	0.078
-165.837	-16.598	0.194	0.124
-164.823	-66.189	-0.073	0.029
-163.808	10.782	-0.107	0.083
-162.793	-200.000	-0.038	0.226
-161.779	-200.000	0.004	-0.087
-160.764	632.284	0.079	-0.202
-159.750	-31.613	0.128	0.073
-158.735	231.405	0.155	0.255
-157.720	-91.560	-0.106	-0.030
-156.706	-145.140	0.179	0.016
-155.691	800.000	0.048	-0.136
-154.677	61.598	-0.075	-0.075
-153.662	-151.033	-0.208	-0.016
-152.647	-55.618	0.117	-0.053
-151.633	800.000	-0.079	0.300
-150.618	-200.000	-0.019	0.242
-149.604	-200.000	-0.037	0.172
-148.589	800.000	0.041	-0.134
-147.574	176.358	0.237	-0.347
-146.560	-116.390	-0.396	-0.074
-145.545	17.389	-0.157	-0.126
-144.531	439.895	-0.075	0.166
-143.516	-200.000	-0.024	0.245
-142.502	76.111	-0.057	-0.061
-141.487	800.000	-0.045	0.149
-140.472	-200.000	-0.009	-0.197
-139.458	-200.000	-0.042	-0.368
-138.443	-44.913	-0.177	-0.089
-137.429	648.320	-0.040	-0.103
-136.414	69.351	-0.092	-0.095
-135.399	84.998	0.155	-0.171
-134.385	23.221	-0.172	-0.142
-133.370	-200.000	0.013	-0.088
-132.356	46.176	0.248	0.231
-131.341	-24.180	-0.199	-0.119
-130.326	-60.808	-0.142	0.060
-129.312	-62.621	0.104	0.043
-128.297	318.721	0.222	0.423
-127.283	-200.000	-0.079	0.403
-126.268	-102.494	0.115	0.028
-125.253	-123.795	0.327	-0.052
-124.239	-200.000	-0.029	-0.219
-123.224	-62.624	0.181	0.076
-122.210	-200.000	0.008	-0.185
-121.195	-15.100	0.159	-0.102
-120.180	800.000	0.064	0.234
-119.166	605.856	0.095	0.238
-118.151	-126.385	0.188	0.028
-117.137	775.448	0.007	0.020
-116.122	339.089	0.153	-0.300
-115.107	-95.277	-0.427	0.116
-114.093	800.000	-0.094	0.361
-113.078	-58.281	0.345	0.151
-112.064	-200.000	-0.001	-0.023
-111.049	-117.384	0.325	0.059
-110.034	-15.766	0.197	0.126
-109.020	-32.568	0.174	0.097
-108.005	247.749	-0.145	0.246
-106.991	800.000	0.108	-0.346
-105.976	-119.566	-0.295	-0.051
-104.962	-21.125	-0.047	0.029
-103.947	-200.000	0.001	-0.208
-102.932	-57.593	0.049	0.021
-101.918	-88.860	0.288	-0.086
-100.903	209.324	-0.075	0.119
-99.889	800.000	-0.002	0.004
-98.874	-136.870	0.151	0.017
-97.859	72.133	0.044	0.046
-96.845	-200.000	-0.022	0.133
-95.830	2.530	0.070	-0.051
-94.816	-70.335	-0.191	-0.073
-93.801	-64.534	0.224	0.091
-92.786	800.000	-0.038	-0.134
-91.772	640.223	0.155	0.395
-90.757	300.953	0.150	0.278
-89.743	-56.777	-0.158	0.070
-88.728	-89.508	-0.276	-0.081
-87.713	476.461	0.059	0.133
-86.699	-47.384	-0.177	0.087
-85.684	290.602	0.214	0.390
-84.670	26.596	0.169	-0.142
-83.655	-97.320	0.350	0.091
-82.640	476.818	-0.037	0.085
-81.626	-142.700	0.188	-0.018
-80.611	42.782	0.203	0.186
-79.597	-161.356	-0.098	0.005
-78.582	540.025	0.064	0.152
-77.567	-200.000	-0.001	0.129
-76.553	290.556	-0.060	-0.110
-75.538	-87.144	0.296	0.090
-74.524	543.302	-0.031	0.073
-73.509	425.176	0.039	-0.084
-72.494	-114.561	-0.452	-0.087
-71.480	800.000	-0.025	-0.085
-70.465	-62.936	0.182	0.075
-69.451	153.263	0.142	-0.195
-68.436	-94.592	-0.244	-0.067
-67.422	164.542	0.068	0.096
-66.407	274.276	0.118	0.209
-65.392	16.881	0.347	-0.276
-64.378	-88.273	0.026	0.008
-63.363	-40.658	0.365	-0.190
-62.349	-53.123	-0.017	0.008
-61.334	-28.291	-0.920	-0.533
-60.319	235.886	0.189	0.313
-59.305	800.000	-0.148	-0.626
-58.290	-24.076	0.433	0.260
-57.276	-200.000	0.229	1.542
-56.261	-200.000	71.817	540.731
-55.246	589.410	1265.051	3128.820
-54.232	142.860	2499.774	3334.037
-53.217	111.594	2371.577	2870.734
-52.203	51.677	2113.357	2016.468
-51.188	46.459	2020.339	1880.157
-50.173	44.525	2001.432	1844.965
-49.159	56.185	2036.270	1983.734
-48.144	62.114	2057.181	2058.139
-47.130	47.203	2022.241	1888.427
-46.115	44.286	2011.993	1852.228
-45.100	44.220	2008.682	1848.501
-44.086	44.205	2006.691	1846.460
-43.071	44.201	2003.800	1843.696
-42.057	44.129	2001.832	1841.154
-41.042	44.159	1999.883	1839.563
-40.027	44.183	1998.323	1838.268
-39.013	44.208	1996.027	1836.316
-37.998	44.143	1994.232	1833.998
-36.984	44.214	1992.457	1832.931
-35.969	44.265	1990.520	1831.541
-34.954	44.155	1989.287	1829.345
-33.940	44.315	1987.144	1828.736
-32.925	44.290	1985.086	1826.545
-31.911	44.301	1983.528	1825.137
-30.896	44.230	1982.574	1823.550
-29.881	44.298	1980.458	1822.149
-28.867	44.304	1978.985	1820.769
-27.852	44.261	1976.999	1818.488
-26.838	44.298	1974.800	1816.720
-25.823	44.323	1972.851	1815.078
-24.809	44.302	1971.254	1813.350
-23.794	44.310	1969.608	1811.838
-22.779	44.255	1968.246	1810.022
-21.765	44.215	1966.609	1808.090
-20.750	44.321	1964.131	1806.678
-19.736	44.305	1962.880	1805.316
-18.721	44.304	1961.443	1803.916
-17.706	44.182	1960.204	1801.621
-16.692	44.234	1957.976	1799.962
-15.677	44.241	1956.485	1798.582
-14.663	44.198	1955.777	1797.480
-13.648	44.249	1953.971	1796.199
-12.633	44.324	1952.533	1795.465
-11.619	44.262	1951.079	1793.514
-10.604	44.227	1949.833	1791.985
-9.590	44.212	1948.985	1791.007
-8.575	44.245	1946.909	1789.316
-7.560	44.266	1945.677	1788.298
-6.546	44.301	1944.331	1787.295
-5.531	44.212	1943.148	1785.359
-4.517	44.260	1941.559	1784.246
-3.502	44.250	1940.933	1783.512
-2.487	44.232	1939.213	1781.706
-1.473	44.267	1938.400	1781.191
-0.458	44.353	1933.898	1777.738
0.556	41.088	1914.247	1748.312
1.571	35.918	1890.135	1681.135
2.586	29.986	1906.941	1643.483
3.600	27.751	1940.861	1652.349
4.615	26.132	1937.096	1634.354
5.629	20.613	1837.752	1502.846
6.644	11.987	1717.678	1334.561
7.659	7.266	1675.753	1264.280
8.673	6.795	1671.565	1257.265
9.688	6.860	1669.963	1256.467
10.702	6.659	1668.922	1253.975
11.717	6.446	1665.944	1249.930
12.731	6.889	1665.933	1253.324
13.746	12.038	1677.512	1302.954
14.761	17.545	1689.555	1356.162
15.775	17.981	1687.865	1358.158
16.790	16.602	1683.419	1343.513
17.804	15.498	1679.812	1331.762
18.819	14.448	1676.590	1320.780
19.834	13.820	1674.127	1313.750
20.848	13.455	1672.434	1309.423
21.863	13.148	1671.021	1305.772
22.877	12.868	1669.639	1302.365
23.892	12.687	1667.817	1299.396
24.907	12.585	1666.659	1297.580
25.921	12.608	1665.668	1296.875
26.936	12.602	1664.937	1296.138
27.950	12.537	1664.227	1294.961
28.965	12.640	1663.650	1295.211
29.980	12.729	1662.581	1294.961
30.994	12.807	1661.676	1294.757
32.009	12.902	1660.095	1294.152
33.023	12.853	1659.813	1293.435
34.038	12.906	1658.436	1292.663
35.053	12.952	1657.391	1292.098
36.067	12.835	1656.312	1290.228
37.082	12.776	1655.384	1288.921
38.096	12.835	1653.579	1287.867
39.111	12.892	1652.932	1287.693
40.126	12.941	1652.131	1287.336
41.140	12.813	1651.485	1285.719
42.155	12.746	1649.921	1283.870
43.169	12.650	1648.800	1282.137
44.184	12.672	1647.142	1280.905
45.199	12.559	1646.537	1279.439
46.213	12.607	1645.410	1278.826
47.228	12.585	1644.007	1277.448
48.242	12.667	1642.898	1277.112
49.257	12.743	1641.392	1276.418
50.271	12.759	1640.113	1275.433
51.286	12.722	1639.349	1274.443
52.301	12.801	1637.769	1273.711
53.315	12.767	1636.715	1272.513
54.330	12.702	1635.072	1270.624
55.344	12.668	1633.332	1268.898
56.359	12.648	1631.992	1267.593
57.374	12.590	1631.177	1266.400
58.388	12.742	1629.634	1266.258
59.403	12.591	1628.329	1263.972
60.417	12.623	1626.748	1262.877
61.432	12.595	1625.904	1261.899
62.447	12.598	1624.581	1260.779
63.461	12.501	1623.961	1259.445
64.476	12.548	1622.954	1258.914
65.490	12.422	1621.987	1257.089
66.505	12.431	1620.846	1256.162
67.520	12.516	1619.445	1255.612
68.534	12.501	1618.441	1254.609
69.549	12.480	1617.442	1253.564
70.563	12.560	1616.092	1253.012
71.578	12.595	1614.736	1252.116
72.593	12.503	1613.988	1250.731
73.607	12.413	1613.005	1249.169
74.622	12.357	1611.860	1247.751
75.636	12.352	1611.170	1247.064
76.651	12.393	1609.980	1246.349
77.666	12.352	1609.349	1245.433
78.680	12.466	1608.115	1245.239
79.695	12.474	1607.689	1244.859
80.709	12.498	1606.700	1244.163
81.724	12.546	1605.552	1243.523
82.739	12.529	1605.194	1243.007
83.753	12.607	1604.051	1242.606
84.768	12.596	1603.118	1241.689
85.782	12.663	1603.001	1241.993
86.797	12.798	1601.572	1241.793
87.812	12.747	1600.611	1240.550
88.826	12.836	1599.213	1240.030
89.841	12.656	1598.623	1238.106
90.855	12.621	1597.661	1236.992
91.870	12.682	1596.813	1236.685
92.884	12.809	1595.460	1236.478
93.899	12.809	1594.444	1235.583
94.914	12.792	1592.990	1234.220
95.928	12.949	1591.583	1234.198
96.943	12.865	1590.516	1232.629
97.957	12.855	1589.235	1231.452
98.972	12.793	1587.673	1229.674
99.987	12.762	1586.289	1228.261
101.001	12.818	1584.541	1227.218
102.016	12.902	1583.150	1226.655
103.030	12.802	1581.841	1224.788
104.045	12.783	1581.021	1223.905
105.060	12.790	1579.179	1222.424
106.074	12.670	1578.115	1220.603
107.089	12.682	1576.962	1219.691
108.103	12.593	1574.729	1217.193
109.118	12.560	1573.723	1216.064
110.133	12.539	1572.215	1214.640
111.147	12.548	1570.868	1213.556
112.162	12.594	1569.057	1212.386
113.176	12.607	1567.897	1211.478
114.191	12.615	1566.730	1210.529
115.206	12.692	1565.675	1210.173
116.220	12.627	1564.690	1208.828
117.235	12.573	1563.023	1207.039
118.249	12.687	1561.267	1206.414
119.264	12.641	1560.221	1205.158
120.279	12.665	1559.098	1204.357
121.293	12.595	1557.594	1202.582
122.308	12.597	1556.059	1201.307
123.322	12.626	1554.124	1199.917
124.337	12.466	1553.552	1198.198
125.352	12.548	1552.003	1197.497
126.366	12.487	1550.895	1196.091
127.381	12.495	1549.972	1195.334
128.395	12.465	1548.819	1194.117
129.410	12.619	1547.173	1193.862
130.424	12.557	1546.109	1192.489
131.439	12.585	1544.685	1191.487
132.454	12.514	1543.722	1190.125
133.468	12.660	1542.311	1189.985
134.483	12.695	1540.693	1188.883
135.497	12.718	1539.383	1187.935
136.512	12.736	1537.936	1186.845
137.527	12.807	1536.712	1186.303
138.541	12.766	1535.714	1185.137
139.556	12.800	1533.679	1183.703
140.570	12.726	1533.175	1182.679
141.585	12.833	1531.382	1181.956
142.600	12.877	1530.320	1181.347
143.614	12.890	1529.304	1180.552
144.629	13.041	1528.030	1180.549
145.643	13.047	1526.290	1179.140
146.658	13.113	1525.306	1178.745
147.673	12.951	1524.016	1176.486
148.687	12.935	1522.407	1175.032
149.702	12.887	1520.920	1173.435
150.716	12.873	1519.120	1171.841
151.731	12.900	1517.716	1170.849
152.746	12.890	1516.620	1169.829
153.760	12.849	1515.002	1168.189
154.775	12.765	1514.535	1167.126
155.789	12.852	1512.921	1166.395
156.804	12.902	1511.844	1165.820
157.819	12.867	1510.733	1164.613
158.833	13.008	1509.090	1164.237
159.848	12.964	1508.320	1163.228
160.862	13.074	1507.256	1163.083
161.877	13.113	1505.921	1162.218
162.892	13.022	1505.127	1160.868
163.906	12.958	1503.215	1158.836
164.921	12.885	1502.144	1157.395
165.935	12.872	1501.062	1156.368
166.950	12.794	1500.626	1155.383
167.964	12.963	1498.879	1155.119
168.979	12.912	1498.020	1153.999
169.994	12.986	1496.685	1153.386
171.008	12.922	1496.092	1152.381
172.023	12.939	1494.885	1151.470
173.037	13.105	1493.497	1151.456
174.052	13.081	1492.516	1150.432
175.067	13.060	1491.517	1149.410
176.081	13.134	1489.594	1148.344
177.096	12.931	1489.118	1146.461
178.110	12.954	1487.726	1145.451
179.125	12.971	1486.794	1144.746
180.140	13.025	1485.416	1143.960
181.154	13.133	1484.323	1143.767
182.169	13.061	1483.268	1142.354
183.183	13.044	1482.147	1141.273
184.198	13.165	1480.905	1141.048
185.213	13.190	1480.027	1140.445
186.227	13.274	1479.095	1140.203
187.242	13.149	1477.963	1138.367
188.256	13.157	1477.366	1137.866
189.271	13.282	1475.876	1137.478
190.286	13.293	1475.056	1136.818
191.300	13.173	1474.289	1135.301
192.315	13.140	1472.763	1133.800
193.329	12.980	1471.607	1131.715
194.344	12.962	1470.447	1130.595
195.359	12.996	1469.329	1129.868
196.373	13.056	1468.657	1129.666
197.388	13.128	1467.572	1129.226
198.402	13.264	1466.198	1128.997
199.417	13.375	1465.592	1129.189
200.432	13.339	1464.740	1128.183
201.446	13.530	1463.622	1128.521
202.461	13.454	1462.879	1127.332
203.475	13.530	1461.495	1126.688
204.490	13.577	1460.162	1125.879
205.504	13.568	1459.237	1125.001
206.519	13.445	1458.399	1123.423
207.534	13.444	1456.833	1122.113
208.548	13.450	1455.803	1121.256
209.563	13.440	1454.977	1120.453
210.577	13.420	1453.890	1119.380
211.592	13.339	1453.188	1118.196
212.607	13.467	1452.193	1118.197
213.621	13.555	1451.476	1118.138
214.636	13.653	1450.643	1118.060
215.650	13.527	1449.781	1116.446
216.665	13.509	1449.094	1115.699
217.680	13.622	1447.691	1115.282
218.694	13.615	1447.444	1114.941
219.709	13.671	1446.710	1114.653
220.723	13.727	1445.616	1114.092
221.738	13.709	1444.571	1113.067
222.753	13.701	1443.544	1112.125
223.767	13.713	1442.424	1111.239
224.782	13.713	1441.226	1110.217
225.796	13.743	1440.569	1109.820
226.811	13.819	1439.735	1109.586
227.826	13.815	1439.154	1109.013
228.840	13.771	1438.594	1108.186
229.855	13.695	1437.538	1106.768
230.869	13.728	1436.328	1105.957
231.884	13.747	1435.331	1105.218
232.899	13.734	1434.201	1104.166
233.913	13.746	1432.905	1103.149
234.928	13.696	1431.598	1101.714
235.942	13.639	1430.569	1100.446
236.957	13.625	1429.400	1099.360
237.972	13.696	1427.724	1098.440
238.986	13.611	1427.428	1097.555
240.001	13.684	1426.215	1097.009
241.015	13.763	1425.114	1096.584
242.030	13.700	1423.862	1095.106
243.045	13.822	1422.880	1095.059
244.059	13.927	1422.044	1095.014
245.074	13.908	1421.125	1094.083
246.088	13.928	1420.849	1093.908
247.103	13.939	1419.952	1093.192
248.117	13.930	1419.204	1092.461
249.132	14.025	1418.554	1092.489
250.147	14.033	1417.991	1092.008
251.161	14.183	1416.998	1092.132
252.176	14.198	1416.859	1092.029
253.190	14.232	1415.860	1091.381
254.205	14.288	1415.188	1091.134
255.220	14.368	1414.163	1090.773
256.234	14.322	1413.485	1089.852
257.249	14.365	1412.503	1089.278
258.263	14.447	1411.155	1088.677
259.278	14.374	1410.445	1087.556
260.293	14.351	1409.829	1086.838
261.307	14.403	1408.530	1086.082
262.322	14.362	1408.329	1085.562
263.336	14.487	1407.247	1085.442
264.351	14.502	1406.596	1084.943
265.366	14.534	1405.593	1084.281
266.380	14.524	1404.832	1083.536
267.395	14.582	1403.296	1082.630
268.409	14.628	1402.106	1081.917
269.424	14.590	1401.364	1081.001
270.439	14.536	1400.414	1079.823
271.453	14.594	1399.416	1079.333
272.468	14.383	1399.121	1077.645
273.482	14.500	1397.755	1077.252
274.497	14.502	1396.990	1076.581
275.512	14.510	1396.047	1075.814
276.526	14.441	1395.575	1074.905
277.541	14.494	1394.584	1074.387
278.555	14.423	1393.841	1073.263
279.570	14.484	1392.839	1072.793
280.585	14.610	1391.625	1072.568
281.599	14.649	1390.886	1072.161
282.614	14.625	1390.335	1071.486
283.628	14.657	1389.207	1070.723
284.643	14.559	1388.261	1069.271
285.657	14.670	1386.878	1068.825
286.672	14.637	1385.783	1067.676
287.687	14.651	1385.040	1067.098
288.701	14.640	1384.123	1066.226
289.716	14.717	1382.849	1065.642
290.730	14.679	1382.420	1064.977
291.745	14.735	1381.020	1064.155
292.760	14.742	1380.375	1063.611
293.774	14.812	1379.394	1063.205
294.789	14.787	1378.051	1061.921
295.803	14.847	1377.579	1061.839
296.818	14.808	1376.476	1060.649
297.833	14.846	1375.716	1060.214
298.847	14.872	1374.844	1059.613
299.862	14.684	1374.046	1057.710
300.876	14.822	1372.794	1057.529
301.891	14.808	1372.220	1056.902
302.906	14.819	1371.392	1056.243
303.920	14.899	1370.596	1056.041
304.935	14.900	1369.690	1055.253
305.949	14.965	1369.422	1055.365
306.964	15.125	1368.298	1055.415
307.979	15.042	1367.604	1054.261
308.993	15.076	1366.132	1053.247
310.008	15.002	1365.724	1052.377
311.022	15.149	1364.389	1052.180
312.037	15.161	1363.309	1051.327
313.052	15.097	1363.073	1050.652
314.066	15.098	1361.512	1049.357
315.081	15.063	1360.763	1048.470
316.095	15.106	1359.230	1047.467
317.110	14.977	1358.607	1046.089
318.125	14.909	1357.322	1044.581
319.139	15.088	1356.380	1044.881
320.154	14.962	1355.988	1043.698
321.168	15.025	1354.466	1042.826
322.183	15.085	1353.438	1042.315
323.197	15.085	1352.564	1041.552
324.212	15.012	1351.961	1040.539
325.227	15.120	1351.094	1040.456
326.241	15.081	1350.313	1039.517
327.256	15.101	1349.527	1038.946
328.270	15.065	1348.847	1038.106
329.285	15.140	1347.676	1037.579
330.300	15.173	1346.488	1036.777
331.314	15.147	1345.869	1036.048
332.329	15.156	1344.810	1035.196
333.343	15.154	1343.981	1034.454
334.358	15.242	1343.207	1034.309
335.373	15.144	1342.884	1033.361
336.387	15.343	1341.776	1033.649
337.402	15.225	1340.961	1032.201
338.416	15.257	1340.567	1032.003
339.431	15.473	1339.600	1032.494
340.446	15.405	1339.163	1031.648
341.460	15.433	1337.661	1030.571
342.475	15.498	1337.195	1030.522
343.489	15.459	1336.295	1029.496
344.504	15.525	1335.415	1029.134
345.519	15.606	1334.390	1028.749
346.533	15.647	1333.463	1028.190
347.548	15.648	1332.648	1027.476
348.562	15.681	1332.003	1027.091
349.577	15.623	1331.129	1025.975
350.592	15.640	1330.347	1025.385
351.606	15.590	1329.616	1024.426
352.621	15.645	1328.134	1023.525
353.635	15.555	1327.452	1022.364
354.650	15.598	1326.091	1021.486
355.665	15.571	1325.471	1020.755
356.679	15.563	1324.156	1019.601
357.694	15.636	1322.782	1018.896
358.708	15.627	1322.221	1018.319
359.723	15.734	1320.946	1017.894
360.738	15.684	1320.279	1016.992
361.752	15.679	1319.096	1015.960
362.767	15.805	1318.109	1015.869
363.781	15.781	1317.151	1014.894
364.796	15.705	1316.460	1013.816
365.810	15.683	1316.192	1013.386
366.825	15.757	1315.021	1012.840
367.840	15.862	1314.460	1012.955
368.854	15.979	1313.594	1012.900
369.869	16.021	1313.013	1012.614
370.883	15.988	1312.481	1011.917
371.898	15.892	1311.880	1010.788
372.913	15.992	1310.949	1010.579
373.927	15.924	1310.096	1009.425
374.942	15.865	1309.519	1008.539
375.956	15.985	1309.003	1008.772
376.971	15.925	1307.824	1007.413
377.986	16.050	1306.822	1007.297
379.000	15.982	1306.486	1006.544
380.015	16.086	1305.138	1006.035
381.029	16.158	1304.495	1005.881
382.044	16.192	1303.897	1005.531
383.059	16.185	1303.199	1004.867
384.073	16.157	1302.697	1004.222
385.088	16.139	1302.459	1003.842
386.102	16.182	1301.417	1003.207
387.117	16.283	1300.280	1002.841
388.132	16.151	1299.600	1001.443
389.146	16.236	1298.455	1000.976
390.161	16.066	1298.026	999.550
391.175	16.082	1297.342	999.030
392.190	16.139	1296.279	998.457
393.205	16.101	1295.904	997.860
394.219	16.216	1294.581	997.428
395.234	16.215	1293.460	996.473
396.248	16.209	1292.567	995.660
397.263	16.210	1290.862	994.269
398.278	16.143	1289.658	992.858
399.292	16.251	1288.330	992.379
400.307	16.213	1287.702	991.588
401.321	16.204	1286.731	990.699
402.336	16.217	1285.230	989.531
403.350	16.162	1284.240	988.357
404.365	16.138	1283.767	987.764
405.380	16.267	1282.454	987.423
406.394	16.327	1281.577	987.009
407.409	16.288	1280.904	986.180
408.423	16.425	1280.536	986.609
409.438	16.506	1279.745	986.381
410.453	16.407	1279.283	985.362
411.467	16.488	1278.500	985.142
412.482	16.534	1277.916	984.875
413.496	16.535	1277.180	984.227
414.511	16.648	1276.380	984.178
415.526	16.659	1275.691	983.624
416.540	16.713	1274.878	983.227
417.555	16.824	1274.011	983.115
418.569	16.782	1273.794	982.613
419.584	16.628	1273.759	981.610
420.599	16.657	1272.990	981.098
421.613	65.890	1301.304	1285.907
422.628	65.198	1305.465	1286.051
