DTS Sentinel unit serial number:	SN413079Multiplexer serial number:	ORYXHardware model number:	OX4-SRSoftware version number:	ORYX F/W v4.00 Oryx Data Collector v3.7.2.0data status	okinstallation	princeton_trtdifferential loss correction	single-endedforward channel	channel 4reverse channel	N/Adate	2019/09/15time	21:13:35forward acquisition time	60.00reverse acquisition time	0.00gamma	496.2192k internal	0.2318k external	0.2318temperature offset calibration	0.9937default loss term (dB/km)	0.3790temperature slope calibration	1.0000multiplexer offset coefficient	1.0000multiplexer slope coefficient	1.0000fibre end	0.00T internal ref (°C)	31.28T ext. ref 1 (°C)	8.16T ext. ref 2 (°C)	24.24length (m)	temperature (°C)	Stokes	anti-Stokes-747.200	33.875	-0.022	-0.019
-746.185	800.000	0.034	0.122
-745.171	800.000	0.042	-0.161
-744.156	-110.938	0.015	0.003
-743.142	19.769	-0.327	0.267
-742.127	-165.432	-0.293	0.013
-741.112	800.000	0.066	-0.204
-740.098	-200.000	-0.024	0.287
-739.083	-200.000	0.017	0.123
-738.069	308.904	0.265	0.501
-737.054	256.374	-0.131	-0.228
-736.039	-200.000	-0.014	-0.193
-735.025	329.180	-0.084	0.162
-734.010	-49.795	-0.198	0.095
-732.996	-20.191	-0.355	-0.221
-731.981	-114.262	-0.369	0.072
-730.966	-200.000	-0.011	0.194
-729.952	-35.983	0.110	-0.060
-728.937	-81.923	0.102	0.034
-727.923	-144.967	0.249	0.023
-726.908	34.944	-0.371	-0.328
-725.894	19.504	-0.121	-0.099
-724.879	-26.328	0.239	-0.142
-723.864	-200.000	-0.023	-0.143
-722.850	231.127	0.086	-0.142
-721.835	-10.020	0.176	0.118
-720.821	-139.310	0.170	-0.019
-719.806	81.540	-0.203	0.222
-718.791	-39.660	-0.196	0.104
-717.777	228.830	-0.078	0.128
-716.762	-148.161	0.133	-0.011
-715.748	82.769	0.156	-0.171
-714.733	-98.703	-0.189	-0.049
-713.718	-114.866	-0.168	0.032
-712.704	329.346	-0.058	0.113
-711.689	-43.384	-0.354	0.181
-710.675	800.000	-0.097	-0.320
-709.660	-127.083	-0.190	-0.028
-708.645	800.000	-0.142	0.442
-707.631	-28.663	-0.304	0.177
-706.616	-65.629	0.284	0.115
-705.602	55.641	0.066	0.065
-704.587	106.692	-0.118	0.142
-703.572	-200.000	0.032	0.163
-702.558	-192.464	-0.139	-0.001
-701.543	-62.972	0.249	0.104
-700.529	301.757	0.076	-0.142
-699.514	7.601	0.249	-0.188
-698.499	-165.430	-0.586	-0.026
-697.485	-83.176	-0.335	-0.109
-696.470	9.147	0.140	0.107
-695.456	-200.000	-0.063	-0.302
-694.441	120.950	-0.100	0.125
-693.426	-200.000	0.002	0.026
-692.412	-167.273	-0.186	0.008
-691.397	164.487	0.071	-0.101
-690.383	-92.729	0.029	0.008
-689.368	-139.239	0.179	-0.020
-688.354	109.096	-0.221	0.267
-687.339	88.303	0.195	0.219
-686.324	-82.557	-0.287	-0.094
-685.310	-21.497	-0.034	0.021
-684.295	378.689	-0.077	-0.160
-683.281	377.721	0.208	-0.430
-682.266	800.000	-0.103	0.297
-681.251	9.224	-0.117	0.089
-680.237	-200.000	-0.034	0.328
-679.222	-126.197	-0.177	-0.027
-678.208	4.933	-0.071	0.053
-677.193	200.786	0.247	-0.384
-676.178	221.677	-0.070	-0.113
-675.164	800.000	-0.087	-0.332
-674.149	81.435	-0.043	0.047
-673.135	113.866	0.268	-0.328
-672.120	245.053	-0.178	0.302
-671.105	-79.586	0.253	0.086
-670.091	-2.261	-0.128	-0.091
-669.076	-200.000	0.026	0.154
-668.062	800.000	-0.023	0.065
-667.047	-200.000	-0.028	-0.248
-666.032	636.107	0.103	0.264
-665.018	349.312	0.129	-0.257
-664.003	-6.202	0.054	0.037
-662.989	-200.000	-0.076	-0.359
-661.974	146.629	0.106	-0.144
-660.959	129.854	-0.183	-0.237
-659.945	-97.605	-0.222	0.058
-658.930	-166.102	-0.050	0.002
-657.916	78.467	0.135	0.145
-656.901	77.547	-0.198	-0.212
-655.886	-108.596	-0.119	-0.026
-654.872	19.481	0.107	-0.087
-653.857	-187.995	-0.124	-0.002
-652.843	143.709	-0.204	-0.275
-651.828	246.584	-0.162	-0.275
-650.814	143.332	-0.064	-0.086
-649.799	-200.000	-0.046	0.267
-648.784	-200.000	-0.002	0.193
-647.770	-200.000	-0.039	0.236
-646.755	-104.606	-0.112	0.026
-645.741	-121.881	0.084	0.014
-644.726	-200.000	-0.043	0.311
-643.711	-23.125	0.351	-0.213
-642.697	137.853	0.046	0.061
-641.682	-23.648	-0.099	0.060
-640.668	-85.619	-0.412	0.129
-639.653	-53.157	0.093	-0.043
-638.638	589.271	0.044	-0.110
-637.624	-171.640	-0.209	-0.007
-636.609	447.806	-0.082	0.183
-635.595	-30.750	0.400	0.228
-634.580	-50.853	-0.202	0.096
-633.565	-45.903	0.232	0.115
-632.551	-59.645	0.116	0.050
-631.536	-62.112	-0.102	0.043
-630.522	-117.738	-0.298	0.054
-629.507	800.000	-0.041	-0.137
-628.492	-36.488	-0.295	-0.160
-627.478	-136.237	-0.238	0.028
-626.463	143.786	-0.066	-0.089
-625.449	22.265	0.142	0.117
-624.434	646.822	-0.020	0.052
-623.419	-31.475	0.227	-0.129
-622.405	28.831	0.063	-0.054
-621.390	-25.364	-0.345	-0.206
-620.376	-62.553	0.129	0.054
-619.361	-200.000	0.007	0.118
-618.346	-120.921	0.093	0.016
-617.332	-200.000	-0.017	-0.180
-616.317	-200.000	0.005	0.256
-615.303	-200.000	-0.022	0.099
-614.288	40.356	0.220	-0.199
-613.273	-138.764	0.174	-0.019
-612.259	1.347	-0.047	-0.034
-611.244	88.245	0.181	-0.202
-610.230	394.852	-0.069	-0.145
-609.215	76.380	0.125	-0.134
-608.201	104.438	0.152	-0.180
-607.186	-200.000	0.043	-0.308
-606.171	183.932	-0.008	0.012
-605.157	-161.478	0.288	-0.015
-604.142	-111.575	-0.116	0.024
-603.128	472.900	0.091	0.207
-602.113	-96.123	0.273	-0.073
-601.098	800.000	0.032	-0.118
-600.084	497.543	0.117	-0.272
-599.069	60.155	-0.080	-0.080
-598.055	-16.634	0.093	-0.059
-597.040	336.190	0.117	-0.229
-596.025	277.248	0.157	-0.280
-595.011	800.000	-0.050	-0.146
-593.996	-200.000	-0.030	-0.183
-592.982	800.000	0.030	-0.104
-591.967	800.000	-0.015	-0.058
-590.952	175.461	-0.109	0.160
-589.938	-40.738	0.285	-0.148
-588.923	-135.767	-0.488	-0.058
-587.909	-48.183	0.082	0.040
-586.894	227.414	-0.018	-0.029
-585.879	-77.567	0.350	-0.122
-584.865	-116.901	-0.244	-0.045
-583.850	-200.000	0.008	-0.179
-582.836	39.601	-0.236	-0.213
-581.821	800.000	-0.051	-0.179
-580.806	-200.000	0.012	0.075
-579.792	69.412	-0.072	0.075
-578.777	-200.000	-0.005	0.174
-577.763	-136.194	-0.089	0.010
-576.748	127.757	-0.021	0.027
-575.733	336.377	-0.047	0.092
-574.719	485.866	0.156	0.358
-573.704	-82.740	0.213	-0.069
-572.690	190.535	0.125	-0.190
-571.675	159.485	0.091	-0.127
-570.661	-200.000	-0.015	-0.107
-569.646	-192.446	-0.199	-0.002
-568.631	-84.849	0.195	0.062
-567.617	-200.000	-0.016	-0.178
-566.602	-32.646	-0.160	0.090
-565.588	-37.083	-0.239	0.129
-564.573	-130.116	-0.117	-0.016
-563.558	-200.000	-0.023	0.116
-562.544	264.460	-0.216	0.378
-561.529	330.159	-0.088	-0.171
-560.515	-20.028	-0.098	0.061
-559.500	-60.659	-0.449	0.191
-558.485	26.123	-0.137	0.115
-557.471	-200.000	-0.016	0.197
-556.456	57.862	0.138	-0.136
-555.442	25.971	-0.101	0.084
-554.427	-168.637	-0.020	0.001
-553.412	-153.753	0.257	0.018
-552.398	10.674	-0.231	0.177
-551.383	-27.185	-0.266	-0.155
-550.369	129.003	0.198	0.254
-549.354	-200.000	-0.024	0.179
-548.339	-101.003	-0.115	-0.028
-547.325	126.541	-0.365	-0.464
-546.310	-21.289	-0.231	0.142
-545.296	-15.926	0.284	-0.182
-544.281	-200.000	-0.034	-0.162
-543.266	-106.067	-0.232	-0.052
-542.252	-113.748	-0.076	-0.015
-541.237	-59.281	0.205	-0.089
-540.223	93.681	-0.072	-0.081
-539.208	800.000	-0.065	0.246
-538.193	-200.000	0.001	0.111
-537.179	-136.983	0.135	-0.016
-536.164	73.605	0.079	-0.083
-535.150	-49.705	0.241	-0.115
-534.135	44.848	0.173	-0.159
-533.121	752.881	0.045	-0.122
-532.106	-200.000	-0.001	0.111
-531.091	-29.234	0.062	0.036
-530.077	697.490	-0.042	0.112
-529.062	203.253	-0.185	0.288
-528.048	-102.715	-0.086	-0.021
-527.033	-6.315	0.244	-0.167
-526.018	56.413	-0.150	-0.146
-525.004	231.620	0.026	0.043
-523.989	70.949	-0.057	-0.060
-522.975	92.884	-0.094	-0.106
-521.960	-51.766	-0.351	0.164
-520.945	379.402	0.054	0.110
-519.931	48.371	0.248	-0.233
-518.916	-29.289	-0.453	-0.260
-517.902	-106.421	-0.179	-0.040
-516.887	-200.000	0.004	0.035
-515.872	-99.048	-0.316	-0.080
-514.858	208.544	-0.250	0.393
-513.843	387.705	-0.050	0.104
-512.829	115.091	0.101	0.124
-511.814	99.631	0.237	-0.275
-510.799	-200.000	0.078	-0.352
-509.785	-200.000	-0.026	0.228
-508.770	676.401	0.195	-0.507
-507.756	56.240	-0.197	0.192
-506.741	800.000	0.048	0.197
-505.726	26.778	-0.191	0.161
-504.712	-200.000	0.017	-0.216
-503.697	-93.650	-0.105	-0.029
-502.683	-6.846	0.045	0.031
-501.668	800.000	0.075	-0.296
-500.653	-200.000	-0.206	0.000
-499.639	-200.000	-0.008	-0.283
-498.624	-133.909	-0.145	0.018
-497.610	-200.000	-0.044	0.319
-496.595	572.942	0.032	0.079
-495.581	543.874	-0.147	-0.352
-494.566	539.549	0.143	-0.340
-493.551	145.962	0.199	0.268
-492.537	633.217	-0.010	0.025
-491.522	-20.949	0.278	0.171
-490.508	-105.128	0.135	-0.031
-489.493	-28.363	-0.119	0.069
-488.478	800.000	-0.043	0.184
-487.464	-71.656	-0.093	0.035
-486.449	-86.751	0.155	0.048
-485.435	-39.215	0.147	-0.077
-484.420	-200.000	-0.035	0.156
-483.405	-168.573	0.136	0.005
-482.391	-200.000	0.050	0.397
-481.376	185.562	0.178	-0.265
-480.362	800.000	0.065	-0.260
-479.347	492.390	-0.094	-0.216
-478.332	311.432	-0.105	0.197
-477.318	599.995	-0.066	0.165
-476.303	25.096	0.279	-0.232
-475.289	800.000	-0.012	-0.036
-474.274	-200.000	0.000	0.281
-473.259	-24.340	0.405	0.242
-472.245	-30.823	-0.084	-0.048
-471.230	-56.317	-0.424	-0.189
-470.216	-114.809	-0.207	0.040
-469.201	193.820	0.048	-0.072
-468.186	-165.047	0.507	0.023
-467.172	-200.000	-0.007	-0.262
-466.157	-200.000	0.003	-0.028
-465.143	-128.837	0.262	0.037
-464.128	-6.763	0.392	0.267
-463.113	286.882	0.107	0.193
-462.099	-43.807	0.186	0.094
-461.084	-200.000	-0.122	-0.540
-460.070	455.392	-0.105	-0.232
-459.055	-200.000	0.014	0.475
-458.040	-200.000	0.051	-0.366
-457.026	-81.968	0.168	-0.055
-456.011	-34.650	-0.107	0.058
-454.997	684.676	-0.120	0.314
-453.982	578.828	-0.116	0.284
-452.968	-40.595	-0.140	-0.073
-451.953	25.496	-0.172	-0.143
-450.938	59.963	-0.330	-0.326
-449.924	-45.012	0.093	-0.046
-448.909	800.000	-0.058	0.165
-447.895	-200.000	-0.003	0.071
-446.880	8.655	-0.052	0.039
-445.865	-30.784	0.267	0.151
-444.851	7.007	-0.053	-0.039
-443.836	328.268	-0.116	0.223
-442.822	-41.115	-0.430	-0.222
-441.807	281.180	-0.102	-0.182
-440.792	-20.938	-0.286	0.176
-439.778	123.158	0.074	-0.093
-438.763	-34.371	0.438	-0.240
-437.749	759.146	-0.133	0.360
-436.734	241.340	0.085	-0.141
-435.719	-149.308	-0.224	0.018
-434.705	-8.985	-0.106	0.071
-433.690	17.212	-0.137	-0.108
-432.676	80.801	0.294	-0.317
-431.661	511.132	-0.103	-0.240
-430.646	-128.742	-0.189	0.027
-429.632	-43.291	0.122	-0.061
-428.617	-200.000	0.011	0.093
-427.603	767.164	0.107	0.290
-426.588	432.294	-0.093	0.201
-425.573	-123.478	0.158	0.025
-424.559	800.000	0.030	-0.089
-423.544	17.310	-0.325	0.258
-422.530	-200.000	0.059	0.632
-421.515	-97.650	-0.209	-0.054
-420.500	223.030	0.117	0.188
-419.486	91.610	-0.032	-0.036
-418.471	-200.000	0.026	0.141
-417.457	-0.349	0.154	0.109
-416.442	38.551	0.077	0.068
-415.428	430.345	-0.069	0.149
-414.413	126.301	-0.015	-0.019
-413.398	321.829	-0.030	-0.057
-412.384	77.119	-0.080	-0.085
-411.369	-200.000	0.008	0.051
-410.355	-200.000	-0.026	-0.121
-409.340	73.236	-0.123	0.128
-408.325	800.000	0.058	0.253
-407.311	51.256	0.247	0.234
-406.296	-87.573	-0.324	0.098
-405.282	400.064	-0.099	-0.208
-404.267	-116.780	-0.130	0.024
-403.252	180.112	0.217	0.318
-402.238	-3.427	0.251	-0.174
-401.223	-200.000	0.006	-0.069
-400.209	-63.873	0.150	-0.061
-399.194	-155.197	-0.459	-0.030
-398.179	-75.833	0.118	0.042
-397.165	800.000	-0.053	-0.153
-396.150	52.925	-0.100	0.096
-395.136	-135.140	-0.140	-0.017
-394.121	241.761	0.142	-0.237
-393.106	-200.000	0.006	0.049
-392.092	254.622	-0.108	-0.184
-391.077	93.833	-0.201	0.227
-390.063	-200.000	0.022	-0.271
-389.048	97.200	-0.158	-0.181
-388.033	27.779	0.183	0.154
-387.019	355.949	-0.107	0.213
-386.004	-87.369	0.174	0.052
-384.990	-200.000	0.004	-0.201
-383.975	-41.628	0.158	-0.081
-382.960	131.190	0.124	0.159
-381.946	-34.918	0.108	-0.059
-380.931	-41.434	0.231	-0.119
-379.917	800.000	-0.013	0.045
-378.902	-87.092	-0.205	0.062
-377.888	-107.404	-0.257	-0.056
-376.873	42.266	-0.052	0.047
-375.858	-78.440	-0.429	0.147
-374.844	-54.585	0.051	-0.023
-373.829	-141.140	0.093	0.010
-372.815	-32.735	0.310	-0.172
-371.800	800.000	0.028	0.114
-370.785	-12.733	0.285	0.185
-369.771	-200.000	0.068	0.394
-368.756	3.361	-0.218	0.159
-367.742	247.660	-0.050	-0.084
-366.727	48.481	0.234	-0.219
-365.712	59.463	0.153	-0.151
-364.698	404.665	0.096	0.203
-363.683	187.469	-0.087	0.130
-362.669	71.646	-0.108	-0.112
-361.654	-180.854	-0.344	-0.007
-360.639	-171.546	-0.231	-0.008
-359.625	309.579	0.040	0.075
-358.610	-200.000	-0.002	-0.051
-357.596	738.372	0.028	0.076
-356.581	-173.782	-0.287	0.009
-355.566	800.000	-0.050	-0.146
-354.552	-164.642	0.058	-0.003
-353.537	-107.955	0.012	-0.003
-352.523	-200.000	-0.002	-0.144
-351.508	-200.000	-0.022	0.263
-350.493	-72.340	0.093	-0.034
-349.479	107.620	-0.231	0.274
-348.464	52.385	-0.232	-0.220
-347.450	-117.426	0.243	0.044
-346.435	-140.523	0.206	-0.021
-345.420	36.590	0.221	-0.195
-344.406	-95.378	-0.150	0.040
-343.391	-37.661	0.383	-0.203
-342.377	800.000	0.070	0.268
-341.362	800.000	-0.024	-0.071
-340.348	-89.701	0.208	-0.061
-339.333	-72.617	0.286	-0.105
-338.318	-200.000	0.073	0.329
-337.304	-3.407	-0.148	-0.103
-336.289	69.379	-0.089	0.091
-335.275	-200.000	-0.031	0.272
-334.260	118.907	0.158	-0.194
-333.245	227.295	-0.419	-0.678
-332.231	-163.245	-0.340	-0.016
-331.216	-0.403	-0.193	-0.137
-330.202	244.666	-0.109	-0.182
-329.187	26.712	-0.083	0.070
-328.172	-83.391	-0.390	0.125
-327.158	53.436	0.274	-0.262
-326.143	14.120	0.159	0.123
-325.129	-11.439	-0.190	-0.125
-324.114	-176.040	0.312	0.008
-323.099	-85.590	0.320	-0.099
-322.085	-83.641	-0.157	-0.050
-321.070	-200.000	0.053	-0.383
-320.056	18.077	-0.111	0.088
-319.041	119.074	-0.078	-0.096
-318.026	108.686	0.187	-0.223
-317.012	-200.000	0.020	0.134
-315.997	165.414	0.193	-0.272
-314.983	241.696	0.167	-0.277
-313.968	-124.404	-0.090	0.014
-312.953	-14.717	0.183	0.117
-311.939	72.812	-0.244	-0.254
-310.924	15.162	0.095	-0.074
-309.910	-200.000	0.028	0.193
-308.895	-14.347	0.283	-0.181
-307.880	-200.000	-0.044	0.235
-306.866	-200.000	-0.015	-0.220
-305.851	411.421	0.184	0.389
-304.837	-200.000	-0.036	0.190
-303.822	-119.662	0.122	-0.021
-302.807	329.454	0.112	0.215
-301.793	320.638	-0.057	0.107
-300.778	-200.000	0.006	-0.038
-299.764	-102.517	0.083	-0.020
-298.749	-23.222	0.276	-0.165
-297.735	-63.970	0.198	0.081
-296.720	7.551	-0.142	-0.105
-295.705	593.173	-0.041	0.102
-294.691	-28.047	0.127	0.073
-293.676	-114.828	-0.182	0.035
-292.662	-58.362	-0.136	-0.059
-291.647	144.840	-0.126	-0.168
-290.632	77.729	-0.204	0.216
-289.618	-200.000	0.056	0.308
-288.603	285.011	0.019	-0.034
-287.589	-70.960	-0.225	-0.084
-286.574	-125.119	-0.293	0.045
-285.559	-200.000	0.006	0.075
-284.545	-69.753	0.281	0.107
-283.530	358.596	0.217	-0.431
-282.516	-102.183	-0.217	0.052
-281.501	-200.000	0.003	-0.104
-280.486	-124.958	0.205	-0.031
-279.472	-200.000	-0.035	-0.338
-278.457	-200.000	-0.111	0.514
-277.443	470.763	-0.035	-0.078
-276.428	4.034	0.147	0.107
-275.413	-93.915	0.258	0.070
-274.399	122.157	-0.270	-0.335
-273.384	800.000	0.103	-0.295
-272.370	-71.775	-0.326	0.121
-271.355	190.734	-0.097	0.144
-270.340	-58.048	0.132	-0.057
-269.326	-173.925	0.388	-0.011
-268.311	103.064	-0.113	0.131
-267.297	89.950	-0.126	0.139
-266.282	97.959	0.242	0.277
-265.267	-111.433	0.227	0.046
-264.253	-66.310	-0.381	0.150
-263.238	-51.993	0.300	-0.139
-262.224	30.801	0.188	-0.160
-261.209	-103.231	-0.074	-0.017
-260.195	85.735	0.217	-0.237
-259.180	-200.000	0.002	0.294
-258.165	-200.000	0.007	-0.047
-257.151	-200.000	-0.000	-0.005
-256.136	203.900	-0.071	-0.110
-255.122	-137.550	0.229	0.026
-254.107	172.844	-0.066	0.094
-253.092	51.660	-0.239	0.226
-252.078	-54.262	-0.418	0.188
-251.063	800.000	0.114	-0.349
-250.049	624.086	-0.129	0.322
-249.034	501.713	0.167	0.382
-248.019	13.496	0.077	0.059
-247.005	-65.760	0.215	-0.085
-245.990	122.867	0.115	0.143
-244.976	-87.750	0.262	0.078
-243.961	-37.725	-0.316	-0.167
-242.946	-37.503	-0.407	-0.216
-241.932	277.993	0.130	-0.230
-240.917	800.000	-0.031	-0.109
-239.903	328.099	-0.123	0.235
-238.888	-31.253	0.215	0.120
-237.873	-200.000	-0.015	-0.128
-236.859	-200.000	0.002	0.193
-235.844	-200.000	-0.010	-0.046
-234.830	-119.779	0.122	0.021
-233.815	-85.744	0.335	-0.103
-232.800	230.442	0.145	-0.235
-231.786	-54.714	0.182	-0.082
-230.771	201.571	-0.053	-0.082
-229.757	-68.889	-0.100	0.038
-228.742	-71.577	0.216	-0.080
-227.727	-149.725	-0.342	0.027
-226.713	-97.140	-0.069	-0.018
-225.698	78.967	0.136	0.144
-224.684	-13.746	0.258	-0.165
-223.669	-107.904	0.071	-0.015
-222.655	-200.000	-0.036	0.229
-221.640	-13.362	-0.248	0.159
-220.625	800.000	0.104	-0.301
-219.611	219.597	0.163	-0.258
-218.596	224.182	0.144	0.230
-217.582	130.304	0.186	0.236
-216.567	-200.000	-0.038	-0.171
-215.552	-156.356	0.198	-0.012
-214.538	-200.000	0.016	-0.190
-213.523	-200.000	0.020	0.136
-212.509	254.209	-0.131	0.223
-211.494	54.493	0.197	-0.188
-210.479	-33.220	-0.162	0.089
-209.465	-200.000	-0.016	0.167
-208.450	154.260	0.178	0.242
-207.436	195.992	-0.237	0.358
-206.421	-200.000	0.138	0.607
-205.406	-6.236	0.211	0.143
-204.392	-81.284	-0.089	-0.029
-203.377	-200.000	-0.028	-0.191
-202.363	800.000	-0.046	-0.174
-201.348	175.279	0.074	0.106
-200.333	-58.381	-0.047	0.020
-199.319	-25.246	0.165	0.097
-198.304	-158.040	0.065	-0.004
-197.290	-174.315	0.258	-0.007
-196.275	800.000	-0.060	0.219
-195.260	194.220	0.076	-0.114
-194.246	-200.000	-0.017	-0.484
-193.231	110.739	-0.024	-0.029
-192.217	-126.391	-0.238	0.035
-191.202	-155.646	0.163	-0.010
-190.187	-112.975	-0.501	-0.098
-189.173	-200.000	0.041	0.311
-188.158	378.951	0.156	0.316
-187.144	800.000	-0.036	-0.139
-186.129	-39.193	-0.397	-0.207
-185.114	-71.707	-0.408	-0.151
-184.100	-120.728	0.079	-0.013
-183.085	313.458	-0.101	0.188
-182.071	-200.000	-0.003	0.095
-181.056	-149.860	0.151	-0.012
-180.042	83.130	0.116	-0.126
-179.027	-117.304	0.072	-0.013
-178.012	-118.724	0.108	-0.019
-176.998	-134.945	-0.051	-0.006
-175.983	178.194	-0.072	-0.104
-174.969	800.000	-0.046	0.138
-173.954	284.618	-0.114	-0.203
-172.939	-84.667	-0.254	0.079
-171.925	195.647	0.181	0.273
-170.910	800.000	-0.035	-0.126
-169.896	-200.000	-0.037	0.189
-168.881	800.000	-0.063	0.247
-167.866	-51.281	-0.214	-0.099
-166.852	184.302	0.203	-0.298
-165.837	-57.214	-0.048	0.021
-164.823	-154.774	0.418	-0.027
-163.808	-105.862	0.067	-0.015
-162.793	-49.565	-0.160	0.075
-161.779	-200.000	0.019	-0.585
-160.764	800.000	0.119	-0.327
-159.750	-200.000	0.023	0.141
-158.735	275.752	-0.099	0.173
-157.720	337.646	0.159	0.306
-156.706	389.645	0.051	0.104
-155.691	800.000	-0.104	-0.347
-154.677	-200.000	0.079	-0.344
-153.662	-77.220	-0.373	0.128
-152.647	-167.237	0.251	-0.010
-151.633	139.765	0.131	0.171
-150.618	-94.931	-0.327	-0.088
-149.604	800.000	0.037	0.104
-148.589	800.000	-0.057	0.220
-147.574	403.539	0.168	0.350
-146.560	-120.033	-0.131	0.022
-145.545	131.996	0.168	0.214
-144.531	371.027	0.091	0.182
-143.516	513.213	-0.061	-0.140
-142.502	-200.000	-0.011	0.216
-141.487	-140.154	0.181	-0.019
-140.472	-159.611	-0.211	0.012
-139.458	-192.616	0.302	-0.003
-138.443	64.523	-0.136	0.135
-137.429	-200.000	-0.001	0.365
-136.414	800.000	0.126	0.480
-135.399	-24.374	-0.200	-0.118
-134.385	-200.000	-0.019	0.197
-133.370	-173.945	0.043	0.001
-132.356	114.135	-0.244	0.293
-131.341	-37.092	-0.230	0.122
-130.326	-200.000	0.074	-0.349
-129.312	800.000	-0.034	-0.144
-128.297	-200.000	-0.014	0.072
-127.283	-200.000	0.050	0.274
-126.268	-47.590	0.161	0.077
-125.253	40.231	0.067	0.060
-124.239	-123.046	0.160	-0.025
-123.224	-1.311	-0.173	-0.121
-122.210	28.972	0.237	0.198
-121.195	-81.727	0.395	-0.128
-120.180	800.000	-0.094	0.302
-119.166	94.440	-0.109	0.123
-118.151	-101.982	-0.290	-0.069
-117.137	355.899	0.105	-0.206
-116.122	-200.000	0.045	-0.254
-115.107	-200.000	-0.005	-0.022
-114.093	99.874	0.091	-0.104
-113.078	-48.477	0.127	-0.061
-112.064	-200.000	0.014	-0.079
-111.049	-46.301	0.595	0.289
-110.034	-200.000	-0.028	0.248
-109.020	800.000	0.069	-0.205
-108.005	-130.752	-0.273	-0.036
-106.991	-90.641	0.377	0.108
-105.976	238.819	0.189	0.310
-104.962	-200.000	-0.082	-0.415
-103.947	163.953	-0.044	0.061
-102.932	-7.751	-0.231	0.154
-101.918	-132.053	0.410	0.053
-100.903	39.706	-0.186	-0.164
-99.889	-65.418	0.545	-0.216
-98.874	120.460	-0.127	-0.156
-97.859	379.759	0.074	0.151
-96.845	800.000	0.085	-0.243
-95.830	800.000	-0.061	-0.228
-94.816	-200.000	-0.014	0.211
-93.801	-148.861	0.230	-0.018
-92.786	68.940	0.357	0.362
-91.772	-81.947	0.245	0.079
-90.757	98.684	0.115	-0.131
-89.743	800.000	-0.128	-0.379
-88.728	303.628	-0.153	-0.280
-87.713	171.694	0.141	0.199
-86.699	-110.910	0.034	-0.007
-85.684	-200.000	0.005	-0.040
-84.670	412.549	0.105	0.220
-83.655	-134.028	-0.231	0.028
-82.640	-1.732	0.152	-0.105
-81.626	-89.165	-0.285	-0.083
-80.611	-200.000	-0.010	-0.057
-79.597	-100.842	0.120	-0.029
-78.582	76.983	-0.154	0.161
-77.567	313.276	-0.095	0.177
-76.553	-200.000	-0.002	-0.226
-75.538	-14.659	0.214	-0.136
-74.524	218.183	0.018	0.028
-73.509	-200.000	0.008	0.189
-72.494	-119.514	0.070	-0.012
-71.480	16.022	-0.269	-0.209
-70.465	257.718	-0.155	0.263
-69.451	-120.630	-0.283	-0.047
-68.436	325.195	0.127	-0.239
-67.422	-200.000	0.038	0.270
-66.407	6.901	0.155	-0.114
-65.392	170.083	-0.192	0.270
-64.378	-139.461	0.142	0.015
-63.363	312.633	0.196	-0.363
-62.349	-103.770	0.114	-0.026
-61.334	349.051	-0.502	-0.976
-60.319	15.617	0.409	0.317
-59.305	-200.000	-0.119	-0.982
-58.290	132.151	0.603	0.766
-57.276	541.509	0.672	1.577
-56.261	-200.000	99.500	574.428
-55.246	493.423	1415.359	3198.301
-54.232	154.417	2596.697	3512.024
-53.217	100.526	2295.952	2626.590
-52.203	37.601	2052.705	1794.556
-51.188	33.063	1968.104	1680.291
-50.173	31.476	1950.366	1651.085
-49.159	46.557	2004.809	1832.647
-48.144	47.685	2022.452	1858.817
-47.130	33.522	1982.269	1696.224
-46.115	31.219	1971.582	1666.486
-45.100	31.204	1968.564	1663.737
-44.086	31.091	1966.582	1660.984
-43.071	31.102	1964.214	1659.017
-42.057	31.081	1962.186	1657.047
-41.042	31.163	1959.535	1655.472
-40.027	31.155	1958.257	1654.260
-39.013	31.134	1956.576	1652.587
-37.998	31.253	1954.384	1651.724
-36.984	31.226	1953.320	1650.519
-35.969	31.234	1951.144	1648.689
-34.954	31.286	1948.872	1647.160
-33.940	31.209	1947.701	1645.425
-32.925	31.320	1946.109	1644.990
-31.911	31.245	1944.533	1642.934
-30.896	31.321	1942.654	1641.947
-29.881	31.308	1941.562	1640.851
-28.867	31.321	1939.901	1639.496
-27.852	31.321	1938.409	1638.169
-26.838	31.249	1936.534	1635.888
-25.823	31.402	1934.432	1635.386
-24.809	31.368	1932.143	1633.091
-23.794	31.313	1930.840	1631.442
-22.779	31.371	1929.017	1630.341
-21.765	31.290	1927.928	1628.647
-20.750	31.312	1926.213	1627.326
-19.736	31.354	1924.165	1625.904
-18.721	31.274	1923.201	1624.327
-17.706	31.331	1921.275	1623.128
-16.692	31.332	1919.445	1621.529
-15.677	31.260	1917.822	1619.469
-14.663	31.360	1916.083	1618.797
-13.648	31.287	1915.684	1617.765
-12.633	31.336	1913.746	1616.492
-11.619	31.247	1912.906	1614.943
-10.604	31.240	1911.701	1613.808
-9.590	31.258	1910.320	1612.734
-8.575	31.211	1909.011	1611.158
-7.560	31.276	1907.364	1610.260
-6.546	31.313	1906.054	1609.414
-5.531	31.239	1905.340	1608.105
-4.517	31.280	1903.537	1606.878
-3.502	31.247	1903.070	1606.137
-2.487	31.275	1901.566	1605.041
-1.473	31.304	1900.514	1604.335
-0.458	31.330	1895.442	1600.217
0.556	28.305	1875.239	1569.654
1.571	23.642	1854.526	1512.548
2.586	19.305	1875.991	1492.456
3.600	18.197	1911.132	1510.501
4.615	17.855	1906.002	1503.302
5.629	15.425	1813.867	1410.114
6.644	11.070	1707.058	1292.452
7.659	8.475	1674.121	1247.181
8.673	8.227	1671.235	1242.983
9.688	8.249	1669.807	1241.984
10.702	8.147	1668.303	1239.965
11.717	8.017	1664.359	1235.916
12.731	8.404	1663.271	1237.999
13.746	11.633	1670.559	1268.407
14.761	15.802	1679.637	1307.652
15.775	17.270	1680.536	1319.641
16.790	16.641	1678.441	1313.000
17.804	15.604	1674.827	1302.023
18.819	14.636	1671.466	1291.807
19.834	13.953	1668.937	1284.457
20.848	13.624	1667.591	1280.769
21.863	13.381	1666.401	1277.867
22.877	13.155	1664.403	1274.477
23.892	13.009	1662.851	1272.048
24.907	12.842	1661.845	1269.884
25.921	12.868	1660.487	1268.928
26.936	12.770	1660.051	1267.732
27.950	12.940	1658.957	1268.092
28.965	12.910	1658.733	1267.577
29.980	12.974	1657.263	1266.836
30.994	13.017	1656.502	1266.471
32.009	13.076	1654.914	1265.592
33.023	13.194	1654.227	1265.860
34.038	13.133	1653.487	1264.714
35.053	13.156	1652.569	1264.081
36.067	13.053	1651.507	1262.366
37.082	13.025	1649.842	1260.767
38.096	13.017	1649.170	1260.081
39.111	13.000	1648.584	1259.394
40.126	13.046	1647.589	1258.871
41.140	13.102	1646.367	1258.253
42.155	12.980	1645.187	1256.314
43.169	12.899	1643.700	1254.451
44.184	12.853	1642.776	1253.281
45.199	12.760	1641.529	1251.512
46.213	12.829	1640.236	1250.939
47.228	12.795	1639.449	1249.970
48.242	12.943	1637.778	1249.706
49.257	12.973	1636.844	1249.116
50.271	12.931	1635.875	1247.947
51.286	13.005	1633.990	1246.955
52.301	12.955	1632.755	1245.525
53.315	12.945	1631.491	1244.373
54.330	12.959	1630.171	1243.362
55.344	12.967	1627.842	1241.541
56.359	12.799	1627.221	1239.689
57.374	12.873	1625.887	1239.125
58.388	12.888	1625.148	1238.563
59.403	12.911	1623.675	1237.500
60.417	12.823	1621.989	1235.446
61.432	12.727	1621.219	1234.034
62.447	12.828	1619.620	1233.464
63.461	12.652	1619.108	1231.644
64.476	12.749	1617.800	1231.268
65.490	12.710	1616.796	1230.101
66.505	12.725	1615.377	1229.029
67.520	12.772	1614.666	1228.728
68.534	12.682	1613.748	1227.252
69.549	12.730	1612.716	1226.713
70.563	12.793	1611.056	1225.811
71.578	12.729	1610.304	1224.655
72.593	12.710	1609.359	1223.688
73.607	12.638	1608.442	1222.349
74.622	12.594	1607.290	1221.033
75.636	12.555	1606.499	1220.039
76.651	12.578	1605.444	1219.298
77.666	12.672	1604.258	1218.983
78.680	12.679	1603.509	1218.364
79.695	12.643	1602.695	1217.371
80.709	12.694	1601.517	1216.741
81.724	12.712	1601.233	1216.556
82.739	12.781	1600.556	1216.439
83.753	12.840	1599.072	1215.636
84.768	12.855	1598.325	1215.074
85.782	12.869	1597.977	1214.803
86.797	12.954	1597.458	1214.929
87.812	13.089	1596.091	1214.776
88.826	12.961	1594.908	1212.826
89.841	12.946	1593.512	1211.547
90.855	12.906	1593.304	1210.988
91.870	12.959	1591.845	1210.164
92.884	12.992	1591.094	1209.727
93.899	12.989	1589.613	1208.474
94.914	13.052	1588.260	1207.795
95.928	13.060	1587.227	1206.963
96.943	13.157	1585.993	1206.622
97.957	13.046	1585.030	1204.977
98.972	12.981	1583.425	1203.178
99.987	12.990	1581.721	1201.840
101.001	13.011	1580.000	1200.581
102.016	13.047	1578.355	1199.485
103.030	13.042	1576.748	1198.118
104.045	13.058	1575.398	1197.108
105.060	13.041	1574.427	1196.138
106.074	12.990	1573.151	1194.694
107.089	12.885	1571.573	1192.633
108.103	12.825	1569.982	1190.880
109.118	12.706	1568.665	1188.920
110.133	12.805	1567.027	1188.287
111.147	12.817	1566.133	1187.589
112.162	12.786	1564.964	1186.378
113.176	12.803	1563.095	1184.975
114.191	12.793	1562.304	1184.197
115.206	12.885	1561.039	1183.800
116.220	12.909	1559.424	1182.640
117.235	12.873	1558.291	1181.418
118.249	12.915	1556.585	1180.322
119.264	12.897	1554.815	1178.744
120.279	12.809	1554.261	1177.595
121.293	12.826	1552.190	1176.038
122.308	12.716	1550.641	1173.977
123.322	12.755	1549.837	1173.545
124.337	12.763	1548.109	1172.186
125.352	12.766	1546.577	1170.947
126.366	12.802	1545.218	1170.066
127.381	12.765	1544.729	1169.329
128.395	12.766	1543.258	1168.124
129.410	12.756	1542.008	1167.002
130.424	12.805	1540.809	1166.336
131.439	12.808	1539.662	1165.385
132.454	12.842	1538.358	1164.536
133.468	12.807	1537.089	1163.229
134.483	12.877	1535.418	1162.356
135.497	12.834	1534.353	1161.142
136.512	12.935	1532.771	1160.553
137.527	12.894	1531.457	1159.166
138.541	12.927	1530.230	1158.370
139.556	12.919	1528.860	1157.172
140.570	12.907	1527.203	1155.732
141.585	12.970	1525.967	1155.133
142.600	13.053	1525.075	1154.935
143.614	13.054	1523.787	1153.867
144.629	13.167	1522.099	1153.274
145.643	13.215	1520.681	1152.436
146.658	13.243	1519.662	1151.755
147.673	13.228	1518.043	1150.318
148.687	13.099	1516.460	1148.126
149.702	13.123	1515.023	1147.097
150.716	13.031	1513.375	1145.115
151.731	13.137	1511.765	1144.530
152.746	13.003	1511.183	1143.059
153.760	12.999	1509.723	1141.822
154.775	12.997	1508.481	1140.772
155.789	13.105	1507.247	1140.485
156.804	13.187	1506.035	1140.031
157.819	13.260	1504.536	1139.300
158.833	13.210	1504.032	1138.472
159.848	13.255	1502.879	1137.805
160.862	13.220	1501.521	1136.437
161.877	13.298	1500.653	1136.219
162.892	13.244	1499.138	1134.595
163.906	13.100	1497.997	1132.649
164.921	13.141	1496.190	1131.458
165.935	13.104	1495.719	1130.752
166.950	13.153	1494.798	1130.293
167.964	13.261	1493.432	1129.893
168.979	13.187	1492.524	1128.606
169.994	13.186	1491.506	1127.727
171.008	13.143	1491.201	1127.106
172.023	13.185	1489.789	1126.220
173.037	13.283	1488.429	1125.762
174.052	13.379	1487.070	1125.286
175.067	13.319	1486.687	1124.489
176.081	13.351	1485.109	1123.416
177.096	13.333	1483.407	1121.904
178.110	13.202	1482.271	1120.057
179.125	13.203	1481.107	1119.085
180.140	13.338	1480.450	1119.402
181.154	13.247	1479.926	1118.295
182.169	13.287	1478.187	1117.151
183.183	13.397	1476.839	1116.778
184.198	13.473	1475.991	1116.550
185.213	13.432	1474.860	1115.319
186.227	13.500	1473.531	1114.670
187.242	13.554	1472.760	1114.357
188.256	13.499	1471.777	1113.141
189.271	13.508	1470.852	1112.407
190.286	13.567	1469.688	1111.823
191.300	13.496	1468.437	1110.301
192.315	13.435	1467.167	1108.831
193.329	13.272	1466.191	1106.908
194.344	13.103	1465.578	1105.213
195.359	13.283	1464.142	1105.240
196.373	13.392	1462.641	1104.733
197.388	13.443	1461.880	1104.403
198.402	13.442	1460.392	1103.173
199.417	13.513	1459.604	1102.954
200.432	13.602	1458.780	1102.828
201.446	13.659	1457.973	1102.496
202.461	13.801	1456.665	1102.354
203.475	13.792	1455.483	1101.301
204.490	13.773	1454.717	1100.497
205.504	13.800	1453.409	1099.594
206.519	13.678	1452.287	1097.838
207.534	13.647	1451.206	1096.720
208.548	13.625	1450.296	1095.785
209.563	13.596	1449.434	1094.850
210.577	13.676	1448.123	1094.286
211.592	13.650	1447.552	1093.591
212.607	13.709	1446.592	1093.157
213.621	13.717	1446.340	1092.922
214.636	13.846	1445.441	1092.993
215.650	13.738	1444.569	1091.529
216.665	13.794	1443.377	1090.900
217.680	13.907	1442.983	1091.249
218.694	13.868	1441.979	1090.134
219.709	13.946	1440.786	1089.646
220.723	13.955	1439.559	1088.686
221.738	13.999	1438.827	1088.321
222.753	13.980	1438.026	1087.495
223.767	13.922	1437.235	1086.424
224.782	13.984	1435.703	1085.575
225.796	13.948	1435.475	1085.067
226.811	14.035	1434.455	1084.770
227.826	14.101	1433.750	1084.573
228.840	14.032	1432.726	1083.249
229.855	14.072	1431.739	1082.668
230.869	14.027	1430.748	1081.533
231.884	13.974	1429.675	1080.281
232.899	14.008	1428.696	1079.663
233.913	14.011	1427.341	1078.564
234.928	13.869	1426.714	1077.074
235.942	13.912	1425.016	1075.974
236.957	13.913	1423.757	1074.934
237.972	14.007	1422.444	1074.459
238.986	13.975	1421.351	1073.329
240.001	13.980	1420.365	1072.526
241.015	14.096	1419.764	1072.720
242.030	13.934	1418.856	1070.899
243.045	14.059	1417.893	1070.882
244.059	14.096	1417.170	1070.478
245.074	14.255	1415.542	1070.178
246.088	14.164	1415.279	1069.297
247.103	14.211	1414.472	1068.893
248.117	14.270	1413.127	1068.165
249.132	14.317	1412.819	1068.135
250.147	14.342	1412.154	1067.703
251.161	14.337	1411.724	1067.248
252.176	14.571	1411.137	1068.209
253.190	14.408	1410.416	1066.527
254.205	14.600	1409.087	1066.654
255.220	14.601	1407.871	1065.642
256.234	14.557	1407.643	1065.100
257.249	14.499	1407.359	1064.418
258.263	14.654	1405.843	1064.166
259.278	14.625	1405.397	1063.548
260.293	14.625	1404.104	1062.475
261.307	14.701	1403.166	1062.155
262.322	14.696	1402.608	1061.605
263.336	14.751	1401.807	1061.260
264.351	14.780	1400.867	1060.635
265.366	14.749	1399.962	1059.663
266.380	14.692	1399.207	1058.634
267.395	14.837	1397.721	1058.335
268.409	14.826	1397.113	1057.707
269.424	14.749	1396.190	1056.430
270.439	14.654	1395.429	1055.163
271.453	14.756	1394.460	1054.979
272.468	14.700	1393.738	1053.989
273.482	14.711	1392.830	1053.273
274.497	14.698	1391.913	1052.410
275.512	14.642	1391.238	1051.451
276.526	14.610	1390.548	1050.634
277.541	14.754	1388.597	1049.970
278.555	14.741	1388.301	1049.577
279.570	14.748	1387.532	1048.944
280.585	14.787	1386.789	1048.537
281.599	14.849	1386.074	1048.290
282.614	15.026	1384.595	1048.188
283.628	14.889	1383.697	1046.557
284.643	14.832	1382.692	1045.346
285.657	14.884	1381.252	1044.492
286.672	14.872	1380.339	1043.633
287.687	14.840	1379.998	1043.085
288.701	14.845	1378.551	1041.929
289.716	14.890	1378.250	1041.890
290.730	15.012	1377.017	1041.623
291.745	14.976	1376.265	1040.742
292.760	15.084	1374.849	1040.248
293.774	15.041	1374.049	1039.284
294.789	15.068	1373.305	1038.797
295.803	15.146	1372.382	1038.490
296.818	15.124	1371.322	1037.459
297.833	15.174	1370.257	1036.870
298.847	15.005	1369.866	1035.437
299.862	15.017	1368.665	1034.515
300.876	15.092	1367.937	1034.336
301.891	15.127	1366.883	1033.661
302.906	15.124	1365.729	1032.679
303.920	15.159	1365.191	1032.397
304.935	15.293	1364.540	1032.639
305.949	15.257	1363.772	1031.743
306.964	15.214	1363.591	1031.253
307.979	15.351	1362.229	1030.972
308.993	15.329	1361.133	1029.916
310.008	15.379	1360.038	1029.306
311.022	15.349	1358.947	1028.205
312.037	15.368	1358.021	1027.526
313.052	15.421	1357.401	1027.292
314.066	15.431	1356.393	1026.502
315.081	15.318	1355.336	1024.919
316.095	15.264	1354.254	1023.679
317.110	15.242	1353.590	1022.955
318.125	15.320	1352.536	1022.544
319.139	15.291	1351.669	1021.619
320.154	15.232	1350.485	1020.274
321.168	15.311	1349.695	1020.071
322.183	15.305	1348.458	1019.005
323.197	15.328	1347.570	1018.386
324.212	15.407	1346.630	1018.065
325.227	15.446	1346.136	1017.839
326.241	15.398	1345.148	1016.707
327.256	15.391	1344.092	1015.778
328.270	15.393	1343.482	1015.242
329.285	15.475	1342.343	1014.787
330.300	15.371	1341.946	1013.766
331.314	15.387	1340.893	1012.977
332.329	15.450	1339.776	1012.422
333.343	15.360	1339.404	1011.512
334.358	15.400	1338.403	1010.908
335.373	15.374	1337.982	1010.345
336.387	15.490	1336.888	1010.123
337.402	15.584	1335.987	1009.921
338.416	15.559	1335.465	1009.288
339.431	15.669	1334.390	1009.046
340.446	15.660	1334.130	1008.703
341.460	15.728	1333.124	1008.260
342.475	15.817	1331.995	1007.854
343.489	15.688	1331.693	1006.760
344.504	15.795	1330.203	1006.186
345.519	15.872	1329.242	1005.832
346.533	15.879	1328.515	1005.232
347.548	15.822	1328.118	1004.506
348.562	15.917	1326.815	1003.998
349.577	15.915	1326.168	1003.405
350.592	15.870	1325.593	1002.612
351.606	15.820	1324.180	1001.161
352.621	15.824	1323.697	1000.727
353.635	15.818	1322.223	999.493
354.650	15.821	1321.087	998.562
355.665	15.803	1320.590	997.992
356.679	15.841	1319.218	997.088
357.694	15.856	1318.274	996.377
358.708	15.854	1317.544	995.728
359.723	15.874	1316.412	994.900
360.738	15.937	1315.427	994.438
361.752	15.884	1314.729	993.512
362.767	15.968	1313.380	992.897
363.781	15.903	1312.268	991.587
364.796	15.982	1311.869	991.662
365.810	16.034	1311.063	991.275
366.825	16.020	1310.577	990.735
367.840	16.065	1309.727	990.267
368.854	16.231	1308.676	990.362
369.869	16.192	1308.340	989.791
370.883	16.150	1307.693	988.965
371.898	16.171	1307.120	988.572
372.913	16.289	1306.056	988.367
373.927	16.212	1304.943	986.986
374.942	16.175	1304.261	986.171
375.956	16.224	1303.597	985.866
376.971	16.273	1302.904	985.542
377.986	16.264	1301.958	984.685
379.000	16.280	1301.042	983.998
380.015	16.371	1300.086	983.718
381.029	16.308	1299.542	982.852
382.044	16.470	1298.900	983.221
383.059	16.487	1298.214	982.717
384.073	16.457	1297.573	981.972
385.088	16.548	1297.053	982.014
386.102	16.470	1296.581	981.120
387.117	16.587	1295.364	980.788
388.132	16.504	1294.542	979.602
389.146	16.499	1293.699	978.846
390.161	16.334	1292.890	977.194
391.175	16.428	1292.427	977.298
392.190	16.348	1291.615	976.136
393.205	16.443	1290.473	975.739
394.219	16.548	1289.520	975.534
395.234	16.535	1288.276	974.430
396.248	16.530	1287.066	973.403
397.263	16.546	1285.647	972.335
398.278	16.483	1284.409	970.951
399.292	16.623	1283.479	970.966
400.307	16.427	1282.633	969.119
401.321	16.440	1281.511	968.255
402.336	16.429	1280.209	967.128
403.350	16.478	1279.667	966.911
404.365	16.498	1278.730	966.231
405.380	16.417	1277.611	964.840
406.394	16.514	1276.899	964.766
407.409	16.591	1276.262	964.643
408.423	16.671	1275.461	964.407
409.438	16.611	1274.924	963.570
410.453	16.689	1274.056	963.274
411.467	16.720	1273.703	963.097
412.482	16.863	1272.945	963.251
413.496	16.839	1272.269	962.519
414.511	16.762	1271.646	961.525
415.526	16.852	1270.862	961.362
416.540	16.794	1270.277	960.501
417.555	16.930	1269.423	960.545
418.569	17.000	1268.563	960.204
419.584	16.991	1268.236	959.822
420.599	17.060	1267.314	959.427
421.613	94.097	1351.179	1464.110
422.628	91.711	1363.367	1464.189
