DTS Sentinel unit serial number:	SN413079Multiplexer serial number:	ORYXHardware model number:	OX4-SRSoftware version number:	ORYX F/W v4.00 Oryx Data Collector v3.7.2.0data status	okinstallation	princeton_trtdifferential loss correction	single-endedforward channel	channel 4reverse channel	N/Adate	2019/09/15time	12:21:35forward acquisition time	60.00reverse acquisition time	0.00gamma	496.2192k internal	0.2294k external	0.2294temperature offset calibration	1.0017default loss term (dB/km)	0.3790temperature slope calibration	1.0000multiplexer offset coefficient	1.0000multiplexer slope coefficient	1.0000fibre end	0.00T internal ref (°C)	34.81T ext. ref 1 (°C)	5.05T ext. ref 2 (°C)	32.15length (m)	temperature (°C)	Stokes	anti-Stokes-747.200	-28.539	0.308	0.182
-746.185	-73.013	-0.159	-0.060
-745.171	14.778	0.143	0.115
-744.156	150.339	-0.137	0.190
-743.142	-195.413	0.009	0.000
-742.127	-79.005	-0.157	0.055
-741.112	131.699	0.059	-0.077
-740.098	-200.000	0.010	0.353
-739.083	-24.577	-0.171	0.104
-738.069	8.096	-0.165	0.126
-737.054	-200.000	-0.010	-0.265
-736.039	-200.000	0.045	-0.341
-735.025	108.383	0.158	0.193
-734.010	-134.471	-0.211	0.026
-732.996	-16.853	0.117	-0.075
-731.981	-68.834	-0.149	0.059
-730.966	55.963	-0.079	-0.078
-729.952	-200.000	-0.062	0.435
-728.937	-97.156	0.272	-0.073
-727.923	-200.000	0.003	-0.068
-726.908	-5.027	-0.088	0.062
-725.894	-114.192	-0.247	-0.049
-724.879	18.878	-0.192	0.158
-723.864	-173.518	-0.203	-0.006
-722.850	-9.039	-0.171	-0.117
-721.835	125.779	-0.105	-0.136
-720.821	-75.022	-0.464	-0.170
-719.806	169.254	0.059	-0.087
-718.791	99.499	0.095	0.112
-717.777	347.976	0.205	-0.413
-716.762	-19.678	-0.153	-0.097
-715.748	36.370	-0.108	0.097
-714.733	167.004	0.094	0.136
-713.718	-200.000	-0.027	-0.135
-712.704	138.273	0.117	0.157
-711.689	-81.318	-0.213	0.072
-710.675	-200.000	-0.013	0.289
-709.660	769.271	-0.053	0.149
-708.645	19.604	-0.064	0.052
-707.631	-200.000	0.017	-0.449
-706.616	-62.735	0.066	0.028
-705.602	106.663	-0.061	0.074
-704.587	-156.720	-0.152	0.010
-703.572	-106.294	-0.191	0.044
-702.558	-200.000	0.011	-0.233
-701.543	-91.316	-0.316	-0.092
-700.529	96.683	0.116	0.136
-699.514	146.638	-0.173	0.238
-698.499	-66.862	-0.146	-0.059
-697.485	-115.028	0.189	-0.037
-696.470	365.473	-0.039	0.079
-695.456	67.021	-0.048	0.050
-694.441	-200.000	0.010	0.138
-693.426	228.305	-0.105	-0.175
-692.412	-200.000	0.032	-0.185
-691.397	-200.000	-0.007	-0.153
-690.383	63.957	0.106	-0.108
-689.368	-17.174	0.210	-0.135
-688.354	-200.000	0.048	-0.343
-687.339	785.535	-0.032	-0.089
-686.324	248.847	-0.074	0.128
-685.310	31.945	0.457	-0.402
-684.295	-70.668	0.203	-0.078
-683.281	800.000	-0.029	-0.118
-682.266	-200.000	-0.037	0.243
-681.251	-84.231	-0.211	0.068
-680.237	-200.000	-0.032	0.174
-679.222	-155.859	0.139	-0.009
-678.208	142.361	0.167	0.226
-677.193	107.467	0.261	0.317
-676.178	142.979	0.150	0.203
-675.164	-166.126	0.483	0.021
-674.149	-63.532	0.180	-0.075
-673.135	-68.731	-0.687	0.271
-672.120	800.000	-0.004	0.015
-671.105	290.628	-0.174	-0.321
-670.091	-200.000	-0.010	0.151
-669.076	-23.830	0.078	-0.048
-668.062	-110.658	-0.233	-0.049
-667.047	-124.680	-0.179	-0.028
-666.032	-200.000	-0.008	0.431
-665.018	-34.609	0.027	-0.015
-664.003	-62.188	-0.310	0.132
-662.989	21.538	-0.179	-0.148
-661.974	16.856	-0.226	-0.183
-660.959	-59.656	-0.118	-0.052
-659.945	800.000	0.037	0.104
-658.930	800.000	0.021	0.084
-657.916	-200.000	0.028	-0.143
-656.901	-200.000	-0.004	-0.244
-655.886	-133.060	-0.246	-0.032
-654.872	-112.259	-0.184	0.038
-653.857	227.180	0.043	0.071
-652.843	800.000	0.068	0.203
-651.828	-55.914	-0.206	-0.094
-650.814	483.020	-0.133	0.308
-649.799	156.001	0.051	0.072
-648.784	-56.854	-0.033	0.015
-647.770	-106.024	-0.253	-0.058
-646.755	-106.871	-0.220	-0.050
-645.741	-200.000	0.030	-0.158
-644.726	25.864	-0.134	-0.114
-643.711	-154.057	-0.214	0.015
-642.697	-200.000	0.040	-0.219
-641.682	800.000	0.110	0.315
-640.668	330.442	0.152	0.297
-639.653	52.329	0.085	0.083
-638.638	135.510	-0.125	0.166
-637.624	19.860	0.338	0.277
-636.609	-200.000	-0.012	0.244
-635.595	54.293	0.064	-0.063
-634.580	-200.000	0.015	0.386
-633.565	800.000	0.123	-0.423
-632.551	365.617	-0.066	-0.135
-631.536	254.758	-0.261	-0.454
-630.522	240.453	-0.117	-0.198
-629.507	213.488	-0.070	0.113
-628.492	426.627	0.148	0.325
-627.478	-98.533	-0.304	-0.079
-626.463	1.806	0.183	-0.134
-625.449	-26.722	-0.240	-0.143
-624.434	38.242	-0.120	0.109
-623.419	-105.732	-0.079	-0.018
-622.405	-84.856	-0.047	-0.015
-621.390	671.564	0.132	0.348
-620.376	177.785	-0.226	0.336
-619.361	57.922	-0.126	0.126
-618.346	-200.000	-0.046	0.342
-617.332	24.416	0.155	0.130
-616.317	-62.654	-0.283	0.119
-615.303	800.000	0.150	0.478
-614.288	135.278	0.141	0.187
-613.273	11.665	-0.265	0.207
-612.259	-59.524	-0.332	0.145
-611.244	-200.000	0.051	0.459
-610.230	-18.463	0.243	0.154
-609.215	-122.806	0.139	-0.023
-608.201	-200.000	-0.019	-0.145
-607.186	-200.000	-0.001	0.091
-606.171	-118.205	0.292	0.053
-605.157	-91.952	0.236	0.068
-604.142	203.677	0.128	-0.202
-603.128	-28.106	-0.142	0.084
-602.113	800.000	0.007	-0.022
-601.098	800.000	0.084	0.327
-600.084	287.585	0.139	0.255
-599.069	-57.462	-0.043	-0.019
-598.055	444.713	0.042	-0.093
-597.040	32.156	-0.075	-0.066
-596.025	-104.691	-0.167	0.039
-595.011	62.268	-0.045	-0.046
-593.996	598.569	-0.087	-0.220
-592.982	800.000	-0.052	-0.190
-591.967	-83.329	0.040	-0.013
-590.952	-43.351	0.315	0.162
-589.938	-183.453	-0.227	0.004
-588.923	-18.425	-0.206	-0.131
-587.909	-7.067	0.108	-0.074
-586.894	-200.000	-0.016	-0.510
-585.879	-31.880	0.027	0.015
-584.865	-148.658	-0.327	-0.027
-583.850	800.000	0.097	-0.348
-582.836	-200.000	-0.078	-0.355
-581.821	635.317	-0.040	-0.104
-580.806	-94.188	-0.247	-0.069
-579.792	50.036	0.075	0.072
-578.777	-176.697	0.197	-0.005
-577.763	121.113	0.144	0.182
-576.748	-18.736	0.283	-0.179
-575.733	-46.960	-0.257	-0.127
-574.719	800.000	0.022	0.088
-573.704	800.000	0.102	-0.322
-572.690	800.000	0.060	-0.176
-571.675	223.881	-0.178	0.291
-570.661	214.628	0.027	-0.044
-569.646	-121.918	-0.259	-0.043
-568.631	102.181	0.171	-0.203
-567.617	-120.451	-0.120	0.021
-566.602	-113.908	0.222	-0.044
-565.588	-48.108	-0.204	0.100
-564.573	12.278	0.089	0.070
-563.558	127.621	0.164	0.211
-562.544	470.388	0.062	-0.141
-561.529	168.007	0.094	-0.136
-560.515	45.434	0.036	0.034
-559.500	-200.000	0.045	-0.270
-558.485	180.790	-0.049	-0.073
-557.471	-87.817	0.304	0.093
-556.456	-107.972	-0.566	0.125
-555.442	-30.776	0.157	0.090
-554.427	108.980	0.252	-0.306
-553.412	-93.783	0.326	-0.091
-552.398	-200.000	0.031	-0.241
-551.383	458.754	0.032	-0.072
-550.369	-26.212	-0.187	-0.111
-549.354	-81.372	-0.182	-0.061
-548.339	186.258	0.132	0.199
-547.325	72.297	-0.127	0.134
-546.310	-200.000	-0.007	-0.077
-545.296	800.000	-0.035	-0.106
-544.281	-47.457	-0.165	-0.082
-543.266	710.334	-0.043	-0.116
-542.252	160.288	0.105	-0.149
-541.237	-74.677	0.103	-0.037
-540.223	-67.340	-0.477	-0.190
-539.208	19.861	0.351	-0.287
-538.193	7.669	0.194	0.147
-537.179	442.465	0.175	0.389
-536.164	-38.729	-0.224	0.120
-535.150	80.560	0.116	-0.126
-534.135	37.446	0.146	0.132
-533.121	42.449	-0.061	-0.057
-532.106	63.464	0.201	0.205
-531.091	126.830	-0.164	-0.211
-530.077	14.683	0.296	-0.234
-529.062	-89.621	-0.108	0.032
-528.048	122.470	-0.022	0.028
-527.033	-152.373	-0.035	-0.003
-526.018	-33.782	-0.313	-0.175
-525.004	205.434	0.261	-0.411
-523.989	76.784	-0.083	0.090
-522.975	54.308	-0.142	-0.139
-521.960	-46.422	0.359	0.179
-520.945	-63.872	0.168	0.070
-519.931	30.101	0.110	0.095
-518.916	-174.374	-0.290	-0.008
-517.902	184.593	-0.073	-0.109
-516.887	117.593	0.070	0.087
-515.872	-111.218	0.068	0.014
-514.858	137.686	0.142	-0.189
-513.843	-135.244	0.120	0.015
-512.829	-200.000	0.014	0.069
-511.814	677.189	-0.130	-0.343
-510.799	-145.161	0.263	-0.024
-509.785	-108.417	0.098	-0.021
-508.770	-200.000	0.010	-0.240
-507.756	34.418	0.208	0.184
-506.741	-200.000	0.060	0.340
-505.726	43.986	0.278	0.258
-504.712	40.998	-0.120	-0.110
-503.697	-101.921	0.068	0.017
-502.683	800.000	0.119	-0.351
-501.668	309.444	0.075	-0.141
-500.653	-186.128	0.160	0.002
-499.639	-200.000	0.024	-0.140
-498.624	676.869	0.034	-0.090
-497.610	39.950	-0.135	0.123
-496.595	800.000	0.050	0.194
-495.581	-60.482	0.127	-0.055
-494.566	800.000	-0.050	-0.193
-493.551	236.973	0.130	0.219
-492.537	668.823	-0.043	-0.113
-491.522	74.333	0.039	0.041
-490.508	-162.844	-0.096	0.005
-489.493	539.573	0.067	0.161
-488.478	-141.811	0.275	-0.028
-487.464	-88.163	0.117	-0.035
-486.449	-79.583	0.287	-0.098
-485.435	646.706	0.063	-0.163
-484.420	-72.286	-0.127	-0.048
-483.405	52.116	0.094	-0.091
-482.391	171.656	-0.245	-0.356
-481.376	-200.000	-0.016	-0.149
-480.362	800.000	-0.040	0.164
-479.347	-26.633	-0.238	0.141
-478.332	-94.478	-0.059	0.016
-477.318	-200.000	-0.019	-0.200
-476.303	-75.817	0.333	-0.119
-475.289	149.000	0.155	0.211
-474.274	-200.000	-0.023	-0.340
-473.259	-200.000	0.028	0.253
-472.245	-151.909	-0.243	0.018
-471.230	304.460	-0.082	0.153
-470.216	119.101	0.228	-0.286
-469.201	-8.832	0.412	-0.280
-468.186	-135.019	-0.243	-0.030
-467.172	119.819	-0.220	-0.276
-466.157	-200.000	-0.014	0.073
-465.143	-103.597	0.104	-0.025
-464.128	-67.168	0.291	0.116
-463.113	-58.250	-0.358	-0.158
-462.099	226.355	-0.183	0.301
-461.084	19.444	0.272	0.221
-460.070	-92.779	-0.252	-0.071
-459.055	-23.096	-0.260	0.158
-458.040	75.286	-0.100	0.107
-457.026	-112.412	-0.149	0.030
-456.011	-200.000	0.071	0.370
-454.997	535.006	0.133	0.318
-453.982	47.216	-0.164	-0.155
-452.968	-32.045	0.179	-0.101
-451.953	-200.000	0.036	-0.243
-450.938	-111.463	-0.214	0.044
-449.924	184.537	-0.142	-0.213
-448.909	109.891	0.190	0.231
-447.895	800.000	-0.017	-0.070
-446.880	-112.120	0.266	0.054
-445.865	131.711	-0.274	0.356
-444.851	27.349	-0.232	0.197
-443.836	-1.046	0.261	0.187
-442.822	336.723	-0.152	0.299
-441.807	140.702	0.181	0.241
-440.792	-179.170	0.135	0.003
-439.778	394.424	-0.228	-0.480
-438.763	11.093	0.107	0.083
-437.749	-200.000	-0.043	-0.252
-436.734	13.383	-0.089	-0.070
-435.719	648.083	-0.161	-0.417
-434.705	-54.238	-0.374	0.172
-433.690	-98.342	0.220	0.057
-432.676	34.233	-0.259	-0.228
-431.661	-11.969	0.177	-0.117
-430.646	-102.242	0.153	-0.037
-429.632	791.437	0.085	0.237
-428.617	194.793	-0.130	-0.199
-427.603	-200.000	-0.072	0.392
-426.588	-23.206	-0.159	-0.097
-425.573	632.048	0.033	0.085
-424.559	-113.210	-0.255	0.051
-423.544	-14.234	-0.242	0.158
-422.530	421.725	-0.127	0.276
-421.515	14.285	-0.128	0.101
-420.500	-98.011	0.086	-0.022
-419.486	-185.157	-0.472	0.007
-418.471	122.274	0.194	0.245
-417.457	22.030	0.119	0.098
-416.442	298.216	0.135	0.251
-415.428	-69.874	0.209	0.080
-414.413	178.846	0.190	-0.281
-413.398	-78.578	-0.137	0.047
-412.384	391.489	-0.107	0.225
-411.369	168.772	-0.137	-0.198
-410.355	-26.850	0.272	0.161
-409.340	-77.283	0.233	-0.082
-408.325	82.166	-0.100	-0.109
-407.311	800.000	0.040	-0.113
-406.296	372.351	0.165	-0.339
-405.282	7.918	0.129	-0.097
-404.267	-62.826	-0.186	0.078
-403.252	800.000	0.137	0.469
-402.238	-37.173	0.168	-0.090
-401.223	-200.000	-0.030	-0.172
-400.209	252.771	-0.121	0.208
-399.194	-12.385	0.131	0.086
-398.179	118.176	0.052	0.064
-397.165	-200.000	0.020	-0.119
-396.150	-0.628	-0.159	0.114
-395.136	110.767	-0.129	-0.156
-394.121	-200.000	0.002	0.231
-393.106	800.000	0.014	-0.042
-392.092	800.000	0.065	0.241
-391.077	-181.868	0.347	0.007
-390.063	163.726	-0.102	-0.144
-389.048	-107.966	-0.049	0.011
-388.033	42.950	-0.099	-0.091
-387.019	-136.451	0.288	-0.034
-386.004	260.232	0.019	0.033
-384.990	-31.206	-0.095	0.054
-383.975	143.036	-0.042	-0.056
-382.960	-34.085	-0.048	0.026
-381.946	-59.588	-0.127	0.055
-380.931	-63.909	0.262	-0.108
-379.917	800.000	-0.031	-0.087
-378.902	800.000	-0.113	-0.419
-377.888	-65.718	-0.316	-0.127
-376.873	800.000	0.097	0.389
-375.858	57.535	-0.230	-0.226
-374.844	-200.000	0.041	0.299
-373.829	-61.388	0.197	-0.084
-372.815	-200.000	0.003	-0.083
-371.800	799.969	0.040	-0.110
-370.785	26.789	0.069	0.059
-369.771	-123.178	-0.318	-0.051
-368.756	-106.120	0.369	-0.084
-367.742	-200.000	0.055	0.339
-366.727	-62.378	0.090	0.038
-365.712	25.681	0.175	0.147
-364.698	800.000	-0.093	0.266
-363.683	800.000	0.050	0.183
-362.669	-144.347	0.079	-0.007
-361.654	-62.299	-0.172	-0.072
-360.639	-200.000	0.055	-0.321
-359.625	768.049	-0.008	-0.023
-358.610	45.858	0.063	0.058
-357.596	72.666	-0.080	0.085
-356.581	-92.063	0.141	-0.040
-355.566	-153.153	-0.100	-0.007
-354.552	92.246	-0.130	-0.147
-353.537	-200.000	0.013	-0.469
-352.523	249.292	0.104	-0.177
-351.508	584.385	0.064	0.159
-350.493	-101.249	-0.400	-0.098
-349.479	235.946	-0.172	-0.287
-348.464	113.731	0.080	0.098
-347.450	-88.896	-0.340	0.101
-346.435	-24.432	0.141	-0.084
-345.420	800.000	-0.044	0.183
-344.406	-200.000	0.016	0.501
-343.391	-5.636	-0.065	0.045
-342.377	78.573	0.122	0.131
-341.362	800.000	-0.118	0.333
-340.348	-16.814	-0.255	-0.162
-339.333	64.641	-0.026	0.026
-338.318	-200.000	-0.100	-0.445
-337.304	-95.197	-0.325	0.088
-336.289	-30.397	-0.118	0.067
-335.275	-172.775	-0.102	0.003
-334.260	-138.198	-0.156	-0.017
-333.245	800.000	0.066	-0.287
-332.231	-1.274	0.037	0.027
-331.216	107.903	0.122	0.146
-330.202	800.000	-0.062	-0.266
-329.187	-47.451	0.267	-0.130
-328.172	-75.207	-0.051	-0.018
-327.158	354.478	0.097	-0.194
-326.143	-78.772	0.127	-0.043
-325.129	800.000	-0.072	0.230
-324.114	118.618	0.065	-0.081
-323.099	-9.017	-0.035	0.023
-322.085	401.057	-0.152	0.321
-321.070	-12.753	0.205	-0.134
-320.056	63.745	-0.115	-0.116
-319.041	93.139	-0.082	0.093
-318.026	-1.796	0.186	0.131
-317.012	22.796	-0.071	-0.059
-315.997	47.148	-0.086	-0.080
-314.983	790.704	0.134	0.372
-313.968	163.073	-0.079	0.112
-312.953	-2.441	0.143	0.101
-311.939	800.000	0.078	-0.219
-310.924	19.839	0.184	0.149
-309.910	136.242	0.196	0.257
-308.895	226.284	0.184	-0.301
-307.880	-13.287	0.271	-0.177
-306.866	800.000	0.074	-0.243
-305.851	9.717	-0.162	-0.124
-304.837	92.885	0.072	-0.082
-303.822	800.000	-0.039	-0.137
-302.807	-21.833	-0.210	-0.128
-301.793	357.182	0.084	0.169
-300.778	-61.616	0.289	-0.122
-299.764	82.933	0.128	-0.140
-298.749	172.354	0.052	0.074
-297.735	-200.000	-0.008	0.173
-296.720	147.640	0.195	0.264
-295.705	-88.641	0.086	0.026
-294.691	-94.344	0.206	-0.057
-293.676	14.473	-0.248	0.194
-292.662	514.698	-0.082	0.191
-291.647	-124.820	0.145	-0.023
-290.632	-200.000	-0.009	-0.319
-289.618	-117.553	-0.249	0.045
-288.603	-106.087	0.160	0.036
-287.589	17.061	0.042	0.034
-286.574	90.703	0.139	-0.157
-285.559	-157.366	-0.081	-0.005
-284.545	-200.000	0.001	-0.066
-283.530	-150.246	-0.147	-0.011
-282.516	-99.961	-0.426	-0.107
-281.501	-200.000	-0.063	-0.426
-280.486	-40.956	-0.276	0.143
-279.472	93.892	-0.005	0.006
-278.457	-88.789	0.470	0.140
-277.443	122.166	0.135	-0.169
-276.428	-200.000	-0.021	-0.175
-275.413	-83.914	0.018	0.006
-274.399	800.000	-0.058	-0.217
-273.384	-200.000	0.005	-0.170
-272.370	-105.496	-0.184	-0.042
-271.355	800.000	-0.010	-0.029
-270.340	-129.162	-0.328	0.046
-269.326	-73.773	-0.317	-0.116
-268.311	-135.542	-0.115	0.014
-267.297	78.198	-0.050	-0.053
-266.282	-200.000	0.015	-0.155
-265.267	90.803	-0.233	-0.262
-264.253	795.101	0.108	0.299
-263.238	800.000	-0.074	0.298
-262.224	-87.632	-0.125	-0.038
-261.209	-200.000	0.053	-0.302
-260.195	-200.000	-0.008	-0.090
-259.180	-200.000	0.040	-0.262
-258.165	-171.032	-0.168	0.006
-257.151	-200.000	-0.039	-0.276
-256.136	-200.000	-0.016	-0.268
-255.122	-71.953	0.067	0.025
-254.107	257.100	0.105	-0.180
-253.092	-200.000	-0.012	-0.184
-252.078	-200.000	-0.068	-0.546
-251.063	275.494	0.082	0.146
-250.049	354.123	-0.084	0.168
-249.034	24.181	0.379	-0.314
-248.019	9.344	-0.207	-0.157
-247.005	-200.000	0.001	-0.155
-245.990	800.000	-0.102	-0.363
-244.976	-200.000	-0.010	-0.201
-243.961	21.024	0.178	-0.144
-242.946	534.574	-0.097	-0.231
-241.932	-118.078	-0.216	0.039
-240.917	800.000	0.098	0.303
-239.903	-22.098	0.264	-0.161
-238.888	800.000	-0.019	-0.084
-237.873	47.033	0.192	-0.179
-236.859	800.000	0.041	-0.166
-235.844	-173.254	0.042	0.001
-234.830	397.078	0.062	0.129
-233.815	-119.767	0.396	-0.068
-232.800	-124.484	0.332	-0.052
-231.786	405.618	-0.083	0.175
-230.771	-132.200	-0.121	-0.016
-229.757	-106.233	0.254	0.057
-228.742	245.863	0.112	0.188
-227.727	-107.283	-0.466	0.103
-226.713	58.271	-0.278	0.273
-225.698	-103.044	0.143	-0.034
-224.684	-145.378	-0.278	-0.025
-223.669	142.835	0.166	-0.221
-222.655	-171.096	0.240	0.008
-221.640	-200.000	0.022	0.109
-220.625	16.778	0.042	-0.033
-219.611	800.000	0.055	0.156
-218.596	-114.434	-0.160	0.031
-217.582	-200.000	0.017	-0.206
-216.567	-35.636	0.213	-0.116
-215.552	800.000	-0.101	0.360
-214.538	-26.840	0.177	0.103
-213.523	-86.495	-0.207	-0.064
-212.509	625.552	0.161	0.406
-211.494	-200.000	-0.035	0.391
-210.479	-58.642	-0.257	-0.111
-209.465	1.424	0.341	0.246
-208.450	2.945	0.300	0.218
-207.436	244.805	0.071	0.120
-206.421	-162.691	-0.314	-0.015
-205.406	336.087	0.025	-0.048
-204.392	84.345	-0.203	0.223
-203.377	-166.412	0.146	-0.006
-202.363	-49.492	0.161	0.077
-201.348	-107.194	0.060	-0.013
-200.333	-113.906	-0.262	0.051
-199.319	-174.707	-0.029	0.001
-198.304	209.824	0.045	0.071
-197.290	18.408	-0.052	-0.042
-196.275	-164.371	-0.201	-0.009
-195.260	-85.071	0.300	-0.094
-194.246	800.000	0.078	0.328
-193.231	800.000	-0.035	-0.097
-192.217	252.292	0.038	-0.065
-191.202	-200.000	0.001	0.196
-190.187	118.603	-0.189	0.233
-189.173	-200.000	0.000	-0.011
-188.158	-94.688	0.293	0.080
-187.144	-24.034	-0.279	0.167
-186.129	150.499	-0.212	-0.288
-185.114	-200.000	0.025	0.158
-184.100	325.417	0.237	0.453
-183.085	368.863	0.098	-0.198
-182.071	-177.525	-0.237	0.006
-181.056	135.088	0.064	0.083
-180.042	-33.894	-0.137	0.076
-179.027	-94.311	0.065	-0.018
-178.012	800.000	0.076	0.210
-176.998	433.524	0.118	-0.257
-175.983	-85.386	0.237	0.074
-174.969	236.121	0.064	-0.105
-173.954	535.285	-0.115	0.274
-172.939	53.144	-0.194	-0.186
-171.925	-156.181	-0.247	0.016
-170.910	152.732	-0.113	-0.155
-169.896	-90.565	-0.233	0.068
-168.881	800.000	0.115	0.406
-167.866	-0.068	-0.217	0.154
-166.852	800.000	-0.047	-0.174
-165.837	-127.649	-0.460	-0.066
-164.823	159.072	0.112	-0.156
-163.808	238.344	-0.115	-0.191
-162.793	54.219	-0.270	0.260
-161.779	-111.186	-0.136	-0.028
-160.764	-200.000	-0.005	0.055
-159.750	-4.274	0.163	0.113
-158.735	15.274	-0.070	0.055
-157.720	-200.000	0.001	0.223
-156.706	236.987	-0.105	0.174
-155.691	85.224	0.296	0.324
-154.677	264.567	0.019	-0.033
-153.662	-200.000	0.003	0.022
-152.647	-200.000	-0.002	-0.053
-151.633	240.402	0.216	0.359
-150.618	-44.531	0.141	0.070
-149.604	-200.000	0.054	-0.235
-148.589	-200.000	0.021	-0.121
-147.574	-93.388	0.146	0.041
-146.560	-65.109	-0.333	-0.134
-145.545	-200.000	-0.004	0.131
-144.531	-90.451	0.057	0.016
-143.516	-137.530	0.224	0.025
-142.502	112.408	0.057	0.069
-141.487	136.503	0.109	-0.142
-140.472	-38.365	-0.094	0.050
-139.458	-62.302	0.077	-0.032
-138.443	-97.826	-0.221	0.057
-137.429	51.061	-0.145	-0.138
-136.414	-200.000	0.005	-0.147
-135.399	101.151	0.279	-0.324
-134.385	800.000	0.056	0.170
-133.370	218.478	0.125	0.199
-132.356	-200.000	-0.111	-0.000
-131.341	259.442	0.118	0.203
-130.326	-200.000	-0.005	0.446
-129.312	-31.887	-0.104	0.058
-128.297	637.056	-0.155	0.393
-127.283	-147.052	0.135	-0.012
-126.268	-200.000	0.006	0.151
-125.253	-200.000	0.031	-0.202
-124.239	-181.061	-0.279	0.006
-123.224	-200.000	0.028	-0.198
-122.210	-200.000	0.027	-0.160
-121.195	-48.868	-0.352	0.168
-120.180	-100.911	-0.091	0.022
-119.166	-152.925	-0.248	-0.018
-118.151	147.888	0.094	0.126
-117.137	162.899	-0.168	-0.235
-116.122	415.782	0.114	-0.242
-115.107	-200.000	0.029	0.301
-114.093	345.862	-0.123	-0.242
-113.078	-62.145	0.247	0.103
-112.064	7.782	0.083	-0.062
-111.049	800.000	-0.077	0.226
-110.034	-7.093	0.052	0.035
-109.020	800.000	-0.023	0.074
-108.005	-41.893	-0.233	0.119
-106.991	-46.837	-0.201	-0.098
-105.976	274.733	0.057	0.100
-104.962	800.000	-0.153	0.520
-103.947	-200.000	0.042	-0.285
-102.932	800.000	-0.086	0.268
-101.918	279.599	-0.079	0.140
-100.903	-125.030	-0.299	0.046
-99.889	800.000	0.078	0.217
-98.874	-200.000	-0.022	0.310
-97.859	-186.779	-0.112	0.002
-96.845	-43.925	-0.046	0.023
-95.830	800.000	0.108	-0.377
-94.816	-130.723	-0.137	0.018
-93.801	228.080	-0.126	-0.205
-92.786	-103.558	-0.143	0.034
-91.772	-89.576	-0.077	0.022
-90.757	159.970	0.122	0.169
-89.743	-28.778	-0.253	0.145
-88.728	-200.000	0.045	0.340
-87.713	-25.040	-0.317	-0.188
-86.699	800.000	0.078	0.246
-85.684	18.537	0.269	0.214
-84.670	276.299	0.076	-0.134
-83.655	800.000	0.010	0.043
-82.640	-72.219	-0.223	-0.083
-81.626	-200.000	-0.009	0.126
-80.611	-83.261	-0.130	-0.042
-79.597	112.744	-0.122	0.147
-78.582	-121.601	0.199	0.033
-77.567	115.608	-0.207	0.252
-76.553	-15.696	0.216	0.137
-75.538	310.628	-0.113	0.211
-74.524	-118.915	-0.103	-0.018
-73.509	-200.000	0.016	-0.085
-72.494	-200.000	-0.005	-0.032
-71.480	-119.887	-0.019	-0.003
-70.465	459.941	-0.079	-0.175
-69.451	-99.091	-0.149	-0.038
-68.436	-139.682	0.234	0.025
-67.422	-12.991	0.090	0.058
-66.407	-200.000	-0.026	-0.251
-65.392	-78.942	-0.038	-0.013
-64.378	-200.000	-0.008	0.087
-63.363	800.000	0.042	-0.132
-62.349	27.681	0.147	-0.123
-61.334	62.146	-0.798	-0.792
-60.319	-12.882	0.330	0.214
-59.305	-200.000	-0.126	-0.934
-58.290	-200.000	0.330	1.589
-57.276	800.000	0.439	1.785
-56.261	-200.000	94.433	550.411
-55.246	607.265	1381.158	3428.066
-54.232	184.401	2601.115	3834.673
-53.217	111.415	2344.004	2812.676
-52.203	41.506	2091.333	1883.926
-51.188	36.566	2003.235	1759.663
-50.173	34.921	1984.768	1728.520
-49.159	48.734	2035.768	1899.748
-48.144	51.393	2055.268	1942.243
-47.130	37.219	2013.114	1774.030
-46.115	34.800	2001.196	1741.455
-45.100	34.731	1998.153	1738.109
-44.086	34.724	1995.833	1735.957
-43.071	34.625	1993.255	1732.750
-42.057	34.607	1990.990	1730.549
-41.042	34.621	1989.232	1729.076
-40.027	34.680	1987.308	1727.872
-39.013	34.674	1985.370	1726.061
-37.998	34.679	1983.533	1724.435
-36.984	34.746	1981.144	1722.901
-35.969	34.740	1979.676	1721.503
-34.954	34.790	1977.438	1719.938
-33.940	34.819	1976.083	1718.949
-32.925	34.882	1974.133	1717.747
-31.911	34.849	1972.621	1716.067
-30.896	34.808	1971.072	1714.288
-29.881	34.841	1969.330	1713.003
-28.867	34.866	1967.729	1711.761
-27.852	34.789	1966.308	1709.768
-26.838	34.881	1964.013	1708.529
-25.823	34.769	1962.764	1706.373
-24.809	34.802	1960.915	1704.995
-23.794	34.773	1959.259	1703.228
-22.779	34.823	1957.122	1701.744
-21.765	34.766	1955.667	1699.908
-20.750	34.812	1953.887	1698.700
-19.736	34.854	1952.269	1697.597
-18.721	34.854	1951.052	1696.477
-17.706	34.930	1948.997	1695.291
-16.692	34.820	1947.562	1693.010
-15.677	34.862	1946.050	1691.993
-14.663	34.955	1943.856	1690.840
-13.648	34.853	1943.521	1689.581
-12.633	34.878	1942.008	1688.420
-11.619	34.810	1940.898	1686.789
-10.604	34.786	1939.283	1685.103
-9.590	34.779	1937.950	1683.822
-8.575	34.782	1936.714	1682.707
-7.560	34.839	1935.290	1681.903
-6.546	34.891	1933.584	1680.810
-5.531	34.864	1932.477	1679.546
-4.517	34.849	1931.473	1678.473
-3.502	34.878	1929.906	1677.296
-2.487	34.871	1928.607	1676.046
-1.473	34.871	1928.215	1675.639
-0.458	34.983	1924.150	1673.013
0.556	34.199	1905.206	1649.444
1.571	30.545	1887.160	1602.247
2.586	26.622	1909.316	1586.619
3.600	25.410	1945.151	1605.430
4.615	24.468	1940.382	1592.957
5.629	19.059	1838.313	1463.169
6.644	9.921	1717.723	1294.138
7.659	5.519	1679.072	1230.357
8.673	5.169	1675.700	1225.034
9.688	5.088	1674.470	1223.389
10.702	4.965	1673.336	1221.489
11.717	4.979	1669.835	1218.934
12.731	5.502	1669.513	1222.678
13.746	11.400	1683.886	1279.467
14.761	18.287	1698.201	1344.504
15.775	19.373	1698.114	1352.846
16.790	18.144	1694.337	1340.087
17.804	17.030	1691.007	1328.621
18.819	16.044	1687.532	1318.065
19.834	15.374	1685.084	1310.807
20.848	15.064	1683.683	1307.176
21.863	14.870	1681.660	1303.978
22.877	14.563	1680.025	1300.204
23.892	14.374	1678.816	1297.680
24.907	14.244	1677.724	1295.708
25.921	14.298	1676.380	1294.972
26.936	14.234	1675.676	1293.819
27.950	14.354	1674.700	1293.881
28.965	14.341	1673.756	1292.939
29.980	14.286	1673.814	1292.446
30.994	14.409	1672.496	1292.267
32.009	14.540	1671.394	1292.316
33.023	14.587	1670.258	1291.686
34.038	14.556	1669.296	1290.590
35.053	14.557	1668.164	1289.608
36.067	14.441	1667.117	1287.788
37.082	14.450	1665.852	1286.766
38.096	14.473	1664.455	1285.748
39.111	14.500	1663.502	1285.108
40.126	14.446	1663.440	1284.528
41.140	14.476	1661.814	1283.392
42.155	14.423	1660.496	1281.854
43.169	14.301	1658.924	1279.589
44.184	14.215	1657.707	1277.873
45.199	14.172	1656.657	1276.623
46.213	14.237	1655.065	1275.780
47.228	14.249	1654.108	1275.023
48.242	14.286	1653.315	1274.581
49.257	14.398	1652.258	1274.512
50.271	14.393	1650.648	1273.115
51.286	14.400	1649.619	1272.266
52.301	14.283	1648.677	1270.531
53.315	14.440	1646.948	1270.282
54.330	14.359	1645.289	1268.280
55.344	14.230	1644.109	1266.271
56.359	14.256	1642.007	1264.743
57.374	14.308	1640.892	1264.161
58.388	14.272	1640.128	1263.192
59.403	14.301	1638.568	1262.096
60.417	14.261	1636.636	1260.192
61.432	14.246	1635.771	1259.304
62.447	14.144	1635.006	1257.835
63.461	14.116	1633.430	1256.296
64.476	14.097	1632.851	1255.599
65.490	14.079	1631.578	1254.369
66.505	14.160	1629.661	1253.394
67.520	14.138	1629.361	1252.886
68.534	14.119	1628.739	1252.159
69.549	14.182	1627.369	1251.465
70.563	14.193	1626.119	1250.480
71.578	14.077	1625.440	1248.973
72.593	14.071	1623.858	1247.604
73.607	14.009	1622.912	1246.301
74.622	13.995	1621.648	1245.111
75.636	14.002	1620.373	1244.080
76.651	13.942	1620.468	1243.592
77.666	13.988	1619.030	1242.724
78.680	13.997	1618.662	1242.397
79.695	14.096	1617.520	1242.153
80.709	14.093	1616.481	1241.221
81.724	14.127	1615.594	1240.681
82.739	14.177	1615.081	1240.551
83.753	14.333	1614.041	1240.804
84.768	14.386	1612.985	1240.278
85.782	14.360	1612.348	1239.485
86.797	14.490	1611.325	1239.554
87.812	14.461	1610.715	1238.757
88.826	14.410	1609.185	1237.092
89.841	14.324	1608.016	1235.448
90.855	14.308	1607.294	1234.668
91.870	14.324	1606.476	1234.047
92.884	14.349	1605.721	1233.545
93.899	14.462	1604.084	1233.010
94.914	14.432	1602.965	1231.825
95.928	14.462	1601.944	1231.148
96.943	14.529	1600.952	1230.772
97.957	14.529	1598.793	1229.008
98.972	14.488	1597.635	1227.707
99.987	14.450	1595.993	1226.053
101.001	14.412	1594.596	1224.595
102.016	14.431	1592.977	1223.382
103.030	14.390	1591.857	1222.112
104.045	14.357	1590.405	1220.644
105.060	14.466	1588.861	1220.153
106.074	14.357	1587.933	1218.533
107.089	14.305	1586.205	1216.718
108.103	14.258	1584.274	1214.792
109.118	14.056	1583.007	1212.233
110.133	14.109	1581.070	1211.030
111.147	14.103	1579.801	1209.911
112.162	14.098	1578.538	1208.798
113.176	14.159	1577.370	1208.241
114.191	14.179	1575.896	1207.151
115.206	14.300	1574.495	1206.849
116.220	14.259	1573.430	1205.624
117.235	14.251	1572.098	1204.438
118.249	14.238	1570.526	1203.033
119.264	14.293	1569.380	1202.452
120.279	14.147	1568.037	1200.258
121.293	14.054	1566.817	1198.552
122.308	14.081	1565.435	1197.580
123.322	14.104	1563.941	1196.495
124.337	14.149	1562.223	1195.398
125.352	14.108	1560.937	1194.016
126.366	14.090	1560.054	1193.107
127.381	14.063	1558.770	1191.827
128.395	14.085	1557.875	1191.192
129.410	14.113	1556.229	1190.032
130.424	14.117	1555.051	1189.051
131.439	14.127	1553.962	1188.189
132.454	14.239	1551.969	1187.353
133.468	14.281	1550.514	1186.440
134.483	14.329	1549.423	1185.837
135.497	14.283	1547.999	1184.315
136.512	14.254	1546.772	1183.069
137.527	14.264	1545.857	1182.334
138.541	14.343	1544.171	1181.503
139.556	14.375	1542.842	1180.604
140.570	14.348	1541.280	1179.116
141.585	14.458	1539.992	1178.806
142.600	14.539	1539.001	1178.516
143.614	14.569	1537.517	1177.481
144.629	14.517	1537.027	1176.636
145.643	14.539	1535.618	1175.611
146.658	14.602	1534.272	1174.922
147.673	14.548	1532.700	1173.228
148.687	14.509	1530.879	1171.462
149.702	14.411	1529.699	1169.762
150.716	14.508	1527.647	1168.772
151.731	14.397	1526.572	1167.069
152.746	14.486	1524.945	1166.342
153.760	14.467	1523.490	1164.993
154.775	14.347	1522.529	1163.322
155.789	14.506	1521.139	1163.261
156.804	14.483	1520.260	1162.327
157.819	14.580	1518.892	1161.854
158.833	14.564	1517.777	1160.786
159.848	14.567	1516.932	1160.057
160.862	14.770	1515.299	1160.121
161.877	14.627	1514.733	1158.590
162.892	14.763	1512.948	1158.065
163.906	14.532	1511.891	1155.551
164.921	14.409	1510.848	1153.803
165.935	14.456	1509.461	1152.963
166.950	14.552	1508.452	1152.760
167.964	14.567	1507.445	1151.988
168.979	14.574	1506.337	1151.092
169.994	14.592	1505.268	1150.291
171.008	14.500	1504.744	1149.158
172.023	14.548	1503.370	1148.335
173.037	14.626	1502.014	1147.736
174.052	14.657	1500.954	1147.036
175.067	14.852	1500.108	1147.631
176.081	14.642	1498.869	1145.138
177.096	14.566	1497.716	1143.636
178.110	14.628	1495.582	1142.329
179.125	14.613	1494.770	1141.505
180.140	14.685	1493.588	1140.993
181.154	14.672	1493.038	1140.385
182.169	14.711	1491.648	1139.484
183.183	14.677	1490.442	1138.234
184.198	14.807	1489.494	1138.291
185.213	14.885	1488.295	1137.808
186.227	14.855	1487.433	1136.847
187.242	14.746	1486.774	1135.496
188.256	14.847	1485.561	1135.159
189.271	14.879	1484.373	1134.371
190.286	15.036	1483.198	1134.433
191.300	14.905	1482.152	1132.649
192.315	14.682	1481.089	1130.227
193.329	14.551	1479.725	1128.199
194.344	14.625	1478.157	1127.405
195.359	14.687	1477.616	1127.304
196.373	14.649	1476.408	1126.033
197.388	14.788	1475.525	1126.191
198.402	14.792	1474.660	1125.460
199.417	14.926	1473.512	1125.388
200.432	14.973	1472.956	1125.179
201.446	15.034	1471.661	1124.499
202.461	15.156	1470.655	1124.453
203.475	15.112	1469.747	1123.361
204.490	15.167	1468.737	1122.862
205.504	15.097	1467.248	1121.154
206.519	15.062	1465.841	1119.744
207.534	15.050	1464.859	1118.815
208.548	15.031	1463.640	1117.661
209.563	15.024	1463.012	1117.036
210.577	15.029	1461.701	1115.967
211.592	15.078	1460.921	1115.601
212.607	15.066	1460.245	1114.904
213.621	15.122	1459.614	1114.696
214.636	15.165	1458.792	1114.256
215.650	15.195	1457.547	1113.404
216.665	15.144	1456.871	1112.451
217.680	15.225	1456.263	1112.424
218.694	15.242	1455.353	1111.745
219.709	15.299	1454.429	1111.321
220.723	15.356	1452.771	1110.333
221.738	15.299	1452.235	1109.445
222.753	15.402	1451.164	1109.215
223.767	15.353	1450.238	1108.084
224.782	15.308	1449.250	1106.933
225.796	15.337	1448.651	1106.565
226.811	15.446	1447.355	1106.200
227.826	15.472	1446.454	1105.586
228.840	15.377	1446.203	1104.671
229.855	15.350	1445.373	1103.758
230.869	15.354	1443.905	1102.564
231.884	15.391	1443.153	1102.138
232.899	15.315	1441.831	1100.530
233.913	15.351	1440.753	1099.846
234.928	15.358	1439.348	1098.722
235.942	15.339	1438.044	1097.506
236.957	15.286	1437.111	1096.349
237.972	15.361	1435.923	1095.837
238.986	15.238	1435.124	1094.329
240.001	15.261	1434.021	1093.540
241.015	15.393	1432.646	1093.253
242.030	15.335	1431.530	1091.930
243.045	15.409	1430.821	1091.774
244.059	15.389	1429.983	1090.908
245.074	15.514	1428.887	1090.787
246.088	15.452	1428.354	1089.879
247.103	15.521	1427.624	1089.673
248.117	15.576	1426.834	1089.334
249.132	15.656	1425.964	1089.090
250.147	15.676	1425.115	1088.473
251.161	15.811	1424.440	1088.735
252.176	15.823	1424.165	1088.505
253.190	15.841	1423.405	1087.944
254.205	15.850	1422.474	1087.197
255.220	15.933	1421.625	1086.988
256.234	15.874	1421.096	1086.105
257.249	16.078	1419.559	1086.147
258.263	16.032	1418.584	1085.011
259.278	15.904	1417.964	1083.619
260.293	16.022	1417.234	1083.720
261.307	16.051	1416.155	1082.985
262.322	16.062	1415.517	1082.473
263.336	16.031	1415.025	1081.802
264.351	16.083	1414.136	1081.362
265.366	16.087	1412.727	1080.217
266.380	16.199	1411.663	1080.020
267.395	16.189	1411.125	1079.451
268.409	16.081	1410.625	1078.283
269.424	16.104	1409.294	1077.314
270.439	16.130	1408.130	1076.496
271.453	16.123	1406.735	1075.293
272.468	16.254	1406.101	1075.548
273.482	16.171	1404.892	1074.000
274.497	16.134	1404.606	1073.445
275.512	16.043	1403.710	1072.088
276.526	16.139	1402.405	1071.605
277.541	16.107	1401.828	1070.867
278.555	16.056	1401.038	1069.848
279.570	16.125	1400.221	1069.563
280.585	16.167	1399.131	1068.905
281.599	16.281	1398.300	1068.900
282.614	16.367	1397.641	1068.847
283.628	16.238	1396.363	1066.959
284.643	16.239	1395.577	1066.270
285.657	16.242	1394.243	1065.173
286.672	16.285	1393.370	1064.680
287.687	16.228	1392.533	1063.588
288.701	16.194	1391.541	1062.524
289.716	16.297	1390.680	1062.422
290.730	16.298	1390.218	1061.980
291.745	16.347	1389.083	1061.329
292.760	16.276	1388.218	1060.127
293.774	16.281	1386.971	1059.113
294.789	16.290	1386.154	1058.449
295.803	16.333	1385.714	1058.293
296.818	16.455	1384.348	1057.920
297.833	16.524	1383.241	1057.407
298.847	16.425	1382.417	1056.068
299.862	16.428	1381.377	1055.195
300.876	16.423	1380.542	1054.433
301.891	16.468	1379.470	1053.803
302.906	16.451	1379.279	1053.461
303.920	16.585	1378.218	1053.389
304.935	16.643	1377.213	1052.889
305.949	16.615	1376.817	1052.319
306.964	16.686	1376.047	1052.081
307.979	16.750	1375.166	1051.709
308.993	16.677	1373.975	1050.254
310.008	16.718	1372.791	1049.507
311.022	16.721	1371.946	1048.785
312.037	16.619	1371.441	1047.679
313.052	16.697	1370.278	1047.182
314.066	16.839	1368.659	1046.727
315.081	16.676	1368.081	1045.188
316.095	16.615	1366.682	1043.648
317.110	16.624	1366.012	1043.099
318.125	16.600	1364.989	1042.077
319.139	16.552	1364.422	1041.257
320.154	16.643	1363.188	1040.784
321.168	16.617	1361.967	1039.601
322.183	16.668	1360.988	1039.072
323.197	16.641	1359.857	1037.951
324.212	16.631	1359.596	1037.602
325.227	16.821	1358.515	1037.848
326.241	16.771	1357.929	1037.001
327.256	16.689	1356.979	1035.684
328.270	16.758	1355.866	1035.165
329.285	16.735	1354.909	1034.201
330.300	16.738	1353.954	1033.396
331.314	16.726	1353.248	1032.696
332.329	16.814	1351.961	1032.156
333.343	16.769	1351.452	1031.406
334.358	16.793	1350.476	1030.715
335.373	16.800	1349.843	1030.182
336.387	16.911	1348.785	1029.958
337.402	16.892	1348.142	1029.260
338.416	17.024	1347.733	1029.656
339.431	16.996	1347.082	1028.896
340.446	16.971	1346.216	1027.995
341.460	17.079	1345.271	1027.835
342.475	17.144	1344.011	1027.177
343.489	17.203	1343.155	1026.790
344.504	17.180	1342.467	1026.033
345.519	17.145	1341.620	1025.082
346.533	17.245	1340.568	1024.790
347.548	17.256	1339.774	1024.158
348.562	17.270	1339.083	1023.625
349.577	17.277	1338.395	1023.053
350.592	17.144	1337.366	1021.375
351.606	17.216	1336.463	1021.026
352.621	17.180	1335.185	1019.744
353.635	17.129	1334.334	1018.697
354.650	17.225	1333.336	1018.423
355.665	17.021	1332.555	1016.511
356.679	17.110	1331.157	1015.887
357.694	17.277	1330.258	1016.110
358.708	17.309	1329.022	1015.267
359.723	17.181	1328.375	1013.922
360.738	17.231	1327.200	1013.230
361.752	17.313	1326.153	1012.832
362.767	17.298	1325.426	1012.099
363.781	17.218	1324.760	1011.025
364.796	17.322	1323.711	1010.753
365.810	17.373	1322.822	1010.288
366.825	17.424	1322.369	1010.155
367.840	17.397	1321.616	1009.328
368.854	17.457	1320.902	1009.051
369.869	17.518	1320.635	1009.117
370.883	17.644	1319.489	1008.901
371.898	17.633	1318.728	1008.163
372.913	17.586	1318.053	1007.282
373.927	17.544	1317.185	1006.277
374.942	17.534	1316.333	1005.478
375.956	17.584	1315.302	1004.898
376.971	17.572	1315.218	1004.675
377.986	17.657	1313.734	1003.951
379.000	17.604	1313.115	1003.078
380.015	17.648	1312.292	1002.623
381.029	17.675	1311.684	1002.225
382.044	17.706	1310.994	1001.793
383.059	17.827	1310.062	1001.701
384.073	17.810	1309.565	1001.132
385.088	17.835	1308.997	1000.755
386.102	17.801	1308.442	1000.043
387.117	17.810	1307.854	999.562
388.132	17.873	1306.396	998.727
389.146	17.775	1305.504	997.381
390.161	17.779	1304.898	996.852
391.175	17.774	1304.190	996.195
392.190	17.778	1303.361	995.500
393.205	17.721	1302.557	994.466
394.219	17.861	1301.801	994.615
395.234	18.023	1300.075	994.150
396.248	17.917	1298.868	992.522
397.263	17.867	1297.618	991.192
398.278	17.777	1296.712	989.886
399.292	17.731	1295.770	988.816
400.307	17.791	1294.378	988.015
401.321	17.741	1293.161	986.708
402.336	17.858	1292.298	986.638
403.350	17.797	1291.382	985.500
404.365	17.797	1290.610	984.821
405.380	17.778	1289.613	983.866
406.394	17.875	1288.779	983.698
407.409	17.978	1288.075	983.669
408.423	17.878	1287.654	982.682
409.438	18.041	1287.123	983.133
410.453	18.101	1286.345	982.794
411.467	18.108	1285.302	981.949
412.482	18.187	1284.961	982.057
413.496	18.200	1284.505	981.699
414.511	18.202	1283.661	980.976
415.526	18.173	1282.800	980.065
416.540	18.307	1281.996	980.132
417.555	18.265	1281.469	979.400
418.569	18.401	1280.856	979.626
419.584	18.322	1280.290	978.649
420.599	18.372	1279.321	978.112
421.613	136.677	1430.173	1787.131
422.628	131.629	1452.146	1787.234
