DTS Sentinel unit serial number:	SN413079Multiplexer serial number:	ORYXHardware model number:	OX4-SRSoftware version number:	ORYX F/W v4.00 Oryx Data Collector v3.7.2.0data status	okinstallation	princeton_trtdifferential loss correction	single-endedforward channel	channel 4reverse channel	N/Adate	2019/09/13time	02:37:34forward acquisition time	60.00reverse acquisition time	0.00gamma	496.2192k internal	0.2320k external	0.2320temperature offset calibration	1.0189default loss term (dB/km)	0.3790temperature slope calibration	1.0000multiplexer offset coefficient	1.0000multiplexer slope coefficient	1.0000fibre end	0.00T internal ref (°C)	27.48T ext. ref 1 (°C)	3.97T ext. ref 2 (°C)	22.25length (m)	temperature (°C)	Stokes	anti-Stokes-747.200	-200.000	0.000	-0.010
-746.185	-81.384	-0.077	-0.026
-745.171	-96.757	-0.093	-0.025
-744.156	16.149	-0.372	-0.296
-743.142	338.470	-0.018	0.036
-742.127	-70.649	0.201	0.077
-741.112	-200.000	-0.010	0.072
-740.098	645.259	-0.168	0.434
-739.083	-140.085	0.632	-0.067
-738.069	75.210	-0.154	0.165
-737.054	-200.000	-0.026	-0.147
-736.039	-40.680	-0.351	0.184
-735.025	-200.000	0.004	-0.122
-734.010	604.581	-0.102	0.257
-732.996	-200.000	0.014	0.088
-731.981	-200.000	0.013	-0.114
-730.966	-98.099	-0.223	-0.058
-729.952	180.525	-0.150	-0.222
-728.937	-34.065	0.120	0.067
-727.923	651.992	-0.062	0.160
-726.908	69.722	0.086	0.089
-725.894	778.275	0.032	0.088
-724.879	-0.327	-0.076	0.055
-723.864	158.564	-0.158	-0.222
-722.850	800.000	0.044	0.157
-721.835	-33.632	0.197	-0.110
-720.821	800.000	-0.052	0.179
-719.806	-48.948	0.143	-0.069
-718.791	100.728	-0.136	-0.160
-717.777	-200.000	-0.053	-0.491
-716.762	-41.289	-0.275	-0.143
-715.748	-137.900	0.273	-0.031
-714.733	169.592	-0.112	0.162
-713.718	-55.715	-0.401	0.181
-712.704	-200.000	-0.006	-0.242
-711.689	-89.543	-0.438	-0.130
-710.675	-200.000	-0.017	0.111
-709.660	544.748	-0.025	0.059
-708.645	-200.000	-0.003	-0.037
-707.631	-200.000	0.041	-0.227
-706.616	-200.000	0.003	-0.223
-705.602	712.871	0.047	0.126
-704.587	19.413	-0.178	0.144
-703.572	-52.748	-0.244	0.114
-702.558	253.541	-0.121	0.210
-701.543	-200.000	0.006	0.034
-700.529	11.141	-0.105	-0.081
-699.514	-167.727	0.033	-0.001
-698.499	800.000	-0.051	0.192
-697.485	250.995	-0.025	0.043
-696.470	-200.000	-0.002	-0.297
-695.456	-70.158	0.267	-0.102
-694.441	65.217	0.104	-0.106
-693.426	-81.030	0.142	-0.047
-692.412	800.000	-0.092	-0.348
-691.397	-125.536	-0.165	-0.025
-690.383	-200.000	-0.004	0.041
-689.368	708.856	-0.062	0.166
-688.354	-200.000	-0.047	-0.277
-687.339	145.281	-0.063	0.086
-686.324	800.000	-0.038	0.132
-685.310	438.006	0.047	0.103
-684.295	7.620	-0.333	-0.251
-683.281	785.626	-0.024	-0.066
-682.266	-111.473	-0.172	0.035
-681.251	-48.013	-0.135	0.066
-680.237	-200.000	-0.015	-0.108
-679.222	230.532	0.063	-0.103
-678.208	-153.966	-0.349	-0.024
-677.193	800.000	-0.063	-0.190
-676.178	20.261	0.189	0.154
-675.164	800.000	0.125	-0.411
-674.149	364.659	-0.112	-0.227
-673.135	-88.984	0.243	0.073
-672.120	71.336	0.118	0.124
-671.105	-200.000	-0.056	-0.365
-670.091	-102.561	0.090	0.022
-669.076	662.129	-0.150	0.391
-668.062	-147.665	-0.652	0.055
-667.047	-200.000	-0.012	0.068
-666.032	-79.685	0.279	0.095
-665.018	-81.327	-0.289	0.096
-664.003	-68.326	-0.214	0.084
-662.989	2.547	0.115	-0.084
-661.974	47.137	-0.061	0.057
-660.959	136.380	0.134	0.176
-659.945	-67.087	0.063	-0.025
-658.930	528.655	0.028	0.067
-657.916	359.217	0.009	-0.019
-656.901	-109.002	0.408	-0.088
-655.886	196.319	-0.095	-0.146
-654.872	-85.617	-0.310	0.097
-653.857	227.447	0.167	-0.274
-652.843	-67.770	0.206	0.081
-651.828	-200.000	-0.063	-0.322
-650.814	-108.452	0.118	-0.025
-649.799	800.000	0.005	-0.014
-648.784	-110.907	-0.320	-0.066
-647.770	800.000	-0.029	0.089
-646.755	-41.245	-0.254	0.132
-645.741	110.194	0.033	0.039
-644.726	800.000	-0.091	0.318
-643.711	-18.622	0.279	-0.175
-642.697	-33.869	0.322	-0.179
-641.682	364.358	-0.126	-0.255
-640.668	800.000	-0.038	-0.128
-639.653	-59.886	0.033	0.014
-638.638	-86.875	-0.279	-0.086
-637.624	67.227	0.238	-0.244
-636.609	309.640	0.058	-0.109
-635.595	-170.269	-0.265	0.009
-634.580	495.719	0.075	-0.173
-633.565	8.183	-0.244	0.184
-632.551	87.309	-0.130	-0.145
-631.536	36.272	0.107	0.095
-630.522	-200.000	-0.024	0.148
-629.507	-27.601	-0.304	0.178
-628.492	-200.000	0.045	0.243
-627.478	-54.369	-0.255	-0.116
-626.463	-176.074	0.229	0.006
-625.449	-118.384	0.243	0.043
-624.434	59.160	-0.147	-0.146
-623.419	76.147	-0.176	0.188
-622.405	785.072	-0.067	-0.185
-621.390	-200.000	0.045	-0.226
-620.376	-200.000	0.034	0.152
-619.361	217.047	0.157	-0.252
-618.346	-200.000	0.018	-0.439
-617.332	205.934	-0.094	0.148
-616.317	-29.622	-0.192	-0.111
-615.303	109.259	0.038	0.045
-614.288	197.565	-0.140	0.214
-613.273	-90.478	0.184	-0.054
-612.259	-200.000	0.041	0.243
-611.244	800.000	0.040	0.120
-610.230	-22.736	-0.129	0.079
-609.215	-102.746	-0.240	0.058
-608.201	-32.834	0.246	0.138
-607.186	800.000	0.037	0.146
-606.171	-78.080	0.138	0.048
-605.157	79.116	0.133	-0.143
-604.142	-60.146	0.230	-0.099
-603.128	-112.249	-0.253	-0.051
-602.113	-116.817	0.297	0.055
-601.098	-118.185	-0.146	-0.026
-600.084	-30.833	-0.286	0.162
-599.069	-87.608	-0.250	0.076
-598.055	-200.000	0.009	0.048
-597.040	-200.000	0.045	0.235
-596.025	-110.779	0.150	-0.031
-595.011	-19.537	-0.237	0.148
-593.996	-119.191	-0.264	-0.046
-592.982	139.120	-0.115	-0.152
-591.967	49.510	0.201	0.190
-590.952	800.000	0.086	0.283
-589.938	-159.986	-0.259	-0.014
-588.923	38.044	0.064	-0.057
-587.909	83.155	-0.145	0.158
-586.894	194.746	0.090	-0.137
-585.879	28.733	0.168	-0.143
-584.865	-128.744	0.127	-0.018
-583.850	355.233	-0.074	0.147
-582.836	31.881	-0.134	0.116
-581.821	55.319	-0.107	0.104
-580.806	-129.822	0.124	0.017
-579.792	351.368	0.075	-0.148
-578.777	125.170	-0.181	-0.230
-577.763	-200.000	-0.031	-0.386
-576.748	75.358	-0.118	0.125
-575.733	43.496	-0.079	0.072
-574.719	-73.364	-0.170	0.062
-573.704	166.824	0.166	-0.237
-572.690	-200.000	0.010	-0.080
-571.675	-143.181	0.317	-0.031
-570.661	-20.631	0.078	-0.048
-569.646	67.647	-0.203	0.209
-568.631	30.759	-0.132	-0.114
-567.617	-154.544	-0.183	0.012
-566.602	69.937	0.117	-0.121
-565.588	24.975	-0.188	0.157
-564.573	-146.092	0.140	-0.012
-563.558	348.545	-0.149	0.294
-562.544	765.850	-0.029	0.080
-561.529	800.000	0.054	0.224
-560.515	-200.000	-0.065	-0.318
-559.500	-83.471	-0.214	-0.069
-558.485	68.558	-0.224	0.230
-557.471	42.125	0.298	-0.272
-556.456	-102.812	-0.084	0.020
-555.442	214.661	0.137	-0.217
-554.427	652.093	0.039	-0.101
-553.412	377.601	-0.010	-0.021
-552.398	-152.327	-0.229	-0.017
-551.383	292.746	0.038	-0.069
-550.369	-156.181	0.655	0.041
-549.354	-49.842	0.199	0.095
-548.339	-164.750	-0.140	-0.006
-547.325	-56.650	-0.175	-0.078
-546.310	-200.000	-0.104	0.472
-545.296	-118.883	0.083	-0.015
-544.281	-102.433	-0.543	-0.130
-543.266	-200.000	0.004	-0.404
-542.252	237.318	0.134	-0.222
-541.237	100.166	0.042	-0.049
-540.223	407.377	-0.137	0.291
-539.208	800.000	-0.013	0.045
-538.193	202.893	-0.052	0.080
-537.179	24.759	0.229	-0.190
-536.164	-200.000	-0.006	0.199
-535.150	76.085	-0.241	0.256
-534.135	-200.000	0.007	-0.059
-533.121	-43.675	0.150	-0.076
-532.106	83.059	0.167	0.183
-531.091	-84.421	-0.182	0.058
-530.077	30.616	0.129	-0.111
-529.062	-171.261	-0.163	-0.005
-528.048	-168.117	0.199	0.008
-527.033	-108.783	-0.216	0.046
-526.018	-166.206	-0.146	-0.006
-525.004	9.104	0.049	0.037
-523.989	-200.000	-0.025	-0.242
-522.975	-200.000	-0.066	-0.354
-521.960	-96.143	0.167	-0.045
-520.945	41.106	-0.183	-0.165
-519.931	34.760	0.026	0.023
-518.916	686.445	-0.041	0.108
-517.902	78.748	0.025	-0.027
-516.887	800.000	0.072	-0.216
-515.872	-78.331	0.274	0.094
-514.858	-124.232	0.296	-0.046
-513.843	23.795	-0.189	0.156
-512.829	-70.898	-0.252	-0.095
-511.814	49.503	-0.274	-0.259
-510.799	63.931	0.324	0.326
-509.785	268.794	0.035	-0.062
-508.770	149.061	-0.311	-0.422
-507.756	800.000	0.120	0.373
-506.741	800.000	0.069	-0.212
-505.726	384.262	-0.091	0.188
-504.712	13.277	-0.129	-0.100
-503.697	-102.707	-0.166	-0.040
-502.683	800.000	-0.092	-0.326
-501.668	525.130	-0.123	-0.289
-500.653	-97.761	0.093	0.024
-499.639	-200.000	-0.068	0.349
-498.624	174.202	-0.077	0.112
-497.610	-175.603	0.281	0.008
-496.595	485.462	0.101	-0.231
-495.581	11.210	-0.105	0.081
-494.566	242.999	-0.080	-0.134
-493.551	111.107	-0.108	-0.130
-492.537	-158.326	-0.071	0.004
-491.522	-33.397	0.211	0.117
-490.508	-200.000	0.015	-0.178
-489.493	-200.000	-0.050	-0.400
-488.478	66.027	0.172	-0.175
-487.464	226.794	0.046	0.074
-486.449	-200.000	0.014	0.147
-485.435	-80.521	-0.043	-0.014
-484.420	-133.195	0.215	0.027
-483.405	-126.186	-0.102	0.015
-482.391	800.000	-0.116	0.365
-481.376	703.392	-0.112	-0.297
-480.362	800.000	0.062	0.228
-479.347	-33.835	0.098	0.054
-478.332	-200.000	-0.029	0.228
-477.318	227.200	0.038	0.062
-476.303	7.816	-0.098	-0.074
-475.289	800.000	-0.135	-0.401
-474.274	202.448	-0.150	-0.232
-473.259	-71.982	0.145	-0.054
-472.245	-199.176	-0.222	-0.001
-471.230	-142.483	0.446	-0.044
-470.216	800.000	-0.078	-0.315
-469.201	-81.154	0.117	0.039
-468.186	-200.000	0.025	0.211
-467.172	125.010	-0.199	-0.251
-466.157	8.921	-0.002	0.001
-465.143	564.452	-0.066	-0.160
-464.128	100.605	-0.074	-0.086
-463.113	-68.543	-0.180	-0.070
-462.099	66.315	-0.277	0.281
-461.084	-146.013	0.368	0.033
-460.070	-91.185	0.210	0.060
-459.055	800.000	-0.032	0.113
-458.040	48.227	0.119	0.111
-457.026	-200.000	0.000	0.040
-456.011	800.000	-0.029	-0.123
-454.997	-200.000	-0.014	0.416
-453.982	43.154	0.223	0.204
-452.968	53.158	0.056	0.053
-451.953	-200.000	0.005	0.361
-450.938	-117.222	0.139	0.025
-449.924	548.804	-0.148	0.355
-448.909	800.000	-0.060	0.206
-447.895	-200.000	-0.003	-0.219
-446.880	800.000	0.071	0.198
-445.865	346.003	0.172	-0.338
-444.851	800.000	-0.044	-0.166
-443.836	-78.671	-0.238	-0.081
-442.822	293.930	-0.072	-0.131
-441.807	800.000	-0.059	0.244
-440.792	-7.721	0.060	0.040
-439.778	32.152	-0.091	0.079
-438.763	331.636	-0.020	-0.038
-437.749	800.000	-0.103	-0.322
-436.734	800.000	0.054	-0.179
-435.719	132.712	-0.056	0.072
-434.705	8.627	0.177	0.133
-433.690	-72.195	0.170	-0.063
-432.676	-90.504	0.350	-0.101
-431.661	-79.779	0.253	0.085
-430.646	28.546	-0.273	0.231
-429.632	-200.000	-0.005	0.165
-428.617	368.847	-0.095	0.191
-427.603	-101.795	0.324	-0.078
-426.588	256.535	0.262	0.450
-425.573	661.149	0.031	-0.079
-424.559	-71.730	-0.321	0.120
-423.544	-200.000	-0.028	0.126
-422.530	341.437	-0.109	-0.213
-421.515	245.476	-0.148	-0.248
-420.500	160.117	0.081	-0.113
-419.486	-200.000	0.035	-0.167
-418.471	800.000	0.044	-0.143
-417.457	800.000	-0.087	0.335
-416.442	73.336	0.290	-0.303
-415.428	631.516	0.248	-0.627
-414.413	-200.000	-0.080	0.432
-413.398	-7.423	0.062	-0.042
-412.384	-78.164	0.207	0.071
-411.369	800.000	-0.106	0.355
-410.355	800.000	-0.062	0.223
-409.340	-129.402	0.372	-0.052
-408.325	374.862	-0.028	-0.057
-407.311	-126.930	-0.263	-0.039
-406.296	-116.491	-0.087	-0.016
-405.282	-200.000	0.014	0.077
-404.267	-8.543	-0.360	-0.241
-403.252	-140.456	0.292	0.030
-402.238	74.844	-0.188	-0.197
-401.223	-200.000	-0.041	0.200
-400.209	40.806	-0.264	-0.237
-399.194	149.178	-0.316	-0.427
-398.179	800.000	0.031	-0.121
-397.165	246.242	0.134	0.225
-396.150	246.326	0.043	-0.073
-395.136	96.961	0.103	-0.118
-394.121	-103.569	0.297	-0.069
-393.106	-109.053	-0.043	-0.009
-392.092	-200.000	0.033	0.403
-391.077	-29.864	0.009	0.005
-390.063	-0.751	-0.142	0.101
-389.048	-200.000	-0.008	0.120
-388.033	143.985	-0.136	0.181
-387.019	1.381	0.427	0.306
-386.004	-137.519	0.176	0.020
-384.990	264.945	-0.184	0.320
-383.975	-124.652	-0.285	0.044
-382.960	581.403	-0.124	0.304
-381.946	-51.280	0.240	0.112
-380.931	-149.618	-0.124	-0.010
-379.917	127.745	0.111	-0.141
-378.902	-159.010	0.323	0.018
-377.888	-120.982	0.080	0.013
-376.873	140.939	-0.149	0.196
-375.858	-16.721	0.285	0.180
-374.844	166.826	-0.140	-0.198
-373.829	-174.813	0.077	-0.002
-372.815	800.000	-0.041	0.157
-371.800	-168.483	-0.181	-0.007
-370.785	-54.706	-0.174	0.078
-369.771	-72.688	0.245	-0.090
-368.756	800.000	0.044	-0.138
-367.742	800.000	-0.030	-0.120
-366.727	46.556	-0.142	-0.131
-365.712	-138.869	0.213	-0.023
-364.698	-200.000	-0.028	0.128
-363.683	-200.000	-0.012	0.234
-362.669	-29.128	-0.346	-0.198
-361.654	800.000	-0.066	0.282
-360.639	-137.301	0.068	-0.008
-359.625	-68.518	0.397	-0.153
-358.610	273.294	-0.042	-0.073
-357.596	26.001	-0.102	0.085
-356.581	-137.752	-0.178	-0.020
-355.566	267.468	0.104	-0.181
-354.552	208.194	0.055	-0.085
-353.537	-57.549	-0.179	-0.078
-352.523	-111.653	-0.173	-0.035
-351.508	-54.534	-0.070	-0.032
-350.493	800.000	-0.021	0.069
-349.479	-107.409	0.303	0.066
-348.464	-200.000	0.071	0.456
-347.450	-200.000	-0.005	0.108
-346.435	-200.000	-0.012	-0.194
-345.420	-14.128	-0.068	-0.043
-344.406	-200.000	0.030	0.412
-343.391	53.197	-0.153	-0.146
-342.377	-200.000	-0.002	-0.058
-341.362	800.000	-0.084	-0.350
-340.348	141.804	0.056	-0.074
-339.333	-48.912	-0.123	0.058
-338.318	127.034	-0.260	0.328
-337.304	212.789	0.197	-0.310
-336.289	208.656	-0.216	0.337
-335.275	147.998	0.097	-0.130
-334.260	-200.000	-0.015	0.248
-333.245	-156.779	-0.276	0.017
-332.231	43.114	-0.155	0.141
-331.216	-106.827	-0.230	-0.051
-330.202	800.000	0.060	0.199
-329.187	800.000	-0.041	0.164
-328.172	-200.000	-0.020	-0.347
-327.158	194.376	0.096	0.144
-326.143	263.896	0.076	0.132
-325.129	800.000	0.063	-0.227
-324.114	-38.197	0.344	-0.182
-323.099	80.892	-0.172	0.184
-322.085	800.000	0.025	0.106
-321.070	-200.000	-0.013	0.193
-320.056	-31.115	0.075	-0.042
-319.041	-69.679	-0.314	0.119
-318.026	95.611	-0.141	-0.160
-317.012	-146.223	0.237	-0.021
-315.997	-180.893	-0.501	0.010
-314.983	-60.576	-0.158	-0.067
-313.968	18.019	0.105	0.083
-312.953	-200.000	0.038	0.244
-311.939	-82.863	0.056	0.018
-310.924	-65.000	0.148	0.059
-309.910	179.480	0.055	-0.081
-308.895	-200.000	-0.014	-0.062
-307.880	41.995	-0.034	0.030
-306.866	-80.498	0.141	0.047
-305.851	-137.632	0.358	0.040
-304.837	-2.783	0.126	-0.088
-303.822	800.000	-0.162	-0.462
-302.807	-200.000	0.021	-0.280
-301.793	-107.158	-0.209	-0.046
-300.778	800.000	0.080	-0.232
-299.764	-200.000	-0.040	-0.182
-298.749	110.060	-0.109	-0.130
-297.735	2.132	-0.182	-0.131
-296.720	-157.949	0.405	0.024
-295.705	-116.945	0.481	0.087
-294.691	773.153	-0.078	-0.212
-293.676	491.314	0.166	0.377
-292.662	800.000	0.090	0.366
-291.647	26.318	0.174	0.144
-290.632	-124.272	-0.047	-0.007
-289.618	800.000	-0.087	-0.259
-288.603	146.959	0.219	-0.293
-287.589	106.443	-0.096	-0.113
-286.574	38.524	0.281	0.249
-285.559	-36.821	0.220	-0.117
-284.545	-93.763	-0.109	-0.030
-283.530	-109.819	0.126	-0.026
-282.516	114.096	0.063	0.077
-281.501	800.000	0.050	-0.205
-280.486	-165.131	0.201	-0.009
-279.472	-200.000	-0.052	-0.267
-278.457	156.276	0.033	-0.045
-277.443	29.215	-0.324	-0.273
-276.428	-64.226	-0.141	-0.057
-275.413	800.000	-0.090	0.250
-274.399	-138.852	-0.322	-0.035
-273.384	-10.192	0.402	-0.265
-272.370	-52.253	0.047	-0.021
-271.355	-200.000	-0.016	0.123
-270.340	11.266	-0.254	-0.193
-269.326	-51.542	0.253	-0.117
-268.311	-200.000	0.050	0.405
-267.297	800.000	0.070	0.301
-266.282	17.419	-0.263	-0.207
-265.267	-152.626	-0.370	0.026
-264.253	-194.082	-0.320	-0.003
-263.238	286.082	-0.109	0.196
-262.224	-24.102	-0.124	-0.074
-261.209	233.723	0.034	0.056
-260.195	220.996	0.108	0.171
-259.180	-185.907	-0.342	-0.005
-258.165	-200.000	-0.048	-0.208
-257.151	41.781	0.247	-0.222
-256.136	99.834	0.144	-0.166
-255.122	-103.164	-0.124	0.029
-254.107	-200.000	0.014	0.078
-253.092	495.257	-0.173	0.393
-252.078	214.082	-0.170	-0.268
-251.063	147.808	-0.028	-0.038
-250.049	-200.000	-0.014	0.108
-249.034	800.000	-0.042	-0.140
-248.019	-64.227	-0.206	-0.083
-247.005	-36.729	0.268	-0.143
-245.990	-58.006	0.066	0.029
-244.976	575.448	0.142	0.344
-243.961	93.723	0.120	0.135
-242.946	-34.544	-0.541	0.294
-241.932	61.941	0.298	-0.294
-240.917	-200.000	0.016	0.090
-239.903	334.653	-0.198	-0.381
-238.888	-58.271	0.119	0.051
-237.873	636.276	-0.091	-0.228
-236.859	-101.631	0.122	-0.029
-235.844	-200.000	-0.015	-0.159
-234.830	-38.443	-0.109	-0.057
-233.815	-3.964	-0.135	-0.093
-232.800	-143.229	-0.249	-0.024
-231.786	-171.315	-0.253	-0.008
-230.771	356.874	-0.088	-0.174
-229.757	7.487	-0.122	0.090
-228.742	-28.367	0.366	0.209
-227.727	-15.694	0.068	-0.043
-226.713	-88.257	-0.344	-0.102
-225.698	-112.353	-0.179	0.035
-224.684	-38.864	-0.223	0.116
-223.669	391.366	-0.050	-0.103
-222.655	-15.779	0.302	-0.191
-221.640	-200.000	0.042	0.371
-220.625	20.025	0.287	-0.229
-219.611	-168.437	-0.256	-0.010
-218.596	299.902	0.092	-0.169
-217.582	623.978	0.075	-0.186
-216.567	34.822	-0.108	-0.094
-215.552	-129.037	0.148	0.021
-214.538	-30.206	0.105	0.059
-213.523	97.856	0.183	-0.209
-212.509	-79.137	0.087	0.029
-211.494	465.271	0.055	0.121
-210.479	74.559	0.269	0.280
-209.465	8.683	-0.033	0.025
-208.450	-200.000	0.000	0.016
-207.436	-200.000	0.002	0.152
-206.421	-200.000	-0.011	0.182
-205.406	-94.934	-0.121	-0.033
-204.392	-103.931	-0.400	-0.093
-203.377	554.783	0.122	0.291
-202.363	-148.956	0.189	0.015
-201.348	216.445	0.185	-0.291
-200.333	71.678	0.084	-0.086
-199.319	-74.734	0.275	0.098
-198.304	-200.000	0.006	-0.301
-197.290	371.864	0.118	0.238
-196.275	212.933	-0.252	-0.393
-195.260	386.285	-0.039	-0.079
-194.246	-200.000	0.016	-0.261
-193.231	-87.552	-0.314	-0.094
-192.217	-200.000	-0.053	0.323
-191.202	-179.317	0.336	-0.007
-190.187	84.467	-0.181	-0.196
-189.173	-200.000	0.029	0.147
-188.158	-192.658	-0.032	0.000
-187.144	7.538	0.196	0.145
-186.129	524.473	0.117	0.271
-185.114	-200.000	-0.062	0.310
-184.100	1.712	0.216	-0.154
-183.085	-76.053	-0.138	0.048
-182.071	-200.000	0.044	0.359
-181.056	-171.862	-0.020	0.001
-180.042	-91.103	0.280	-0.080
-179.027	-200.000	-0.024	-0.297
-178.012	-68.937	0.106	0.040
-176.998	-113.270	0.244	-0.047
-175.983	409.487	-0.024	-0.051
-174.969	-75.592	-0.329	-0.116
-173.954	-200.000	-0.007	0.124
-172.939	265.565	0.028	0.049
-171.925	96.528	0.328	0.372
-170.910	-54.215	-0.287	0.129
-169.896	-87.225	0.160	-0.048
-168.881	147.535	0.211	0.281
-167.866	418.105	0.133	0.281
-166.852	-139.954	0.185	-0.019
-165.837	-18.121	0.430	-0.266
-164.823	18.080	0.129	-0.102
-163.808	-200.000	0.027	-0.167
-162.793	-66.313	0.291	0.115
-161.779	152.577	-0.088	-0.119
-160.764	171.249	-0.089	-0.126
-159.750	-200.000	-0.004	0.080
-158.735	-0.156	0.247	0.174
-157.720	486.270	0.138	-0.311
-156.706	206.302	0.042	0.064
-155.691	800.000	0.062	0.205
-154.677	482.372	-0.009	-0.020
-153.662	-88.562	-0.007	-0.002
-152.647	-200.000	-0.004	0.264
-151.633	44.042	0.210	0.191
-150.618	-37.337	-0.055	-0.029
-149.604	109.785	0.202	0.239
-148.589	133.745	-0.126	-0.161
-147.574	123.625	0.129	-0.160
-146.560	800.000	0.022	-0.070
-145.545	-200.000	-0.009	-0.262
-144.531	800.000	0.047	0.170
-143.516	598.557	0.050	-0.122
-142.502	-48.655	0.279	0.132
-141.487	-45.290	0.136	-0.067
-140.472	-200.000	0.023	0.247
-139.458	19.417	-0.148	-0.118
-138.443	173.272	0.135	-0.192
-137.429	-23.228	0.236	0.140
-136.414	422.557	0.036	-0.076
-135.399	-20.082	0.167	0.102
-134.385	-99.013	-0.302	-0.076
-133.370	74.618	-0.176	-0.183
-132.356	-33.813	-0.099	0.054
-131.341	-63.755	0.043	-0.017
-130.326	26.732	0.018	0.015
-129.312	-153.189	-0.332	0.023
-128.297	94.943	-0.301	-0.339
-127.283	-47.820	-0.242	-0.116
-126.268	-164.782	0.348	0.015
-125.253	-91.401	0.101	0.028
-124.239	800.000	-0.096	0.391
-123.224	417.263	-0.108	0.228
-122.210	241.511	0.061	-0.100
-121.195	88.694	0.235	-0.258
-120.180	285.977	-0.144	0.256
-119.166	312.681	0.071	-0.132
-118.151	51.903	0.025	0.023
-117.137	-200.000	-0.029	-0.340
-116.122	-19.709	-0.166	-0.101
-115.107	-200.000	0.013	0.186
-114.093	-133.673	0.121	0.015
-113.078	-134.128	0.183	-0.022
-112.064	242.931	0.144	0.237
-111.049	481.102	-0.156	0.350
-110.034	36.477	0.061	-0.053
-109.020	800.000	0.039	-0.153
-108.005	628.412	-0.069	-0.172
-106.991	-97.648	0.261	0.067
-105.976	302.966	-0.074	0.136
-104.962	351.041	-0.014	0.027
-103.947	61.144	-0.108	-0.106
-102.932	-200.000	0.022	-0.245
-101.918	-200.000	-0.005	-0.091
-100.903	-106.564	0.290	0.064
-99.889	74.070	0.081	0.084
-98.874	199.906	-0.162	-0.245
-97.859	-140.088	0.179	0.019
-96.845	800.000	0.053	0.174
-95.830	-3.084	0.110	-0.076
-94.816	-124.077	0.254	-0.039
-93.801	800.000	-0.152	-0.549
-92.786	-80.102	0.218	-0.072
-91.772	-200.000	0.028	-0.187
-90.757	34.099	0.116	0.100
-89.743	3.012	-0.193	0.139
-88.728	-200.000	-0.051	-0.420
-87.713	127.632	0.118	0.147
-86.699	-18.874	-0.192	0.118
-85.684	-13.065	-0.147	0.094
-84.670	800.000	-0.093	-0.264
-83.655	800.000	-0.088	0.320
-82.640	-7.989	0.131	0.087
-81.626	214.007	-0.075	-0.116
-80.611	-15.035	-0.173	0.109
-79.597	-200.000	-0.011	-0.296
-78.582	-14.500	0.155	0.098
-77.567	800.000	-0.133	0.437
-76.553	-200.000	-0.011	0.079
-75.538	-68.927	-0.138	0.052
-74.524	-47.486	-0.200	0.096
-73.509	150.406	-0.053	0.071
-72.494	203.447	-0.248	0.377
-71.480	-200.000	-0.035	0.200
-70.465	800.000	0.056	0.208
-69.451	-96.214	0.066	0.017
-68.436	63.560	-0.184	0.182
-67.422	686.915	0.101	-0.261
-66.407	226.515	-0.141	-0.226
-65.392	501.783	0.137	-0.312
-64.378	-200.000	0.037	0.308
-63.363	-200.000	-0.022	-0.168
-62.349	603.282	-0.159	0.390
-61.334	154.507	-0.859	-1.161
-60.319	93.154	0.437	0.486
-59.305	800.000	-0.216	-0.767
-58.290	678.464	0.494	1.264
-57.276	302.666	0.785	1.430
-56.261	-200.000	114.449	652.370
-55.246	530.339	1523.131	3542.556
-54.232	174.951	2697.692	3844.468
-53.217	98.921	2322.025	2638.872
-52.203	34.040	2066.339	1771.755
-51.188	29.231	1981.708	1656.025
-50.173	27.897	1964.138	1629.387
-49.159	46.106	2023.252	1843.800
-48.144	45.062	2038.943	1848.576
-47.130	29.645	1998.385	1673.452
-46.115	27.504	1987.707	1645.133
-45.100	27.326	1984.762	1641.021
-44.086	27.458	1981.871	1639.752
-43.071	27.322	1979.809	1636.762
-42.057	27.309	1977.703	1634.835
-41.042	27.307	1976.237	1633.544
-40.027	27.395	1973.722	1632.193
-39.013	27.497	1971.654	1631.324
-37.998	27.403	1970.459	1629.435
-36.984	27.430	1968.007	1627.586
-35.969	27.414	1966.442	1626.084
-34.954	27.395	1965.167	1624.789
-33.940	27.433	1963.503	1623.692
-32.925	27.510	1961.205	1622.413
-31.911	27.489	1960.080	1621.230
-30.896	27.480	1957.957	1619.326
-29.881	27.518	1956.791	1618.637
-28.867	27.517	1954.948	1617.043
-27.852	27.450	1953.967	1615.568
-26.838	27.526	1952.241	1614.752
-25.823	27.501	1950.204	1612.783
-24.809	27.562	1948.697	1612.014
-23.794	27.530	1946.174	1609.575
-22.779	27.453	1944.782	1607.682
-21.765	27.547	1943.166	1607.112
-20.750	27.431	1941.878	1604.961
-19.736	27.484	1940.073	1603.875
-18.721	27.535	1938.127	1602.651
-17.706	27.527	1936.394	1601.084
-16.692	27.448	1935.146	1599.295
-15.677	27.482	1933.627	1598.272
-14.663	27.541	1932.100	1597.466
-13.648	27.570	1930.607	1596.422
-12.633	27.463	1929.832	1594.775
-11.619	27.501	1928.388	1593.855
-10.604	27.539	1926.583	1592.632
-9.590	27.547	1925.496	1591.742
-8.575	27.475	1924.270	1590.034
-7.560	27.420	1923.237	1588.636
-6.546	27.555	1921.301	1588.149
-5.531	27.533	1919.690	1586.565
-4.517	27.455	1919.168	1585.393
-3.502	27.503	1918.265	1585.002
-2.487	27.460	1916.983	1583.510
-1.473	27.504	1916.175	1583.156
-0.458	27.619	1910.795	1579.648
0.556	29.446	1891.044	1551.972
1.571	25.100	1872.900	1500.648
2.586	21.164	1895.550	1485.251
3.600	20.153	1930.260	1503.549
4.615	19.804	1923.682	1495.272
5.629	15.589	1823.606	1382.742
6.644	8.070	1709.404	1237.832
7.659	4.232	1675.624	1183.996
8.673	3.889	1672.890	1179.346
9.688	3.963	1671.185	1178.607
10.702	4.075	1669.870	1178.422
11.717	3.963	1666.222	1174.900
12.731	4.528	1665.309	1178.438
13.746	9.824	1678.250	1227.874
14.761	18.237	1695.750	1304.998
15.775	22.655	1704.377	1345.308
16.790	23.118	1704.303	1348.655
17.804	22.269	1701.277	1339.680
18.819	21.384	1698.445	1330.601
19.834	20.852	1696.025	1324.538
20.848	20.719	1695.169	1322.741
21.863	20.755	1694.086	1322.054
22.877	20.689	1692.505	1320.201
23.892	20.502	1691.413	1317.819
24.907	20.491	1690.208	1316.679
25.921	20.414	1689.154	1315.155
26.936	20.436	1687.750	1314.116
27.950	20.252	1687.564	1312.462
28.965	20.488	1686.660	1313.429
29.980	20.492	1685.678	1312.575
30.994	20.609	1684.637	1312.529
32.009	20.707	1683.930	1312.601
33.023	20.782	1683.539	1312.747
34.038	20.849	1682.318	1312.189
35.053	20.705	1681.429	1310.293
36.067	20.594	1680.395	1308.534
37.082	20.607	1678.674	1307.174
38.096	20.507	1677.834	1305.653
39.111	20.633	1677.254	1306.036
40.126	20.616	1677.143	1305.707
41.140	20.659	1675.901	1304.943
42.155	20.396	1674.039	1301.409
43.169	20.113	1672.147	1297.704
44.184	20.010	1671.074	1295.987
45.199	19.951	1670.045	1294.631
46.213	20.024	1668.458	1293.832
47.228	20.084	1668.094	1293.882
48.242	20.402	1667.032	1295.319
49.257	20.598	1665.750	1295.671
50.271	20.439	1665.407	1294.101
51.286	20.433	1663.821	1292.709
52.301	20.478	1662.498	1291.901
53.315	20.408	1660.933	1290.052
54.330	20.453	1659.095	1288.844
55.344	20.277	1657.099	1285.876
56.359	20.090	1656.234	1283.704
57.374	20.167	1655.050	1283.246
58.388	20.138	1653.725	1281.892
59.403	20.090	1652.312	1280.329
60.417	19.871	1651.510	1277.972
61.432	19.946	1649.814	1277.104
62.447	19.848	1649.045	1275.674
63.461	19.842	1647.338	1274.197
64.476	19.765	1646.074	1272.540
65.490	19.627	1644.768	1270.403
66.505	19.668	1643.694	1269.761
67.520	19.708	1642.857	1269.295
68.534	19.706	1642.086	1268.568
69.549	19.669	1641.227	1267.523
70.563	19.686	1639.604	1266.284
71.578	19.634	1638.376	1264.843
72.593	19.582	1637.202	1263.442
73.607	19.371	1635.953	1260.825
74.622	19.391	1634.814	1259.981
75.636	19.407	1633.929	1259.308
76.651	19.565	1633.184	1259.768
77.666	19.587	1632.417	1259.227
78.680	19.600	1632.042	1258.923
79.695	19.751	1630.754	1258.919
80.709	19.800	1629.898	1258.503
81.724	19.820	1629.330	1258.094
82.739	19.984	1629.139	1259.033
83.753	20.093	1628.431	1259.163
84.768	20.268	1627.699	1259.757
85.782	20.427	1627.309	1260.497
86.797	20.523	1626.315	1260.314
87.812	20.705	1626.032	1261.300
88.826	20.661	1624.295	1259.523
89.841	20.489	1623.431	1257.499
90.855	20.502	1622.209	1256.532
91.870	20.625	1621.538	1256.792
92.884	20.718	1620.564	1256.599
93.899	20.826	1619.181	1256.197
94.914	20.763	1618.369	1255.000
95.928	20.844	1617.278	1254.626
96.943	20.763	1616.252	1253.132
97.957	20.728	1614.834	1251.671
98.972	20.736	1613.082	1250.264
99.987	20.717	1611.453	1248.752
101.001	20.704	1609.907	1247.354
102.016	20.650	1608.558	1245.808
103.030	20.654	1607.390	1244.823
104.045	20.649	1606.336	1243.859
105.060	20.670	1605.123	1242.962
106.074	20.569	1603.507	1240.877
107.089	20.297	1601.641	1237.384
108.103	19.914	1599.990	1233.273
109.118	19.774	1597.335	1230.117
110.133	19.632	1596.512	1228.368
111.147	19.667	1594.820	1227.207
112.162	19.727	1593.623	1226.601
113.176	19.795	1592.310	1225.965
114.191	19.780	1591.411	1225.056
115.206	19.962	1590.120	1225.247
116.220	19.926	1588.999	1224.016
117.235	19.932	1587.935	1223.134
118.249	19.967	1586.270	1221.991
119.264	19.832	1585.190	1220.098
120.279	19.761	1583.188	1217.948
121.293	19.625	1582.365	1216.250
122.308	19.599	1580.818	1214.767
123.322	19.473	1579.113	1212.467
124.337	19.392	1577.638	1210.655
125.352	19.315	1576.313	1208.993
126.366	19.439	1575.269	1208.955
127.381	19.344	1574.461	1207.564
128.395	19.324	1573.356	1206.472
129.410	19.340	1571.457	1205.021
130.424	19.336	1570.143	1203.877
131.439	19.435	1569.089	1203.650
132.454	19.595	1567.732	1203.617
133.468	19.672	1566.961	1203.457
134.483	19.880	1564.918	1203.227
135.497	19.814	1564.052	1202.000
136.512	19.913	1562.801	1201.619
137.527	19.899	1561.755	1200.608
138.541	19.842	1560.999	1199.523
139.556	19.918	1559.304	1198.643
140.570	20.060	1557.852	1198.404
141.585	20.102	1556.955	1197.896
142.600	20.244	1556.122	1198.135
143.614	20.354	1554.961	1197.890
144.629	20.577	1553.843	1198.458
145.643	20.617	1552.984	1197.970
146.658	20.669	1551.656	1197.197
147.673	20.574	1549.866	1195.056
148.687	20.399	1548.035	1192.337
149.702	20.208	1546.816	1189.985
150.716	20.036	1545.086	1187.365
151.731	19.958	1543.295	1185.355
152.746	19.859	1542.345	1183.842
153.760	19.978	1540.389	1183.045
154.775	20.039	1539.494	1182.673
155.789	20.117	1538.593	1182.409
156.804	20.189	1537.855	1182.226
157.819	20.302	1536.468	1181.828
158.833	20.338	1535.380	1181.129
159.848	20.438	1534.846	1181.291
160.862	20.550	1534.213	1181.466
161.877	20.723	1532.377	1181.120
162.892	20.417	1531.370	1178.159
163.906	20.059	1529.239	1173.990
164.921	19.852	1527.875	1171.442
165.935	19.891	1526.586	1170.616
166.950	19.895	1525.782	1169.917
167.964	19.986	1525.053	1169.871
168.979	20.123	1524.226	1170.057
169.994	20.147	1522.715	1168.955
171.008	20.003	1521.807	1167.190
172.023	19.927	1521.099	1166.028
173.037	20.149	1519.522	1166.210
174.052	20.309	1518.769	1166.606
175.067	20.478	1518.341	1167.308
176.081	20.262	1516.446	1164.301
177.096	19.921	1514.843	1160.681
178.110	19.844	1513.788	1159.254
179.125	19.898	1512.369	1158.424
180.140	19.952	1511.576	1158.075
181.154	20.004	1510.524	1157.515
182.169	20.299	1510.188	1159.126
183.183	20.443	1509.165	1159.200
184.198	20.457	1508.287	1158.513
185.213	20.528	1507.250	1158.091
186.227	20.533	1506.428	1157.388
187.242	20.523	1505.815	1156.749
188.256	20.545	1504.805	1156.014
189.271	20.670	1503.554	1155.780
190.286	20.769	1502.362	1155.421
191.300	20.769	1501.348	1154.539
192.315	20.254	1500.116	1150.079
193.329	19.951	1498.024	1146.366
194.344	19.927	1496.364	1144.837
195.359	19.985	1496.101	1144.917
196.373	19.980	1495.520	1144.337
197.388	20.143	1494.021	1144.165
198.402	20.107	1493.454	1143.394
199.417	20.368	1492.739	1144.465
200.432	20.622	1492.074	1145.527
201.446	20.895	1491.299	1146.624
202.461	20.993	1490.507	1146.559
203.475	21.015	1490.017	1146.225
204.490	21.126	1488.740	1145.871
205.504	20.898	1487.590	1143.390
206.519	20.534	1486.021	1139.694
207.534	20.413	1484.950	1137.978
208.548	20.426	1482.947	1136.432
209.563	20.338	1482.317	1135.269
210.577	20.341	1481.906	1134.878
211.592	20.471	1480.761	1134.746
212.607	20.568	1480.092	1134.766
213.621	20.693	1479.646	1135.141
214.636	20.857	1478.909	1135.545
215.650	20.742	1477.442	1133.570
216.665	20.695	1476.739	1132.622
217.680	20.722	1476.169	1132.260
218.694	20.924	1475.570	1133.016
219.709	21.037	1474.672	1132.961
220.723	20.939	1474.139	1131.812
221.738	20.943	1472.855	1130.753
222.753	21.009	1471.346	1129.921
223.767	20.899	1470.936	1128.798
224.782	20.852	1469.549	1127.328
225.796	20.951	1468.921	1127.385
226.811	21.090	1468.628	1127.961
227.826	21.139	1468.217	1127.860
228.840	20.926	1466.542	1125.099
229.855	20.950	1465.205	1124.127
230.869	20.745	1464.369	1122.068
231.884	20.713	1463.354	1120.980
232.899	20.700	1462.037	1119.792
233.913	20.714	1460.612	1118.690
234.928	20.536	1458.820	1116.079
235.942	20.412	1458.225	1114.726
236.957	20.390	1456.977	1113.535
237.972	20.344	1455.295	1111.857
238.986	20.284	1454.596	1110.835
240.001	20.387	1453.560	1110.606
241.015	20.402	1452.987	1110.166
242.030	20.447	1451.653	1109.336
243.045	20.567	1450.729	1109.301
244.059	20.644	1450.162	1109.255
245.074	20.741	1449.065	1108.937
246.088	20.804	1448.276	1108.637
247.103	20.853	1447.964	1108.609
248.117	20.949	1447.554	1108.813
249.132	21.128	1446.957	1109.397
250.147	21.294	1446.361	1109.893
251.161	21.412	1446.381	1110.559
252.176	21.698	1445.899	1111.904
253.190	21.763	1445.333	1111.785
254.205	21.895	1444.372	1111.785
255.220	21.993	1443.510	1111.646
256.234	22.012	1442.846	1111.155
257.249	21.994	1442.259	1110.492
258.263	21.909	1441.093	1108.959
259.278	21.899	1440.056	1107.996
260.293	21.912	1438.714	1106.950
261.307	21.852	1438.311	1106.164
262.322	22.030	1437.834	1106.823
263.336	22.080	1437.105	1106.472
264.351	22.071	1435.982	1105.456
265.366	22.035	1435.179	1104.512
266.380	22.061	1434.376	1103.961
267.395	22.147	1433.061	1103.391
268.409	22.071	1432.856	1102.661
269.424	21.876	1431.238	1100.095
270.439	21.744	1430.325	1098.464
271.453	21.839	1429.072	1098.002
272.468	21.809	1427.828	1096.763
273.482	21.647	1426.808	1094.867
274.497	21.439	1426.442	1093.190
275.512	21.485	1424.928	1092.219
276.526	21.470	1424.347	1091.585
277.541	21.538	1423.574	1091.318
278.555	21.456	1422.720	1090.055
279.570	21.636	1421.556	1090.194
280.585	21.662	1421.312	1090.069
281.599	22.066	1420.399	1091.782
282.614	22.112	1419.822	1091.527
283.628	21.852	1418.283	1088.635
284.643	21.689	1416.673	1086.295
285.657	21.619	1415.929	1085.195
286.672	21.643	1415.380	1084.826
287.687	21.551	1414.264	1083.305
288.701	21.562	1413.061	1082.357
289.716	21.655	1412.881	1082.697
290.730	21.734	1411.530	1082.052
291.745	21.703	1410.365	1080.874
292.760	21.703	1409.396	1080.038
293.774	21.747	1408.662	1079.649
294.789	21.884	1408.089	1079.959
295.803	21.979	1407.524	1080.012
296.818	22.058	1407.018	1080.016
297.833	21.883	1405.799	1077.909
298.847	21.716	1404.623	1075.884
299.862	21.686	1403.380	1074.654
300.876	21.746	1402.632	1074.354
301.891	21.787	1401.196	1073.411
302.906	21.776	1401.013	1073.108
303.920	21.915	1400.643	1073.577
304.935	22.094	1399.820	1073.951
305.949	22.231	1399.066	1074.109
306.964	22.385	1398.688	1074.666
307.979	22.416	1397.892	1074.148
308.993	22.209	1397.270	1072.316
310.008	22.162	1395.170	1070.322
311.022	22.160	1394.464	1069.672
312.037	22.203	1393.765	1069.304
313.052	22.350	1392.927	1069.457
314.066	22.116	1391.414	1066.783
315.081	22.009	1390.000	1064.955
316.095	21.736	1389.001	1062.442
317.110	21.569	1387.662	1060.312
318.125	21.659	1386.214	1059.655
319.139	21.689	1385.548	1059.236
320.154	21.658	1384.764	1058.354
321.168	21.667	1383.792	1057.569
322.183	21.626	1382.805	1056.479
323.197	21.585	1381.933	1055.470
324.212	21.669	1381.223	1055.339
325.227	21.826	1380.544	1055.671
326.241	21.920	1379.592	1055.414
327.256	21.886	1379.219	1054.831
328.270	21.768	1378.226	1053.274
329.285	21.853	1377.341	1053.015
330.300	21.670	1376.313	1051.034
331.314	21.820	1375.115	1050.927
332.329	21.818	1374.105	1050.050
333.343	21.757	1373.146	1048.858
334.358	21.727	1372.833	1048.347
335.373	21.929	1371.979	1048.810
336.387	22.072	1371.380	1049.114
337.402	22.152	1370.817	1049.067
338.416	22.128	1370.396	1048.507
339.431	22.225	1369.921	1048.631
340.446	22.275	1369.012	1048.144
341.460	22.475	1368.131	1048.565
342.475	22.553	1367.412	1048.388
343.489	22.761	1366.738	1049.010
344.504	22.848	1365.958	1048.836
345.519	22.936	1364.728	1048.323
346.533	22.985	1363.891	1047.877
347.548	22.943	1363.215	1047.016
348.562	22.949	1362.896	1046.712
349.577	23.052	1361.626	1046.258
350.592	22.803	1360.839	1044.087
351.606	22.445	1359.442	1040.808
352.621	22.270	1358.000	1038.579
353.635	22.140	1356.815	1036.814
354.650	22.070	1356.009	1035.690
355.665	22.098	1355.038	1035.021
356.679	22.167	1353.998	1034.542
357.694	22.278	1352.770	1034.169
358.708	22.304	1352.015	1033.650
359.723	22.410	1351.302	1033.638
360.738	22.552	1350.112	1033.467
361.752	22.493	1349.188	1032.321
362.767	22.447	1347.870	1030.951
363.781	22.490	1347.122	1030.545
364.796	22.557	1346.314	1030.225
365.810	22.684	1345.420	1030.188
366.825	22.867	1345.154	1030.966
367.840	22.912	1345.426	1031.343
368.854	23.060	1344.492	1031.399
369.869	23.227	1343.998	1031.902
370.883	23.326	1343.220	1031.790
371.898	23.185	1342.374	1030.231
372.913	22.939	1341.259	1027.852
373.927	22.823	1340.503	1026.506
374.942	22.838	1339.579	1025.797
375.956	22.959	1339.488	1026.341
376.971	23.117	1338.143	1026.132
377.986	22.970	1337.066	1024.367
379.000	23.007	1336.527	1024.075
380.015	23.102	1335.979	1024.115
381.029	23.369	1334.962	1024.792
382.044	23.398	1334.949	1024.858
383.059	23.339	1334.188	1023.841
384.073	23.350	1333.555	1023.331
385.088	23.270	1332.486	1021.956
386.102	23.462	1331.633	1022.315
387.117	23.420	1330.966	1021.475
388.132	23.267	1330.235	1019.940
389.146	22.844	1329.118	1016.559
390.161	22.853	1327.674	1015.419
391.175	22.746	1327.674	1014.712
392.190	22.824	1326.227	1013.962
393.205	22.951	1325.848	1014.315
394.219	23.107	1325.062	1014.518
395.234	23.191	1323.747	1013.903
396.248	23.092	1322.610	1012.375
397.263	22.916	1320.950	1010.009
398.278	23.006	1319.112	1009.028
399.292	22.871	1318.155	1007.436
400.307	22.698	1317.332	1005.730
401.321	22.628	1316.314	1004.464
402.336	22.601	1315.134	1003.324
403.350	22.592	1313.803	1002.166
404.365	22.610	1313.162	1001.694
405.380	22.689	1312.195	1001.313
406.394	22.796	1312.055	1001.730
407.409	22.858	1311.470	1001.541
408.423	22.943	1310.913	1001.510
409.438	23.242	1310.779	1003.015
410.453	23.305	1310.231	1002.862
411.467	23.299	1309.626	1002.277
412.482	23.449	1308.919	1002.496
413.496	23.589	1308.065	1002.543
414.511	23.650	1307.452	1002.330
415.526	23.616	1306.797	1001.549
416.540	23.684	1306.177	1001.368
417.555	23.791	1305.949	1001.704
418.569	23.932	1304.961	1001.657
419.584	23.735	1304.244	999.904
420.599	23.521	1303.629	998.141
421.613	147.340	1435.279	1798.200
422.628	142.728	1454.419	1798.328
