DTS Sentinel unit serial number:	SN413079Multiplexer serial number:	ORYXHardware model number:	OX4-SRSoftware version number:	ORYX F/W v4.00 Oryx Data Collector v3.7.2.0data status	okinstallation	princeton_trtdifferential loss correction	single-endedforward channel	channel 4reverse channel	N/Adate	2019/09/17time	22:49:35forward acquisition time	60.00reverse acquisition time	0.00gamma	496.2192k internal	0.2330k external	0.2330temperature offset calibration	0.9996default loss term (dB/km)	0.3790temperature slope calibration	1.0000multiplexer offset coefficient	1.0000multiplexer slope coefficient	1.0000fibre end	0.00T internal ref (°C)	24.97T ext. ref 1 (°C)	0.19T ext. ref 2 (°C)	18.03length (m)	temperature (°C)	Stokes	anti-Stokes-747.200	174.895	0.058	-0.085
-746.185	800.000	-0.032	-0.132
-745.171	-13.258	0.220	-0.144
-744.156	711.392	-0.083	0.220
-743.142	-112.607	-0.275	-0.055
-742.127	163.185	0.153	0.217
-741.112	800.000	0.049	0.189
-740.098	-14.484	0.183	-0.118
-739.083	-139.593	0.346	0.037
-738.069	800.000	0.019	0.075
-737.054	146.544	-0.212	0.287
-736.039	29.662	-0.135	-0.115
-735.025	-69.726	0.383	0.147
-734.010	82.382	-0.040	0.044
-732.996	242.234	0.146	-0.247
-731.981	-165.235	-0.072	-0.003
-730.966	-200.000	-0.037	-0.375
-729.952	-170.037	-0.172	0.006
-728.937	-200.000	0.002	0.241
-727.923	-26.499	-0.350	-0.206
-726.908	167.462	-0.145	-0.207
-725.894	172.966	-0.045	0.066
-724.879	-119.239	-0.160	0.028
-723.864	-64.910	-0.316	-0.129
-722.850	800.000	-0.073	-0.215
-721.835	246.888	-0.199	-0.338
-720.821	133.469	-0.094	0.122
-719.806	-11.912	-0.040	0.026
-718.791	800.000	-0.051	-0.209
-717.777	-63.245	0.158	-0.065
-716.762	242.196	-0.075	0.127
-715.748	-200.000	0.005	0.266
-714.733	-200.000	0.058	-0.541
-713.718	-200.000	0.004	-0.215
-712.704	-172.571	-0.240	-0.008
-711.689	453.634	0.104	0.231
-710.675	133.603	0.146	0.190
-709.660	1.219	0.273	0.197
-708.645	800.000	-0.044	-0.126
-707.631	468.218	-0.104	-0.234
-706.616	-112.730	0.141	-0.028
-705.602	47.094	-0.287	0.268
-704.587	-200.000	-0.008	0.101
-703.572	-200.000	-0.031	-0.142
-702.558	1.537	-0.204	-0.148
-701.543	-117.550	-0.414	-0.075
-700.529	-40.340	-0.263	0.138
-699.514	-200.000	-0.195	0.001
-698.499	-92.353	0.202	0.057
-697.485	752.450	0.013	0.034
-696.470	123.146	-0.103	0.130
-695.456	-168.398	0.094	-0.004
-694.441	78.517	0.105	-0.113
-693.426	-200.000	0.023	-0.184
-692.412	170.472	0.027	-0.039
-691.397	-200.000	0.021	0.169
-690.383	-186.399	0.158	-0.002
-689.368	-128.016	-0.293	-0.042
-688.354	800.000	0.056	-0.230
-687.339	15.722	0.302	-0.238
-686.324	-79.189	0.232	-0.079
-685.310	35.007	-0.256	-0.225
-684.295	-66.247	-0.364	-0.146
-683.281	-112.995	-0.381	-0.076
-682.266	800.000	-0.059	0.191
-681.251	-200.000	0.052	-0.305
-680.237	-90.853	-0.118	-0.034
-679.222	2.417	-0.326	-0.237
-678.208	800.000	-0.024	-0.102
-677.193	800.000	-0.117	-0.465
-676.178	-200.000	-0.013	-0.291
-675.164	-37.069	-0.152	0.082
-674.149	66.769	-0.091	-0.093
-673.135	-36.688	0.075	0.040
-672.120	-58.810	-0.119	-0.052
-671.105	-55.885	-0.115	0.052
-670.091	-72.090	0.169	0.063
-669.076	-64.726	0.123	0.050
-668.062	-194.547	-0.160	0.001
-667.047	-20.792	-0.187	0.115
-666.032	-154.220	0.156	-0.011
-665.018	30.542	0.539	-0.463
-664.003	-200.000	0.031	-0.334
-662.989	134.177	-0.152	0.198
-661.974	-4.545	0.294	0.204
-660.959	-10.736	-0.384	0.255
-659.945	-73.907	0.099	-0.036
-658.930	-53.883	-0.187	0.086
-657.916	330.022	0.066	-0.127
-656.901	-200.000	-0.034	0.307
-655.886	-119.514	0.506	0.088
-654.872	800.000	-0.050	0.174
-653.857	96.101	0.143	0.164
-652.843	-130.835	0.233	-0.031
-651.828	-50.122	0.146	-0.069
-650.814	-97.357	-0.442	-0.115
-649.799	-88.482	0.074	0.022
-648.784	-21.228	-0.224	0.137
-647.770	-131.410	-0.276	0.037
-646.755	-200.000	0.047	-0.310
-645.741	-85.925	-0.194	0.060
-644.726	-125.621	0.282	-0.043
-643.711	-200.000	0.003	-0.126
-642.697	-200.000	0.345	0.002
-641.682	-157.988	-0.343	0.020
-640.668	800.000	-0.080	-0.338
-639.653	-68.309	-0.216	0.084
-638.638	800.000	0.097	0.274
-637.624	800.000	0.042	-0.155
-636.609	800.000	0.062	-0.195
-635.595	800.000	0.066	0.280
-634.580	149.027	-0.154	-0.209
-633.565	56.774	0.040	0.039
-632.551	-67.949	-0.366	-0.143
-631.536	-4.976	-0.039	0.027
-630.522	161.078	0.288	0.403
-629.507	-200.000	-0.013	0.104
-628.492	800.000	0.033	-0.105
-627.478	392.217	0.031	-0.065
-626.463	-200.000	-0.052	0.329
-625.449	250.675	-0.178	0.303
-624.434	-78.574	-0.288	0.099
-623.419	800.000	-0.060	-0.188
-622.405	-106.018	0.238	-0.054
-621.390	-86.785	0.153	-0.047
-620.376	-200.000	-0.044	-0.277
-619.361	410.928	-0.016	0.034
-618.346	800.000	-0.011	-0.042
-617.332	800.000	0.035	-0.130
-616.317	800.000	-0.010	0.042
-615.303	-113.048	-0.109	0.022
-614.288	416.464	0.011	0.023
-613.273	271.567	0.101	0.177
-612.259	500.289	-0.081	-0.187
-611.244	-41.279	-0.076	-0.039
-610.230	-124.424	0.182	0.028
-609.215	-41.582	0.094	-0.048
-608.201	-17.323	0.139	-0.088
-607.186	5.708	-0.224	-0.165
-606.171	800.000	0.026	-0.089
-605.157	-89.013	0.086	0.025
-604.142	-21.161	-0.068	-0.042
-603.128	231.794	-0.062	0.102
-602.113	-67.224	0.268	-0.106
-601.098	5.198	-0.156	0.115
-600.084	73.354	-0.034	0.035
-599.069	219.208	0.026	0.041
-598.055	800.000	-0.027	-0.106
-597.040	519.698	0.061	-0.142
-596.025	-125.678	-0.108	-0.016
-595.011	479.559	0.097	-0.221
-593.996	486.911	-0.065	-0.148
-592.982	-80.801	0.263	0.087
-591.967	-65.808	-0.072	0.029
-590.952	41.268	0.206	-0.187
-589.938	205.781	-0.190	-0.295
-588.923	-200.000	0.000	0.090
-587.909	-116.010	0.534	0.100
-586.894	-72.601	-0.167	-0.062
-585.879	-7.497	0.094	-0.064
-584.865	174.162	-0.208	-0.300
-583.850	-158.816	0.307	-0.018
-582.836	327.246	0.166	0.318
-581.821	93.297	0.134	-0.152
-580.806	-30.962	-0.344	-0.194
-579.792	-145.656	-0.385	-0.034
-578.777	139.979	-0.198	0.261
-577.763	-155.177	-0.230	-0.015
-576.748	283.226	0.050	-0.090
-575.733	679.013	0.018	-0.048
-574.719	35.992	-0.086	0.076
-573.704	800.000	0.103	0.379
-572.690	-58.471	-0.106	-0.046
-571.675	-164.589	-0.260	-0.012
-570.661	-0.334	0.152	0.108
-569.646	-160.612	-0.157	0.008
-568.631	800.000	-0.125	-0.439
-567.617	255.986	-0.132	-0.226
-566.602	106.184	-0.129	0.153
-565.588	-200.000	0.163	0.000
-564.573	800.000	0.091	-0.299
-563.558	-200.000	-0.015	-0.107
-562.544	800.000	0.017	0.057
-561.529	179.913	-0.167	0.244
-560.515	498.891	0.065	-0.150
-559.500	800.000	0.066	-0.231
-558.485	-200.000	-0.004	-0.046
-557.471	646.156	-0.029	0.074
-556.456	29.269	-0.142	0.121
-555.442	-41.382	-0.042	0.022
-554.427	800.000	-0.012	0.046
-553.412	-200.000	0.025	-0.216
-552.398	-75.833	-0.398	-0.141
-551.383	-82.846	0.181	0.058
-550.369	-57.384	0.126	0.055
-549.354	-86.960	0.294	0.090
-548.339	400.196	-0.055	-0.116
-547.325	-68.162	0.357	0.139
-546.310	-85.881	0.125	-0.039
-545.296	-60.532	-0.048	-0.020
-544.281	-46.364	-0.175	0.086
-543.266	800.000	-0.061	-0.237
-542.252	150.926	0.104	-0.141
-541.237	-200.000	-0.020	-0.388
-540.223	-12.621	0.079	0.051
-539.208	8.820	-0.282	-0.212
-538.193	-53.977	-0.226	0.103
-537.179	-200.000	0.026	0.287
-536.164	122.966	0.061	0.076
-535.150	-0.052	-0.243	-0.173
-534.135	-67.906	-0.197	0.077
-533.121	227.632	-0.144	-0.234
-532.106	-47.807	0.229	-0.111
-531.091	-200.000	-0.014	-0.236
-530.077	-200.000	-0.014	0.175
-529.062	-87.638	-0.154	0.046
-528.048	800.000	0.105	0.333
-527.033	800.000	0.066	0.285
-526.018	342.363	-0.150	-0.294
-525.004	800.000	0.070	-0.206
-523.989	-200.000	0.012	0.103
-522.975	-200.000	-0.025	0.205
-521.960	137.240	-0.053	0.069
-520.945	70.444	0.281	-0.290
-519.931	-200.000	0.025	-0.250
-518.916	-156.030	0.217	-0.014
-517.902	-200.000	0.005	0.149
-516.887	66.306	-0.348	-0.352
-515.872	800.000	0.059	-0.164
-514.858	-94.831	0.318	0.086
-513.843	-72.848	0.142	-0.052
-512.829	-134.636	0.251	-0.030
-511.814	42.226	-0.493	0.447
-510.799	239.287	-0.085	0.142
-509.785	-200.000	-0.008	0.471
-508.770	103.100	-0.109	-0.127
-507.756	5.169	0.048	-0.035
-506.741	563.502	0.053	0.128
-505.726	9.934	0.115	-0.087
-504.712	-41.831	0.211	0.108
-503.697	800.000	-0.044	-0.180
-502.683	200.571	-0.119	0.182
-501.668	-11.056	-0.171	0.112
-500.653	122.058	0.104	0.130
-499.639	345.097	0.083	0.162
-498.624	-200.000	0.029	0.303
-497.610	43.564	0.205	-0.187
-496.595	45.240	0.036	0.033
-495.581	-193.311	-0.176	-0.002
-494.566	-200.000	-0.020	-0.103
-493.551	11.129	-0.150	0.114
-492.537	318.114	0.201	0.379
-491.522	-189.358	-0.372	-0.004
-490.508	-13.951	-0.195	-0.126
-489.493	171.104	0.150	-0.215
-488.478	-62.874	-0.305	-0.126
-487.464	-107.217	0.252	-0.055
-486.449	-138.712	0.209	0.023
-485.435	1.594	-0.221	-0.159
-484.420	500.788	-0.111	-0.256
-483.405	800.000	0.178	0.578
-482.391	218.347	0.097	0.155
-481.376	350.697	-0.073	0.144
-480.362	-200.000	0.048	0.289
-479.347	-64.853	0.076	0.030
-478.332	-65.362	0.106	-0.042
-477.318	54.082	-0.194	-0.185
-476.303	19.631	-0.072	0.058
-475.289	-114.428	0.403	-0.077
-474.274	-114.070	-0.192	0.037
-473.259	208.095	0.126	-0.195
-472.245	-89.455	0.071	0.021
-471.230	-142.845	-0.065	0.006
-470.216	92.619	0.214	-0.241
-469.201	516.030	-0.029	-0.068
-468.186	406.746	0.132	-0.277
-467.172	31.915	0.017	-0.015
-466.157	737.358	0.040	-0.107
-465.143	309.002	-0.135	0.252
-464.128	800.000	0.060	-0.180
-463.113	-144.717	-0.393	0.036
-462.099	-169.687	-0.463	0.017
-461.084	800.000	0.089	-0.360
-460.070	88.646	0.034	-0.037
-459.055	141.693	-0.131	0.173
-458.040	-11.337	0.111	-0.073
-457.026	-132.711	-0.331	0.042
-456.011	-200.000	-0.038	0.257
-454.997	42.968	0.121	-0.110
-453.982	27.538	0.034	0.029
-452.968	383.501	-0.100	0.205
-451.953	-110.267	0.075	0.015
-450.938	-74.098	0.174	0.063
-449.924	383.187	0.087	-0.178
-448.909	-75.074	-0.074	0.026
-447.895	-73.866	0.165	-0.060
-446.880	-14.050	-0.088	0.056
-445.865	-8.382	-0.218	0.146
-444.851	222.623	0.142	-0.227
-443.836	-88.188	-0.060	0.018
-442.822	-147.079	0.053	-0.005
-441.807	-126.201	-0.280	0.042
-440.792	800.000	0.051	0.146
-439.778	800.000	0.039	0.137
-438.763	-74.140	0.237	0.085
-437.749	-25.436	0.263	0.154
-436.734	56.099	0.386	-0.373
-435.719	-83.491	-0.014	-0.005
-434.705	221.186	0.211	0.338
-433.690	-121.761	-0.368	0.061
-432.676	800.000	-0.122	-0.420
-431.661	171.069	-0.019	0.027
-430.646	69.864	-0.230	0.236
-429.632	-200.000	0.003	0.052
-428.617	-200.000	-0.035	-0.452
-427.603	800.000	0.072	-0.241
-426.588	-168.715	-0.124	-0.005
-425.573	-200.000	-0.016	0.135
-424.559	41.361	-0.195	0.175
-423.544	-121.776	0.197	-0.032
-422.530	-173.009	-0.330	-0.010
-421.515	55.782	0.109	0.105
-420.500	-39.763	-0.420	0.218
-419.486	14.133	0.032	-0.025
-418.471	800.000	0.111	0.319
-417.457	145.413	0.154	0.205
-416.442	76.220	-0.211	-0.222
-415.428	-7.538	-0.096	0.065
-414.413	224.614	-0.102	-0.165
-413.398	-35.011	0.285	-0.155
-412.384	800.000	-0.081	-0.253
-411.369	115.417	0.215	0.261
-410.355	621.685	0.075	-0.188
-409.340	-109.427	0.141	0.030
-408.325	96.362	-0.131	-0.148
-407.311	-200.000	0.015	-0.307
-406.296	-187.496	-0.295	-0.004
-405.282	800.000	-0.051	-0.161
-404.267	405.950	0.161	-0.337
-403.252	-102.573	0.267	0.063
-402.238	800.000	0.057	-0.164
-401.223	-92.724	0.210	0.058
-400.209	136.238	-0.185	-0.239
-399.194	388.339	-0.040	0.083
-398.179	78.070	0.201	0.213
-397.165	-113.443	-0.056	0.011
-396.150	-74.047	-0.219	-0.079
-395.136	800.000	-0.042	0.136
-394.121	62.819	0.032	0.032
-393.106	-200.000	0.037	-0.292
-392.092	89.925	-0.222	-0.246
-391.077	-15.740	0.245	0.155
-390.063	314.531	-0.150	-0.281
-389.048	101.242	0.092	0.106
-388.033	800.000	0.095	0.366
-387.019	-147.188	0.088	-0.007
-386.004	800.000	0.043	0.184
-384.990	75.409	0.091	-0.095
-383.975	67.014	0.305	-0.308
-382.960	-121.151	-0.044	-0.007
-381.946	25.712	-0.086	0.071
-380.931	108.209	-0.192	0.227
-379.917	-200.000	0.003	-0.280
-378.902	774.420	-0.042	0.113
-377.888	126.328	0.212	0.266
-376.873	-20.448	0.143	-0.087
-375.858	145.946	-0.077	0.103
-374.844	-4.230	-0.359	-0.246
-373.829	-200.000	0.002	-0.115
-372.815	-111.086	-0.279	-0.057
-371.800	-96.303	-0.143	-0.038
-370.785	99.193	-0.099	-0.113
-369.771	-149.356	-0.219	0.017
-368.756	-91.248	0.238	-0.068
-367.742	-23.932	0.202	-0.120
-366.727	-25.970	0.274	0.160
-365.712	-200.000	0.006	0.197
-364.698	-141.265	-0.394	-0.040
-363.683	74.265	-0.087	-0.090
-362.669	-49.797	0.094	-0.044
-361.654	-152.173	-0.401	0.029
-360.639	-94.623	0.120	-0.032
-359.625	-58.136	0.381	0.164
-358.610	-42.815	0.350	-0.176
-357.596	-29.295	0.252	-0.143
-356.581	-27.349	0.276	0.159
-355.566	-58.505	-0.109	-0.047
-354.552	-97.890	-0.394	-0.101
-353.537	106.932	0.261	0.308
-352.523	-181.916	-0.106	0.002
-351.508	406.119	-0.036	-0.075
-350.493	87.009	0.313	-0.343
-349.479	300.020	-0.209	0.382
-348.464	800.000	0.049	0.185
-347.450	-200.000	0.023	0.155
-346.435	-200.000	-0.047	0.390
-345.420	-118.191	0.251	-0.044
-344.406	-12.452	-0.140	0.091
-343.391	800.000	-0.017	-0.058
-342.377	-145.756	0.157	-0.014
-341.362	-200.000	-0.024	0.103
-340.348	770.921	-0.100	-0.271
-339.333	296.521	-0.080	-0.145
-338.318	-200.000	0.024	-0.173
-337.304	-200.000	0.006	-0.075
-336.289	-200.000	0.006	-0.306
-335.275	-5.337	0.085	-0.058
-334.260	105.015	0.115	-0.135
-333.245	-45.869	-0.603	0.295
-332.231	399.083	-0.141	0.292
-331.216	-5.490	-0.082	0.056
-330.202	-200.000	0.020	-0.191
-329.187	800.000	-0.040	0.128
-328.172	102.373	-0.169	-0.196
-327.158	40.125	0.139	-0.124
-326.143	-200.000	0.281	0.000
-325.129	-157.455	0.029	0.002
-324.114	454.256	-0.070	0.153
-323.099	-61.222	0.056	0.024
-322.085	119.557	0.093	0.114
-321.070	81.296	0.200	-0.214
-320.056	502.571	-0.079	-0.180
-319.041	-187.738	0.187	-0.002
-318.026	2.702	0.251	0.180
-317.012	-151.392	0.567	0.042
-315.997	-4.875	-0.177	0.121
-314.983	-114.524	0.538	0.102
-313.968	509.827	0.018	-0.042
-312.953	47.436	0.287	-0.264
-311.939	-129.124	-0.254	-0.035
-310.924	-35.201	0.200	-0.108
-309.910	-200.000	-0.382	0.000
-308.895	-200.000	0.061	0.333
-307.880	800.000	0.047	0.164
-306.866	730.581	-0.041	0.109
-305.851	-124.090	0.250	0.039
-304.837	-70.247	0.069	-0.026
-303.822	226.079	-0.151	0.242
-302.807	-200.000	0.044	0.348
-301.793	-95.122	-0.116	0.031
-300.778	-76.930	0.465	0.161
-299.764	-200.000	-0.018	0.197
-298.749	127.534	-0.182	-0.228
-297.735	-200.000	-0.027	0.212
-296.720	226.244	0.018	0.029
-295.705	-107.433	-0.233	0.051
-294.691	-9.852	0.126	0.083
-293.676	-44.708	-0.259	-0.128
-292.662	800.000	0.108	-0.397
-291.647	-158.764	-0.588	-0.033
-290.632	-200.000	0.052	0.284
-289.618	-200.000	0.029	-0.282
-288.603	658.711	-0.041	0.104
-287.589	-75.608	-0.141	-0.050
-286.574	-35.902	0.088	-0.047
-285.559	37.279	0.256	0.224
-284.545	-200.000	0.024	-0.110
-283.530	-47.508	-0.200	-0.096
-282.516	-115.688	0.379	0.070
-281.501	-191.766	0.114	-0.001
-280.486	-91.675	-0.174	-0.049
-279.472	75.675	-0.066	0.069
-278.457	-200.000	0.006	0.040
-277.443	-141.313	0.224	0.022
-276.428	53.821	-0.380	0.361
-275.413	274.593	-0.178	0.312
-274.399	168.877	-0.129	-0.182
-273.384	-200.000	0.002	-0.250
-272.370	271.325	-0.142	-0.246
-271.355	8.782	-0.075	-0.056
-270.340	800.000	0.070	-0.274
-269.326	-78.214	0.089	0.030
-268.311	-104.411	-0.173	0.040
-267.297	800.000	-0.080	-0.261
-266.282	-130.908	0.135	0.018
-265.267	-147.596	0.156	0.013
-264.253	-200.000	-0.015	-0.103
-263.238	-200.000	-0.052	0.245
-262.224	-104.937	0.376	-0.085
-261.209	215.027	-0.200	-0.313
-260.195	49.054	0.208	0.193
-259.180	-10.358	-0.071	0.047
-258.165	63.975	0.189	-0.188
-257.151	800.000	0.091	0.339
-256.136	536.844	-0.078	0.183
-255.122	-195.619	-0.155	0.001
-254.107	0.793	-0.228	-0.161
-253.092	77.616	0.130	-0.137
-252.078	-42.986	-0.158	0.079
-251.063	-200.000	0.003	-0.034
-250.049	-1.670	0.205	0.142
-249.034	-14.857	0.181	0.115
-248.019	-76.359	-0.142	0.049
-247.005	482.870	0.163	0.366
-245.990	192.143	0.122	0.181
-244.976	-6.593	0.147	0.099
-243.961	-102.315	-0.256	0.061
-242.946	-200.000	0.010	-0.227
-241.932	203.679	0.099	0.151
-240.917	800.000	-0.026	-0.072
-239.903	-200.000	0.050	-0.257
-238.888	-118.891	0.316	-0.055
-237.873	-55.042	0.097	-0.043
-236.859	-93.880	-0.116	0.032
-235.844	-200.000	-0.036	-0.223
-234.830	800.000	0.006	0.023
-233.815	-117.675	0.204	-0.036
-232.800	-70.006	0.236	-0.089
-231.786	-200.000	0.001	-0.102
-230.771	-23.898	-0.146	-0.086
-229.757	-91.661	-0.115	0.032
-228.742	-96.296	-0.229	-0.060
-227.727	219.562	-0.085	0.134
-226.713	-200.000	-0.003	-0.084
-225.698	-180.061	-0.174	0.004
-224.684	800.000	-0.025	-0.073
-223.669	-45.693	-0.096	0.047
-222.655	117.056	-0.319	0.387
-221.640	65.035	-0.098	0.098
-220.625	-21.844	0.213	0.128
-219.611	68.526	0.200	-0.202
-218.596	131.512	0.127	-0.161
-217.582	-129.894	0.060	-0.008
-216.567	63.194	-0.091	-0.090
-215.552	54.429	0.097	-0.092
-214.538	-20.584	0.143	0.086
-213.523	237.373	0.144	0.235
-212.509	-12.477	-0.199	0.128
-211.494	49.422	-0.179	0.166
-210.479	800.000	-0.085	0.260
-209.465	-33.466	0.232	-0.126
-208.450	-26.221	-0.328	0.190
-207.436	-127.416	-0.191	0.027
-206.421	-32.136	-0.096	0.053
-205.406	-200.000	0.013	-0.227
-204.392	117.909	-0.142	0.173
-203.377	80.091	-0.184	-0.195
-202.363	-179.891	-0.312	-0.007
-201.348	-70.806	-0.166	-0.062
-200.333	43.317	0.243	0.219
-199.319	442.705	0.074	-0.160
-198.304	179.944	-0.039	0.056
-197.290	39.322	0.074	0.065
-196.275	141.992	0.147	0.192
-195.260	-5.755	0.155	-0.105
-194.246	-105.092	-0.332	0.075
-193.231	48.963	-0.193	0.178
-192.217	-200.000	-0.044	-0.306
-191.202	143.688	-0.058	0.076
-190.187	800.000	-0.030	-0.096
-189.173	-108.595	0.215	-0.045
-188.158	-155.435	-0.148	0.009
-187.144	33.664	-0.065	-0.055
-186.129	110.656	0.165	-0.195
-185.114	18.955	0.361	0.285
-184.100	38.577	-0.249	0.219
-183.085	-138.112	-0.132	0.014
-182.071	-200.000	0.008	0.188
-181.056	800.000	-0.067	0.284
-180.042	71.021	0.196	-0.200
-179.027	-118.900	0.382	0.066
-178.012	160.746	0.166	0.228
-176.998	80.722	0.285	-0.303
-175.983	49.755	-0.169	-0.157
-174.969	68.135	0.067	0.068
-173.954	-169.450	0.315	-0.011
-172.939	48.359	-0.171	-0.158
-171.925	-113.119	0.019	0.004
-170.910	-200.000	0.014	-0.060
-169.896	98.834	-0.090	-0.102
-168.881	433.958	-0.136	-0.290
-167.866	-131.993	-0.487	0.062
-166.852	-6.913	0.318	0.213
-165.837	-58.240	0.198	-0.085
-164.823	-12.030	0.357	0.230
-163.808	194.444	-0.152	0.226
-162.793	-200.000	-0.041	0.246
-161.779	160.783	-0.290	0.399
-160.764	679.946	0.037	0.096
-159.750	13.642	0.066	0.050
-158.735	-200.000	0.057	-0.312
-157.720	-40.357	0.268	-0.137
-156.706	800.000	0.088	0.329
-155.691	-73.687	0.098	0.035
-154.677	-129.838	0.213	0.029
-153.662	557.663	-0.041	-0.098
-152.647	-85.354	-0.123	-0.038
-151.633	-200.000	0.033	0.244
-150.618	-17.604	-0.052	0.032
-149.604	305.518	-0.242	0.442
-148.589	26.055	0.003	0.002
-147.574	800.000	-0.111	0.421
-146.560	-200.000	-0.056	-0.315
-145.545	63.357	-0.023	0.023
-144.531	-200.000	-0.015	0.175
-143.516	11.482	-0.119	0.090
-142.502	128.812	-0.036	-0.046
-141.487	11.487	0.251	-0.189
-140.472	-200.000	-0.007	0.133
-139.458	-35.994	0.213	0.113
-138.443	-73.263	-0.393	0.141
-137.429	-140.628	-0.222	-0.023
-136.414	-122.208	0.485	-0.078
-135.399	800.000	-0.093	0.299
-134.385	12.027	-0.215	-0.162
-133.370	-145.508	0.031	-0.003
-132.356	72.014	0.088	0.090
-131.341	-164.978	0.367	0.016
-130.326	-98.156	0.183	0.046
-129.312	41.430	0.130	0.115
-128.297	117.739	0.178	0.216
-127.283	-200.000	0.016	0.106
-126.268	318.505	0.099	-0.184
-125.253	800.000	-0.225	0.713
-124.239	-200.000	0.013	0.206
-123.224	30.551	-0.051	-0.043
-122.210	250.661	0.108	-0.180
-121.195	800.000	0.152	0.412
-120.180	23.485	-0.122	0.098
-119.166	-132.827	-0.366	-0.046
-118.151	-200.000	0.057	0.271
-117.137	800.000	-0.042	0.123
-116.122	34.299	-0.058	0.050
-115.107	-200.000	0.021	-0.414
-114.093	-53.187	0.321	-0.145
-113.078	108.316	-0.190	0.222
-112.064	-200.000	-0.045	-0.387
-111.049	295.737	0.174	0.313
-110.034	-200.000	0.011	0.243
-109.020	-89.025	0.181	0.053
-108.005	-112.635	0.363	-0.071
-106.991	-114.717	-0.107	-0.020
-105.976	-56.148	0.310	0.135
-104.962	-200.000	0.070	0.305
-103.947	125.035	-0.123	0.153
-102.932	-72.417	0.297	-0.108
-101.918	-92.197	-0.115	0.032
-100.903	70.156	-0.204	-0.207
-99.889	-200.000	0.051	-0.225
-98.874	155.075	-0.201	0.271
-97.859	-67.513	0.133	0.051
-96.845	-200.000	-0.014	0.272
-95.830	30.743	0.156	0.131
-94.816	12.850	0.078	0.060
-93.801	-70.174	0.327	0.122
-92.786	-155.136	0.133	0.009
-91.772	106.024	0.224	0.260
-90.757	90.007	-0.261	0.286
-89.743	62.985	-0.241	-0.237
-88.728	-109.742	0.131	-0.027
-87.713	-48.885	-0.335	0.158
-86.699	-5.468	0.218	0.147
-85.684	541.058	0.052	-0.122
-84.670	-47.736	-0.301	-0.143
-83.655	168.380	-0.072	-0.101
-82.640	-3.987	-0.288	-0.196
-81.626	-90.082	0.304	-0.087
-80.611	645.511	0.008	-0.019
-79.597	-118.705	-0.046	0.008
-78.582	-87.810	-0.192	0.057
-77.567	58.199	-0.304	0.292
-76.553	116.072	0.178	0.214
-75.538	5.678	-0.107	-0.078
-74.524	-39.149	0.218	-0.113
-73.509	-63.200	0.241	0.098
-72.494	-136.496	0.196	-0.022
-71.480	-148.308	0.124	-0.010
-70.465	80.639	-0.167	-0.176
-69.451	-200.000	0.063	0.305
-68.436	562.820	0.151	-0.359
-67.422	35.220	-0.054	-0.047
-66.407	102.970	0.051	0.059
-65.392	-76.111	-0.219	0.076
-64.378	-12.361	-0.101	-0.065
-63.363	-200.000	0.027	0.161
-62.349	486.980	0.207	0.463
-61.334	23.679	-1.465	-1.182
-60.319	-3.885	0.650	0.442
-59.305	800.000	-0.442	-1.333
-58.290	341.840	0.640	1.227
-57.276	800.000	0.510	1.677
-56.261	-200.000	119.549	612.900
-55.246	407.168	1529.571	3167.013
-54.232	146.236	2686.253	3532.825
-53.217	87.832	2300.048	2497.797
-52.203	30.947	2050.146	1721.522
-51.188	26.728	1966.519	1613.755
-50.173	25.525	1950.270	1589.728
-49.159	41.541	2019.748	1791.555
-48.144	40.293	2033.808	1792.662
-47.130	27.053	1987.122	1633.330
-46.115	25.017	1976.036	1605.921
-45.100	24.913	1973.187	1602.610
-44.086	24.848	1971.161	1600.324
-43.071	24.945	1968.236	1598.751
-42.057	24.843	1966.341	1596.233
-41.042	24.840	1964.536	1594.684
-40.027	24.857	1962.414	1593.043
-39.013	24.863	1960.721	1591.658
-37.998	24.912	1958.634	1590.341
-36.984	24.904	1957.469	1589.263
-35.969	24.829	1955.464	1586.900
-34.954	24.927	1953.294	1585.945
-33.940	24.907	1952.655	1585.185
-32.925	24.932	1950.532	1583.621
-31.911	24.973	1948.873	1582.575
-30.896	25.022	1947.120	1581.522
-29.881	25.005	1945.830	1580.264
-28.867	24.982	1944.731	1579.100
-27.852	25.091	1942.434	1578.140
-26.838	25.015	1940.813	1576.087
-25.823	25.040	1938.937	1574.719
-24.809	24.954	1937.549	1572.773
-23.794	25.012	1935.760	1571.770
-22.779	24.954	1934.274	1569.993
-21.765	25.039	1932.509	1569.243
-20.750	24.951	1930.654	1566.904
-19.736	24.952	1929.343	1565.784
-18.721	25.016	1927.493	1564.782
-17.706	25.084	1926.094	1564.174
-16.692	25.006	1924.341	1562.016
-15.677	24.988	1922.397	1560.216
-14.663	24.967	1921.190	1558.990
-13.648	24.953	1920.571	1558.305
-12.633	24.975	1918.765	1556.968
-11.619	24.967	1917.877	1556.119
-10.604	24.966	1916.263	1554.740
-9.590	24.998	1915.163	1554.065
-8.575	24.980	1913.942	1552.852
-7.560	25.013	1912.728	1552.089
-6.546	25.006	1910.695	1550.324
-5.531	24.988	1909.556	1549.182
-4.517	25.044	1908.541	1548.782
-3.502	24.959	1907.596	1547.216
-2.487	24.881	1906.577	1545.655
-1.473	24.990	1905.188	1545.406
-0.458	25.024	1900.031	1541.451
0.556	23.057	1880.215	1511.447
1.571	18.696	1861.559	1459.330
2.586	14.619	1883.738	1441.436
3.600	13.547	1918.498	1458.471
4.615	13.457	1911.810	1452.472
5.629	10.397	1814.020	1352.548
6.644	4.157	1702.142	1220.011
7.659	0.596	1668.762	1168.465
8.673	0.246	1665.539	1163.399
9.688	0.244	1665.258	1163.085
10.702	0.171	1663.585	1161.253
11.717	0.090	1659.251	1157.503
12.731	0.545	1658.219	1160.174
13.746	5.514	1668.156	1205.369
14.761	12.859	1683.365	1273.166
15.775	16.606	1688.914	1306.229
16.790	16.892	1688.820	1308.248
17.804	15.997	1685.150	1298.394
18.819	15.079	1681.650	1288.522
19.834	14.398	1680.105	1281.986
20.848	14.223	1678.292	1279.144
21.863	13.958	1676.441	1275.583
22.877	13.737	1674.911	1272.613
23.892	13.494	1673.907	1269.873
24.907	13.325	1672.829	1267.651
25.921	13.297	1671.799	1266.541
26.936	13.334	1670.420	1265.667
27.950	13.360	1670.061	1265.485
28.965	13.387	1669.723	1265.322
29.980	13.488	1668.554	1265.096
30.994	13.458	1667.752	1264.146
32.009	13.550	1666.520	1263.801
33.023	13.540	1665.783	1263.052
34.038	13.618	1664.667	1262.688
35.053	13.561	1663.681	1261.398
36.067	13.550	1662.056	1259.974
37.082	13.469	1661.610	1258.908
38.096	13.476	1660.650	1258.121
39.111	13.449	1660.036	1257.335
40.126	13.526	1659.260	1257.228
41.140	13.563	1657.921	1256.377
42.155	13.372	1656.757	1253.935
43.169	13.235	1655.446	1251.794
44.184	13.293	1654.490	1251.404
45.199	13.323	1652.658	1250.130
46.213	13.327	1651.669	1249.306
47.228	13.320	1650.632	1248.357
48.242	13.336	1649.532	1247.538
49.257	13.379	1648.795	1247.193
50.271	13.442	1647.008	1246.204
51.286	13.411	1645.842	1244.974
52.301	13.432	1644.822	1244.257
53.315	13.407	1643.339	1242.837
54.330	13.441	1641.361	1241.486
55.344	13.364	1640.447	1240.108
56.359	13.331	1638.938	1238.606
57.374	13.403	1637.758	1238.148
58.388	13.437	1636.565	1237.389
59.403	13.369	1635.395	1235.889
60.417	13.380	1633.660	1234.548
61.432	13.276	1633.031	1233.189
62.447	13.255	1631.621	1231.854
63.461	13.269	1630.615	1231.093
64.476	13.288	1629.525	1230.303
65.490	13.259	1628.197	1228.978
66.505	13.280	1626.841	1227.999
67.520	13.217	1626.108	1226.869
68.534	13.338	1624.537	1226.473
69.549	13.322	1623.790	1225.678
70.563	13.309	1622.691	1224.646
71.578	13.309	1621.511	1223.645
72.593	13.279	1620.705	1222.708
73.607	13.286	1618.886	1221.284
74.622	13.165	1618.381	1219.900
75.636	13.236	1617.281	1219.485
76.651	13.227	1616.540	1218.754
77.666	13.175	1615.571	1217.529
78.680	13.199	1614.348	1216.678
79.695	13.211	1613.473	1215.996
80.709	13.283	1612.633	1215.786
81.724	13.231	1611.677	1214.580
82.739	13.301	1610.745	1214.279
83.753	13.228	1609.882	1212.986
84.768	13.318	1609.175	1213.007
85.782	13.386	1608.033	1212.539
86.797	13.422	1607.419	1212.228
87.812	13.414	1606.022	1211.012
88.826	13.412	1604.758	1209.936
89.841	13.351	1603.404	1208.361
90.855	13.399	1602.341	1207.807
91.870	13.473	1601.109	1207.313
92.884	13.455	1600.576	1206.673
93.899	13.409	1599.459	1205.387
94.914	13.505	1597.705	1204.655
95.928	13.475	1596.964	1203.770
96.943	13.546	1595.458	1203.047
97.957	13.492	1594.200	1201.598
98.972	13.486	1593.220	1200.715
99.987	13.507	1591.719	1199.623
101.001	13.464	1590.150	1198.029
102.016	13.558	1588.150	1197.090
103.030	13.500	1586.931	1195.653
104.045	13.489	1585.907	1194.695
105.060	13.458	1584.502	1193.305
106.074	13.404	1583.235	1191.855
107.089	13.399	1581.313	1190.268
108.103	13.355	1580.007	1188.862
109.118	13.256	1578.844	1187.176
110.133	13.280	1577.438	1186.185
111.147	13.308	1575.907	1185.126
112.162	13.366	1574.586	1184.444
113.176	13.367	1572.943	1183.112
114.191	13.371	1572.132	1182.426
115.206	13.314	1571.114	1181.151
116.220	13.368	1569.579	1180.275
117.235	13.380	1567.997	1179.062
118.249	13.440	1566.559	1178.310
119.264	13.390	1565.485	1177.042
120.279	13.379	1563.909	1175.671
121.293	13.325	1562.902	1174.426
122.308	13.280	1561.389	1172.870
123.322	13.222	1560.157	1171.431
124.337	13.326	1558.120	1170.533
125.352	13.433	1556.740	1170.148
126.366	13.342	1556.066	1168.895
127.381	13.299	1554.715	1167.475
128.395	13.264	1553.382	1166.118
129.410	13.325	1552.027	1165.428
130.424	13.422	1550.414	1164.795
131.439	13.345	1549.052	1163.128
132.454	13.440	1547.542	1162.559
133.468	13.384	1546.471	1161.263
134.483	13.386	1545.066	1160.114
135.497	13.389	1543.935	1159.187
136.512	13.432	1542.631	1158.405
137.527	13.404	1541.040	1156.914
138.541	13.394	1539.977	1155.945
139.556	13.473	1538.325	1155.149
140.570	13.474	1536.860	1153.955
141.585	13.565	1535.521	1153.484
142.600	13.533	1534.428	1152.335
143.614	13.468	1533.200	1150.863
144.629	13.552	1532.129	1150.537
145.643	13.638	1530.403	1149.738
146.658	13.690	1528.977	1148.927
147.673	13.568	1527.841	1147.122
148.687	13.567	1526.609	1146.093
149.702	13.564	1524.712	1144.547
150.716	13.532	1522.901	1142.866
151.731	13.556	1521.882	1142.164
152.746	13.556	1520.747	1141.209
153.760	13.570	1518.840	1139.777
154.775	13.562	1517.922	1138.931
155.789	13.599	1516.522	1138.035
156.804	13.597	1515.324	1137.019
157.819	13.680	1514.104	1136.574
158.833	13.746	1512.523	1135.736
159.848	13.745	1512.053	1135.273
160.862	13.828	1510.877	1134.861
161.877	13.801	1509.559	1133.589
162.892	13.698	1508.742	1132.166
163.906	13.677	1506.743	1130.423
164.921	13.625	1505.559	1129.085
165.935	13.629	1504.891	1128.509
166.950	13.738	1504.065	1128.531
167.964	13.643	1503.351	1127.252
168.979	13.713	1502.007	1126.621
169.994	13.777	1500.802	1126.047
171.008	13.742	1499.677	1124.867
172.023	13.797	1498.194	1124.031
173.037	13.766	1497.349	1123.083
174.052	13.800	1496.119	1122.293
175.067	13.877	1495.009	1121.884
176.081	13.866	1494.100	1121.026
177.096	13.914	1491.715	1119.462
178.110	13.821	1491.408	1118.503
179.125	13.866	1490.301	1117.876
180.140	13.818	1489.013	1116.491
181.154	13.747	1488.274	1115.363
182.169	13.860	1487.352	1115.331
183.183	13.882	1485.854	1114.255
184.198	13.963	1484.412	1113.621
185.213	13.872	1483.451	1112.192
186.227	13.994	1482.293	1112.037
187.242	14.040	1481.912	1111.963
188.256	13.993	1480.976	1110.847
189.271	13.993	1479.972	1109.999
190.286	14.158	1478.558	1109.942
191.300	14.116	1476.982	1108.376
192.315	13.961	1476.113	1106.594
193.329	13.786	1474.854	1104.386
194.344	13.864	1473.850	1104.058
195.359	13.922	1472.652	1103.448
196.373	13.921	1471.867	1102.756
197.388	14.009	1470.592	1102.288
198.402	13.987	1469.604	1101.301
199.417	14.213	1467.847	1101.385
200.432	14.118	1467.579	1100.456
201.446	14.108	1466.551	1099.521
202.461	14.253	1465.217	1099.385
203.475	14.233	1464.251	1098.426
204.490	14.203	1463.230	1097.365
205.504	14.190	1462.185	1096.401
206.519	14.281	1460.993	1096.011
207.534	14.237	1459.646	1094.610
208.548	14.231	1458.924	1093.936
209.563	14.286	1457.390	1093.052
210.577	14.270	1456.027	1091.827
211.592	14.247	1455.414	1091.116
212.607	14.266	1454.784	1090.675
213.621	14.304	1454.145	1090.346
214.636	14.337	1453.257	1089.799
215.650	14.334	1451.904	1088.671
216.665	14.278	1451.455	1087.869
217.680	14.388	1450.330	1087.651
218.694	14.435	1449.291	1087.082
219.709	14.460	1448.625	1086.647
220.723	14.585	1447.451	1086.485
221.738	14.437	1446.759	1084.904
222.753	14.387	1446.290	1084.133
223.767	14.463	1444.861	1083.459
224.782	14.454	1444.242	1082.842
225.796	14.479	1443.413	1082.285
226.811	14.551	1442.305	1081.827
227.826	14.605	1441.427	1081.423
228.840	14.648	1440.207	1080.691
229.855	14.490	1439.271	1078.870
230.869	14.574	1438.185	1078.504
231.884	14.494	1437.883	1077.668
232.899	14.557	1436.491	1076.932
233.913	14.521	1435.289	1075.705
234.928	14.610	1433.840	1075.095
235.942	14.487	1433.058	1073.625
236.957	14.509	1432.137	1072.979
237.972	14.509	1430.480	1071.643
238.986	14.627	1429.347	1071.460
240.001	14.601	1428.629	1070.657
241.015	14.562	1427.732	1069.639
242.030	14.544	1426.651	1068.624
243.045	14.681	1425.240	1068.345
244.059	14.704	1424.559	1067.891
245.074	14.739	1423.652	1067.339
246.088	14.710	1422.916	1066.509
247.103	14.709	1421.874	1065.623
248.117	14.832	1421.245	1065.844
249.132	14.789	1420.580	1064.974
250.147	14.808	1420.209	1064.728
251.161	14.930	1418.967	1064.479
252.176	15.049	1418.669	1064.914
253.190	14.952	1417.940	1063.660
254.205	15.015	1416.991	1063.249
255.220	15.000	1416.137	1062.421
256.234	15.078	1415.136	1062.070
257.249	15.127	1413.761	1061.253
258.263	15.039	1413.766	1060.605
259.278	15.022	1413.059	1059.876
260.293	15.104	1411.351	1059.021
261.307	15.084	1410.634	1058.263
262.322	15.136	1410.141	1058.128
263.336	15.201	1409.320	1057.828
264.351	15.223	1408.123	1056.973
265.366	15.228	1407.352	1056.336
266.380	15.216	1406.838	1055.781
267.395	15.243	1405.223	1054.640
268.409	15.262	1404.714	1054.285
269.424	15.151	1403.850	1052.848
270.439	15.235	1402.525	1052.289
271.453	15.246	1401.446	1051.452
272.468	15.210	1400.980	1050.785
273.482	15.244	1400.124	1050.265
274.497	15.261	1399.350	1049.697
275.512	15.313	1398.095	1048.990
276.526	15.195	1397.330	1047.584
277.541	15.312	1395.991	1047.216
278.555	15.396	1394.913	1046.838
279.570	15.389	1394.197	1046.165
280.585	15.416	1393.377	1045.627
281.599	15.384	1392.592	1044.749
282.614	15.357	1391.928	1043.985
283.628	15.367	1390.901	1043.188
284.643	15.409	1389.487	1042.298
285.657	15.325	1388.574	1040.997
286.672	15.378	1387.940	1040.758
287.687	15.472	1386.680	1040.303
288.701	15.365	1385.957	1039.009
289.716	15.390	1385.310	1038.583
290.730	15.540	1384.222	1038.605
291.745	15.501	1383.341	1037.610
292.760	15.514	1382.089	1036.661
293.774	15.451	1381.539	1035.765
294.789	15.542	1380.220	1035.250
295.803	15.569	1379.477	1034.764
296.818	15.661	1378.235	1034.307
297.833	15.647	1377.366	1033.476
298.847	15.479	1376.660	1031.824
299.862	15.554	1375.599	1031.396
300.876	15.683	1374.622	1031.367
301.891	15.602	1373.618	1030.026
302.906	15.680	1373.079	1030.011
303.920	15.644	1372.711	1029.418
304.935	15.717	1371.846	1029.128
305.949	15.718	1371.125	1028.500
306.964	15.737	1370.348	1027.941
307.979	15.860	1369.487	1027.957
308.993	15.837	1368.514	1026.995
310.008	15.730	1367.647	1025.600
311.022	15.948	1366.011	1025.614
312.037	15.899	1365.255	1024.655
313.052	15.837	1364.783	1023.833
314.066	15.880	1363.420	1022.981
315.081	15.840	1362.240	1021.763
316.095	15.835	1361.603	1021.167
317.110	15.707	1360.577	1019.528
318.125	15.874	1359.609	1019.725
319.139	15.946	1358.434	1019.188
320.154	15.785	1357.746	1017.610
321.168	15.950	1356.456	1017.548
322.183	15.809	1355.818	1016.128
323.197	15.861	1355.127	1015.837
324.212	15.892	1354.041	1015.116
325.227	15.997	1352.802	1014.732
326.241	15.916	1352.608	1014.006
327.256	16.045	1350.639	1013.218
328.270	16.041	1350.223	1012.792
329.285	16.035	1349.765	1012.321
330.300	15.951	1348.721	1010.944
331.314	16.018	1347.865	1010.618
332.329	16.034	1347.011	1009.984
333.343	15.977	1346.038	1008.826
334.358	16.066	1345.222	1008.657
335.373	16.036	1344.696	1007.994
336.387	16.078	1343.957	1007.601
337.402	16.089	1343.201	1007.009
338.416	16.130	1342.475	1006.620
339.431	16.221	1341.551	1006.384
340.446	16.093	1341.005	1005.121
341.460	16.230	1339.977	1005.078
342.475	16.229	1339.245	1004.433
343.489	16.304	1338.274	1004.062
344.504	16.336	1337.180	1003.341
345.519	16.318	1336.162	1002.383
346.533	16.392	1334.878	1001.768
347.548	16.448	1334.381	1001.643
348.562	16.427	1333.392	1000.683
349.577	16.463	1332.541	1000.170
350.592	16.399	1331.901	999.224
351.606	16.314	1331.435	998.281
352.621	16.398	1330.012	997.622
353.635	16.331	1328.921	996.324
354.650	16.430	1327.949	996.086
355.665	16.372	1327.143	995.053
356.679	16.425	1325.816	994.282
357.694	16.484	1324.582	993.619
358.708	16.373	1324.197	992.589
359.723	16.477	1322.496	991.833
360.738	16.456	1321.950	991.217
361.752	16.466	1321.493	990.841
362.767	16.529	1319.566	989.680
363.781	16.537	1318.850	989.102
364.796	16.537	1318.262	988.573
365.810	16.527	1317.603	987.930
366.825	16.626	1317.166	988.097
367.840	16.590	1316.330	987.173
368.854	16.559	1315.567	986.331
369.869	16.721	1314.863	986.658
370.883	16.717	1314.355	986.168
371.898	16.816	1313.448	985.978
372.913	16.691	1312.938	984.781
373.927	16.651	1311.850	983.645
374.942	16.767	1311.137	983.696
375.956	16.705	1310.820	983.013
376.971	16.842	1309.370	982.632
377.986	16.792	1308.695	981.747
379.000	16.783	1307.925	981.032
380.015	16.767	1307.176	980.289
381.029	16.770	1306.409	979.644
382.044	16.960	1305.432	979.923
383.059	16.845	1305.064	978.896
384.073	16.891	1304.207	978.430
385.088	16.933	1303.449	978.020
386.102	17.019	1302.629	977.810
387.117	16.934	1302.076	976.823
388.132	16.908	1301.527	976.174
389.146	17.010	1300.301	975.755
390.161	16.975	1299.478	974.850
391.175	17.005	1298.898	974.500
392.190	17.004	1297.896	973.657
393.205	16.979	1297.490	973.124
394.219	17.135	1295.906	972.741
395.234	17.107	1294.851	971.705
396.248	17.062	1293.739	970.524
397.263	17.064	1292.143	969.254
398.278	17.014	1291.135	968.126
399.292	17.141	1289.758	967.735
400.307	17.051	1289.300	966.792
401.321	16.981	1288.011	965.340
402.336	17.067	1287.121	965.078
403.350	17.093	1286.070	964.349
404.365	16.988	1285.378	963.149
405.380	17.122	1283.944	962.753
406.394	17.196	1283.466	962.724
407.409	17.173	1282.807	962.018
408.423	17.229	1282.367	961.921
409.438	17.238	1281.586	961.300
410.453	17.293	1280.771	960.914
411.467	17.375	1279.966	960.685
412.482	17.283	1279.780	959.944
413.496	17.307	1278.937	959.364
414.511	17.428	1278.015	959.268
415.526	17.402	1277.316	958.511
416.540	17.386	1276.726	957.896
417.555	17.502	1275.698	957.690
418.569	17.456	1275.485	957.187
419.584	17.370	1275.230	956.427
420.599	17.490	1274.126	956.186
421.613	99.858	1358.119	1485.817
422.628	97.417	1370.275	1485.905
