DTS Sentinel unit serial number:	SN413079Multiplexer serial number:	ORYXHardware model number:	OX4-SRSoftware version number:	ORYX F/W v4.00 Oryx Data Collector v3.7.2.0data status	okinstallation	princeton_trtdifferential loss correction	single-endedforward channel	channel 4reverse channel	N/Adate	2019/09/12time	18:56:19forward acquisition time	15.00reverse acquisition time	0.00gamma	496.2192k internal	0.2308k external	0.2308temperature offset calibration	1.0135default loss term (dB/km)	0.3790temperature slope calibration	1.0000multiplexer offset coefficient	1.0000multiplexer slope coefficient	1.0000fibre end	0.00T internal ref (°C)	32.81T ext. ref 1 (°C)	2.98T ext. ref 2 (°C)	27.40length (m)	temperature (°C)	Stokes	anti-Stokes-747.200	-161.256	-0.381	0.020
-746.185	-113.847	-0.081	-0.016
-745.171	-22.480	0.472	-0.290
-744.156	-200.000	-0.034	0.421
-743.142	-9.456	0.582	0.395
-742.127	55.292	0.692	-0.680
-741.112	-55.358	-0.420	0.192
-740.098	800.000	0.279	0.863
-739.083	40.006	0.524	-0.479
-738.069	371.940	-0.405	0.835
-737.054	-200.000	-0.060	-0.513
-736.039	-64.255	0.335	0.139
-735.025	50.264	0.470	0.452
-734.010	-114.916	0.791	-0.153
-732.996	-73.985	0.285	0.105
-731.981	-154.749	-0.190	-0.013
-730.966	-62.485	-0.295	0.125
-729.952	-100.921	-0.396	0.099
-728.937	-57.244	0.671	-0.300
-727.923	-179.468	-0.947	0.021
-726.908	-180.249	0.870	0.019
-725.894	161.612	-0.544	-0.774
-724.879	-200.000	0.091	-0.548
-723.864	108.748	0.399	-0.484
-722.850	-44.313	0.456	-0.232
-721.835	-200.000	-0.021	-0.687
-720.821	4.756	-0.472	-0.352
-719.806	339.823	-0.078	0.155
-718.791	-141.463	-0.886	0.091
-717.777	135.012	-0.391	-0.516
-716.762	-68.511	0.285	-0.112
-715.748	800.000	0.290	-0.858
-714.733	800.000	-0.267	-0.801
-713.718	80.784	0.453	-0.496
-712.704	169.911	0.243	0.353
-711.689	274.605	-0.289	0.520
-710.675	288.061	-0.198	0.364
-709.660	-40.990	-0.324	0.170
-708.645	-200.000	-0.013	-0.292
-707.631	-200.000	0.098	-0.463
-706.616	-39.072	-0.595	0.318
-705.602	-39.877	-0.569	-0.302
-704.587	-39.172	-0.678	-0.362
-703.572	-200.000	-0.015	0.311
-702.558	800.000	0.067	-0.291
-701.543	-200.000	-0.056	1.132
-700.529	266.182	-0.484	-0.858
-699.514	-15.576	0.399	0.259
-698.499	-123.745	-0.644	-0.103
-697.485	-120.790	-0.553	-0.095
-696.470	7.333	0.202	-0.153
-695.456	-41.436	0.378	-0.197
-694.441	-200.000	-0.015	0.189
-693.426	69.751	-0.443	0.463
-692.412	189.701	-0.593	0.903
-691.397	425.130	-0.214	0.467
-690.383	200.754	0.360	-0.561
-689.368	-2.226	-0.448	0.319
-688.354	355.288	-0.437	0.882
-687.339	-200.000	-0.040	-0.390
-686.324	-73.522	-0.204	0.075
-685.310	15.841	0.232	0.185
-684.295	-179.075	1.020	-0.023
-683.281	4.831	0.386	0.288
-682.266	-109.408	0.370	0.079
-681.251	66.973	-0.492	-0.508
-680.237	391.241	-0.034	0.072
-679.222	210.729	-0.137	0.218
-678.208	-59.188	0.377	-0.165
-677.193	-148.357	0.594	-0.049
-676.178	-94.219	0.853	-0.237
-675.164	-200.000	-0.095	0.440
-674.149	800.000	-0.081	0.359
-673.135	-35.515	-0.548	0.302
-672.120	-200.000	-0.008	-0.525
-671.105	732.079	0.158	0.427
-670.091	-101.227	-0.648	0.161
-669.076	88.851	0.221	0.249
-668.062	-200.000	0.044	0.614
-667.047	38.315	0.488	0.441
-666.032	63.346	0.496	-0.504
-665.018	-30.834	0.234	0.134
-664.003	-7.042	-0.157	0.108
-662.989	-76.536	0.584	-0.208
-661.974	-135.915	0.232	-0.028
-660.959	58.990	-0.446	-0.445
-659.945	40.443	-0.386	0.352
-658.930	352.999	-0.356	-0.717
-657.916	-102.764	-0.101	-0.024
-656.901	709.114	0.183	-0.491
-655.886	138.218	-0.308	0.410
-654.872	-12.471	-0.518	0.343
-653.857	-97.113	0.950	0.252
-652.843	-39.574	0.257	0.136
-651.828	800.000	0.145	-0.579
-650.814	365.963	0.221	-0.452
-649.799	296.620	0.195	0.362
-648.784	-189.453	-1.349	0.016
-647.770	-43.934	-0.435	-0.221
-646.755	-200.000	-0.009	-0.382
-645.741	-38.367	0.571	-0.306
-644.726	800.000	0.105	0.394
-643.711	800.000	-0.257	-0.725
-642.697	-34.143	0.233	-0.130
-641.682	-79.456	0.192	0.066
-640.668	202.314	0.187	-0.292
-639.653	11.790	0.937	-0.728
-638.638	-197.142	0.346	-0.002
-637.624	-99.599	0.347	-0.088
-636.609	543.974	0.098	-0.236
-635.595	34.348	0.802	-0.709
-634.580	-132.750	0.734	0.095
-633.565	-98.318	0.382	-0.099
-632.551	48.211	0.160	0.152
-631.536	84.882	-0.476	-0.527
-630.522	800.000	-0.113	0.324
-629.507	423.924	0.266	-0.579
-628.492	183.122	0.428	0.639
-627.478	220.820	-0.167	-0.271
-626.463	-102.722	-0.829	-0.200
-625.449	264.758	0.212	-0.374
-624.434	800.000	-0.166	-0.529
-623.419	-200.000	-0.015	0.143
-622.405	-200.000	0.040	-0.567
-621.390	166.510	0.197	0.283
-620.376	-170.567	-0.192	-0.007
-619.361	-138.920	0.938	-0.103
-618.346	800.000	0.113	-0.320
-617.332	113.132	-0.398	-0.488
-616.317	145.241	-0.553	-0.748
-615.303	7.033	0.491	-0.370
-614.288	86.720	0.286	0.319
-613.273	-29.331	-0.332	-0.192
-612.259	185.021	-0.035	0.053
-611.244	428.039	-0.079	-0.172
-610.230	-53.442	0.209	0.097
-609.215	357.963	0.466	0.941
-608.201	182.887	-0.270	0.403
-607.186	516.525	-0.207	-0.489
-606.171	-200.000	-0.024	-0.263
-605.157	111.225	-0.103	0.126
-604.142	800.000	-0.384	1.175
-603.128	800.000	0.098	0.431
-602.113	-58.996	1.017	0.444
-601.098	-200.000	-0.052	0.394
-600.084	778.896	0.219	-0.604
-599.069	56.173	0.430	0.422
-598.055	-92.324	0.638	-0.182
-597.040	-200.000	0.016	-1.019
-596.025	-200.000	-0.012	-0.463
-595.011	-24.695	0.645	-0.388
-593.996	800.000	-0.124	-0.408
-592.982	-21.692	-0.774	0.476
-591.967	-177.660	0.357	0.009
-590.952	144.110	0.228	-0.308
-589.938	90.724	-0.310	0.352
-588.923	-29.924	-0.619	0.356
-587.909	-200.000	-0.028	-0.285
-586.894	-200.000	-0.028	-0.317
-585.879	-63.952	0.555	-0.229
-584.865	-25.955	-0.314	0.187
-583.850	0.171	0.720	-0.519
-582.836	42.360	-0.924	-0.848
-581.821	-55.969	0.218	0.098
-580.806	-136.684	-0.125	0.015
-579.792	83.374	0.561	0.618
-578.777	261.471	-0.301	0.526
-577.763	-200.000	0.784	0.002
-576.748	-73.801	0.884	0.324
-575.733	235.707	-0.180	-0.301
-574.719	-137.993	0.378	0.043
-573.704	-200.000	-0.028	0.258
-572.690	-200.000	0.027	-0.248
-571.675	-200.000	-0.024	0.409
-570.661	800.000	-0.081	-0.333
-569.646	-128.538	-0.254	0.036
-568.631	-200.000	-0.061	1.025
-567.617	-160.220	-0.464	0.025
-566.602	-103.116	0.396	-0.095
-565.588	-200.000	0.061	0.775
-564.573	139.881	0.305	-0.406
-563.558	45.266	-0.093	0.087
-562.544	800.000	-0.204	0.604
-561.529	-9.635	-0.735	-0.494
-560.515	275.124	0.465	-0.832
-559.500	-200.000	-0.015	-0.076
-558.485	309.977	-0.351	-0.663
-557.471	-188.951	-0.690	-0.008
-556.456	-4.393	0.476	0.332
-555.442	-68.480	-0.501	-0.196
-554.427	-104.218	-0.814	0.191
-553.412	-200.000	-0.032	-0.980
-552.398	40.640	0.255	-0.232
-551.383	-0.061	-0.896	-0.644
-550.369	514.674	0.102	0.241
-549.354	517.970	-0.393	0.928
-548.339	-67.639	-0.493	0.195
-547.325	61.255	-0.420	0.421
-546.310	74.380	0.187	-0.199
-545.296	800.000	-0.134	0.496
-544.281	-111.711	0.185	-0.038
-543.266	121.045	0.198	-0.249
-542.252	-4.974	0.217	-0.151
-541.237	187.632	0.184	-0.277
-540.223	272.184	-0.467	0.831
-539.208	88.072	-0.770	-0.862
-538.193	-48.474	-0.454	-0.220
-537.179	-114.017	0.487	-0.095
-536.164	-119.612	-0.255	-0.045
-535.150	-116.939	0.608	-0.112
-534.135	7.871	-0.659	0.498
-533.121	-22.883	0.094	0.057
-532.106	-200.000	-0.135	0.682
-531.091	-18.194	-0.555	-0.350
-530.077	93.558	-0.268	-0.306
-529.062	101.212	0.316	-0.371
-528.048	-54.822	0.380	-0.173
-527.033	-79.403	-0.644	-0.220
-526.018	461.730	-0.382	-0.858
-525.004	-200.000	-0.088	-0.847
-523.989	104.577	-0.295	-0.350
-522.975	-22.680	-0.237	0.144
-521.960	56.966	0.472	-0.464
-520.945	-68.733	0.434	0.169
-519.931	14.898	0.693	0.546
-518.916	-33.927	-0.390	0.216
-517.902	-1.910	0.249	-0.176
-516.887	800.000	-0.120	0.515
-515.872	-136.290	0.279	0.033
-514.858	139.617	0.097	-0.129
-513.843	292.052	-0.277	0.508
-512.829	-200.000	-0.019	-0.871
-511.814	-65.721	-0.850	0.343
-510.799	800.000	-0.152	-0.496
-509.785	-30.024	-0.396	-0.227
-508.770	-6.426	0.454	-0.312
-507.756	374.228	0.191	0.391
-506.741	800.000	-0.088	-0.315
-505.726	-111.370	0.766	-0.157
-504.712	244.754	-0.195	-0.331
-503.697	3.216	-0.491	0.360
-502.683	21.165	-0.621	0.507
-501.668	69.005	0.364	0.377
-500.653	184.713	0.025	0.038
-499.639	-200.000	-0.002	0.431
-498.624	243.761	0.522	0.881
-497.610	-48.913	0.611	-0.295
-496.595	-152.338	-0.594	-0.043
-495.581	-120.351	0.326	0.056
-494.566	-200.000	0.001	0.054
-493.551	54.777	0.549	0.534
-492.537	800.000	0.142	0.444
-491.522	-200.000	0.050	-0.516
-490.508	-110.666	0.210	-0.044
-489.493	800.000	-0.068	-0.194
-488.478	-37.227	0.200	0.108
-487.464	-45.207	1.290	0.645
-486.449	-48.319	-0.516	-0.250
-485.435	-19.385	-0.683	0.426
-484.420	231.598	-0.495	0.817
-483.405	73.205	0.061	0.065
-482.391	-99.607	-0.690	0.174
-481.376	-121.299	0.217	0.037
-480.362	-8.930	0.773	-0.521
-479.347	342.645	0.220	0.433
-478.332	-200.000	-0.041	-0.242
-477.318	331.442	0.066	-0.128
-476.303	-43.177	-0.759	0.387
-475.289	-200.000	0.113	0.676
-474.274	-130.904	0.343	0.046
-473.259	264.316	0.465	0.814
-472.245	-200.000	0.054	0.648
-471.230	-156.844	0.815	0.050
-470.216	-200.000	-0.017	0.515
-469.201	800.000	0.153	-0.436
-468.186	-29.708	-0.350	0.201
-467.172	149.164	-0.217	-0.296
-466.157	800.000	0.255	0.994
-465.143	39.394	-0.565	0.509
-464.128	800.000	-0.178	0.574
-463.113	110.077	0.682	-0.823
-462.099	436.162	-0.307	-0.672
-461.084	-78.768	0.714	-0.245
-460.070	-200.000	0.070	-0.541
-459.055	90.903	-0.351	0.396
-458.040	-144.440	-0.902	-0.084
-457.026	631.079	-0.121	0.309
-456.011	-200.000	-0.069	0.423
-454.997	-200.000	0.026	-0.228
-453.982	-53.653	0.687	-0.315
-452.968	-43.132	-1.011	0.515
-451.953	-169.096	0.555	0.021
-450.938	-24.813	0.098	-0.058
-449.924	-112.431	0.265	-0.053
-448.909	394.340	-0.245	0.512
-447.895	8.824	0.521	0.394
-446.880	-13.034	0.747	-0.488
-445.865	118.825	0.085	-0.105
-444.851	15.480	-0.444	-0.350
-443.836	30.312	-0.405	0.348
-442.822	-3.594	-0.111	-0.077
-441.807	-136.163	-0.647	0.076
-440.792	-151.359	0.386	0.029
-439.778	-200.000	-0.024	0.134
-438.763	117.093	-0.220	-0.272
-437.749	-123.075	0.657	0.106
-436.734	-138.321	-0.134	0.015
-435.719	48.946	0.603	-0.569
-434.705	367.785	0.490	0.994
-433.690	-88.196	-0.811	0.244
-432.676	-143.059	-0.495	-0.048
-431.661	-66.032	0.505	0.203
-430.646	-35.918	-0.211	-0.115
-429.632	-63.197	0.129	-0.053
-428.617	-35.214	0.112	0.061
-427.603	362.223	-0.321	0.647
-426.588	421.968	0.284	-0.612
-425.573	-145.754	-0.347	0.031
-424.559	-200.000	0.098	0.455
-423.544	-84.022	-0.163	-0.052
-422.530	79.126	-0.244	-0.263
-421.515	-40.395	0.551	0.288
-420.500	-27.040	0.327	0.191
-419.486	-119.723	-0.065	-0.011
-418.471	28.664	0.459	-0.390
-417.457	-169.061	-0.552	-0.021
-416.442	-81.731	-0.601	-0.198
-415.428	190.638	-0.495	0.747
-414.413	288.148	-0.234	0.425
-413.398	439.099	0.121	0.265
-412.384	-200.000	-0.009	-0.328
-411.369	-88.102	-0.241	-0.073
-410.355	-200.000	-0.021	-0.176
-409.340	-49.255	-0.450	-0.216
-408.325	3.480	-0.252	0.184
-407.311	120.915	0.286	0.357
-406.296	800.000	-0.143	0.399
-405.282	468.285	-0.264	-0.595
-404.267	-107.982	0.384	-0.084
-403.252	-10.231	0.236	-0.157
-402.238	-36.840	0.382	-0.206
-401.223	29.620	0.295	-0.252
-400.209	51.118	0.706	-0.672
-399.194	-101.376	0.235	-0.057
-398.179	-200.000	-0.082	-0.638
-397.165	-162.622	0.644	-0.032
-396.150	-200.000	-0.014	-0.091
-395.136	-73.679	-0.148	-0.054
-394.121	-200.000	0.024	-0.526
-393.106	461.883	-0.039	0.087
-392.092	475.164	0.053	0.120
-391.077	435.055	0.129	-0.280
-390.063	-41.444	-0.517	0.267
-389.048	28.380	-0.428	0.363
-388.033	-17.120	0.709	0.449
-387.019	82.738	-0.551	0.600
-386.004	-42.511	0.350	-0.179
-384.990	-61.639	1.167	-0.491
-383.975	-18.686	-0.494	-0.309
-382.960	-61.006	-0.602	-0.255
-381.946	-200.000	-0.132	-0.915
-380.931	166.552	0.205	-0.292
-379.917	223.600	0.111	0.180
-378.902	-169.943	-0.729	-0.026
-377.888	86.867	0.262	-0.290
-376.873	-10.685	0.378	0.250
-375.858	800.000	0.176	0.627
-374.844	-200.000	0.362	-0.002
-373.829	178.617	-0.373	-0.546
-372.815	-0.533	0.683	0.486
-371.800	-28.021	0.212	-0.123
-370.785	-43.829	0.640	0.323
-369.771	38.898	1.023	0.916
-368.756	-200.000	-0.201	-1.022
-367.742	800.000	0.165	0.676
-366.727	133.713	0.365	-0.473
-365.712	-108.457	-0.185	-0.040
-364.698	800.000	0.104	0.338
-363.683	-200.000	-0.072	-0.847
-362.669	263.676	-0.477	-0.830
-361.654	800.000	0.046	0.158
-360.639	800.000	-0.151	0.430
-359.625	-80.657	-0.933	-0.311
-358.610	-54.379	0.849	0.385
-357.596	105.191	-0.186	-0.220
-356.581	358.252	-0.096	0.193
-355.566	-35.426	0.333	0.181
-354.552	-98.591	-0.407	0.104
-353.537	-200.000	0.128	-0.574
-352.523	71.994	0.488	-0.508
-351.508	-119.203	-0.178	-0.031
-350.493	73.766	0.331	0.347
-349.479	-76.200	-0.475	-0.168
-348.464	70.639	0.004	0.004
-347.450	-102.795	-0.822	-0.196
-346.435	13.131	0.633	-0.491
-345.420	-193.374	0.170	0.001
-344.406	156.023	-0.103	-0.142
-343.391	800.000	-0.047	0.163
-342.377	30.515	-0.604	0.517
-341.362	317.728	-0.160	0.302
-340.348	-169.836	0.452	-0.016
-339.333	-32.259	0.672	-0.376
-338.318	267.117	-0.242	-0.424
-337.304	-118.332	-0.118	0.021
-336.289	-129.093	0.294	-0.041
-335.275	-59.630	-0.681	0.292
-334.260	-200.000	-0.065	-0.599
-333.245	-62.939	-0.561	-0.232
-332.231	-200.000	-0.033	0.209
-331.216	294.291	-0.263	0.481
-330.202	-47.141	-0.112	0.054
-329.187	800.000	0.392	-1.181
-328.172	-82.021	0.395	-0.129
-327.158	-1.821	-0.294	-0.207
-326.143	-200.000	-0.001	-0.513
-325.129	-0.957	-0.341	-0.241
-324.114	-147.999	0.768	-0.064
-323.099	78.433	0.560	0.598
-322.085	800.000	-0.053	-0.184
-321.070	71.013	-0.345	-0.358
-320.056	246.069	-0.409	0.689
-319.041	-119.112	0.699	0.122
-318.026	-108.293	-0.041	-0.009
-317.012	16.708	0.636	0.503
-315.997	-47.324	0.601	-0.292
-314.983	800.000	0.238	0.684
-313.968	-200.000	0.028	0.679
-312.953	-13.363	-0.526	0.341
-311.939	193.025	0.125	-0.189
-310.924	-200.000	-0.161	-0.784
-309.910	-200.000	0.011	0.141
-308.895	358.811	-0.217	0.434
-307.880	316.281	0.440	0.831
-306.866	-200.000	-0.067	0.385
-305.851	-200.000	0.074	-0.537
-304.837	-128.433	-0.826	0.117
-303.822	-200.000	-0.074	-0.869
-302.807	159.177	-0.400	-0.556
-301.793	-12.951	-0.324	-0.211
-300.778	-102.024	0.600	-0.145
-299.764	-105.125	0.211	0.048
-298.749	-109.707	-0.922	-0.194
-297.735	388.644	0.419	0.867
-296.720	-107.646	-0.638	0.139
-295.705	249.783	0.106	0.180
-294.691	-107.317	0.219	0.048
-293.676	-200.000	-0.063	-0.444
-292.662	95.758	0.106	-0.121
-291.647	-159.645	1.050	-0.058
-290.632	-40.666	-0.888	0.460
-289.618	268.963	-0.140	0.245
-288.603	-43.900	0.591	0.297
-287.589	233.135	0.481	0.790
-286.574	-23.943	-0.114	0.068
-285.559	-200.000	0.025	0.342
-284.545	482.508	-0.161	-0.366
-283.530	-82.417	0.129	0.042
-282.516	-200.000	-0.039	0.441
-281.501	167.538	-0.101	-0.143
-280.486	111.863	-0.328	-0.396
-279.472	-115.535	0.365	-0.068
-278.457	32.748	0.527	0.456
-277.443	-200.000	0.067	-0.602
-276.428	160.289	0.384	-0.534
-275.413	126.838	0.332	0.420
-274.399	-111.415	-0.558	0.113
-273.384	72.064	-0.132	-0.137
-272.370	30.147	0.203	-0.172
-271.355	481.719	-0.109	-0.248
-270.340	-132.245	0.586	0.076
-269.326	56.426	-0.460	-0.446
-268.311	156.447	0.195	0.268
-267.297	-200.000	-0.002	0.861
-266.282	-5.950	-0.417	-0.285
-265.267	84.684	0.779	0.852
-264.253	37.523	-0.197	0.175
-263.238	-62.665	0.613	0.254
-262.224	-32.374	-0.950	0.529
-261.209	196.430	-0.180	0.274
-260.195	-200.000	-0.043	0.190
-259.180	-62.120	-0.252	0.105
-258.165	85.227	0.426	0.466
-257.151	800.000	-0.255	-0.958
-256.136	-200.000	-0.019	0.492
-255.122	20.992	-0.314	0.254
-254.107	-71.305	0.677	-0.253
-253.092	-200.000	-0.118	0.644
-252.078	-102.493	0.609	0.145
-251.063	-200.000	0.254	1.145
-250.049	270.680	-0.164	0.288
-249.034	-117.322	-0.766	0.139
-248.019	-2.586	-0.731	-0.510
-247.005	-65.435	0.384	0.154
-245.990	29.140	0.181	-0.154
-244.976	-11.053	0.192	0.126
-243.961	-57.303	-0.179	-0.079
-242.946	-120.945	-0.338	0.057
-241.932	-78.852	-0.468	-0.159
-240.917	800.000	-0.112	-0.456
-239.903	-161.355	0.455	0.023
-238.888	166.376	0.264	-0.373
-237.873	-200.000	0.006	0.045
-236.859	12.296	0.232	0.178
-235.844	-96.428	-0.454	-0.120
-234.830	104.610	-0.346	0.406
-233.815	61.574	-0.505	0.501
-232.800	142.140	-0.283	-0.375
-231.786	-1.993	0.297	-0.208
-230.771	418.478	-0.427	-0.910
-229.757	800.000	0.082	-0.236
-228.742	155.313	0.429	0.588
-227.727	30.053	0.819	0.696
-226.713	133.185	0.481	-0.619
-225.698	-97.894	-0.460	-0.118
-224.684	-200.000	0.069	-0.564
-223.669	800.000	0.188	-0.625
-222.655	-88.512	-0.254	-0.075
-221.640	-200.000	0.186	-0.988
-220.625	608.319	-0.505	1.256
-219.611	-21.250	-0.744	0.453
-218.596	-41.800	-0.549	-0.280
-217.582	-200.000	-0.073	0.873
-216.567	-200.000	0.098	-0.629
-215.552	-63.958	0.761	-0.310
-214.538	-123.503	0.252	-0.040
-213.523	142.244	-0.490	0.647
-212.509	319.869	0.150	0.283
-211.494	-200.000	0.022	0.188
-210.479	-8.254	0.070	-0.047
-209.465	41.812	-0.702	-0.634
-208.450	42.090	-0.206	0.186
-207.436	350.832	-0.464	-0.915
-206.421	91.422	0.254	0.284
-205.406	367.647	-0.204	0.409
-204.392	-9.434	-0.324	-0.215
-203.377	653.061	-0.272	0.693
-202.363	-200.000	0.050	-0.565
-201.348	-188.535	0.152	-0.002
-200.333	-35.852	-0.752	0.405
-199.319	-28.805	-0.616	0.353
-198.304	-200.000	0.045	-0.572
-197.290	-33.332	0.627	0.345
-196.275	-149.033	0.422	-0.034
-195.260	-200.000	0.020	-0.229
-194.246	277.318	0.178	-0.316
-193.231	26.795	-0.366	0.305
-192.217	61.300	-0.658	-0.650
-191.202	-73.691	0.532	-0.193
-190.187	-89.850	-0.428	-0.125
-189.173	27.013	0.042	0.035
-188.158	-66.825	-0.514	0.202
-187.144	-154.142	-0.507	0.034
-186.129	-117.425	-0.114	0.021
-185.114	345.130	-0.340	0.663
-184.100	-66.869	0.323	-0.127
-183.085	136.872	0.716	0.930
-182.071	674.134	0.323	0.834
-181.056	403.458	0.381	0.798
-180.042	-101.552	-0.646	-0.156
-179.027	212.945	-0.095	0.149
-178.012	800.000	-0.078	0.295
-176.998	-173.984	0.387	-0.011
-175.983	101.906	-0.369	-0.428
-174.969	393.060	0.327	-0.677
-173.954	61.414	0.076	-0.075
-172.939	-63.638	-0.667	-0.272
-171.925	800.000	0.157	0.574
-170.910	22.375	-0.341	0.277
-169.896	-200.000	-0.074	0.775
-168.881	-93.065	-1.088	0.301
-167.866	-200.000	0.036	-0.269
-166.852	263.426	-0.130	0.224
-165.837	-112.274	0.771	-0.154
-164.823	-163.809	0.667	-0.031
-163.808	-81.655	-0.345	-0.112
-162.793	35.041	-0.441	0.384
-161.779	-73.492	-0.775	0.281
-160.764	36.088	-0.180	0.157
-159.750	-76.773	0.234	0.081
-158.735	-110.774	0.342	0.070
-157.720	-200.000	0.096	-0.445
-156.706	429.638	-0.431	-0.926
-155.691	224.069	0.503	-0.807
-154.677	-107.448	0.190	-0.041
-153.662	618.770	-0.076	-0.191
-152.647	800.000	-0.202	-0.805
-151.633	-14.022	-0.559	-0.358
-150.618	800.000	-0.206	0.700
-149.604	-116.029	-0.454	-0.084
-148.589	-200.000	0.004	0.031
-147.574	130.128	-0.065	0.083
-146.560	-200.000	-0.052	-0.549
-145.545	-131.544	-0.933	-0.122
-144.531	-68.881	0.917	0.352
-143.516	-31.428	0.699	0.390
-142.502	-5.403	-0.462	-0.315
-141.487	-147.661	0.865	-0.072
-140.472	-76.571	0.430	-0.150
-139.458	-106.039	-0.211	-0.047
-138.443	171.747	0.167	0.238
-137.429	800.000	-0.085	-0.266
-136.414	-66.882	0.429	0.168
-135.399	-200.000	0.076	0.696
-134.385	379.371	-0.345	-0.701
-133.370	94.352	0.454	-0.511
-132.356	-153.437	0.766	0.053
-131.341	477.832	-0.301	0.676
-130.326	-2.421	-0.380	-0.264
-129.312	222.001	0.067	0.108
-128.297	262.341	0.545	0.938
-127.283	-171.032	-0.672	0.023
-126.268	434.437	-0.079	-0.170
-125.253	-200.000	0.172	-0.854
-124.239	-157.892	-0.911	0.053
-123.224	-87.222	-0.540	0.163
-122.210	459.543	0.169	0.372
-121.195	-59.131	0.523	0.224
-120.180	-200.000	0.145	-0.833
-119.166	-78.078	-0.254	0.087
-118.151	-55.982	0.398	-0.176
-117.137	3.189	0.513	-0.370
-116.122	61.863	-0.155	0.153
-115.107	-138.344	-0.972	-0.106
-114.093	12.710	-0.393	0.301
-113.078	413.477	0.202	0.426
-112.064	-3.535	-0.304	-0.210
-111.049	800.000	0.361	-1.028
-110.034	-178.244	-0.507	0.012
-109.020	800.000	-0.070	-0.215
-108.005	-18.786	0.441	-0.272
-106.991	68.560	-0.581	-0.591
-105.976	-57.169	-1.031	-0.450
-104.962	-19.966	-0.887	-0.543
-103.947	800.000	0.117	-0.484
-102.932	-154.735	-0.526	0.035
-101.918	-200.000	-0.129	-0.747
-100.903	344.192	-0.199	0.387
-99.889	800.000	-0.187	-0.546
-98.874	-50.527	-0.360	-0.168
-97.859	800.000	0.008	-0.027
-96.845	-115.070	0.168	-0.032
-95.830	-200.000	0.034	0.942
-94.816	227.506	0.194	-0.312
-93.801	307.092	0.292	0.540
-92.786	-44.360	0.381	-0.189
-91.772	458.819	0.203	0.448
-90.757	800.000	0.107	0.459
-89.743	232.703	0.320	0.522
-88.728	-65.402	-0.092	0.037
-87.713	-77.081	0.754	0.260
-86.699	800.000	-0.040	0.140
-85.684	309.537	-0.372	0.689
-84.670	40.672	-0.120	-0.107
-83.655	-200.000	0.076	0.408
-82.640	-61.840	-0.699	-0.290
-81.626	583.070	0.226	-0.549
-80.611	-200.000	0.073	0.386
-79.597	-160.015	0.281	0.015
-78.582	-14.910	-0.523	0.332
-77.567	178.322	-0.115	-0.166
-76.553	207.729	0.254	0.393
-75.538	-12.220	0.127	0.082
-74.524	-200.000	-0.065	-0.888
-73.509	69.883	0.522	-0.533
-72.494	25.101	0.694	-0.570
-71.480	800.000	0.293	1.142
-70.465	23.285	0.434	0.353
-69.451	-142.399	-0.600	0.058
-68.436	123.169	0.427	0.530
-67.422	-63.108	0.196	0.080
-66.407	312.279	0.282	0.524
-65.392	-122.924	0.410	0.065
-64.378	-134.444	0.255	-0.031
-63.363	-200.000	0.074	0.426
-62.349	-120.129	-0.940	0.159
-61.334	800.000	-0.246	-0.913
-60.319	-97.017	-0.511	0.133
-59.305	-200.000	-0.070	-1.834
-58.290	786.949	0.328	0.892
-57.276	208.942	1.258	1.949
-56.261	-200.000	95.524	580.905
-55.246	656.448	1357.892	3452.481
-54.232	199.112	2531.652	3838.425
-53.217	108.979	2281.807	2700.086
-52.203	39.455	2046.676	1814.284
-51.188	34.396	1963.185	1695.347
-50.173	33.307	1944.316	1669.389
-49.159	48.653	1996.834	1852.035
-48.144	49.224	2014.268	1873.240
-47.130	35.231	1975.039	1712.784
-46.115	32.806	1966.056	1683.314
-45.100	32.820	1962.919	1680.693
-44.086	32.652	1959.766	1676.429
-43.071	32.594	1957.833	1674.196
-42.057	32.723	1955.307	1673.115
-41.042	32.722	1953.514	1671.505
-40.027	32.774	1950.952	1669.705
-39.013	32.452	1950.086	1666.051
-37.998	32.663	1948.247	1666.274
-36.984	32.879	1945.919	1666.121
-35.969	32.783	1944.300	1663.828
-34.954	32.709	1942.384	1661.465
-33.940	32.880	1940.286	1661.112
-32.925	32.925	1938.253	1659.706
-31.911	32.721	1938.756	1658.272
-30.896	32.637	1936.105	1655.198
-29.881	32.893	1934.782	1656.250
-28.867	33.008	1932.983	1655.657
-27.852	32.855	1931.882	1653.307
-26.838	32.968	1928.367	1651.219
-25.823	32.736	1927.092	1648.031
-24.809	32.802	1926.592	1648.115
-23.794	32.836	1924.327	1646.413
-22.779	32.783	1922.806	1644.587
-21.765	32.692	1921.109	1642.273
-20.750	32.799	1919.198	1641.509
-19.736	33.038	1916.887	1641.545
-18.721	32.876	1916.437	1639.684
-17.706	32.712	1914.466	1636.507
-16.692	32.908	1912.457	1636.423
-15.677	32.963	1911.242	1635.799
-14.663	32.792	1911.041	1634.082
-13.648	32.924	1908.509	1632.995
-12.633	32.719	1907.263	1630.084
-11.619	32.755	1907.304	1630.366
-10.604	32.852	1905.075	1629.238
-9.590	32.901	1903.373	1628.144
-8.575	32.875	1901.732	1626.444
-7.560	32.880	1901.005	1625.802
-6.546	32.832	1900.015	1624.478
-5.531	32.815	1899.875	1624.146
-4.517	32.750	1897.602	1621.579
-3.502	32.829	1895.983	1620.814
-2.487	32.812	1895.530	1620.216
-1.473	32.821	1893.634	1618.610
-0.458	32.813	1889.153	1614.643
0.556	33.838	1869.763	1587.668
1.571	29.465	1849.500	1534.071
2.586	25.484	1870.300	1517.646
3.600	24.391	1905.232	1536.449
4.615	23.533	1900.890	1525.432
5.629	18.234	1800.548	1401.498
6.644	8.304	1682.220	1232.929
7.659	3.352	1644.863	1167.977
8.673	2.925	1640.784	1161.749
9.688	2.986	1640.662	1162.024
10.702	3.109	1638.268	1161.151
11.717	2.900	1634.915	1157.101
12.731	3.582	1634.677	1161.966
13.746	9.950	1650.428	1221.336
14.761	19.941	1672.616	1313.853
15.775	24.500	1679.277	1353.619
16.790	24.862	1679.910	1356.755
17.804	24.995	1678.340	1356.371
18.819	24.996	1677.976	1355.968
19.834	25.136	1676.710	1355.883
20.848	25.073	1676.206	1354.880
21.863	24.879	1676.487	1353.520
22.877	25.221	1674.264	1354.186
23.892	25.283	1673.870	1354.217
24.907	25.291	1672.299	1352.882
25.921	25.376	1671.047	1352.394
26.936	25.114	1671.450	1350.627
27.950	25.448	1669.503	1351.446
28.965	25.409	1668.004	1349.815
29.980	25.302	1667.570	1348.543
30.994	25.321	1667.475	1348.489
32.009	25.222	1665.833	1346.303
33.023	25.576	1664.429	1347.704
34.038	25.240	1664.312	1344.965
35.053	25.207	1662.926	1343.486
36.067	25.196	1662.530	1342.959
37.082	25.382	1661.033	1343.024
38.096	25.132	1660.623	1340.702
39.111	25.034	1660.668	1339.887
40.126	25.373	1658.157	1340.273
41.140	25.378	1658.675	1340.613
42.155	25.180	1656.647	1337.380
43.169	25.257	1655.833	1337.174
44.184	24.902	1656.418	1334.883
45.199	25.103	1653.370	1333.805
46.213	25.111	1652.792	1333.283
47.228	25.201	1651.115	1332.479
48.242	25.211	1650.546	1331.974
49.257	25.265	1649.586	1331.486
50.271	25.384	1648.271	1331.190
51.286	25.296	1647.007	1329.397
52.301	25.046	1645.915	1326.549
53.315	25.433	1644.231	1327.934
54.330	25.265	1643.661	1326.115
55.344	25.193	1641.970	1324.098
56.359	25.390	1640.525	1324.268
57.374	25.073	1640.754	1321.997
58.388	25.301	1638.918	1322.085
59.403	25.082	1638.530	1320.041
60.417	25.161	1636.540	1318.906
61.432	25.016	1635.173	1316.619
62.447	25.278	1633.638	1317.190
63.461	25.098	1634.331	1316.313
64.476	25.046	1632.490	1314.326
65.490	25.405	1631.103	1315.730
66.505	25.331	1629.774	1313.999
67.520	25.096	1629.426	1311.879
68.534	24.879	1628.881	1309.737
69.549	25.218	1627.098	1310.664
70.563	25.212	1626.460	1309.992
71.578	25.202	1623.839	1307.690
72.593	25.352	1624.233	1308.985
73.607	25.331	1622.849	1307.603
74.622	24.993	1622.632	1304.851
75.636	25.281	1621.968	1306.300
76.651	25.131	1620.526	1303.928
77.666	25.135	1619.758	1303.229
78.680	25.239	1619.262	1303.468
79.695	25.110	1618.787	1302.030
80.709	25.226	1617.484	1301.709
81.724	25.261	1616.997	1301.457
82.739	25.082	1616.848	1299.922
83.753	25.202	1615.822	1299.856
84.768	25.444	1614.245	1300.220
85.782	25.409	1612.930	1298.797
86.797	25.302	1613.690	1298.516
87.812	25.650	1612.074	1299.615
88.826	25.456	1610.381	1296.739
89.841	25.222	1610.206	1294.792
90.855	25.359	1609.656	1295.224
91.870	25.283	1608.620	1293.731
92.884	25.572	1607.067	1294.449
93.899	25.544	1606.425	1293.611
94.914	25.448	1605.612	1292.151
95.928	25.681	1604.335	1292.686
96.943	25.436	1603.432	1290.081
97.957	25.654	1601.098	1289.654
98.972	25.558	1599.645	1287.685
99.987	25.318	1599.393	1285.648
101.001	25.610	1597.101	1285.776
102.016	25.288	1595.874	1282.374
103.030	25.144	1594.525	1280.155
104.045	25.149	1594.829	1280.315
105.060	25.406	1592.563	1280.218
106.074	25.410	1591.534	1279.303
107.089	25.439	1589.789	1277.994
108.103	25.184	1588.327	1274.892
109.118	25.180	1587.949	1274.449
110.133	25.048	1586.688	1272.386
111.147	25.006	1585.520	1271.039
112.162	25.117	1583.747	1270.296
113.176	25.135	1582.221	1269.082
114.191	25.199	1582.129	1269.353
115.206	25.424	1581.020	1269.943
116.220	25.150	1579.731	1266.860
117.235	25.198	1578.356	1265.981
118.249	25.170	1578.022	1265.405
119.264	25.132	1575.234	1262.790
120.279	24.869	1575.667	1261.170
121.293	24.897	1574.642	1260.438
122.308	25.366	1572.889	1262.221
123.322	24.939	1572.324	1258.650
124.337	24.875	1570.832	1256.897
125.352	25.073	1568.779	1256.535
126.366	24.975	1569.108	1255.994
127.381	24.857	1568.159	1254.298
128.395	25.059	1566.925	1254.618
129.410	25.148	1564.191	1252.937
130.424	25.040	1563.898	1251.837
131.439	24.729	1563.533	1249.261
132.454	25.091	1560.854	1249.536
133.468	25.112	1559.984	1248.878
134.483	25.341	1559.193	1249.727
135.497	25.396	1557.947	1249.001
136.512	25.287	1557.527	1247.794
137.527	25.203	1556.120	1245.971
138.541	25.226	1555.233	1245.313
139.556	25.307	1554.425	1245.120
140.570	25.359	1552.036	1243.455
141.585	25.326	1551.659	1242.814
142.600	25.297	1550.780	1241.799
143.614	25.533	1549.233	1242.076
144.629	25.587	1547.320	1240.806
145.643	25.585	1546.349	1239.908
146.658	25.510	1546.311	1239.250
147.673	25.190	1545.620	1236.380
148.687	25.197	1543.526	1234.642
149.702	25.780	1541.659	1237.046
150.716	25.406	1541.412	1234.171
151.731	25.079	1539.712	1230.454
152.746	24.796	1538.637	1227.550
153.760	25.102	1535.928	1227.371
154.775	25.101	1535.508	1226.923
155.789	25.343	1535.637	1228.574
156.804	25.609	1534.922	1229.711
157.819	25.632	1532.718	1227.994
158.833	25.154	1531.854	1223.929
159.848	25.158	1530.778	1222.990
160.862	25.388	1530.116	1223.922
161.877	25.329	1529.945	1223.269
162.892	25.484	1528.274	1222.884
163.906	25.509	1525.687	1220.877
164.921	25.310	1525.128	1218.970
165.935	25.157	1524.986	1217.705
166.950	25.110	1523.878	1216.393
167.964	25.240	1523.351	1216.748
168.979	25.319	1522.682	1216.644
169.994	25.346	1522.161	1216.301
171.008	25.281	1520.541	1214.463
172.023	25.093	1519.475	1212.232
173.037	25.219	1517.819	1211.653
174.052	25.413	1516.991	1212.196
175.067	25.410	1516.529	1211.699
176.081	25.525	1516.007	1211.950
177.096	25.229	1513.995	1208.237
178.110	25.165	1513.717	1207.478
179.125	25.376	1511.381	1206.929
180.140	25.254	1510.891	1205.613
181.154	25.297	1510.282	1205.303
182.169	25.350	1508.297	1203.968
183.183	25.522	1508.157	1204.908
184.198	25.542	1506.448	1203.565
185.213	25.281	1507.476	1202.533
186.227	25.351	1506.261	1201.928
187.242	25.630	1504.918	1202.615
188.256	25.580	1503.673	1201.180
189.271	25.604	1502.566	1200.348
190.286	25.556	1501.949	1199.428
191.300	25.616	1501.412	1199.297
192.315	25.280	1499.596	1195.497
193.329	25.180	1497.971	1193.430
194.344	25.274	1498.763	1194.588
195.359	25.668	1496.981	1195.679
196.373	25.431	1495.788	1193.042
197.388	25.058	1495.333	1190.097
198.402	24.896	1493.742	1187.656
199.417	25.046	1492.609	1187.643
200.432	25.246	1492.744	1188.973
201.446	25.378	1492.605	1189.626
202.461	25.590	1490.698	1189.408
203.475	25.587	1490.649	1189.244
204.490	25.776	1488.051	1188.313
205.504	25.263	1487.951	1184.737
206.519	25.213	1486.607	1183.233
207.534	25.196	1485.579	1182.197
208.548	25.084	1484.615	1180.591
209.563	24.996	1483.904	1179.340
210.577	25.093	1483.089	1179.226
211.592	25.131	1482.128	1178.608
212.607	24.915	1481.522	1176.602
213.621	25.239	1481.405	1178.537
214.636	25.581	1481.270	1180.566
215.650	25.541	1479.272	1178.610
216.665	25.223	1479.241	1176.396
217.680	25.121	1478.654	1175.157
218.694	25.579	1477.698	1177.294
219.709	25.608	1476.619	1176.516
220.723	25.457	1475.197	1174.291
221.738	25.073	1474.355	1171.008
222.753	25.385	1473.400	1172.186
223.767	25.216	1472.647	1170.383
224.782	24.971	1472.287	1168.394
225.796	25.469	1470.179	1169.859
226.811	25.743	1469.269	1170.816
227.826	25.642	1469.367	1170.131
228.840	25.473	1470.030	1169.453
229.855	25.416	1468.000	1167.366
230.869	25.370	1465.966	1165.346
231.884	25.523	1465.197	1165.629
232.899	25.494	1465.257	1165.383
233.913	25.147	1463.768	1161.845
234.928	25.047	1462.752	1160.288
235.942	25.070	1461.804	1159.588
236.957	25.385	1460.730	1160.668
237.972	25.102	1460.405	1158.476
238.986	25.054	1456.907	1155.292
240.001	24.800	1457.874	1154.317
241.015	24.908	1457.050	1154.255
242.030	25.117	1455.175	1154.012
243.045	25.202	1453.881	1153.435
244.059	25.554	1452.053	1154.144
245.074	25.554	1452.958	1154.758
246.088	25.192	1453.270	1152.575
247.103	25.749	1451.483	1154.634
248.117	25.531	1450.654	1152.474
249.132	25.363	1450.852	1151.453
250.147	25.653	1448.785	1151.568
251.161	25.763	1448.756	1152.143
252.176	25.933	1449.077	1153.384
253.190	26.259	1448.023	1154.529
254.205	25.796	1447.252	1150.851
255.220	26.116	1445.679	1151.541
256.234	26.083	1446.013	1151.495
257.249	26.118	1446.289	1151.837
258.263	26.103	1444.397	1150.133
259.278	25.920	1443.072	1147.810
260.293	25.879	1442.532	1147.022
261.307	25.787	1441.276	1145.332
262.322	26.003	1441.260	1146.592
263.336	26.154	1440.670	1146.985
264.351	26.029	1439.153	1144.879
265.366	25.993	1438.348	1143.910
266.380	25.969	1437.297	1142.820
267.395	26.006	1436.117	1142.014
268.409	26.003	1436.505	1142.206
269.424	26.026	1435.011	1141.061
270.439	25.806	1434.000	1138.766
271.453	25.983	1432.858	1138.877
272.468	25.807	1431.728	1136.765
273.482	26.209	1430.396	1138.138
274.497	25.673	1430.263	1134.558
275.512	25.737	1429.756	1134.455
276.526	25.582	1429.078	1132.840
277.541	25.741	1428.082	1132.955
278.555	25.647	1426.600	1131.089
279.570	25.739	1426.071	1131.143
280.585	25.910	1425.782	1131.892
281.599	25.912	1425.055	1131.224
282.614	25.622	1424.667	1128.995
283.628	25.904	1423.499	1129.741
284.643	25.668	1421.985	1126.958
285.657	25.645	1420.240	1125.333
286.672	25.756	1419.327	1125.202
287.687	25.893	1418.442	1125.262
288.701	25.821	1418.407	1124.683
289.716	25.691	1417.607	1123.134
290.730	25.905	1417.514	1124.301
291.745	25.809	1416.263	1122.607
292.760	25.965	1414.716	1122.257
293.774	25.976	1414.745	1122.246
294.789	25.906	1412.992	1120.321
295.803	25.830	1413.198	1119.912
296.818	26.281	1411.196	1121.025
297.833	25.903	1410.467	1118.004
298.847	26.071	1409.603	1118.259
299.862	25.762	1409.825	1116.420
300.876	25.653	1408.792	1114.833
301.891	26.009	1406.390	1115.033
302.906	25.562	1407.225	1112.831
303.920	26.158	1404.924	1114.592
304.935	26.108	1405.689	1114.793
305.949	26.003	1405.321	1113.752
306.964	26.273	1403.987	1114.261
307.979	26.400	1402.905	1114.087
308.993	25.980	1402.435	1111.027
310.008	26.014	1401.790	1110.629
311.022	25.968	1401.155	1109.745
312.037	26.229	1398.538	1109.176
313.052	26.149	1398.637	1108.668
314.066	26.160	1397.728	1107.914
315.081	25.675	1397.423	1104.600
316.095	25.635	1395.595	1102.811
317.110	25.663	1394.090	1101.698
318.125	25.692	1392.193	1100.274
319.139	25.917	1392.132	1101.504
320.154	25.981	1391.136	1101.012
321.168	25.579	1390.899	1098.274
322.183	25.821	1390.076	1099.000
323.197	25.967	1387.588	1097.828
324.212	25.891	1387.561	1097.247
325.227	25.987	1387.557	1097.730
326.241	25.822	1386.111	1095.484
327.256	25.890	1386.354	1095.997
328.270	25.939	1384.371	1094.627
329.285	25.861	1383.716	1093.537
330.300	25.623	1383.535	1091.855
331.314	25.910	1382.038	1092.317
332.329	26.243	1380.269	1092.835
333.343	25.831	1380.013	1090.047
334.358	25.920	1379.888	1090.390
335.373	25.824	1379.242	1089.199
336.387	26.050	1378.479	1089.866
337.402	26.071	1378.129	1089.623
338.416	26.137	1376.768	1088.845
339.431	26.305	1377.361	1090.230
340.446	26.064	1376.428	1087.944
341.460	26.173	1374.849	1087.258
342.475	26.577	1373.757	1088.725
343.489	26.365	1374.109	1087.637
344.504	26.668	1371.906	1087.616
345.519	26.242	1372.351	1085.312
346.533	26.488	1371.431	1085.964
347.548	26.527	1370.389	1085.278
348.562	26.569	1369.914	1085.056
349.577	26.678	1368.799	1084.728
350.592	26.206	1367.977	1081.159
351.606	26.154	1367.200	1080.136
352.621	26.165	1366.101	1079.238
353.635	25.910	1365.768	1077.356
354.650	26.131	1363.104	1076.476
355.665	25.885	1362.747	1074.635
356.679	26.042	1361.372	1074.387
357.694	26.116	1361.224	1074.618
358.708	26.170	1359.800	1073.719
359.723	26.103	1358.487	1072.188
360.738	26.236	1357.830	1072.367
361.752	26.415	1356.266	1072.099
362.767	26.435	1354.679	1070.870
363.781	26.262	1353.119	1068.514
364.796	26.129	1353.831	1068.195
365.810	26.234	1353.030	1068.091
366.825	26.346	1353.585	1069.094
367.840	26.412	1352.797	1068.772
368.854	26.726	1351.691	1069.658
369.869	26.740	1350.562	1068.749
370.883	26.666	1350.388	1068.082
371.898	26.713	1349.198	1067.324
372.913	26.645	1348.468	1066.249
373.927	26.493	1347.424	1064.438
374.942	26.393	1347.128	1063.521
375.956	26.467	1346.771	1063.579
376.971	26.599	1346.595	1064.124
377.986	26.331	1345.493	1061.581
379.000	26.682	1343.883	1062.277
380.015	26.664	1343.932	1062.119
381.029	26.661	1343.432	1061.607
382.044	26.660	1342.533	1060.798
383.059	26.761	1341.335	1060.347
384.073	26.368	1341.205	1057.855
385.088	26.276	1341.202	1057.223
386.102	26.583	1339.739	1057.768
387.117	26.665	1338.617	1057.265
388.132	26.547	1339.314	1057.033
389.146	26.333	1337.083	1053.933
390.161	26.368	1336.710	1053.752
391.175	26.457	1334.764	1052.642
392.190	26.107	1336.001	1051.486
393.205	26.143	1334.217	1050.195
394.219	26.419	1333.164	1050.878
395.234	26.588	1332.928	1051.581
396.248	26.692	1330.231	1049.961
397.263	26.203	1330.157	1046.978
398.278	26.328	1329.124	1046.798
399.292	26.258	1326.789	1044.462
400.307	26.476	1327.059	1045.838
401.321	26.276	1326.309	1043.998
402.336	26.467	1324.839	1043.851
403.350	26.411	1323.859	1042.668
404.365	25.994	1322.799	1039.339
405.380	26.005	1322.801	1039.312
406.394	26.552	1320.634	1040.662
407.409	26.551	1320.339	1040.332
408.423	26.574	1319.244	1039.510
409.438	26.582	1319.216	1039.437
410.453	26.795	1318.357	1039.893
411.467	26.673	1318.665	1039.345
412.482	26.744	1318.366	1039.422
413.496	26.614	1317.835	1038.168
414.511	26.600	1316.747	1037.137
415.526	26.699	1316.383	1037.328
416.540	26.971	1314.228	1037.089
417.555	26.777	1314.154	1035.830
418.569	26.755	1314.077	1035.555
419.584	26.716	1313.014	1034.404
420.599	26.815	1311.635	1033.789
421.613	142.459	1435.215	1792.270
422.628	138.212	1453.211	1792.352
