DTS Sentinel unit serial number:	SN413079Multiplexer serial number:	ORYXHardware model number:	OX4-SRSoftware version number:	ORYX F/W v4.00 Oryx Data Collector v3.7.2.0data status	okinstallation	princeton_trtdifferential loss correction	single-endedforward channel	channel 4reverse channel	N/Adate	2019/09/12time	18:52:19forward acquisition time	15.00reverse acquisition time	0.00gamma	496.2192k internal	0.2307k external	0.2307temperature offset calibration	1.0137default loss term (dB/km)	0.3790temperature slope calibration	1.0000multiplexer offset coefficient	1.0000multiplexer slope coefficient	1.0000fibre end	0.00T internal ref (°C)	32.87T ext. ref 1 (°C)	2.98T ext. ref 2 (°C)	27.39length (m)	temperature (°C)	Stokes	anti-Stokes-747.200	36.076	0.095	-0.085
-746.185	412.002	0.334	-0.722
-745.171	-108.550	0.246	0.054
-744.156	-200.000	-0.190	0.890
-743.142	23.890	-0.153	-0.129
-742.127	-43.999	0.235	-0.120
-741.112	-32.068	0.594	0.338
-740.098	206.324	0.388	-0.614
-739.083	-200.000	-0.030	-0.603
-738.069	247.401	0.146	-0.251
-737.054	-63.649	0.996	0.416
-736.039	-99.533	-0.424	0.108
-735.025	167.041	-0.211	0.304
-734.010	-39.852	1.130	-0.600
-732.996	-15.697	0.747	-0.484
-731.981	800.000	0.102	-0.329
-730.966	-136.954	0.462	0.054
-729.952	-50.997	-1.121	-0.535
-728.937	-9.053	0.181	0.123
-727.923	-58.130	0.361	-0.160
-726.908	-168.895	-0.603	0.023
-725.894	-200.000	-0.192	-0.906
-724.879	137.769	0.320	-0.426
-723.864	-72.325	-0.883	-0.332
-722.850	187.728	-0.111	-0.168
-721.835	23.652	-0.838	-0.701
-720.821	383.857	0.087	-0.182
-719.806	430.196	-0.220	0.484
-718.791	283.226	0.174	-0.317
-717.777	538.049	0.145	-0.351
-716.762	800.000	0.170	0.684
-715.748	800.000	0.158	0.590
-714.733	150.602	-0.351	0.484
-713.718	-200.000	0.138	0.726
-712.704	200.467	0.361	-0.563
-711.689	1.612	0.603	-0.441
-710.675	800.000	0.081	-0.317
-709.660	32.770	-0.173	-0.152
-708.645	101.496	0.398	-0.471
-707.631	800.000	0.196	-0.656
-706.616	743.426	-0.241	0.659
-705.602	-129.961	0.988	-0.137
-704.587	32.065	0.436	-0.382
-703.572	-55.681	-0.584	-0.265
-702.558	-119.272	-0.609	-0.108
-701.543	-126.019	-0.726	-0.111
-700.529	-158.058	-1.080	-0.064
-699.514	311.838	0.281	0.535
-698.499	23.218	-0.427	-0.356
-697.485	61.634	-0.200	-0.202
-696.470	-28.487	-0.394	-0.231
-695.456	-200.000	-0.025	-0.600
-694.441	7.455	-0.308	-0.233
-693.426	231.345	-0.148	0.247
-692.412	367.963	0.081	-0.165
-691.397	800.000	-0.142	-0.518
-690.383	758.184	0.217	0.595
-689.368	113.805	-0.020	0.024
-688.354	-26.809	-0.419	-0.248
-687.339	-85.525	-0.238	-0.075
-686.324	23.200	0.274	-0.228
-685.310	800.000	-0.190	0.837
-684.295	-87.312	0.761	-0.234
-683.281	-61.872	-0.282	-0.120
-682.266	800.000	-0.222	-0.649
-681.251	-10.881	0.201	0.135
-680.237	-135.535	-0.732	0.088
-679.222	-200.000	-0.180	0.864
-678.208	-32.298	-0.335	-0.190
-677.193	135.516	-0.122	0.161
-676.178	-127.475	-0.976	-0.144
-675.164	-165.173	0.523	-0.023
-674.149	18.328	0.569	-0.461
-673.135	-168.768	-0.236	0.009
-672.120	728.749	-0.144	-0.389
-671.105	105.948	0.338	-0.406
-670.091	-24.293	-0.589	-0.356
-669.076	-91.365	0.847	0.246
-668.062	29.544	-0.187	-0.162
-667.047	359.044	0.060	-0.122
-666.032	-200.000	-0.012	-0.191
-665.018	188.272	-0.112	-0.170
-664.003	-75.288	0.154	-0.056
-662.989	-200.000	0.002	-0.683
-661.974	-74.675	-0.289	-0.105
-660.959	-4.093	-0.466	0.327
-659.945	-8.149	0.164	-0.112
-658.930	-41.070	-0.789	0.413
-657.916	800.000	-0.200	0.578
-656.901	-121.220	-0.975	-0.165
-655.886	800.000	-0.215	0.632
-654.872	-200.000	0.071	0.336
-653.857	800.000	-0.243	0.880
-652.843	-1.731	0.605	-0.432
-651.828	800.000	0.218	-0.732
-650.814	-47.408	-0.652	0.321
-649.799	-18.440	0.437	0.277
-648.784	21.822	-0.882	0.728
-647.770	434.353	0.211	-0.465
-646.755	-95.491	-0.256	0.070
-645.741	-153.331	0.400	0.028
-644.726	-60.022	0.471	0.204
-643.711	800.000	-0.151	-0.567
-642.697	-66.764	-0.520	0.209
-641.682	236.045	-0.320	-0.536
-640.668	-52.585	0.143	-0.067
-639.653	173.268	-0.119	0.173
-638.638	35.931	-0.534	-0.476
-637.624	-109.943	-0.576	-0.122
-636.609	-48.855	0.241	-0.117
-635.595	61.273	0.371	-0.374
-634.580	-105.461	0.556	-0.128
-633.565	-100.393	-0.631	-0.158
-632.551	-200.000	0.052	-0.567
-631.536	-121.949	-0.082	-0.014
-630.522	369.316	-0.179	0.367
-629.507	16.642	0.937	0.750
-628.492	-99.512	0.877	-0.223
-627.478	-200.000	0.017	-0.139
-626.463	-200.000	0.017	-0.158
-625.449	-15.420	0.340	-0.220
-624.434	51.633	-0.490	-0.471
-623.419	-113.461	-0.406	0.081
-622.405	800.000	-0.097	0.277
-621.390	341.549	0.052	-0.103
-620.376	-13.758	-0.257	-0.168
-619.361	-42.690	0.340	-0.175
-618.346	-200.000	0.008	0.389
-617.332	-200.000	0.013	-0.149
-616.317	456.390	0.192	-0.432
-615.303	-102.353	0.541	0.131
-614.288	-85.197	-0.884	-0.280
-613.273	-200.000	0.024	-0.177
-612.259	-200.000	0.012	0.514
-611.244	-200.000	0.048	-0.362
-610.230	-97.628	0.899	0.236
-609.215	-86.108	0.025	-0.008
-608.201	707.912	0.343	0.918
-607.186	-23.184	0.257	0.156
-606.171	140.106	0.344	0.458
-605.157	5.092	0.307	0.229
-604.142	-200.000	-0.084	-0.804
-603.128	55.860	-0.226	0.222
-602.113	800.000	0.053	-0.164
-601.098	-52.311	0.308	0.144
-600.084	-104.628	0.368	-0.086
-599.069	334.194	0.110	-0.215
-598.055	59.466	0.592	0.590
-597.040	-31.880	-0.536	-0.304
-596.025	-200.000	-0.002	-0.228
-595.011	-185.059	-0.472	-0.007
-593.996	-200.000	0.043	-0.818
-592.982	-100.025	-0.420	-0.106
-591.967	-200.000	0.081	0.646
-590.952	-200.000	0.039	0.709
-589.938	249.864	-0.515	-0.883
-588.923	-74.200	-0.982	0.359
-587.909	-200.000	0.013	-0.133
-586.894	-101.774	0.426	0.104
-585.879	116.556	-0.360	0.446
-584.865	58.093	-0.667	0.660
-583.850	-200.000	-0.091	0.535
-582.836	-90.827	0.488	-0.142
-581.821	79.482	-0.655	0.710
-580.806	-121.124	-0.362	0.061
-579.792	350.243	0.187	-0.373
-578.777	119.040	-0.236	-0.295
-577.763	-13.000	-0.069	-0.045
-576.748	-55.997	-0.825	0.371
-575.733	17.348	0.670	-0.537
-574.719	-153.543	-0.314	-0.022
-573.704	-200.000	0.057	0.307
-572.690	99.441	-0.110	-0.128
-571.675	-200.000	0.044	-0.377
-570.661	-0.280	-0.616	0.442
-569.646	800.000	0.055	-0.196
-568.631	122.624	-0.510	-0.644
-567.617	103.087	-0.522	0.617
-566.602	29.622	-0.386	-0.331
-565.588	-6.343	0.606	-0.417
-564.573	-200.000	0.034	0.559
-563.558	-200.000	0.065	0.619
-562.544	774.696	0.035	-0.095
-561.529	-70.045	0.224	0.086
-560.515	60.324	-0.462	0.462
-559.500	-163.729	-0.112	-0.005
-558.485	-61.321	0.416	0.177
-557.471	-200.000	-0.111	-1.220
-556.456	-128.633	0.671	-0.096
-555.442	800.000	-0.279	-1.215
-554.427	-200.000	-0.174	-1.238
-553.412	-192.816	0.290	-0.003
-552.398	-125.930	0.890	-0.135
-551.383	568.274	-0.372	-0.912
-550.369	-200.000	-0.064	-0.475
-549.354	-147.136	-0.691	-0.060
-548.339	800.000	-0.265	1.009
-547.325	12.745	0.476	-0.371
-546.310	-12.260	-0.408	-0.269
-545.296	82.737	-0.787	-0.863
-544.281	55.628	0.542	-0.530
-543.266	-2.719	-0.526	0.371
-542.252	568.105	0.161	-0.394
-541.237	-69.180	0.187	-0.072
-540.223	144.811	0.594	-0.801
-539.208	68.076	-0.152	0.157
-538.193	5.612	-0.130	-0.097
-537.179	24.724	-0.685	0.572
-536.164	127.552	0.478	0.612
-535.150	5.265	-0.553	-0.411
-534.135	-38.958	-0.434	0.231
-533.121	-30.857	0.575	0.328
-532.106	-19.436	-0.712	-0.445
-531.091	754.803	-0.236	0.644
-530.077	186.326	-0.498	-0.747
-529.062	-106.529	-0.523	0.118
-528.048	615.575	0.291	-0.737
-527.033	-200.000	-0.077	-0.537
-526.018	-200.000	0.163	0.729
-525.004	99.760	0.673	0.786
-523.989	-111.646	0.397	-0.081
-522.975	-43.226	0.796	0.406
-521.960	-130.249	0.596	-0.082
-520.945	-108.411	0.800	-0.174
-519.931	-135.990	0.184	-0.022
-518.916	222.187	-0.422	-0.685
-517.902	-81.386	-0.290	0.096
-516.887	-88.727	-0.360	-0.108
-515.872	189.689	0.239	0.362
-514.858	-15.650	0.900	0.578
-513.843	219.578	-0.301	0.486
-512.829	301.459	0.359	0.668
-511.814	-33.070	-0.161	0.090
-510.799	800.000	0.175	-0.502
-509.785	-97.271	0.353	0.093
-508.770	-111.453	-0.541	-0.111
-507.756	-200.000	0.021	0.145
-506.741	613.041	0.217	0.547
-505.726	-95.898	-0.586	0.157
-504.712	67.761	0.336	-0.346
-503.697	7.800	-0.256	-0.193
-502.683	110.689	-0.186	-0.225
-501.668	-53.459	0.765	0.353
-500.653	-55.712	-0.711	-0.320
-499.639	-200.000	0.113	0.505
-498.624	-116.965	0.365	0.067
-497.610	-126.922	-0.555	0.082
-496.595	-19.197	0.230	0.144
-495.581	36.634	-0.382	-0.339
-494.566	615.796	-0.075	-0.190
-493.551	-200.000	0.061	0.384
-492.537	-115.834	0.420	0.079
-491.522	-53.256	0.389	0.180
-490.508	33.940	-0.512	-0.449
-489.493	-200.000	-0.059	-0.481
-488.478	800.000	-0.038	0.143
-487.464	120.810	0.153	0.191
-486.449	537.974	0.181	0.432
-485.435	237.969	-0.097	0.162
-484.420	489.921	-0.197	-0.454
-483.405	-77.682	0.150	-0.052
-482.391	800.000	-0.165	-0.665
-481.376	120.879	0.726	-0.909
-480.362	-4.644	-0.360	0.250
-479.347	-12.088	-0.112	0.074
-478.332	-171.216	0.567	-0.019
-477.318	28.539	0.486	-0.413
-476.303	800.000	-0.076	0.231
-475.289	-50.613	-0.667	0.316
-474.274	-111.037	0.526	0.109
-473.259	156.611	-0.172	0.239
-472.245	1.683	-0.337	-0.244
-471.230	90.224	0.244	0.274
-470.216	228.140	-0.729	-1.195
-469.201	-200.000	0.012	0.256
-468.186	-11.698	0.833	-0.550
-467.172	-200.000	0.090	-1.018
-466.157	2.625	0.536	0.391
-465.143	168.309	-0.520	-0.745
-464.128	800.000	0.144	-0.628
-463.113	361.333	-0.324	0.653
-462.099	-104.429	0.299	-0.070
-461.084	-200.000	0.031	0.317
-460.070	26.330	0.573	-0.482
-459.055	-26.942	-0.448	0.263
-458.040	800.000	-0.242	0.946
-457.026	-16.649	0.240	0.153
-456.011	746.344	0.327	0.885
-454.997	113.971	0.244	-0.298
-453.982	310.377	0.247	-0.465
-452.968	-94.248	-0.664	-0.183
-451.953	25.592	0.243	0.203
-450.938	-200.000	0.027	-0.581
-449.924	154.428	0.144	0.198
-448.909	434.780	-0.053	0.116
-447.895	-200.000	0.015	-0.769
-446.880	561.499	0.109	-0.264
-445.865	219.075	0.235	-0.377
-444.851	-200.000	-0.058	0.491
-443.836	32.918	0.357	0.311
-442.822	800.000	0.042	-0.135
-441.807	-74.371	0.963	0.349
-440.792	-69.031	-0.430	-0.166
-439.778	-111.587	-0.671	0.137
-438.763	-32.562	-0.726	0.406
-437.749	-111.499	-0.105	-0.021
-436.734	800.000	0.196	0.788
-435.719	-78.129	0.212	-0.073
-434.705	-43.297	-0.685	0.348
-433.690	-64.225	-0.593	0.243
-432.676	-200.000	-0.064	-0.313
-431.661	-14.213	0.310	0.201
-430.646	-18.553	0.194	0.122
-429.632	728.666	0.396	1.062
-428.617	-146.275	0.718	0.063
-427.603	800.000	-0.029	-0.093
-426.588	-34.095	0.841	0.464
-425.573	104.747	0.475	0.562
-424.559	-200.000	-0.082	0.416
-423.544	97.046	-0.120	-0.138
-422.530	4.607	0.144	-0.106
-421.515	-150.786	-0.146	0.011
-420.500	-88.015	-0.805	-0.243
-419.486	49.985	-0.314	-0.297
-418.471	-162.940	-0.471	-0.023
-417.457	418.806	-0.144	0.309
-416.442	389.167	0.179	-0.372
-415.428	-81.142	-0.522	-0.173
-414.413	800.000	-0.171	-0.627
-413.398	-158.699	0.380	-0.022
-412.384	418.201	0.180	-0.386
-411.369	-38.636	-0.197	-0.104
-410.355	51.198	0.135	0.129
-409.340	-67.580	1.090	-0.429
-408.325	60.383	-0.414	-0.411
-407.311	-200.000	-0.097	0.710
-406.296	-45.109	0.484	-0.242
-405.282	-200.000	0.032	-0.685
-404.267	-200.000	0.063	-0.608
-403.252	-65.916	0.229	0.092
-402.238	-83.142	-0.396	0.128
-401.223	13.803	-0.324	-0.253
-400.209	-127.644	0.299	0.043
-399.194	-38.482	0.305	-0.162
-398.179	8.824	0.902	-0.682
-397.165	-140.933	0.705	0.073
-396.150	-138.035	0.636	0.071
-395.136	176.261	0.074	-0.108
-394.121	-20.580	1.245	0.767
-393.106	-200.000	-0.028	0.537
-392.092	-129.467	-0.678	-0.094
-391.077	-81.970	-0.877	-0.288
-390.063	-200.000	0.028	0.428
-389.048	92.995	0.220	0.249
-388.033	245.376	0.139	-0.234
-387.019	616.709	0.128	-0.323
-386.004	-6.129	0.324	0.222
-384.990	-200.000	0.014	0.591
-383.975	195.763	0.244	0.372
-382.960	13.080	-0.278	-0.216
-381.946	-51.254	-0.753	-0.353
-380.931	800.000	-0.103	-0.348
-379.917	37.939	-0.272	0.243
-378.902	-49.027	-0.168	-0.081
-377.888	-181.467	-0.124	0.002
-376.873	337.829	-0.137	0.268
-375.858	-200.000	-0.120	-0.653
-374.844	800.000	-0.100	-0.427
-373.829	-145.367	-0.241	-0.022
-372.815	-200.000	0.097	-0.568
-371.800	-200.000	0.017	-0.337
-370.785	18.338	0.533	0.427
-369.771	-12.093	0.655	0.430
-368.756	772.907	0.099	0.270
-367.742	-63.139	-0.677	0.280
-366.727	57.610	-0.257	-0.252
-365.712	-197.648	-1.048	0.006
-364.698	800.000	-0.109	0.466
-363.683	-119.159	-0.803	-0.141
-362.669	-139.716	-0.504	0.054
-361.654	-191.938	0.181	0.002
-360.639	470.566	-0.267	0.601
-359.625	277.297	0.076	-0.135
-358.610	-200.000	0.013	-0.639
-357.596	237.241	-0.242	0.401
-356.581	-200.000	-0.112	-0.498
-355.566	253.884	-0.485	-0.830
-354.552	105.797	0.408	-0.483
-353.537	356.935	-0.193	-0.385
-352.523	-38.376	-0.519	-0.275
-351.508	-87.301	1.006	0.306
-350.493	79.626	-0.255	-0.274
-349.479	800.000	0.204	0.797
-348.464	-181.679	-0.421	0.008
-347.450	37.824	-0.087	0.077
-346.435	-5.452	-0.429	0.295
-345.420	-200.000	0.016	0.322
-344.406	109.534	-0.313	-0.375
-343.391	92.234	0.194	0.219
-342.377	135.603	0.245	-0.320
-341.362	-0.318	0.711	0.506
-340.348	177.318	-0.141	0.206
-339.333	161.124	-0.229	0.320
-338.318	15.561	0.286	0.225
-337.304	-1.739	0.665	-0.469
-336.289	108.762	0.571	-0.682
-335.275	-200.000	-0.155	0.998
-334.260	-107.741	0.998	0.218
-333.245	497.572	-0.082	0.190
-332.231	-13.213	0.122	0.080
-331.216	154.464	-0.653	0.897
-330.202	-99.345	0.520	-0.131
-329.187	-146.020	1.264	0.112
-328.172	-170.847	-0.444	-0.015
-327.158	-51.093	-0.640	-0.300
-326.143	84.589	-0.485	-0.532
-325.129	-108.448	0.864	-0.186
-324.114	-112.918	-0.703	0.139
-323.099	87.758	-0.432	-0.478
-322.085	41.455	-0.272	0.246
-321.070	-145.881	0.479	-0.043
-320.056	176.395	0.673	0.978
-319.041	367.795	0.394	0.796
-318.026	93.386	0.608	-0.688
-317.012	-85.505	-0.651	0.203
-315.997	-4.834	0.503	0.346
-314.983	-21.026	0.294	-0.180
-313.968	593.771	0.239	0.591
-312.953	31.899	0.290	0.250
-311.939	162.213	-0.452	0.633
-310.924	-200.000	-0.071	-0.585
-309.910	87.333	-0.274	-0.302
-308.895	-158.417	-0.210	-0.012
-307.880	-142.604	-0.832	0.081
-306.866	139.292	-0.306	-0.403
-305.851	-200.000	-0.029	-0.992
-304.837	-200.000	-0.050	-0.245
-303.822	-200.000	-0.158	-1.022
-302.807	345.166	0.325	0.637
-301.793	-90.608	0.483	0.140
-300.778	131.805	-0.311	-0.400
-299.764	800.000	-0.216	-0.667
-298.749	201.409	0.156	-0.240
-297.735	-200.000	0.130	-0.878
-296.720	-111.480	0.115	0.023
-295.705	324.360	-0.364	0.694
-294.691	386.637	0.396	0.817
-293.676	-114.483	-0.447	0.086
-292.662	-152.400	0.583	0.042
-291.647	351.695	-0.506	1.001
-290.632	-200.000	0.163	0.714
-289.618	405.042	-0.278	-0.586
-288.603	19.467	-0.667	0.536
-287.589	-97.926	0.973	-0.251
-286.574	-2.193	0.668	-0.468
-285.559	74.953	0.402	0.422
-284.545	-25.051	-0.478	0.283
-283.530	-24.312	-0.577	0.344
-282.516	-200.000	0.027	-0.353
-281.501	143.058	-0.434	0.576
-280.486	392.777	-0.203	0.422
-279.472	37.232	0.206	-0.182
-278.457	-105.919	0.577	0.130
-277.443	264.575	-0.276	0.480
-276.428	-148.398	0.456	-0.037
-275.413	-200.000	0.055	0.444
-274.399	-91.613	-0.526	-0.150
-273.384	158.738	0.062	-0.086
-272.370	-56.878	0.656	-0.290
-271.355	55.592	-0.183	0.177
-270.340	110.317	-0.380	0.455
-269.326	-70.146	0.786	-0.298
-268.311	23.571	-0.112	0.092
-267.297	-200.000	-0.081	0.380
-266.282	-188.350	-0.866	0.011
-265.267	-54.517	-0.561	0.253
-264.253	-70.469	-0.582	0.220
-263.238	310.265	-0.285	-0.532
-262.224	35.233	-0.764	-0.668
-261.209	800.000	-0.105	-0.322
-260.195	-180.446	-1.049	-0.022
-259.180	-49.101	0.250	0.119
-258.165	-107.040	-0.960	-0.212
-257.151	-109.602	0.329	-0.069
-256.136	-152.188	1.103	0.080
-255.122	-173.197	-0.842	0.026
-254.107	-95.641	0.338	-0.090
-253.092	-142.313	-0.376	0.037
-252.078	-200.000	0.023	-0.278
-251.063	45.604	-0.355	0.327
-250.049	-88.323	0.310	0.092
-249.034	379.011	-0.132	0.270
-248.019	-200.000	-0.041	0.507
-247.005	-102.072	-0.450	-0.108
-245.990	323.532	0.453	-0.862
-244.976	-178.550	-0.376	-0.009
-243.961	-88.638	0.745	0.221
-242.946	283.851	0.218	-0.390
-241.932	-200.000	0.069	0.376
-240.917	20.479	0.297	0.240
-239.903	800.000	-0.108	-0.302
-238.888	104.259	0.284	0.333
-237.873	-72.218	-0.606	0.224
-236.859	183.882	0.321	-0.474
-235.844	-200.000	-0.144	-0.677
-234.830	-54.170	-0.246	-0.111
-233.815	-29.179	0.171	-0.098
-232.800	13.632	-0.231	-0.179
-231.786	77.159	0.065	-0.068
-230.771	-169.575	-0.236	-0.009
-229.757	-64.052	-0.775	-0.315
-228.742	-38.398	-0.693	-0.365
-227.727	182.502	-0.309	-0.454
-226.713	-81.820	-0.369	-0.120
-225.698	-200.000	0.001	-1.338
-224.684	475.052	0.358	-0.805
-223.669	-105.523	0.185	0.042
-222.655	-9.271	0.567	-0.377
-221.640	370.810	-0.168	0.340
-220.625	-200.000	-0.107	0.718
-219.611	-200.000	0.050	0.708
-218.596	45.926	0.299	0.275
-217.582	525.313	0.200	-0.469
-216.567	-79.126	-0.375	0.127
-215.552	-200.000	0.018	0.100
-214.538	-167.322	0.410	-0.016
-213.523	348.879	-0.177	-0.349
-212.509	-200.000	-0.156	0.977
-211.494	277.711	0.062	-0.110
-210.479	-60.035	-0.272	0.116
-209.465	-107.849	0.858	0.186
-208.450	11.062	0.568	0.433
-207.436	-200.000	-0.068	1.102
-206.421	3.808	-0.030	0.022
-205.406	800.000	0.124	-0.478
-204.392	800.000	-0.218	0.710
-203.377	585.095	-0.312	-0.763
-202.363	-200.000	0.013	0.764
-201.348	287.110	0.378	0.680
-200.333	-35.448	0.313	0.169
-199.319	-200.000	-0.076	0.652
-198.304	-6.191	-0.153	0.104
-197.290	-152.396	0.674	0.048
-196.275	15.695	0.593	0.464
-195.260	-129.006	-1.239	0.173
-194.246	103.219	-0.396	0.462
-193.231	-70.480	-0.590	0.222
-192.217	149.440	0.399	-0.538
-191.202	-91.228	-0.437	0.124
-190.187	45.433	0.294	-0.270
-189.173	-6.293	0.710	-0.482
-188.158	-126.851	0.370	0.054
-187.144	-131.554	0.378	-0.050
-186.129	-200.000	-0.062	-0.699
-185.114	412.581	0.112	0.238
-184.100	-138.425	0.990	0.108
-183.085	122.874	0.491	-0.611
-182.071	102.661	-0.605	0.704
-181.056	28.836	0.835	0.704
-180.042	-122.648	0.255	-0.041
-179.027	192.584	0.381	0.572
-178.012	97.639	-0.493	0.563
-176.998	15.025	-0.570	-0.444
-175.983	146.242	-0.390	0.521
-174.969	42.607	0.058	-0.053
-173.954	-12.152	-0.352	-0.229
-172.939	-200.000	-0.065	-0.900
-171.925	-114.460	-0.649	-0.124
-170.910	30.956	0.153	-0.131
-169.896	-72.128	-1.070	0.395
-168.881	800.000	0.511	1.607
-167.866	193.244	0.234	-0.352
-166.852	369.286	0.329	-0.663
-165.837	-122.644	0.888	0.143
-164.823	-64.468	-0.311	0.126
-163.808	-200.000	0.083	0.667
-162.793	-132.357	-0.192	-0.025
-161.779	119.859	0.450	-0.554
-160.764	-156.383	-0.680	0.042
-159.750	800.000	-0.101	-0.376
-158.735	-200.000	0.035	-0.199
-157.720	-11.223	-0.441	0.289
-156.706	-96.309	0.518	0.136
-155.691	-160.072	0.807	0.044
-154.677	-39.294	0.597	0.311
-153.662	-114.624	-0.528	0.100
-152.647	-200.000	0.051	-0.306
-151.633	-200.000	0.028	0.129
-150.618	-200.000	0.186	1.074
-149.604	-154.511	-0.516	-0.034
-148.589	16.366	-0.150	0.118
-147.574	116.963	-0.256	-0.312
-146.560	-128.463	-0.341	0.048
-145.545	-122.911	-0.908	0.145
-144.531	-63.145	-0.448	-0.184
-143.516	101.124	-0.221	0.255
-142.502	-200.000	0.081	0.392
-141.487	43.846	1.047	0.952
-140.472	-200.000	-0.103	0.597
-139.458	-97.492	-0.529	-0.137
-138.443	101.856	0.495	-0.573
-137.429	-200.000	-0.050	0.470
-136.414	-200.000	-0.943	0.002
-135.399	-164.690	1.124	0.050
-134.385	800.000	0.254	-0.885
-133.370	-4.576	0.812	-0.557
-132.356	47.115	0.584	-0.539
-131.341	132.038	0.263	0.337
-130.326	800.000	-0.104	0.308
-129.312	240.350	0.153	0.253
-128.297	126.742	-0.595	-0.748
-127.283	-120.101	1.174	0.199
-126.268	-200.000	-0.291	-1.569
-125.253	564.757	-0.481	-1.158
-124.239	-196.922	-0.581	0.004
-123.224	-200.000	-0.076	0.363
-122.210	-111.592	-0.526	0.106
-121.195	48.308	-1.042	-0.967
-120.180	95.120	0.106	-0.119
-119.166	75.041	-0.284	-0.297
-118.151	-8.744	-0.448	0.298
-117.137	788.625	-0.152	-0.414
-116.122	192.913	0.552	-0.827
-115.107	159.825	-0.150	0.208
-114.093	186.361	0.645	0.952
-113.078	133.218	0.310	0.398
-112.064	196.751	-0.221	-0.335
-111.049	-200.000	-0.008	0.044
-110.034	500.340	-0.191	0.437
-109.020	-200.000	-0.191	-1.204
-108.005	161.139	-0.501	-0.694
-106.991	-200.000	0.041	-0.207
-105.976	584.484	-0.178	0.435
-104.962	-50.667	0.962	0.449
-103.947	243.798	-0.201	-0.335
-102.932	-109.322	-0.376	0.079
-101.918	34.855	-0.208	0.180
-100.903	336.456	0.274	0.528
-99.889	-101.909	0.501	0.120
-98.874	-42.651	-0.114	0.058
-97.859	334.888	0.185	-0.354
-96.845	-86.130	0.350	0.107
-95.830	-24.320	0.164	0.097
-94.816	-61.727	-0.574	0.238
-93.801	162.285	-0.400	0.555
-92.786	227.255	-0.498	0.802
-91.772	149.277	-0.255	0.342
-90.757	156.919	-0.063	-0.086
-89.743	-14.131	-0.110	-0.070
-88.728	-200.000	0.063	-0.342
-87.713	85.330	0.280	-0.305
-86.699	-132.240	0.433	-0.056
-85.684	-153.262	-0.313	0.022
-84.670	175.823	0.183	-0.263
-83.655	-26.814	0.295	-0.171
-82.640	-200.000	0.024	-0.489
-81.626	37.490	-0.853	-0.750
-80.611	-82.052	0.531	-0.172
-79.597	-88.528	0.446	0.132
-78.582	-200.000	-0.107	-0.557
-77.567	-42.418	1.000	-0.505
-76.553	-126.209	-0.931	0.138
-75.538	-200.000	0.004	-0.361
-74.524	800.000	0.333	-0.932
-73.509	472.370	0.127	-0.283
-72.494	12.786	-0.353	0.270
-71.480	-103.087	-1.102	-0.258
-70.465	-200.000	0.078	0.569
-69.451	-200.000	0.115	-0.511
-68.436	81.281	0.356	0.381
-67.422	4.872	-0.298	-0.217
-66.407	360.323	0.262	0.520
-65.392	37.821	-0.180	-0.159
-64.378	187.774	0.203	0.300
-63.363	14.613	0.387	-0.300
-62.349	-154.868	-0.327	0.021
-61.334	-91.318	-0.967	-0.274
-60.319	174.328	0.636	0.911
-59.305	800.000	-0.224	-0.687
-58.290	393.221	0.406	0.836
-57.276	-200.000	0.070	0.525
-56.261	-200.000	94.851	577.969
-55.246	654.948	1358.784	3452.554
-54.232	199.118	2531.850	3839.655
-53.217	108.568	2283.405	2698.809
-52.203	39.395	2046.312	1813.821
-51.188	34.709	1961.414	1696.990
-50.173	33.112	1944.260	1667.996
-49.159	48.748	1996.617	1853.097
-48.144	49.425	2014.373	1875.564
-47.130	35.047	1976.481	1712.778
-46.115	33.067	1964.607	1684.788
-45.100	32.955	1961.794	1681.311
-44.086	32.686	1960.341	1677.603
-43.071	32.501	1959.294	1674.996
-42.057	32.665	1956.324	1673.847
-41.042	32.779	1952.791	1671.765
-40.027	32.832	1950.504	1670.216
-39.013	32.889	1949.322	1669.637
-37.998	32.891	1946.521	1667.191
-36.984	32.684	1946.137	1664.966
-35.969	32.785	1944.906	1664.737
-34.954	32.699	1942.889	1662.191
-33.940	32.746	1940.562	1660.549
-32.925	32.844	1939.000	1660.009
-31.911	32.820	1937.563	1658.503
-30.896	32.716	1936.420	1656.540
-29.881	32.894	1934.740	1656.599
-28.867	32.976	1933.752	1656.406
-27.852	33.016	1930.512	1653.917
-26.838	33.011	1929.234	1652.717
-25.823	32.949	1926.571	1649.826
-24.809	32.898	1926.474	1649.229
-23.794	32.977	1924.059	1647.789
-22.779	32.974	1921.892	1645.843
-21.765	32.890	1919.551	1643.041
-20.750	32.830	1918.960	1641.947
-19.736	32.892	1917.916	1641.529
-18.721	32.759	1916.175	1638.812
-17.706	32.878	1914.749	1638.565
-16.692	32.889	1911.961	1636.206
-15.677	33.061	1909.688	1635.684
-14.663	32.992	1908.955	1634.400
-13.648	32.934	1908.577	1633.511
-12.633	32.752	1907.500	1630.947
-11.619	32.776	1906.642	1630.357
-10.604	32.978	1904.814	1630.476
-9.590	32.632	1903.981	1626.708
-8.575	32.918	1900.818	1626.404
-7.560	33.162	1899.867	1627.626
-6.546	32.903	1899.074	1624.659
-5.531	32.991	1898.482	1624.845
-4.517	32.903	1897.422	1623.113
-3.502	33.118	1894.513	1622.403
-2.487	33.047	1894.314	1621.559
-1.473	32.945	1895.085	1621.285
-0.458	32.936	1890.143	1616.912
0.556	33.834	1869.125	1587.191
1.571	29.443	1850.619	1534.910
2.586	25.535	1870.355	1518.210
3.600	24.310	1904.890	1535.568
4.615	23.618	1900.598	1526.022
5.629	18.375	1799.631	1402.021
6.644	8.364	1682.205	1233.459
7.659	3.351	1644.677	1167.907
8.673	3.024	1640.791	1162.575
9.688	2.913	1639.035	1160.389
10.702	2.993	1637.829	1160.034
11.717	2.989	1633.705	1156.981
12.731	3.241	1633.946	1158.946
13.746	10.181	1648.254	1221.543
14.761	19.960	1671.217	1312.974
15.775	24.503	1677.797	1352.523
16.790	25.054	1678.336	1357.017
17.804	25.047	1678.446	1356.928
18.819	24.908	1676.836	1354.460
19.834	25.264	1676.262	1356.567
20.848	25.242	1676.194	1356.225
21.863	24.920	1675.768	1353.325
22.877	25.416	1673.541	1355.147
23.892	25.524	1673.236	1355.598
24.907	25.375	1672.629	1353.860
25.921	25.377	1671.343	1352.718
26.936	25.364	1670.907	1352.150
27.950	25.496	1669.868	1352.179
28.965	25.533	1668.887	1351.547
29.980	25.403	1667.536	1349.354
30.994	25.508	1666.325	1349.040
32.009	25.482	1665.058	1347.700
33.023	25.310	1666.816	1347.715
34.038	25.508	1664.281	1347.031
35.053	25.430	1663.112	1345.383
36.067	25.604	1660.780	1344.677
37.082	25.430	1661.123	1343.531
38.096	25.371	1659.230	1341.442
39.111	25.381	1660.001	1342.020
40.126	25.476	1658.575	1341.456
41.140	25.314	1658.413	1340.002
42.155	25.359	1656.892	1338.991
43.169	25.382	1655.640	1338.027
44.184	25.292	1655.150	1336.843
45.199	25.338	1653.825	1336.002
46.213	25.420	1652.164	1335.147
47.228	25.380	1651.033	1333.823
48.242	25.179	1649.858	1331.258
49.257	25.434	1648.824	1332.202
50.271	25.456	1648.098	1331.660
51.286	25.320	1647.551	1330.089
52.301	25.305	1646.678	1329.160
53.315	25.379	1644.121	1327.526
54.330	25.454	1643.340	1327.328
55.344	25.473	1641.705	1326.034
56.359	25.506	1640.672	1325.323
57.374	25.491	1638.962	1323.712
58.388	25.376	1638.996	1322.777
59.403	25.356	1637.848	1321.590
60.417	25.576	1635.632	1321.299
61.432	25.350	1634.289	1318.439
62.447	25.619	1634.068	1320.116
63.461	25.378	1633.351	1317.652
64.476	25.443	1632.672	1317.466
65.490	25.634	1631.330	1317.662
66.505	25.411	1630.194	1314.995
67.520	25.397	1630.311	1314.873
68.534	25.218	1629.261	1312.600
69.549	25.427	1628.102	1313.082
70.563	25.479	1625.714	1311.413
71.578	25.267	1625.815	1309.833
72.593	25.465	1623.713	1309.465
73.607	25.404	1623.200	1308.497
74.622	25.317	1622.259	1306.984
75.636	25.431	1621.501	1307.091
76.651	25.591	1620.890	1307.641
77.666	25.337	1620.885	1305.677
78.680	25.217	1619.461	1303.540
79.695	25.357	1619.076	1304.131
80.709	25.415	1617.648	1303.288
81.724	25.281	1616.640	1301.392
82.739	25.459	1616.948	1302.812
83.753	25.360	1615.721	1300.993
84.768	25.578	1613.685	1300.818
85.782	25.637	1613.281	1300.802
86.797	25.551	1613.315	1300.091
87.812	25.705	1611.985	1300.018
88.826	25.682	1609.108	1297.420
89.841	25.326	1610.580	1295.920
90.855	25.453	1608.755	1295.253
91.870	25.332	1608.590	1294.130
92.884	25.478	1606.932	1293.735
93.899	25.578	1605.813	1293.441
94.914	25.540	1604.454	1291.955
95.928	25.511	1603.239	1290.653
96.943	25.592	1601.874	1290.027
97.957	25.752	1600.905	1290.274
98.972	25.647	1600.060	1288.730
99.987	25.488	1598.591	1286.294
101.001	25.551	1596.973	1285.327
102.016	25.567	1594.703	1283.505
103.030	25.599	1593.698	1282.809
104.045	25.327	1594.022	1281.016
105.060	25.548	1592.462	1281.221
106.074	25.619	1590.325	1279.895
107.089	25.563	1589.704	1278.887
108.103	25.657	1587.559	1277.710
109.118	25.512	1586.463	1275.691
110.133	25.404	1585.090	1273.707
111.147	25.350	1585.796	1273.779
112.162	25.450	1583.640	1272.641
113.176	25.526	1582.429	1272.094
114.191	25.561	1581.981	1271.867
115.206	25.843	1579.637	1271.863
116.220	25.348	1578.958	1267.712
117.235	25.355	1578.184	1267.025
118.249	25.301	1577.189	1265.731
119.264	25.354	1575.042	1264.270
120.279	25.138	1573.809	1261.647
121.293	25.474	1573.297	1263.492
122.308	25.592	1572.469	1263.546
123.322	25.253	1571.814	1260.521
124.337	25.379	1570.189	1259.995
125.352	25.360	1568.866	1258.689
126.366	25.360	1567.076	1257.143
127.381	25.547	1565.984	1257.458
128.395	25.251	1566.681	1255.839
129.410	25.176	1565.404	1254.179
130.424	25.186	1563.480	1252.595
131.439	25.240	1562.428	1252.015
132.454	25.147	1560.866	1250.009
133.468	25.280	1559.977	1250.112
134.483	25.502	1557.764	1249.772
135.497	25.523	1557.451	1249.557
136.512	25.634	1556.106	1249.135
137.527	25.476	1555.229	1247.225
138.541	25.756	1553.237	1247.458
139.556	25.557	1552.923	1245.720
140.570	25.487	1552.078	1244.442
141.585	25.432	1550.937	1243.041
142.600	25.725	1549.928	1244.145
143.614	25.553	1549.790	1242.737
144.629	25.723	1547.653	1242.086
145.643	25.839	1546.516	1241.866
146.658	25.494	1546.271	1239.181
147.673	25.629	1543.801	1238.022
148.687	25.392	1543.579	1236.102
149.702	25.527	1542.828	1236.320
150.716	25.777	1540.292	1235.890
151.731	25.423	1538.783	1232.146
152.746	25.343	1536.755	1229.865
153.760	25.322	1537.225	1229.988
154.775	25.269	1536.446	1228.895
155.789	25.475	1536.037	1229.866
156.804	25.840	1534.472	1230.999
157.819	25.716	1533.986	1229.655
158.833	25.533	1532.465	1227.078
159.848	25.448	1530.066	1224.470
160.862	25.577	1529.985	1225.174
161.877	25.984	1528.214	1226.418
162.892	25.839	1527.163	1224.478
163.906	25.615	1526.316	1222.173
164.921	25.441	1526.631	1221.129
165.935	25.601	1524.352	1220.284
166.950	25.491	1524.027	1219.169
167.964	25.711	1522.416	1219.268
168.979	25.758	1522.142	1219.256
169.994	25.608	1521.771	1217.835
171.008	25.436	1521.579	1216.411
172.023	25.570	1518.413	1214.677
173.037	25.286	1519.004	1213.121
174.052	25.717	1515.791	1213.359
175.067	25.757	1515.864	1213.577
176.081	25.492	1515.410	1211.322
177.096	25.436	1514.413	1210.037
178.110	25.264	1513.644	1208.157
179.125	25.608	1512.452	1209.414
180.140	25.578	1510.782	1207.767
181.154	25.485	1509.832	1206.278
182.169	25.676	1509.114	1206.880
183.183	25.484	1508.100	1204.673
184.198	25.492	1507.364	1204.036
185.213	25.508	1506.462	1203.317
186.227	25.826	1505.377	1204.467
187.242	25.822	1504.274	1203.451
188.256	25.734	1503.859	1202.429
189.271	25.874	1503.303	1202.809
190.286	25.887	1501.522	1201.367
191.300	25.682	1501.806	1200.116
192.315	25.600	1500.374	1198.321
193.329	25.523	1499.034	1196.637
194.344	25.711	1498.063	1197.001
195.359	25.783	1497.100	1196.605
196.373	25.682	1495.735	1194.736
197.388	25.262	1495.097	1191.333
198.402	25.190	1493.902	1189.802
199.417	25.134	1492.845	1188.482
200.432	25.564	1492.613	1191.038
201.446	25.852	1492.063	1192.401
202.461	26.002	1490.286	1191.867
203.475	25.500	1490.812	1188.866
204.490	25.681	1489.135	1188.620
205.504	25.534	1488.133	1186.741
206.519	25.394	1486.456	1184.378
207.534	25.418	1486.042	1184.103
208.548	25.483	1486.077	1184.452
209.563	25.122	1484.135	1180.424
210.577	25.296	1483.242	1180.751
211.592	25.283	1481.878	1179.480
212.607	25.240	1481.578	1178.852
213.621	25.251	1482.078	1179.218
214.636	25.859	1481.240	1182.440
215.650	25.486	1480.213	1179.067
216.665	25.568	1478.451	1178.097
217.680	25.480	1478.799	1177.689
218.694	25.679	1476.851	1177.340
219.709	25.799	1476.742	1177.935
220.723	25.696	1476.037	1176.591
221.738	25.602	1474.155	1174.373
222.753	25.633	1474.193	1174.502
223.767	25.332	1473.251	1171.686
224.782	25.471	1472.052	1171.535
225.796	25.623	1470.561	1171.237
226.811	25.637	1470.745	1171.368
227.826	25.802	1469.926	1171.687
228.840	25.739	1469.091	1170.508
229.855	25.460	1468.426	1168.064
230.869	25.526	1466.642	1166.969
231.884	25.706	1465.110	1166.808
232.899	25.533	1465.647	1166.012
233.913	25.111	1464.704	1162.422
234.928	25.221	1462.952	1161.643
235.942	25.232	1461.543	1160.491
236.957	25.360	1461.029	1160.812
237.972	25.275	1459.373	1158.844
238.986	25.166	1458.120	1157.044
240.001	25.076	1457.889	1156.176
241.015	25.218	1456.747	1156.082
242.030	25.450	1455.228	1156.270
243.045	25.302	1454.736	1154.821
244.059	25.603	1453.430	1155.617
245.074	25.375	1454.282	1154.727
246.088	25.421	1453.965	1154.669
247.103	25.806	1452.606	1155.957
248.117	25.941	1451.406	1155.764
249.132	25.873	1449.921	1154.048
250.147	25.515	1450.702	1152.275
251.161	26.051	1449.435	1154.597
252.176	26.154	1449.456	1155.171
253.190	26.073	1447.961	1153.356
254.205	26.223	1446.623	1153.145
255.220	26.142	1446.082	1152.096
256.234	26.184	1446.238	1152.385
257.249	26.125	1444.761	1150.733
258.263	26.194	1444.480	1150.846
259.278	26.180	1443.493	1149.871
260.293	26.052	1442.169	1147.901
261.307	26.126	1440.756	1147.142
262.322	26.044	1441.695	1147.270
263.336	26.051	1440.648	1146.378
264.351	26.125	1439.326	1145.693
265.366	26.172	1438.257	1145.039
266.380	26.093	1437.033	1143.465
267.395	25.982	1436.524	1142.252
268.409	26.274	1434.687	1142.540
269.424	25.900	1435.548	1140.755
270.439	25.531	1435.506	1138.288
271.453	25.723	1433.984	1138.192
272.468	26.058	1431.464	1138.207
273.482	26.230	1429.828	1137.890
274.497	25.858	1429.571	1135.238
275.512	25.780	1429.120	1134.293
276.526	26.061	1427.915	1134.999
277.541	25.994	1427.501	1134.152
278.555	25.838	1426.900	1132.588
279.570	25.911	1425.310	1131.687
280.585	26.182	1424.989	1133.031
281.599	26.192	1424.241	1132.400
282.614	26.036	1424.470	1131.503
283.628	25.977	1423.671	1130.400
284.643	25.809	1422.415	1128.253
285.657	25.878	1420.874	1127.360
286.672	25.950	1420.603	1127.492
287.687	25.908	1418.813	1125.712
288.701	26.080	1418.227	1126.222
289.716	26.132	1418.109	1126.350
290.730	25.977	1417.071	1124.462
291.745	26.289	1415.190	1124.813
292.760	25.996	1414.151	1122.062
293.774	26.033	1414.686	1122.620
294.789	25.745	1413.324	1119.649
295.803	26.204	1411.693	1121.110
296.818	26.267	1411.295	1121.086
297.833	26.131	1411.315	1120.156
298.847	26.126	1409.543	1118.620
299.862	25.959	1408.933	1117.003
300.876	26.020	1408.047	1116.581
301.891	25.822	1407.082	1114.491
302.906	25.892	1406.321	1114.223
303.920	26.030	1406.460	1115.087
304.935	26.020	1406.118	1114.652
305.949	26.303	1404.689	1115.170
306.964	26.275	1403.871	1114.252
307.979	26.277	1402.963	1113.441
308.993	26.247	1401.626	1112.097
310.008	26.111	1401.864	1111.350
311.022	26.021	1400.226	1109.401
312.037	26.176	1399.102	1109.364
313.052	26.379	1398.506	1110.041
314.066	26.093	1398.000	1107.782
315.081	26.216	1396.553	1107.292
316.095	26.119	1395.509	1105.775
317.110	25.851	1394.580	1103.301
318.125	25.861	1393.910	1102.736
319.139	25.860	1392.888	1101.821
320.154	25.950	1391.069	1100.837
321.168	25.857	1390.216	1099.495
322.183	25.923	1389.317	1099.090
323.197	25.835	1388.955	1098.166
324.212	25.838	1388.828	1097.990
325.227	25.848	1387.875	1097.200
326.241	26.087	1386.534	1097.497
327.256	25.982	1385.792	1096.175
328.270	26.125	1384.480	1095.904
329.285	25.880	1383.907	1093.869
330.300	26.037	1381.939	1093.167
331.314	26.096	1382.072	1093.536
332.329	26.136	1381.446	1093.184
333.343	25.794	1380.439	1090.219
334.358	25.854	1379.178	1089.489
335.373	26.111	1378.283	1090.242
336.387	26.228	1379.074	1091.477
337.402	26.220	1378.083	1090.547
338.416	26.058	1378.054	1089.449
339.431	26.256	1377.852	1090.389
340.446	26.421	1375.876	1089.721
341.460	26.434	1375.535	1089.435
342.475	26.527	1374.092	1088.758
343.489	26.286	1374.523	1087.552
344.504	26.464	1373.638	1087.822
345.519	26.449	1372.823	1086.990
346.533	26.601	1370.807	1086.212
347.548	26.825	1370.847	1087.489
348.562	26.647	1369.511	1085.270
349.577	26.601	1368.011	1083.707
350.592	26.516	1368.347	1083.372
351.606	26.493	1366.310	1081.523
352.621	26.402	1365.510	1080.248
353.635	26.185	1364.747	1078.256
354.650	26.073	1364.492	1077.289
355.665	25.941	1363.262	1075.439
356.679	26.153	1362.267	1075.824
357.694	26.315	1360.778	1075.512
358.708	26.219	1359.805	1074.077
359.723	26.152	1359.422	1073.283
360.738	26.389	1358.353	1073.754
361.752	26.385	1357.024	1072.581
362.767	26.295	1355.784	1070.975
363.781	26.228	1355.477	1070.237
364.796	26.451	1353.353	1069.787
365.810	26.379	1353.637	1069.489
366.825	26.490	1352.453	1069.114
367.840	26.656	1352.383	1069.947
368.854	26.444	1353.123	1069.183
369.869	26.618	1351.166	1068.569
370.883	26.928	1349.953	1069.343
371.898	26.609	1350.310	1067.650
372.913	26.723	1348.599	1066.875
373.927	26.455	1349.220	1065.694
374.942	26.348	1348.073	1064.062
375.956	26.493	1346.579	1063.644
376.971	26.496	1346.542	1063.537
377.986	26.859	1344.270	1063.779
379.000	26.411	1343.756	1060.649
380.015	26.737	1344.144	1062.777
381.029	26.843	1343.275	1062.615
382.044	26.753	1342.566	1061.431
383.059	26.935	1341.928	1061.900
384.073	26.761	1341.023	1060.074
385.088	26.821	1339.524	1059.142
386.102	26.705	1339.450	1058.312
387.117	26.457	1339.547	1056.850
388.132	26.810	1337.035	1056.831
389.146	26.384	1336.705	1053.990
390.161	26.488	1336.507	1054.349
391.175	26.638	1335.631	1054.441
392.190	26.226	1335.668	1051.974
393.205	26.181	1335.188	1051.240
394.219	26.795	1333.045	1053.031
395.234	27.003	1331.208	1052.693
396.248	26.491	1331.556	1049.906
397.263	26.432	1330.106	1048.327
398.278	26.416	1327.298	1045.924
399.292	26.358	1327.597	1045.737
400.307	26.636	1326.607	1046.469
401.321	26.456	1326.469	1045.225
402.336	26.616	1324.878	1044.807
403.350	26.307	1323.595	1041.919
404.365	26.253	1322.122	1040.359
405.380	26.529	1321.638	1041.470
406.394	26.494	1321.560	1041.117
407.409	26.700	1320.050	1041.021
408.423	26.301	1319.925	1038.536
409.438	26.636	1319.422	1039.970
410.453	26.846	1317.343	1039.444
411.467	26.881	1317.517	1039.689
412.482	26.927	1317.102	1039.535
413.496	26.993	1316.259	1039.153
414.511	26.588	1316.445	1036.894
415.526	26.745	1315.707	1037.119
416.540	26.892	1315.224	1037.485
417.555	26.762	1314.552	1036.122
418.569	26.840	1314.079	1036.099
419.584	26.941	1312.630	1035.445
420.599	26.840	1312.214	1034.446
421.613	142.333	1436.452	1793.270
422.628	138.067	1454.543	1793.333
