DTS Sentinel unit serial number:	SN413079Multiplexer serial number:	ORYXHardware model number:	OX4-SRSoftware version number:	ORYX F/W v4.00 Oryx Data Collector v3.7.2.0data status	okinstallation	princeton_trtdifferential loss correction	single-endedforward channel	channel 4reverse channel	N/Adate	2019/09/14time	18:37:35forward acquisition time	60.00reverse acquisition time	0.00gamma	496.2192k internal	0.2300k external	0.2300temperature offset calibration	1.0107default loss term (dB/km)	0.3790temperature slope calibration	1.0000multiplexer offset coefficient	1.0000multiplexer slope coefficient	1.0000fibre end	0.00T internal ref (°C)	36.37T ext. ref 1 (°C)	4.92T ext. ref 2 (°C)	30.09length (m)	temperature (°C)	Stokes	anti-Stokes-747.200	800.000	0.078	-0.280
-746.185	278.668	0.251	0.456
-745.171	47.574	0.226	-0.215
-744.156	282.410	-0.171	0.313
-743.142	-13.880	-0.262	0.173
-742.127	618.557	-0.150	0.384
-741.112	-56.032	-0.212	-0.096
-740.098	-83.644	0.415	0.135
-739.083	87.565	0.309	-0.349
-738.069	309.561	0.034	0.065
-737.054	74.313	0.125	-0.134
-736.039	311.404	-0.038	0.073
-735.025	-200.000	0.045	-0.222
-734.010	800.000	-0.108	-0.416
-732.996	-110.754	0.230	-0.048
-731.981	6.048	-0.154	0.116
-730.966	5.955	-0.081	-0.061
-729.952	-200.000	0.028	-0.131
-728.937	-105.792	-0.107	0.025
-727.923	-200.000	-0.024	-0.182
-726.908	136.776	-0.179	-0.238
-725.894	22.290	0.310	0.259
-724.879	-200.000	-0.168	-0.001
-723.864	-154.489	0.312	0.021
-722.850	156.872	-0.152	0.214
-721.835	-84.314	-0.336	0.108
-720.821	718.558	0.045	0.121
-719.806	-200.000	0.059	-0.293
-718.791	-103.219	-0.217	0.052
-717.777	5.411	-0.124	0.093
-716.762	-200.000	-0.001	-0.275
-715.748	706.929	0.040	-0.108
-714.733	-132.586	0.160	0.021
-713.718	-134.558	-0.149	0.018
-712.704	-30.121	-0.230	0.133
-711.689	14.473	-0.299	-0.238
-710.675	-79.213	0.238	-0.082
-709.660	72.136	0.189	0.200
-708.645	36.652	-0.006	-0.006
-707.631	800.000	-0.075	0.249
-706.616	180.534	0.143	-0.213
-705.602	658.183	-0.071	0.187
-704.587	-4.833	-0.235	0.165
-703.572	-59.541	-0.061	-0.027
-702.558	63.424	-0.130	0.132
-701.543	-200.000	-0.051	-0.238
-700.529	-132.544	-0.517	-0.068
-699.514	-22.006	0.086	0.053
-698.499	339.647	-0.097	-0.193
-697.485	800.000	-0.074	-0.242
-696.470	35.471	0.081	-0.072
-695.456	218.090	0.099	0.161
-694.441	-100.440	-0.056	0.014
-693.426	569.754	0.072	-0.179
-692.412	800.000	0.026	0.086
-691.397	0.924	-0.257	-0.187
-690.383	91.538	-0.182	-0.208
-689.368	118.937	0.143	0.179
-688.354	-73.357	0.042	0.015
-687.339	-22.423	0.218	-0.134
-686.324	-56.698	-0.281	-0.127
-685.310	57.976	0.127	-0.127
-684.295	-200.000	0.025	-0.127
-683.281	123.833	-0.122	-0.156
-682.266	800.000	0.054	-0.216
-681.251	-200.000	0.008	-0.318
-680.237	3.142	-0.297	0.220
-679.222	800.000	-0.047	-0.196
-678.208	800.000	-0.042	0.170
-677.193	-200.000	-0.007	0.126
-676.178	-35.531	0.240	0.133
-675.164	394.189	-0.067	-0.143
-674.149	-109.754	0.072	0.015
-673.135	-97.800	-0.329	-0.087
-672.120	42.180	0.200	0.185
-671.105	-13.257	-0.095	-0.063
-670.091	-31.861	-0.182	0.104
-669.076	-97.235	-0.269	-0.071
-668.062	-200.000	0.050	-0.442
-667.047	-200.000	-0.028	-0.248
-666.032	50.536	0.183	-0.176
-665.018	-200.000	-0.019	-0.087
-664.003	58.325	0.102	-0.101
-662.989	382.083	-0.080	-0.167
-661.974	-79.038	-0.038	-0.013
-660.959	-47.280	0.173	0.086
-659.945	744.437	-0.005	-0.013
-658.930	-127.923	0.123	-0.018
-657.916	-180.591	-0.077	-0.002
-656.901	-65.326	-0.338	-0.138
-655.886	800.000	0.040	0.128
-654.872	18.095	-0.166	-0.135
-653.857	-200.000	-0.014	0.140
-652.843	-102.620	0.186	-0.045
-651.828	800.000	0.027	0.113
-650.814	181.281	0.054	0.081
-649.799	138.333	-0.295	0.394
-648.784	69.738	0.278	-0.291
-647.770	800.000	0.116	-0.389
-646.755	35.085	-0.126	-0.112
-645.741	-200.000	-0.020	-0.163
-644.726	-103.762	-0.174	-0.041
-643.711	-93.861	0.041	0.011
-642.697	800.000	0.091	-0.288
-641.682	800.000	-0.077	0.243
-640.668	-200.000	0.026	0.235
-639.653	-88.348	-0.318	-0.096
-638.638	153.254	0.088	-0.123
-637.624	-113.503	-0.022	-0.004
-636.609	92.672	-0.172	0.197
-635.595	-131.181	-0.155	-0.021
-634.580	-146.927	-0.439	0.038
-633.565	800.000	-0.106	-0.357
-632.551	95.477	-0.089	0.103
-631.536	118.968	-0.201	0.252
-630.522	-55.692	0.138	0.063
-629.507	-200.000	0.000	-0.051
-628.492	173.237	0.159	0.233
-627.478	-200.000	0.030	-0.254
-626.463	329.586	0.046	-0.089
-625.449	466.555	-0.080	-0.182
-624.434	78.826	0.007	0.008
-623.419	104.445	-0.045	-0.053
-622.405	194.213	-0.152	-0.234
-621.390	284.967	0.133	-0.243
-620.376	-4.767	-0.379	-0.266
-619.361	591.029	-0.107	0.268
-618.346	800.000	0.027	0.118
-617.332	-200.000	0.106	0.508
-616.317	20.404	-0.151	0.124
-615.303	-200.000	-0.028	0.278
-614.288	800.000	0.072	-0.232
-613.273	-83.145	0.111	0.036
-612.259	-200.000	0.010	0.057
-611.244	-113.549	0.225	-0.045
-610.230	1.542	0.108	-0.079
-609.215	-140.988	-0.054	0.006
-608.201	800.000	-0.062	-0.193
-607.186	137.821	0.129	0.171
-606.171	-79.067	0.209	0.072
-605.157	-114.480	-0.241	0.047
-604.142	-12.844	-0.275	-0.182
-603.128	-0.458	-0.064	0.046
-602.113	-1.495	-0.035	-0.025
-601.098	800.000	0.075	-0.230
-600.084	-200.000	0.003	-0.053
-599.069	800.000	-0.028	0.096
-598.055	197.661	-0.175	-0.272
-597.040	38.520	-0.047	-0.043
-596.025	-66.740	0.198	-0.079
-595.011	-137.173	-0.069	0.008
-593.996	-79.343	-0.119	0.041
-592.982	471.834	-0.040	0.092
-591.967	800.000	-0.066	-0.242
-590.952	-128.970	-0.035	-0.005
-589.938	500.836	-0.037	-0.087
-588.923	-3.630	0.116	0.082
-587.909	50.886	0.124	0.119
-586.894	10.714	-0.190	-0.147
-585.879	164.995	-0.038	-0.054
-584.865	-10.532	-0.208	0.139
-583.850	-14.279	-0.133	-0.087
-582.836	-88.924	-0.270	-0.081
-581.821	-137.037	0.267	-0.031
-580.806	800.000	-0.107	0.337
-579.792	-108.814	0.050	0.011
-578.777	-200.000	-0.026	-0.151
-577.763	-39.853	0.399	0.211
-576.748	609.157	-0.080	-0.201
-575.733	-72.371	0.201	0.075
-574.719	-200.000	0.040	-0.315
-573.704	800.000	-0.046	-0.132
-572.690	260.148	0.265	-0.464
-571.675	-200.000	0.000	-0.005
-570.661	112.016	-0.048	0.059
-569.646	-13.386	0.074	0.048
-568.631	-114.803	0.274	-0.053
-567.617	-32.873	-0.031	-0.017
-566.602	-50.915	-0.139	0.066
-565.588	200.608	-0.086	0.134
-564.573	-178.901	0.130	0.003
-563.558	106.932	-0.138	-0.166
-562.544	583.618	-0.042	-0.104
-561.529	800.000	0.016	0.055
-560.515	-4.538	0.286	-0.200
-559.500	800.000	-0.079	0.233
-558.485	-122.492	0.051	0.008
-557.471	132.319	-0.351	0.458
-556.456	-140.330	-0.250	0.026
-555.442	607.215	-0.048	0.121
-554.427	14.119	-0.210	0.166
-553.412	-18.164	-0.262	0.166
-552.398	-58.491	0.288	0.127
-551.383	-71.332	-0.141	0.053
-550.369	120.670	0.159	-0.200
-549.354	-68.875	-0.156	-0.061
-548.339	-38.759	0.133	-0.071
-547.325	92.930	0.113	0.129
-546.310	35.218	-0.080	0.071
-545.296	-139.701	-0.224	-0.024
-544.281	84.048	0.322	0.356
-543.266	110.599	-0.229	0.279
-542.252	800.000	0.065	-0.193
-541.237	800.000	0.065	-0.185
-540.223	0.512	0.103	0.074
-539.208	187.977	-0.237	0.359
-538.193	777.760	-0.112	0.310
-537.179	-58.547	0.124	-0.054
-536.164	24.689	-0.044	-0.037
-535.150	-108.318	0.162	-0.035
-534.135	116.560	0.124	-0.154
-533.121	490.436	0.092	-0.212
-532.106	-50.254	0.350	0.167
-531.091	767.045	-0.077	-0.212
-530.077	-47.831	0.316	0.155
-529.062	-200.000	0.060	-0.316
-528.048	-200.000	-0.087	-0.495
-527.033	497.249	-0.111	0.259
-526.018	-200.000	0.005	0.157
-525.004	-126.990	0.295	-0.044
-523.989	800.000	-0.074	-0.259
-522.975	54.935	-0.064	-0.063
-521.960	382.586	-0.166	0.346
-520.945	-25.490	-0.246	0.147
-519.931	-200.000	0.024	-0.220
-518.916	-200.000	-0.045	-0.206
-517.902	8.504	-0.143	-0.109
-516.887	800.000	0.150	0.492
-515.872	260.264	-0.044	-0.077
-514.858	800.000	0.099	0.329
-513.843	351.606	-0.132	0.265
-512.829	603.554	-0.019	-0.048
-511.814	-200.000	-0.041	-0.342
-510.799	-129.921	-0.222	-0.031
-509.785	-200.000	0.003	-0.151
-508.770	-45.910	-0.336	0.167
-507.756	-79.213	-0.305	-0.104
-506.741	668.607	-0.047	-0.123
-505.726	8.031	-0.242	-0.184
-504.712	-114.875	0.150	0.029
-503.697	206.285	-0.039	-0.061
-502.683	10.136	-0.104	-0.080
-501.668	-200.000	0.008	0.180
-500.653	238.371	-0.052	-0.088
-499.639	-77.550	-0.176	0.062
-498.624	-5.313	-0.183	-0.127
-497.610	-39.632	0.104	0.055
-496.595	-137.700	0.399	-0.045
-495.581	-24.251	-0.348	0.210
-494.566	-134.759	-0.168	0.021
-493.551	28.345	0.110	-0.094
-492.537	-8.791	0.279	-0.189
-491.522	18.255	-0.297	-0.240
-490.508	-93.135	-0.059	0.017
-489.493	-7.859	-0.206	0.141
-488.478	800.000	-0.053	-0.149
-487.464	-3.826	0.093	0.065
-486.449	52.662	0.080	-0.078
-485.435	-200.000	0.026	0.179
-484.420	-7.211	0.078	-0.053
-483.405	218.007	-0.034	-0.055
-482.391	-171.261	0.191	0.006
-481.376	-140.885	-0.119	0.012
-480.362	-118.250	0.309	-0.056
-479.347	80.589	0.293	0.318
-478.332	-96.204	-0.133	0.036
-477.318	101.207	0.236	-0.277
-476.303	366.860	0.067	0.136
-475.289	-8.549	0.069	0.046
-474.274	355.737	0.041	-0.083
-473.259	-200.000	0.079	-0.349
-472.245	800.000	-0.105	0.393
-471.230	23.411	0.015	0.013
-470.216	585.684	0.049	-0.122
-469.201	-70.614	0.317	0.121
-468.186	130.738	-0.157	-0.203
-467.172	67.891	0.246	-0.254
-466.157	17.382	-0.193	0.155
-465.143	-200.000	0.027	0.120
-464.128	102.432	-0.377	0.444
-463.113	-82.234	0.068	0.022
-462.099	490.016	-0.176	0.406
-461.084	6.963	0.164	-0.123
-460.070	800.000	-0.082	-0.333
-459.055	800.000	-0.074	0.287
-458.040	93.308	0.133	-0.152
-457.026	-92.951	0.230	0.065
-456.011	29.725	0.189	-0.162
-454.997	-14.245	-0.234	0.152
-453.982	124.612	0.120	-0.152
-452.968	800.000	0.026	-0.085
-451.953	-112.886	-0.099	0.020
-450.938	36.523	0.127	-0.113
-449.924	274.380	-0.208	-0.371
-448.909	-200.000	0.090	-0.526
-447.895	-200.000	-0.012	-0.180
-446.880	800.000	0.049	0.155
-445.865	22.135	-0.056	-0.046
-444.851	-41.836	0.311	0.161
-443.836	-200.000	-0.013	0.268
-442.822	-121.386	-0.117	-0.020
-441.807	109.995	-0.038	-0.046
-440.792	-86.226	-0.481	0.149
-439.778	-155.649	0.317	-0.021
-438.763	-200.000	0.017	0.091
-437.749	-125.856	0.248	0.038
-436.734	-79.602	-0.193	-0.066
-435.719	-200.000	-0.033	-0.189
-434.705	0.001	0.200	-0.143
-433.690	568.699	-0.122	0.300
-432.676	-200.000	0.010	-0.163
-431.661	-138.442	-0.593	0.066
-430.646	12.386	0.167	0.130
-429.632	-200.000	0.029	0.138
-428.617	443.136	-0.181	-0.400
-427.603	270.218	-0.136	0.241
-426.588	-122.303	-0.278	-0.046
-425.573	-13.042	-0.286	0.187
-424.559	-78.988	0.193	0.066
-423.544	-150.042	0.184	-0.014
-422.530	-50.558	0.147	0.070
-421.515	155.033	-0.024	0.034
-420.500	-128.700	-0.066	-0.009
-419.486	800.000	0.119	-0.337
-418.471	800.000	0.087	-0.365
-417.457	-136.527	0.091	-0.011
-416.442	-68.896	0.079	-0.031
-415.428	-50.007	-0.199	0.095
-414.413	-200.000	-0.003	0.213
-413.398	72.568	0.150	-0.158
-412.384	800.000	0.040	0.166
-411.369	-134.431	0.197	0.024
-410.355	31.832	0.084	0.073
-409.340	138.202	-0.052	0.068
-408.325	152.045	-0.164	0.225
-407.311	-130.526	0.211	0.029
-406.296	-200.000	0.002	-0.119
-405.282	-164.342	0.085	-0.004
-404.267	376.709	-0.076	-0.157
-403.252	-19.823	-0.116	-0.072
-402.238	82.904	0.183	0.200
-401.223	-112.343	-0.164	0.033
-400.209	35.156	-0.097	-0.086
-399.194	44.138	0.073	0.067
-398.179	-200.000	-0.055	0.261
-397.165	-86.345	-0.255	-0.079
-396.150	-200.000	-0.001	0.088
-395.136	-1.744	-0.070	-0.049
-394.121	-2.937	0.158	-0.111
-393.106	-15.089	-0.181	-0.117
-392.092	-16.855	0.029	-0.018
-391.077	51.767	-0.181	0.173
-390.063	-200.000	-0.059	0.353
-389.048	-200.000	-0.015	0.563
-388.033	264.857	-0.099	0.174
-387.019	-200.000	0.000	-0.546
-386.004	589.842	-0.063	0.157
-384.990	-200.000	0.002	0.075
-383.975	-107.857	0.170	0.037
-382.960	-105.448	-0.117	0.027
-381.946	-65.495	0.120	0.049
-380.931	-158.301	-0.399	0.023
-379.917	-40.405	0.118	-0.062
-378.902	25.313	0.217	0.181
-377.888	49.961	-0.134	-0.127
-376.873	75.447	0.036	-0.038
-375.858	129.447	-0.129	0.166
-374.844	800.000	-0.040	0.165
-373.829	800.000	-0.090	-0.305
-372.815	701.943	0.076	-0.201
-371.800	-58.841	0.223	0.097
-370.785	-200.000	-0.009	-0.068
-369.771	-200.000	-0.020	0.169
-368.756	-63.085	-0.049	0.020
-367.742	63.051	-0.264	0.266
-366.727	67.903	-0.084	-0.086
-365.712	-6.619	-0.100	0.069
-364.698	79.345	-0.443	-0.477
-363.683	278.992	0.134	-0.240
-362.669	444.575	0.184	0.405
-361.654	422.040	-0.108	0.232
-360.639	160.454	0.174	0.243
-359.625	-200.000	-0.059	-0.275
-358.610	642.961	-0.025	-0.064
-357.596	579.136	-0.015	-0.038
-356.581	-5.424	-0.098	-0.068
-355.566	96.424	0.186	-0.214
-354.552	120.223	0.152	0.190
-353.537	-174.436	0.242	0.007
-352.523	-89.179	-0.211	-0.063
-351.508	800.000	-0.067	0.215
-350.493	-200.000	-0.019	0.110
-349.479	-77.494	-0.144	0.050
-348.464	235.138	0.150	0.249
-347.450	-200.000	0.012	-0.104
-346.435	-78.768	0.023	0.008
-345.420	800.000	0.023	0.084
-344.406	-131.318	-0.372	-0.049
-343.391	72.580	-0.184	0.193
-342.377	-125.393	0.062	0.009
-341.362	3.202	0.064	-0.047
-340.348	-200.000	-0.030	-0.208
-339.333	636.985	0.108	-0.277
-338.318	315.021	0.126	0.238
-337.304	-125.167	-0.083	-0.013
-336.289	-200.000	0.022	0.250
-335.275	-89.347	0.192	-0.057
-334.260	153.574	0.290	0.398
-333.245	-200.000	-0.056	-0.246
-332.231	723.932	0.114	-0.305
-331.216	-72.342	0.139	0.052
-330.202	344.077	0.091	-0.179
-329.187	-56.812	-0.219	0.097
-328.172	-200.000	0.085	0.000
-327.158	219.516	-0.090	-0.145
-326.143	-20.462	-0.159	-0.098
-325.129	-17.671	0.154	-0.097
-324.114	311.972	0.094	0.177
-323.099	23.133	0.286	0.235
-322.085	287.336	0.028	-0.051
-321.070	-102.938	0.184	-0.044
-320.056	548.357	-0.039	-0.094
-319.041	141.225	-0.104	0.138
-318.026	-200.000	0.041	-0.189
-317.012	179.943	0.134	-0.197
-315.997	-8.025	-0.143	-0.097
-314.983	-131.815	0.098	-0.013
-313.968	46.628	-0.195	-0.181
-312.953	-110.469	0.406	-0.084
-311.939	-139.839	-0.027	-0.003
-310.924	-176.646	0.284	0.007
-309.910	11.858	0.171	-0.132
-308.895	-58.396	0.079	0.035
-307.880	-110.141	-0.122	-0.026
-306.866	-45.429	0.105	-0.052
-305.851	800.000	-0.044	-0.160
-304.837	88.888	0.097	0.108
-303.822	-30.799	0.267	-0.152
-302.807	-200.000	0.006	-0.093
-301.793	11.396	0.064	0.049
-300.778	534.482	-0.088	0.210
-299.764	619.109	-0.109	-0.275
-298.749	-88.961	-0.144	0.043
-297.735	-21.251	0.122	0.075
-296.720	145.463	0.061	0.082
-295.705	-56.717	-0.112	0.050
-294.691	-16.427	0.257	-0.163
-293.676	364.807	0.064	-0.129
-292.662	-78.106	-0.134	-0.046
-291.647	-60.063	0.225	0.096
-290.632	800.000	-0.076	0.292
-289.618	800.000	0.080	0.328
-288.603	194.605	0.080	-0.121
-287.589	800.000	0.098	0.298
-286.574	-200.000	0.001	0.045
-285.559	-200.000	0.002	-0.068
-284.545	-112.608	-0.257	0.051
-283.530	223.348	-0.120	0.194
-282.516	11.109	-0.229	0.176
-281.501	-200.000	0.004	0.168
-280.486	-145.415	-0.115	0.010
-279.472	-162.769	-0.259	-0.013
-278.457	800.000	-0.091	0.281
-277.443	-11.030	-0.305	-0.202
-276.428	800.000	-0.054	0.206
-275.413	527.762	0.018	-0.042
-274.399	-123.067	-0.212	-0.034
-273.384	800.000	0.029	0.081
-272.370	-5.076	-0.087	0.060
-271.355	186.374	-0.081	0.121
-270.340	800.000	0.076	0.242
-269.326	-200.000	0.021	0.228
-268.311	194.400	-0.025	-0.038
-267.297	391.173	0.081	0.168
-266.282	-200.000	-0.000	-0.049
-265.267	-79.987	0.273	0.092
-264.253	800.000	-0.048	-0.158
-263.238	-35.494	0.390	0.212
-262.224	54.060	-0.052	0.050
-261.209	-60.323	0.078	0.033
-260.195	34.148	-0.161	-0.140
-259.180	-7.659	0.176	-0.119
-258.165	68.676	0.231	-0.237
-257.151	-133.937	0.115	-0.014
-256.136	-76.413	0.173	0.061
-255.122	-13.503	-0.170	-0.110
-254.107	208.014	0.094	-0.147
-253.092	-200.000	0.003	0.071
-252.078	55.103	0.229	-0.221
-251.063	-130.583	0.222	0.030
-250.049	-200.000	-0.001	-0.165
-249.034	800.000	-0.072	-0.312
-248.019	-19.209	0.058	-0.036
-247.005	-200.000	-0.020	0.329
-245.990	87.876	-0.130	-0.145
-244.976	-60.726	-0.238	-0.101
-243.961	567.030	0.006	-0.015
-242.946	71.574	-0.243	-0.252
-241.932	-31.963	-0.087	-0.049
-240.917	-105.563	0.051	0.012
-239.903	9.663	0.267	0.202
-238.888	47.005	0.265	0.247
-237.873	800.000	-0.100	-0.284
-236.859	65.652	-0.204	-0.207
-235.844	-200.000	0.040	0.348
-234.830	177.524	0.054	-0.079
-233.815	-200.000	-0.023	-0.134
-232.800	-200.000	0.013	-0.179
-231.786	-200.000	-0.023	-0.413
-230.771	-112.540	0.434	0.087
-229.757	-200.000	0.018	-0.277
-228.742	-15.390	-0.211	0.135
-227.727	-200.000	0.022	-0.217
-226.713	-200.000	0.035	-0.292
-225.698	-200.000	-0.024	0.138
-224.684	800.000	0.037	0.140
-223.669	299.249	-0.071	-0.131
-222.655	-22.534	-0.198	-0.120
-221.640	12.794	-0.085	0.065
-220.625	-200.000	0.021	-0.182
-219.611	21.976	-0.163	-0.133
-218.596	177.605	0.096	-0.140
-217.582	-91.857	0.066	0.019
-216.567	50.685	-0.263	0.249
-215.552	800.000	-0.053	0.147
-214.538	-26.077	-0.312	0.183
-213.523	58.115	-0.052	-0.050
-212.509	200.153	-0.042	0.064
-211.494	-14.443	0.203	-0.130
-210.479	-127.683	0.235	0.034
-209.465	-200.000	-0.014	0.085
-208.450	-135.429	0.149	-0.018
-207.436	159.779	0.138	0.192
-206.421	-23.370	0.071	0.043
-205.406	493.781	-0.030	0.068
-204.392	47.941	-0.013	0.012
-203.377	-200.000	0.032	-0.172
-202.363	-106.835	0.446	-0.099
-201.348	-139.525	-0.291	0.031
-200.333	-18.435	0.192	0.120
-199.319	-117.994	0.307	0.055
-198.304	27.809	0.079	-0.066
-197.290	81.890	0.215	-0.233
-196.275	-200.000	0.012	0.219
-195.260	298.990	0.255	0.468
-194.246	166.819	-0.113	-0.160
-193.231	-200.000	-0.036	0.185
-192.217	-200.000	-0.004	0.117
-191.202	547.519	0.137	0.328
-190.187	-200.000	0.092	0.411
-189.173	-161.865	-0.109	0.006
-188.158	215.389	0.187	0.296
-187.144	-4.497	-0.234	0.161
-186.129	85.343	0.104	-0.114
-185.114	750.817	-0.051	-0.138
-184.100	800.000	-0.104	-0.290
-183.085	-122.136	-0.299	0.049
-182.071	-42.062	0.217	-0.111
-181.056	800.000	-0.022	0.068
-180.042	32.589	0.095	0.082
-179.027	147.794	0.201	-0.270
-178.012	800.000	0.111	-0.419
-176.998	-120.323	-0.420	-0.071
-175.983	574.819	0.098	-0.240
-174.969	182.199	-0.115	0.169
-173.954	-146.706	0.139	0.012
-172.939	800.000	0.102	0.368
-171.925	-102.662	0.364	0.087
-170.910	-200.000	-0.033	-0.193
-169.896	-200.000	-0.012	-0.107
-168.881	-134.671	-0.432	0.052
-167.866	-200.000	-0.035	-0.357
-166.852	450.448	0.174	0.382
-165.837	160.322	0.147	0.204
-164.823	313.930	-0.008	0.014
-163.808	-92.922	0.202	0.056
-162.793	-200.000	-0.014	-0.321
-161.779	-200.000	0.004	-0.137
-160.764	-200.000	0.006	0.066
-159.750	800.000	0.011	-0.047
-158.735	-200.000	0.032	-0.236
-157.720	-78.836	0.147	0.050
-156.706	-61.585	-0.180	-0.075
-155.691	-1.923	0.103	-0.072
-154.677	-200.000	-0.081	0.385
-153.662	522.866	0.011	0.026
-152.647	-160.095	0.206	0.011
-151.633	-115.490	0.145	-0.027
-150.618	136.470	0.194	0.252
-149.604	513.158	0.065	0.151
-148.589	60.609	-0.098	-0.097
-147.574	103.097	-0.071	-0.082
-146.560	101.956	-0.034	0.039
-145.545	-200.000	-0.060	0.341
-144.531	-109.399	0.329	0.069
-143.516	-63.232	0.040	-0.016
-142.502	293.022	-0.049	0.089
-141.487	800.000	-0.042	-0.167
-140.472	92.667	0.194	0.218
-139.458	-86.732	-0.212	-0.065
-138.443	-73.686	0.303	-0.110
-137.429	559.702	-0.201	-0.482
-136.414	-3.779	0.069	0.047
-135.399	-200.000	-0.008	0.033
-134.385	-200.000	0.022	0.179
-133.370	-98.537	-0.277	0.071
-132.356	-45.923	-0.186	-0.092
-131.341	-200.000	-0.349	0.001
-130.326	-159.967	-0.141	-0.008
-129.312	-69.740	0.079	0.030
-128.297	172.596	0.155	0.222
-127.283	440.400	-0.067	0.145
-126.268	-33.067	-0.126	0.070
-125.253	-126.212	0.067	-0.010
-124.239	-25.864	-0.133	-0.078
-123.224	-90.699	-0.178	-0.051
-122.210	800.000	0.074	0.231
-121.195	427.668	-0.064	-0.138
-120.180	-200.000	0.018	0.134
-119.166	800.000	0.101	-0.309
-118.151	-122.633	-0.337	-0.054
-117.137	-94.893	-0.074	0.020
-116.122	3.566	0.208	-0.151
-115.107	-124.887	-0.203	0.031
-114.093	113.518	0.153	0.185
-113.078	-125.741	0.236	-0.036
-112.064	524.417	0.149	-0.348
-111.049	-9.085	-0.265	-0.176
-110.034	800.000	0.025	0.082
-109.020	-122.056	0.248	-0.041
-108.005	-172.216	0.311	-0.010
-106.991	158.029	-0.169	0.234
-105.976	78.366	0.051	0.054
-104.962	-180.761	-0.171	-0.003
-103.947	24.254	0.244	0.200
-102.932	459.545	0.030	0.066
-101.918	729.322	0.127	-0.337
-100.903	-200.000	0.004	0.074
-99.889	41.685	0.109	0.098
-98.874	-63.462	-0.277	0.113
-97.859	39.592	0.191	0.171
-96.845	-23.894	0.195	0.116
-95.830	78.832	0.114	0.121
-94.816	-70.840	-0.080	0.030
-93.801	800.000	-0.112	-0.450
-92.786	-35.229	0.221	0.119
-91.772	-0.187	-0.113	0.080
-90.757	-8.145	0.254	-0.170
-89.743	-122.212	0.419	0.068
-88.728	220.036	-0.158	0.251
-87.713	-116.416	0.199	-0.037
-86.699	26.983	0.120	0.100
-85.684	527.014	-0.098	-0.228
-84.670	-25.408	0.175	-0.103
-83.655	-78.886	-0.275	-0.093
-82.640	109.146	-0.223	0.266
-81.626	18.499	-0.198	-0.157
-80.611	43.054	-0.105	-0.095
-79.597	-62.820	-0.273	-0.112
-78.582	800.000	0.033	0.091
-77.567	143.565	0.180	0.238
-76.553	33.651	0.289	0.250
-75.538	-50.238	-0.113	-0.053
-74.524	-88.795	-0.035	-0.010
-73.509	578.228	0.089	-0.217
-72.494	304.252	-0.127	0.233
-71.480	800.000	0.039	-0.131
-70.465	-28.144	0.387	-0.222
-69.451	599.644	0.050	-0.123
-68.436	-81.195	-0.205	-0.067
-67.422	320.545	-0.064	-0.120
-66.407	531.316	-0.073	-0.171
-65.392	46.397	-0.195	-0.179
-64.378	21.769	0.099	-0.080
-63.363	368.931	0.149	0.300
-62.349	-60.200	-0.183	-0.077
-61.334	21.030	-0.838	-0.675
-60.319	724.178	0.169	0.447
-59.305	800.000	-0.326	-0.921
-58.290	113.019	0.672	0.809
-57.276	262.635	0.763	1.314
-56.261	-200.000	92.491	544.775
-55.246	607.837	1377.013	3411.191
-54.232	187.064	2591.023	3835.020
-53.217	114.972	2335.079	2828.796
-52.203	43.325	2083.180	1889.321
-51.188	38.254	1995.186	1763.831
-50.173	36.574	1976.834	1732.493
-49.159	50.643	2025.673	1903.211
-48.144	53.708	2045.311	1949.395
-47.130	38.976	2003.690	1777.601
-46.115	36.402	1992.017	1743.970
-45.100	36.316	1988.968	1740.454
-44.086	36.327	1986.758	1738.551
-43.071	36.251	1984.548	1735.868
-42.057	36.263	1981.774	1733.480
-41.042	36.283	1979.947	1731.993
-40.027	36.230	1978.356	1730.058
-39.013	36.260	1975.983	1728.184
-37.998	36.326	1974.402	1727.319
-36.984	36.286	1972.495	1725.225
-35.969	36.281	1970.352	1723.241
-34.954	36.328	1968.932	1722.348
-33.940	36.512	1967.094	1722.313
-32.925	36.433	1965.838	1720.441
-31.911	36.493	1963.964	1719.268
-30.896	36.407	1961.883	1716.614
-29.881	36.411	1960.561	1715.422
-28.867	36.454	1959.012	1714.378
-27.852	36.508	1957.250	1713.249
-26.838	36.441	1955.218	1710.808
-25.823	36.461	1953.285	1709.229
-24.809	36.408	1951.466	1707.096
-23.794	36.270	1950.892	1705.312
-22.779	36.365	1948.125	1703.664
-21.765	36.271	1947.058	1701.835
-20.750	36.427	1944.855	1701.213
-19.736	36.377	1944.031	1699.988
-18.721	36.382	1942.309	1698.454
-17.706	36.408	1940.560	1697.088
-16.692	36.278	1939.051	1694.560
-15.677	36.349	1937.238	1693.529
-14.663	36.409	1935.548	1692.507
-13.648	36.414	1934.196	1691.307
-12.633	36.394	1932.954	1689.977
-11.619	36.378	1931.928	1688.871
-10.604	36.371	1930.586	1687.573
-9.590	36.365	1928.906	1685.985
-8.575	36.423	1927.527	1685.217
-7.560	36.337	1926.849	1683.809
-6.546	36.394	1924.604	1682.277
-5.531	36.380	1923.341	1680.982
-4.517	36.323	1922.405	1679.606
-3.502	36.378	1921.291	1679.043
-2.487	36.345	1919.951	1677.520
-1.473	36.299	1919.781	1676.901
-0.458	36.361	1914.492	1672.755
0.556	36.662	1894.552	1642.891
1.571	31.921	1872.980	1584.116
2.586	27.345	1893.160	1561.871
3.600	25.976	1929.124	1579.417
4.615	25.094	1923.509	1566.976
5.629	19.253	1822.155	1435.758
6.644	9.866	1701.334	1267.076
7.659	5.287	1663.411	1203.517
8.673	4.944	1660.033	1198.329
9.688	4.921	1658.759	1197.127
10.702	4.933	1656.881	1195.755
11.717	4.871	1654.568	1193.508
12.731	5.377	1653.771	1196.696
13.746	11.235	1667.688	1251.766
14.761	18.842	1683.847	1322.563
15.775	20.890	1685.157	1339.226
16.790	19.838	1682.080	1328.595
17.804	18.687	1679.037	1317.240
18.819	17.732	1675.091	1306.715
19.834	17.087	1672.817	1299.889
20.848	16.786	1671.554	1296.485
21.863	16.598	1670.000	1293.728
22.877	16.305	1668.839	1290.476
23.892	16.091	1667.108	1287.388
24.907	16.013	1666.510	1286.217
25.921	16.099	1664.962	1285.567
26.936	15.987	1664.297	1284.084
27.950	16.102	1662.894	1283.768
28.965	16.041	1663.070	1283.328
29.980	16.158	1662.026	1283.295
30.994	16.201	1661.422	1283.040
32.009	16.319	1660.008	1282.734
33.023	16.390	1658.936	1282.327
34.038	16.440	1657.806	1281.725
35.053	16.315	1656.755	1279.851
36.067	16.254	1655.175	1278.052
37.082	16.215	1654.213	1276.902
38.096	16.289	1653.042	1276.447
39.111	16.230	1652.311	1275.321
40.126	16.277	1651.965	1275.295
41.140	16.345	1650.836	1274.829
42.155	16.142	1649.359	1272.045
43.169	15.981	1648.225	1269.842
44.184	15.868	1647.099	1268.011
45.199	15.976	1645.483	1267.469
46.213	15.990	1644.261	1266.517
47.228	15.963	1643.228	1265.405
48.242	16.097	1642.130	1265.455
49.257	16.207	1641.578	1265.747
50.271	16.124	1640.398	1264.100
51.286	16.200	1639.153	1263.599
52.301	16.173	1637.901	1262.318
53.315	16.197	1636.519	1261.324
54.330	16.176	1634.645	1259.612
55.344	16.104	1632.926	1257.636
56.359	16.019	1631.394	1255.713
57.374	15.983	1631.070	1255.085
58.388	16.019	1629.349	1253.914
59.403	15.991	1628.459	1252.907
60.417	15.889	1626.847	1250.805
61.432	15.909	1625.819	1250.053
62.447	15.882	1624.381	1248.633
63.461	15.910	1622.776	1247.493
64.476	15.834	1622.071	1246.278
65.490	15.788	1620.850	1244.892
66.505	15.801	1619.883	1244.139
67.520	15.775	1619.021	1243.170
68.534	15.829	1618.054	1242.718
69.549	15.875	1616.638	1241.856
70.563	15.967	1615.122	1241.265
71.578	15.866	1614.453	1239.896
72.593	15.822	1613.647	1238.845
73.607	15.824	1612.415	1237.802
74.622	15.669	1611.504	1235.850
75.636	15.734	1610.398	1235.376
76.651	15.673	1610.119	1234.604
77.666	15.735	1608.922	1234.030
78.680	15.734	1608.120	1233.298
79.695	15.792	1606.963	1232.724
80.709	15.787	1606.246	1232.032
81.724	15.847	1605.311	1231.645
82.739	15.963	1604.548	1231.797
83.753	16.031	1603.547	1231.414
84.768	16.152	1602.940	1231.729
85.782	16.111	1602.268	1230.800
86.797	16.241	1601.129	1230.762
87.812	16.216	1600.593	1230.063
88.826	16.218	1599.110	1228.825
89.841	16.114	1597.890	1227.029
90.855	16.192	1596.899	1226.721
91.870	16.195	1596.127	1226.046
92.884	16.223	1595.105	1225.353
93.899	16.253	1594.076	1224.676
94.914	16.313	1592.588	1223.853
95.928	16.380	1591.419	1223.336
96.943	16.353	1590.512	1222.336
97.957	16.260	1589.199	1220.545
98.972	16.318	1587.041	1219.196
99.987	16.244	1586.349	1218.024
101.001	16.289	1584.385	1216.730
102.016	16.282	1583.152	1215.624
103.030	16.191	1581.886	1213.893
104.045	16.169	1580.885	1212.856
105.060	16.176	1579.296	1211.579
106.074	16.201	1578.083	1210.724
107.089	16.105	1576.162	1208.458
108.103	15.975	1574.458	1206.110
109.118	15.913	1573.193	1204.592
110.133	15.878	1571.962	1203.291
111.147	15.916	1570.349	1202.225
112.162	15.871	1569.395	1201.062
113.176	15.842	1568.176	1199.821
114.191	15.850	1567.217	1199.037
115.206	16.023	1565.437	1198.799
116.220	15.944	1564.580	1197.475
117.235	16.002	1563.059	1196.616
118.249	15.944	1561.451	1194.866
119.264	15.983	1560.144	1194.042
120.279	15.975	1559.331	1193.258
121.293	15.903	1557.845	1191.500
122.308	15.855	1556.518	1190.043
123.322	15.910	1554.472	1188.760
124.337	15.857	1553.439	1187.496
125.352	15.789	1552.263	1186.007
126.366	15.712	1551.020	1184.414
127.381	15.813	1549.910	1184.168
128.395	15.825	1548.852	1183.343
129.410	15.842	1547.618	1182.416
130.424	15.828	1546.481	1181.343
131.439	15.951	1544.795	1180.815
132.454	15.923	1543.619	1179.614
133.468	15.995	1542.294	1178.999
134.483	15.934	1541.148	1177.591
135.497	15.947	1539.772	1176.531
136.512	15.986	1538.226	1175.514
137.527	16.154	1536.570	1175.317
138.541	16.063	1535.903	1174.065
139.556	16.054	1534.540	1172.863
140.570	16.029	1533.355	1171.678
141.585	16.160	1531.997	1171.445
142.600	16.269	1530.480	1170.936
143.614	16.332	1529.355	1170.408
144.629	16.359	1528.120	1169.546
145.643	16.364	1526.968	1168.601
146.658	16.341	1526.081	1167.655
147.673	16.348	1524.087	1166.079
148.687	16.245	1522.687	1164.191
149.702	16.210	1520.790	1162.396
150.716	16.158	1519.396	1160.870
151.731	16.192	1517.973	1159.911
152.746	16.163	1516.714	1158.653
153.760	16.200	1515.237	1157.677
154.775	16.237	1513.764	1156.702
155.789	16.260	1513.171	1156.299
156.804	16.319	1512.223	1155.880
157.819	16.374	1510.443	1154.794
158.833	16.391	1509.476	1154.068
159.848	16.382	1508.492	1153.153
160.862	16.441	1506.962	1152.281
161.877	16.419	1505.956	1151.261
162.892	16.299	1504.719	1149.393
163.906	16.310	1502.921	1147.994
164.921	16.257	1501.451	1146.409
165.935	16.164	1500.694	1145.101
166.950	16.231	1499.869	1144.822
167.964	16.265	1498.683	1144.045
168.979	16.252	1497.905	1143.264
169.994	16.254	1496.348	1141.988
171.008	16.258	1496.091	1141.719
172.023	16.412	1494.310	1141.299
173.037	16.308	1493.120	1139.589
174.052	16.470	1492.135	1139.829
175.067	16.491	1491.573	1139.436
176.081	16.447	1490.402	1138.146
177.096	16.312	1488.654	1135.805
178.110	16.289	1487.256	1134.484
179.125	16.148	1486.625	1132.956
180.140	16.327	1485.357	1133.085
181.154	16.330	1484.380	1132.265
182.169	16.335	1483.503	1131.527
183.183	16.369	1482.479	1130.872
184.198	16.512	1481.396	1130.904
185.213	16.525	1480.135	1129.926
186.227	16.561	1479.466	1129.559
187.242	16.577	1478.305	1128.675
188.256	16.591	1476.996	1127.671
189.271	16.569	1476.212	1126.824
190.286	16.709	1475.017	1126.747
191.300	16.660	1474.171	1125.676
192.315	16.532	1472.418	1123.385
193.329	16.264	1471.000	1120.428
194.344	16.267	1470.022	1119.603
195.359	16.274	1469.426	1119.097
196.373	16.346	1468.148	1118.500
197.388	16.542	1466.945	1118.781
198.402	16.608	1465.706	1118.175
199.417	16.677	1464.926	1117.932
200.432	16.770	1464.244	1117.931
201.446	16.927	1463.809	1118.538
202.461	16.875	1462.619	1117.184
203.475	16.911	1461.343	1116.348
204.490	16.952	1460.039	1115.525
205.504	16.883	1459.258	1114.375
206.519	16.799	1457.722	1112.550
207.534	16.722	1456.924	1111.338
208.548	16.771	1455.559	1110.518
209.563	16.789	1454.126	1109.444
210.577	16.810	1453.466	1108.982
211.592	16.790	1452.707	1108.173
212.607	16.845	1451.827	1107.760
213.621	16.866	1451.556	1107.596
214.636	16.963	1450.481	1107.308
215.650	16.949	1449.164	1106.117
216.665	16.951	1448.703	1105.678
217.680	16.892	1447.575	1104.338
218.694	17.037	1446.727	1104.536
219.709	17.132	1445.863	1104.392
220.723	17.083	1444.899	1103.243
221.738	17.093	1443.780	1102.355
222.753	17.104	1443.182	1101.871
223.767	17.094	1442.050	1100.843
224.782	17.054	1441.578	1100.129
225.796	17.126	1440.261	1099.491
226.811	17.225	1439.191	1099.222
227.826	17.153	1439.170	1098.641
228.840	17.186	1438.122	1097.957
229.855	17.085	1437.033	1096.373
230.869	17.141	1435.810	1095.705
231.884	17.053	1434.963	1094.399
232.899	17.019	1434.082	1093.407
233.913	16.947	1432.751	1091.833
234.928	16.961	1431.370	1090.774
235.942	17.081	1429.859	1090.300
236.957	16.908	1429.168	1088.563
237.972	16.946	1427.833	1087.692
238.986	16.974	1426.809	1086.998
240.001	17.019	1425.894	1086.494
241.015	17.038	1425.221	1086.004
242.030	17.047	1424.041	1085.065
243.045	17.161	1422.367	1084.421
244.059	17.149	1421.843	1083.852
245.074	17.154	1421.453	1083.490
246.088	17.121	1420.643	1082.568
247.103	17.192	1420.035	1082.457
248.117	17.245	1419.369	1082.192
249.132	17.397	1417.952	1081.983
250.147	17.402	1417.623	1081.667
251.161	17.543	1416.962	1081.968
252.176	17.641	1416.501	1082.138
253.190	17.674	1415.598	1081.562
254.205	17.710	1414.841	1081.118
255.220	17.752	1413.823	1080.511
256.234	17.800	1413.261	1080.287
257.249	17.826	1412.125	1079.488
258.263	17.809	1411.612	1078.897
259.278	17.859	1410.023	1077.898
260.293	17.834	1409.621	1077.342
261.307	17.703	1409.257	1076.140
262.322	17.804	1408.254	1075.918
263.336	17.897	1407.239	1075.630
264.351	17.898	1406.033	1074.618
265.366	17.856	1405.384	1073.762
266.380	17.979	1404.111	1073.471
267.395	17.998	1403.173	1072.775
268.409	17.875	1402.755	1071.591
269.424	17.821	1401.572	1070.254
270.439	17.845	1400.300	1069.339
271.453	17.901	1399.619	1069.071
272.468	17.767	1398.619	1067.380
273.482	17.914	1397.732	1067.526
274.497	17.838	1396.866	1066.292
275.512	17.785	1396.334	1065.460
276.526	17.813	1395.089	1064.593
277.541	17.784	1394.279	1063.700
278.555	17.867	1393.098	1063.224
279.570	17.849	1392.364	1062.456
280.585	17.962	1391.645	1062.513
281.599	17.986	1390.939	1062.030
282.614	18.035	1389.866	1061.423
283.628	18.132	1388.543	1060.923
284.643	17.956	1387.512	1058.947
285.657	18.030	1386.358	1058.434
286.672	17.971	1385.813	1057.559
287.687	18.019	1384.679	1056.895
288.701	17.995	1383.570	1055.808
289.716	18.048	1383.169	1055.735
290.730	17.951	1382.239	1054.330
291.745	18.065	1380.972	1053.973
292.760	18.113	1380.088	1053.501
293.774	18.161	1379.264	1053.074
294.789	18.167	1378.026	1052.076
295.803	18.139	1377.914	1051.724
296.818	18.267	1376.747	1051.526
297.833	18.120	1375.813	1049.817
298.847	18.105	1374.790	1048.851
299.862	18.185	1373.869	1048.550
300.876	18.163	1372.601	1047.352
301.891	18.191	1371.970	1046.951
302.906	18.244	1371.068	1046.491
303.920	18.236	1370.561	1045.962
304.935	18.295	1369.782	1045.635
305.949	18.468	1368.783	1045.837
306.964	18.484	1368.249	1045.435
307.979	18.480	1367.728	1044.922
308.993	18.470	1366.124	1043.539
310.008	18.415	1365.690	1042.784
311.022	18.429	1364.228	1041.662
312.037	18.459	1363.659	1041.318
313.052	18.539	1362.692	1040.971
314.066	18.531	1361.595	1039.990
315.081	18.375	1360.505	1038.124
316.095	18.372	1359.208	1037.023
317.110	18.313	1358.401	1035.960
318.125	18.328	1357.584	1035.335
319.139	18.326	1356.325	1034.272
320.154	18.392	1355.255	1033.764
321.168	18.354	1354.306	1032.715
322.183	18.310	1353.494	1031.742
323.197	18.389	1352.245	1031.176
324.212	18.426	1351.440	1030.693
325.227	18.461	1350.795	1030.317
326.241	18.341	1350.295	1029.126
327.256	18.484	1349.188	1029.049
328.270	18.360	1348.614	1027.777
329.285	18.412	1347.484	1027.134
330.300	18.449	1346.380	1026.424
331.314	18.382	1345.631	1025.359
332.329	18.420	1344.792	1024.858
333.343	18.429	1344.065	1024.268
334.358	18.404	1342.969	1023.189
335.373	18.526	1342.519	1023.489
336.387	18.535	1341.606	1022.752
337.402	18.690	1340.741	1022.928
338.416	18.672	1339.918	1022.104
339.431	18.619	1339.922	1021.701
340.446	18.872	1338.672	1022.164
341.460	18.807	1337.808	1021.024
342.475	18.782	1337.022	1020.187
343.489	18.958	1336.000	1020.358
344.504	18.896	1335.169	1019.265
345.519	18.895	1334.166	1018.405
346.533	18.996	1333.418	1018.343
347.548	18.955	1332.848	1017.572
348.562	19.032	1331.947	1017.251
349.577	19.023	1331.145	1016.497
350.592	18.889	1330.467	1015.096
351.606	18.937	1329.376	1014.461
352.621	18.854	1328.184	1012.968
353.635	18.891	1326.524	1011.833
354.650	18.777	1325.798	1010.518
355.665	18.809	1324.856	1009.900
356.679	18.879	1324.151	1009.685
357.694	18.876	1322.789	1008.537
358.708	18.895	1321.994	1007.951
359.723	18.972	1320.977	1007.540
360.738	19.029	1319.994	1007.032
361.752	19.023	1319.070	1006.206
362.767	19.022	1317.711	1005.077
363.781	19.071	1317.028	1004.753
364.796	19.065	1316.177	1003.978
365.810	19.014	1315.771	1003.280
366.825	19.135	1315.102	1003.389
367.840	19.216	1314.695	1003.462
368.854	19.307	1313.746	1003.179
369.869	19.325	1313.345	1002.886
370.883	19.446	1312.088	1002.539
371.898	19.313	1312.149	1001.723
372.913	19.305	1310.923	1000.653
373.927	19.268	1309.920	999.587
374.942	19.167	1309.237	998.391
375.956	19.365	1308.008	998.514
376.971	19.395	1307.821	998.457
377.986	19.334	1306.852	997.273
379.000	19.327	1305.742	996.295
380.015	19.413	1305.418	996.459
381.029	19.441	1304.850	996.099
382.044	19.512	1303.953	995.738
383.059	19.545	1303.431	995.437
384.073	19.500	1302.600	994.456
385.088	19.597	1301.468	994.064
386.102	19.608	1301.049	993.719
387.117	19.617	1300.381	993.171
388.132	19.529	1299.836	992.162
389.146	19.489	1298.517	990.839
390.161	19.458	1297.629	989.895
391.175	19.496	1297.119	989.635
392.190	19.440	1296.373	988.657
393.205	19.529	1295.374	988.320
394.219	19.633	1294.582	988.225
395.234	19.668	1293.431	987.454
396.248	19.540	1292.034	985.573
397.263	19.582	1290.747	984.743
398.278	19.446	1289.788	983.148
399.292	19.444	1288.640	982.178
400.307	19.472	1287.458	981.346
401.321	19.497	1285.826	980.159
402.336	19.413	1285.197	979.115
403.350	19.526	1283.955	978.725
404.365	19.439	1283.054	977.456
405.380	19.499	1282.264	977.109
406.394	19.557	1281.620	976.857
407.409	19.624	1280.921	976.619
408.423	19.633	1280.581	976.321
409.438	19.674	1279.893	975.945
410.453	19.786	1279.014	975.817
411.467	19.903	1278.614	976.090
412.482	19.906	1277.800	975.400
413.496	20.002	1277.092	975.309
414.511	19.874	1276.844	974.317
415.526	19.990	1275.797	974.080
416.540	20.040	1275.253	973.860
417.555	20.032	1274.116	972.860
418.569	20.080	1273.548	972.612
419.584	20.024	1273.409	972.106
420.599	20.045	1272.313	971.300
421.613	140.894	1428.725	1787.329
422.628	135.548	1451.526	1787.452
