DTS Sentinel unit serial number:	SN413079Multiplexer serial number:	ORYXHardware model number:	OX4-SRSoftware version number:	ORYX F/W v4.00 Oryx Data Collector v3.7.2.0data status	okinstallation	princeton_trtdifferential loss correction	single-endedforward channel	channel 4reverse channel	N/Adate	2019/09/15time	11:41:35forward acquisition time	60.00reverse acquisition time	0.00gamma	496.2192k internal	0.2298k external	0.2298temperature offset calibration	1.0016default loss term (dB/km)	0.3790temperature slope calibration	1.0000multiplexer offset coefficient	1.0000multiplexer slope coefficient	1.0000fibre end	0.00T internal ref (°C)	34.31T ext. ref 1 (°C)	5.03T ext. ref 2 (°C)	29.75length (m)	temperature (°C)	Stokes	anti-Stokes-747.200	-88.104	-0.430	-0.132
-746.185	72.064	0.116	0.123
-745.171	-172.068	-0.284	0.009
-744.156	800.000	0.096	0.378
-743.142	57.669	0.086	0.085
-742.127	-200.000	0.095	0.470
-741.112	-200.000	-0.405	0.000
-740.098	73.357	-0.090	0.096
-739.083	-36.261	-0.290	-0.160
-738.069	-69.774	0.173	0.068
-737.054	-200.000	-0.065	-0.428
-736.039	-190.514	-0.161	-0.002
-735.025	-200.000	0.010	0.455
-734.010	527.949	-0.174	0.419
-732.996	335.041	-0.130	-0.256
-731.981	44.552	-0.159	0.150
-730.966	-200.000	0.060	-0.278
-729.952	-200.000	0.041	-0.343
-728.937	-132.202	-0.209	0.028
-727.923	241.135	-0.088	0.151
-726.908	55.294	-0.217	0.214
-725.894	-200.000	0.013	-0.151
-724.879	800.000	0.048	0.180
-723.864	37.962	-0.104	-0.094
-722.850	-200.000	-0.015	-0.153
-721.835	-110.878	0.153	-0.032
-720.821	9.820	-0.268	-0.208
-719.806	-142.327	0.274	-0.028
-718.791	304.001	0.005	0.009
-717.777	800.000	0.020	-0.073
-716.762	-53.686	-0.213	0.099
-715.748	-45.884	-0.132	-0.067
-714.733	-54.933	0.411	0.189
-713.718	-17.258	-0.201	-0.129
-712.704	-64.946	-0.198	0.082
-711.689	153.483	-0.038	0.053
-710.675	-200.000	-0.018	0.139
-709.660	323.134	0.196	0.381
-708.645	-123.870	-0.096	-0.015
-707.631	-52.340	-0.407	0.192
-706.616	-139.315	0.245	0.027
-705.602	33.831	0.117	-0.104
-704.587	-61.208	0.245	0.105
-703.572	-41.761	0.224	-0.117
-702.558	429.342	0.013	0.028
-701.543	148.378	-0.021	-0.029
-700.529	-99.554	-0.344	-0.088
-699.514	800.000	-0.024	-0.093
-698.499	-200.000	0.033	0.290
-697.485	111.152	-0.153	0.188
-696.470	-39.806	-0.235	0.125
-695.456	-200.000	0.017	-0.337
-694.441	800.000	-0.112	0.433
-693.426	-26.062	0.372	0.223
-692.412	-119.943	-0.384	0.067
-691.397	-200.000	0.001	0.063
-690.383	-8.528	-0.202	-0.138
-689.368	-200.000	0.059	-0.366
-688.354	135.006	0.097	-0.128
-687.339	276.046	0.133	-0.240
-686.324	364.789	0.138	-0.283
-685.310	-38.611	0.287	0.154
-684.295	242.170	-0.160	0.273
-683.281	-64.459	0.148	0.061
-682.266	-63.349	-0.181	-0.076
-681.251	-200.000	0.001	-0.012
-680.237	-200.000	0.056	-0.301
-679.222	162.677	-0.191	-0.273
-678.208	-200.000	-0.016	0.100
-677.193	-20.772	-0.347	0.216
-676.178	-168.640	0.178	0.007
-675.164	-171.434	-0.179	-0.006
-674.149	-200.000	-0.013	0.256
-673.135	-146.077	0.061	0.005
-672.120	15.748	-0.081	0.065
-671.105	164.302	0.186	-0.267
-670.091	228.108	-0.088	-0.145
-669.076	-200.000	-0.004	-0.107
-668.062	-34.818	0.231	-0.129
-667.047	228.659	-0.146	0.242
-666.032	764.978	-0.059	0.162
-665.018	228.223	0.037	-0.062
-664.003	-67.251	-0.175	-0.070
-662.989	31.104	0.052	0.045
-661.974	-115.162	0.173	0.033
-660.959	50.062	0.181	0.173
-659.945	-200.000	0.011	0.092
-658.930	113.554	-0.135	0.167
-657.916	800.000	0.041	0.131
-656.901	-74.271	-0.196	0.072
-655.886	-200.000	-0.006	-0.482
-654.872	492.666	0.158	-0.367
-653.857	-200.000	-0.000	0.161
-652.843	84.118	0.214	0.238
-651.828	537.451	-0.163	0.393
-650.814	-156.773	-0.031	0.002
-649.799	164.821	-0.114	-0.164
-648.784	-140.670	0.186	0.020
-647.770	12.303	-0.038	0.030
-646.755	319.713	-0.103	0.198
-645.741	-200.000	0.012	0.413
-644.726	-156.912	0.262	-0.016
-643.711	152.579	0.019	-0.027
-642.697	-176.552	-0.379	-0.010
-641.682	-43.671	0.084	0.043
-640.668	800.000	0.070	0.260
-639.653	83.335	0.103	-0.114
-638.638	-45.746	-0.408	-0.205
-637.624	-154.373	-0.151	0.010
-636.609	-44.332	0.086	-0.044
-635.595	17.300	0.125	0.100
-634.580	21.920	-0.204	-0.169
-633.565	77.875	0.217	-0.235
-632.551	-23.962	-0.163	-0.099
-631.536	-43.892	0.400	0.204
-630.522	800.000	-0.045	-0.148
-629.507	800.000	-0.037	-0.135
-628.492	-121.774	0.222	0.037
-627.478	-66.650	-0.130	-0.052
-626.463	137.478	-0.180	0.240
-625.449	-200.000	-0.008	-0.420
-624.434	753.871	-0.078	0.213
-623.419	22.102	0.158	0.131
-622.405	800.000	0.085	0.270
-621.390	-200.000	-0.042	0.243
-620.376	800.000	0.090	-0.303
-619.361	124.470	-0.138	-0.177
-618.346	-68.376	0.023	0.009
-617.332	-2.456	0.008	-0.006
-616.317	111.029	0.101	0.123
-615.303	-200.000	0.051	-0.326
-614.288	-137.318	0.216	0.025
-613.273	-200.000	-0.026	0.187
-612.259	-200.000	-0.007	0.187
-611.244	800.000	0.034	0.144
-610.230	116.138	-0.202	0.251
-609.215	496.592	-0.053	0.124
-608.201	-141.222	0.287	0.030
-607.186	137.020	0.147	-0.195
-606.171	-12.875	0.092	0.061
-605.157	60.828	0.126	0.127
-604.142	-108.738	0.213	-0.046
-603.128	-189.036	-0.410	-0.005
-602.113	-169.592	0.105	0.004
-601.098	21.368	-0.118	0.098
-600.084	-88.854	-0.194	0.058
-599.069	333.410	-0.062	-0.122
-598.055	344.989	-0.079	0.158
-597.040	-32.921	0.381	0.215
-596.025	-152.344	0.247	0.018
-595.011	394.914	0.152	0.321
-593.996	-46.921	0.135	-0.067
-592.982	-200.000	0.014	0.146
-591.967	-200.000	-0.014	-0.185
-590.952	-49.959	-0.260	-0.125
-589.938	-195.601	0.060	-0.000
-588.923	85.250	0.358	-0.399
-587.909	-176.840	-0.173	-0.004
-586.894	-10.708	-0.261	-0.175
-585.879	-112.185	0.320	-0.065
-584.865	566.031	-0.122	0.299
-583.850	55.408	0.099	-0.097
-582.836	800.000	0.050	0.201
-581.821	327.402	-0.092	0.179
-580.806	-23.667	-0.340	-0.207
-579.792	100.444	0.069	-0.081
-578.777	-47.598	0.323	0.159
-577.763	-50.101	0.175	-0.084
-576.748	-73.520	-0.291	-0.108
-575.733	221.728	0.095	0.155
-574.719	-118.042	0.085	0.015
-573.704	536.447	0.049	0.117
-572.690	-103.402	-0.146	-0.035
-571.675	2.797	0.088	-0.065
-570.661	503.088	-0.155	-0.364
-569.646	-132.829	0.290	-0.038
-568.631	-153.655	-0.343	-0.024
-567.617	800.000	0.106	0.317
-566.602	210.244	-0.006	-0.010
-565.588	-137.259	0.194	0.022
-564.573	-35.180	-0.278	0.153
-563.558	-3.200	-0.113	0.080
-562.544	800.000	0.022	-0.068
-561.529	-149.963	-0.045	0.004
-560.515	70.772	-0.074	0.078
-559.500	136.415	0.228	-0.301
-558.485	229.594	-0.121	-0.201
-557.471	-200.000	-0.054	-0.250
-556.456	-52.487	-0.195	-0.091
-555.442	-115.105	-0.341	-0.066
-554.427	-88.992	0.466	0.140
-553.412	146.449	-0.095	0.129
-552.398	-200.000	-0.078	0.374
-551.383	-200.000	-0.033	0.154
-550.369	136.782	0.115	-0.152
-549.354	-148.991	-0.200	-0.016
-548.339	-200.000	0.032	0.177
-547.325	-200.000	-0.026	-0.134
-546.310	435.467	0.137	-0.302
-545.296	-200.000	-0.018	0.109
-544.281	-129.935	-0.178	-0.025
-543.266	-7.623	0.219	-0.150
-542.252	-11.188	-0.080	0.053
-541.237	65.564	-0.291	0.299
-540.223	40.563	0.055	-0.051
-539.208	68.971	-0.311	-0.324
-538.193	95.325	-0.037	-0.042
-537.179	-15.414	-0.146	0.094
-536.164	81.574	-0.121	-0.133
-535.150	-200.000	0.038	0.314
-534.135	0.896	-0.175	-0.127
-533.121	22.954	-0.095	-0.079
-532.106	176.448	-0.139	-0.204
-531.091	-140.813	0.286	0.030
-530.077	-76.066	-0.329	0.118
-529.062	195.844	-0.027	0.042
-528.048	202.633	0.145	0.226
-527.033	29.938	0.211	-0.182
-526.018	15.474	0.155	0.123
-525.004	-84.391	-0.130	-0.042
-523.989	-106.771	0.247	-0.056
-522.975	-8.297	0.235	0.160
-521.960	615.424	-0.110	-0.279
-520.945	-48.189	-0.309	0.151
-519.931	16.376	0.218	0.174
-518.916	-69.457	0.228	0.088
-517.902	-44.615	-0.392	-0.198
-516.887	70.646	-0.117	0.123
-515.872	-111.701	-0.250	0.051
-514.858	34.769	0.160	0.142
-513.843	145.002	-0.075	0.102
-512.829	800.000	-0.009	-0.033
-511.814	-101.457	0.295	0.073
-510.799	77.851	0.184	0.198
-509.785	143.067	-0.236	0.318
-508.770	-200.000	0.004	0.316
-507.756	196.613	0.028	0.043
-506.741	74.226	-0.170	0.180
-505.726	-156.448	0.058	-0.004
-504.712	-52.930	-0.159	-0.074
-503.697	793.707	0.038	0.106
-502.683	116.476	-0.131	0.163
-501.668	-200.000	-0.068	0.389
-500.653	-87.805	0.386	0.118
-499.639	607.233	0.101	-0.254
-498.624	800.000	0.023	-0.101
-497.610	-43.059	0.089	0.046
-496.595	-200.000	0.045	-0.706
-495.581	-51.778	-0.084	0.040
-494.566	-128.224	-0.176	0.025
-493.551	364.813	0.070	0.143
-492.537	494.669	0.061	0.141
-491.522	-200.000	0.025	-0.240
-490.508	-200.000	-0.036	-0.206
-489.493	-162.920	-0.075	-0.004
-488.478	-97.595	0.308	0.081
-487.464	493.636	-0.259	0.600
-486.449	268.183	0.114	0.202
-485.435	72.240	0.160	0.169
-484.420	151.807	-0.160	-0.221
-483.405	102.146	0.100	0.118
-482.391	800.000	-0.048	0.195
-481.376	-200.000	-0.040	0.268
-480.362	275.649	0.041	0.073
-479.347	6.398	0.195	-0.146
-478.332	-200.000	0.037	-0.336
-477.318	-49.939	0.054	-0.026
-476.303	-112.529	-0.120	0.024
-475.289	-200.000	-0.003	0.081
-474.274	-13.836	-0.189	-0.124
-473.259	-7.351	0.093	-0.064
-472.245	-200.000	-0.022	-0.104
-471.230	-200.000	-0.025	-0.118
-470.216	-101.027	0.244	0.061
-469.201	-52.569	0.071	-0.033
-468.186	-16.529	0.331	0.212
-467.172	800.000	-0.083	0.244
-466.157	800.000	-0.101	-0.423
-465.143	21.984	-0.079	-0.065
-464.128	-91.334	0.216	-0.062
-463.113	173.761	-0.069	-0.101
-462.099	190.448	0.245	-0.372
-461.084	-200.000	0.032	-0.164
-460.070	-109.816	0.118	-0.025
-459.055	-13.980	0.419	0.273
-458.040	39.226	0.277	-0.250
-457.026	800.000	-0.018	0.052
-456.011	205.207	-0.076	-0.119
-454.997	-200.000	0.035	-0.159
-453.982	25.210	0.158	-0.132
-452.968	39.050	-0.260	-0.235
-451.953	63.444	-0.048	-0.049
-450.938	-120.536	0.232	-0.040
-449.924	175.398	-0.201	-0.294
-448.909	-142.507	0.122	-0.012
-447.895	-145.609	0.067	0.006
-446.880	-200.000	-0.013	-0.096
-445.865	68.953	0.036	0.037
-444.851	169.483	0.133	0.191
-443.836	-83.141	-0.187	-0.061
-442.822	-55.481	-0.028	-0.013
-441.807	12.087	0.072	0.056
-440.792	-119.158	-0.177	-0.031
-439.778	181.911	0.033	0.049
-438.763	50.441	0.150	-0.143
-437.749	-79.292	-0.130	0.044
-436.734	-73.615	-0.149	-0.055
-435.719	-200.000	0.004	-0.132
-434.705	388.838	-0.044	0.091
-433.690	-120.083	-0.240	0.042
-432.676	69.023	-0.035	0.037
-431.661	-35.951	-0.308	0.168
-430.646	-97.986	-0.015	-0.004
-429.632	-27.955	-0.166	-0.097
-428.617	-53.146	0.285	0.132
-427.603	-83.357	-0.390	-0.126
-426.588	-14.701	-0.014	0.009
-425.573	48.130	-0.241	0.227
-424.559	800.000	-0.017	0.071
-423.544	-200.000	-0.026	-0.152
-422.530	-200.000	-0.017	0.105
-421.515	-5.719	0.260	0.180
-420.500	-118.973	0.264	-0.047
-419.486	266.631	-0.080	-0.141
-418.471	-30.197	0.162	-0.093
-417.457	154.706	-0.256	-0.354
-416.442	249.070	-0.109	-0.187
-415.428	-132.723	0.453	-0.058
-414.413	200.804	0.103	0.160
-413.398	-73.864	-0.276	-0.101
-412.384	62.835	0.237	-0.239
-411.369	800.000	0.035	-0.103
-410.355	314.170	0.178	0.337
-409.340	61.042	-0.068	-0.068
-408.325	-159.743	-0.081	0.004
-407.311	800.000	-0.073	0.271
-406.296	344.201	0.102	0.202
-405.282	121.214	0.094	-0.118
-404.267	-200.000	-0.050	-0.260
-403.252	20.356	-0.090	-0.073
-402.238	-33.453	-0.185	-0.103
-401.223	-200.000	0.025	-0.165
-400.209	234.143	-0.182	-0.303
-399.194	53.632	-0.303	-0.293
-398.179	-38.868	0.219	-0.116
-397.165	-70.184	0.096	-0.037
-396.150	800.000	0.053	-0.164
-395.136	-46.987	0.248	-0.122
-394.121	-200.000	-0.011	-0.191
-393.106	29.403	0.167	-0.143
-392.092	-200.000	0.003	0.041
-391.077	-54.933	0.107	-0.049
-390.063	370.076	-0.138	0.281
-389.048	154.539	-0.151	0.209
-388.033	12.709	0.178	0.138
-387.019	65.214	-0.092	-0.094
-386.004	79.214	-0.286	-0.309
-384.990	-4.616	-0.136	-0.095
-383.975	358.538	0.159	0.319
-382.960	38.716	-0.128	0.115
-381.946	-186.278	-0.308	0.004
-380.931	800.000	-0.059	0.256
-379.917	-200.000	-0.051	0.461
-378.902	-121.207	0.226	0.038
-377.888	99.803	0.069	0.080
-376.873	24.462	-0.111	-0.092
-375.858	800.000	0.016	0.065
-374.844	-100.449	-0.273	-0.068
-373.829	12.871	-0.133	-0.103
-372.815	-17.745	-0.170	0.107
-371.800	-200.000	-0.013	0.228
-370.785	-147.495	-0.246	0.021
-369.771	-22.180	-0.076	-0.046
-368.756	-133.087	-0.123	-0.016
-367.742	-200.000	0.007	0.108
-366.727	800.000	0.051	-0.165
-365.712	-200.000	0.071	-0.514
-364.698	104.278	-0.115	-0.136
-363.683	751.809	0.103	0.281
-362.669	253.462	-0.103	-0.178
-361.654	800.000	-0.031	0.130
-360.639	49.152	-0.156	0.148
-359.625	-172.005	0.253	-0.008
-358.610	-134.705	0.127	-0.016
-357.596	46.192	0.089	0.083
-356.581	800.000	0.144	0.445
-355.566	83.313	-0.167	-0.183
-354.552	-9.416	-0.088	-0.059
-353.537	144.722	-0.064	0.086
-352.523	-139.122	-0.280	0.030
-351.508	-50.153	-0.096	0.046
-350.493	-149.834	0.194	-0.015
-349.479	-200.000	-0.050	-0.531
-348.464	-124.943	-0.125	0.019
-347.450	-40.201	-0.305	0.160
-346.435	-170.570	0.140	-0.005
-345.420	569.010	0.008	-0.020
-344.406	-173.679	-0.217	-0.007
-343.391	-43.693	0.251	0.127
-342.377	-200.000	-0.021	0.228
-341.362	120.121	0.138	0.172
-340.348	-96.417	-0.205	-0.055
-339.333	75.759	-0.254	-0.270
-338.318	-33.953	0.229	-0.127
-337.304	800.000	0.046	-0.143
-336.289	739.309	-0.076	0.204
-335.275	259.247	-0.092	-0.159
-334.260	370.376	0.081	-0.164
-333.245	-69.202	-0.226	-0.087
-332.231	-115.130	0.347	-0.066
-331.216	270.120	-0.037	0.065
-330.202	-120.368	-0.364	0.062
-329.187	672.995	0.057	-0.148
-328.172	-200.000	-0.015	-0.235
-327.158	-200.000	0.004	-0.112
-326.143	53.557	-0.085	0.082
-325.129	-128.099	-0.276	0.040
-324.114	-33.891	0.174	-0.096
-323.099	-200.000	-0.016	0.101
-322.085	524.691	0.102	0.240
-321.070	-13.155	-0.238	-0.155
-320.056	-200.000	-0.033	0.172
-319.041	191.427	-0.157	-0.237
-318.026	131.738	0.053	0.068
-317.012	-200.000	-0.015	0.087
-315.997	-60.897	-0.252	0.107
-314.983	213.070	-0.186	-0.295
-313.968	141.235	0.153	-0.203
-312.953	712.713	-0.105	-0.279
-311.939	252.903	-0.036	0.062
-310.924	-200.000	-0.011	0.171
-309.910	-54.823	0.329	-0.149
-308.895	-200.000	-0.023	-0.140
-307.880	-47.434	0.175	-0.086
-306.866	800.000	-0.101	0.364
-305.851	88.929	-0.234	-0.261
-304.837	-107.184	-0.193	0.043
-303.822	16.789	0.250	0.199
-302.807	-92.048	-0.300	-0.085
-301.793	1.053	-0.154	0.111
-300.778	-76.637	-0.128	0.045
-299.764	149.481	0.040	0.054
-298.749	-144.734	0.396	0.037
-297.735	98.814	0.112	-0.129
-296.720	-1.717	-0.161	-0.114
-295.705	800.000	-0.090	0.262
-294.691	466.297	0.047	0.105
-293.676	401.900	0.127	-0.267
-292.662	-70.675	-0.226	0.086
-291.647	65.143	-0.239	0.243
-290.632	-25.634	0.532	0.315
-289.618	673.507	-0.114	0.297
-288.603	-38.826	0.207	-0.109
-287.589	-132.523	0.162	-0.021
-286.574	657.189	-0.005	0.013
-285.559	118.901	0.058	0.071
-284.545	-104.394	0.283	0.066
-283.530	-158.623	-0.211	0.012
-282.516	-32.004	-0.064	-0.036
-281.501	-42.675	-0.204	-0.104
-280.486	-47.860	0.451	-0.219
-279.472	98.083	0.224	0.259
-278.457	-41.314	0.304	0.157
-277.443	-200.000	0.016	-0.156
-276.428	-56.086	0.143	0.064
-275.413	522.450	-0.043	0.102
-274.399	-200.000	0.042	0.237
-273.384	-115.953	0.337	-0.063
-272.370	289.351	-0.095	0.173
-271.355	624.735	-0.120	-0.303
-270.340	27.951	0.163	-0.138
-269.326	-26.302	0.039	0.023
-268.311	-200.000	-0.017	-0.245
-267.297	114.317	0.233	0.285
-266.282	-123.384	0.184	-0.029
-265.267	-141.115	-0.151	0.015
-264.253	352.871	-0.023	0.046
-263.238	-108.981	0.212	0.045
-262.224	-64.809	-0.155	-0.063
-261.209	67.065	-0.043	-0.044
-260.195	-70.415	-0.286	-0.109
-259.180	63.894	-0.173	-0.174
-258.165	-13.956	-0.107	0.069
-257.151	-200.000	0.009	-0.244
-256.136	60.099	-0.164	-0.163
-255.122	-200.000	0.003	-0.137
-254.107	-67.801	0.320	-0.125
-253.092	8.006	-0.095	-0.071
-252.078	-96.047	0.096	-0.026
-251.063	178.289	-0.128	-0.186
-250.049	-142.703	-0.204	-0.020
-249.034	233.700	0.035	-0.057
-248.019	160.149	-0.059	-0.082
-247.005	-200.000	0.009	0.069
-245.990	148.602	-0.047	-0.064
-244.976	-1.442	-0.191	-0.135
-243.961	661.810	-0.106	-0.275
-242.946	171.791	-0.122	0.175
-241.932	-188.270	0.418	-0.005
-240.917	-200.000	0.022	0.273
-239.903	11.998	0.110	0.084
-238.888	-12.220	-0.171	-0.112
-237.873	294.840	0.049	0.089
-236.859	-0.510	-0.199	0.141
-235.844	-75.744	-0.065	-0.023
-234.830	92.197	-0.070	0.079
-233.815	800.000	0.085	0.255
-232.800	800.000	0.057	0.178
-231.786	-62.682	-0.058	-0.024
-230.771	-8.192	0.148	-0.100
-229.757	-200.000	-0.023	0.433
-228.742	-105.937	-0.127	-0.029
-227.727	-100.657	0.277	0.068
-226.713	-60.601	0.054	0.023
-225.698	381.856	0.172	-0.354
-224.684	-200.000	-0.007	-0.243
-223.669	518.014	0.092	0.215
-222.655	271.211	-0.025	-0.045
-221.640	-62.801	-0.138	-0.057
-220.625	-166.441	0.322	-0.013
-219.611	-24.986	0.115	0.068
-218.596	-116.275	0.319	-0.059
-217.582	39.501	-0.110	-0.099
-216.567	-52.608	0.259	-0.120
-215.552	651.869	0.118	-0.302
-214.538	774.270	-0.087	-0.236
-213.523	137.121	-0.105	-0.138
-212.509	800.000	-0.065	-0.197
-211.494	67.105	-0.044	0.045
-210.479	800.000	0.071	-0.301
-209.465	-89.203	0.143	0.042
-208.450	191.189	0.087	-0.131
-207.436	-162.434	-0.091	0.004
-206.421	554.201	-0.024	-0.057
-205.406	800.000	0.030	0.122
-204.392	43.596	0.172	0.157
-203.377	-200.000	0.032	0.149
-202.363	-126.259	-0.162	-0.024
-201.348	800.000	-0.085	-0.281
-200.333	-200.000	-0.000	0.364
-199.319	-98.290	0.205	-0.052
-198.304	8.475	-0.148	0.111
-197.290	800.000	0.053	-0.186
-196.275	22.521	-0.101	0.083
-195.260	385.446	0.128	0.263
-194.246	39.805	-0.080	0.072
-193.231	-200.000	0.016	-0.081
-192.217	-200.000	0.023	-0.166
-191.202	13.012	-0.139	-0.107
-190.187	-85.311	0.463	-0.144
-189.173	-200.000	-0.172	0.000
-188.158	-56.266	-0.198	0.088
-187.144	304.767	-0.038	0.070
-186.129	117.718	0.102	0.125
-185.114	-51.813	-0.179	-0.083
-184.100	-200.000	0.006	0.308
-183.085	497.786	0.059	0.135
-182.071	279.783	0.170	-0.303
-181.056	113.210	0.265	-0.322
-180.042	73.922	-0.216	-0.226
-179.027	161.375	0.009	-0.013
-178.012	-77.381	-0.099	0.034
-176.998	-200.000	-0.021	0.340
-175.983	-200.000	0.037	0.163
-174.969	-92.475	-0.274	0.077
-173.954	-113.731	0.187	0.036
-172.939	262.428	-0.017	0.030
-171.925	-94.674	-0.049	0.013
-170.910	-200.000	0.001	0.198
-169.896	15.125	0.246	0.192
-168.881	-68.557	0.262	0.101
-167.866	-167.316	-0.328	0.013
-166.852	304.492	0.158	0.293
-165.837	-88.237	-0.151	0.045
-164.823	-119.988	-0.333	-0.057
-163.808	-200.000	-0.016	0.175
-162.793	800.000	0.060	-0.188
-161.779	800.000	0.017	0.066
-160.764	460.842	0.132	-0.293
-159.750	800.000	-0.035	0.143
-158.735	-84.782	0.138	0.043
-157.720	800.000	0.059	0.252
-156.706	-200.000	-0.026	0.286
-155.691	280.218	0.117	0.209
-154.677	-70.188	-0.296	-0.112
-153.662	800.000	0.072	0.296
-152.647	-200.000	0.032	-0.306
-151.633	-200.000	0.027	-0.139
-150.618	-72.781	0.240	-0.088
-149.604	-60.907	-0.034	-0.014
-148.589	-54.142	0.494	-0.224
-147.574	186.459	0.133	-0.198
-146.560	-105.922	0.086	-0.019
-145.545	-114.406	-0.240	-0.046
-144.531	-129.705	0.233	-0.032
-143.516	-179.656	-0.192	-0.004
-142.502	-108.132	0.204	0.044
-141.487	119.175	-0.090	0.111
-140.472	-143.647	-0.307	-0.029
-139.458	505.203	0.073	-0.168
-138.443	621.709	0.055	0.139
-137.429	-132.849	-0.370	-0.047
-136.414	67.123	-0.046	-0.047
-135.399	188.516	0.171	-0.255
-134.385	-151.195	0.368	0.027
-133.370	-101.923	0.299	0.072
-132.356	-6.403	0.190	-0.129
-131.341	-73.003	-0.209	0.077
-130.326	-52.280	0.315	-0.145
-129.312	-96.802	0.285	-0.075
-128.297	800.000	-0.138	0.481
-127.283	-123.507	0.204	-0.032
-126.268	-6.794	-0.030	0.020
-125.253	6.467	-0.094	0.069
-124.239	-74.298	0.410	-0.148
-123.224	-32.281	-0.104	-0.058
-122.210	-77.952	0.306	0.105
-121.195	800.000	-0.115	0.330
-120.180	-95.455	-0.050	0.013
-119.166	15.067	-0.099	-0.077
-118.151	161.136	-0.067	-0.094
-117.137	-137.146	-0.137	-0.016
-116.122	-87.329	0.110	0.033
-115.107	-45.001	-0.140	0.070
-114.093	-146.171	0.177	-0.016
-113.078	11.501	0.111	-0.084
-112.064	800.000	-0.142	0.407
-111.049	710.517	0.115	0.303
-110.034	217.271	-0.145	0.229
-109.020	-200.000	0.005	-0.230
-108.005	-96.297	-0.128	0.034
-106.991	-200.000	0.012	-0.169
-105.976	-200.000	-0.002	-0.298
-104.962	-3.909	0.139	0.096
-103.947	-61.466	-0.103	0.043
-102.932	800.000	0.071	-0.285
-101.918	40.937	-0.089	-0.080
-100.903	-20.386	-0.181	0.111
-99.889	78.460	0.203	0.216
-98.874	-200.000	-0.013	0.200
-97.859	-129.396	0.121	-0.017
-96.845	458.433	-0.065	-0.143
-95.830	-116.324	0.256	0.047
-94.816	-200.000	-0.017	-0.233
-93.801	15.729	-0.223	-0.175
-92.786	-9.693	0.017	0.011
-91.772	-44.315	-0.015	-0.007
-90.757	-58.291	-0.214	-0.093
-89.743	-200.000	-0.003	-0.102
-88.728	272.435	-0.043	-0.076
-87.713	-200.000	-0.040	0.289
-86.699	-200.000	0.050	0.251
-85.684	800.000	0.134	-0.517
-84.670	50.609	-0.053	-0.050
-83.655	-32.361	0.261	0.145
-82.640	-200.000	0.008	-0.158
-81.626	-170.886	-0.136	0.005
-80.611	-200.000	0.001	0.010
-79.597	228.691	-0.080	0.130
-78.582	158.861	0.023	0.032
-77.567	800.000	-0.047	0.163
-76.553	-183.399	-0.051	-0.001
-75.538	-1.566	-0.275	-0.193
-74.524	-32.996	0.140	0.077
-73.509	-200.000	-0.097	0.434
-72.494	557.203	0.063	-0.152
-71.480	-15.809	-0.221	-0.140
-70.465	-117.398	0.196	-0.035
-69.451	-165.237	-0.123	0.005
-68.436	-200.000	0.044	0.224
-67.422	-200.000	0.023	0.265
-66.407	-139.979	-0.255	0.027
-65.392	-113.254	-0.048	-0.009
-64.378	-50.743	-0.094	-0.044
-63.363	171.287	0.121	0.173
-62.349	768.896	-0.124	0.335
-61.334	306.634	-0.709	-1.313
-60.319	272.498	0.301	0.528
-59.305	800.000	-0.235	-0.955
-58.290	162.911	0.557	0.778
-57.276	800.000	0.473	1.543
-56.261	-200.000	97.309	567.121
-55.246	617.100	1395.779	3480.891
-54.232	183.517	2612.807	3838.202
-53.217	110.430	2339.155	2793.474
-52.203	40.915	2085.443	1870.304
-51.188	35.990	1997.929	1747.207
-50.173	34.457	1979.572	1717.296
-49.159	48.429	2031.353	1890.082
-48.144	51.245	2051.218	1934.224
-47.130	36.797	2008.356	1763.406
-46.115	34.316	1996.796	1730.680
-45.100	34.301	1993.455	1727.587
-44.086	34.128	1991.856	1724.562
-43.071	34.081	1989.162	1721.733
-42.057	34.106	1986.872	1719.911
-41.042	34.177	1984.612	1718.525
-40.027	34.151	1982.700	1716.570
-39.013	34.136	1980.551	1714.501
-37.998	34.263	1978.317	1713.646
-36.984	34.335	1976.724	1712.843
-35.969	34.298	1974.396	1710.426
-34.954	34.261	1973.200	1708.993
-33.940	34.276	1971.344	1707.445
-32.925	34.251	1970.425	1706.361
-31.911	34.321	1968.150	1704.952
-30.896	34.256	1966.724	1703.068
-29.881	34.288	1965.138	1701.909
-28.867	34.340	1963.569	1700.952
-27.852	34.331	1961.944	1699.392
-26.838	34.395	1959.482	1697.762
-25.823	34.377	1957.955	1696.210
-24.809	34.392	1956.374	1694.910
-23.794	34.281	1954.459	1692.195
-22.779	34.246	1952.901	1690.466
-21.765	34.293	1951.050	1689.219
-20.750	34.326	1949.756	1688.320
-19.736	34.341	1947.930	1686.807
-18.721	34.317	1946.786	1685.536
-17.706	34.326	1945.102	1684.091
-16.692	34.350	1943.217	1682.601
-15.677	34.411	1941.511	1681.604
-14.663	34.402	1940.057	1680.193
-13.648	34.351	1939.048	1678.807
-12.633	34.383	1937.729	1677.882
-11.619	34.292	1936.659	1676.080
-10.604	34.344	1935.101	1675.123
-9.590	34.342	1933.923	1674.025
-8.575	34.293	1932.412	1672.219
-7.560	34.341	1931.191	1671.517
-6.546	34.364	1929.371	1670.076
-5.531	34.343	1928.620	1669.174
-4.517	34.361	1927.693	1668.466
-3.502	34.337	1926.261	1666.949
-2.487	34.212	1925.720	1665.321
-1.473	34.345	1924.368	1665.247
-0.458	34.408	1919.837	1661.811
0.556	33.297	1900.267	1635.039
1.571	29.198	1880.497	1582.752
2.586	24.961	1902.696	1564.375
3.600	23.804	1939.052	1583.824
4.615	23.243	1934.864	1575.269
5.629	18.228	1833.922	1450.555
6.644	9.633	1714.453	1287.534
7.659	5.410	1677.143	1226.346
8.673	5.152	1673.569	1221.604
9.688	5.090	1671.959	1219.836
10.702	4.971	1670.754	1217.922
11.717	4.897	1667.888	1215.141
12.731	5.446	1667.634	1219.131
13.746	11.349	1681.517	1275.451
14.761	18.197	1696.236	1340.333
15.775	19.463	1696.010	1349.953
16.790	18.185	1692.029	1336.681
17.804	16.973	1689.036	1324.739
18.819	15.952	1685.204	1313.659
19.834	15.422	1683.009	1307.702
20.848	15.083	1682.030	1304.182
21.863	14.933	1679.309	1300.796
22.877	14.640	1678.166	1297.513
23.892	14.330	1676.896	1294.011
24.907	14.272	1675.839	1292.628
25.921	14.254	1674.957	1291.692
26.936	14.259	1673.345	1290.379
27.950	14.236	1672.941	1289.776
28.965	14.309	1672.789	1290.108
29.980	14.362	1671.829	1289.662
30.994	14.535	1670.217	1289.646
32.009	14.544	1668.727	1288.447
33.023	14.557	1668.094	1287.943
34.038	14.577	1667.346	1287.405
35.053	14.563	1666.040	1286.177
36.067	14.511	1664.464	1284.447
37.082	14.423	1663.565	1282.962
38.096	14.442	1662.056	1281.834
39.111	14.485	1661.646	1281.732
40.126	14.535	1660.821	1281.363
41.140	14.585	1659.795	1280.847
42.155	14.427	1658.113	1278.221
43.169	14.298	1657.241	1276.451
44.184	14.238	1656.229	1275.098
45.199	14.219	1654.871	1273.789
46.213	14.238	1653.186	1272.531
47.228	14.163	1652.906	1271.628
48.242	14.338	1651.149	1271.495
49.257	14.371	1650.044	1270.786
50.271	14.399	1649.210	1270.244
51.286	14.262	1647.677	1267.912
52.301	14.363	1646.792	1267.886
53.315	14.388	1645.014	1266.593
54.330	14.299	1643.499	1264.637
55.344	14.233	1642.133	1262.973
56.359	14.278	1640.318	1261.807
57.374	14.236	1639.282	1260.584
58.388	14.281	1638.041	1259.856
59.403	14.241	1636.839	1258.519
60.417	14.197	1635.368	1256.946
61.432	14.239	1634.463	1256.452
62.447	14.190	1633.335	1255.108
63.461	14.103	1632.026	1253.334
64.476	14.139	1630.672	1252.455
65.490	14.113	1629.655	1251.369
66.505	14.089	1628.102	1249.883
67.520	14.123	1627.691	1249.713
68.534	14.134	1626.663	1248.898
69.549	14.147	1625.725	1248.159
70.563	14.167	1624.371	1247.159
71.578	14.133	1623.530	1246.149
72.593	14.134	1622.163	1245.001
73.607	14.130	1620.873	1243.868
74.622	14.045	1620.354	1242.721
75.636	14.043	1619.377	1241.848
76.651	14.009	1618.508	1240.817
77.666	14.065	1617.393	1240.276
78.680	14.021	1616.490	1239.146
79.695	13.961	1615.718	1237.995
80.709	14.139	1614.195	1238.044
81.724	14.195	1613.714	1237.978
82.739	14.116	1613.295	1236.962
83.753	14.218	1612.151	1236.736
84.768	14.264	1611.199	1236.233
85.782	14.429	1610.643	1236.922
86.797	14.481	1609.134	1236.040
87.812	14.504	1608.790	1235.837
88.826	14.354	1607.183	1233.387
89.841	14.333	1606.234	1232.392
90.855	14.325	1605.344	1231.544
91.870	14.373	1604.389	1231.050
92.884	14.453	1602.895	1230.389
93.899	14.393	1602.187	1229.292
94.914	14.525	1600.974	1229.227
95.928	14.500	1599.923	1228.126
96.943	14.511	1598.515	1227.016
97.957	14.379	1597.222	1224.950
98.972	14.453	1595.450	1224.020
99.987	14.426	1594.096	1222.676
101.001	14.447	1592.537	1221.527
102.016	14.419	1591.049	1220.074
103.030	14.340	1589.468	1218.174
104.045	14.426	1588.477	1217.939
105.060	14.402	1587.227	1216.696
106.074	14.411	1585.838	1215.587
107.089	14.280	1584.019	1213.134
108.103	14.282	1582.511	1211.886
109.118	14.169	1580.993	1209.795
110.133	14.169	1579.464	1208.517
111.147	14.170	1578.239	1207.479
112.162	14.070	1577.302	1205.931
113.176	14.151	1576.216	1205.578
114.191	14.215	1574.210	1204.406
115.206	14.245	1572.950	1203.549
116.220	14.306	1571.389	1202.692
117.235	14.199	1570.803	1201.360
118.249	14.332	1568.614	1200.538
119.264	14.255	1567.405	1198.956
120.279	14.253	1566.289	1197.978
121.293	14.199	1564.751	1196.310
122.308	14.251	1563.405	1195.550
123.322	14.251	1561.437	1193.939
124.337	14.128	1560.504	1192.240
125.352	14.125	1559.110	1191.041
126.366	14.110	1558.012	1189.996
127.381	14.113	1556.760	1188.953
128.395	14.072	1556.059	1188.019
129.410	14.185	1554.402	1187.458
130.424	14.163	1552.785	1185.960
131.439	14.175	1551.348	1184.838
132.454	14.247	1550.306	1184.451
133.468	14.246	1549.029	1183.363
134.483	14.245	1547.503	1182.086
135.497	14.310	1546.516	1181.692
136.512	14.307	1545.028	1180.430
137.527	14.410	1543.320	1179.752
138.541	14.345	1542.692	1178.704
139.556	14.318	1541.636	1177.600
140.570	14.421	1539.600	1176.667
141.585	14.441	1538.345	1175.750
142.600	14.486	1537.199	1175.087
143.614	14.520	1536.040	1174.333
144.629	14.565	1534.637	1173.477
145.643	14.670	1533.288	1173.073
146.658	14.571	1531.829	1171.159
147.673	14.556	1530.720	1170.105
148.687	14.512	1528.995	1168.373
149.702	14.449	1528.039	1167.096
150.716	14.441	1526.019	1165.398
151.731	14.429	1524.788	1164.270
152.746	14.409	1523.378	1162.950
153.760	14.438	1521.792	1161.843
154.775	14.402	1520.728	1160.675
155.789	14.481	1519.578	1160.241
156.804	14.518	1518.253	1159.385
157.819	14.629	1517.300	1159.329
158.833	14.598	1515.766	1157.838
159.848	14.648	1514.593	1157.188
160.862	14.752	1513.662	1157.089
161.877	14.705	1512.488	1155.768
162.892	14.606	1511.294	1154.069
163.906	14.550	1509.479	1152.192
164.921	14.505	1508.175	1150.785
165.935	14.528	1507.478	1150.309
166.950	14.519	1506.482	1149.388
167.964	14.473	1505.508	1148.225
168.979	14.583	1504.194	1147.881
169.994	14.628	1503.100	1147.249
171.008	14.526	1502.304	1145.841
172.023	14.526	1501.467	1145.101
173.037	14.680	1499.929	1144.883
174.052	14.683	1498.959	1144.065
175.067	14.766	1497.956	1143.762
176.081	14.701	1496.499	1142.107
177.096	14.667	1495.046	1140.662
178.110	14.680	1493.521	1139.488
179.125	14.596	1492.966	1138.391
180.140	14.650	1491.599	1137.617
181.154	14.632	1490.847	1136.819
182.169	14.710	1489.348	1136.103
183.183	14.777	1488.512	1135.822
184.198	14.736	1487.645	1134.778
185.213	14.823	1486.389	1134.316
186.227	14.976	1484.612	1133.892
187.242	14.951	1484.319	1133.401
188.256	14.909	1483.321	1132.254
189.271	14.910	1482.390	1131.449
190.286	14.995	1481.038	1130.893
191.300	14.914	1480.159	1129.576
192.315	14.787	1478.463	1127.324
193.329	14.646	1477.085	1125.225
194.344	14.617	1476.008	1124.109
195.359	14.670	1475.149	1123.708
196.373	14.751	1474.599	1123.735
197.388	14.815	1473.706	1123.387
198.402	14.899	1472.358	1122.822
199.417	15.007	1471.602	1122.872
200.432	14.956	1470.914	1121.908
201.446	15.115	1469.766	1121.998
202.461	15.132	1468.287	1120.884
203.475	15.155	1467.878	1120.625
204.490	15.312	1466.411	1120.454
205.504	15.196	1465.406	1118.811
206.519	15.130	1464.072	1117.256
207.534	15.001	1463.468	1115.839
208.548	15.061	1461.541	1114.667
209.563	15.032	1460.934	1113.912
210.577	15.079	1459.596	1113.106
211.592	15.127	1459.184	1113.014
212.607	15.133	1458.244	1112.238
213.621	15.163	1457.879	1112.062
214.636	15.298	1456.895	1112.104
215.650	15.295	1455.754	1111.114
216.665	15.173	1454.979	1109.619
217.680	15.234	1454.362	1109.454
218.694	15.253	1453.754	1109.017
219.709	15.337	1452.638	1108.622
220.723	15.283	1451.751	1107.495
221.738	15.358	1450.666	1107.064
222.753	15.325	1449.759	1106.051
223.767	15.266	1448.803	1104.839
224.782	15.268	1447.905	1104.070
225.796	15.346	1446.709	1103.572
226.811	15.539	1445.751	1104.010
227.826	15.557	1444.904	1103.388
228.840	15.496	1444.205	1102.356
229.855	15.313	1443.750	1100.706
230.869	15.400	1442.170	1099.973
231.884	15.409	1441.139	1099.153
232.899	15.354	1440.265	1098.028
233.913	15.344	1439.017	1096.916
234.928	15.279	1437.719	1095.405
235.942	15.408	1436.276	1095.051
236.957	15.340	1435.407	1093.844
237.972	15.327	1433.885	1092.507
238.986	15.329	1432.924	1091.690
240.001	15.352	1432.241	1091.221
241.015	15.396	1430.988	1090.454
242.030	15.339	1429.863	1089.134
243.045	15.358	1429.308	1088.736
244.059	15.473	1428.492	1088.762
245.074	15.439	1427.214	1087.476
246.088	15.450	1427.147	1087.396
247.103	15.530	1426.068	1086.995
248.117	15.601	1424.844	1086.424
249.132	15.660	1424.324	1086.316
250.147	15.714	1423.467	1085.914
251.161	15.809	1423.530	1086.480
252.176	15.905	1422.573	1086.275
253.190	15.987	1421.517	1085.895
254.205	15.974	1420.436	1084.892
255.220	15.995	1419.986	1084.591
256.234	15.956	1418.764	1083.305
257.249	15.984	1418.152	1082.924
258.263	16.011	1417.579	1082.564
259.278	16.029	1416.203	1081.534
260.293	16.006	1415.387	1080.667
261.307	16.101	1414.589	1080.573
262.322	16.030	1414.384	1079.866
263.336	16.094	1413.114	1079.210
264.351	16.076	1412.196	1078.295
265.366	16.124	1411.055	1077.636
266.380	16.203	1410.244	1077.430
267.395	16.229	1409.683	1077.070
268.409	16.179	1409.043	1076.166
269.424	16.236	1407.180	1075.009
270.439	16.184	1406.521	1074.080
271.453	16.231	1405.327	1073.372
272.468	16.147	1404.462	1072.083
273.482	16.185	1403.748	1071.688
274.497	16.104	1402.936	1070.457
275.512	16.108	1401.933	1069.624
276.526	16.143	1401.547	1069.455
277.541	16.201	1400.074	1068.605
278.555	16.233	1399.084	1067.957
279.570	16.191	1398.305	1066.999
280.585	16.245	1397.592	1066.706
281.599	16.335	1396.707	1066.503
282.614	16.396	1395.474	1065.850
283.628	16.253	1395.004	1064.494
284.643	16.260	1393.885	1063.594
285.657	16.241	1392.816	1062.561
286.672	16.280	1391.728	1061.886
287.687	16.238	1390.835	1060.846
288.701	16.348	1389.630	1060.522
289.716	16.306	1389.093	1059.756
290.730	16.369	1388.175	1059.356
291.745	16.435	1386.748	1058.589
292.760	16.405	1385.877	1057.643
293.774	16.390	1385.215	1056.948
294.789	16.429	1384.217	1056.339
295.803	16.503	1383.489	1056.151
296.818	16.461	1382.832	1055.296
297.833	16.440	1381.658	1054.172
298.847	16.453	1380.563	1053.327
299.862	16.580	1378.913	1052.763
300.876	16.417	1378.758	1051.540
301.891	16.495	1377.584	1051.031
302.906	16.534	1377.014	1050.748
303.920	16.562	1376.520	1050.451
304.935	16.644	1375.429	1050.037
305.949	16.747	1374.503	1049.874
306.964	16.778	1374.155	1049.710
307.979	16.774	1372.719	1048.494
308.993	16.651	1372.718	1047.636
310.008	16.635	1371.401	1046.441
311.022	16.755	1370.545	1046.438
312.037	16.826	1369.190	1045.751
313.052	16.839	1368.476	1045.188
314.066	16.829	1367.606	1044.370
315.081	16.724	1366.286	1042.625
316.095	16.647	1365.312	1041.318
317.110	16.673	1363.941	1040.341
318.125	16.587	1363.388	1039.295
319.139	16.688	1362.397	1039.069
320.154	16.629	1361.511	1037.941
321.168	16.636	1360.889	1037.413
322.183	16.714	1359.053	1036.400
323.197	16.735	1358.048	1035.670
324.212	16.707	1357.785	1035.210
325.227	16.783	1356.780	1034.816
326.241	16.781	1355.918	1034.054
327.256	16.758	1355.066	1033.174
328.270	16.761	1354.066	1032.338
329.285	16.814	1353.501	1032.136
330.300	16.746	1352.358	1030.760
331.314	16.762	1351.757	1030.309
332.329	16.829	1350.548	1029.703
333.343	16.744	1349.909	1028.611
334.358	16.815	1348.860	1028.149
335.373	16.752	1348.521	1027.419
336.387	16.811	1347.693	1027.056
337.402	16.955	1346.566	1026.973
338.416	16.885	1346.136	1026.134
339.431	17.044	1345.182	1026.279
340.446	17.054	1345.287	1026.327
341.460	17.072	1344.089	1025.432
342.475	17.100	1342.875	1024.583
343.489	17.305	1341.944	1025.017
344.504	17.104	1341.179	1023.130
345.519	17.223	1340.181	1022.997
346.533	17.341	1339.076	1022.770
347.548	17.346	1337.855	1021.782
348.562	17.272	1337.467	1020.946
349.577	17.390	1336.461	1020.800
350.592	17.272	1335.924	1019.591
351.606	17.224	1335.218	1018.674
352.621	17.182	1333.736	1017.199
353.635	17.064	1333.095	1015.913
354.650	17.157	1331.963	1015.522
355.665	17.126	1331.010	1014.517
356.679	17.144	1329.711	1013.545
357.694	17.169	1328.794	1012.905
358.708	17.293	1327.682	1012.707
359.723	17.287	1326.818	1011.925
360.738	17.263	1325.490	1010.674
361.752	17.330	1324.582	1010.295
362.767	17.411	1323.548	1009.895
363.781	17.397	1322.676	1009.057
364.796	17.363	1322.279	1008.462
365.810	17.402	1321.689	1008.159
366.825	17.439	1320.558	1007.427
367.840	17.522	1320.330	1007.650
368.854	17.565	1319.259	1007.001
369.869	17.625	1318.897	1006.986
370.883	17.752	1318.103	1007.046
371.898	17.630	1317.229	1005.570
372.913	17.660	1316.083	1004.777
373.927	17.445	1315.701	1003.131
374.942	17.568	1314.592	1002.922
375.956	17.598	1314.007	1002.565
376.971	17.718	1313.359	1002.684
377.986	17.522	1312.441	1000.746
379.000	17.666	1311.326	1000.650
380.015	17.642	1310.416	999.728
381.029	17.745	1309.965	999.897
382.044	17.807	1309.070	999.493
383.059	17.851	1308.440	999.179
384.073	17.815	1307.860	998.434
385.088	17.859	1307.287	998.166
386.102	17.812	1307.161	997.711
387.117	17.946	1305.754	997.330
388.132	17.770	1305.508	996.023
389.146	17.727	1304.110	994.621
390.161	17.826	1302.913	994.193
391.175	17.756	1302.199	993.156
392.190	17.796	1301.534	992.792
393.205	17.808	1301.060	992.415
394.219	17.924	1299.582	991.874
395.234	17.922	1298.785	991.167
396.248	17.932	1297.261	989.973
397.263	17.919	1296.065	988.895
398.278	17.871	1294.951	987.684
399.292	17.796	1293.470	986.031
400.307	17.874	1292.495	985.650
401.321	17.828	1291.425	984.485
402.336	17.819	1290.602	983.714
403.350	17.756	1289.878	982.712
404.365	17.831	1288.537	982.036
405.380	17.871	1287.503	981.391
406.394	17.732	1287.397	980.426
407.409	17.955	1286.405	980.864
408.423	17.885	1285.809	979.919
409.438	18.045	1285.312	980.372
410.453	18.124	1284.279	979.950
411.467	18.146	1283.517	979.411
412.482	18.230	1283.079	979.470
413.496	18.126	1282.807	978.583
414.511	18.238	1281.889	978.431
415.526	18.285	1280.785	977.771
416.540	18.251	1280.385	977.188
417.555	18.293	1280.050	977.084
418.569	18.258	1279.280	976.212
419.584	18.310	1278.903	976.134
420.599	18.311	1278.045	975.397
421.613	137.677	1430.862	1790.718
422.628	132.536	1453.150	1790.825
