DTS Sentinel unit serial number:	SN413079Multiplexer serial number:	ORYXHardware model number:	OX4-SRSoftware version number:	ORYX F/W v4.00 Oryx Data Collector v3.7.2.0data status	okinstallation	princeton_trtdifferential loss correction	single-endedforward channel	channel 4reverse channel	N/Adate	2019/09/13time	06:41:34forward acquisition time	60.00reverse acquisition time	0.00gamma	496.2192k internal	0.2323k external	0.2323temperature offset calibration	1.0198default loss term (dB/km)	0.3790temperature slope calibration	1.0000multiplexer offset coefficient	1.0000multiplexer slope coefficient	1.0000fibre end	0.00T internal ref (°C)	26.00T ext. ref 1 (°C)	4.10T ext. ref 2 (°C)	20.67length (m)	temperature (°C)	Stokes	anti-Stokes-747.200	441.589	0.097	-0.215
-746.185	62.852	0.157	0.159
-745.171	-200.000	0.014	0.265
-744.156	-200.000	0.024	0.141
-743.142	-166.627	-0.193	-0.008
-742.127	-51.297	-0.219	0.103
-741.112	-42.621	-0.142	-0.073
-740.098	366.996	-0.172	0.351
-739.083	88.694	0.027	0.031
-738.069	147.139	-0.276	0.375
-737.054	219.566	0.125	-0.203
-736.039	-200.000	-0.038	0.227
-735.025	-200.000	-0.095	0.427
-734.010	800.000	-0.081	-0.274
-732.996	281.680	-0.094	-0.170
-731.981	273.270	0.072	-0.128
-730.966	263.396	-0.132	0.232
-729.952	182.779	0.047	0.070
-728.937	388.877	-0.088	-0.184
-727.923	-158.367	-0.291	0.017
-726.908	82.492	-0.221	-0.242
-725.894	-61.682	-0.186	-0.079
-724.879	73.486	-0.232	-0.245
-723.864	253.378	-0.054	-0.092
-722.850	-56.785	-0.216	-0.096
-721.835	-91.104	0.264	-0.076
-720.821	-89.166	0.238	-0.071
-719.806	16.759	-0.024	0.019
-718.791	67.307	-0.048	-0.049
-717.777	-197.831	-0.050	-0.000
-716.762	464.448	0.100	0.226
-715.748	39.190	0.173	-0.156
-714.733	-9.291	0.320	-0.216
-713.718	16.538	-0.434	-0.346
-712.704	-200.000	-0.044	-0.392
-711.689	568.606	0.081	0.198
-710.675	-66.767	-0.220	-0.088
-709.660	22.539	-0.141	0.116
-708.645	7.668	-0.203	0.153
-707.631	800.000	0.022	-0.071
-706.616	-200.000	-0.021	0.163
-705.602	92.673	0.050	0.056
-704.587	-38.457	0.339	0.181
-703.572	279.872	-0.086	-0.156
-702.558	42.439	-0.206	0.189
-701.543	-30.696	0.187	0.107
-700.529	54.129	0.153	-0.148
-699.514	-123.424	0.109	-0.017
-698.499	-81.633	-0.081	0.027
-697.485	-200.000	0.006	0.042
-696.470	197.378	-0.104	-0.159
-695.456	-80.042	-0.135	-0.046
-694.441	-78.977	-0.137	-0.047
-693.426	-200.000	-0.002	0.078
-692.412	475.229	0.093	-0.211
-691.397	203.671	-0.073	0.114
-690.383	70.178	-0.206	0.214
-689.368	-135.456	-0.401	0.048
-688.354	-35.316	-0.306	-0.167
-687.339	65.060	0.117	0.119
-686.324	-56.226	-0.170	-0.076
-685.310	-173.534	0.132	0.004
-684.295	6.696	-0.189	0.141
-683.281	3.680	-0.217	0.160
-682.266	-200.000	0.018	-0.170
-681.251	-99.038	0.372	-0.095
-680.237	-22.535	0.122	-0.074
-679.222	124.513	0.086	-0.108
-678.208	113.599	0.048	-0.059
-677.193	207.771	0.115	-0.180
-676.178	52.212	-0.222	0.213
-675.164	-71.351	0.224	-0.084
-674.149	-120.115	0.208	0.036
-673.135	688.268	0.169	0.446
-672.120	-95.308	0.145	0.039
-671.105	79.673	0.086	-0.093
-670.091	-97.028	-0.230	0.061
-669.076	-26.170	-0.153	0.090
-668.062	-0.973	0.210	0.150
-667.047	635.633	-0.017	-0.044
-666.032	-200.000	-0.008	-0.253
-665.018	116.289	-0.198	-0.244
-664.003	-141.515	-0.429	0.044
-662.989	800.000	0.043	-0.162
-661.974	-63.727	-0.137	0.057
-660.959	-133.439	-0.034	0.004
-659.945	148.864	-0.146	-0.199
-658.930	115.672	-0.133	-0.164
-657.916	385.234	0.146	-0.302
-656.901	800.000	-0.044	-0.167
-655.886	-200.000	0.004	-0.159
-654.872	-59.286	0.334	-0.145
-653.857	47.994	-0.101	0.095
-652.843	-200.000	-0.002	-0.060
-651.828	12.579	-0.165	-0.128
-650.814	-35.228	-0.272	-0.149
-649.799	-58.214	-0.192	0.084
-648.784	65.175	-0.237	-0.241
-647.770	165.196	-0.142	-0.202
-646.755	259.547	0.298	0.517
-645.741	-24.737	-0.270	-0.162
-644.726	-65.270	-0.246	0.100
-643.711	131.054	0.054	0.069
-642.697	232.438	-0.099	-0.163
-641.682	376.942	-0.066	-0.136
-640.668	-200.000	0.029	-0.235
-639.653	-200.000	-0.054	-0.301
-638.638	-200.000	0.004	-0.090
-637.624	23.321	-0.117	0.096
-636.609	-200.000	-0.005	0.078
-635.595	-27.834	-0.136	-0.079
-634.580	-46.937	-0.204	-0.100
-633.565	5.808	0.069	0.051
-632.551	57.400	0.186	0.183
-631.536	-91.684	-0.412	-0.118
-630.522	209.958	0.229	0.361
-629.507	341.207	-0.086	-0.168
-628.492	-54.767	-0.393	0.179
-627.478	640.919	0.055	-0.141
-626.463	50.593	-0.058	0.055
-625.449	69.940	0.027	-0.028
-624.434	-166.608	0.337	-0.014
-623.419	81.064	-0.032	-0.035
-622.405	103.819	0.093	0.110
-621.390	186.286	-0.146	-0.219
-620.376	-200.000	0.033	-0.171
-619.361	-85.203	0.132	0.042
-618.346	74.973	-0.086	-0.091
-617.332	-200.000	0.007	-0.365
-616.317	-17.545	-0.068	-0.043
-615.303	-200.000	0.001	0.239
-614.288	-200.000	-0.073	-0.413
-613.273	-69.463	0.267	-0.103
-612.259	-187.714	0.213	0.003
-611.244	-75.145	-0.160	0.057
-610.230	-113.511	-0.236	-0.046
-609.215	20.027	0.081	-0.066
-608.201	481.214	-0.162	0.368
-607.186	-200.000	0.128	-0.604
-606.171	-48.465	0.139	0.067
-605.157	-100.130	-0.146	-0.037
-604.142	-200.000	-0.054	-0.284
-603.128	-34.914	-0.091	-0.050
-602.113	-86.137	0.334	-0.103
-601.098	797.069	0.078	-0.215
-600.084	800.000	-0.060	0.178
-599.069	227.188	-0.125	-0.204
-598.055	436.960	0.176	-0.385
-597.040	1.869	-0.180	-0.131
-596.025	200.496	-0.120	0.186
-595.011	-113.941	-0.230	0.045
-593.996	213.841	0.126	-0.200
-592.982	-93.135	-0.195	-0.054
-591.967	-77.825	0.251	0.087
-590.952	117.731	0.088	-0.109
-589.938	-200.000	0.044	0.193
-588.923	800.000	-0.035	0.151
-587.909	-86.539	0.058	0.018
-586.894	-118.968	-0.331	0.058
-585.879	-74.906	0.106	0.038
-584.865	88.718	0.184	0.205
-583.850	-131.288	0.497	0.066
-582.836	-0.105	-0.328	0.234
-581.821	-154.311	0.206	0.014
-580.806	-30.300	0.151	0.086
-579.792	-73.232	0.192	0.070
-578.777	-200.000	-0.004	-0.027
-577.763	-72.425	0.093	0.035
-576.748	-170.609	-0.232	-0.008
-575.733	-156.723	0.074	0.005
-574.719	22.572	-0.255	-0.210
-573.704	50.537	-0.122	-0.115
-572.690	-200.000	-0.036	0.168
-571.675	-58.175	0.298	0.130
-570.661	187.590	0.217	-0.325
-569.646	800.000	0.039	-0.130
-568.631	-80.045	-0.377	-0.127
-567.617	-113.677	0.142	-0.028
-566.602	43.523	-0.149	0.137
-565.588	9.468	0.153	-0.116
-564.573	-93.995	-0.268	0.074
-563.558	115.082	-0.118	0.144
-562.544	-200.000	-0.044	-0.232
-561.529	69.194	-0.296	-0.306
-560.515	744.704	-0.030	0.081
-559.500	-58.272	0.093	0.041
-558.485	-200.000	0.002	0.213
-557.471	-119.967	0.131	0.023
-556.456	-104.149	-0.151	-0.035
-555.442	144.659	-0.192	-0.257
-554.427	778.637	-0.023	0.063
-553.412	150.566	0.133	-0.180
-552.398	-200.000	-0.004	-0.054
-551.383	235.670	0.025	-0.042
-550.369	-100.601	0.308	-0.076
-549.354	185.781	-0.181	0.269
-548.339	-200.000	0.026	-0.124
-547.325	-200.000	-0.009	-0.393
-546.310	-200.000	0.040	-0.234
-545.296	52.961	0.114	0.110
-544.281	14.032	-0.293	0.228
-543.266	-71.013	-0.170	-0.064
-542.252	320.935	0.056	0.106
-541.237	-44.913	0.081	0.041
-540.223	-200.000	0.017	-0.409
-539.208	-48.180	-0.226	0.109
-538.193	121.231	-0.208	0.260
-537.179	67.817	0.204	0.209
-536.164	-200.000	0.043	-0.398
-535.150	-200.000	0.030	-0.167
-534.135	-119.922	-0.163	-0.028
-533.121	-79.395	-0.367	-0.125
-532.106	-200.000	-0.017	0.150
-531.091	449.055	-0.104	0.229
-530.077	-200.000	-0.006	0.103
-529.062	197.258	0.102	0.155
-528.048	-6.766	-0.268	0.183
-527.033	522.966	0.159	-0.374
-526.018	-200.000	0.083	-0.412
-525.004	301.725	0.074	-0.137
-523.989	-200.000	-0.015	-0.215
-522.975	-127.729	-0.307	-0.044
-521.960	-200.000	0.265	0.001
-520.945	11.684	0.170	-0.131
-519.931	375.858	0.099	-0.203
-518.916	55.666	0.117	0.114
-517.902	60.275	-0.099	-0.098
-516.887	70.393	0.276	0.286
-515.872	-152.327	0.299	-0.022
-514.858	629.434	-0.116	-0.294
-513.843	-31.744	0.085	-0.048
-512.829	-200.000	-0.003	0.057
-511.814	-31.417	0.203	0.114
-510.799	407.613	0.137	-0.289
-509.785	358.030	0.059	-0.117
-508.770	-35.465	-0.080	0.043
-507.756	-139.573	0.406	0.043
-506.741	-200.000	0.012	0.079
-505.726	22.307	0.053	0.043
-504.712	-96.686	-0.474	0.125
-503.697	-19.391	0.094	0.058
-502.683	632.822	0.115	0.291
-501.668	800.000	-0.033	0.097
-500.653	-80.868	0.134	0.044
-499.639	-200.000	-0.062	-0.289
-498.624	25.536	-0.110	0.092
-497.610	266.259	-0.124	-0.217
-496.595	166.896	-0.142	-0.201
-495.581	-76.353	-0.551	0.194
-494.566	-69.607	-0.514	-0.197
-493.551	-110.864	-0.284	-0.058
-492.537	1.208	0.149	-0.107
-491.522	-54.228	-0.092	-0.042
-490.508	226.612	0.054	-0.087
-489.493	-200.000	-0.029	0.130
-488.478	-74.935	0.358	0.128
-487.464	-106.007	0.091	-0.021
-486.449	-136.849	-0.490	-0.056
-485.435	609.662	0.064	-0.160
-484.420	211.430	0.127	-0.200
-483.405	52.085	-0.217	-0.206
-482.391	-200.000	0.031	-0.146
-481.376	35.972	-0.067	0.059
-480.362	102.084	-0.154	-0.179
-479.347	-155.410	0.175	-0.011
-478.332	-200.000	-0.041	-0.196
-477.318	-189.885	0.296	-0.003
-476.303	800.000	0.018	0.073
-475.289	586.327	0.034	0.083
-474.274	-157.469	0.331	-0.020
-473.259	39.279	-0.469	0.420
-472.245	-84.690	-0.206	0.065
-471.230	-118.341	0.142	0.025
-470.216	606.095	0.054	0.134
-469.201	-108.564	-0.108	-0.023
-468.186	-47.262	-0.182	-0.089
-467.172	93.226	-0.091	-0.103
-466.157	794.141	0.096	-0.263
-465.143	713.534	-0.099	0.262
-464.128	-164.707	0.562	0.025
-463.113	686.215	-0.018	-0.046
-462.099	400.377	-0.136	0.285
-461.084	-200.000	-0.006	-0.060
-460.070	-64.712	0.373	0.151
-459.055	800.000	-0.046	0.127
-458.040	47.614	0.110	-0.102
-457.026	-91.976	0.177	0.050
-456.011	246.195	-0.107	0.179
-454.997	800.000	0.098	-0.372
-453.982	71.336	-0.160	0.166
-452.968	-6.877	0.170	0.115
-451.953	-112.017	-0.241	-0.048
-450.938	-54.183	-0.056	0.026
-449.924	-32.004	0.095	0.053
-448.909	-91.097	-0.106	0.030
-447.895	454.650	-0.178	0.395
-446.880	34.270	0.320	0.278
-445.865	100.526	0.060	0.069
-444.851	-200.000	-0.103	0.519
-443.836	-168.006	-0.270	-0.011
-442.822	-200.000	-0.020	0.383
-441.807	-24.043	0.346	0.206
-440.792	-200.000	-0.015	0.174
-439.778	-44.852	0.057	0.028
-438.763	-150.810	0.130	0.010
-437.749	-139.160	0.066	-0.007
-436.734	-105.034	-0.246	0.056
-435.719	81.996	-0.177	0.192
-434.705	86.592	0.106	0.116
-433.690	-200.000	-0.009	-0.195
-432.676	-0.267	0.046	0.033
-431.661	148.053	-0.149	-0.200
-430.646	175.995	-0.066	-0.096
-429.632	-167.904	-0.136	-0.005
-428.617	-149.317	0.103	0.008
-427.603	800.000	-0.096	-0.323
-426.588	21.540	-0.229	-0.186
-425.573	39.516	-0.186	0.166
-424.559	77.571	0.067	0.071
-423.544	-43.719	-0.358	0.180
-422.530	81.679	-0.046	-0.049
-421.515	-149.539	-0.165	-0.013
-420.500	-78.459	0.202	0.069
-419.486	-200.000	0.009	0.229
-418.471	800.000	0.046	-0.169
-417.457	-200.000	0.005	-0.064
-416.442	-1.356	-0.358	-0.252
-415.428	-44.280	0.411	0.205
-414.413	284.058	0.111	-0.199
-413.398	107.142	-0.265	-0.314
-412.384	800.000	-0.076	-0.298
-411.369	-34.261	0.195	0.107
-410.355	-114.857	-0.281	0.053
-409.340	207.614	0.086	-0.133
-408.325	57.815	-0.052	0.050
-407.311	-152.425	0.526	-0.038
-406.296	-200.000	-0.055	0.276
-405.282	800.000	0.107	0.300
-404.267	379.885	0.144	-0.294
-403.252	198.933	-0.204	0.312
-402.238	-200.000	-0.032	0.244
-401.223	-1.915	-0.253	-0.177
-400.209	-199.991	-0.223	0.001
-399.194	63.884	-0.108	-0.108
-398.179	-127.575	0.164	-0.024
-397.165	-200.000	-0.001	0.213
-396.150	72.956	0.313	0.325
-395.136	-200.000	-0.038	0.304
-394.121	-200.000	0.022	0.339
-393.106	314.070	-0.154	-0.288
-392.092	21.169	-0.024	-0.020
-391.077	-25.558	0.223	-0.131
-390.063	-30.888	-0.092	-0.052
-389.048	-160.523	-0.231	-0.012
-388.033	-200.000	-0.002	-0.047
-387.019	224.451	-0.055	-0.088
-386.004	-23.883	0.166	-0.099
-384.990	-48.002	-0.240	-0.116
-383.975	9.269	0.077	-0.058
-382.960	-56.226	0.210	-0.093
-381.946	-124.811	0.125	0.019
-380.931	-200.000	0.023	-0.132
-379.917	-200.000	-0.012	-0.138
-378.902	135.710	-0.271	-0.351
-377.888	-200.000	0.002	-0.294
-376.873	-200.000	-0.056	-0.447
-375.858	56.566	0.043	-0.042
-374.844	-165.909	-0.361	0.015
-373.829	-161.135	0.153	0.008
-372.815	-72.729	-0.250	0.092
-371.800	77.121	-0.310	-0.328
-370.785	-85.245	-0.445	-0.138
-369.771	249.119	-0.107	-0.180
-368.756	170.466	0.169	-0.240
-367.742	-35.534	-0.059	0.032
-366.727	540.693	0.039	0.092
-365.712	-200.000	-0.044	0.235
-364.698	-36.161	0.260	-0.140
-363.683	-200.000	0.036	0.176
-362.669	75.473	-0.181	-0.190
-361.654	-158.170	-0.136	0.008
-360.639	-101.756	-0.246	-0.059
-359.625	173.108	-0.074	0.107
-358.610	42.058	-0.050	-0.046
-357.596	-200.000	0.005	0.109
-356.581	-200.000	-0.005	0.251
-355.566	-139.641	-0.083	0.009
-354.552	-85.377	0.055	-0.017
-353.537	-89.972	0.547	0.159
-352.523	655.752	-0.059	0.150
-351.508	-64.543	-0.216	-0.087
-350.493	-200.000	-0.031	0.310
-349.479	104.059	0.167	0.195
-348.464	-6.241	0.209	-0.142
-347.450	-26.142	-0.104	-0.061
-346.435	-101.109	-0.194	0.047
-345.420	175.488	-0.175	-0.251
-344.406	800.000	0.018	0.057
-343.391	-200.000	-0.014	-0.111
-342.377	800.000	0.047	0.137
-341.362	-200.000	-0.015	0.172
-340.348	372.780	0.127	0.256
-339.333	-200.000	-0.000	0.306
-338.318	-174.486	0.042	-0.001
-337.304	559.808	-0.075	0.180
-336.289	758.734	-0.004	0.012
-335.275	-62.781	0.397	0.164
-334.260	-16.419	0.383	0.241
-333.245	-34.072	-0.271	0.148
-332.231	537.845	0.072	0.170
-331.216	24.519	0.191	-0.157
-330.202	-39.057	0.232	0.121
-329.187	91.916	0.064	0.071
-328.172	-24.101	0.238	-0.141
-327.158	7.506	-0.432	-0.321
-326.143	130.729	-0.210	-0.267
-325.129	-116.167	0.068	0.013
-324.114	604.563	-0.061	0.151
-323.099	46.164	-0.164	-0.151
-322.085	625.212	-0.131	-0.329
-321.070	-200.000	0.000	-0.129
-320.056	-110.215	-0.329	0.068
-319.041	-44.951	0.246	0.121
-318.026	-200.000	0.006	-0.141
-317.012	-200.000	-0.057	0.273
-315.997	133.056	0.250	0.321
-314.983	-52.343	-0.362	0.166
-313.968	66.909	0.121	-0.123
-312.953	-100.371	0.229	-0.056
-311.939	129.685	-0.101	0.129
-310.924	-200.000	0.054	0.296
-309.910	-64.663	0.272	-0.110
-308.895	-200.000	-0.018	0.128
-307.880	300.497	-0.166	-0.304
-306.866	-200.000	-0.063	-0.283
-305.851	28.758	-0.212	0.178
-304.837	64.291	0.066	-0.066
-303.822	-54.166	-0.171	-0.077
-302.807	13.757	-0.094	0.073
-301.793	287.800	-0.106	-0.190
-300.778	62.699	0.121	-0.120
-299.764	-52.381	0.213	0.098
-298.749	-34.900	0.175	-0.095
-297.735	151.013	-0.063	0.085
-296.720	-146.226	0.521	0.045
-295.705	-109.733	0.465	-0.097
-294.691	459.630	0.063	0.139
-293.676	103.829	0.324	0.378
-292.662	5.477	0.301	-0.220
-291.647	22.484	-0.402	-0.326
-290.632	135.560	0.045	0.058
-289.618	-146.141	0.085	0.007
-288.603	80.174	-0.080	0.086
-287.589	-71.921	-0.124	0.046
-286.574	285.666	-0.108	-0.194
-285.559	-200.000	0.142	-0.000
-284.545	35.204	-0.132	-0.115
-283.530	-60.742	-0.242	-0.102
-282.516	-10.918	0.118	-0.077
-281.501	-29.833	-0.374	-0.212
-280.486	-44.326	0.113	0.056
-279.472	800.000	-0.060	-0.208
-278.457	-83.301	0.174	-0.056
-277.443	75.496	-0.241	0.252
-276.428	476.686	-0.170	0.380
-275.413	159.756	-0.168	0.232
-274.399	-15.766	0.094	-0.059
-273.384	-152.523	0.186	0.013
-272.370	46.483	0.204	0.187
-271.355	-94.494	0.240	-0.065
-270.340	800.000	-0.039	0.150
-269.326	-94.135	0.278	0.075
-268.311	27.254	0.257	-0.214
-267.297	15.948	-0.302	-0.236
-266.282	141.944	-0.079	-0.104
-265.267	371.147	0.119	-0.240
-264.253	-153.622	-0.556	0.038
-263.238	217.217	0.029	0.047
-262.224	-163.262	0.323	0.015
-261.209	591.955	-0.071	-0.174
-260.195	328.513	-0.044	0.084
-259.180	-20.552	0.164	-0.100
-258.165	-4.766	0.397	0.271
-257.151	-66.403	0.136	-0.054
-256.136	-182.519	0.127	-0.002
-255.122	57.292	0.080	0.078
-254.107	-57.354	-0.265	-0.115
-253.092	-25.063	-0.273	-0.160
-252.078	-129.741	0.203	-0.028
-251.063	132.431	0.098	-0.125
-250.049	310.850	-0.044	-0.081
-249.034	800.000	0.101	0.325
-248.019	141.363	-0.077	0.101
-247.005	-18.851	0.072	0.044
-245.990	108.408	0.071	-0.084
-244.976	800.000	0.078	0.303
-243.961	800.000	0.133	0.367
-242.946	63.190	-0.058	-0.057
-241.932	-100.070	0.169	0.042
-240.917	-85.521	0.076	0.024
-239.903	198.907	-0.089	0.134
-238.888	-200.000	-0.049	-0.240
-237.873	-12.746	0.263	0.169
-236.859	-184.358	0.229	-0.004
-235.844	570.921	0.056	0.134
-234.830	143.521	0.101	0.133
-233.815	-25.753	-0.226	0.132
-232.800	55.570	0.185	-0.177
-231.786	-200.000	0.013	0.148
-230.771	14.890	-0.337	0.261
-229.757	-124.919	-0.307	-0.047
-228.742	177.125	-0.184	0.266
-227.727	162.235	0.132	0.183
-226.713	800.000	0.134	-0.425
-225.698	800.000	-0.077	-0.217
-224.684	-108.856	0.271	-0.057
-223.669	2.195	0.218	-0.156
-222.655	-130.239	0.146	0.020
-221.640	-200.000	0.001	0.270
-220.625	-200.000	-0.003	0.098
-219.611	101.924	0.076	-0.087
-218.596	41.281	-0.212	0.190
-217.582	-109.857	0.170	0.035
-216.567	-140.475	0.327	0.034
-215.552	-200.000	0.030	0.273
-214.538	-67.464	-0.349	0.135
-213.523	42.159	0.242	-0.217
-212.509	187.151	0.048	-0.071
-211.494	-24.770	-0.247	0.145
-210.479	-31.071	-0.218	-0.121
-209.465	-60.698	0.115	0.048
-208.450	99.255	0.046	0.052
-207.436	144.130	0.165	-0.218
-206.421	-73.626	-0.347	-0.125
-205.406	-28.969	0.377	0.214
-204.392	-125.187	0.185	0.028
-203.377	-200.000	0.003	-0.089
-202.363	76.738	0.422	0.442
-201.348	57.148	0.076	0.073
-200.333	-177.699	0.075	-0.002
-199.319	-80.643	-0.322	-0.106
-198.304	232.919	-0.092	0.150
-197.290	-200.000	-0.027	0.313
-196.275	16.704	0.060	0.047
-195.260	-200.000	-0.007	-0.061
-194.246	-111.988	0.103	-0.021
-193.231	-57.369	-0.106	0.046
-192.217	-200.000	-0.051	-0.331
-191.202	-146.508	0.407	-0.035
-190.187	258.849	-0.203	0.346
-189.173	26.848	0.186	-0.154
-188.158	-178.688	0.098	0.002
-187.144	21.823	0.145	-0.117
-186.129	-68.313	0.366	0.141
-185.114	64.399	0.039	-0.039
-184.100	315.435	-0.096	-0.180
-183.085	56.913	-0.110	0.105
-182.071	-130.520	0.202	-0.027
-181.056	61.079	-0.112	-0.110
-180.042	-200.000	0.002	0.265
-179.027	-99.070	0.192	0.048
-178.012	97.555	-0.073	0.082
-176.998	-200.000	-0.017	0.119
-175.983	21.576	-0.066	-0.053
-174.969	-200.000	0.019	-0.147
-173.954	-200.000	0.011	0.320
-172.939	-200.000	-0.041	0.242
-171.925	53.460	-0.062	-0.058
-170.910	-21.608	0.075	-0.045
-169.896	177.294	-0.193	0.278
-168.881	-103.448	0.168	0.039
-167.866	72.576	-0.065	-0.067
-166.852	-9.895	0.300	-0.197
-165.837	-74.496	-0.172	-0.061
-164.823	-100.308	0.074	0.018
-163.808	-0.548	0.467	0.327
-162.793	-200.000	-0.061	0.273
-161.779	1.600	-0.108	-0.077
-160.764	800.000	-0.042	0.162
-159.750	15.532	-0.179	-0.139
-158.735	-200.000	0.006	0.190
-157.720	-94.989	-0.277	0.074
-156.706	89.685	0.185	0.204
-155.691	-135.620	0.027	0.003
-154.677	590.536	0.016	-0.038
-153.662	115.115	0.099	-0.119
-152.647	800.000	0.077	-0.298
-151.633	-50.990	-0.189	-0.088
-150.618	-200.000	0.028	-0.163
-149.604	-200.000	-0.068	0.468
-148.589	800.000	0.069	0.249
-147.574	153.807	0.113	-0.152
-146.560	85.026	-0.146	-0.158
-145.545	-11.995	0.070	-0.045
-144.531	181.151	-0.045	-0.065
-143.516	-84.635	-0.037	-0.012
-142.502	-45.057	-0.065	-0.032
-141.487	-91.436	-0.234	0.066
-140.472	29.106	0.120	0.101
-139.458	-87.049	0.075	-0.022
-138.443	205.850	-0.116	0.178
-137.429	-200.000	0.001	-0.224
-136.414	800.000	-0.144	0.451
-135.399	-7.444	0.380	-0.253
-134.385	-178.105	-0.385	-0.009
-133.370	315.516	0.058	-0.107
-132.356	761.992	0.067	0.180
-131.341	-25.360	-0.044	0.026
-130.326	800.000	0.105	-0.313
-129.312	407.644	0.099	0.207
-128.297	168.405	-0.134	-0.188
-127.283	-146.697	-0.360	-0.031
-126.268	186.367	0.190	-0.279
-125.253	110.209	0.091	0.108
-124.239	412.054	0.062	0.129
-123.224	106.540	-0.087	0.102
-122.210	43.085	0.259	0.233
-121.195	-56.709	-0.159	0.069
-120.180	-0.110	0.158	0.111
-119.166	16.396	0.134	0.104
-118.151	282.879	-0.007	0.012
-117.137	-107.242	-0.301	0.065
-116.122	-99.982	-0.036	-0.009
-115.107	45.918	-0.079	0.072
-114.093	-100.124	0.115	-0.028
-113.078	-169.168	-0.227	-0.008
-112.064	452.338	0.027	0.058
-111.049	179.230	-0.152	0.218
-110.034	113.196	0.316	-0.377
-109.020	101.698	0.119	-0.137
-108.005	703.449	-0.091	0.238
-106.991	-69.719	0.339	0.128
-105.976	-57.818	-0.479	0.206
-104.962	-79.289	0.279	0.093
-103.947	9.701	-0.159	0.119
-102.932	20.714	0.226	0.180
-101.918	-200.000	0.001	0.198
-100.903	-200.000	-0.011	0.142
-99.889	-200.000	-0.032	-0.175
-98.874	-31.990	0.296	-0.163
-97.859	353.593	0.101	-0.198
-96.845	375.717	-0.148	0.298
-95.830	-67.571	0.294	0.114
-94.816	314.685	-0.172	0.319
-93.801	-14.529	0.142	-0.090
-92.786	800.000	0.026	-0.112
-91.772	-200.000	0.026	-0.161
-90.757	-98.243	-0.096	-0.024
-89.743	107.100	-0.119	0.139
-88.728	9.758	-0.116	0.087
-87.713	-127.885	-0.180	-0.025
-86.699	-125.799	0.204	0.030
-85.684	-37.790	0.283	-0.148
-84.670	-200.000	-0.054	-0.388
-83.655	25.029	-0.355	-0.290
-82.640	-200.000	0.008	-0.104
-81.626	-52.070	0.345	0.158
-80.611	91.175	0.110	-0.121
-79.597	-99.918	-0.222	0.055
-78.582	-0.371	0.126	-0.088
-77.567	53.320	0.177	0.167
-76.553	-91.327	0.256	-0.072
-75.538	22.157	-0.084	0.068
-74.524	-200.000	-0.007	-0.151
-73.509	110.798	-0.214	-0.254
-72.494	-200.000	-0.039	-0.232
-71.480	169.168	0.052	-0.073
-70.465	15.299	0.143	-0.110
-69.451	-200.000	0.000	0.104
-68.436	10.282	-0.153	0.114
-67.422	-156.545	-0.433	-0.026
-66.407	28.914	0.107	-0.089
-65.392	68.108	0.152	0.153
-64.378	-167.385	0.146	-0.006
-63.363	177.554	0.187	-0.268
-62.349	55.389	-0.195	0.186
-61.334	12.816	-1.137	-0.864
-60.319	474.186	0.257	0.570
-59.305	285.140	-0.705	-1.248
-58.290	179.911	0.818	1.178
-57.276	282.557	0.885	1.561
-56.261	-200.000	118.702	638.958
-55.246	468.001	1558.535	3436.266
-54.232	170.054	2733.481	3842.349
-53.217	94.718	2330.488	2604.541
-52.203	32.531	2071.736	1759.642
-51.188	27.826	1987.294	1645.554
-50.173	26.544	1969.813	1619.553
-49.159	43.155	2032.115	1822.489
-48.144	42.261	2046.778	1827.424
-47.130	28.186	2004.257	1662.614
-46.115	26.099	1993.676	1634.888
-45.100	26.019	1991.008	1631.906
-44.086	25.953	1988.739	1629.387
-43.071	25.873	1986.028	1626.375
-42.057	25.843	1984.245	1624.585
-41.042	25.904	1982.337	1623.509
-40.027	25.938	1980.153	1621.960
-39.013	25.860	1978.879	1620.148
-37.998	26.020	1976.439	1619.527
-36.984	25.963	1975.124	1617.874
-35.969	25.936	1972.804	1615.665
-34.954	25.884	1971.424	1614.005
-33.940	25.995	1969.692	1613.515
-32.925	25.958	1968.549	1612.189
-31.911	25.972	1967.048	1611.014
-30.896	26.005	1964.686	1609.318
-29.881	25.945	1963.599	1607.825
-28.867	26.060	1961.704	1607.235
-27.852	26.041	1960.277	1605.835
-26.838	26.047	1958.192	1604.109
-25.823	26.061	1956.540	1602.819
-24.809	26.017	1954.732	1600.881
-23.794	26.019	1952.789	1599.244
-22.779	26.086	1950.568	1597.957
-21.765	26.033	1949.324	1596.410
-20.750	26.082	1947.678	1595.432
-19.736	26.047	1946.436	1594.038
-18.721	26.039	1944.650	1592.441
-17.706	26.001	1943.256	1590.907
-16.692	25.967	1941.479	1589.088
-15.677	26.015	1939.769	1588.044
-14.663	26.058	1938.307	1587.161
-13.648	26.007	1937.477	1585.969
-12.633	26.006	1935.820	1584.549
-11.619	25.972	1934.920	1583.448
-10.604	26.037	1933.102	1582.464
-9.590	26.059	1931.886	1581.600
-8.575	26.052	1930.050	1579.970
-7.560	26.005	1929.533	1579.076
-6.546	26.007	1927.851	1577.658
-5.531	25.985	1926.831	1576.564
-4.517	26.081	1925.057	1575.885
-3.502	25.987	1924.527	1574.569
-2.487	26.026	1923.205	1573.765
-1.473	26.070	1922.131	1573.209
-0.458	26.099	1917.006	1569.206
0.556	27.913	1897.501	1540.639
1.571	23.582	1878.880	1489.119
2.586	19.599	1901.836	1473.278
3.600	18.540	1937.299	1491.412
4.615	18.353	1930.330	1484.298
5.629	14.507	1830.818	1375.976
6.644	7.646	1717.992	1237.779
7.659	4.272	1684.933	1188.044
8.673	4.004	1681.787	1183.671
9.688	4.049	1681.143	1183.459
10.702	4.170	1679.334	1183.001
11.717	4.177	1676.139	1180.698
12.731	4.591	1674.820	1182.814
13.746	9.433	1686.458	1227.950
14.761	17.381	1703.969	1301.646
15.775	21.941	1712.054	1342.677
16.790	22.495	1712.267	1346.966
17.804	21.801	1708.846	1338.860
18.819	20.744	1706.112	1328.536
19.834	20.249	1703.487	1322.598
20.848	20.016	1702.351	1319.823
21.863	20.084	1701.403	1319.492
22.877	19.935	1699.880	1317.057
23.892	19.717	1698.724	1314.387
24.907	19.625	1698.050	1313.054
25.921	19.666	1696.477	1312.033
26.936	19.539	1695.362	1310.087
27.950	19.553	1694.863	1309.694
28.965	19.682	1694.244	1310.077
29.980	19.785	1693.483	1310.153
30.994	19.862	1692.536	1309.885
32.009	19.999	1691.518	1310.024
33.023	20.053	1690.727	1309.700
34.038	20.158	1689.606	1309.510
35.053	19.976	1688.858	1307.439
36.067	19.908	1687.218	1305.539
37.082	19.788	1686.663	1304.094
38.096	19.771	1685.272	1302.770
39.111	19.885	1684.747	1303.109
40.126	19.987	1683.431	1302.740
41.140	19.961	1682.521	1301.731
42.155	19.683	1681.189	1298.492
43.169	19.369	1679.633	1294.821
44.184	19.309	1678.147	1293.109
45.199	19.225	1677.235	1291.666
46.213	19.314	1675.562	1290.931
47.228	19.345	1674.280	1290.055
48.242	19.502	1674.325	1291.149
49.257	19.632	1673.528	1291.396
50.271	19.724	1671.890	1290.708
51.286	19.688	1670.806	1289.487
52.301	19.678	1669.499	1288.283
53.315	19.710	1668.141	1287.364
54.330	19.601	1666.336	1285.047
55.344	19.535	1664.665	1283.150
56.359	19.424	1662.869	1280.828
57.374	19.294	1662.299	1279.315
58.388	19.368	1661.001	1278.753
59.403	19.262	1659.967	1277.053
60.417	19.144	1658.669	1275.069
61.432	19.194	1657.601	1274.505
62.447	19.196	1656.200	1273.334
63.461	19.116	1655.019	1271.723
64.476	19.042	1653.934	1270.224
65.490	18.891	1652.611	1267.985
66.505	19.032	1650.796	1267.517
67.520	18.963	1650.419	1266.608
68.534	19.043	1649.562	1266.428
69.549	19.138	1648.144	1265.928
70.563	19.120	1646.871	1264.702
71.578	18.869	1646.376	1262.367
72.593	18.944	1644.663	1261.496
73.607	18.837	1643.263	1259.521
74.622	18.778	1641.736	1257.812
75.636	18.793	1641.748	1257.821
76.651	18.841	1640.590	1257.173
77.666	18.906	1640.036	1257.106
78.680	18.999	1639.086	1256.950
79.695	19.030	1638.376	1256.518
80.709	19.079	1637.560	1256.140
81.724	19.153	1637.256	1256.338
82.739	19.299	1636.584	1256.772
83.753	19.364	1635.159	1256.039
84.768	19.491	1634.457	1256.315
85.782	19.728	1634.455	1257.925
86.797	19.937	1633.200	1258.374
87.812	19.951	1632.920	1258.144
88.826	19.898	1631.781	1256.771
89.841	19.739	1630.860	1254.800
90.855	19.790	1629.592	1254.083
91.870	19.838	1628.508	1253.480
92.884	19.920	1627.775	1253.403
93.899	20.003	1626.711	1253.069
94.914	20.027	1625.630	1252.304
95.928	19.994	1624.536	1251.109
96.943	20.076	1622.916	1250.344
97.957	20.039	1621.494	1248.872
98.972	19.921	1620.352	1247.028
99.987	19.896	1618.820	1245.559
101.001	19.864	1617.341	1244.083
102.016	19.781	1616.067	1242.394
103.030	19.836	1614.515	1241.487
104.045	19.939	1613.152	1241.067
105.060	19.884	1612.272	1239.891
106.074	19.834	1610.406	1237.988
107.089	19.562	1608.802	1234.697
108.103	19.224	1607.073	1230.851
109.118	19.081	1604.966	1228.106
110.133	19.052	1603.506	1226.673
111.147	19.047	1602.105	1225.459
112.162	19.117	1600.937	1224.955
113.176	19.124	1599.844	1224.061
114.191	19.287	1598.222	1223.870
115.206	19.231	1597.464	1222.781
116.220	19.318	1596.510	1222.556
117.235	19.220	1594.628	1220.317
118.249	19.210	1594.015	1219.667
119.264	19.197	1592.281	1218.141
120.279	19.075	1590.650	1215.921
121.293	19.033	1589.339	1214.519
122.308	19.025	1587.597	1213.025
123.322	18.886	1585.764	1210.536
124.337	18.808	1584.366	1208.814
125.352	18.755	1582.885	1207.205
126.366	18.750	1581.589	1206.069
127.381	18.774	1580.547	1205.339
128.395	18.812	1579.320	1204.563
129.410	18.722	1578.420	1203.143
130.424	18.801	1576.641	1202.232
131.439	18.831	1575.534	1201.486
132.454	18.946	1574.409	1201.329
133.468	19.139	1573.327	1201.745
134.483	19.175	1571.983	1200.861
135.497	19.251	1570.674	1200.286
136.512	19.199	1568.999	1198.537
137.527	19.180	1568.276	1197.745
138.541	19.251	1566.873	1197.064
139.556	19.397	1565.399	1196.843
140.570	19.395	1564.294	1195.877
141.585	19.485	1563.247	1195.596
142.600	19.532	1562.325	1195.109
143.614	19.601	1561.804	1195.082
144.629	19.834	1560.280	1195.421
145.643	19.883	1558.902	1194.599
146.658	19.900	1557.985	1193.907
147.673	19.832	1556.152	1191.931
148.687	19.538	1554.752	1188.728
149.702	19.470	1552.896	1186.735
150.716	19.431	1551.070	1184.972
151.731	19.306	1549.493	1182.803
152.746	19.253	1548.281	1181.404
153.760	19.369	1546.795	1180.966
154.775	19.426	1545.920	1180.581
155.789	19.501	1544.758	1180.100
156.804	19.509	1543.797	1179.322
157.819	19.593	1542.688	1178.939
158.833	19.643	1541.286	1178.108
159.848	19.775	1540.570	1178.351
160.862	19.863	1539.676	1178.166
161.877	19.992	1538.209	1177.816
162.892	19.800	1536.938	1175.431
163.906	19.430	1535.243	1171.523
164.921	19.243	1533.751	1169.007
165.935	19.247	1532.944	1168.320
166.950	19.335	1532.183	1168.234
167.964	19.334	1530.985	1167.208
168.979	19.504	1530.091	1167.573
169.994	19.505	1528.759	1166.458
171.008	19.405	1527.479	1164.702
172.023	19.418	1526.690	1164.088
173.037	19.468	1525.906	1163.727
174.052	19.716	1524.477	1164.200
175.067	19.860	1523.864	1164.601
176.081	19.566	1522.584	1161.539
177.096	19.361	1520.563	1158.521
178.110	19.326	1518.972	1156.967
179.125	19.235	1518.668	1156.024
180.140	19.283	1517.373	1155.258
181.154	19.294	1516.764	1154.770
182.169	19.567	1515.668	1155.655
183.183	19.709	1514.720	1155.784
184.198	19.843	1513.609	1155.729
185.213	19.929	1512.637	1155.457
186.227	19.896	1511.121	1153.977
187.242	19.876	1510.641	1153.377
188.256	19.926	1510.005	1153.119
189.271	20.032	1508.791	1152.796
190.286	20.122	1507.215	1152.088
191.300	19.925	1507.065	1150.562
192.315	19.617	1504.729	1146.634
193.329	19.306	1503.178	1143.287
194.344	19.268	1502.241	1142.225
195.359	19.309	1500.929	1141.394
196.373	19.448	1500.067	1141.559
197.388	19.627	1499.224	1141.996
198.402	19.618	1498.888	1141.582
199.417	19.769	1497.657	1141.544
200.432	20.014	1497.297	1142.783
201.446	20.154	1496.614	1143.081
202.461	20.328	1495.460	1143.249
203.475	20.454	1494.625	1143.338
204.490	20.435	1493.787	1142.470
205.504	20.191	1492.475	1139.763
206.519	19.986	1490.519	1136.825
207.534	19.922	1489.509	1135.528
208.548	19.939	1488.157	1134.511
209.563	19.857	1487.641	1133.480
210.577	19.957	1486.439	1133.119
211.592	19.927	1485.535	1132.134
212.607	19.814	1485.185	1131.026
213.621	20.115	1484.466	1132.349
214.636	20.207	1483.567	1132.162
215.650	20.214	1482.225	1131.081
216.665	20.134	1481.794	1130.134
217.680	20.113	1481.127	1129.384
218.694	20.299	1480.737	1130.201
219.709	20.402	1479.865	1130.106
220.723	20.449	1478.352	1129.155
221.738	20.398	1477.395	1127.990
222.753	20.335	1476.786	1127.022
223.767	20.272	1475.568	1125.583
224.782	20.272	1474.414	1124.603
225.796	20.250	1473.948	1124.006
226.811	20.524	1472.988	1124.945
227.826	20.617	1472.780	1125.290
228.840	20.376	1470.968	1122.250
229.855	20.201	1470.467	1120.633
230.869	20.152	1469.266	1119.304
231.884	20.191	1467.925	1118.437
232.899	20.115	1466.661	1116.883
233.913	20.073	1465.435	1115.580
234.928	19.941	1464.280	1113.758
235.942	19.909	1462.744	1112.285
236.957	19.830	1461.882	1111.020
237.972	19.776	1460.811	1109.761
238.986	19.877	1459.396	1109.234
240.001	19.982	1458.751	1109.320
241.015	19.919	1457.310	1107.726
242.030	19.914	1456.582	1107.037
243.045	19.987	1455.614	1106.675
244.059	20.145	1455.140	1107.225
245.074	20.218	1453.891	1106.639
246.088	20.241	1453.402	1106.321
247.103	20.244	1453.292	1106.152
248.117	20.302	1452.290	1105.667
249.132	20.437	1451.280	1105.656
250.147	20.600	1451.318	1106.623
251.161	20.849	1450.967	1107.843
252.176	21.166	1450.517	1109.415
253.190	21.112	1449.729	1108.372
254.205	21.251	1448.957	1108.565
255.220	21.290	1448.356	1108.254
256.234	21.309	1447.384	1107.533
257.249	21.372	1446.276	1106.990
258.263	21.186	1445.645	1105.229
259.278	21.210	1444.640	1104.513
260.293	21.189	1443.624	1103.510
261.307	21.193	1442.995	1102.952
262.322	21.295	1442.510	1103.133
263.336	21.394	1441.375	1102.792
264.351	21.403	1440.275	1101.910
265.366	21.458	1439.539	1101.595
266.380	21.369	1438.587	1100.206
267.395	21.435	1437.410	1099.627
268.409	21.402	1436.722	1098.792
269.424	21.254	1435.608	1096.916
270.439	21.134	1434.615	1095.307
271.453	21.199	1433.539	1094.797
272.468	21.148	1432.561	1093.630
273.482	21.064	1431.343	1092.081
274.497	20.927	1430.763	1090.686
275.512	20.924	1429.361	1089.501
276.526	21.024	1428.273	1089.198
277.541	21.010	1427.639	1088.528
278.555	20.871	1427.098	1087.153
279.570	20.948	1426.263	1086.900
280.585	21.119	1425.495	1087.289
281.599	21.313	1425.274	1088.231
282.614	21.432	1424.149	1088.012
283.628	21.285	1422.771	1085.951
284.643	21.159	1421.589	1084.173
285.657	21.067	1420.691	1082.823
286.672	21.072	1419.610	1081.933
287.687	21.114	1418.679	1081.385
288.701	21.032	1417.499	1079.881
289.716	21.149	1417.394	1080.429
290.730	21.189	1416.026	1079.542
291.745	21.098	1415.079	1078.163
292.760	21.183	1414.361	1078.047
293.774	21.245	1413.072	1077.348
294.789	21.251	1412.256	1076.666
295.803	21.384	1411.953	1077.163
296.818	21.476	1411.102	1076.981
297.833	21.291	1409.311	1074.381
298.847	21.106	1408.498	1072.530
299.862	21.136	1407.822	1072.109
300.876	21.212	1406.197	1071.237
301.891	21.261	1405.689	1071.058
302.906	21.227	1405.222	1070.397
303.920	21.384	1404.556	1070.757
304.935	21.623	1403.787	1071.541
305.949	21.682	1403.242	1071.390
306.964	21.785	1402.356	1071.251
307.979	21.911	1401.507	1071.273
308.993	21.749	1400.538	1069.453
310.008	21.566	1399.602	1067.526
311.022	21.578	1398.626	1066.760
312.037	21.765	1397.442	1066.903
313.052	21.743	1396.665	1066.077
314.066	21.638	1395.488	1064.447
315.081	21.515	1394.150	1062.588
316.095	21.284	1392.793	1060.057
317.110	21.060	1392.053	1058.042
318.125	21.144	1390.867	1057.558
319.139	21.177	1390.014	1057.012
320.154	21.203	1388.716	1056.091
321.168	21.215	1388.249	1055.712
322.183	21.202	1386.977	1054.578
323.197	21.232	1386.169	1054.047
324.212	21.395	1385.097	1054.122
325.227	21.312	1384.818	1053.317
326.241	21.393	1383.492	1052.702
327.256	21.380	1382.981	1052.142
328.270	21.323	1382.265	1051.161
329.285	21.293	1381.204	1050.084
330.300	21.286	1380.161	1049.157
331.314	21.341	1379.281	1048.722
332.329	21.429	1378.187	1048.325
333.343	21.242	1377.627	1046.685
334.358	21.410	1376.629	1046.839
335.373	21.517	1375.722	1046.700
336.387	21.591	1375.379	1046.787
337.402	21.628	1375.159	1046.750
338.416	21.588	1374.670	1046.042
339.431	21.706	1373.661	1045.889
340.446	21.870	1372.555	1045.931
341.460	21.906	1371.624	1045.348
342.475	22.024	1371.172	1045.608
343.489	22.207	1370.276	1045.924
344.504	22.154	1369.745	1045.108
345.519	22.259	1368.844	1044.957
346.533	22.174	1368.331	1043.967
347.548	22.389	1367.055	1044.176
348.562	22.336	1366.404	1043.271
349.577	22.436	1365.172	1042.830
350.592	22.264	1364.157	1040.948
351.606	21.975	1362.871	1038.160
352.621	21.795	1361.678	1036.097
353.635	21.676	1360.556	1034.453
354.650	21.729	1359.277	1033.698
355.665	21.615	1359.001	1032.724
356.679	21.774	1357.912	1032.744
357.694	21.821	1356.811	1032.090
358.708	21.759	1355.891	1030.937
359.723	21.927	1354.559	1030.818
360.738	21.983	1353.913	1030.567
361.752	21.986	1352.669	1029.546
362.767	22.066	1351.264	1028.852
363.781	21.999	1350.905	1028.096
364.796	21.940	1350.286	1027.189
365.810	22.187	1349.427	1027.890
366.825	22.229	1349.254	1027.912
367.840	22.350	1348.391	1027.871
368.854	22.546	1348.002	1028.627
369.869	22.611	1347.339	1028.408
370.883	22.624	1347.161	1028.260
371.898	22.631	1345.862	1027.213
372.913	22.398	1344.802	1024.960
373.927	22.259	1344.176	1023.581
374.942	22.346	1343.122	1023.193
375.956	22.523	1342.569	1023.714
376.971	22.522	1342.021	1023.197
377.986	22.517	1340.554	1021.957
379.000	22.486	1339.645	1020.997
380.015	22.509	1339.818	1021.171
381.029	22.842	1338.992	1022.379
382.044	22.845	1338.115	1021.637
383.059	22.813	1337.263	1020.714
384.073	22.787	1336.903	1020.195
385.088	22.738	1336.015	1019.148
386.102	22.763	1335.245	1018.611
387.117	22.755	1334.857	1018.181
388.132	22.723	1333.785	1017.087
389.146	22.379	1332.561	1014.080
390.161	22.359	1331.315	1012.932
391.175	22.352	1330.758	1012.377
392.190	22.349	1329.323	1011.179
393.205	22.404	1329.262	1011.357
394.219	22.546	1328.344	1011.385
395.234	22.716	1326.931	1011.192
396.248	22.629	1325.697	1009.666
397.263	22.453	1324.229	1007.453
398.278	22.494	1322.931	1006.607
399.292	22.369	1321.701	1004.871
400.307	22.247	1320.710	1003.335
401.321	22.231	1319.399	1002.154
402.336	22.225	1318.319	1001.213
403.350	22.087	1317.697	999.869
404.365	22.153	1316.840	999.504
405.380	22.122	1316.080	998.660
406.394	22.310	1315.368	999.102
407.409	22.421	1314.818	999.226
408.423	22.573	1313.871	999.278
409.438	22.674	1313.626	999.579
410.453	22.848	1312.808	999.853
411.467	22.855	1312.313	999.426
412.482	22.990	1311.746	999.667
413.496	23.059	1311.010	999.408
414.511	23.049	1310.312	998.734
415.526	23.199	1309.290	998.714
416.540	23.147	1309.170	998.237
417.555	23.373	1308.599	998.989
418.569	23.311	1308.119	998.186
419.584	23.170	1307.167	996.575
420.599	23.082	1306.327	995.351
421.613	147.753	1436.177	1797.114
422.628	143.191	1455.061	1797.213
