DTS Sentinel unit serial number:	SN413079Multiplexer serial number:	ORYXHardware model number:	OX4-SRSoftware version number:	ORYX F/W v4.00 Oryx Data Collector v3.7.2.0data status	okinstallation	princeton_trtdifferential loss correction	single-endedforward channel	channel 4reverse channel	N/Adate	2019/09/18time	01:53:35forward acquisition time	60.00reverse acquisition time	0.00gamma	496.2192k internal	0.2334k external	0.2334temperature offset calibration	0.9995default loss term (dB/km)	0.3790temperature slope calibration	1.0000multiplexer offset coefficient	1.0000multiplexer slope coefficient	1.0000fibre end	0.00T internal ref (°C)	22.95T ext. ref 1 (°C)	0.17T ext. ref 2 (°C)	16.66length (m)	temperature (°C)	Stokes	anti-Stokes-747.200	74.174	-0.298	0.314
-746.185	-65.484	-0.179	-0.072
-745.171	-38.379	-0.143	0.076
-744.156	-69.300	-0.218	0.084
-743.142	26.644	-0.139	-0.117
-742.127	120.938	-0.092	0.115
-741.112	6.174	-0.115	-0.086
-740.098	-93.286	-0.270	0.075
-739.083	279.445	0.109	-0.196
-738.069	549.175	-0.207	0.498
-737.054	-83.085	-0.286	0.093
-736.039	0.363	-0.455	-0.327
-735.025	-200.000	-0.058	0.289
-734.010	223.961	-0.127	-0.207
-732.996	-12.177	-0.065	0.043
-731.981	-200.000	-0.037	0.186
-730.966	107.558	0.088	-0.105
-729.952	-113.084	-0.093	0.018
-728.937	-29.555	-0.413	-0.237
-727.923	-159.284	-0.062	0.003
-726.908	587.920	0.120	-0.297
-725.894	31.000	-0.366	-0.315
-724.879	-59.233	0.121	0.052
-723.864	198.226	-0.104	0.160
-722.850	-147.289	0.253	-0.022
-721.835	-176.514	-0.226	-0.006
-720.821	800.000	0.054	-0.194
-719.806	-200.000	0.004	-0.133
-718.791	-9.868	-0.131	0.087
-717.777	-45.785	-0.112	-0.056
-716.762	9.994	-0.133	-0.102
-715.748	-200.000	-0.025	-0.186
-714.733	3.122	-0.077	0.056
-713.718	-63.528	0.075	-0.031
-712.704	800.000	-0.064	-0.281
-711.689	-164.419	0.173	-0.008
-710.675	127.989	0.145	-0.185
-709.660	800.000	-0.070	-0.266
-708.645	800.000	0.101	-0.298
-707.631	-142.092	-0.112	0.011
-706.616	-96.808	0.440	0.116
-705.602	800.000	-0.180	0.549
-704.587	-200.000	-0.025	0.232
-703.572	800.000	0.160	-0.670
-702.558	-200.000	0.001	0.293
-701.543	119.404	-0.087	0.108
-700.529	49.312	0.148	-0.140
-699.514	38.139	-0.084	-0.075
-698.499	794.359	-0.051	-0.140
-697.485	-200.000	0.008	-0.136
-696.470	-113.725	0.233	0.046
-695.456	-129.259	0.133	0.019
-694.441	3.517	-0.106	0.078
-693.426	402.471	0.081	-0.171
-692.412	75.270	-0.211	0.223
-691.397	25.247	-0.090	-0.075
-690.383	590.718	0.066	0.162
-689.368	699.029	0.077	-0.204
-688.354	-200.000	0.026	-0.334
-687.339	-61.777	0.122	0.051
-686.324	-107.518	0.266	-0.058
-685.310	-56.366	-0.136	0.060
-684.295	-200.000	0.003	-0.060
-683.281	-200.000	-0.051	0.344
-682.266	73.046	0.178	0.187
-681.251	-175.555	-0.313	-0.009
-680.237	213.143	-0.068	0.108
-679.222	133.012	0.194	-0.251
-678.208	-55.624	0.202	-0.091
-677.193	163.045	-0.168	-0.236
-676.178	-89.129	0.100	-0.030
-675.164	-200.000	0.024	-0.138
-674.149	180.043	0.091	-0.133
-673.135	-200.000	-0.052	0.273
-672.120	-200.000	0.024	-0.168
-671.105	-200.000	0.026	-0.124
-670.091	696.066	0.076	0.200
-669.076	257.856	0.171	0.295
-668.062	-28.589	-0.132	0.076
-667.047	20.217	-0.092	-0.074
-666.032	-8.746	0.434	-0.292
-665.018	-64.781	0.084	0.034
-664.003	111.425	0.145	-0.175
-662.989	-141.331	-0.320	-0.033
-661.974	-62.301	-0.106	-0.044
-660.959	6.795	-0.157	0.117
-659.945	-126.585	0.287	0.043
-658.930	68.769	0.034	-0.035
-657.916	15.008	0.234	0.184
-656.901	172.042	0.206	0.296
-655.886	-32.353	0.063	-0.035
-654.872	174.845	-0.092	-0.134
-653.857	30.309	0.190	-0.162
-652.843	214.364	-0.058	0.092
-651.828	-44.073	-0.280	-0.141
-650.814	49.843	0.071	0.067
-649.799	301.313	-0.072	-0.132
-648.784	65.307	-0.286	-0.290
-647.770	-84.312	-0.330	-0.104
-646.755	386.838	0.074	0.154
-645.741	84.084	0.123	0.134
-644.726	-200.000	0.017	-0.258
-643.711	-200.000	-0.026	0.346
-642.697	800.000	0.071	-0.198
-641.682	66.236	-0.146	0.148
-640.668	-70.880	-0.410	0.155
-639.653	11.507	0.145	0.111
-638.638	-84.806	0.187	0.059
-637.624	43.998	0.067	-0.061
-636.609	548.837	0.079	0.191
-635.595	-31.084	-0.157	0.089
-634.580	800.000	-0.065	0.201
-633.565	-112.663	0.203	0.040
-632.551	155.988	-0.119	0.165
-631.536	-68.321	0.564	-0.219
-630.522	2.343	0.325	-0.235
-629.507	-111.149	-0.366	-0.075
-628.492	-200.000	-0.020	0.197
-627.478	218.170	-0.117	-0.187
-626.463	-30.402	0.094	0.053
-625.449	800.000	0.074	0.225
-624.434	-57.312	0.028	0.013
-623.419	120.406	-0.039	-0.048
-622.405	60.998	-0.151	-0.150
-621.390	-119.240	-0.244	-0.043
-620.376	-45.916	0.082	0.040
-619.361	-200.000	-0.031	0.142
-618.346	-200.000	-0.123	-0.000
-617.332	-118.963	-0.072	-0.013
-616.317	-200.000	-0.001	0.084
-615.303	800.000	0.086	0.352
-614.288	800.000	0.030	-0.128
-613.273	-96.810	0.386	-0.101
-612.259	122.468	0.131	-0.164
-611.244	-86.570	0.172	-0.053
-610.230	-120.191	-0.024	0.004
-609.215	342.693	0.045	-0.089
-608.201	-68.543	-0.067	-0.026
-607.186	291.104	0.064	-0.117
-606.171	53.643	0.086	-0.083
-605.157	151.425	0.073	-0.100
-604.142	-200.000	0.134	0.000
-603.128	-200.000	-0.050	0.241
-602.113	796.043	-0.119	-0.327
-601.098	5.638	0.156	0.115
-600.084	26.976	0.267	0.224
-599.069	-200.000	-0.024	0.220
-598.055	0.149	-0.025	-0.018
-597.040	111.071	0.115	0.138
-596.025	402.308	0.018	-0.038
-595.011	-91.292	-0.134	0.038
-593.996	-21.173	0.122	-0.075
-592.982	54.172	-0.022	0.021
-591.967	-121.818	0.085	0.014
-590.952	800.000	-0.086	-0.239
-589.938	87.671	0.116	0.128
-588.923	-26.231	0.133	0.078
-587.909	-200.000	-0.009	-0.180
-586.894	188.431	0.022	0.033
-585.879	3.692	-0.160	-0.117
-584.865	57.937	0.123	0.121
-583.850	-10.611	-0.341	0.225
-582.836	800.000	-0.042	-0.142
-581.821	-89.317	-0.463	-0.136
-580.806	-200.000	-0.007	-0.052
-579.792	-95.371	0.297	-0.080
-578.777	-200.000	0.009	-0.280
-577.763	-2.804	-0.116	0.081
-576.748	-75.141	-0.129	-0.046
-575.733	377.131	0.109	-0.223
-574.719	-130.401	-0.226	-0.031
-573.704	-82.832	-0.107	-0.035
-572.690	2.170	0.341	-0.246
-571.675	-101.131	-0.159	0.039
-570.661	-129.404	-0.165	0.023
-569.646	-200.000	0.012	-0.155
-568.631	-20.230	0.136	0.084
-567.617	-105.605	0.173	-0.039
-566.602	-117.994	-0.111	-0.020
-565.588	-76.534	-0.117	0.041
-564.573	166.232	-0.101	0.143
-563.558	-200.000	-0.017	0.373
-562.544	-136.524	-0.334	0.039
-561.529	-24.157	0.161	0.096
-560.515	-200.000	-0.031	-0.396
-559.500	-37.436	-0.071	0.038
-558.485	800.000	-0.040	0.170
-557.471	647.083	-0.021	0.055
-556.456	47.838	-0.041	0.038
-555.442	800.000	-0.115	0.446
-554.427	82.875	0.038	0.041
-553.412	800.000	0.093	-0.260
-552.398	141.595	-0.160	0.212
-551.383	-39.173	0.202	-0.106
-550.369	704.588	0.110	-0.290
-549.354	184.055	0.051	0.075
-548.339	661.993	-0.122	-0.314
-547.325	260.899	-0.086	0.149
-546.310	-19.670	0.126	0.078
-545.296	-156.818	-0.074	0.005
-544.281	800.000	-0.043	0.167
-543.266	759.775	-0.067	0.182
-542.252	800.000	0.056	-0.240
-541.237	-200.000	0.009	-0.266
-540.223	448.079	0.026	0.058
-539.208	161.358	-0.248	0.346
-538.193	-30.434	-0.180	-0.102
-537.179	-56.860	-0.285	-0.126
-536.164	130.952	0.098	0.126
-535.150	378.228	0.149	0.304
-534.135	-58.511	0.345	0.149
-533.121	-85.993	0.245	-0.075
-532.106	786.520	0.096	-0.263
-531.091	608.344	-0.062	-0.155
-530.077	-12.686	-0.085	0.056
-529.062	-35.717	-0.220	-0.119
-528.048	-149.749	0.406	0.032
-527.033	125.537	-0.192	-0.241
-526.018	595.321	0.058	0.143
-525.004	-47.484	0.128	-0.062
-523.989	336.097	-0.143	0.276
-522.975	21.506	0.208	-0.169
-521.960	-37.488	-0.108	-0.057
-520.945	-200.000	-0.007	-0.167
-519.931	269.898	-0.283	-0.496
-518.916	-101.295	0.154	0.037
-517.902	124.809	-0.213	-0.267
-516.887	439.868	-0.158	-0.343
-515.872	800.000	0.071	0.247
-514.858	91.751	0.147	0.165
-513.843	-96.709	-0.108	0.028
-512.829	298.826	-0.007	0.014
-511.814	-138.028	-0.136	0.015
-510.799	-91.568	0.243	-0.069
-509.785	800.000	0.043	0.168
-508.770	-200.000	-0.017	-0.256
-507.756	-200.000	0.030	0.388
-506.741	-144.573	0.418	-0.038
-505.726	38.261	0.271	0.241
-504.712	-78.461	-0.068	-0.023
-503.697	-139.732	0.082	0.009
-502.683	-200.000	0.045	0.460
-501.668	-119.832	-0.256	-0.044
-500.653	-68.990	0.157	-0.060
-499.639	295.684	-0.153	0.280
-498.624	-70.106	0.179	-0.068
-497.610	-47.736	0.220	-0.106
-496.595	10.046	0.046	0.035
-495.581	-200.000	-0.001	-0.129
-494.566	72.519	0.013	0.014
-493.551	14.985	0.430	0.335
-492.537	570.485	-0.126	-0.306
-491.522	41.002	0.072	-0.065
-490.508	800.000	0.053	0.213
-489.493	666.502	0.151	0.388
-488.478	-140.305	-0.022	0.002
-487.464	421.274	-0.201	-0.429
-486.449	-17.881	0.169	0.105
-485.435	71.121	-0.142	0.147
-484.420	-193.941	0.295	-0.002
-483.405	-130.959	0.112	0.015
-482.391	800.000	0.029	-0.119
-481.376	-132.611	0.077	-0.010
-480.362	68.854	-0.018	0.018
-479.347	595.069	-0.170	-0.419
-478.332	119.714	0.183	-0.225
-477.318	26.266	0.059	-0.049
-476.303	-94.954	-0.105	-0.028
-475.289	-200.000	0.040	-0.380
-474.274	3.973	0.180	-0.131
-473.259	-20.648	-0.444	-0.271
-472.245	-200.000	0.020	0.119
-471.230	-30.425	0.083	0.047
-470.216	631.427	0.062	-0.157
-469.201	72.553	-0.266	-0.276
-468.186	274.528	-0.232	0.409
-467.172	353.638	0.087	0.172
-466.157	249.393	-0.034	-0.057
-465.143	-186.558	-0.182	0.003
-464.128	34.591	0.169	0.147
-463.113	30.713	0.054	-0.046
-462.099	-169.083	-0.234	0.009
-461.084	800.000	0.065	-0.189
-460.070	132.729	-0.058	-0.074
-459.055	-59.653	0.234	-0.100
-458.040	174.029	-0.072	0.104
-457.026	-158.872	-0.422	0.024
-456.011	145.608	0.099	-0.131
-454.997	-52.508	-0.251	0.115
-453.982	-7.612	0.181	0.122
-452.968	-200.000	-0.000	0.023
-451.953	-117.655	-0.176	-0.032
-450.938	184.592	0.143	0.210
-449.924	-120.996	-0.412	0.069
-448.909	601.034	-0.087	0.214
-447.895	76.148	-0.074	0.077
-446.880	-9.126	0.181	0.121
-445.865	800.000	-0.068	0.222
-444.851	-179.148	0.265	-0.006
-443.836	122.608	-0.237	0.294
-442.822	-173.335	0.287	0.009
-441.807	-159.844	-0.023	-0.001
-440.792	-200.000	-0.007	-0.285
-439.778	-11.501	0.156	0.102
-438.763	800.000	0.084	-0.281
-437.749	-147.126	-0.336	0.029
-436.734	-144.124	-0.017	-0.002
-435.719	-48.951	-0.201	-0.096
-434.705	-69.982	0.405	0.153
-433.690	-140.337	-0.242	-0.025
-432.676	-200.000	-0.008	0.068
-431.661	-98.017	-0.158	0.041
-430.646	203.986	0.174	-0.268
-429.632	9.414	0.078	-0.059
-428.617	-73.572	-0.217	-0.079
-427.603	675.000	0.047	0.120
-426.588	593.970	-0.059	-0.144
-425.573	339.079	-0.090	-0.175
-424.559	-200.000	-0.001	-0.174
-423.544	-102.987	-0.293	0.069
-422.530	44.115	0.276	-0.251
-421.515	607.340	-0.044	0.108
-420.500	119.855	-0.062	-0.076
-419.486	800.000	0.067	0.226
-418.471	-200.000	0.059	-0.338
-417.457	298.696	0.120	0.218
-416.442	-122.503	-0.050	0.008
-415.428	-43.608	-0.158	0.079
-414.413	-32.348	-0.252	0.140
-413.398	-27.577	-0.216	0.124
-412.384	184.402	0.089	-0.131
-411.369	-166.002	-0.072	0.003
-410.355	225.290	-0.071	0.115
-409.340	-200.000	0.032	-0.300
-408.325	79.534	0.237	-0.252
-407.311	19.854	0.231	-0.184
-406.296	-200.000	0.017	-0.104
-405.282	135.991	0.006	-0.007
-404.267	800.000	0.102	-0.369
-403.252	255.641	0.038	0.065
-402.238	762.155	-0.117	0.316
-401.223	-74.817	-0.326	0.116
-400.209	-102.606	-0.064	-0.015
-399.194	95.363	-0.059	0.066
-398.179	-59.332	-0.100	-0.043
-397.165	120.173	0.137	-0.168
-396.150	104.643	-0.160	0.187
-395.136	-181.700	0.229	0.004
-394.121	-200.000	-0.001	-0.301
-393.106	60.037	-0.200	-0.196
-392.092	45.702	-0.302	-0.276
-391.077	-175.465	0.305	-0.008
-390.063	-110.408	-0.085	-0.018
-389.048	-50.244	0.174	0.081
-388.033	148.884	-0.150	0.201
-387.019	-107.145	0.242	-0.053
-386.004	-109.599	-0.066	0.014
-384.990	12.769	-0.141	-0.108
-383.975	255.223	0.084	0.143
-382.960	-144.282	-0.165	0.015
-381.946	-109.952	-0.219	-0.045
-380.931	679.891	-0.211	-0.544
-379.917	-200.000	0.023	-0.242
-378.902	-200.000	0.003	-0.101
-377.888	79.476	-0.100	-0.107
-376.873	684.683	0.085	-0.220
-375.858	-200.000	-0.005	-0.048
-374.844	-200.000	0.060	0.422
-373.829	351.487	-0.133	-0.260
-372.815	800.000	0.080	-0.262
-371.800	-200.000	0.023	-0.133
-370.785	-56.580	-0.042	-0.019
-369.771	-200.000	-0.011	0.046
-368.756	-135.470	0.166	-0.020
-367.742	-65.329	0.078	0.031
-366.727	109.250	-0.073	0.087
-365.712	149.617	0.131	-0.176
-364.698	800.000	-0.111	0.366
-363.683	-112.980	0.227	-0.044
-362.669	-107.931	0.243	-0.052
-361.654	-45.098	-0.062	0.031
-360.639	-96.537	-0.312	-0.082
-359.625	443.592	0.134	0.291
-358.610	-65.442	0.121	0.048
-357.596	-76.204	0.268	-0.094
-356.581	-110.041	0.234	0.048
-355.566	-96.865	0.093	0.024
-354.552	-200.000	0.043	-0.260
-353.537	-81.988	0.270	0.087
-352.523	-80.728	0.419	0.138
-351.508	-37.428	-0.139	-0.073
-350.493	98.543	-0.201	-0.230
-349.479	800.000	0.031	-0.106
-348.464	197.328	-0.182	0.274
-347.450	-75.452	0.138	0.049
-346.435	59.862	0.075	0.073
-345.420	106.938	-0.043	0.050
-344.406	113.666	0.116	-0.140
-343.391	-200.000	0.025	-0.227
-342.377	-200.000	0.064	0.333
-341.362	-5.758	-0.253	-0.172
-340.348	-200.000	-0.035	-0.201
-339.333	-200.000	0.022	0.242
-338.318	-115.735	-0.280	0.052
-337.304	12.769	-0.082	0.062
-336.289	336.810	-0.204	-0.392
-335.275	800.000	-0.062	0.227
-334.260	117.974	0.132	0.161
-333.245	269.021	0.176	0.305
-332.231	-71.410	-0.385	0.143
-331.216	4.659	0.117	0.085
-330.202	41.952	-0.102	-0.091
-329.187	-200.000	0.045	-0.300
-328.172	-33.413	0.098	0.054
-327.158	-70.730	0.197	0.073
-326.143	466.384	0.115	0.256
-325.129	-117.634	0.347	0.062
-324.114	16.631	-0.301	0.235
-323.099	66.449	-0.229	-0.230
-322.085	-200.000	-0.043	-0.212
-321.070	51.327	0.153	-0.143
-320.056	-11.808	-0.446	-0.289
-319.041	-97.561	-0.294	0.075
-318.026	10.725	-0.380	-0.286
-317.012	-200.000	0.043	0.189
-315.997	-22.414	0.154	-0.092
-314.983	800.000	-0.003	0.013
-313.968	800.000	-0.043	-0.148
-312.953	397.315	0.083	-0.171
-311.939	688.126	-0.152	0.393
-310.924	45.490	-0.230	0.209
-309.910	-200.000	-0.027	-0.388
-308.895	-187.893	-0.489	0.006
-307.880	-114.484	0.175	0.033
-306.866	110.387	0.230	0.273
-305.851	-116.003	-0.336	-0.062
-304.837	800.000	0.106	0.323
-303.822	-84.530	0.130	-0.040
-302.807	484.113	0.142	0.318
-301.793	-200.000	0.009	0.182
-300.778	460.184	0.130	-0.287
-299.764	-106.121	-0.103	-0.023
-298.749	-126.250	-0.592	-0.087
-297.735	17.280	0.181	0.142
-296.720	33.221	-0.327	0.280
-295.705	153.390	-0.090	-0.121
-294.691	-153.938	-0.067	0.005
-293.676	462.895	0.112	-0.246
-292.662	666.291	0.102	0.259
-291.647	-7.411	0.386	0.258
-290.632	122.489	-0.116	0.143
-289.618	-9.560	0.282	0.185
-288.603	242.736	-0.053	0.088
-287.589	35.189	0.268	-0.232
-286.574	488.727	-0.130	0.292
-285.559	-32.686	0.315	0.173
-284.545	42.426	-0.143	0.128
-283.530	240.597	-0.068	-0.113
-282.516	305.496	-0.115	-0.212
-281.501	-200.000	-0.023	-0.195
-280.486	800.000	-0.032	0.122
-279.472	-200.000	-0.051	0.414
-278.457	-200.000	0.033	0.195
-277.443	-144.150	0.089	0.008
-276.428	587.429	0.113	0.274
-275.413	22.155	-0.154	-0.124
-274.399	760.905	-0.045	0.120
-273.384	-116.277	-0.139	0.025
-272.370	-200.000	-0.052	0.225
-271.355	-71.270	0.228	0.084
-270.340	9.984	0.167	-0.125
-269.326	-21.752	-0.096	-0.058
-268.311	189.024	-0.053	-0.078
-267.297	-90.103	0.418	0.120
-266.282	800.000	0.095	0.278
-265.267	-200.000	0.036	0.318
-264.253	-200.000	-0.031	0.377
-263.238	-115.354	-0.181	-0.034
-262.224	800.000	-0.129	-0.496
-261.209	0.261	0.108	-0.076
-260.195	151.148	0.112	-0.150
-259.180	89.816	-0.370	-0.407
-258.165	0.664	-0.054	-0.038
-257.151	157.910	0.048	-0.065
-256.136	309.900	0.178	-0.328
-255.122	-26.180	-0.264	0.153
-254.107	145.286	0.293	-0.387
-253.092	-200.000	-0.018	0.090
-252.078	-101.296	-0.250	-0.060
-251.063	-117.525	0.464	-0.083
-250.049	195.830	-0.073	0.109
-249.034	433.942	0.159	-0.340
-248.019	519.472	0.146	-0.337
-247.005	254.284	-0.075	0.126
-245.990	135.935	0.117	0.150
-244.976	-200.000	0.030	-0.155
-243.961	695.646	-0.049	-0.126
-242.946	92.514	-0.071	-0.079
-241.932	800.000	0.072	0.235
-240.917	446.546	-0.174	0.376
-239.903	-192.843	0.027	-0.000
-238.888	-101.785	0.114	-0.027
-237.873	644.542	-0.090	0.226
-236.859	58.600	0.180	-0.174
-235.844	-150.664	0.234	-0.018
-234.830	58.880	-0.035	-0.034
-233.815	-30.639	-0.242	-0.135
-232.800	300.018	0.034	-0.062
-231.786	800.000	-0.045	0.123
-230.771	166.520	-0.078	-0.109
-229.757	-200.000	-0.031	-0.211
-228.742	-133.188	-0.286	0.036
-227.727	112.941	-0.088	-0.105
-226.713	-31.099	-0.070	-0.039
-225.698	-40.256	0.231	0.118
-224.684	-200.000	0.059	0.310
-223.669	-70.067	-0.337	0.126
-222.655	-112.851	0.366	0.071
-221.640	-58.536	0.291	-0.124
-220.625	800.000	0.063	0.235
-219.611	61.382	-0.172	-0.168
-218.596	-200.000	-0.030	-0.140
-217.582	-33.948	0.068	-0.037
-216.567	-161.910	-0.046	0.002
-215.552	-89.907	0.252	-0.072
-214.538	-42.296	0.189	-0.095
-213.523	4.953	0.229	0.166
-212.509	-117.468	-0.219	0.039
-211.494	355.044	-0.051	-0.100
-210.479	310.515	0.069	0.127
-209.465	144.831	0.105	0.138
-208.450	18.568	0.322	0.253
-207.436	-22.064	-0.217	0.130
-206.421	-52.884	-0.318	0.144
-205.406	-166.523	-0.266	-0.011
-204.392	183.846	-0.161	-0.234
-203.377	64.615	0.273	-0.271
-202.363	213.621	0.251	0.391
-201.348	-46.007	0.178	-0.086
-200.333	-23.548	-0.172	0.102
-199.319	-200.000	0.016	0.078
-198.304	526.928	0.080	-0.186
-197.290	138.274	-0.081	-0.105
-196.275	-200.000	-0.012	-0.083
-195.260	800.000	-0.055	0.205
-194.246	-132.007	0.231	-0.030
-193.231	155.116	-0.162	-0.220
-192.217	-46.234	0.088	-0.042
-191.202	-200.000	0.003	0.243
-190.187	67.713	-0.076	-0.076
-189.173	-110.343	-0.249	-0.051
-188.158	389.597	0.079	-0.161
-187.144	74.191	0.244	-0.252
-186.129	293.046	0.085	0.153
-185.114	249.128	0.058	-0.096
-184.100	-101.079	0.172	-0.041
-183.085	-200.000	0.027	-0.161
-182.071	-85.545	-0.217	0.066
-181.056	-200.000	0.015	0.209
-180.042	332.530	0.051	0.096
-179.027	3.324	0.128	-0.092
-178.012	51.557	0.153	0.143
-176.998	-39.425	-0.207	-0.107
-175.983	458.717	-0.075	-0.165
-174.969	-104.739	-0.038	0.009
-173.954	46.954	0.135	0.124
-172.939	-134.096	0.129	0.016
-171.925	168.002	0.143	-0.200
-170.910	-85.070	-0.356	0.110
-169.896	800.000	0.034	0.098
-168.881	-137.244	0.286	0.032
-167.866	697.159	-0.129	-0.333
-166.852	350.862	0.046	0.089
-165.837	-2.042	0.080	0.055
-164.823	135.100	-0.122	0.155
-163.808	800.000	0.123	0.352
-162.793	-200.000	-0.033	0.449
-161.779	-106.901	0.213	0.046
-160.764	180.162	0.131	0.188
-159.750	-200.000	-0.008	-0.097
-158.735	-126.827	-0.219	-0.032
-157.720	90.493	0.234	-0.258
-156.706	205.084	0.066	0.101
-155.691	263.436	-0.247	0.421
-154.677	-143.538	0.182	-0.017
-153.662	209.755	-0.200	0.308
-152.647	-200.000	-0.045	0.273
-151.633	29.201	-0.373	-0.311
-150.618	-34.391	0.183	0.098
-149.604	-25.271	-0.289	0.168
-148.589	41.798	0.071	-0.063
-147.574	14.017	-0.149	-0.114
-146.560	-200.000	0.076	-0.405
-145.545	800.000	0.080	0.308
-144.531	0.654	0.192	-0.135
-143.516	376.962	0.125	-0.251
-142.502	30.986	0.094	0.079
-141.487	65.883	0.050	0.050
-140.472	-33.037	0.186	0.101
-139.458	-138.971	-0.393	-0.042
-138.443	216.177	0.030	0.046
-137.429	754.315	0.049	0.129
-136.414	8.091	0.108	0.080
-135.399	-200.000	0.004	-0.210
-134.385	34.132	-0.136	-0.116
-133.370	-105.808	0.246	0.054
-132.356	64.201	0.160	-0.158
-131.341	99.542	-0.195	0.222
-130.326	-200.000	-0.059	0.356
-129.312	26.405	0.145	-0.119
-128.297	-59.771	0.074	-0.031
-127.283	204.206	0.157	0.238
-126.268	-137.614	0.116	0.013
-125.253	-147.517	0.341	-0.028
-124.239	800.000	-0.016	-0.050
-123.224	-70.282	0.228	-0.085
-122.210	-89.864	0.020	0.006
-121.195	624.010	-0.137	0.337
-120.180	145.946	0.196	-0.258
-119.166	226.878	0.223	-0.355
-118.151	779.876	-0.025	-0.066
-117.137	94.016	-0.018	-0.020
-116.122	800.000	-0.043	-0.128
-115.107	58.827	-0.121	-0.116
-114.093	48.095	0.297	0.272
-113.078	798.468	0.043	-0.117
-112.064	800.000	-0.057	0.186
-111.049	31.796	-0.327	0.276
-110.034	32.002	0.162	-0.137
-109.020	-200.000	0.004	-0.149
-108.005	-200.000	-0.012	-0.198
-106.991	-34.280	0.140	-0.075
-105.976	-94.205	0.417	-0.112
-104.962	295.462	0.117	0.211
-103.947	-123.990	-0.140	-0.022
-102.932	-200.000	0.006	0.353
-101.918	-200.000	-0.017	0.178
-100.903	-4.156	-0.035	-0.024
-99.889	-200.000	-0.004	0.133
-98.874	105.975	0.330	-0.383
-97.859	-142.738	-0.185	0.018
-96.845	671.826	-0.102	-0.258
-95.830	67.134	0.198	0.198
-94.816	-101.327	-0.323	0.077
-93.801	127.862	-0.093	0.116
-92.786	-144.493	-0.109	0.010
-91.772	-142.474	-0.064	-0.006
-90.757	158.555	-0.176	0.239
-89.743	800.000	0.013	-0.053
-88.728	-97.103	-0.138	0.035
-87.713	218.047	0.071	-0.111
-86.699	800.000	0.035	0.096
-85.684	-200.000	0.012	0.245
-84.670	-127.534	0.250	0.036
-83.655	340.884	0.155	0.297
-82.640	137.022	-0.117	-0.150
-81.626	-133.120	0.292	-0.036
-80.611	-95.953	0.184	-0.048
-79.597	-66.186	-0.197	-0.077
-78.582	-15.986	0.223	0.139
-77.567	-192.580	-0.088	0.001
-76.553	-200.000	0.014	0.126
-75.538	800.000	0.075	0.251
-74.524	-122.037	0.051	0.008
-73.509	46.053	-0.191	-0.173
-72.494	-0.524	0.207	0.144
-71.480	-117.740	0.159	0.028
-70.465	513.485	0.101	0.231
-69.451	450.187	0.169	-0.364
-68.436	-19.232	0.016	0.010
-67.422	-200.000	-0.018	0.213
-66.407	-30.286	0.264	0.147
-65.392	-200.000	-0.025	-0.371
-64.378	201.582	-0.088	0.133
-63.363	481.013	0.050	0.111
-62.349	173.218	-0.058	0.082
-61.334	48.659	-1.101	-1.010
-60.319	8.612	0.817	0.602
-59.305	-200.000	-0.351	-1.618
-58.290	353.749	0.613	1.191
-57.276	506.072	0.578	1.311
-56.261	-200.000	127.602	672.717
-55.246	410.130	1599.296	3316.373
-54.232	137.153	2763.318	3534.373
-53.217	86.457	2334.428	2517.671
-52.203	29.482	2075.237	1726.016
-51.188	24.673	1990.489	1612.212
-50.173	23.524	1974.492	1588.903
-49.159	42.003	2047.557	1817.415
-48.144	39.839	2059.536	1808.181
-47.130	25.068	2012.398	1633.294
-46.115	22.960	2001.175	1604.997
-45.100	22.929	1997.765	1601.917
-44.086	22.867	1995.782	1599.702
-43.071	22.793	1993.461	1597.106
-42.057	22.719	1991.332	1594.674
-41.042	22.806	1989.556	1593.977
-40.027	22.904	1987.279	1592.968
-39.013	22.911	1985.356	1591.427
-37.998	22.861	1983.365	1589.321
-36.984	22.815	1982.360	1588.040
-35.969	22.893	1979.981	1586.766
-34.954	22.882	1978.686	1585.569
-33.940	22.915	1976.896	1584.372
-32.925	22.925	1975.611	1583.368
-31.911	23.003	1973.758	1582.518
-30.896	22.977	1972.188	1580.959
-29.881	22.983	1970.712	1579.764
-28.867	23.016	1969.546	1579.065
-27.852	23.033	1967.384	1577.424
-26.838	23.003	1965.386	1575.487
-25.823	22.964	1964.212	1574.141
-24.809	22.978	1962.079	1572.496
-23.794	22.972	1960.401	1571.030
-22.779	22.990	1958.571	1569.663
-21.765	23.034	1956.603	1568.414
-20.750	23.032	1954.904	1566.971
-19.736	22.996	1953.866	1565.755
-18.721	22.982	1952.516	1564.488
-17.706	22.969	1950.846	1562.974
-16.692	22.989	1948.989	1561.600
-15.677	22.891	1947.887	1559.787
-14.663	22.984	1945.875	1558.942
-13.648	22.914	1945.014	1557.569
-12.633	23.060	1943.260	1557.393
-11.619	22.955	1942.388	1555.702
-10.604	22.911	1941.023	1554.165
-9.590	22.995	1939.373	1553.518
-8.575	22.937	1938.114	1551.937
-7.560	22.921	1937.187	1550.997
-6.546	22.983	1935.656	1550.253
-5.531	22.952	1934.857	1549.278
-4.517	22.922	1933.271	1547.686
-3.502	22.927	1932.372	1546.947
-2.487	23.020	1930.664	1546.332
-1.473	22.947	1929.614	1544.786
-0.458	22.966	1924.632	1540.903
0.556	21.185	1904.099	1512.082
1.571	16.894	1885.531	1460.317
2.586	13.072	1909.660	1445.472
3.600	12.241	1944.805	1464.529
4.615	12.242	1937.433	1458.858
5.629	9.391	1838.230	1359.970
6.644	3.639	1726.072	1231.116
7.659	0.429	1694.055	1183.028
8.673	0.250	1691.027	1179.408
9.688	0.201	1689.604	1177.927
10.702	0.145	1688.596	1176.680
11.717	0.073	1684.429	1173.111
12.731	0.388	1683.283	1174.666
13.746	5.038	1692.293	1217.197
14.761	12.121	1707.034	1283.293
15.775	16.252	1713.631	1320.518
16.790	16.789	1713.424	1324.440
17.804	15.876	1710.718	1315.105
18.819	14.832	1708.120	1304.843
19.834	14.274	1705.476	1298.362
20.848	14.076	1703.737	1295.377
21.863	13.872	1701.821	1292.216
22.877	13.624	1700.664	1289.294
23.892	13.462	1698.694	1286.427
24.907	13.268	1698.118	1284.376
25.921	13.165	1697.254	1282.805
26.936	13.231	1696.002	1282.257
27.950	13.359	1694.970	1282.357
28.965	13.271	1694.806	1281.437
29.980	13.328	1694.129	1281.256
30.994	13.442	1692.468	1280.764
32.009	13.446	1691.758	1280.146
33.023	13.542	1691.001	1280.200
34.038	13.487	1690.303	1279.133
35.053	13.547	1689.026	1278.523
36.067	13.514	1687.438	1276.949
37.082	13.386	1686.798	1275.369
38.096	13.395	1685.896	1274.643
39.111	13.462	1685.277	1274.574
40.126	13.511	1683.934	1273.822
41.140	13.489	1682.936	1272.783
42.155	13.362	1682.002	1270.995
43.169	13.305	1680.890	1269.605
44.184	13.266	1679.436	1268.089
45.199	13.281	1678.513	1267.401
46.213	13.270	1677.378	1266.341
47.228	13.212	1676.460	1265.095
48.242	13.265	1675.262	1264.487
49.257	13.351	1673.791	1263.919
50.271	13.378	1672.247	1262.852
51.286	13.396	1670.336	1261.427
52.301	13.433	1669.472	1260.950
53.315	13.444	1667.945	1259.766
54.330	13.379	1666.753	1258.265
55.344	13.210	1665.893	1256.216
56.359	13.225	1664.261	1254.989
57.374	13.220	1662.963	1253.859
58.388	13.299	1661.331	1253.121
59.403	13.326	1660.063	1252.254
60.417	13.243	1658.582	1250.396
61.432	13.311	1657.624	1250.079
62.447	13.351	1656.125	1249.139
63.461	13.182	1655.431	1247.233
64.476	13.190	1653.967	1246.076
65.490	13.196	1652.859	1245.181
66.505	13.228	1651.482	1244.275
67.520	13.194	1650.768	1243.366
68.534	13.281	1649.402	1242.887
69.549	13.247	1648.167	1241.585
70.563	13.221	1646.984	1240.388
71.578	13.224	1645.809	1239.422
72.593	13.304	1644.369	1238.821
73.607	13.153	1643.614	1237.018
74.622	13.080	1642.831	1235.772
75.636	13.191	1641.670	1235.615
76.651	13.184	1640.811	1234.807
77.666	13.080	1640.156	1233.431
78.680	13.125	1638.571	1232.464
79.695	13.155	1637.690	1231.920
80.709	13.182	1636.779	1231.326
81.724	13.204	1636.318	1231.034
82.739	13.261	1635.192	1230.499
83.753	13.297	1633.650	1229.502
84.768	13.284	1633.069	1228.853
85.782	13.385	1632.280	1228.902
86.797	13.517	1630.675	1228.568
87.812	13.389	1630.108	1227.084
88.826	13.442	1628.476	1226.139
89.841	13.373	1627.711	1224.940
90.855	13.403	1626.310	1223.998
91.870	13.442	1625.332	1223.446
92.884	13.346	1624.735	1222.177
93.899	13.493	1623.297	1222.076
94.914	13.468	1621.622	1220.519
95.928	13.495	1620.344	1219.645
96.943	13.479	1619.563	1218.836
97.957	13.443	1618.224	1217.457
98.972	13.409	1616.770	1216.003
99.987	13.514	1614.917	1215.271
101.001	13.406	1613.819	1213.550
102.016	13.416	1611.854	1212.033
103.030	13.378	1610.470	1210.610
104.045	13.419	1609.784	1210.286
105.060	13.450	1608.089	1209.128
106.074	13.400	1606.877	1207.748
107.089	13.337	1605.150	1205.883
108.103	13.297	1603.566	1204.299
109.118	13.336	1602.317	1203.532
110.133	13.221	1600.899	1201.526
111.147	13.239	1599.496	1200.496
112.162	13.249	1598.154	1199.457
113.176	13.221	1596.712	1198.069
114.191	13.332	1595.098	1197.555
115.206	13.268	1594.267	1196.363
116.220	13.353	1592.869	1195.819
117.235	13.332	1590.881	1194.066
118.249	13.385	1590.073	1193.739
119.264	13.313	1589.011	1192.321
120.279	13.255	1587.544	1190.696
121.293	13.225	1586.244	1189.401
122.308	13.241	1584.721	1188.270
123.322	13.232	1583.085	1186.869
124.337	13.224	1581.649	1185.632
125.352	13.213	1580.435	1184.534
126.366	13.228	1579.008	1183.470
127.381	13.259	1577.642	1182.559
128.395	13.282	1576.242	1181.572
129.410	13.272	1575.164	1180.593
130.424	13.311	1573.607	1179.597
131.439	13.278	1572.457	1178.395
132.454	13.275	1570.891	1177.095
133.468	13.367	1569.606	1176.681
134.483	13.272	1568.786	1175.287
135.497	13.341	1567.281	1174.545
136.512	13.391	1565.599	1173.537
137.527	13.296	1564.381	1171.850
138.541	13.426	1562.635	1171.358
139.556	13.402	1561.332	1170.103
140.570	13.375	1559.869	1168.718
141.585	13.358	1558.947	1167.803
142.600	13.440	1557.532	1167.214
143.614	13.520	1556.384	1166.815
144.629	13.475	1555.066	1165.405
145.643	13.578	1553.811	1165.087
146.658	13.554	1552.551	1163.873
147.673	13.624	1550.738	1162.898
148.687	13.533	1549.445	1161.189
149.702	13.542	1547.772	1159.897
150.716	13.585	1545.517	1158.403
151.731	13.465	1544.818	1156.940
152.746	13.497	1543.345	1155.956
153.760	13.530	1541.549	1154.744
154.775	13.513	1540.627	1153.827
155.789	13.519	1539.613	1153.009
156.804	13.637	1538.079	1152.583
157.819	13.655	1536.990	1151.786
158.833	13.746	1535.327	1151.070
159.848	13.664	1533.975	1149.389
160.862	13.687	1533.223	1148.884
161.877	13.735	1531.526	1147.837
162.892	13.692	1530.412	1146.604
163.906	13.711	1528.980	1145.561
164.921	13.640	1527.797	1144.085
165.935	13.672	1526.625	1143.325
166.950	13.660	1525.839	1142.553
167.964	13.687	1524.973	1141.990
168.979	13.714	1523.601	1141.050
169.994	13.706	1522.857	1140.338
171.008	13.655	1521.863	1139.141
172.023	13.735	1520.900	1138.869
173.037	13.772	1519.390	1137.888
174.052	13.797	1518.264	1137.120
175.067	13.769	1517.349	1136.138
176.081	13.757	1516.022	1134.962
177.096	13.765	1514.044	1133.436
178.110	13.699	1513.430	1132.429
179.125	13.796	1511.714	1131.701
180.140	13.759	1511.131	1130.915
181.154	13.791	1509.883	1130.096
182.169	13.799	1508.899	1129.314
183.183	13.865	1507.333	1128.491
184.198	13.876	1506.165	1127.596
185.213	13.848	1505.382	1126.715
186.227	13.913	1503.954	1125.987
187.242	13.952	1502.694	1125.213
188.256	13.911	1501.690	1124.082
189.271	14.013	1500.786	1123.998
190.286	14.006	1499.497	1122.885
191.300	13.968	1498.652	1121.898
192.315	13.904	1497.303	1120.356
193.329	13.867	1496.026	1119.051
194.344	13.780	1495.114	1117.684
195.359	13.804	1493.909	1116.842
196.373	13.841	1493.129	1116.410
197.388	13.866	1491.935	1115.589
198.402	14.007	1490.531	1115.387
199.417	14.091	1489.432	1115.026
200.432	14.134	1488.257	1114.339
201.446	14.130	1487.887	1113.932
202.461	14.109	1486.540	1112.688
203.475	14.169	1485.212	1111.995
204.490	14.242	1484.152	1111.592
205.504	14.211	1483.003	1110.424
206.519	14.198	1481.768	1109.319
207.534	14.141	1481.135	1108.364
208.548	14.179	1480.006	1107.676
209.563	14.124	1478.898	1106.379
210.577	14.170	1477.542	1105.577
211.592	14.156	1476.911	1104.915
212.607	14.210	1475.804	1104.344
213.621	14.319	1475.228	1104.541
214.636	14.319	1473.969	1103.498
215.650	14.290	1472.772	1102.315
216.665	14.216	1472.548	1101.559
217.680	14.272	1471.450	1101.007
218.694	14.385	1470.504	1100.948
219.709	14.375	1469.862	1100.306
220.723	14.504	1468.523	1100.061
221.738	14.310	1468.601	1098.739
222.753	14.388	1466.696	1097.732
223.767	14.319	1466.134	1096.758
224.782	14.468	1464.690	1096.561
225.796	14.412	1464.136	1095.680
226.811	14.533	1463.338	1095.782
227.826	14.518	1462.175	1094.715
228.840	14.488	1461.627	1094.009
229.855	14.468	1460.503	1092.946
230.869	14.509	1459.470	1092.343
231.884	14.485	1458.546	1091.396
232.899	14.538	1457.123	1090.584
233.913	14.429	1456.000	1088.930
234.928	14.497	1454.786	1088.372
235.942	14.464	1453.940	1087.429
236.957	14.422	1452.552	1086.023
237.972	14.389	1451.887	1085.209
238.986	14.378	1450.380	1083.917
240.001	14.535	1449.334	1084.061
241.015	14.472	1448.399	1082.853
242.030	14.499	1447.570	1082.317
243.045	14.544	1446.577	1081.768
244.059	14.639	1445.392	1081.405
245.074	14.597	1444.357	1080.260
246.088	14.559	1444.121	1079.741
247.103	14.633	1443.361	1079.556
248.117	14.692	1442.484	1079.190
249.132	14.790	1441.205	1078.766
250.147	14.752	1441.095	1078.343
251.161	14.783	1440.134	1077.727
252.176	14.822	1439.590	1077.480
253.190	14.955	1438.369	1077.326
254.205	14.902	1437.985	1076.601
255.220	14.980	1436.482	1075.885
256.234	15.037	1435.539	1075.450
257.249	14.999	1435.093	1074.777
258.263	15.052	1434.090	1074.266
259.278	15.094	1433.255	1073.821
260.293	15.037	1432.179	1072.552
261.307	14.990	1431.658	1071.766
262.322	15.087	1431.109	1071.881
263.336	15.146	1430.078	1071.388
264.351	15.170	1428.702	1070.418
265.366	15.139	1427.768	1069.428
266.380	15.168	1426.869	1068.844
267.395	15.238	1425.656	1068.285
268.409	15.203	1425.471	1067.826
269.424	15.210	1423.996	1066.675
270.439	15.114	1423.320	1065.462
271.453	15.125	1422.237	1064.628
272.468	15.254	1421.283	1064.642
273.482	15.205	1420.511	1063.655
274.497	15.206	1419.769	1063.009
275.512	15.192	1418.876	1062.160
276.526	15.349	1417.796	1062.252
277.541	15.262	1416.943	1060.970
278.555	15.249	1416.253	1060.279
279.570	15.248	1415.121	1059.330
280.585	15.383	1414.048	1059.285
281.599	15.362	1413.208	1058.431
282.614	15.278	1412.806	1057.506
283.628	15.356	1411.566	1056.975
284.643	15.320	1410.507	1055.860
285.657	15.412	1409.657	1055.709
286.672	15.425	1408.208	1054.616
287.687	15.449	1407.497	1054.140
288.701	15.377	1406.579	1052.904
289.716	15.348	1405.656	1051.942
290.730	15.485	1405.260	1052.408
291.745	15.461	1403.911	1051.154
292.760	15.502	1402.829	1050.507
293.774	15.467	1402.085	1049.638
294.789	15.521	1400.948	1049.030
295.803	15.573	1399.738	1048.359
296.818	15.544	1399.089	1047.597
297.833	15.563	1398.059	1046.850
298.847	15.487	1397.611	1045.951
299.862	15.473	1396.570	1044.996
300.876	15.561	1395.704	1044.798
301.891	15.653	1394.299	1044.228
302.906	15.590	1393.817	1043.384
303.920	15.693	1392.832	1043.194
304.935	15.757	1392.307	1043.103
305.949	15.749	1391.620	1042.446
306.964	15.743	1390.599	1041.555
307.979	15.801	1389.604	1041.077
308.993	15.733	1389.006	1040.111
310.008	15.733	1388.018	1039.280
311.022	15.753	1386.996	1038.548
312.037	15.786	1386.289	1038.132
313.052	15.876	1385.149	1037.737
314.066	15.842	1384.007	1036.583
315.081	15.811	1383.088	1035.614
316.095	15.739	1382.001	1034.263
317.110	15.737	1380.959	1033.380
318.125	15.818	1379.980	1033.053
319.139	15.924	1378.989	1032.868
320.154	15.841	1377.989	1031.519
321.168	15.785	1377.099	1030.422
322.183	15.858	1376.450	1030.290
323.197	15.817	1375.306	1029.089
324.212	15.948	1374.482	1029.183
325.227	15.893	1373.705	1028.176
326.241	15.889	1372.995	1027.529
327.256	15.974	1371.784	1027.054
328.270	15.887	1371.111	1025.926
329.285	15.902	1370.228	1025.265
330.300	15.977	1369.007	1024.719
331.314	16.027	1368.079	1024.234
332.329	15.981	1366.838	1022.937
333.343	15.988	1366.461	1022.607
334.358	15.919	1365.851	1021.644
335.373	16.041	1364.878	1021.561
336.387	16.121	1363.786	1021.138
337.402	16.096	1363.147	1020.422
338.416	16.084	1362.675	1019.905
339.431	16.067	1362.293	1019.422
340.446	16.226	1360.805	1019.180
341.460	16.232	1359.867	1018.425
342.475	16.129	1359.494	1017.434
343.489	16.258	1358.553	1017.419
344.504	16.303	1356.850	1016.320
345.519	16.322	1356.599	1016.159
346.533	16.289	1355.452	1015.014
347.548	16.313	1354.872	1014.632
348.562	16.368	1353.798	1014.069
349.577	16.447	1352.851	1013.743
350.592	16.349	1352.451	1012.768
351.606	16.368	1351.591	1012.144
352.621	16.287	1350.505	1010.761
353.635	16.356	1349.110	1010.039
354.650	16.377	1348.119	1009.335
355.665	16.364	1347.630	1008.798
356.679	16.401	1346.419	1008.025
357.694	16.409	1344.797	1006.766
358.708	16.466	1344.128	1006.518
359.723	16.450	1343.388	1005.778
360.738	16.421	1342.233	1004.651
361.752	16.404	1341.129	1003.639
362.767	16.495	1339.993	1003.237
363.781	16.522	1339.165	1002.688
364.796	16.535	1338.220	1001.967
365.810	16.455	1338.031	1001.265
366.825	16.641	1336.684	1001.270
367.840	16.692	1335.841	1000.853
368.854	16.656	1335.440	1000.248
369.869	16.678	1334.805	999.817
370.883	16.656	1334.483	999.357
371.898	16.709	1333.458	998.809
372.913	16.675	1332.557	997.846
373.927	16.725	1331.931	997.587
374.942	16.722	1330.934	996.733
375.956	16.686	1330.403	996.033
376.971	16.832	1329.065	995.801
377.986	16.774	1328.250	994.766
379.000	16.813	1327.287	994.185
380.015	16.892	1326.602	994.046
381.029	16.820	1326.253	993.272
382.044	16.904	1325.081	992.800
383.059	16.951	1324.690	992.696
384.073	16.969	1324.123	992.285
385.088	16.966	1322.951	991.302
386.102	16.862	1322.951	990.607
387.117	16.978	1321.758	990.302
388.132	16.988	1321.183	989.847
389.146	16.902	1320.422	988.687
390.161	16.856	1319.290	987.482
391.175	16.959	1318.527	987.422
392.190	16.972	1317.922	986.959
393.205	16.983	1316.708	986.026
394.219	16.963	1316.005	985.298
395.234	17.109	1314.416	984.866
396.248	17.140	1313.114	983.983
397.263	17.053	1312.327	982.805
398.278	17.079	1310.331	981.373
399.292	17.057	1309.506	980.542
400.307	17.018	1308.619	979.561
401.321	17.014	1307.308	978.470
402.336	16.970	1306.787	977.740
403.350	16.982	1305.692	976.903
404.365	17.019	1305.000	976.515
405.380	17.131	1304.025	976.340
406.394	17.130	1303.099	975.555
407.409	17.122	1302.020	974.620
408.423	17.176	1301.836	974.703
409.438	17.140	1301.098	973.856
410.453	17.360	1299.787	974.049
411.467	17.256	1299.489	973.146
412.482	17.409	1298.697	973.341
413.496	17.354	1297.960	972.390
414.511	17.408	1297.611	972.348
415.526	17.404	1296.729	971.579
416.540	17.468	1295.998	971.309
417.555	17.475	1294.852	970.405
418.569	17.487	1294.758	970.321
419.584	17.461	1294.429	969.836
420.599	17.450	1293.763	969.189
421.613	99.783	1361.710	1487.037
422.628	97.823	1371.524	1487.130
