DTS Sentinel unit serial number:	SN413079Multiplexer serial number:	ORYXHardware model number:	OX4-SRSoftware version number:	ORYX F/W v4.00 Oryx Data Collector v3.7.2.0data status	okinstallation	princeton_trtdifferential loss correction	single-endedforward channel	channel 4reverse channel	N/Adate	2019/09/17time	06:41:35forward acquisition time	60.00reverse acquisition time	0.00gamma	496.2192k internal	0.2318k external	0.2318temperature offset calibration	0.9982default loss term (dB/km)	0.3790temperature slope calibration	1.0000multiplexer offset coefficient	1.0000multiplexer slope coefficient	1.0000fibre end	0.00T internal ref (°C)	27.94T ext. ref 1 (°C)	0.12T ext. ref 2 (°C)	21.33length (m)	temperature (°C)	Stokes	anti-Stokes-747.200	800.000	0.060	-0.234
-746.185	-200.000	0.086	0.427
-745.171	-200.000	-0.017	0.217
-744.156	473.699	-0.155	0.353
-743.142	50.806	-0.093	-0.089
-742.127	-8.832	-0.232	-0.157
-741.112	-200.000	-0.007	-0.137
-740.098	250.470	-0.098	-0.169
-739.083	-8.845	-0.179	-0.122
-738.069	-200.000	0.011	0.448
-737.054	-200.000	0.039	0.350
-736.039	-164.698	-0.413	-0.019
-735.025	-200.000	-0.035	-0.285
-734.010	-139.821	0.203	-0.022
-732.996	-73.923	-0.379	-0.139
-731.981	-200.000	-0.006	-0.192
-730.966	613.329	-0.107	-0.271
-729.952	18.219	-0.093	-0.075
-728.937	-23.770	-0.215	-0.130
-727.923	800.000	0.081	0.259
-726.908	-53.538	-0.095	0.044
-725.894	145.029	-0.235	-0.318
-724.879	-180.559	-0.415	0.009
-723.864	63.643	0.068	-0.069
-722.850	138.323	0.109	0.145
-721.835	377.504	0.160	0.331
-720.821	-80.326	-0.288	0.097
-719.806	-96.607	0.201	-0.054
-718.791	-11.979	-0.170	0.112
-717.777	800.000	0.045	-0.160
-716.762	-128.416	-0.180	0.026
-715.748	-200.000	0.012	0.194
-714.733	-53.351	0.357	-0.165
-713.718	-72.179	0.071	0.027
-712.704	-94.860	-0.119	0.033
-711.689	28.611	-0.200	-0.171
-710.675	773.133	0.114	0.316
-709.660	147.118	-0.156	-0.212
-708.645	-200.000	0.014	0.086
-707.631	-47.363	0.106	-0.052
-706.616	-200.000	-0.057	-0.255
-705.602	-100.520	0.235	-0.059
-704.587	-43.782	0.320	-0.163
-703.572	-139.861	-0.206	0.022
-702.558	111.519	-0.225	-0.274
-701.543	800.000	-0.013	0.043
-700.529	800.000	0.103	-0.391
-699.514	318.954	-0.122	-0.234
-698.499	800.000	0.051	0.185
-697.485	-200.000	-0.025	0.125
-696.470	-104.714	-0.196	0.046
-695.456	7.913	0.135	0.102
-694.441	27.618	-0.117	0.099
-693.426	225.589	-0.156	0.256
-692.412	208.319	-0.062	0.098
-691.397	-111.315	-0.334	-0.069
-690.383	-200.000	0.241	-0.001
-689.368	800.000	-0.047	0.151
-688.354	800.000	-0.111	0.412
-687.339	89.856	-0.212	0.239
-686.324	-164.088	0.202	-0.009
-685.310	-111.160	0.394	-0.081
-684.295	-70.991	-0.176	-0.067
-683.281	-200.000	-0.038	-0.274
-682.266	800.000	-0.079	-0.307
-681.251	111.622	0.105	0.128
-680.237	453.005	-0.113	-0.252
-679.222	-164.862	-0.076	-0.003
-678.208	-33.627	-0.084	0.047
-677.193	-200.000	-0.007	0.055
-676.178	-200.000	0.009	-0.151
-675.164	96.475	0.201	-0.232
-674.149	61.194	-0.125	-0.125
-673.135	-72.459	-0.281	-0.105
-672.120	527.048	0.051	-0.122
-671.105	-92.353	0.388	-0.110
-670.091	208.668	-0.076	-0.120
-669.076	-200.000	0.035	0.408
-668.062	-30.612	-0.125	0.071
-667.047	-118.007	0.294	0.053
-666.032	433.039	-0.145	-0.318
-665.018	-44.573	0.117	0.059
-664.003	71.540	-0.033	0.035
-662.989	204.609	0.085	-0.133
-661.974	223.231	-0.057	0.092
-660.959	800.000	-0.031	-0.121
-659.945	144.595	0.083	-0.112
-658.930	18.181	0.166	0.133
-657.916	-23.072	-0.155	-0.094
-656.901	-50.037	-0.068	0.032
-655.886	-120.057	0.263	-0.045
-654.872	264.611	0.116	-0.203
-653.857	-36.471	0.429	-0.233
-652.843	-24.010	-0.031	-0.018
-651.828	800.000	-0.065	0.238
-650.814	85.495	0.130	-0.144
-649.799	-62.693	-0.290	-0.121
-648.784	-113.340	-0.196	-0.039
-647.770	-200.000	0.011	-0.225
-646.755	-200.000	-0.018	-0.154
-645.741	-156.904	0.205	0.013
-644.726	5.499	0.184	0.137
-643.711	210.130	-0.058	0.091
-642.697	-200.000	-0.020	-0.347
-641.682	800.000	0.046	0.199
-640.668	124.240	-0.113	0.143
-639.653	-78.688	0.235	-0.081
-638.638	-179.062	-0.217	-0.005
-637.624	-76.997	0.301	-0.106
-636.609	68.645	0.069	0.071
-635.595	-87.368	0.219	-0.067
-634.580	46.478	0.057	-0.053
-633.565	337.748	0.037	-0.072
-632.551	-75.244	-0.095	0.034
-631.536	595.500	-0.143	-0.357
-630.522	-200.000	-0.029	-0.376
-629.507	-80.512	0.113	0.038
-628.492	415.005	0.038	-0.082
-627.478	-107.264	-0.014	-0.003
-626.463	573.212	-0.010	-0.025
-625.449	2.448	-0.290	-0.211
-624.434	-95.081	0.038	-0.010
-623.419	-200.000	-0.016	-0.474
-622.405	89.296	-0.208	-0.233
-621.390	800.000	-0.062	0.239
-620.376	-200.000	-0.015	-0.074
-619.361	677.603	0.121	-0.316
-618.346	530.237	0.035	0.084
-617.332	327.194	-0.030	0.057
-616.317	92.158	-0.047	-0.053
-615.303	193.922	0.035	0.053
-614.288	94.032	-0.145	-0.166
-613.273	17.939	0.279	0.223
-612.259	-200.000	0.035	0.193
-611.244	442.788	0.040	-0.089
-610.230	108.640	0.122	-0.147
-609.215	68.108	-0.170	0.175
-608.201	51.960	0.187	0.179
-607.186	-125.634	-0.145	-0.022
-606.171	-56.803	-0.080	0.035
-605.157	137.409	0.103	-0.135
-604.142	-135.460	0.161	-0.019
-603.128	-151.942	-0.078	-0.006
-602.113	-125.103	0.105	0.016
-601.098	-49.367	-0.072	-0.035
-600.084	134.159	0.109	-0.142
-599.069	150.742	0.243	0.332
-598.055	-162.175	-0.129	0.007
-597.040	278.521	-0.132	0.237
-596.025	-7.256	-0.155	0.106
-595.011	638.948	-0.103	-0.263
-593.996	54.246	0.015	0.015
-592.982	302.655	-0.131	0.244
-591.967	658.630	-0.048	0.123
-590.952	-173.241	-0.177	-0.005
-589.938	-200.000	-0.035	-0.214
-588.923	800.000	-0.085	-0.311
-587.909	-93.939	0.464	-0.128
-586.894	-200.000	0.263	0.001
-585.879	-55.646	0.248	-0.111
-584.865	-93.989	-0.171	0.047
-583.850	-102.396	-0.170	0.041
-582.836	-51.313	0.215	0.101
-581.821	-200.000	0.001	0.199
-580.806	-79.730	-0.224	-0.076
-579.792	-111.081	0.127	-0.026
-578.777	29.234	-0.136	0.116
-577.763	-53.631	-0.151	-0.069
-576.748	-158.117	-0.091	0.005
-575.733	-65.544	-0.142	-0.057
-574.719	-200.000	-0.034	-0.278
-573.704	-111.148	-0.296	-0.061
-572.690	-29.806	-0.283	-0.162
-571.675	800.000	0.085	-0.350
-570.661	-200.000	0.004	-0.243
-569.646	-51.996	0.234	-0.109
-568.631	328.417	0.096	0.185
-567.617	-98.699	-0.197	-0.051
-566.602	414.696	-0.074	-0.159
-565.588	-200.000	0.001	-0.231
-564.573	113.561	-0.266	0.325
-563.558	556.973	0.130	0.316
-562.544	-200.000	0.013	0.556
-561.529	-12.309	-0.091	0.060
-560.515	21.174	-0.224	-0.183
-559.500	-7.464	0.198	0.135
-558.485	53.957	0.228	0.220
-557.471	-153.996	0.191	0.013
-556.456	19.473	-0.253	-0.204
-555.442	703.619	-0.106	-0.279
-554.427	-69.216	-0.154	0.059
-553.412	318.844	0.088	0.167
-552.398	-165.784	0.245	-0.011
-551.383	-200.000	0.005	0.156
-550.369	800.000	-0.086	0.262
-549.354	8.696	0.192	-0.146
-548.339	-42.714	0.254	-0.130
-547.325	-200.000	-0.030	0.184
-546.310	-187.115	-0.176	0.002
-545.296	83.951	0.191	-0.209
-544.281	53.758	0.203	0.195
-543.266	39.910	-0.146	0.132
-542.252	103.244	-0.397	0.467
-541.237	-200.000	-0.037	-0.308
-540.223	51.073	0.092	-0.087
-539.208	-200.000	-0.058	0.286
-538.193	304.509	-0.105	0.195
-537.179	-132.921	-0.148	0.019
-536.164	-45.251	0.146	-0.073
-535.150	181.398	-0.099	0.146
-534.135	-114.119	-0.116	0.022
-533.121	-200.000	-0.029	0.276
-532.106	-48.330	0.037	-0.018
-531.091	800.000	0.108	0.326
-530.077	-174.082	0.034	-0.001
-529.062	3.187	0.249	-0.181
-528.048	768.276	-0.031	-0.084
-527.033	-44.869	0.079	-0.040
-526.018	800.000	0.055	0.181
-525.004	-200.000	-0.033	0.363
-523.989	-68.532	-0.187	-0.073
-522.975	68.973	0.305	-0.314
-521.960	500.261	0.108	0.250
-520.945	188.846	0.093	-0.139
-519.931	-35.252	-0.289	0.158
-518.916	-66.344	0.210	-0.084
-517.902	-53.282	0.318	0.146
-516.887	90.809	-0.322	-0.362
-515.872	-200.000	-0.007	-0.283
-514.858	9.400	-0.175	-0.133
-513.843	-200.000	0.028	-0.266
-512.829	-30.255	0.259	-0.147
-511.814	161.679	-0.098	-0.138
-510.799	142.501	0.156	0.207
-509.785	-55.176	-0.143	0.065
-508.770	-72.717	-0.065	0.024
-507.756	-200.000	-0.055	-0.463
-506.741	137.084	-0.227	-0.297
-505.726	-200.000	-0.021	0.139
-504.712	78.519	-0.096	-0.103
-503.697	-200.000	0.033	0.250
-502.683	-27.116	0.356	-0.208
-501.668	787.469	-0.015	-0.041
-500.653	800.000	-0.033	-0.117
-499.639	-83.713	-0.433	0.138
-498.624	-12.610	0.191	0.125
-497.610	286.093	-0.074	-0.134
-496.595	-82.094	-0.028	-0.009
-495.581	-200.000	0.008	0.261
-494.566	705.348	-0.034	0.089
-493.551	43.805	-0.192	-0.176
-492.537	-173.241	0.436	0.013
-491.522	-67.231	-0.207	-0.081
-490.508	100.559	0.133	0.155
-489.493	108.807	-0.144	-0.173
-488.478	5.419	-0.115	-0.085
-487.464	-28.071	0.264	0.153
-486.449	-200.000	0.027	0.293
-485.435	-106.944	-0.130	0.029
-484.420	-10.820	0.243	-0.161
-483.405	-200.000	0.017	-0.148
-482.391	54.013	0.185	0.178
-481.376	170.156	-0.085	0.122
-480.362	-165.992	0.318	0.014
-479.347	198.444	-0.216	0.331
-478.332	269.652	-0.131	0.231
-477.318	88.910	-0.215	-0.240
-476.303	-48.058	-0.391	-0.189
-475.289	-200.000	0.011	-0.093
-474.274	800.000	-0.083	-0.308
-473.259	-94.719	0.160	-0.043
-472.245	-131.605	0.116	0.015
-471.230	-83.815	-0.179	0.057
-470.216	10.122	-0.135	-0.103
-469.201	97.608	0.137	0.158
-468.186	92.557	0.234	0.264
-467.172	203.953	0.181	0.281
-466.157	-61.676	-0.076	-0.032
-465.143	800.000	-0.087	-0.280
-464.128	144.172	-0.330	-0.440
-463.113	-200.000	0.004	-0.205
-462.099	-112.306	0.191	0.038
-461.084	200.178	-0.104	0.159
-460.070	-4.122	-0.044	-0.030
-459.055	-35.305	-0.295	-0.161
-458.040	169.058	0.107	-0.153
-457.026	19.452	0.311	0.250
-456.011	105.140	0.208	0.246
-454.997	219.394	-0.038	-0.060
-453.982	-200.000	-0.001	-0.161
-452.968	-13.594	0.208	0.135
-451.953	260.041	-0.155	0.268
-450.938	-18.302	-0.113	0.071
-449.924	-30.156	-0.401	0.228
-448.909	-126.332	0.209	-0.031
-447.895	-180.724	0.290	0.006
-446.880	-155.690	-0.415	-0.027
-445.865	127.788	-0.181	-0.230
-444.851	90.232	0.263	0.294
-443.836	144.602	-0.072	-0.096
-442.822	800.000	-0.099	-0.406
-441.807	14.070	0.119	0.093
-440.792	-200.000	0.007	0.327
-439.778	-200.000	0.015	-0.228
-438.763	507.948	-0.123	0.285
-437.749	213.745	0.164	0.259
-436.734	104.199	-0.028	0.032
-435.719	46.880	-0.260	0.241
-434.705	169.509	0.053	-0.076
-433.690	-67.289	0.235	-0.093
-432.676	13.243	0.033	-0.025
-431.661	441.364	-0.044	0.096
-430.646	502.665	0.110	-0.255
-429.632	-18.889	-0.156	-0.097
-428.617	231.372	-0.132	-0.217
-427.603	-17.276	-0.202	0.127
-426.588	4.738	0.089	0.065
-425.573	-146.056	-0.556	-0.049
-424.559	-42.837	-0.380	-0.193
-423.544	-139.547	0.279	0.030
-422.530	-33.225	-0.040	0.022
-421.515	-11.059	0.079	-0.052
-420.500	175.347	0.048	-0.070
-419.486	-33.624	-0.257	-0.142
-418.471	203.894	-0.225	0.348
-417.457	-55.060	-0.184	-0.083
-416.442	335.092	0.176	-0.341
-415.428	-73.918	-0.052	0.019
-414.413	151.863	0.119	0.162
-413.398	800.000	-0.018	0.056
-412.384	429.202	0.065	-0.141
-411.369	-200.000	0.007	-0.033
-410.355	-111.695	0.083	-0.017
-409.340	313.156	-0.140	-0.262
-408.325	800.000	-0.026	-0.099
-407.311	75.728	-0.084	-0.089
-406.296	276.451	0.083	-0.147
-405.282	-45.915	0.183	-0.090
-404.267	-141.777	-0.095	0.010
-403.252	-200.000	0.001	-0.243
-402.238	-86.410	-0.190	0.058
-401.223	362.020	-0.224	-0.449
-400.209	-41.749	-0.209	0.107
-399.194	199.580	-0.205	0.313
-398.179	-32.877	0.273	-0.151
-397.165	144.974	0.147	-0.196
-396.150	53.015	-0.212	-0.203
-395.136	83.827	-0.098	0.107
-394.121	-200.000	0.058	-0.271
-393.106	39.147	-0.102	-0.091
-392.092	-71.666	0.083	-0.031
-391.077	800.000	-0.080	0.228
-390.063	53.753	-0.139	-0.133
-389.048	142.586	0.196	-0.260
-388.033	800.000	-0.051	0.175
-387.019	-4.980	0.201	0.138
-386.004	-200.000	0.024	0.238
-384.990	-26.298	-0.244	-0.143
-383.975	376.123	0.028	0.056
-382.960	-159.461	0.338	0.019
-381.946	-92.053	0.160	0.045
-380.931	19.119	0.106	-0.085
-379.917	83.295	0.191	-0.207
-378.902	51.981	0.051	0.049
-377.888	-92.763	0.094	-0.026
-376.873	-164.586	-0.442	0.020
-375.858	-200.000	-0.001	0.115
-374.844	-200.000	-0.068	0.483
-373.829	-63.061	0.109	-0.045
-372.815	-95.559	0.164	-0.044
-371.800	781.017	0.022	-0.059
-370.785	-151.074	0.129	-0.010
-369.771	-97.512	0.238	-0.062
-368.756	580.904	-0.102	-0.248
-367.742	100.082	-0.060	-0.069
-366.727	-115.012	-0.438	-0.083
-365.712	102.202	-0.305	-0.355
-364.698	356.000	0.181	-0.359
-363.683	-200.000	0.068	0.320
-362.669	118.606	0.135	0.167
-361.654	231.983	0.212	-0.347
-360.639	139.790	0.183	0.240
-359.625	800.000	0.054	0.155
-358.610	480.994	-0.115	0.260
-357.596	-147.424	0.494	0.042
-356.581	800.000	-0.108	-0.300
-355.566	58.716	-0.066	0.064
-354.552	265.605	-0.149	-0.259
-353.537	-132.280	0.307	-0.040
-352.523	119.716	-0.252	-0.311
-351.508	131.033	0.298	-0.381
-350.493	-192.803	0.427	-0.004
-349.479	149.455	-0.075	0.102
-348.464	-200.000	-0.101	0.443
-347.450	-52.367	0.304	-0.140
-346.435	-117.884	0.177	0.032
-345.420	800.000	0.055	-0.202
-344.406	-104.538	0.341	0.079
-343.391	-43.308	-0.115	0.058
-342.377	481.709	0.054	-0.123
-341.362	12.180	-0.092	-0.071
-340.348	-29.538	0.244	0.139
-339.333	-7.345	0.308	-0.208
-338.318	713.396	-0.075	0.199
-337.304	-200.000	-0.012	0.128
-336.289	18.780	0.066	-0.052
-335.275	162.303	-0.187	-0.261
-334.260	800.000	0.011	0.033
-333.245	107.364	-0.147	0.174
-332.231	-119.236	-0.090	0.016
-331.216	161.205	0.090	0.125
-330.202	-152.673	0.124	-0.009
-329.187	-15.359	0.099	0.063
-328.172	155.961	0.033	-0.045
-327.158	42.230	-0.083	0.075
-326.143	239.905	-0.081	-0.135
-325.129	465.078	0.059	0.132
-324.114	-32.901	-0.113	-0.062
-323.099	-200.000	0.052	-0.240
-322.085	800.000	0.092	-0.273
-321.070	-23.856	0.226	-0.135
-320.056	-96.672	-0.109	-0.029
-319.041	-165.716	-0.219	-0.009
-318.026	133.652	0.136	0.175
-317.012	-3.647	0.260	0.180
-315.997	-200.000	0.001	0.226
-314.983	-151.844	-0.270	-0.020
-313.968	44.898	-0.330	0.302
-312.953	-116.140	0.217	0.040
-311.939	-200.000	0.034	0.346
-310.924	-200.000	0.072	0.346
-309.910	537.106	-0.052	-0.124
-308.895	107.457	0.143	-0.170
-307.880	-61.087	-0.201	0.084
-306.866	-102.095	0.352	-0.084
-305.851	800.000	0.036	-0.116
-304.837	800.000	0.097	0.293
-303.822	21.887	0.136	0.110
-302.807	-110.362	-0.007	-0.001
-301.793	-200.000	0.004	0.109
-300.778	-200.000	0.041	0.218
-299.764	59.268	0.086	-0.084
-298.749	-112.129	0.036	-0.007
-297.735	8.167	0.200	-0.149
-296.720	18.706	0.088	0.070
-295.705	225.540	-0.082	0.132
-294.691	27.237	0.078	0.065
-293.676	-80.778	0.281	0.093
-292.662	3.327	-0.083	-0.060
-291.647	44.719	-0.074	0.068
-290.632	-61.924	0.406	-0.169
-289.618	-20.730	-0.217	0.132
-288.603	-200.000	-0.007	-0.091
-287.589	-200.000	-0.102	0.500
-286.574	-156.112	0.323	-0.020
-285.559	-53.394	-0.291	-0.133
-284.545	-99.668	0.368	0.092
-283.530	800.000	0.061	-0.262
-282.516	-184.791	0.097	0.002
-281.501	29.017	-0.186	0.157
-280.486	-93.753	0.205	-0.056
-279.472	-77.003	0.147	-0.051
-278.457	125.448	-0.003	-0.004
-277.443	13.654	-0.008	-0.006
-276.428	800.000	0.084	0.243
-275.413	349.530	-0.050	0.099
-274.399	144.120	0.101	0.133
-273.384	-200.000	-0.064	0.324
-272.370	11.496	-0.180	-0.137
-271.355	-200.000	-0.021	0.383
-270.340	-99.528	-0.010	-0.003
-269.326	-90.996	0.405	0.116
-268.311	37.830	-0.086	-0.076
-267.297	-16.815	0.238	0.150
-266.282	-161.046	0.210	-0.011
-265.267	261.668	-0.071	-0.123
-264.253	-68.239	-0.035	-0.013
-263.238	-23.577	0.190	-0.113
-262.224	-36.689	-0.134	-0.071
-261.209	47.482	0.062	0.058
-260.195	-200.000	0.000	-0.380
-259.180	-7.686	0.050	0.034
-258.165	-62.707	-0.175	0.072
-257.151	800.000	-0.102	-0.325
-256.136	-120.712	-0.248	-0.042
-255.122	70.423	-0.057	0.058
-254.107	98.674	-0.207	-0.237
-253.092	-83.301	0.144	-0.046
-252.078	-128.987	0.274	-0.038
-251.063	586.461	-0.139	-0.339
-250.049	15.222	-0.206	0.160
-249.034	121.429	0.088	-0.109
-248.019	-72.242	0.455	0.167
-247.005	-50.574	-0.120	0.056
-245.990	-30.812	-0.043	-0.024
-244.976	121.290	0.232	-0.287
-243.961	37.197	-0.257	0.226
-242.946	575.400	-0.212	0.514
-241.932	-200.000	-0.021	0.193
-240.917	-200.000	0.007	0.409
-239.903	-184.061	-0.194	-0.003
-238.888	-187.319	-0.120	0.002
-237.873	511.653	0.219	-0.506
-236.859	123.894	-0.184	-0.230
-235.844	-44.415	-0.116	-0.057
-234.830	-26.651	0.180	0.104
-233.815	-200.000	-0.024	-0.209
-232.800	253.136	-0.106	-0.179
-231.786	242.169	0.121	0.202
-230.771	116.022	0.091	-0.111
-229.757	-200.000	0.003	0.038
-228.742	-8.158	0.204	0.136
-227.727	-92.576	0.175	0.049
-226.713	-61.036	-0.142	0.059
-225.698	213.560	0.044	0.068
-224.684	-44.863	0.146	0.072
-223.669	113.153	-0.089	-0.107
-222.655	-200.000	0.068	0.377
-221.640	70.787	-0.105	0.108
-220.625	375.644	-0.179	0.361
-219.611	307.490	0.118	0.219
-218.596	-106.344	0.116	-0.026
-217.582	-152.713	-0.079	-0.006
-216.567	45.792	-0.204	-0.187
-215.552	-200.000	0.033	0.171
-214.538	-5.525	-0.103	0.070
-213.523	-105.286	-0.102	0.023
-212.509	800.000	-0.041	0.175
-211.494	-200.000	-0.043	-0.207
-210.479	-9.900	0.274	-0.180
-209.465	-200.000	0.014	0.261
-208.450	-163.630	0.371	-0.017
-207.436	37.362	-0.032	-0.028
-206.421	-200.000	-0.033	-0.225
-205.406	800.000	-0.065	0.272
-204.392	-158.765	0.288	-0.016
-203.377	101.082	-0.205	0.236
-202.363	-54.947	-0.126	-0.056
-201.348	800.000	0.023	0.096
-200.333	-200.000	-0.015	0.287
-199.319	21.094	-0.108	-0.087
-198.304	-178.008	0.207	0.005
-197.290	800.000	-0.091	0.279
-196.275	-111.522	-0.180	-0.036
-195.260	-149.905	-0.338	-0.026
-194.246	-187.117	0.425	0.006
-193.231	144.237	-0.057	0.075
-192.217	-132.450	-0.296	-0.038
-191.202	-54.152	-0.192	-0.087
-190.187	-154.930	0.350	0.023
-189.173	800.000	-0.069	0.242
-188.158	-200.000	-0.325	-0.001
-187.144	318.787	0.182	-0.341
-186.129	-65.764	0.129	-0.051
-185.114	-66.397	0.294	-0.116
-184.100	334.131	-0.116	-0.222
-183.085	-200.000	-0.042	0.244
-182.071	376.626	-0.072	0.145
-181.056	-86.737	-0.210	-0.064
-180.042	94.082	-0.087	0.098
-179.027	-28.794	0.185	-0.106
-178.012	73.245	0.143	-0.148
-176.998	-47.679	-0.167	0.080
-175.983	312.782	-0.058	-0.107
-174.969	-77.211	0.263	-0.091
-173.954	-200.000	0.033	0.228
-172.939	-52.011	0.261	0.120
-171.925	800.000	0.098	0.290
-170.910	-200.000	0.007	0.215
-169.896	-26.788	-0.120	0.069
-168.881	-200.000	-0.018	-0.163
-167.866	-64.666	-0.277	0.111
-166.852	-54.381	-0.210	-0.094
-165.837	-200.000	-0.019	-0.182
-164.823	520.295	0.057	-0.132
-163.808	35.667	-0.207	0.180
-162.793	108.136	-0.096	0.113
-161.779	109.674	-0.080	0.095
-160.764	-200.000	-0.022	-0.115
-159.750	800.000	-0.017	-0.070
-158.735	47.378	-0.166	-0.153
-157.720	-27.742	-0.187	0.107
-156.706	800.000	-0.016	0.070
-155.691	-68.769	-0.177	-0.068
-154.677	-200.000	0.006	0.029
-153.662	-48.587	-0.303	-0.144
-152.647	563.227	-0.117	0.280
-151.633	-49.816	-0.254	0.119
-150.618	-200.000	0.019	-0.138
-149.604	644.872	-0.077	-0.194
-148.589	61.174	0.128	-0.126
-147.574	66.758	0.269	-0.270
-146.560	800.000	-0.118	-0.432
-145.545	-103.026	0.252	-0.059
-144.531	64.921	-0.096	0.096
-143.516	-134.165	0.473	-0.058
-142.502	-17.277	-0.116	-0.072
-141.487	-120.611	-0.083	0.014
-140.472	-112.182	-0.455	-0.090
-139.458	39.268	0.342	0.302
-138.443	110.532	-0.143	0.170
-137.429	-200.000	-0.038	-0.168
-136.414	289.233	-0.207	-0.372
-135.399	800.000	-0.032	-0.124
-134.385	-49.786	0.037	-0.017
-133.370	-153.825	0.289	0.020
-132.356	-175.455	-0.272	0.007
-131.341	46.310	-0.371	-0.340
-130.326	-99.828	0.441	0.109
-129.312	-200.000	-0.096	0.532
-128.297	129.652	-0.322	0.407
-127.283	30.190	0.168	-0.142
-126.268	800.000	0.040	0.159
-125.253	800.000	0.053	0.193
-124.239	-4.124	0.071	-0.049
-123.224	82.614	-0.192	-0.206
-122.210	-200.000	-0.057	0.265
-121.195	452.376	-0.059	-0.129
-120.180	550.343	-0.072	-0.171
-119.166	581.404	0.079	0.192
-118.151	-200.000	-0.019	-0.135
-117.137	54.199	0.107	-0.102
-116.122	-9.938	0.172	-0.113
-115.107	208.518	-0.098	0.151
-114.093	325.676	-0.179	0.337
-113.078	-180.177	-0.243	-0.005
-112.064	-1.682	-0.215	0.150
-111.049	443.614	0.060	0.130
-110.034	39.816	-0.129	0.114
-109.020	95.632	-0.174	-0.196
-108.005	-144.804	-0.168	-0.015
-106.991	-43.212	0.089	0.045
-105.976	-74.574	-0.079	0.028
-104.962	-1.420	0.267	-0.186
-103.947	800.000	0.074	0.315
-102.932	27.665	-0.073	-0.061
-101.918	76.133	-0.066	0.069
-100.903	-140.786	0.232	-0.024
-99.889	38.326	0.099	-0.087
-98.874	89.713	0.225	-0.248
-97.859	-63.028	0.240	0.098
-96.845	800.000	-0.140	0.516
-95.830	301.103	0.050	0.091
-94.816	515.800	-0.193	-0.446
-93.801	56.492	-0.140	0.134
-92.786	196.293	0.172	0.259
-91.772	-58.678	-0.213	-0.091
-90.757	-63.832	0.359	-0.145
-89.743	11.700	0.224	0.170
-88.728	-122.983	-0.042	0.007
-87.713	-149.182	0.268	-0.021
-86.699	246.842	0.062	-0.103
-85.684	-200.000	0.002	-0.103
-84.670	34.326	0.088	0.076
-83.655	-30.877	-0.163	-0.091
-82.640	118.999	-0.093	-0.113
-81.626	800.000	0.057	0.200
-80.611	-200.000	-0.021	0.215
-79.597	-200.000	-0.063	0.357
-78.582	-135.951	0.122	0.014
-77.567	726.210	0.123	-0.324
-76.553	-105.545	-0.105	-0.023
-75.538	-200.000	0.022	-0.353
-74.524	-32.426	0.189	0.104
-73.509	-125.940	-0.213	0.032
-72.494	-79.274	-0.337	0.113
-71.480	-114.837	0.146	-0.027
-70.465	-14.718	-0.115	0.073
-69.451	800.000	0.057	-0.203
-68.436	-6.058	0.213	-0.144
-67.422	-200.000	0.026	-0.328
-66.407	81.235	-0.279	-0.297
-65.392	586.274	0.119	-0.288
-64.378	-69.504	-0.147	-0.055
-63.363	-106.316	0.404	0.089
-62.349	-200.000	-0.037	0.170
-61.334	110.988	-0.962	-1.141
-60.319	-200.000	0.191	0.890
-59.305	800.000	-0.296	-0.871
-58.290	218.787	0.813	1.280
-57.276	504.900	0.632	1.443
-56.261	-200.000	113.317	645.881
-55.246	469.848	1500.385	3320.618
-54.232	145.301	2672.655	3523.566
-53.217	94.804	2319.596	2598.702
-52.203	34.430	2069.022	1778.815
-51.188	29.683	1984.492	1663.463
-50.173	28.306	1966.883	1636.346
-49.159	46.832	2024.872	1852.961
-48.144	45.850	2040.791	1858.567
-47.130	30.330	1999.549	1681.689
-46.115	27.948	1989.676	1651.814
-45.100	27.883	1986.610	1648.610
-44.086	27.848	1984.573	1646.537
-43.071	27.827	1982.011	1644.164
-42.057	27.748	1980.053	1641.759
-41.042	27.811	1978.092	1640.638
-40.027	27.768	1976.712	1639.044
-39.013	27.807	1974.753	1637.698
-37.998	27.868	1972.475	1636.294
-36.984	27.903	1970.772	1635.129
-35.969	27.836	1969.053	1633.042
-34.954	27.828	1967.562	1631.662
-33.940	27.873	1965.813	1630.550
-32.925	27.962	1963.910	1629.702
-31.911	27.919	1962.345	1627.952
-30.896	27.951	1960.850	1626.933
-29.881	27.923	1959.806	1625.754
-28.867	28.007	1957.614	1624.623
-27.852	27.971	1956.356	1623.189
-26.838	28.013	1954.468	1621.936
-25.823	27.974	1952.732	1620.085
-24.809	27.971	1950.625	1618.240
-23.794	27.927	1948.834	1616.306
-22.779	27.993	1947.065	1615.358
-21.765	27.928	1945.636	1613.534
-20.750	27.985	1943.717	1612.379
-19.736	27.943	1942.386	1610.846
-18.721	27.947	1940.712	1609.429
-17.706	27.904	1939.335	1607.841
-16.692	27.928	1937.677	1606.609
-15.677	28.023	1935.932	1605.935
-14.663	27.967	1934.575	1604.261
-13.648	27.978	1933.583	1603.470
-12.633	27.962	1931.756	1601.747
-11.619	27.994	1931.010	1601.349
-10.604	27.973	1930.014	1600.271
-9.590	27.994	1927.744	1598.510
-8.575	27.945	1926.712	1597.160
-7.560	27.962	1925.419	1596.173
-6.546	27.944	1924.053	1594.821
-5.531	28.002	1922.558	1594.030
-4.517	27.923	1921.585	1592.469
-3.502	27.979	1920.655	1592.121
-2.487	27.940	1919.187	1590.499
-1.473	28.001	1918.089	1590.060
-0.458	28.025	1912.963	1585.953
0.556	25.809	1893.148	1555.550
1.571	21.308	1873.255	1500.512
2.586	16.986	1894.790	1480.001
3.600	15.762	1929.178	1495.853
4.615	15.715	1923.310	1490.753
5.629	12.259	1824.040	1384.580
6.644	4.966	1707.880	1238.514
7.659	0.572	1672.296	1178.364
8.673	0.190	1669.288	1173.171
9.688	0.204	1667.741	1172.087
10.702	0.089	1666.269	1170.055
11.717	0.016	1662.500	1166.737
12.731	0.595	1662.010	1170.781
13.746	6.284	1673.728	1223.254
14.761	13.873	1689.898	1294.324
15.775	17.095	1694.568	1322.934
16.790	16.911	1692.777	1319.989
17.804	15.971	1688.757	1309.435
18.819	15.009	1685.539	1299.358
19.834	14.349	1683.585	1292.612
20.848	14.147	1681.626	1289.434
21.863	13.823	1680.528	1285.962
22.877	13.551	1678.951	1282.539
23.892	13.326	1677.422	1279.517
24.907	13.292	1676.329	1278.307
25.921	13.285	1675.024	1277.148
26.936	13.257	1674.001	1276.034
27.950	13.258	1673.608	1275.628
28.965	13.350	1672.421	1275.324
29.980	13.333	1671.853	1274.646
30.994	13.496	1670.713	1274.916
32.009	13.502	1669.879	1274.214
33.023	13.492	1669.365	1273.631
34.038	13.648	1668.071	1273.734
35.053	13.575	1667.422	1272.561
36.067	13.493	1666.028	1270.760
37.082	13.453	1664.972	1269.531
38.096	13.452	1664.482	1269.042
39.111	13.408	1663.286	1267.680
40.126	13.489	1662.604	1267.670
41.140	13.422	1661.917	1266.521
42.155	13.440	1659.972	1265.065
43.169	13.322	1659.064	1263.352
44.184	13.360	1657.271	1262.169
45.199	13.312	1656.054	1260.768
46.213	13.261	1655.254	1259.654
47.228	13.293	1654.117	1258.924
48.242	13.311	1652.932	1258.047
49.257	13.353	1651.489	1257.155
50.271	13.287	1650.823	1256.032
51.286	13.341	1649.439	1255.285
52.301	13.355	1647.991	1254.174
53.315	13.488	1646.284	1253.767
54.330	13.388	1644.301	1251.391
55.344	13.314	1642.946	1249.690
56.359	13.341	1641.456	1248.650
57.374	13.282	1640.893	1247.666
58.388	13.375	1639.002	1246.823
59.403	13.260	1637.666	1244.832
60.417	13.212	1636.563	1243.518
61.432	13.259	1635.439	1242.906
62.447	13.269	1633.899	1241.705
63.461	13.223	1633.021	1240.580
64.476	13.122	1632.233	1239.117
65.490	13.172	1630.915	1238.378
66.505	13.100	1629.805	1236.887
67.520	13.149	1628.697	1236.304
68.534	13.112	1627.463	1234.985
69.549	13.168	1626.489	1234.551
70.563	13.228	1625.408	1234.072
71.578	13.161	1624.127	1232.488
72.593	13.142	1623.083	1231.449
73.607	13.128	1621.892	1230.330
74.622	13.111	1620.662	1229.158
75.636	13.110	1619.963	1228.516
76.651	13.170	1618.649	1227.854
77.666	13.101	1618.110	1226.825
78.680	13.012	1617.480	1225.574
79.695	13.167	1615.992	1225.494
80.709	13.166	1615.070	1224.674
81.724	13.158	1614.414	1224.014
82.739	13.264	1613.718	1224.162
83.753	13.317	1612.474	1223.501
84.768	13.258	1611.948	1222.557
85.782	13.315	1611.409	1222.461
86.797	13.477	1609.979	1222.461
87.812	13.426	1608.965	1221.211
88.826	13.360	1607.306	1219.355
89.841	13.302	1606.515	1218.219
90.855	13.337	1605.609	1217.682
91.870	13.412	1604.437	1217.237
92.884	13.438	1603.341	1216.492
93.899	13.522	1602.493	1216.360
94.914	13.399	1601.753	1214.785
95.928	13.511	1600.104	1214.246
96.943	13.534	1598.530	1213.115
97.957	13.466	1597.288	1211.566
98.972	13.479	1595.806	1210.428
99.987	13.438	1594.826	1209.283
101.001	13.441	1592.904	1207.734
102.016	13.413	1591.397	1206.284
103.030	13.410	1589.853	1204.989
104.045	13.392	1589.122	1204.196
105.060	13.457	1587.181	1203.090
106.074	13.324	1586.288	1201.343
107.089	13.304	1584.432	1199.680
108.103	13.330	1582.426	1198.247
109.118	13.247	1581.220	1196.626
110.133	13.222	1580.456	1195.764
111.147	13.220	1578.868	1194.436
112.162	13.185	1577.633	1193.143
113.176	13.212	1576.174	1192.131
114.191	13.270	1574.725	1191.347
115.206	13.321	1573.528	1190.704
116.220	13.268	1572.557	1189.485
117.235	13.325	1570.670	1188.357
118.249	13.319	1569.704	1187.480
119.264	13.289	1568.078	1185.929
120.279	13.214	1567.449	1184.809
121.293	13.346	1565.208	1183.957
122.308	13.267	1563.991	1182.372
123.322	13.238	1562.046	1180.587
124.337	13.171	1561.421	1179.530
125.352	13.185	1559.646	1178.186
126.366	13.246	1558.550	1177.685
127.381	13.209	1557.345	1176.411
128.395	13.213	1556.639	1175.801
129.410	13.278	1555.099	1174.995
130.424	13.226	1554.076	1173.753
131.439	13.177	1552.710	1172.263
132.454	13.292	1550.936	1171.636
133.468	13.283	1549.471	1170.367
134.483	13.378	1548.074	1169.875
135.497	13.385	1546.698	1168.785
136.512	13.353	1545.922	1167.865
137.527	13.359	1544.019	1166.368
138.541	13.377	1542.876	1165.528
139.556	13.355	1541.750	1164.419
140.570	13.305	1540.116	1162.730
141.585	13.425	1538.126	1161.968
142.600	13.440	1537.460	1161.470
143.614	13.580	1535.789	1161.083
144.629	13.533	1534.675	1159.808
145.643	13.624	1533.112	1159.165
146.658	13.604	1531.679	1157.838
147.673	13.567	1530.634	1156.688
148.687	13.542	1529.053	1155.214
149.702	13.515	1527.569	1153.804
150.716	13.476	1526.489	1152.617
151.731	13.494	1524.636	1151.242
152.746	13.446	1523.530	1149.966
153.760	13.396	1522.270	1148.571
154.775	13.515	1520.690	1148.099
155.789	13.546	1519.345	1147.197
156.804	13.555	1518.208	1146.301
157.819	13.639	1516.623	1145.583
158.833	13.627	1515.987	1144.922
159.848	13.638	1514.910	1144.079
160.862	13.697	1513.471	1143.298
161.877	13.727	1512.163	1142.416
162.892	13.631	1511.169	1140.906
163.906	13.700	1509.694	1140.165
164.921	13.641	1508.528	1138.775
165.935	13.477	1507.918	1137.086
166.950	13.600	1506.505	1136.768
167.964	13.564	1505.141	1135.391
168.979	13.753	1504.154	1135.840
169.994	13.681	1502.983	1134.360
171.008	13.665	1502.138	1133.515
172.023	13.658	1500.835	1132.379
173.037	13.716	1499.486	1131.662
174.052	13.763	1498.566	1131.186
175.067	13.709	1497.596	1129.987
176.081	13.760	1496.439	1129.358
177.096	13.653	1495.177	1127.581
178.110	13.742	1493.804	1127.053
179.125	13.674	1492.753	1125.696
180.140	13.741	1491.542	1125.134
181.154	13.725	1490.771	1124.348
182.169	13.783	1489.704	1123.834
183.183	13.767	1488.482	1122.706
184.198	13.805	1487.061	1121.791
185.213	13.911	1485.764	1121.431
186.227	13.905	1485.128	1120.810
187.242	13.900	1484.150	1119.937
188.256	13.886	1483.066	1118.926
189.271	13.898	1481.848	1117.994
190.286	14.104	1480.768	1118.463
191.300	14.022	1479.828	1117.103
192.315	13.776	1478.685	1114.489
193.329	13.799	1477.196	1113.424
194.344	13.743	1476.048	1112.081
195.359	13.816	1475.234	1111.860
196.373	13.803	1474.199	1110.897
197.388	13.928	1472.987	1110.722
198.402	14.037	1471.854	1110.498
199.417	14.058	1470.736	1109.693
200.432	14.048	1470.203	1109.130
201.446	14.120	1469.217	1108.768
202.461	14.131	1468.353	1108.085
203.475	14.128	1467.184	1107.090
204.490	14.281	1465.459	1106.704
205.504	14.149	1464.839	1105.264
206.519	14.135	1463.205	1103.838
207.534	14.041	1462.639	1102.689
208.548	14.093	1461.031	1101.724
209.563	14.060	1460.179	1100.766
210.577	14.193	1459.203	1100.812
211.592	14.132	1458.341	1099.665
212.607	14.221	1457.615	1099.607
213.621	14.150	1457.310	1098.806
214.636	14.319	1456.039	1098.872
215.650	14.230	1455.443	1097.736
216.665	14.360	1453.408	1096.958
217.680	14.244	1453.213	1095.951
218.694	14.387	1452.592	1096.325
219.709	14.340	1451.849	1095.361
220.723	14.320	1450.438	1094.065
221.738	14.378	1449.297	1093.490
222.753	14.437	1448.492	1093.170
223.767	14.408	1447.274	1091.968
224.782	14.339	1447.093	1091.285
225.796	14.419	1445.522	1090.525
226.811	14.441	1444.814	1090.038
227.826	14.459	1444.080	1089.508
228.840	14.498	1443.155	1088.966
229.855	14.359	1442.617	1087.556
230.869	14.514	1441.058	1087.295
231.884	14.440	1440.368	1086.197
232.899	14.455	1438.974	1085.144
233.913	14.428	1438.105	1084.218
234.928	14.446	1436.873	1083.314
235.942	14.434	1436.038	1082.508
236.957	14.491	1434.364	1081.520
237.972	14.383	1433.339	1079.949
238.986	14.473	1432.004	1079.432
240.001	14.465	1431.285	1078.744
241.015	14.526	1430.482	1078.439
242.030	14.588	1428.735	1077.423
243.045	14.513	1428.364	1076.567
244.059	14.588	1427.267	1076.127
245.074	14.597	1426.417	1075.449
246.088	14.635	1425.879	1075.194
247.103	14.625	1425.200	1074.521
248.117	14.593	1424.397	1073.615
249.132	14.695	1423.120	1073.216
250.147	14.772	1422.561	1073.191
251.161	14.794	1422.382	1073.106
252.176	14.886	1421.471	1072.910
253.190	14.853	1420.859	1072.142
254.205	14.888	1419.576	1071.302
255.220	15.011	1419.143	1071.670
256.234	15.022	1418.341	1071.040
257.249	14.964	1417.371	1069.843
258.263	15.068	1416.472	1069.736
259.278	15.035	1415.509	1068.701
260.293	15.028	1414.924	1068.121
261.307	15.045	1414.054	1067.476
262.322	15.108	1413.043	1067.024
263.336	15.164	1412.141	1066.600
264.351	15.041	1411.433	1065.190
265.366	15.120	1410.339	1064.774
266.380	15.194	1409.137	1064.243
267.395	15.205	1408.210	1063.515
268.409	15.193	1407.386	1062.722
269.424	15.143	1406.668	1061.767
270.439	15.259	1404.973	1061.135
271.453	15.158	1404.387	1059.958
272.468	15.141	1403.655	1059.202
273.482	15.203	1402.859	1058.902
274.497	15.253	1402.021	1058.488
275.512	15.140	1400.975	1056.892
276.526	15.175	1400.401	1056.588
277.541	15.197	1399.195	1055.721
278.555	15.226	1398.591	1055.353
279.570	15.223	1397.668	1054.544
280.585	15.298	1396.468	1054.021
281.599	15.379	1395.281	1053.538
282.614	15.406	1394.684	1053.168
283.628	15.326	1393.550	1051.717
284.643	15.284	1392.771	1050.770
285.657	15.248	1392.032	1049.891
286.672	15.298	1391.115	1049.425
287.687	15.359	1389.883	1048.779
288.701	15.450	1388.477	1048.194
289.716	15.351	1387.929	1047.074
290.730	15.401	1387.499	1046.966
291.745	15.499	1386.228	1046.526
292.760	15.372	1385.402	1045.017
293.774	15.399	1384.532	1044.438
294.789	15.429	1383.253	1043.567
295.803	15.502	1382.312	1043.218
296.818	15.529	1381.700	1042.833
297.833	15.489	1380.528	1041.610
298.847	15.546	1379.749	1041.281
299.862	15.483	1378.936	1040.187
300.876	15.537	1377.727	1039.515
301.891	15.505	1376.711	1038.455
302.906	15.582	1376.214	1038.469
303.920	15.584	1375.374	1037.754
304.935	15.716	1374.595	1037.890
305.949	15.675	1373.549	1036.752
306.964	15.751	1372.457	1036.304
307.979	15.758	1371.941	1035.869
308.993	15.716	1371.065	1034.857
310.008	15.803	1369.784	1034.333
311.022	15.784	1368.773	1033.359
312.037	15.847	1367.952	1033.036
313.052	15.764	1367.284	1031.930
314.066	15.740	1366.175	1030.858
315.081	15.742	1365.211	1030.050
316.095	15.780	1363.827	1029.149
317.110	15.744	1363.221	1028.379
318.125	15.698	1362.346	1027.347
319.139	15.663	1361.465	1026.379
320.154	15.760	1360.062	1025.822
321.168	15.704	1359.244	1024.771
322.183	15.734	1358.228	1024.095
323.197	15.729	1357.566	1023.477
324.212	15.882	1356.332	1023.388
325.227	15.800	1355.897	1022.472
326.241	15.793	1354.788	1021.500
327.256	15.826	1353.914	1020.950
328.270	15.932	1352.966	1020.788
329.285	15.992	1351.771	1020.160
330.300	15.970	1351.193	1019.501
331.314	15.944	1350.291	1018.576
332.329	15.831	1349.288	1017.044
333.343	15.907	1348.247	1016.628
334.358	15.945	1347.755	1016.394
335.373	15.984	1346.820	1015.837
336.387	15.994	1346.016	1015.201
337.402	15.966	1345.474	1014.532
338.416	15.981	1344.870	1014.080
339.431	16.006	1344.084	1013.547
340.446	16.100	1343.310	1013.436
341.460	16.126	1342.140	1012.621
342.475	16.124	1341.400	1011.963
343.489	16.110	1340.660	1011.227
344.504	16.252	1339.813	1011.351
345.519	16.207	1338.557	1010.047
346.533	16.264	1337.670	1009.629
347.548	16.302	1336.512	1008.892
348.562	16.345	1336.072	1008.728
349.577	16.320	1335.197	1007.829
350.592	16.297	1334.211	1006.859
351.606	16.347	1333.554	1006.572
352.621	16.225	1332.363	1004.853
353.635	16.268	1331.313	1004.232
354.650	16.158	1330.550	1002.911
355.665	16.188	1329.710	1002.365
356.679	16.260	1328.357	1001.686
357.694	16.301	1327.160	1000.939
358.708	16.272	1326.282	1000.015
359.723	16.373	1325.184	999.699
360.738	16.386	1324.236	998.969
361.752	16.416	1323.139	998.233
362.767	16.421	1321.983	997.299
363.781	16.459	1320.983	996.683
364.796	16.397	1320.825	996.112
365.810	16.483	1319.884	995.818
366.825	16.469	1319.526	995.380
367.840	16.506	1318.430	994.683
368.854	16.551	1317.958	994.501
369.869	16.594	1317.430	994.267
370.883	16.722	1316.124	993.947
371.898	16.617	1315.714	992.933
372.913	16.578	1314.847	991.964
373.927	16.591	1313.696	991.081
374.942	16.645	1312.999	990.782
375.956	16.711	1312.427	990.649
376.971	16.638	1312.035	989.841
377.986	16.622	1311.008	988.883
379.000	16.584	1310.222	987.984
380.015	16.759	1309.438	988.325
381.029	16.761	1308.495	987.534
382.044	16.797	1307.716	987.071
383.059	16.811	1307.137	986.627
384.073	16.795	1306.824	986.214
385.088	16.874	1305.813	985.824
386.102	16.901	1304.875	985.180
387.117	17.011	1304.238	985.252
388.132	16.908	1303.475	983.991
389.146	16.931	1302.362	983.196
390.161	16.859	1301.988	982.413
391.175	16.815	1301.548	981.736
392.190	16.912	1300.123	981.140
393.205	16.824	1299.480	980.056
394.219	16.960	1298.149	979.751
395.234	16.975	1297.093	978.955
396.248	16.957	1295.544	977.596
397.263	16.965	1294.637	976.872
398.278	17.036	1292.922	975.900
399.292	16.890	1292.444	974.610
400.307	16.978	1291.044	973.977
401.321	16.861	1290.594	972.880
402.336	16.879	1289.202	971.846
403.350	16.978	1287.976	971.400
404.365	16.967	1287.260	970.715
405.380	17.084	1286.221	970.510
406.394	16.948	1286.038	969.513
407.409	16.950	1284.835	968.530
408.423	17.046	1284.304	968.590
409.438	17.057	1283.668	968.088
410.453	17.112	1282.749	967.625
411.467	17.197	1281.808	967.311
412.482	17.159	1281.679	966.911
413.496	17.372	1280.495	967.149
414.511	17.295	1279.969	966.227
415.526	17.338	1279.150	965.765
416.540	17.271	1278.916	965.121
417.555	17.402	1278.055	965.133
418.569	17.338	1277.548	964.302
419.584	17.417	1277.058	964.292
420.599	17.288	1276.178	962.814
421.613	96.660	1355.675	1475.715
422.628	94.382	1367.227	1475.835
