DTS Sentinel unit serial number:	SN413079Multiplexer serial number:	ORYXHardware model number:	OX4-SRSoftware version number:	ORYX F/W v4.00 Oryx Data Collector v3.7.2.0data status	okinstallation	princeton_trtdifferential loss correction	single-endedforward channel	channel 4reverse channel	N/Adate	2019/09/17time	03:37:35forward acquisition time	60.00reverse acquisition time	0.00gamma	496.2192k internal	0.2311k external	0.2311temperature offset calibration	0.9977default loss term (dB/km)	0.3790temperature slope calibration	1.0000multiplexer offset coefficient	1.0000multiplexer slope coefficient	1.0000fibre end	0.00T internal ref (°C)	30.00T ext. ref 1 (°C)	0.14T ext. ref 2 (°C)	24.55length (m)	temperature (°C)	Stokes	anti-Stokes-747.200	90.170	-0.070	-0.080
-746.185	-200.000	-0.029	0.266
-745.171	211.859	0.143	0.229
-744.156	83.959	-0.155	0.172
-743.142	462.144	-0.084	0.189
-742.127	245.886	-0.208	0.355
-741.112	-22.963	-0.351	0.215
-740.098	-200.000	-0.000	0.209
-739.083	-132.349	0.220	0.029
-738.069	-200.000	0.004	0.217
-737.054	-16.034	-0.217	0.140
-736.039	-200.000	0.014	0.069
-735.025	-158.433	0.070	0.004
-734.010	-136.506	-0.278	0.033
-732.996	-138.918	0.086	-0.010
-731.981	469.012	0.075	-0.170
-730.966	336.847	0.072	-0.142
-729.952	-39.113	0.082	0.044
-728.937	-34.667	0.080	-0.045
-727.923	188.040	-0.083	0.126
-726.908	-109.209	-0.083	0.018
-725.894	21.604	-0.226	-0.186
-724.879	-193.520	-0.201	0.002
-723.864	-65.275	-0.135	-0.055
-722.850	-103.252	0.355	0.085
-721.835	-72.084	-0.162	0.061
-720.821	-200.000	0.059	0.324
-719.806	-0.982	0.221	-0.158
-718.791	-200.000	-0.014	-0.094
-717.777	800.000	-0.083	-0.308
-716.762	-51.094	0.201	-0.096
-715.748	-61.368	0.334	-0.142
-714.733	39.328	-0.110	-0.100
-713.718	152.907	-0.209	-0.290
-712.704	-200.000	-0.000	0.397
-711.689	800.000	-0.022	-0.087
-710.675	-79.308	-0.114	0.039
-709.660	-73.096	0.125	-0.047
-708.645	-99.716	-0.193	-0.049
-707.631	91.797	-0.229	0.261
-706.616	-88.824	0.216	-0.065
-705.602	-158.518	-0.407	-0.024
-704.587	-74.300	0.104	0.038
-703.572	649.325	-0.090	0.234
-702.558	-81.305	0.144	-0.048
-701.543	-30.309	0.144	-0.083
-700.529	-85.478	-0.133	0.042
-699.514	280.722	0.167	-0.303
-698.499	103.002	0.101	-0.120
-697.485	41.617	-0.216	-0.198
-696.470	-200.000	0.001	-0.007
-695.456	27.797	0.115	0.098
-694.441	800.000	0.099	-0.434
-693.426	800.000	-0.042	-0.132
-692.412	639.998	0.039	-0.100
-691.397	-61.478	0.172	0.073
-690.383	-6.834	0.158	0.109
-689.368	-200.000	-0.011	-0.056
-688.354	-175.921	-0.104	0.003
-687.339	-200.000	-0.014	0.123
-686.324	-111.678	-0.121	0.025
-685.310	59.369	-0.113	-0.113
-684.295	581.882	-0.029	-0.071
-683.281	-200.000	-0.020	-0.462
-682.266	-32.539	0.090	0.051
-681.251	-33.357	0.145	-0.081
-680.237	-89.873	0.148	-0.044
-679.222	-42.707	-0.029	-0.015
-678.208	391.198	-0.100	-0.209
-677.193	-5.974	0.059	-0.041
-676.178	2.754	-0.366	-0.269
-675.164	-88.035	0.287	-0.087
-674.149	-177.131	0.183	-0.005
-673.135	800.000	-0.037	-0.116
-672.120	171.823	-0.167	0.243
-671.105	800.000	0.064	-0.207
-670.091	-39.481	0.133	-0.071
-669.076	-154.539	0.251	0.017
-668.062	-113.042	0.341	-0.068
-667.047	286.572	0.050	0.091
-666.032	604.208	0.023	-0.059
-665.018	-200.000	-0.011	-0.244
-664.003	-97.337	0.189	0.050
-662.989	-41.363	-0.153	-0.080
-661.974	-193.823	-0.241	0.002
-660.959	108.603	-0.178	0.215
-659.945	247.851	-0.106	-0.182
-658.930	-200.000	-0.007	-0.041
-657.916	800.000	0.068	-0.209
-656.901	-200.000	0.033	0.298
-655.886	-122.797	-0.087	-0.014
-654.872	-200.000	-0.043	-0.247
-653.857	45.249	0.160	-0.149
-652.843	316.297	-0.171	-0.326
-651.828	-200.000	-0.057	-0.334
-650.814	-171.683	0.340	-0.011
-649.799	-200.000	-0.003	-0.219
-648.784	-165.063	0.147	-0.007
-647.770	70.457	0.266	-0.278
-646.755	33.992	-0.155	0.137
-645.741	-200.000	-0.010	0.154
-644.726	96.378	0.088	-0.101
-643.711	110.979	-0.116	-0.141
-642.697	798.325	0.085	-0.236
-641.682	-200.000	-0.073	0.348
-640.668	-200.000	0.005	-0.156
-639.653	437.088	0.127	-0.280
-638.638	207.655	0.220	-0.347
-637.624	311.832	0.085	-0.161
-636.609	-200.000	-0.022	-0.137
-635.595	102.472	-0.092	-0.109
-634.580	445.952	-0.115	-0.256
-633.565	36.976	-0.143	0.128
-632.551	86.497	0.217	0.242
-631.536	800.000	-0.115	-0.461
-630.522	800.000	-0.095	-0.349
-629.507	-35.346	-0.202	-0.111
-628.492	-56.572	-0.077	0.034
-627.478	-200.000	-0.079	-0.374
-626.463	-138.007	0.140	-0.016
-625.449	800.000	-0.078	-0.278
-624.434	-200.000	-0.027	-0.144
-623.419	776.153	-0.063	0.173
-622.405	800.000	-0.061	-0.214
-621.390	27.225	0.301	-0.255
-620.376	-200.000	0.006	-0.133
-619.361	800.000	-0.023	0.082
-618.346	-91.641	0.369	0.106
-617.332	156.812	-0.149	0.209
-616.317	106.930	0.132	-0.158
-615.303	-200.000	0.026	-0.189
-614.288	170.471	-0.168	-0.243
-613.273	-35.412	-0.346	-0.190
-612.259	540.522	-0.048	-0.116
-611.244	275.583	-0.065	-0.116
-610.230	1.572	-0.084	-0.061
-609.215	673.782	-0.113	-0.296
-608.201	5.336	0.081	-0.060
-607.186	-20.455	0.220	-0.137
-606.171	117.346	0.269	-0.335
-605.157	-13.481	0.185	0.121
-604.142	800.000	-0.041	0.129
-603.128	-200.000	0.020	-0.278
-602.113	175.474	0.224	-0.328
-601.098	-31.149	-0.269	0.153
-600.084	-33.475	-0.133	0.074
-599.069	-200.000	0.053	0.363
-598.055	230.826	0.074	0.122
-597.040	-200.000	-0.238	0.000
-596.025	-143.451	-0.436	0.042
-595.011	-119.950	-0.110	0.019
-593.996	-44.979	0.215	-0.108
-592.982	-200.000	-0.027	-0.213
-591.967	67.263	-0.154	0.159
-590.952	-104.163	-0.262	0.061
-589.938	-64.453	-0.273	-0.112
-588.923	38.257	-0.300	0.269
-587.909	-81.823	0.143	0.047
-586.894	250.839	0.141	-0.242
-585.879	-22.259	-0.189	-0.115
-584.865	505.426	0.025	0.059
-583.850	58.312	-0.187	-0.185
-582.836	-94.371	-0.184	-0.051
-581.821	114.134	-0.068	0.084
-580.806	800.000	0.049	0.210
-579.792	-200.000	0.019	-0.091
-578.777	229.930	-0.221	-0.364
-577.763	-148.487	-0.066	-0.005
-576.748	45.500	-0.130	-0.121
-575.733	158.720	-0.147	0.206
-574.719	182.010	0.107	0.159
-573.704	615.725	-0.085	0.215
-572.690	-60.358	-0.236	0.101
-571.675	77.706	0.074	0.079
-570.661	265.136	-0.026	0.046
-569.646	13.654	-0.074	0.058
-568.631	-150.801	-0.068	-0.005
-567.617	60.129	-0.160	-0.160
-566.602	-114.368	0.308	-0.060
-565.588	229.492	0.101	-0.166
-564.573	-200.000	-0.032	-0.157
-563.558	221.323	-0.189	-0.306
-562.544	-156.667	0.162	-0.010
-561.529	140.995	-0.135	-0.180
-560.515	-4.666	-0.150	0.105
-559.500	3.954	0.088	-0.065
-558.485	-43.458	0.328	0.167
-557.471	800.000	0.022	0.065
-556.456	688.033	-0.061	0.160
-555.442	59.703	-0.069	-0.068
-554.427	-70.982	0.287	-0.109
-553.412	-200.000	0.008	-0.191
-552.398	-200.000	0.026	-0.257
-551.383	226.056	-0.057	0.094
-550.369	39.897	-0.226	0.204
-549.354	420.842	0.236	0.510
-548.339	-91.703	-0.281	0.080
-547.325	-12.439	-0.084	0.055
-546.310	-200.000	-0.015	0.199
-545.296	-37.929	-0.443	0.237
-544.281	187.015	0.172	0.258
-543.266	-168.793	-0.349	0.013
-542.252	-200.000	-0.000	0.123
-541.237	97.088	-0.191	0.220
-540.223	-82.427	0.241	0.079
-539.208	280.339	-0.240	0.433
-538.193	132.955	0.100	0.130
-537.179	-126.877	-0.286	0.042
-536.164	-200.000	0.061	0.285
-535.150	781.331	-0.107	0.294
-534.135	-96.042	-0.334	0.089
-533.121	67.154	0.235	0.241
-532.106	800.000	-0.059	0.224
-531.091	146.301	0.171	0.231
-530.077	-200.000	0.060	-0.376
-529.062	422.786	-0.129	-0.280
-528.048	800.000	0.019	-0.063
-527.033	194.949	-0.036	0.055
-526.018	-27.550	-0.034	0.020
-525.004	41.334	-0.259	0.236
-523.989	35.600	-0.059	0.052
-522.975	-38.247	0.259	0.138
-521.960	-90.070	-0.256	0.075
-520.945	800.000	0.062	-0.245
-519.931	93.223	0.157	0.179
-518.916	-116.968	-0.126	-0.023
-517.902	336.158	-0.092	-0.180
-516.887	19.287	0.301	0.243
-515.872	24.080	-0.335	0.278
-514.858	-100.131	0.103	0.026
-513.843	-200.000	0.028	-0.371
-512.829	-200.000	-0.037	-0.231
-511.814	-141.262	0.268	0.027
-510.799	504.866	0.016	-0.038
-509.785	800.000	-0.050	-0.215
-508.770	70.459	0.263	-0.274
-507.756	-99.376	-0.139	0.035
-506.741	-0.335	-0.110	-0.079
-505.726	-141.106	-0.054	-0.006
-504.712	198.080	0.270	0.414
-503.697	-37.102	-0.157	0.085
-502.683	184.935	-0.064	0.096
-501.668	20.683	-0.065	-0.053
-500.653	-77.907	-0.107	-0.037
-499.639	517.200	-0.074	-0.175
-498.624	-200.000	-0.049	-0.422
-497.610	315.975	-0.088	0.167
-496.595	159.386	-0.229	0.320
-495.581	558.002	0.092	-0.224
-494.566	800.000	-0.025	-0.081
-493.551	113.426	0.176	-0.215
-492.537	-68.155	0.156	-0.061
-491.522	-132.870	0.132	0.017
-490.508	-68.925	-0.301	0.117
-489.493	-160.042	-0.146	0.008
-488.478	-33.811	0.025	0.014
-487.464	-119.932	0.121	0.021
-486.449	-82.611	0.246	0.080
-485.435	159.647	0.087	-0.122
-484.420	71.386	0.248	-0.258
-483.405	-93.349	0.092	-0.026
-482.391	-200.000	-0.026	0.170
-481.376	-43.610	-0.234	0.118
-480.362	-200.000	0.006	-0.121
-479.347	21.289	-0.302	-0.246
-478.332	-12.525	0.042	0.027
-477.318	800.000	0.027	-0.101
-476.303	800.000	-0.083	-0.260
-475.289	-73.607	-0.189	-0.069
-474.274	164.892	-0.088	0.125
-473.259	7.219	0.055	-0.042
-472.245	-200.000	0.037	0.164
-471.230	-200.000	-0.032	0.292
-470.216	518.080	0.046	0.107
-469.201	432.080	-0.082	-0.178
-468.186	-116.126	0.301	-0.056
-467.172	32.605	0.315	0.273
-466.157	-2.659	0.235	-0.165
-465.143	800.000	0.086	0.260
-464.128	-41.738	-0.303	0.156
-463.113	-56.432	0.239	0.106
-462.099	-68.597	-0.184	-0.071
-461.084	800.000	-0.066	0.205
-460.070	-200.000	0.008	0.395
-459.055	-134.611	-0.143	-0.018
-458.040	459.903	-0.121	0.270
-457.026	-200.000	0.012	-0.241
-456.011	-35.702	-0.229	0.124
-454.997	-111.261	0.260	-0.053
-453.982	603.866	0.120	-0.299
-452.968	84.337	-0.057	0.063
-451.953	437.317	-0.067	0.146
-450.938	-145.447	-0.322	0.029
-449.924	293.817	0.214	-0.391
-448.909	-26.793	0.245	-0.143
-447.895	247.834	0.063	-0.106
-446.880	800.000	0.035	-0.144
-445.865	-88.139	-0.141	-0.042
-444.851	-107.505	-0.098	-0.022
-443.836	435.579	-0.012	0.027
-442.822	-200.000	0.054	-0.241
-441.807	-44.200	0.143	-0.072
-440.792	-200.000	-0.010	-0.200
-439.778	-200.000	0.023	0.155
-438.763	-23.678	0.217	-0.131
-437.749	-138.450	0.201	-0.022
-436.734	3.717	-0.247	0.181
-435.719	107.005	0.073	-0.087
-434.705	44.092	0.276	-0.253
-433.690	-200.000	0.001	0.200
-432.676	800.000	0.034	-0.112
-431.661	800.000	0.016	0.065
-430.646	-176.879	-0.028	0.001
-429.632	44.771	-0.187	0.172
-428.617	245.690	-0.114	-0.193
-427.603	-186.310	-0.241	0.003
-426.588	-200.000	-0.047	0.229
-425.573	-200.000	0.013	0.238
-424.559	-200.000	0.035	-0.385
-423.544	227.085	-0.091	0.148
-422.530	-24.446	0.127	0.076
-421.515	-17.521	0.218	-0.138
-420.500	-200.000	-0.006	-0.059
-419.486	83.213	0.131	0.143
-418.471	800.000	0.057	-0.235
-417.457	76.655	-0.107	0.114
-416.442	549.862	-0.098	0.235
-415.428	329.643	-0.069	-0.134
-414.413	2.668	-0.330	-0.240
-413.398	18.423	0.261	0.209
-412.384	-14.018	0.067	-0.044
-411.369	421.186	-0.111	-0.239
-410.355	358.746	0.065	-0.130
-409.340	-17.848	-0.127	0.080
-408.325	-86.895	0.153	-0.047
-407.311	71.525	0.153	0.159
-406.296	-159.171	-0.058	-0.003
-405.282	-91.950	-0.177	0.050
-404.267	322.965	0.173	-0.331
-403.252	-93.554	0.240	0.066
-402.238	19.775	0.261	0.210
-401.223	-36.638	0.126	0.068
-400.209	-55.849	-0.222	-0.099
-399.194	800.000	-0.048	-0.140
-398.179	800.000	-0.054	0.197
-397.165	-200.000	0.003	-0.275
-396.150	-12.723	0.230	-0.150
-395.136	229.279	0.197	-0.322
-394.121	23.698	0.248	0.205
-393.106	-179.919	0.537	0.011
-392.092	-200.000	0.032	-0.156
-391.077	26.398	0.100	-0.084
-390.063	-2.340	-0.193	-0.135
-389.048	-200.000	-0.013	-0.520
-388.033	31.482	-0.267	-0.229
-387.019	-90.129	-0.333	0.097
-386.004	362.254	-0.072	0.145
-384.990	197.066	-0.077	0.117
-383.975	-200.000	-0.026	0.192
-382.960	-200.000	0.068	-0.451
-381.946	-50.107	0.222	0.105
-380.931	-133.133	0.271	-0.034
-379.917	748.630	0.109	0.294
-378.902	95.010	0.213	-0.242
-377.888	-200.000	-0.034	0.220
-376.873	-59.117	0.114	-0.049
-375.858	2.991	0.176	0.128
-374.844	117.295	0.264	0.325
-373.829	-111.283	-0.215	0.044
-372.815	112.876	0.257	0.312
-371.800	35.828	0.071	0.063
-370.785	33.825	-0.372	-0.324
-369.771	-99.711	0.136	0.034
-368.756	-3.925	0.070	-0.049
-367.742	-28.773	0.155	-0.089
-366.727	168.553	0.216	0.308
-365.712	-200.000	0.037	-0.317
-364.698	-200.000	0.055	-0.261
-363.683	349.766	-0.088	-0.175
-362.669	64.027	0.144	-0.145
-361.654	-149.887	0.099	-0.008
-360.639	299.850	-0.095	0.176
-359.625	53.152	0.324	0.311
-358.610	110.709	-0.178	-0.214
-357.596	80.004	0.068	0.073
-356.581	111.190	0.274	-0.330
-355.566	-200.000	0.010	-0.180
-354.552	800.000	-0.043	0.126
-353.537	-65.175	-0.363	0.146
-352.523	10.953	-0.031	0.024
-351.508	-28.854	-0.181	0.104
-350.493	365.443	0.096	0.193
-349.479	68.663	0.169	0.174
-348.464	248.802	-0.053	0.090
-347.450	-104.959	-0.055	0.013
-346.435	800.000	0.025	-0.078
-345.420	7.167	-0.169	0.126
-344.406	195.000	-0.132	0.201
-343.391	-13.598	-0.059	0.038
-342.377	-200.000	0.037	-0.369
-341.362	-134.584	-0.235	-0.029
-340.348	-200.000	0.037	0.296
-339.333	246.092	-0.073	0.123
-338.318	133.726	0.122	-0.158
-337.304	153.297	-0.176	0.241
-336.289	-200.000	-0.036	0.180
-335.275	800.000	0.048	-0.144
-334.260	-200.000	0.017	-0.437
-333.245	77.114	0.211	-0.224
-332.231	-200.000	0.009	-0.161
-331.216	-3.683	-0.273	0.189
-330.202	37.778	-0.151	0.134
-329.187	-200.000	-0.020	-0.152
-328.172	-34.433	-0.397	-0.217
-327.158	184.451	0.135	0.200
-326.143	441.617	0.099	0.216
-325.129	221.137	-0.050	0.080
-324.114	572.194	0.075	0.182
-323.099	-26.279	-0.110	-0.065
-322.085	-149.513	-0.067	0.005
-321.070	152.080	0.053	0.073
-320.056	-200.000	-0.003	0.153
-319.041	322.273	0.070	0.132
-318.026	-32.153	0.635	0.354
-317.012	-200.000	-0.188	-0.001
-315.997	800.000	0.052	0.183
-314.983	277.046	0.119	0.211
-313.968	53.161	-0.123	-0.118
-312.953	800.000	0.149	0.412
-311.939	-200.000	-0.001	0.074
-310.924	-36.476	-0.219	0.118
-309.910	-200.000	0.054	0.247
-308.895	-35.945	-0.237	-0.128
-307.880	800.000	-0.083	-0.307
-306.866	-180.070	0.204	-0.004
-305.851	166.341	0.095	0.134
-304.837	315.382	-0.223	-0.420
-303.822	-47.059	0.141	-0.069
-302.807	-87.265	0.325	0.098
-301.793	-9.166	-0.193	-0.129
-300.778	-119.415	0.255	0.044
-299.764	176.859	-0.196	0.285
-298.749	-55.917	-0.235	0.105
-297.735	538.202	0.032	0.077
-296.720	-64.887	0.393	-0.158
-295.705	800.000	0.024	-0.091
-294.691	-75.979	0.091	0.032
-293.676	-200.000	0.002	-0.074
-292.662	-145.233	0.254	0.023
-291.647	-56.801	-0.062	-0.027
-290.632	-137.665	0.200	-0.022
-289.618	-3.971	0.091	-0.063
-288.603	-200.000	-0.002	0.237
-287.589	125.316	-0.181	-0.228
-286.574	-91.119	0.156	0.045
-285.559	-25.953	0.102	0.060
-284.545	-29.113	0.243	-0.139
-283.530	424.810	-0.116	0.250
-282.516	800.000	-0.046	0.183
-281.501	-134.235	0.154	-0.019
-280.486	116.049	0.075	0.092
-279.472	800.000	0.045	0.128
-278.457	-115.011	0.188	-0.036
-277.443	800.000	-0.051	0.194
-276.428	-185.190	0.413	-0.006
-275.413	-101.739	0.191	0.046
-274.399	463.316	0.089	-0.198
-273.384	-40.872	0.081	-0.042
-272.370	-61.335	0.347	0.146
-271.355	67.774	-0.162	-0.165
-270.340	-119.207	0.599	-0.104
-269.326	-46.599	0.204	0.100
-268.311	-200.000	-0.038	-0.238
-267.297	800.000	0.044	-0.189
-266.282	-200.000	-0.014	-0.226
-265.267	350.962	0.062	0.123
-264.253	-59.751	0.463	-0.197
-263.238	502.659	0.065	-0.149
-262.224	-200.000	0.003	0.270
-261.209	-57.138	-0.188	-0.083
-260.195	-34.950	-0.133	-0.072
-259.180	-64.482	-0.462	-0.187
-258.165	-107.819	0.181	0.039
-257.151	-6.696	-0.179	-0.121
-256.136	-148.386	0.310	0.025
-255.122	-200.000	-0.062	0.303
-254.107	-146.029	-0.116	0.010
-253.092	204.049	-0.207	0.320
-252.078	-200.000	-0.009	-0.049
-251.063	607.243	0.106	0.262
-250.049	-130.039	-0.111	0.015
-249.034	754.927	0.110	-0.296
-248.019	-100.716	0.187	-0.046
-247.005	-126.854	-0.370	-0.054
-245.990	800.000	-0.086	0.316
-244.976	117.998	0.068	-0.084
-243.961	-115.055	0.169	0.032
-242.946	-200.000	0.005	-0.160
-241.932	-70.376	0.129	0.049
-240.917	586.614	0.113	0.277
-239.903	-152.492	-0.237	0.017
-238.888	85.177	0.067	-0.073
-237.873	-2.502	-0.375	-0.261
-236.859	382.954	0.098	0.200
-235.844	-200.000	-0.030	0.178
-234.830	-40.997	0.136	0.070
-233.815	366.513	-0.109	0.219
-232.800	-4.425	0.147	-0.101
-231.786	70.827	-0.156	-0.161
-230.771	-62.635	0.162	0.067
-229.757	-200.000	-0.061	0.394
-228.742	286.297	-0.130	-0.234
-227.727	-25.978	-0.149	-0.087
-226.713	43.037	0.023	-0.021
-225.698	-146.575	-0.041	-0.004
-224.684	-103.311	0.106	0.025
-223.669	-120.073	-0.224	0.038
-222.655	-200.000	0.000	-0.091
-221.640	-58.192	-0.087	-0.038
-220.625	604.829	-0.043	0.107
-219.611	-114.634	-0.154	-0.029
-218.596	86.000	-0.034	0.037
-217.582	-92.066	0.263	-0.074
-216.567	-181.638	0.150	0.003
-215.552	-6.007	0.060	-0.041
-214.538	-136.207	-0.283	0.033
-213.523	-200.000	0.046	0.345
-212.509	-93.945	-0.265	0.072
-211.494	-146.776	-0.296	-0.025
-210.479	-23.853	0.122	-0.073
-209.465	-51.750	0.080	0.037
-208.450	-38.324	-0.255	-0.134
-207.436	-200.000	0.003	-0.021
-206.421	161.988	0.040	-0.056
-205.406	-64.851	0.129	-0.052
-204.392	-62.254	0.141	0.058
-203.377	65.172	0.202	0.202
-202.363	115.382	0.160	0.195
-201.348	20.220	0.059	0.047
-200.333	-45.299	-0.211	0.104
-199.319	111.054	0.092	-0.110
-198.304	-166.454	0.451	-0.019
-197.290	-20.928	0.419	0.255
-196.275	115.024	-0.085	-0.103
-195.260	314.957	0.023	0.042
-194.246	800.000	0.014	-0.060
-193.231	-82.213	0.262	0.085
-192.217	-123.641	-0.338	-0.053
-191.202	14.072	-0.372	0.288
-190.187	331.970	-0.084	0.160
-189.173	-103.903	-0.156	0.036
-188.158	-77.527	0.280	0.096
-187.144	512.034	-0.071	-0.164
-186.129	-92.458	0.368	-0.103
-185.114	31.542	0.197	0.168
-184.100	28.724	-0.148	-0.124
-183.085	249.149	-0.175	-0.295
-182.071	161.542	-0.094	-0.131
-181.056	-5.764	-0.311	0.212
-180.042	-129.362	-0.141	0.020
-179.027	-64.274	-0.092	0.037
-178.012	800.000	-0.083	0.322
-176.998	-149.389	-0.250	0.020
-175.983	128.881	-0.058	-0.074
-174.969	-200.000	-0.009	0.312
-173.954	800.000	0.084	0.247
-172.939	-154.649	-0.262	0.017
-171.925	-132.225	0.285	0.037
-170.910	-81.833	0.078	0.025
-169.896	31.227	-0.082	0.070
-168.881	-29.120	-0.145	0.083
-167.866	-200.000	-0.016	-0.125
-166.852	800.000	0.045	-0.153
-165.837	-145.358	-0.397	-0.036
-164.823	600.929	-0.058	0.144
-163.808	800.000	0.076	0.276
-162.793	-200.000	0.007	-0.075
-161.779	800.000	-0.005	-0.014
-160.764	-22.351	0.072	-0.043
-159.750	-129.037	-0.214	0.030
-158.735	-126.678	-0.205	0.030
-157.720	45.196	-0.319	0.292
-156.706	-142.693	-0.161	-0.016
-155.691	214.599	0.121	-0.190
-154.677	249.078	0.146	-0.245
-153.662	-113.752	0.164	0.032
-152.647	109.737	0.049	0.058
-151.633	-5.693	-0.160	0.109
-150.618	240.485	-0.035	-0.058
-149.604	81.590	-0.056	-0.060
-148.589	164.998	0.369	0.516
-147.574	91.646	-0.108	0.120
-146.560	800.000	-0.064	0.224
-145.545	-90.076	-0.146	0.042
-144.531	215.130	0.050	-0.079
-143.516	800.000	0.111	-0.339
-142.502	-101.512	-0.331	-0.080
-141.487	-122.579	0.280	-0.045
-140.472	-28.166	-0.124	0.071
-139.458	-177.105	0.242	0.006
-138.443	-104.081	-0.171	0.040
-137.429	130.908	0.093	0.118
-136.414	-200.000	0.008	-0.171
-135.399	-178.492	-0.255	0.006
-134.385	-144.992	0.170	0.015
-133.370	-1.606	-0.126	-0.088
-132.356	50.004	-0.013	0.012
-131.341	73.871	0.105	-0.109
-130.326	92.476	-0.262	0.292
-129.312	-56.885	0.250	0.109
-128.297	-3.184	-0.177	-0.122
-127.283	-128.340	0.230	0.032
-126.268	6.158	0.291	0.214
-125.253	23.843	0.077	-0.063
-124.239	379.350	0.014	-0.029
-123.224	800.000	0.012	-0.047
-122.210	-33.381	-0.083	-0.046
-121.195	800.000	0.055	-0.154
-120.180	27.192	-0.277	0.231
-119.166	-10.877	0.230	0.151
-118.151	383.715	-0.036	-0.074
-117.137	7.462	-0.239	-0.177
-116.122	251.035	0.268	-0.451
-115.107	-200.000	0.034	-0.281
-114.093	800.000	-0.041	0.119
-113.078	800.000	0.082	0.228
-112.064	-19.502	0.297	-0.182
-111.049	-200.000	0.019	0.280
-110.034	248.968	-0.158	0.264
-109.020	-56.292	-0.108	-0.048
-108.005	619.896	0.101	-0.252
-106.991	294.554	0.126	-0.228
-105.976	-45.237	0.012	-0.006
-104.962	-200.000	-0.033	0.179
-103.947	-45.133	-0.215	0.106
-102.932	704.706	0.098	-0.257
-101.918	-27.493	0.087	-0.050
-100.903	22.107	-0.056	-0.045
-99.889	-135.114	0.393	0.047
-98.874	-84.507	0.197	0.062
-97.859	-200.000	-0.017	0.085
-96.845	321.660	-0.114	0.214
-95.830	188.964	0.119	0.177
-94.816	-94.019	0.270	-0.073
-93.801	-20.438	-0.238	-0.145
-92.786	-200.000	0.032	0.256
-91.772	-12.155	-0.144	-0.093
-90.757	-10.355	0.165	0.108
-89.743	34.435	-0.064	-0.056
-88.728	-130.856	0.335	-0.044
-87.713	-19.610	-0.127	-0.078
-86.699	-96.827	0.294	-0.076
-85.684	-126.607	0.390	-0.057
-84.670	-200.000	-0.048	0.381
-83.655	-40.389	-0.089	-0.046
-82.640	-63.830	0.162	-0.066
-81.626	-200.000	0.028	0.282
-80.611	-43.699	0.187	-0.093
-79.597	155.635	0.063	-0.086
-78.582	51.412	0.077	0.072
-77.567	-45.751	0.168	-0.082
-76.553	-200.000	0.075	-0.431
-75.538	47.602	0.421	-0.389
-74.524	-200.000	-0.025	0.237
-73.509	-200.000	-0.007	-0.064
-72.494	-200.000	0.000	-0.111
-71.480	17.713	-0.358	0.282
-70.465	73.481	0.248	0.257
-69.451	674.497	-0.102	-0.261
-68.436	-10.138	-0.097	0.064
-67.422	-104.126	0.210	0.048
-66.407	201.992	0.038	-0.058
-65.392	-154.133	-0.274	0.018
-64.378	236.275	-0.135	0.221
-63.363	374.559	0.055	-0.110
-62.349	-120.762	0.273	0.046
-61.334	40.356	-0.949	-0.844
-60.319	517.541	0.273	0.631
-59.305	131.210	-0.645	-0.819
-58.290	524.599	0.635	1.475
-57.276	800.000	0.497	1.507
-56.261	-200.000	106.399	578.639
-55.246	451.950	1460.303	3189.116
-54.232	146.244	2651.350	3515.890
-53.217	97.384	2325.556	2638.278
-52.203	36.438	2077.303	1810.418
-51.188	31.741	1992.913	1694.446
-50.173	30.263	1975.803	1666.560
-49.159	45.325	2030.227	1850.107
-48.144	45.876	2048.420	1871.647
-47.130	32.264	2007.345	1711.207
-46.115	29.976	1996.174	1680.878
-45.100	29.923	1993.358	1677.958
-44.086	29.933	1990.911	1675.922
-43.071	29.849	1988.589	1673.135
-42.057	29.814	1986.752	1671.210
-41.042	29.898	1984.452	1669.966
-40.027	29.921	1982.390	1668.372
-39.013	29.914	1980.636	1666.767
-37.998	29.913	1979.083	1665.382
-36.984	29.956	1976.767	1663.758
-35.969	29.872	1975.159	1661.584
-34.954	29.904	1973.544	1660.450
-33.940	29.963	1972.344	1659.902
-32.925	30.009	1970.379	1658.591
-31.911	29.995	1968.203	1656.565
-30.896	30.046	1966.512	1655.538
-29.881	30.101	1965.271	1654.917
-28.867	30.073	1963.922	1653.466
-27.852	29.976	1962.532	1651.368
-26.838	30.065	1960.036	1649.992
-25.823	29.995	1958.322	1647.864
-24.809	30.073	1956.188	1646.691
-23.794	30.067	1954.623	1645.259
-22.779	30.001	1953.299	1643.493
-21.765	30.025	1951.279	1641.935
-20.750	29.949	1949.881	1640.024
-19.736	30.034	1948.450	1639.507
-18.721	30.047	1946.427	1637.856
-17.706	30.037	1945.303	1636.760
-16.692	30.026	1943.286	1634.897
-15.677	30.013	1941.827	1633.487
-14.663	30.073	1940.462	1632.803
-13.648	30.049	1939.084	1631.368
-12.633	29.950	1938.173	1629.672
-11.619	30.040	1936.384	1628.889
-10.604	30.025	1934.930	1627.468
-9.590	30.017	1933.744	1626.342
-8.575	29.898	1932.536	1624.213
-7.560	30.106	1930.461	1624.232
-6.546	30.028	1929.261	1622.467
-5.531	30.008	1928.196	1621.333
-4.517	30.102	1926.951	1621.044
-3.502	29.966	1926.347	1619.284
-2.487	30.092	1924.245	1618.550
-1.473	30.002	1923.730	1617.271
-0.458	30.122	1919.095	1614.351
0.556	28.031	1899.223	1585.586
1.571	23.910	1880.596	1534.419
2.586	20.123	1903.271	1519.648
3.600	18.999	1939.508	1538.395
4.615	18.904	1934.248	1533.237
5.629	14.908	1833.170	1419.144
6.644	5.901	1712.341	1253.800
7.659	0.700	1674.229	1185.077
8.673	0.279	1670.763	1179.223
9.688	0.206	1669.455	1177.628
10.702	0.127	1668.018	1175.890
11.717	-0.032	1664.694	1172.204
12.731	0.629	1663.863	1176.665
13.746	7.114	1678.415	1237.688
14.761	15.306	1694.620	1313.958
15.775	17.730	1697.806	1335.319
16.790	17.128	1694.277	1327.718
17.804	16.016	1691.000	1316.354
18.819	14.875	1688.317	1305.246
19.834	14.286	1686.065	1298.791
20.848	14.131	1684.031	1295.906
21.863	13.829	1682.446	1292.222
22.877	13.648	1680.761	1289.404
23.892	13.399	1679.493	1286.378
24.907	13.279	1678.303	1284.427
25.921	13.164	1677.461	1282.770
26.936	13.254	1676.280	1282.452
27.950	13.290	1675.219	1281.810
28.965	13.240	1674.791	1280.983
29.980	13.374	1674.001	1281.301
30.994	13.465	1672.771	1280.950
32.009	13.473	1672.138	1280.410
33.023	13.522	1671.780	1280.406
34.038	13.487	1670.472	1279.021
35.053	13.505	1669.128	1278.018
36.067	13.511	1668.397	1277.388
37.082	13.518	1666.943	1276.219
38.096	13.430	1666.187	1274.844
39.111	13.336	1666.135	1273.974
40.126	13.460	1664.989	1273.939
41.140	13.440	1663.714	1272.696
42.155	13.331	1662.109	1270.518
43.169	13.217	1661.116	1268.768
44.184	13.251	1659.968	1268.044
45.199	13.260	1658.633	1266.976
46.213	13.191	1657.755	1265.664
47.228	13.202	1656.239	1264.480
48.242	13.350	1654.664	1264.296
49.257	13.336	1654.146	1263.682
50.271	13.257	1653.021	1262.113
51.286	13.428	1651.435	1262.094
52.301	13.381	1650.568	1260.958
53.315	13.365	1648.918	1259.467
54.330	13.348	1647.297	1257.986
55.344	13.337	1645.421	1256.355
56.359	13.265	1644.142	1254.727
57.374	13.313	1643.349	1254.374
58.388	13.335	1641.923	1253.339
59.403	13.251	1640.901	1251.811
60.417	13.256	1639.245	1250.473
61.432	13.201	1638.273	1249.211
62.447	13.205	1637.254	1248.354
63.461	13.154	1636.174	1247.034
64.476	13.237	1634.627	1246.367
65.490	13.127	1634.207	1245.109
66.505	13.118	1632.583	1243.693
67.520	13.176	1631.575	1243.250
68.534	13.150	1630.232	1241.919
69.549	13.170	1629.522	1241.422
70.563	13.221	1628.216	1240.704
71.578	13.239	1626.621	1239.507
72.593	13.195	1625.020	1237.854
73.607	13.142	1624.498	1236.943
74.622	13.134	1623.526	1236.039
75.636	13.109	1622.490	1234.954
76.651	13.089	1621.644	1234.052
77.666	13.084	1620.711	1233.191
78.680	13.099	1619.415	1232.211
79.695	13.120	1618.531	1231.587
80.709	13.142	1617.623	1230.952
81.724	13.192	1616.589	1230.425
82.739	13.191	1615.943	1229.815
83.753	13.250	1614.650	1229.162
84.768	13.304	1613.763	1228.779
85.782	13.369	1612.990	1228.569
86.797	13.411	1611.827	1227.886
87.812	13.471	1611.406	1227.895
88.826	13.339	1610.083	1225.807
89.841	13.304	1609.032	1224.634
90.855	13.364	1607.715	1223.968
91.870	13.362	1606.789	1223.138
92.884	13.421	1605.415	1222.423
93.899	13.426	1604.899	1221.961
94.914	13.388	1603.874	1220.788
95.928	13.443	1601.847	1219.548
96.943	13.470	1600.946	1218.951
97.957	13.420	1599.192	1217.137
98.972	13.342	1598.308	1215.785
99.987	13.323	1596.761	1214.362
101.001	13.460	1594.526	1213.559
102.016	13.422	1593.318	1212.256
103.030	13.293	1592.255	1210.394
104.045	13.426	1590.795	1210.147
105.060	13.402	1589.578	1208.941
106.074	13.434	1588.169	1207.991
107.089	13.401	1586.635	1206.477
108.103	13.301	1585.261	1204.599
109.118	13.189	1583.929	1202.668
110.133	13.253	1581.769	1201.389
111.147	13.162	1580.954	1199.998
112.162	13.234	1579.100	1199.009
113.176	13.161	1578.245	1197.727
114.191	13.303	1577.213	1197.866
115.206	13.344	1575.443	1196.712
116.220	13.372	1573.942	1195.665
117.235	13.275	1572.753	1193.958
118.249	13.258	1571.558	1192.824
119.264	13.229	1570.742	1191.890
120.279	13.230	1569.310	1190.700
121.293	13.268	1567.293	1189.336
122.308	13.243	1566.197	1188.224
123.322	13.219	1564.577	1186.715
124.337	13.195	1563.277	1185.451
125.352	13.183	1562.254	1184.488
126.366	13.176	1560.756	1183.193
127.381	13.173	1560.066	1182.549
128.395	13.270	1558.687	1182.089
129.410	13.251	1557.514	1180.962
130.424	13.192	1556.154	1179.405
131.439	13.300	1554.283	1178.655
132.454	13.288	1553.466	1177.844
133.468	13.332	1552.037	1176.968
134.483	13.379	1550.233	1175.829
135.497	13.405	1548.619	1174.690
136.512	13.288	1547.991	1173.274
137.527	13.419	1546.148	1172.700
138.541	13.369	1544.889	1171.291
139.556	13.342	1543.671	1170.069
140.570	13.418	1541.951	1169.204
141.585	13.348	1541.261	1168.078
142.600	13.483	1539.557	1167.641
143.614	13.542	1538.301	1166.997
144.629	13.442	1537.500	1165.581
145.643	13.596	1536.231	1165.600
146.658	13.608	1534.422	1164.212
147.673	13.643	1532.842	1163.155
148.687	13.573	1531.568	1161.594
149.702	13.476	1530.114	1159.706
150.716	13.550	1528.466	1158.874
151.731	13.505	1526.918	1157.282
152.746	13.403	1526.307	1156.003
153.760	13.388	1524.526	1154.447
154.775	13.452	1523.292	1153.863
155.789	13.538	1522.266	1153.581
156.804	13.568	1520.994	1152.723
157.819	13.575	1519.646	1151.648
158.833	13.596	1518.521	1150.838
159.848	13.727	1516.984	1150.480
160.862	13.702	1516.083	1149.523
161.877	13.699	1514.801	1148.428
162.892	13.651	1513.809	1147.245
163.906	13.619	1512.348	1145.816
164.921	13.571	1511.052	1144.397
165.935	13.607	1510.231	1143.922
166.950	13.526	1509.010	1142.340
167.964	13.683	1507.914	1142.487
168.979	13.579	1506.879	1140.889
169.994	13.618	1506.025	1140.410
171.008	13.698	1504.670	1139.834
172.023	13.642	1503.730	1138.633
173.037	13.669	1502.619	1137.877
174.052	13.724	1501.611	1137.392
175.067	13.890	1499.727	1137.001
176.081	13.800	1499.110	1135.814
177.096	13.713	1497.859	1134.170
178.110	13.565	1496.848	1132.291
179.125	13.649	1495.411	1131.684
180.140	13.751	1494.412	1131.519
181.154	13.754	1493.370	1130.653
182.169	13.799	1492.034	1129.846
183.183	13.728	1491.152	1128.594
184.198	13.847	1489.639	1128.162
185.213	13.826	1489.143	1127.540
186.227	13.866	1488.098	1126.919
187.242	13.861	1486.990	1125.950
188.256	13.935	1485.796	1125.450
189.271	14.027	1484.702	1125.140
190.286	13.980	1483.946	1124.153
191.300	13.943	1482.622	1122.798
192.315	13.771	1481.597	1120.761
193.329	13.654	1480.488	1119.031
194.344	13.702	1479.165	1118.256
195.359	13.865	1477.834	1118.254
196.373	13.864	1476.610	1117.220
197.388	13.939	1475.500	1116.784
198.402	13.827	1475.390	1115.851
199.417	13.944	1474.004	1115.489
200.432	14.057	1472.666	1115.139
201.446	14.237	1471.236	1115.161
202.461	14.094	1470.731	1113.720
203.475	14.153	1469.232	1112.883
204.490	14.092	1468.392	1111.736
205.504	14.123	1467.302	1111.021
206.519	14.114	1466.285	1110.091
207.534	14.096	1465.125	1108.999
208.548	14.046	1464.015	1107.730
209.563	14.076	1462.826	1106.928
210.577	14.067	1462.012	1106.156
211.592	14.112	1460.872	1105.496
212.607	14.136	1460.603	1105.351
213.621	14.166	1460.155	1105.114
214.636	14.217	1458.865	1104.381
215.650	14.244	1457.557	1103.470
216.665	14.282	1456.494	1102.818
217.680	14.281	1455.949	1102.302
218.694	14.279	1455.145	1101.584
219.709	14.366	1454.276	1101.401
220.723	14.396	1452.886	1100.452
221.738	14.381	1452.259	1099.780
222.753	14.398	1451.320	1099.085
223.767	14.385	1450.301	1098.131
224.782	14.399	1449.486	1097.507
225.796	14.371	1448.979	1096.839
226.811	14.398	1448.178	1096.316
227.826	14.454	1447.207	1095.853
228.840	14.359	1446.177	1094.352
229.855	14.404	1445.341	1093.917
230.869	14.364	1444.449	1092.885
231.884	14.409	1443.223	1092.153
232.899	14.365	1442.035	1090.869
233.913	14.337	1440.868	1089.705
234.928	14.361	1439.195	1088.504
235.942	14.447	1438.298	1088.291
236.957	14.381	1437.293	1087.000
237.972	14.379	1435.995	1085.907
238.986	14.358	1434.901	1084.852
240.001	14.392	1434.152	1084.408
241.015	14.463	1433.185	1084.045
242.030	14.368	1432.393	1082.731
243.045	14.468	1431.426	1082.556
244.059	14.544	1430.495	1082.249
245.074	14.479	1429.641	1081.087
246.088	14.597	1428.602	1080.964
247.103	14.667	1427.814	1080.728
248.117	14.665	1427.132	1080.103
249.132	14.631	1426.316	1079.169
250.147	14.772	1425.353	1079.259
251.161	14.901	1424.662	1079.470
252.176	14.831	1424.539	1078.828
253.190	14.932	1423.125	1078.314
254.205	14.879	1422.707	1077.563
255.220	14.873	1421.728	1076.689
256.234	14.947	1421.287	1076.735
257.249	14.976	1420.214	1076.013
258.263	14.933	1419.386	1075.010
259.278	15.002	1418.430	1074.640
260.293	15.079	1417.175	1074.083
261.307	15.010	1416.471	1073.011
262.322	15.045	1416.220	1072.955
263.336	15.121	1415.179	1072.555
264.351	15.145	1414.102	1071.801
265.366	15.152	1412.965	1070.886
266.380	15.197	1412.045	1070.381
267.395	15.124	1411.505	1069.414
268.409	15.141	1410.651	1068.778
269.424	15.195	1409.203	1067.930
270.439	15.252	1407.608	1066.991
271.453	15.141	1407.375	1066.016
272.468	15.186	1406.843	1065.803
273.482	15.129	1405.591	1064.399
274.497	15.126	1404.541	1063.490
275.512	15.151	1404.246	1063.333
276.526	15.141	1403.218	1062.397
277.541	15.200	1402.324	1061.998
278.555	15.232	1401.019	1061.118
279.570	15.272	1399.965	1060.477
280.585	15.248	1398.986	1059.493
281.599	15.208	1398.638	1058.883
282.614	15.231	1398.050	1058.486
283.628	15.286	1396.683	1057.705
284.643	15.371	1395.142	1056.980
285.657	15.311	1394.073	1055.702
286.672	15.270	1393.498	1054.912
287.687	15.228	1393.296	1054.404
288.701	15.319	1391.723	1053.690
289.716	15.308	1391.011	1052.987
290.730	15.417	1390.039	1052.844
291.745	15.462	1388.873	1052.149
292.760	15.429	1388.217	1051.355
293.774	15.348	1387.119	1049.923
294.789	15.392	1386.007	1049.264
295.803	15.445	1385.515	1049.126
296.818	15.553	1384.153	1048.682
297.833	15.498	1383.676	1047.884
298.847	15.425	1382.728	1046.618
299.862	15.515	1381.009	1045.782
300.876	15.485	1380.216	1044.902
301.891	15.533	1379.314	1044.426
302.906	15.509	1378.771	1043.775
303.920	15.632	1378.006	1043.865
304.935	15.477	1377.215	1042.210
305.949	15.620	1376.312	1042.322
306.964	15.735	1375.316	1042.188
307.979	15.775	1374.456	1041.693
308.993	15.776	1373.419	1040.819
310.008	15.679	1372.304	1039.285
311.022	15.700	1371.831	1038.966
312.037	15.757	1370.460	1038.186
313.052	15.751	1369.779	1037.542
314.066	15.771	1368.992	1036.974
315.081	15.656	1367.971	1035.405
316.095	15.743	1366.759	1034.927
317.110	15.799	1365.596	1034.302
318.125	15.757	1364.808	1033.353
319.139	15.649	1363.824	1031.858
320.154	15.642	1363.387	1031.392
321.168	15.658	1362.502	1030.731
322.183	15.659	1361.208	1029.665
323.197	15.736	1360.046	1029.163
324.212	15.674	1359.434	1028.231
325.227	15.831	1358.243	1028.199
326.241	15.773	1357.792	1027.412
327.256	15.820	1356.579	1026.689
328.270	15.794	1356.058	1026.047
329.285	15.842	1355.117	1025.535
330.300	15.867	1353.911	1024.687
331.314	15.813	1353.097	1023.651
332.329	15.952	1352.412	1023.888
333.343	15.880	1351.990	1023.041
334.358	15.881	1350.844	1022.089
335.373	15.930	1350.005	1021.660
336.387	15.887	1349.018	1020.559
337.402	16.015	1348.048	1020.511
338.416	15.989	1347.758	1020.048
339.431	16.062	1346.986	1019.814
340.446	16.052	1346.518	1019.305
341.460	16.140	1345.049	1018.639
342.475	16.187	1344.054	1018.075
343.489	16.166	1343.445	1017.396
344.504	16.327	1341.980	1017.172
345.519	16.313	1341.695	1016.781
346.533	16.303	1340.329	1015.594
347.548	16.253	1339.901	1014.877
348.562	16.364	1338.691	1014.539
349.577	16.352	1338.253	1014.043
350.592	16.304	1337.866	1013.373
351.606	16.281	1336.465	1012.083
352.621	16.163	1335.599	1010.631
353.635	16.220	1334.488	1010.042
354.650	16.197	1333.586	1009.136
355.665	16.235	1332.962	1008.803
356.679	16.266	1331.573	1007.846
357.694	16.326	1330.516	1007.316
358.708	16.293	1329.476	1006.238
359.723	16.440	1328.194	1006.055
360.738	16.356	1327.345	1004.822
361.752	16.389	1326.046	1003.947
362.767	16.471	1325.144	1003.661
363.781	16.441	1324.103	1002.612
364.796	16.386	1323.813	1001.976
365.810	16.439	1322.903	1001.510
366.825	16.549	1322.378	1001.679
367.840	16.502	1321.564	1000.695
368.854	16.510	1320.773	1000.049
369.869	16.588	1320.336	1000.095
370.883	16.629	1319.268	999.438
371.898	16.648	1318.709	999.037
372.913	16.639	1317.821	998.225
373.927	16.586	1317.005	997.205
374.942	16.623	1316.246	996.759
375.956	16.731	1315.370	996.648
376.971	16.688	1314.191	995.412
377.986	16.657	1313.910	994.929
379.000	16.705	1313.063	994.479
380.015	16.741	1312.235	993.978
381.029	16.756	1311.329	993.293
382.044	16.821	1310.705	993.108
383.059	16.889	1309.721	992.673
384.073	16.961	1309.137	992.567
385.088	16.805	1308.853	991.349
386.102	16.905	1308.155	991.318
387.117	16.941	1307.266	990.768
388.132	16.852	1306.601	989.658
389.146	16.835	1305.903	988.938
390.161	16.874	1304.805	988.249
391.175	16.941	1304.204	988.097
392.190	16.837	1303.195	986.638
393.205	16.903	1302.301	986.257
394.219	16.977	1301.362	985.890
395.234	17.007	1300.161	985.068
396.248	16.955	1298.976	983.782
397.263	16.921	1297.812	982.618
398.278	17.036	1295.902	981.750
399.292	16.906	1294.735	980.025
400.307	16.904	1294.126	979.464
401.321	16.934	1293.109	978.785
402.336	17.008	1291.941	978.243
403.350	16.895	1291.278	976.999
404.365	16.985	1290.379	976.751
405.380	16.908	1289.768	975.757
406.394	16.991	1288.821	975.434
407.409	16.964	1288.262	974.769
408.423	17.065	1287.070	974.358
409.438	17.046	1286.816	973.973
410.453	17.156	1285.456	973.491
411.467	17.089	1285.104	972.753
412.482	17.251	1284.182	972.896
413.496	17.211	1283.777	972.272
414.511	17.313	1282.897	972.104
415.526	17.256	1282.263	971.210
416.540	17.311	1281.552	970.899
417.555	17.409	1280.964	970.930
418.569	17.413	1280.310	970.371
419.584	17.474	1279.591	970.089
420.599	17.436	1279.313	969.575
421.613	94.740	1353.059	1467.971
422.628	92.645	1363.760	1468.068
