DTS Sentinel unit serial number:	SN413079Multiplexer serial number:	ORYXHardware model number:	OX4-SRSoftware version number:	ORYX F/W v4.00 Oryx Data Collector v3.7.2.0data status	okinstallation	princeton_trtdifferential loss correction	single-endedforward channel	channel 4reverse channel	N/Adate	2019/09/15time	16:21:35forward acquisition time	60.00reverse acquisition time	0.00gamma	496.2192k internal	0.2277k external	0.2277temperature offset calibration	0.9942default loss term (dB/km)	0.3790temperature slope calibration	1.0000multiplexer offset coefficient	1.0000multiplexer slope coefficient	1.0000fibre end	0.00T internal ref (°C)	43.64T ext. ref 1 (°C)	5.52T ext. ref 2 (°C)	40.13length (m)	temperature (°C)	Stokes	anti-Stokes-747.200	129.628	-0.145	-0.191
-746.185	27.122	-0.343	0.297
-745.171	107.249	-0.035	0.043
-744.156	248.644	0.099	0.173
-743.142	-154.943	0.253	0.017
-742.127	37.455	-0.341	0.312
-741.112	121.297	0.093	0.119
-740.098	800.000	0.123	0.398
-739.083	-175.242	-0.304	-0.009
-738.069	203.344	0.190	0.303
-737.054	125.428	-0.134	0.175
-736.039	-84.602	-0.285	-0.092
-735.025	69.404	0.146	-0.155
-734.010	-6.469	0.373	-0.262
-732.996	394.369	-0.043	0.093
-731.981	-200.000	-0.025	0.151
-730.966	222.379	0.042	0.070
-729.952	233.778	-0.226	-0.383
-728.937	-13.674	-0.114	0.076
-727.923	-189.880	-0.260	0.003
-726.908	800.000	0.043	-0.169
-725.894	-142.944	-0.200	-0.020
-724.879	359.299	0.173	-0.356
-723.864	198.816	0.155	-0.244
-722.850	-200.000	-0.031	-0.250
-721.835	-61.241	-0.091	-0.039
-720.821	-3.361	0.226	0.162
-719.806	800.000	-0.043	-0.152
-718.791	-200.000	0.027	-0.238
-717.777	-99.387	-0.233	-0.060
-716.762	235.578	0.053	-0.090
-715.748	800.000	-0.124	-0.545
-714.733	800.000	0.017	0.075
-713.718	176.098	-0.188	-0.281
-712.704	307.825	0.105	0.202
-711.689	-56.644	-0.173	-0.079
-710.675	389.973	0.078	-0.167
-709.660	9.639	-0.107	0.083
-708.645	-52.429	0.414	0.197
-707.631	800.000	0.063	-0.219
-706.616	0.988	-0.217	-0.160
-705.602	29.175	-0.074	-0.065
-704.587	-138.291	-0.248	0.028
-703.572	348.447	-0.124	-0.251
-702.558	-149.848	0.223	-0.018
-701.543	-200.000	-0.001	0.179
-700.529	-138.640	0.256	-0.029
-699.514	-47.350	-0.201	0.101
-698.499	152.815	0.245	0.345
-697.485	16.436	-0.322	-0.262
-696.470	321.271	0.184	0.361
-695.456	-149.131	0.177	-0.015
-694.441	232.407	-0.194	0.328
-693.426	-62.675	-0.238	-0.101
-692.412	698.304	0.081	-0.219
-691.397	-56.463	-0.350	0.159
-690.383	376.485	-0.098	-0.205
-689.368	-139.766	0.139	-0.015
-688.354	800.000	-0.039	0.159
-687.339	334.143	0.132	-0.263
-686.324	-71.143	-0.529	0.204
-685.310	152.531	0.111	-0.155
-684.295	512.713	-0.191	-0.459
-683.281	800.000	-0.103	-0.383
-682.266	-142.491	0.218	-0.022
-681.251	138.347	0.241	-0.325
-680.237	-119.015	-0.334	-0.060
-679.222	-170.590	0.164	-0.006
-678.208	-140.028	-0.348	-0.038
-677.193	64.032	-0.266	-0.275
-676.178	7.165	-0.189	-0.145
-675.164	67.609	-0.225	-0.236
-674.149	-200.000	0.025	0.300
-673.135	-200.000	0.003	-0.058
-672.120	13.055	-0.103	-0.082
-671.105	381.504	-0.132	0.279
-670.091	114.079	-0.041	-0.051
-669.076	800.000	0.062	-0.226
-668.062	257.293	-0.230	-0.405
-667.047	-153.958	-0.291	0.020
-666.032	-85.379	0.277	0.089
-665.018	82.891	0.188	0.210
-664.003	46.563	-0.100	0.095
-662.989	107.347	-0.199	0.244
-661.974	367.794	0.149	-0.309
-660.959	-82.526	0.228	0.076
-659.945	-135.319	0.191	-0.023
-658.930	-133.824	-0.424	-0.054
-657.916	19.528	0.126	-0.104
-656.901	800.000	-0.086	0.363
-655.886	-200.000	-0.024	0.170
-654.872	-17.045	-0.111	-0.072
-653.857	333.571	-0.155	-0.307
-652.843	-116.614	0.164	-0.031
-651.828	800.000	0.033	0.127
-650.814	-10.322	-0.086	0.058
-649.799	50.411	-0.165	-0.160
-648.784	-149.165	-0.351	-0.029
-647.770	-200.000	0.016	0.115
-646.755	-39.003	0.175	-0.095
-645.741	38.922	-0.164	-0.150
-644.726	292.642	-0.124	0.232
-643.711	-200.000	-0.020	0.106
-642.697	125.749	-0.105	-0.136
-641.682	800.000	0.133	-0.389
-640.668	577.616	0.071	-0.179
-639.653	21.482	-0.278	-0.232
-638.638	115.356	0.120	0.150
-637.624	800.000	-0.016	0.065
-636.609	-86.868	-0.191	-0.060
-635.595	46.013	0.123	-0.116
-634.580	30.096	-0.239	-0.210
-633.565	548.472	-0.037	0.090
-632.551	288.546	-0.006	0.012
-631.536	158.449	-0.064	-0.091
-630.522	-81.437	-0.134	0.045
-629.507	-7.681	0.139	-0.097
-628.492	-85.413	0.302	-0.096
-627.478	197.811	-0.181	0.284
-626.463	-28.447	0.243	-0.144
-625.449	48.050	0.166	0.159
-624.434	-149.940	-0.232	-0.019
-623.419	284.567	0.063	-0.116
-622.405	236.454	-0.170	-0.289
-621.390	-56.657	-0.148	0.067
-620.376	198.202	-0.137	-0.214
-619.361	800.000	-0.072	-0.254
-618.346	800.000	-0.078	-0.250
-617.332	-17.901	-0.121	0.078
-616.317	77.490	-0.303	0.330
-615.303	-127.438	-0.453	0.068
-614.288	-200.000	-0.028	-0.393
-613.273	115.423	-0.180	-0.226
-612.259	705.907	-0.044	-0.120
-611.244	115.981	-0.190	-0.239
-610.230	327.817	0.064	0.125
-609.215	34.092	-0.166	0.148
-608.201	-83.280	-0.105	0.034
-607.186	-119.652	-0.181	-0.032
-606.171	800.000	-0.040	0.176
-605.157	-32.210	-0.017	-0.010
-604.142	-71.198	-0.413	-0.159
-603.128	-200.000	0.001	-0.167
-602.113	125.237	0.250	0.324
-601.098	-200.000	-0.049	0.237
-600.084	-164.525	-0.154	0.007
-599.069	32.857	-0.140	0.124
-598.055	-58.726	-0.307	0.136
-597.040	121.789	0.075	-0.096
-596.025	-129.839	0.255	-0.036
-595.011	79.907	-0.163	-0.180
-593.996	113.243	-0.080	-0.099
-592.982	611.875	0.084	-0.214
-591.967	-129.535	-0.537	0.076
-590.952	10.827	0.220	0.172
-589.938	-30.735	-0.139	0.081
-588.923	800.000	-0.085	-0.289
-587.909	800.000	0.028	0.101
-586.894	-59.221	-0.370	0.163
-585.879	-200.000	0.013	0.204
-584.865	199.704	0.103	-0.162
-583.850	113.676	-0.200	0.249
-582.836	380.366	0.067	0.140
-581.821	302.901	0.068	-0.129
-580.806	180.600	0.142	0.213
-579.792	-4.695	-0.038	0.027
-578.777	165.630	0.119	-0.173
-577.763	-23.550	-0.337	-0.207
-576.748	-63.457	-0.248	-0.105
-575.733	800.000	0.041	0.137
-574.719	-19.053	-0.246	0.156
-573.704	-126.562	0.314	-0.048
-572.690	-200.000	0.003	-0.242
-571.675	800.000	0.032	-0.097
-570.661	-200.000	0.004	0.075
-569.646	-126.706	0.279	-0.042
-568.631	185.274	-0.083	-0.126
-567.617	173.268	0.151	-0.223
-566.602	800.000	0.086	-0.325
-565.588	-48.781	-0.102	0.050
-564.573	47.510	-0.257	-0.245
-563.558	-13.743	-0.101	-0.067
-562.544	3.764	0.105	-0.078
-561.529	-200.000	0.125	0.000
-560.515	244.545	0.085	0.147
-559.500	77.700	0.097	-0.106
-558.485	368.959	0.108	-0.223
-557.471	-200.000	-0.009	0.291
-556.456	-200.000	0.001	0.043
-555.442	800.000	-0.034	0.135
-554.427	-106.269	0.141	-0.032
-553.412	3.664	-0.171	-0.128
-552.398	-3.486	-0.214	-0.152
-551.383	-58.907	0.010	0.005
-550.369	-200.000	0.025	0.192
-549.354	800.000	0.069	-0.197
-548.339	-69.790	0.384	-0.150
-547.325	-69.934	-0.164	-0.064
-546.310	800.000	0.150	0.429
-545.296	154.175	-0.028	-0.039
-544.281	-44.228	-0.306	-0.157
-543.266	-200.000	-0.004	-0.320
-542.252	-129.291	0.249	-0.035
-541.237	52.297	0.097	0.095
-540.223	-178.849	0.317	0.007
-539.208	-200.000	-0.004	-0.060
-538.193	-200.000	-0.055	-0.313
-537.179	-111.837	0.112	-0.023
-536.164	-200.000	-0.011	-0.063
-535.150	30.459	0.141	-0.123
-534.135	-200.000	0.043	0.383
-533.121	182.036	-0.087	0.131
-532.106	800.000	0.078	-0.292
-531.091	-200.000	0.030	-0.135
-530.077	-200.000	-0.080	0.363
-529.062	-200.000	-0.026	0.155
-528.048	-148.264	0.057	-0.005
-527.033	163.159	0.093	0.133
-526.018	-93.438	-0.342	-0.097
-525.004	800.000	0.054	0.178
-523.989	-200.000	-0.024	-0.174
-522.975	114.007	-0.119	0.147
-521.960	-200.000	0.017	0.192
-520.945	-200.000	-0.015	-0.088
-519.931	-86.420	-0.158	0.049
-518.916	-167.074	0.322	0.013
-517.902	-52.482	0.084	-0.039
-516.887	14.306	-0.072	-0.057
-515.872	-135.284	0.338	-0.041
-514.858	7.735	-0.057	-0.044
-513.843	-127.038	-0.140	0.021
-512.829	-51.612	-0.047	-0.022
-511.814	42.918	0.058	0.054
-510.799	-147.966	0.139	-0.012
-509.785	288.987	-0.093	-0.172
-508.770	-200.000	-0.004	0.164
-507.756	-200.000	0.049	0.355
-506.741	-200.000	0.022	-0.127
-505.726	-42.450	0.063	0.033
-504.712	326.560	-0.149	-0.291
-503.697	-150.169	-0.149	0.012
-502.683	-101.953	-0.333	-0.082
-501.668	417.357	-0.046	-0.101
-500.653	173.661	-0.178	0.262
-499.639	-200.000	-0.012	-0.182
-498.624	-17.319	0.043	-0.028
-497.610	216.471	0.123	-0.199
-496.595	-76.225	-0.146	-0.053
-495.581	316.801	-0.051	0.097
-494.566	207.019	-0.050	-0.080
-493.551	-200.000	-0.008	0.191
-492.537	-111.271	-0.219	0.046
-491.522	-200.000	0.005	0.089
-490.508	800.000	-0.034	-0.141
-489.493	-200.000	0.009	-0.225
-488.478	-132.097	0.063	-0.008
-487.464	42.397	-0.081	0.075
-486.449	-200.000	-0.002	0.029
-485.435	79.347	-0.119	-0.130
-484.420	2.323	-0.192	-0.142
-483.405	-38.647	-0.229	0.123
-482.391	-7.438	-0.110	0.076
-481.376	23.140	-0.092	0.077
-480.362	-91.681	0.064	0.018
-479.347	167.871	-0.016	-0.023
-478.332	-85.601	-0.036	0.011
-477.318	-200.000	-0.019	-0.272
-476.303	-127.458	-0.217	-0.032
-475.289	-121.300	-0.091	0.016
-474.274	81.559	0.322	-0.356
-473.259	-58.904	-0.308	-0.136
-472.245	143.746	-0.115	-0.156
-471.230	-156.770	-0.246	-0.015
-470.216	800.000	0.029	0.125
-469.201	800.000	0.158	0.543
-468.186	800.000	0.050	0.198
-467.172	-200.000	0.003	0.145
-466.157	800.000	-0.044	-0.169
-465.143	55.292	0.304	0.300
-464.128	39.243	0.243	-0.222
-463.113	-66.488	0.406	-0.164
-462.099	-200.000	0.009	-0.140
-461.084	11.245	-0.003	-0.002
-460.070	-28.580	0.161	-0.095
-459.055	800.000	0.039	0.138
-458.040	-115.581	0.142	-0.027
-457.026	29.530	-0.017	-0.015
-456.011	800.000	-0.033	0.106
-454.997	35.312	0.319	-0.285
-453.982	-141.701	-0.066	-0.007
-452.968	-200.000	-0.034	0.212
-451.953	-200.000	-0.041	-0.324
-450.938	-36.500	-0.108	0.059
-449.924	-200.000	0.032	0.204
-448.909	-200.000	0.048	-0.477
-447.895	-5.652	-0.210	0.146
-446.880	55.775	0.135	-0.133
-445.865	-63.210	-0.062	0.026
-444.851	-200.000	-0.009	-0.207
-443.836	-107.417	-0.161	0.036
-442.822	290.292	-0.041	-0.076
-441.807	-3.271	0.162	0.115
-440.792	311.871	0.164	0.313
-439.778	20.430	0.203	0.167
-438.763	-107.124	0.145	-0.033
-437.749	-167.496	0.529	0.022
-436.734	205.008	-0.205	0.324
-435.719	-30.216	-0.075	-0.044
-434.705	800.000	0.083	0.293
-433.690	67.239	0.162	-0.168
-432.676	117.852	0.190	0.239
-431.661	-44.455	0.372	0.190
-430.646	-40.380	-0.175	-0.093
-429.632	-110.712	0.120	-0.025
-428.617	29.878	-0.200	0.174
-427.603	22.464	-0.129	0.107
-426.588	-158.902	0.387	-0.022
-425.573	-49.480	0.252	0.122
-424.559	219.374	0.106	0.172
-423.544	800.000	-0.061	0.209
-422.530	-86.682	0.269	0.084
-421.515	751.840	0.088	0.242
-420.500	-16.608	-0.162	-0.104
-419.486	-181.469	0.234	0.005
-418.471	11.363	0.132	0.103
-417.457	144.382	-0.110	0.150
-416.442	106.636	-0.143	-0.173
-415.428	800.000	-0.045	-0.138
-414.413	-54.281	0.142	-0.066
-413.398	-42.843	0.111	0.057
-412.384	478.214	0.052	0.119
-411.369	-88.682	0.085	-0.026
-410.355	-200.000	0.004	-0.213
-409.340	-50.680	0.151	0.072
-408.325	200.562	-0.102	-0.160
-407.311	-88.829	0.199	-0.060
-406.296	-65.436	0.275	-0.113
-405.282	-62.820	-0.284	-0.120
-404.267	62.224	0.146	-0.148
-403.252	318.800	-0.161	-0.311
-402.238	-65.851	0.092	-0.038
-401.223	-113.002	0.094	-0.019
-400.209	-0.951	-0.073	0.052
-399.194	509.283	0.118	0.279
-398.179	42.312	0.112	-0.104
-397.165	-140.157	0.145	-0.015
-396.150	800.000	-0.094	-0.341
-395.136	75.598	-0.178	-0.191
-394.121	55.607	-0.071	0.070
-393.106	-81.123	-0.209	-0.070
-392.092	-10.288	-0.064	0.043
-391.077	-173.381	0.219	-0.007
-390.063	-77.514	0.186	-0.066
-389.048	-116.427	0.125	0.023
-388.033	-82.588	-0.126	0.042
-387.019	-159.826	0.078	0.004
-386.004	48.105	0.040	-0.038
-384.990	-14.062	-0.107	-0.070
-383.975	92.388	-0.171	0.196
-382.960	767.875	-0.157	0.434
-381.946	800.000	-0.046	0.141
-380.931	-84.304	-0.118	0.038
-379.917	800.000	-0.065	-0.202
-378.902	63.184	0.254	0.258
-377.888	-193.998	0.111	-0.001
-376.873	-200.000	-0.051	0.229
-375.858	132.578	0.107	-0.140
-374.844	-56.805	-0.072	0.032
-373.829	58.497	0.190	0.189
-372.815	-200.000	-0.012	-0.210
-371.800	194.783	0.190	-0.293
-370.785	-200.000	0.023	-0.168
-369.771	-26.918	0.129	0.077
-368.756	-200.000	-0.036	-0.304
-367.742	398.449	0.033	-0.069
-366.727	-17.233	-0.229	-0.146
-365.712	302.648	-0.077	0.144
-364.698	100.694	-0.162	-0.191
-363.683	-50.935	-0.117	-0.056
-362.669	-200.000	-0.012	0.056
-361.654	-12.830	-0.136	0.090
-360.639	289.544	-0.114	0.210
-359.625	-43.307	-0.134	0.069
-358.610	-195.035	0.161	0.001
-357.596	-5.622	0.259	0.180
-356.581	152.775	-0.175	0.243
-355.566	219.362	0.129	0.210
-354.552	-21.838	0.064	0.040
-353.537	218.286	0.144	0.234
-352.523	122.602	0.222	0.281
-351.508	270.151	0.170	-0.304
-350.493	-7.130	0.237	0.164
-349.479	250.298	-0.044	0.075
-348.464	434.612	-0.119	-0.261
-347.450	-28.054	-0.267	0.157
-346.435	-36.296	-0.121	0.066
-345.420	-99.154	0.298	-0.077
-344.406	-129.641	0.117	-0.016
-343.391	-4.284	-0.122	0.085
-342.377	800.000	-0.082	0.304
-341.362	148.769	-0.068	0.093
-340.348	82.777	0.063	-0.070
-339.333	-200.000	-0.013	-0.086
-338.318	-81.476	0.228	-0.076
-337.304	41.386	-0.232	0.213
-336.289	-88.250	-0.165	-0.050
-335.275	175.419	0.126	0.186
-334.260	426.499	-0.024	-0.053
-333.245	-177.528	-0.241	-0.006
-332.231	-200.000	-0.014	0.133
-331.216	-102.282	-0.067	-0.016
-330.202	-70.130	-0.122	0.047
-329.187	685.130	-0.106	-0.281
-328.172	-61.026	0.086	0.037
-327.158	169.036	-0.175	0.252
-326.143	19.020	0.116	-0.094
-325.129	24.838	0.169	-0.142
-324.114	6.151	-0.026	0.020
-323.099	-200.000	0.011	-0.131
-322.085	-42.319	-0.325	0.168
-321.070	114.394	0.150	0.185
-320.056	12.466	0.143	0.111
-319.041	800.000	-0.025	0.100
-318.026	360.222	-0.058	-0.118
-317.012	-200.000	-0.001	0.121
-315.997	-135.186	-0.228	-0.028
-314.983	38.980	-0.140	0.127
-313.968	-61.005	-0.145	-0.062
-312.953	96.722	0.107	-0.125
-311.939	-200.000	-0.079	0.371
-310.924	-104.935	0.226	-0.053
-309.910	-200.000	-0.052	-0.240
-308.895	86.384	-0.107	-0.120
-307.880	-165.241	0.180	0.008
-306.866	42.884	-0.302	0.279
-305.851	369.578	-0.061	0.126
-304.837	59.174	0.329	-0.328
-303.822	-55.429	0.365	0.166
-302.807	-0.041	-0.118	-0.085
-301.793	72.271	-0.120	-0.126
-300.778	18.347	0.088	-0.071
-299.764	-76.065	0.276	-0.099
-298.749	800.000	0.034	-0.113
-297.735	-200.000	-0.014	0.107
-296.720	387.265	0.089	-0.185
-295.705	186.908	-0.030	-0.046
-294.691	155.875	-0.136	-0.189
-293.676	-200.000	-0.033	-0.148
-292.662	31.769	0.253	0.220
-291.647	800.000	0.069	-0.254
-290.632	-200.000	-0.002	0.461
-289.618	-112.401	0.270	0.055
-288.603	1.120	-0.416	-0.302
-287.589	-200.000	0.000	0.202
-286.574	-7.045	-0.367	0.252
-285.559	6.290	0.331	0.249
-284.545	-200.000	-0.001	0.335
-283.530	-109.275	-0.264	-0.057
-282.516	-42.527	0.136	-0.070
-281.501	-73.916	-0.125	0.046
-280.486	-200.000	0.077	0.368
-279.472	11.717	0.074	0.057
-278.457	36.075	0.171	-0.152
-277.443	-200.000	0.004	-0.354
-276.428	-103.094	0.102	-0.024
-275.413	212.507	0.183	-0.291
-274.399	-32.965	0.380	-0.213
-273.384	-200.000	0.003	0.019
-272.370	-141.476	0.311	0.032
-271.355	351.925	-0.040	0.079
-270.340	-177.034	-0.115	0.003
-269.326	-54.204	0.256	0.118
-268.311	-13.093	0.230	-0.151
-267.297	262.875	0.129	-0.227
-266.282	-166.720	0.176	0.007
-265.267	759.302	-0.070	0.193
-264.253	-94.214	0.309	-0.086
-263.238	40.940	0.101	-0.092
-262.224	-200.000	0.039	0.273
-261.209	-66.783	-0.197	0.079
-260.195	-116.204	-0.167	0.031
-259.180	36.327	0.317	-0.282
-258.165	792.115	-0.127	-0.354
-257.151	-46.327	0.183	-0.091
-256.136	772.545	-0.076	-0.211
-255.122	-200.000	0.008	-0.206
-254.107	-182.182	-0.099	0.002
-253.092	-136.339	0.083	-0.010
-252.078	-118.225	0.445	-0.080
-251.063	-146.101	-0.066	0.006
-250.049	-145.821	0.194	0.017
-249.034	-200.000	-0.017	0.242
-248.019	-116.869	-0.356	0.066
-247.005	274.755	-0.158	0.283
-245.990	-31.344	-0.182	0.104
-244.976	800.000	0.081	0.298
-243.961	221.502	0.006	0.010
-242.946	150.965	0.210	0.288
-241.932	-200.000	-0.074	-0.471
-240.917	800.000	0.060	0.239
-239.903	-200.000	0.012	-0.119
-238.888	83.010	-0.150	-0.165
-237.873	800.000	-0.055	-0.214
-236.859	-200.000	-0.040	-0.323
-235.844	282.894	-0.177	-0.321
-234.830	7.438	0.325	-0.245
-233.815	800.000	-0.027	0.083
-232.800	-151.935	-0.156	-0.011
-231.786	153.871	0.185	0.256
-230.771	-200.000	0.010	-0.113
-229.757	-11.875	-0.094	0.062
-228.742	-42.884	0.104	0.053
-227.727	-119.103	-0.267	0.047
-226.713	440.533	0.040	-0.088
-225.698	147.504	-0.174	0.236
-224.684	138.983	-0.229	0.304
-223.669	4.190	0.249	-0.184
-222.655	383.712	-0.098	0.205
-221.640	800.000	0.069	-0.303
-220.625	85.098	-0.215	-0.238
-219.611	-56.386	-0.342	0.153
-218.596	51.364	0.012	0.012
-217.582	800.000	0.058	-0.181
-216.567	800.000	0.072	-0.263
-215.552	-200.000	0.045	0.448
-214.538	-200.000	0.018	0.202
-213.523	-121.848	-0.245	0.041
-212.509	800.000	0.012	-0.048
-211.494	-98.724	0.503	-0.129
-210.479	13.096	-0.287	0.224
-209.465	-85.679	-0.025	0.008
-208.450	179.588	0.127	0.188
-207.436	-193.340	-0.510	-0.004
-206.421	-96.384	0.164	0.044
-205.406	183.104	0.172	0.256
-204.392	148.180	0.253	0.345
-203.377	-13.496	0.362	0.237
-202.363	46.822	0.197	-0.185
-201.348	1.942	0.261	0.190
-200.333	9.154	0.226	-0.172
-199.319	330.272	-0.127	-0.248
-198.304	-154.263	-0.171	-0.012
-197.290	-118.466	-0.156	0.028
-196.275	-62.429	0.202	0.085
-195.260	34.246	0.069	0.061
-194.246	-154.235	0.177	0.012
-193.231	83.095	0.030	0.033
-192.217	147.699	-0.119	-0.162
-191.202	39.410	-0.030	-0.027
-190.187	-200.000	-0.044	0.209
-189.173	-200.000	-0.034	0.305
-188.158	494.500	0.093	0.216
-187.144	-43.977	0.136	0.069
-186.129	-64.728	-0.121	0.049
-185.114	-175.331	-0.234	0.006
-184.100	-200.000	0.012	-0.269
-183.085	800.000	-0.050	0.150
-182.071	-40.100	0.156	-0.082
-181.056	-94.660	0.226	-0.062
-180.042	-147.029	0.078	-0.007
-179.027	701.912	0.155	0.413
-178.012	746.711	0.033	0.089
-176.998	-200.000	-0.012	0.149
-175.983	-61.592	-0.265	0.112
-174.969	10.074	0.208	-0.160
-173.954	109.280	-0.084	-0.101
-172.939	434.525	-0.146	0.319
-171.925	72.450	0.166	0.175
-170.910	280.396	0.136	0.245
-169.896	-118.661	-0.094	-0.017
-168.881	427.677	-0.143	-0.310
-167.866	36.390	-0.178	-0.158
-166.852	-46.929	-0.113	0.056
-165.837	-17.845	0.303	-0.192
-164.823	800.000	0.036	-0.107
-163.808	-200.000	0.110	0.490
-162.793	-123.948	-0.228	0.036
-161.779	-200.000	-0.007	-0.252
-160.764	28.749	0.046	-0.039
-159.750	-200.000	0.001	0.010
-158.735	57.645	0.242	0.238
-157.720	-48.674	-0.329	-0.159
-156.706	-127.731	0.101	-0.015
-155.691	63.931	0.177	-0.180
-154.677	-158.532	-0.386	-0.022
-153.662	-188.703	-0.510	-0.006
-152.647	12.400	-0.122	-0.095
-151.633	-200.000	-0.012	0.206
-150.618	-108.637	0.688	0.149
-149.604	800.000	0.145	-0.422
-148.589	-44.423	-0.144	-0.073
-147.574	-31.664	-0.183	0.103
-146.560	120.323	0.028	-0.034
-145.545	-57.108	-0.200	-0.089
-144.531	194.830	0.089	-0.136
-143.516	5.733	-0.288	0.215
-142.502	-44.349	-0.076	0.038
-141.487	135.234	0.202	-0.265
-140.472	-200.000	-0.038	0.523
-139.458	-200.000	-0.008	0.233
-138.443	-95.597	0.249	-0.067
-137.429	-161.096	-0.167	0.009
-136.414	-76.933	-0.149	0.052
-135.399	-200.000	0.034	-0.155
-134.385	520.350	0.113	-0.267
-133.370	-200.000	0.064	-0.479
-132.356	93.787	-0.034	-0.039
-131.341	-200.000	-0.027	-0.199
-130.326	519.904	0.107	0.252
-129.312	800.000	0.093	0.345
-128.297	-94.889	-0.131	0.036
-127.283	158.168	0.043	0.061
-126.268	800.000	-0.107	-0.358
-125.253	800.000	0.051	0.181
-124.239	800.000	0.139	0.447
-123.224	377.880	0.147	-0.303
-122.210	16.388	0.327	-0.260
-121.195	-24.253	0.149	-0.089
-120.180	366.658	-0.166	-0.336
-119.166	-200.000	0.022	0.146
-118.151	-200.000	0.020	0.117
-117.137	-105.023	-0.070	0.016
-116.122	21.289	0.206	-0.168
-115.107	24.347	-0.243	0.202
-114.093	450.863	0.164	0.365
-113.078	-200.000	-0.019	0.151
-112.064	-159.312	-0.188	0.011
-111.049	-128.546	0.240	0.034
-110.034	-88.809	-0.118	0.035
-109.020	-105.530	0.423	-0.096
-108.005	-200.000	0.035	0.197
-106.991	0.949	0.161	0.116
-105.976	51.877	0.090	0.086
-104.962	507.735	0.049	-0.114
-103.947	-119.489	0.295	0.051
-102.932	-200.000	0.040	-0.179
-101.918	17.376	0.100	-0.080
-100.903	98.385	0.241	0.279
-99.889	-200.000	0.000	0.232
-98.874	800.000	0.103	-0.416
-97.859	-110.736	0.166	0.034
-96.845	97.438	-0.107	-0.124
-95.830	197.930	0.296	0.454
-94.816	55.691	0.202	0.197
-93.801	-9.288	-0.139	0.093
-92.786	-67.769	-0.148	0.058
-91.772	-59.035	-0.078	0.034
-90.757	-200.000	0.061	-0.319
-89.743	-169.297	0.255	0.009
-88.728	-192.491	0.212	0.002
-87.713	431.629	0.075	0.163
-86.699	-74.584	0.257	-0.093
-85.684	541.094	0.054	-0.130
-84.670	756.612	-0.081	-0.220
-83.655	197.246	0.131	-0.201
-82.640	-73.771	-0.144	0.053
-81.626	310.660	-0.194	0.365
-80.611	357.286	-0.074	-0.149
-79.597	5.405	-0.176	0.130
-78.582	56.732	0.114	0.111
-77.567	-200.000	0.019	0.139
-76.553	-200.000	-0.046	0.357
-75.538	-21.035	-0.125	0.077
-74.524	-200.000	-0.063	0.364
-73.509	-89.153	0.326	0.097
-72.494	-130.279	0.337	-0.046
-71.480	800.000	-0.025	0.087
-70.465	72.269	-0.125	-0.131
-69.451	-57.394	-0.118	-0.052
-68.436	-46.118	0.176	-0.087
-67.422	421.994	0.116	0.249
-66.407	-200.000	0.020	0.461
-65.392	-200.000	0.001	-0.146
-64.378	-132.245	0.286	-0.037
-63.363	-24.030	0.222	0.133
-62.349	-155.239	-0.155	-0.010
-61.334	165.157	-0.542	-0.767
-60.319	800.000	0.101	0.429
-59.305	-200.000	-0.003	-0.498
-58.290	38.513	0.595	0.533
-57.276	605.257	0.623	1.556
-56.261	-200.000	70.798	533.845
-55.246	574.345	1281.958	3137.162
-54.232	137.824	2541.909	3339.750
-53.217	110.886	2394.533	2890.520
-52.203	51.174	2133.128	2029.731
-51.188	45.659	2039.437	1889.817
-50.173	43.851	2020.012	1855.201
-49.159	55.566	2054.723	1995.267
-48.144	61.411	2074.991	2068.713
-47.130	46.627	2040.464	1899.395
-46.115	43.650	2030.185	1862.392
-45.100	43.581	2026.811	1858.591
-44.086	43.538	2025.064	1856.524
-43.071	43.520	2022.660	1854.078
-42.057	43.434	2020.422	1851.166
-41.042	43.447	2018.743	1849.671
-40.027	43.594	2015.925	1848.359
-39.013	43.606	2013.722	1846.376
-37.998	43.537	2012.321	1844.387
-36.984	43.551	2010.897	1843.136
-35.969	43.592	2008.490	1841.233
-34.954	43.644	2006.904	1840.180
-33.940	43.614	2005.209	1838.281
-32.925	43.647	2003.566	1837.004
-31.911	43.701	2002.008	1835.988
-30.896	43.651	2000.020	1833.642
-29.881	43.691	1998.710	1832.732
-28.867	43.739	1996.834	1831.372
-27.852	43.721	1994.951	1829.408
-26.838	43.633	1993.037	1826.786
-25.823	43.748	1990.761	1825.666
-24.809	43.631	1989.459	1823.344
-23.794	43.724	1987.492	1822.308
-22.779	43.689	1986.232	1820.759
-21.765	43.675	1984.633	1819.101
-20.750	43.573	1983.365	1816.943
-19.736	43.654	1981.410	1815.813
-18.721	43.706	1979.726	1814.661
-17.706	43.634	1978.024	1812.383
-16.692	43.605	1976.619	1810.765
-15.677	43.663	1974.160	1808.964
-14.663	43.526	1973.421	1806.988
-13.648	43.632	1972.237	1806.773
-12.633	43.615	1970.841	1805.276
-11.619	43.680	1969.109	1804.196
-10.604	43.698	1967.463	1802.774
-9.590	43.674	1966.250	1801.380
-8.575	43.679	1964.406	1799.667
-7.560	43.627	1963.795	1798.574
-6.546	43.679	1962.409	1797.693
-5.531	43.606	1961.314	1795.965
-4.517	43.703	1959.733	1795.315
-3.502	43.598	1958.987	1793.622
-2.487	43.566	1957.419	1791.835
-1.473	43.692	1956.275	1791.836
-0.458	43.832	1952.384	1789.436
0.556	41.757	1933.636	1767.012
1.571	37.593	1912.571	1711.088
2.586	32.305	1931.330	1680.616
3.600	30.068	1966.736	1690.879
4.615	28.452	1963.110	1672.886
5.629	22.266	1859.780	1531.019
6.644	11.902	1733.469	1342.377
7.659	6.271	1689.954	1263.449
8.673	5.675	1685.067	1254.918
9.688	5.599	1683.474	1253.008
10.702	5.539	1681.946	1251.284
11.717	5.257	1679.846	1247.360
12.731	5.912	1679.403	1252.147
13.746	12.421	1695.125	1316.030
14.761	19.051	1709.330	1380.300
15.775	19.103	1705.992	1377.899
16.790	17.154	1700.858	1358.058
17.804	15.854	1697.175	1344.620
18.819	14.888	1693.757	1334.093
19.834	14.320	1690.831	1327.141
20.848	13.858	1689.794	1322.528
21.863	13.589	1688.086	1318.938
22.877	13.384	1686.531	1315.978
23.892	13.141	1685.077	1312.792
24.907	13.051	1683.811	1310.973
25.921	13.056	1682.585	1309.947
26.936	13.081	1681.690	1309.334
27.950	13.105	1680.622	1308.574
28.965	13.202	1680.240	1308.925
29.980	13.158	1679.640	1307.998
30.994	13.200	1678.559	1307.374
32.009	13.230	1677.627	1306.767
33.023	13.356	1676.253	1306.575
34.038	13.361	1675.555	1305.956
35.053	13.378	1674.388	1305.065
36.067	13.262	1672.876	1302.858
37.082	13.198	1672.041	1301.585
38.096	13.216	1670.966	1300.778
39.111	13.252	1670.169	1300.324
40.126	13.229	1669.305	1299.354
41.140	13.286	1668.514	1299.071
42.155	13.216	1666.443	1296.797
43.169	13.132	1665.348	1295.175
44.184	13.031	1664.310	1293.459
45.199	13.061	1662.813	1292.418
46.213	13.058	1661.647	1291.369
47.228	13.082	1660.559	1290.597
48.242	13.098	1659.781	1290.003
49.257	13.149	1658.477	1289.273
50.271	13.202	1657.179	1288.563
51.286	13.135	1655.991	1287.005
52.301	13.176	1654.615	1286.142
53.315	13.217	1653.077	1285.154
54.330	13.269	1651.575	1284.272
55.344	13.118	1650.245	1281.956
56.359	13.009	1648.905	1279.957
57.374	13.059	1647.600	1279.216
58.388	13.100	1646.462	1278.534
59.403	13.059	1644.993	1276.963
60.417	13.012	1643.594	1275.406
61.432	12.915	1642.624	1273.789
62.447	13.015	1640.994	1273.180
63.461	12.962	1640.230	1272.068
64.476	12.908	1639.376	1270.877
65.490	12.864	1638.411	1269.674
66.505	12.920	1636.825	1268.766
67.520	12.900	1636.051	1267.906
68.534	12.886	1635.286	1267.087
69.549	13.010	1633.913	1266.866
70.563	13.025	1632.596	1265.843
71.578	12.974	1631.378	1264.398
72.593	12.897	1630.471	1262.998
73.607	12.847	1629.901	1262.060
74.622	12.839	1628.545	1260.834
75.636	12.824	1627.233	1259.592
76.651	12.819	1626.547	1258.911
77.666	12.876	1625.512	1258.436
78.680	12.814	1625.078	1257.514
79.695	12.777	1624.619	1256.770
80.709	12.902	1623.129	1256.453
81.724	12.915	1622.567	1256.007
82.739	13.051	1621.748	1256.300
83.753	13.017	1620.409	1254.891
84.768	13.104	1619.834	1254.998
85.782	13.188	1619.015	1254.887
86.797	13.233	1618.060	1254.382
87.812	13.305	1616.954	1253.956
88.826	13.179	1616.139	1252.262
89.841	13.103	1614.755	1250.498
90.855	13.140	1613.970	1250.064
91.870	13.164	1612.500	1248.991
92.884	13.212	1611.629	1248.573
93.899	13.235	1610.710	1247.924
94.914	13.268	1609.089	1246.801
95.928	13.190	1608.298	1245.495
96.943	13.371	1606.243	1245.153
97.957	13.367	1605.050	1244.092
98.972	13.290	1603.887	1242.502
99.987	13.206	1602.594	1240.756
101.001	13.182	1601.132	1239.336
102.016	13.177	1599.495	1237.922
103.030	13.257	1598.061	1237.301
104.045	13.240	1596.654	1235.973
105.060	13.242	1595.355	1234.878
106.074	13.145	1593.850	1232.876
107.089	13.111	1592.726	1231.647
108.103	13.012	1590.489	1229.069
109.118	12.963	1589.195	1227.594
110.133	12.977	1588.050	1226.707
111.147	13.051	1586.480	1225.937
112.162	13.055	1585.151	1224.826
113.176	13.005	1584.043	1223.493
114.191	12.994	1582.973	1222.475
115.206	13.081	1581.464	1221.845
116.220	13.140	1580.207	1221.206
117.235	13.085	1578.654	1219.491
118.249	13.058	1577.532	1218.314
119.264	13.026	1576.539	1217.206
120.279	13.021	1574.973	1215.851
121.293	13.037	1573.273	1214.548
122.308	12.920	1572.372	1212.886
123.322	12.956	1570.547	1211.634
124.337	12.900	1569.447	1210.272
125.352	12.941	1567.825	1209.211
126.366	12.950	1566.901	1208.462
127.381	13.007	1565.389	1207.603
128.395	13.008	1564.727	1206.992
129.410	12.955	1563.529	1205.573
130.424	12.917	1562.417	1204.334
131.439	13.014	1560.667	1203.586
132.454	12.999	1559.580	1202.533
133.468	13.091	1558.071	1201.931
134.483	13.126	1556.669	1200.999
135.497	13.204	1555.121	1200.261
136.512	13.115	1554.123	1198.740
137.527	13.075	1552.829	1197.347
138.541	13.219	1550.929	1196.816
139.556	13.202	1549.736	1195.671
140.570	13.173	1548.219	1194.183
141.585	13.255	1547.149	1193.841
142.600	13.270	1546.360	1193.241
143.614	13.349	1544.940	1192.604
144.629	13.427	1543.293	1191.790
145.643	13.460	1542.143	1191.037
146.658	13.434	1541.142	1189.971
147.673	13.415	1539.229	1188.248
148.687	13.362	1537.957	1186.786
149.702	13.306	1535.937	1184.716
150.716	13.299	1534.482	1183.445
151.731	13.168	1533.280	1181.476
152.746	13.224	1532.151	1180.895
153.760	13.206	1530.494	1179.389
154.775	13.276	1529.226	1178.806
155.789	13.284	1528.029	1177.833
156.804	13.230	1526.904	1176.482
157.819	13.363	1525.369	1176.143
158.833	13.330	1524.607	1175.212
159.848	13.331	1523.927	1174.589
160.862	13.465	1522.479	1174.322
161.877	13.528	1521.156	1173.645
162.892	13.515	1519.776	1172.387
163.906	13.341	1519.235	1170.631
164.921	13.263	1517.804	1168.873
165.935	13.401	1516.543	1168.773
166.950	13.372	1515.711	1167.826
167.964	13.306	1514.534	1166.351
168.979	13.425	1512.984	1165.893
169.994	13.348	1512.558	1164.915
171.008	13.451	1511.328	1164.593
172.023	13.454	1509.588	1163.168
173.037	13.447	1508.851	1162.450
174.052	13.498	1508.045	1162.080
175.067	13.537	1506.900	1161.370
176.081	13.587	1505.489	1160.532
177.096	13.284	1504.819	1157.791
178.110	13.365	1503.047	1156.889
179.125	13.409	1501.791	1156.128
180.140	13.479	1500.482	1155.507
181.154	13.393	1500.022	1154.451
182.169	13.513	1498.959	1154.366
183.183	13.505	1497.623	1153.179
184.198	13.505	1496.550	1152.253
185.213	13.631	1495.629	1152.319
186.227	13.612	1493.888	1150.744
187.242	13.690	1492.699	1150.269
188.256	13.674	1492.179	1149.654
189.271	13.697	1491.203	1148.961
190.286	13.630	1490.105	1147.544
191.300	13.718	1488.952	1147.165
192.315	13.540	1487.334	1144.587
193.329	13.414	1486.070	1142.646
194.344	13.364	1485.365	1141.656
195.359	13.361	1484.449	1140.828
196.373	13.456	1483.524	1140.675
197.388	13.687	1482.251	1141.187
198.402	13.734	1480.859	1140.333
199.417	13.739	1480.197	1139.756
200.432	13.786	1479.391	1139.357
201.446	13.918	1478.062	1139.139
202.461	13.937	1477.277	1138.564
203.475	14.027	1475.461	1137.682
204.490	14.012	1474.874	1137.026
205.504	13.939	1474.507	1136.139
206.519	13.843	1472.928	1134.167
207.534	13.822	1471.479	1132.810
208.548	13.832	1470.389	1131.938
209.563	13.902	1469.362	1131.521
210.577	13.885	1468.505	1130.650
211.592	13.876	1467.526	1129.730
212.607	13.949	1467.017	1129.738
213.621	14.023	1466.483	1129.732
214.636	14.055	1465.494	1129.083
215.650	13.958	1464.785	1127.779
216.665	14.038	1462.865	1126.744
217.680	14.085	1462.561	1126.731
218.694	14.077	1461.608	1125.844
219.709	14.176	1460.455	1125.523
220.723	14.143	1459.834	1124.720
221.738	14.228	1458.736	1124.353
222.753	14.035	1458.086	1122.451
223.767	14.002	1457.501	1121.672
224.782	14.171	1456.111	1121.648
225.796	14.158	1454.780	1120.434
226.811	14.158	1454.701	1120.275
227.826	14.261	1453.394	1119.859
228.840	14.276	1452.550	1119.210
229.855	14.089	1451.670	1117.177
230.869	14.199	1450.349	1116.804
231.884	14.194	1449.640	1116.127
232.899	14.252	1448.220	1115.319
233.913	14.165	1447.417	1114.019
234.928	14.113	1446.576	1112.925
235.942	14.148	1444.989	1111.838
236.957	14.145	1443.669	1110.707
237.972	14.118	1442.467	1109.504
238.986	14.160	1441.205	1108.714
240.001	14.163	1440.749	1108.284
241.015	14.172	1439.619	1107.377
242.030	14.193	1438.394	1106.478
243.045	14.237	1437.601	1106.062
244.059	14.195	1436.569	1104.892
245.074	14.255	1435.684	1104.512
246.088	14.391	1434.589	1104.475
247.103	14.299	1434.372	1103.597
248.117	14.392	1433.333	1103.314
249.132	14.394	1432.387	1102.506
250.147	14.520	1431.651	1102.676
251.161	14.551	1431.276	1102.492
252.176	14.651	1430.538	1102.490
253.190	14.762	1429.706	1102.477
254.205	14.699	1428.967	1101.395
255.220	14.808	1427.962	1101.246
256.234	14.769	1427.364	1100.430
257.249	14.839	1426.491	1100.119
258.263	14.837	1425.524	1099.266
259.278	14.858	1424.285	1098.349
260.293	14.769	1424.052	1097.488
261.307	14.717	1423.077	1096.293
262.322	14.844	1422.558	1096.634
263.336	14.852	1421.772	1095.983
264.351	14.924	1420.777	1095.591
265.366	14.909	1419.587	1094.479
266.380	15.057	1417.984	1094.110
267.395	15.014	1417.621	1093.454
268.409	15.018	1416.889	1092.820
269.424	14.889	1416.188	1091.339
270.439	14.885	1414.918	1090.240
271.453	14.877	1413.621	1089.093
272.468	14.899	1412.800	1088.503
273.482	14.934	1411.708	1087.796
274.497	14.931	1411.101	1087.210
275.512	14.836	1410.510	1086.041
276.526	14.919	1409.601	1085.784
277.541	14.926	1408.663	1085.009
278.555	15.001	1407.171	1084.250
279.570	14.928	1406.627	1083.266
280.585	14.957	1405.950	1082.832
281.599	15.094	1405.294	1083.122
282.614	15.096	1404.149	1082.156
283.628	14.978	1403.075	1080.468
284.643	14.975	1401.902	1079.449
285.657	15.024	1400.814	1078.831
286.672	15.028	1400.201	1078.294
287.687	15.008	1398.890	1077.055
288.701	15.051	1398.001	1076.553
289.716	15.054	1397.475	1076.075
290.730	15.123	1396.150	1075.404
291.745	15.119	1395.306	1074.629
292.760	15.121	1394.448	1073.885
293.774	15.091	1393.507	1072.876
294.789	15.114	1392.595	1072.225
295.803	15.257	1391.465	1072.177
296.818	15.243	1390.794	1071.476
297.833	15.276	1389.200	1070.359
298.847	15.142	1388.871	1069.160
299.862	15.259	1387.801	1068.985
300.876	15.298	1386.678	1068.275
301.891	15.256	1385.943	1067.345
302.906	15.371	1384.763	1067.076
303.920	15.476	1383.853	1066.949
304.935	15.395	1383.832	1066.325
305.949	15.501	1382.626	1065.970
306.964	15.424	1381.966	1064.882
307.979	15.491	1381.526	1064.873
308.993	15.563	1379.998	1064.057
310.008	15.512	1379.118	1062.962
311.022	15.503	1378.000	1061.947
312.037	15.506	1377.321	1061.351
313.052	15.563	1376.416	1060.920
314.066	15.575	1375.352	1060.080
315.081	15.561	1374.081	1058.920
316.095	15.445	1373.248	1057.449
317.110	15.431	1372.096	1056.385
318.125	15.460	1370.892	1055.544
319.139	15.454	1370.133	1054.832
320.154	15.414	1369.516	1054.009
321.168	15.335	1368.498	1052.634
322.183	15.528	1367.187	1052.746
323.197	15.497	1366.064	1051.596
324.212	15.512	1365.600	1051.235
325.227	15.501	1364.859	1050.508
326.241	15.578	1363.725	1050.021
327.256	15.612	1363.065	1049.634
328.270	15.597	1362.237	1048.809
329.285	15.540	1361.307	1047.644
330.300	15.605	1360.291	1047.173
331.314	15.538	1359.447	1046.013
332.329	15.587	1358.212	1045.274
333.343	15.633	1357.424	1044.862
334.358	15.707	1356.712	1044.685
335.373	15.628	1356.260	1043.751
336.387	15.626	1355.302	1042.912
337.402	15.721	1354.512	1042.798
338.416	15.741	1353.984	1042.426
339.431	15.858	1353.118	1042.389
340.446	15.770	1352.719	1041.445
341.460	15.783	1351.267	1040.317
342.475	15.870	1350.722	1040.344
343.489	16.018	1349.561	1040.266
344.504	16.092	1348.268	1039.634
345.519	15.944	1348.100	1038.505
346.533	15.994	1346.738	1037.669
347.548	16.126	1345.788	1037.656
348.562	16.131	1345.143	1037.098
349.577	16.143	1344.571	1036.642
350.592	16.057	1343.867	1035.479
351.606	16.037	1342.631	1034.314
352.621	16.084	1341.414	1033.569
353.635	15.900	1340.563	1031.697
354.650	15.949	1339.524	1031.105
355.665	15.933	1338.963	1030.486
356.679	15.968	1337.893	1029.785
357.694	15.939	1336.594	1028.517
358.708	16.032	1336.063	1028.582
359.723	16.131	1334.564	1027.942
360.738	16.054	1333.799	1026.789
361.752	16.092	1332.396	1025.850
362.767	15.964	1332.232	1024.858
363.781	16.051	1330.618	1024.056
364.796	16.156	1329.687	1023.883
365.810	16.223	1328.790	1023.507
366.825	16.202	1328.877	1023.358
367.840	16.325	1327.713	1023.115
368.854	16.300	1327.051	1022.362
369.869	16.420	1326.434	1022.524
370.883	16.450	1325.655	1022.016
371.898	16.417	1324.812	1021.077
372.913	16.435	1323.807	1020.317
373.927	16.333	1323.514	1019.384
374.942	16.394	1322.382	1018.793
375.956	16.438	1321.751	1018.480
376.971	16.459	1321.243	1018.127
377.986	16.406	1320.130	1016.859
379.000	16.394	1319.347	1016.094
380.015	16.491	1318.650	1016.051
381.029	16.644	1317.474	1015.972
382.044	16.579	1317.174	1015.264
383.059	16.563	1316.623	1014.649
384.073	16.593	1316.056	1014.302
385.088	16.563	1315.395	1013.528
386.102	16.682	1314.413	1013.392
387.117	16.627	1313.318	1012.128
388.132	16.673	1312.615	1011.770
389.146	16.537	1312.144	1010.504
390.161	16.528	1311.253	1009.680
391.175	16.593	1310.084	1009.079
392.190	16.634	1309.531	1008.803
393.205	16.530	1308.973	1007.669
394.219	16.611	1307.821	1007.173
395.234	16.779	1306.409	1006.992
396.248	16.671	1305.396	1005.484
397.263	16.598	1304.135	1003.988
398.278	16.594	1302.973	1002.985
399.292	16.743	1301.207	1002.418
400.307	16.591	1300.460	1000.851
401.321	16.608	1299.435	1000.078
402.336	16.547	1298.736	999.091
403.350	16.632	1297.558	998.597
404.365	16.663	1296.457	997.842
405.380	16.603	1295.977	997.030
406.394	16.658	1294.831	996.388
407.409	16.702	1294.318	996.164
408.423	16.733	1293.795	995.857
409.438	16.836	1293.058	995.805
410.453	16.867	1292.338	995.345
411.467	16.973	1291.423	995.171
412.482	16.993	1290.935	994.823
413.496	17.020	1290.670	994.691
414.511	16.973	1289.661	993.553
415.526	16.964	1288.981	992.887
416.540	17.029	1287.937	992.377
417.555	17.147	1287.178	992.394
418.569	17.138	1286.748	991.918
419.584	17.065	1286.422	991.154
420.599	16.968	1286.144	990.287
421.613	66.935	1304.896	1291.655
422.628	66.497	1307.610	1291.796
