DTS Sentinel unit serial number:	SN413079Multiplexer serial number:	ORYXHardware model number:	OX4-SRSoftware version number:	ORYX F/W v4.00 Oryx Data Collector v3.7.2.0data status	okinstallation	princeton_trtdifferential loss correction	single-endedforward channel	channel 4reverse channel	N/Adate	2019/09/14time	08:17:35forward acquisition time	60.00reverse acquisition time	0.00gamma	496.2192k internal	0.2315k external	0.2315temperature offset calibration	1.0135default loss term (dB/km)	0.3790temperature slope calibration	1.0000multiplexer offset coefficient	1.0000multiplexer slope coefficient	1.0000fibre end	0.00T internal ref (°C)	27.77T ext. ref 1 (°C)	3.61T ext. ref 2 (°C)	26.16length (m)	temperature (°C)	Stokes	anti-Stokes-747.200	-153.419	-0.165	0.012
-746.185	598.462	0.135	0.339
-745.171	160.732	-0.222	-0.314
-744.156	-200.000	-0.025	0.255
-743.142	-70.685	0.145	-0.055
-742.127	60.575	-0.140	-0.141
-741.112	-170.556	0.238	-0.008
-740.098	-200.000	-0.035	0.332
-739.083	-161.450	0.152	-0.008
-738.069	-105.264	-0.302	0.070
-737.054	-40.246	0.114	0.060
-736.039	-87.660	-0.460	0.141
-735.025	-145.688	0.256	0.023
-734.010	7.519	-0.295	-0.223
-732.996	-147.932	-0.244	-0.021
-731.981	-117.296	-0.159	0.029
-730.966	-200.000	-0.041	0.000
-729.952	-24.684	-0.109	-0.066
-728.937	-99.937	0.184	-0.046
-727.923	-115.544	0.209	0.040
-726.908	-200.000	-0.043	-0.324
-725.894	-31.728	-0.178	-0.101
-724.879	54.351	-0.258	0.251
-723.864	1.666	-0.402	-0.293
-722.850	290.993	0.043	-0.080
-721.835	675.879	0.109	-0.287
-720.821	41.122	-0.126	-0.115
-719.806	99.345	-0.138	0.161
-718.791	230.134	0.141	0.233
-717.777	-101.295	-0.343	0.085
-716.762	-200.000	0.001	0.068
-715.748	37.603	-0.219	0.197
-714.733	-142.624	0.294	-0.029
-713.718	188.703	0.237	0.359
-712.704	353.998	-0.040	-0.081
-711.689	-200.000	0.004	-0.188
-710.675	-97.252	0.268	-0.071
-709.660	87.061	-0.270	-0.302
-708.645	39.938	-0.168	-0.152
-707.631	176.288	-0.080	-0.118
-706.616	-78.943	-0.386	0.133
-705.602	-78.701	-0.172	0.060
-704.587	800.000	-0.035	-0.124
-703.572	-94.933	-0.142	-0.039
-702.558	-62.308	-0.120	-0.051
-701.543	136.824	-0.096	0.126
-700.529	800.000	0.035	0.101
-699.514	624.238	0.086	0.218
-698.499	-65.050	0.332	0.135
-697.485	-143.534	-0.238	-0.023
-696.470	58.740	-0.309	-0.307
-695.456	-82.424	0.272	-0.089
-694.441	800.000	0.052	-0.191
-693.426	-128.863	-0.114	-0.016
-692.412	-20.294	-0.467	0.291
-691.397	-108.844	-0.246	-0.053
-690.383	-82.879	-0.113	0.037
-689.368	-200.000	-0.001	0.012
-688.354	-11.494	-0.117	-0.078
-687.339	-21.993	-0.107	-0.066
-686.324	59.155	-0.046	0.046
-685.310	-41.676	-0.094	-0.049
-684.295	-64.055	-0.184	-0.076
-683.281	-1.805	-0.219	-0.156
-682.266	800.000	0.051	-0.147
-681.251	58.378	0.144	-0.143
-680.237	800.000	-0.117	-0.405
-679.222	-109.310	-0.471	0.101
-678.208	-200.000	-0.016	-0.234
-677.193	61.491	0.046	0.047
-676.178	-200.000	0.006	-0.087
-675.164	-105.686	0.333	-0.076
-674.149	-47.837	-0.209	-0.102
-673.135	-43.589	0.157	-0.080
-672.120	-34.337	-0.052	0.029
-671.105	110.704	-0.214	0.260
-670.091	800.000	0.012	0.045
-669.076	-3.732	-0.219	-0.154
-668.062	61.694	-0.122	-0.122
-667.047	-26.169	-0.331	-0.197
-666.032	-106.224	-0.131	0.030
-665.018	185.821	-0.065	0.097
-664.003	-183.500	-0.166	-0.003
-662.989	-121.594	0.139	-0.023
-661.974	800.000	0.042	0.154
-660.959	-39.047	-0.105	0.056
-659.945	-103.157	-0.268	0.064
-658.930	264.097	0.166	0.291
-657.916	77.515	0.056	0.060
-656.901	-72.825	-0.245	-0.091
-655.886	173.219	-0.218	-0.318
-654.872	431.583	0.062	-0.135
-653.857	800.000	0.046	-0.151
-652.843	-200.000	-0.010	0.117
-651.828	-200.000	-0.015	0.218
-650.814	-81.315	-0.200	-0.067
-649.799	-131.105	0.149	0.020
-648.784	-123.161	-0.190	-0.031
-647.770	-91.231	-0.211	0.061
-646.755	-200.000	0.002	0.214
-645.741	24.341	-0.054	-0.045
-644.726	253.710	-0.237	0.409
-643.711	447.472	-0.166	-0.369
-642.697	-165.227	-0.309	0.014
-641.682	2.310	-0.092	0.068
-640.668	-90.289	0.166	-0.049
-639.653	800.000	0.029	0.113
-638.638	-150.140	0.184	-0.014
-637.624	301.174	0.093	-0.173
-636.609	111.565	-0.146	-0.177
-635.595	-46.642	0.236	-0.117
-634.580	-29.737	0.088	0.051
-633.565	172.525	0.122	0.177
-632.551	47.813	-0.109	-0.102
-631.536	-115.066	-0.189	-0.036
-630.522	-160.149	-0.200	0.011
-629.507	5.487	-0.219	-0.163
-628.492	-13.783	-0.436	-0.284
-627.478	-110.059	0.177	0.037
-626.463	-99.868	0.063	-0.016
-625.449	26.244	-0.171	0.144
-624.434	53.380	0.104	-0.101
-623.419	255.610	0.068	-0.118
-622.405	367.845	0.005	-0.010
-621.390	2.394	0.144	-0.105
-620.376	489.455	-0.018	-0.041
-619.361	-125.350	0.109	0.017
-618.346	-114.828	-0.099	-0.019
-617.332	-20.051	-0.131	-0.082
-616.317	800.000	0.058	-0.243
-615.303	305.825	0.113	0.212
-614.288	365.167	-0.053	-0.108
-613.273	28.966	0.036	-0.031
-612.259	497.039	-0.036	0.083
-611.244	274.446	-0.153	-0.273
-610.230	-82.392	-0.161	0.053
-609.215	-36.616	0.265	0.143
-608.201	-200.000	0.023	0.253
-607.186	-62.959	0.276	-0.115
-606.171	185.722	-0.112	-0.168
-605.157	-200.000	-0.030	-0.184
-604.142	-200.000	0.031	-0.340
-603.128	-115.211	-0.147	-0.028
-602.113	101.517	-0.104	-0.122
-601.098	593.709	-0.059	-0.148
-600.084	-200.000	0.018	0.190
-599.069	318.963	-0.123	-0.235
-598.055	-200.000	0.015	-0.103
-597.040	-200.000	0.036	-0.261
-596.025	26.395	0.228	-0.192
-595.011	800.000	-0.158	0.536
-593.996	-200.000	-0.004	-0.360
-592.982	35.545	-0.122	-0.108
-591.967	-200.000	0.002	-0.188
-590.952	180.748	0.142	0.210
-589.938	345.149	-0.155	-0.307
-588.923	153.429	-0.323	0.445
-587.909	408.186	0.122	0.260
-586.894	-69.423	0.080	-0.031
-585.879	668.453	0.042	0.111
-584.865	-107.312	-0.300	0.066
-583.850	-200.000	-0.008	0.263
-582.836	212.248	-0.177	-0.281
-581.821	-200.000	-0.004	0.156
-580.806	-83.502	-0.233	-0.075
-579.792	-0.807	-0.045	0.032
-578.777	-23.337	-0.190	-0.115
-577.763	-17.037	-0.119	-0.076
-576.748	-61.100	-0.056	0.024
-575.733	21.508	-0.153	-0.126
-574.719	-137.021	0.294	0.034
-573.704	-61.954	-0.445	0.187
-572.690	-15.063	-0.070	-0.045
-571.675	-31.863	0.030	-0.017
-570.661	97.331	0.233	0.269
-569.646	41.588	-0.198	0.181
-568.631	-200.000	0.222	0.001
-567.617	106.862	0.041	0.049
-566.602	-97.000	0.296	-0.078
-565.588	456.287	0.038	-0.084
-564.573	-87.061	-0.238	-0.073
-563.558	-56.975	-0.050	-0.022
-562.544	-200.000	-0.376	0.002
-561.529	77.375	-0.077	0.082
-560.515	-200.000	0.069	-0.450
-559.500	-200.000	0.012	-0.148
-558.485	-45.286	0.104	-0.052
-557.471	-200.000	-0.009	0.052
-556.456	559.279	-0.098	0.238
-555.442	-200.000	0.000	-0.086
-554.427	28.818	0.081	0.069
-553.412	-55.715	0.515	0.232
-552.398	71.337	-0.107	0.112
-551.383	410.759	0.029	0.062
-550.369	-68.291	0.265	-0.104
-549.354	-200.000	0.079	0.353
-548.339	800.000	-0.034	-0.145
-547.325	800.000	0.102	-0.420
-546.310	328.700	0.088	0.170
-545.296	-200.000	-0.003	-0.073
-544.281	-132.543	-0.409	-0.053
-543.266	280.735	0.196	0.353
-542.252	272.301	0.192	0.340
-541.237	133.444	0.127	-0.166
-540.223	-105.172	-0.164	-0.038
-539.208	-36.660	-0.165	-0.089
-538.193	-4.987	0.395	-0.273
-537.179	16.448	-0.139	-0.110
-536.164	257.512	0.092	0.158
-535.150	-85.396	0.218	-0.068
-534.135	-54.875	0.369	0.167
-533.121	58.116	0.109	0.107
-532.106	800.000	0.043	-0.169
-531.091	215.031	-0.035	0.056
-530.077	-200.000	0.033	-0.221
-529.062	775.190	0.069	-0.188
-528.048	-98.636	-0.151	0.039
-527.033	196.785	0.196	-0.300
-526.018	-90.354	-0.165	-0.048
-525.004	800.000	-0.039	0.150
-523.989	-116.140	-0.169	-0.032
-522.975	31.886	0.058	-0.050
-521.960	298.300	0.107	-0.198
-520.945	-200.000	0.044	0.310
-519.931	800.000	0.056	0.245
-518.916	-68.434	0.400	0.156
-517.902	-51.635	0.302	-0.142
-516.887	82.929	0.220	-0.240
-515.872	597.131	0.040	0.099
-514.858	-58.036	0.177	-0.077
-513.843	800.000	0.060	0.190
-512.829	-104.481	0.067	-0.016
-511.814	92.057	-0.119	0.134
-510.799	-81.996	0.230	0.075
-509.785	363.329	-0.099	0.199
-508.770	178.122	-0.232	-0.339
-507.756	800.000	-0.100	-0.301
-506.741	-32.485	-0.274	0.153
-505.726	-19.694	0.086	0.054
-504.712	-163.692	0.245	0.012
-503.697	-200.000	-0.071	-0.325
-502.683	63.691	0.141	-0.143
-501.668	-41.930	-0.277	-0.142
-500.653	-200.000	-0.016	-0.154
-499.639	800.000	0.110	0.341
-498.624	102.200	-0.096	-0.112
-497.610	800.000	-0.048	-0.134
-496.595	-65.136	-0.207	-0.084
-495.581	131.772	0.108	-0.139
-494.566	26.070	0.143	0.120
-493.551	-13.329	-0.045	-0.029
-492.537	-200.000	0.007	0.310
-491.522	-194.405	-0.084	-0.001
-490.508	454.258	-0.089	0.197
-489.493	-90.999	0.283	-0.081
-488.478	3.569	-0.122	-0.089
-487.464	-9.812	-0.265	-0.177
-486.449	-200.000	0.019	-0.134
-485.435	-18.214	0.148	0.093
-484.420	140.747	-0.051	0.068
-483.405	-54.113	-0.148	-0.068
-482.391	69.247	-0.269	0.278
-481.376	-25.312	-0.165	0.098
-480.362	-85.815	-0.120	-0.037
-479.347	-200.000	0.051	-0.321
-478.332	-200.000	-0.022	0.273
-477.318	-116.030	0.081	-0.015
-476.303	-109.797	-0.127	-0.027
-475.289	92.355	0.258	0.291
-474.274	-200.000	-0.010	-0.210
-473.259	-68.764	-0.138	0.053
-472.245	14.540	-0.085	-0.067
-471.230	149.739	0.152	0.207
-470.216	17.845	-0.091	0.072
-469.201	-16.915	0.279	-0.177
-468.186	10.130	0.096	-0.073
-467.172	-200.000	0.015	-0.272
-466.157	-40.492	0.529	0.275
-465.143	392.258	-0.170	0.354
-464.128	567.085	-0.043	-0.105
-463.113	-132.134	0.194	-0.025
-462.099	-200.000	-0.001	-0.080
-461.084	116.605	0.190	0.233
-460.070	517.901	-0.016	0.037
-459.055	800.000	-0.105	0.407
-458.040	-11.048	0.122	-0.080
-457.026	-47.312	0.171	0.084
-456.011	-200.000	0.036	0.340
-454.997	-85.559	-0.213	0.066
-453.982	28.884	-0.254	0.216
-452.968	-61.438	0.212	-0.089
-451.953	800.000	-0.079	0.227
-450.938	-36.019	0.030	0.016
-449.924	74.210	0.093	0.098
-448.909	-200.000	-0.033	-0.162
-447.895	-35.771	0.292	0.158
-446.880	-111.942	-0.246	0.050
-445.865	12.034	-0.301	0.232
-444.851	-68.792	-0.132	0.051
-443.836	618.830	-0.147	-0.370
-442.822	-200.000	-0.017	0.096
-441.807	217.077	-0.069	0.110
-440.792	-101.109	-0.204	0.050
-439.778	-33.340	0.255	-0.141
-438.763	800.000	-0.066	0.264
-437.749	-200.000	0.044	0.318
-436.734	600.328	-0.114	-0.284
-435.719	206.958	0.006	-0.009
-434.705	800.000	0.093	0.358
-433.690	113.592	0.194	0.235
-432.676	122.272	0.189	-0.237
-431.661	-200.000	-0.015	-0.142
-430.646	409.104	-0.080	0.170
-429.632	-157.950	0.178	-0.011
-428.617	800.000	-0.029	-0.121
-427.603	-76.697	-0.134	0.047
-426.588	118.283	-0.111	-0.137
-425.573	-200.000	-0.011	-0.120
-424.559	-34.382	-0.169	-0.093
-423.544	46.250	0.208	-0.193
-422.530	76.098	-0.102	0.108
-421.515	53.366	0.143	0.137
-420.500	37.483	0.191	-0.170
-419.486	-36.274	-0.263	0.142
-418.471	-9.733	-0.165	-0.110
-417.457	-104.646	-0.183	-0.042
-416.442	-82.300	0.024	0.008
-415.428	63.388	0.120	0.120
-414.413	156.072	-0.140	-0.193
-413.398	-16.617	0.160	-0.101
-412.384	-200.000	-0.006	0.308
-411.369	104.203	-0.243	-0.286
-410.355	-200.000	-0.027	0.294
-409.340	-163.008	0.113	-0.005
-408.325	368.136	0.150	0.302
-407.311	-123.741	-0.367	0.058
-406.296	-121.254	0.090	0.015
-405.282	249.549	-0.182	-0.308
-404.267	-40.530	0.294	-0.152
-403.252	800.000	-0.020	-0.079
-402.238	-200.000	-0.104	0.000
-401.223	-50.316	0.322	0.152
-400.209	115.658	0.273	-0.334
-399.194	800.000	-0.094	0.265
-398.179	-69.933	0.254	0.097
-397.165	800.000	-0.080	0.277
-396.150	79.408	0.279	-0.299
-395.136	-200.000	-0.018	-0.236
-394.121	-110.731	0.126	-0.026
-393.106	30.455	-0.113	0.097
-392.092	-116.384	-0.561	-0.104
-391.077	-75.622	0.124	0.044
-390.063	-200.000	-0.050	0.331
-389.048	800.000	-0.068	-0.286
-388.033	-88.303	0.154	0.046
-387.019	-18.305	0.217	0.136
-386.004	-200.000	-0.010	-0.070
-384.990	340.146	0.142	-0.277
-383.975	-200.000	0.011	0.226
-382.960	-200.000	0.051	-0.360
-381.946	21.689	-0.216	-0.176
-380.931	800.000	-0.095	0.384
-379.917	214.059	0.142	-0.224
-378.902	-200.000	0.018	0.113
-377.888	-60.169	0.180	-0.077
-376.873	-200.000	-0.048	-0.242
-375.858	-77.875	0.194	-0.067
-374.844	-158.190	-0.038	0.002
-373.829	-94.838	0.090	-0.024
-372.815	11.572	0.217	-0.166
-371.800	800.000	0.006	0.020
-370.785	705.309	0.104	-0.274
-369.771	-168.088	-0.238	0.009
-368.756	-200.000	0.004	-0.219
-367.742	-133.292	0.401	-0.050
-366.727	-92.467	0.306	0.086
-365.712	-105.142	0.269	0.061
-364.698	-158.530	-0.121	-0.007
-363.683	-40.733	-0.079	-0.041
-362.669	-113.210	-0.450	-0.088
-361.654	292.897	0.055	-0.100
-360.639	163.798	-0.060	-0.084
-359.625	201.571	0.080	0.123
-358.610	278.808	0.040	0.072
-357.596	-200.000	-0.028	0.403
-356.581	800.000	0.082	-0.246
-355.566	-68.935	0.389	0.150
-354.552	57.497	-0.086	-0.084
-353.537	-104.184	0.046	-0.011
-352.523	7.919	-0.173	0.129
-351.508	-103.879	0.199	-0.046
-350.493	-117.985	-0.142	0.025
-349.479	-152.721	0.256	-0.018
-348.464	0.874	-0.163	0.117
-347.450	-148.768	-0.041	0.003
-346.435	374.966	0.101	0.205
-345.420	115.908	0.024	0.029
-344.406	67.133	0.120	0.122
-343.391	104.334	-0.071	0.084
-342.377	-127.836	0.038	0.005
-341.362	-90.973	0.054	0.015
-340.348	38.872	0.074	0.066
-339.333	-200.000	-0.013	-0.185
-338.318	-75.741	-0.249	0.088
-337.304	59.298	0.120	-0.118
-336.289	59.032	0.073	-0.072
-335.275	800.000	0.064	-0.248
-334.260	-23.925	-0.112	0.067
-333.245	51.381	0.082	-0.078
-332.231	433.442	-0.125	0.271
-331.216	-139.639	0.083	-0.009
-330.202	-128.731	0.214	0.030
-329.187	199.569	0.118	-0.180
-328.172	324.982	0.087	0.166
-327.158	-200.000	0.007	-0.089
-326.143	369.269	-0.032	-0.065
-325.129	-186.302	0.138	0.002
-324.114	79.239	0.123	-0.131
-323.099	597.419	-0.121	-0.299
-322.085	427.959	-0.138	-0.296
-321.070	-200.000	-0.041	0.515
-320.056	169.447	-0.155	0.221
-319.041	-152.778	0.091	-0.006
-318.026	800.000	-0.113	-0.377
-317.012	-48.967	-0.134	0.064
-315.997	-200.000	0.006	0.176
-314.983	96.383	0.089	-0.101
-313.968	-200.000	-0.027	0.308
-312.953	800.000	0.037	0.116
-311.939	-110.325	-0.182	0.038
-310.924	50.706	0.225	-0.212
-309.910	144.656	-0.134	-0.178
-308.895	120.936	-0.251	0.312
-307.880	-156.610	-0.262	0.016
-306.866	-200.000	-0.051	-0.564
-305.851	-58.054	0.082	-0.036
-304.837	26.300	0.079	-0.066
-303.822	384.707	0.051	0.106
-302.807	-27.836	0.315	0.182
-301.793	652.856	-0.132	-0.337
-300.778	800.000	-0.071	-0.225
-299.764	186.955	-0.101	-0.149
-298.749	-13.540	-0.294	-0.190
-297.735	82.705	0.081	-0.087
-296.720	68.092	-0.050	0.051
-295.705	0.519	0.015	-0.010
-294.691	267.826	-0.137	-0.239
-293.676	-200.000	-0.037	-0.168
-292.662	-62.873	0.142	0.058
-291.647	312.753	-0.026	-0.050
-290.632	212.814	-0.009	-0.014
-289.618	-40.949	0.175	-0.090
-288.603	177.399	-0.164	0.237
-287.589	393.353	0.127	0.264
-286.574	85.849	-0.109	-0.119
-285.559	-126.118	0.085	-0.013
-284.545	-200.000	-0.012	-0.215
-283.530	800.000	0.021	-0.090
-282.516	273.698	0.229	0.402
-281.501	-75.008	-0.246	-0.088
-280.486	393.688	-0.163	0.337
-279.472	-200.000	0.013	-0.217
-278.457	-200.000	-0.007	0.304
-277.443	-69.951	-0.099	-0.037
-276.428	78.775	0.040	0.043
-275.413	681.921	-0.060	-0.156
-274.399	-63.026	-0.120	0.049
-273.384	-200.000	-0.074	-0.394
-272.370	104.196	-0.064	0.075
-271.355	111.993	0.159	0.191
-270.340	-200.000	-0.064	0.307
-269.326	-200.000	-0.062	0.465
-268.311	-200.000	-0.026	0.217
-267.297	428.449	0.127	0.273
-266.282	144.643	0.063	0.084
-265.267	54.816	0.163	-0.156
-264.253	319.677	0.108	0.204
-263.238	-54.596	0.052	0.024
-262.224	-157.663	-0.274	-0.016
-261.209	183.866	-0.152	-0.224
-260.195	-200.000	-0.039	-0.183
-259.180	-14.612	0.037	-0.024
-258.165	453.177	-0.050	-0.109
-257.151	-200.000	0.068	-0.325
-256.136	-101.911	-0.337	0.081
-255.122	-200.000	-0.031	0.159
-254.107	-31.834	-0.244	-0.136
-253.092	13.645	0.174	0.134
-252.078	93.263	0.198	-0.222
-251.063	-200.000	0.014	-0.131
-250.049	-1.871	0.373	-0.261
-249.034	-200.000	0.030	-0.166
-248.019	-200.000	-0.074	-0.396
-247.005	-44.321	0.396	-0.197
-245.990	-108.432	0.139	-0.030
-244.976	41.695	-0.224	0.202
-243.961	222.428	0.088	0.141
-242.946	-200.000	-0.003	-0.160
-241.932	156.804	-0.122	0.168
-240.917	219.416	-0.119	0.190
-239.903	800.000	-0.030	-0.084
-238.888	-43.888	0.126	0.063
-237.873	-143.195	0.087	0.008
-236.859	288.668	0.080	0.143
-235.844	150.668	-0.200	-0.270
-234.830	-104.966	0.263	0.060
-233.815	28.084	0.369	0.309
-232.800	-109.331	-0.126	-0.027
-231.786	800.000	0.095	0.270
-230.771	24.751	-0.204	0.168
-229.757	471.639	-0.159	0.355
-228.742	-39.937	0.177	0.092
-227.727	-200.000	0.013	0.220
-226.713	-200.000	-0.061	0.272
-225.698	-200.000	0.054	0.462
-224.684	-62.163	0.154	0.064
-223.669	708.894	-0.079	-0.209
-222.655	-189.012	0.298	0.004
-221.640	129.373	-0.180	-0.228
-220.625	-200.000	0.056	0.338
-219.611	-200.000	0.018	0.091
-218.596	51.695	-0.116	-0.109
-217.582	-113.085	0.080	0.016
-216.567	503.052	0.161	0.370
-215.552	-200.000	-0.064	0.455
-214.538	-66.959	0.014	0.005
-213.523	427.639	-0.022	-0.046
-212.509	800.000	-0.008	-0.033
-211.494	44.430	-0.258	-0.235
-210.479	-184.038	0.286	-0.005
-209.465	160.281	-0.232	-0.322
-208.450	627.413	0.078	0.196
-207.436	-200.000	0.024	-0.147
-206.421	526.097	-0.088	-0.207
-205.406	672.527	-0.137	0.352
-204.392	542.468	-0.007	-0.017
-203.377	800.000	0.052	-0.184
-202.363	800.000	0.064	0.266
-201.348	-133.918	-0.198	-0.024
-200.333	-11.793	-0.180	0.117
-199.319	-27.163	-0.157	-0.091
-198.304	-200.000	-0.005	-0.079
-197.290	800.000	0.098	-0.309
-196.275	-86.038	-0.515	-0.158
-195.260	-200.000	-0.058	0.280
-194.246	-117.708	0.208	-0.037
-193.231	-61.004	0.130	-0.054
-192.217	-134.465	0.099	0.012
-191.202	475.269	-0.128	-0.287
-190.187	-111.182	-0.194	0.039
-189.173	-42.178	-0.165	-0.084
-188.158	198.881	-0.191	-0.291
-187.144	-13.735	0.168	0.108
-186.129	-13.755	-0.166	-0.106
-185.114	-78.600	-0.055	0.019
-184.100	32.759	0.245	-0.210
-183.085	220.606	0.217	-0.345
-182.071	118.421	-0.048	-0.059
-181.056	-164.316	-0.110	-0.005
-180.042	275.808	-0.080	-0.141
-179.027	-200.000	-0.009	0.152
-178.012	8.932	0.132	-0.099
-176.998	-76.259	-0.178	0.062
-175.983	443.011	0.151	0.329
-174.969	-172.580	0.315	0.010
-173.954	522.119	0.146	0.339
-172.939	-200.000	-0.029	0.243
-171.925	-126.691	0.359	-0.053
-170.910	-36.826	-0.276	-0.147
-169.896	-42.822	0.425	-0.214
-168.881	-26.909	-0.177	0.102
-167.866	-200.000	0.015	-0.066
-166.852	800.000	0.022	-0.067
-165.837	95.649	-0.146	0.165
-164.823	303.821	-0.308	-0.565
-163.808	-176.549	0.163	-0.004
-162.793	-74.459	-0.044	0.016
-161.779	214.153	-0.123	0.193
-160.764	-29.393	0.189	0.107
-159.750	-175.763	-0.368	-0.010
-158.735	-12.276	-0.318	0.206
-157.720	53.836	-0.124	-0.118
-156.706	800.000	0.099	0.273
-155.691	-136.860	0.121	-0.014
-154.677	-189.233	-0.308	0.004
-153.662	176.028	0.147	0.211
-152.647	359.017	0.138	0.272
-151.633	-77.146	-0.163	0.056
-150.618	-59.883	0.322	0.136
-149.604	-150.772	-0.012	0.001
-148.589	-109.506	0.062	0.013
-147.574	104.732	0.177	0.206
-146.560	263.436	0.009	-0.015
-145.545	94.616	0.143	-0.161
-144.531	800.000	0.067	-0.277
-143.516	-107.181	0.080	0.017
-142.502	-200.000	-0.102	0.500
-141.487	56.806	-0.064	-0.062
-140.472	-14.632	-0.040	-0.026
-139.458	-44.172	-0.203	0.101
-138.443	800.000	0.040	0.148
-137.429	-200.000	-0.012	0.193
-136.414	52.097	0.079	0.075
-135.399	-153.663	-0.289	0.020
-134.385	-200.000	-0.039	0.173
-133.370	425.973	-0.104	0.223
-132.356	-137.520	-0.105	0.012
-131.341	-27.552	0.150	0.086
-130.326	10.789	-0.289	0.219
-129.312	483.099	0.127	0.284
-128.297	800.000	-0.090	-0.270
-127.283	800.000	-0.034	-0.105
-126.268	800.000	-0.098	0.316
-125.253	3.127	0.141	0.101
-124.239	-71.630	-0.144	-0.053
-123.224	84.719	-0.160	0.173
-122.210	-63.077	-0.288	0.118
-121.195	64.996	0.161	0.161
-120.180	376.364	-0.022	-0.045
-119.166	800.000	0.047	0.174
-118.151	-153.166	-0.269	-0.019
-117.137	-200.000	-0.002	0.212
-116.122	-71.998	0.328	0.121
-115.107	207.713	0.223	-0.345
-114.093	-77.881	0.400	-0.137
-113.078	81.051	-0.156	-0.166
-112.064	-200.000	-0.015	0.296
-111.049	75.563	-0.293	0.306
-110.034	323.320	-0.103	-0.195
-109.020	-200.000	-0.043	-0.351
-108.005	-200.000	-0.003	-0.219
-106.991	99.131	-0.110	-0.126
-105.976	114.173	0.043	0.051
-104.962	169.228	0.095	0.134
-103.947	-103.428	0.103	0.024
-102.932	800.000	-0.054	-0.163
-101.918	-200.000	0.017	-0.116
-100.903	-200.000	0.026	0.309
-99.889	-54.290	-0.084	-0.038
-98.874	-147.885	0.248	0.020
-97.859	6.298	-0.210	-0.154
-96.845	33.394	-0.126	0.108
-95.830	-67.782	0.258	0.100
-94.816	162.488	0.086	0.119
-93.801	153.241	0.120	-0.162
-92.786	78.326	0.256	0.270
-91.772	192.498	-0.176	-0.263
-90.757	-200.000	-0.020	-0.271
-89.743	-113.264	-0.185	0.036
-88.728	6.644	-0.398	0.293
-87.713	56.476	0.223	0.214
-86.699	800.000	-0.053	0.157
-85.684	-129.290	0.216	0.030
-84.670	800.000	-0.120	-0.343
-83.655	107.950	-0.077	-0.091
-82.640	800.000	-0.026	-0.079
-81.626	133.373	-0.150	0.192
-80.611	35.185	-0.105	0.091
-79.597	-100.700	-0.031	-0.008
-78.582	175.260	0.197	-0.282
-77.567	-136.891	-0.054	-0.006
-76.553	-200.000	0.088	0.384
-75.538	800.000	0.098	0.267
-74.524	-144.427	-0.086	0.008
-73.509	-89.833	0.160	-0.046
-72.494	93.661	0.148	-0.165
-71.480	-107.972	0.228	0.049
-70.465	-158.265	0.340	0.020
-69.451	105.572	-0.091	-0.107
-68.436	189.939	-0.115	-0.170
-67.422	220.317	0.048	0.076
-66.407	-200.000	0.030	0.170
-65.392	-123.363	-0.124	-0.020
-64.378	-115.722	-0.272	0.050
-63.363	69.858	-0.236	-0.240
-62.349	-200.000	-0.002	0.085
-61.334	87.550	-1.018	-1.112
-60.319	800.000	0.247	0.806
-59.305	281.703	-0.577	-1.019
-58.290	223.613	0.746	1.187
-57.276	800.000	0.439	1.572
-56.261	-200.000	110.736	611.885
-55.246	492.362	1527.745	3452.781
-54.232	170.507	2720.675	3841.916
-53.217	97.940	2343.464	2659.037
-52.203	34.224	2088.645	1796.100
-51.188	29.467	2004.922	1680.839
-50.173	28.055	1988.308	1654.076
-49.159	44.500	2048.240	1855.564
-48.144	44.222	2063.873	1867.097
-47.130	29.974	2021.551	1699.162
-46.115	27.835	2010.534	1670.286
-45.100	27.713	2007.577	1666.653
-44.086	27.800	2004.952	1665.200
-43.071	27.594	2002.852	1661.509
-42.057	27.562	2001.281	1659.853
-41.042	27.595	1999.210	1658.368
-40.027	27.758	1996.901	1657.867
-39.013	27.622	1995.520	1655.426
-37.998	27.734	1993.305	1654.533
-36.984	27.762	1990.895	1652.722
-35.969	27.671	1989.309	1650.519
-34.954	27.724	1987.644	1649.550
-33.940	27.721	1986.032	1648.120
-32.925	27.732	1985.217	1647.475
-31.911	27.774	1982.806	1645.789
-30.896	27.722	1980.974	1643.735
-29.881	27.764	1979.959	1643.208
-28.867	27.883	1977.909	1642.513
-27.852	27.776	1976.787	1640.546
-26.838	27.811	1974.965	1639.287
-25.823	27.882	1972.942	1638.182
-24.809	27.826	1971.121	1636.104
-23.794	27.752	1968.766	1633.417
-22.779	27.777	1967.335	1632.393
-21.765	27.791	1965.632	1631.036
-20.750	27.755	1964.510	1629.722
-19.736	27.812	1962.351	1628.373
-18.721	27.807	1961.159	1627.278
-17.706	27.756	1959.533	1625.406
-16.692	27.817	1957.687	1624.356
-15.677	27.770	1955.874	1622.369
-14.663	27.703	1955.345	1621.265
-13.648	27.760	1953.896	1620.505
-12.633	27.718	1953.120	1619.431
-11.619	27.888	1951.140	1619.233
-10.604	27.757	1949.820	1616.913
-9.590	27.817	1948.238	1616.066
-8.575	27.843	1946.406	1614.710
-7.560	27.787	1945.757	1613.616
-6.546	27.734	1944.969	1612.423
-5.531	27.820	1943.022	1611.505
-4.517	27.766	1942.085	1610.190
-3.502	27.791	1940.711	1609.210
-2.487	27.793	1939.837	1608.433
-1.473	27.832	1938.951	1607.983
-0.458	27.981	1934.047	1605.163
0.556	29.478	1915.415	1583.704
1.571	26.155	1899.816	1542.331
2.586	22.930	1925.301	1534.907
3.600	22.248	1962.368	1558.282
4.615	21.597	1955.063	1546.596
5.629	16.151	1849.772	1417.533
6.644	7.565	1732.553	1259.731
7.659	3.964	1697.836	1206.350
8.673	3.616	1695.284	1201.716
9.688	3.557	1693.708	1200.038
10.702	3.663	1691.872	1199.455
11.717	3.604	1688.717	1196.653
12.731	4.159	1687.827	1200.214
13.746	9.828	1701.585	1254.048
14.761	17.638	1718.618	1327.564
15.775	20.491	1722.985	1353.069
16.790	20.222	1720.657	1349.033
17.804	19.296	1717.673	1339.381
18.819	18.402	1713.887	1329.375
19.834	17.770	1711.819	1322.751
20.848	17.480	1710.530	1319.397
21.863	17.322	1708.839	1316.745
22.877	17.057	1707.494	1313.546
23.892	16.896	1706.408	1311.347
24.907	16.840	1705.485	1310.089
25.921	16.811	1704.305	1308.842
26.936	16.814	1702.869	1307.646
27.950	16.795	1702.117	1306.810
28.965	16.825	1701.912	1306.767
29.980	16.876	1701.136	1306.448
30.994	16.963	1700.312	1306.370
32.009	17.017	1698.731	1305.458
33.023	17.169	1697.791	1305.784
34.038	17.194	1696.912	1305.189
35.053	17.122	1695.702	1303.585
36.067	16.995	1694.696	1301.724
37.082	16.961	1693.655	1300.548
38.096	16.990	1692.726	1299.943
39.111	17.038	1691.402	1299.181
40.126	17.082	1691.157	1299.214
41.140	17.075	1690.134	1298.254
42.155	16.867	1688.927	1295.626
43.169	16.733	1686.744	1292.815
44.184	16.676	1685.614	1291.394
45.199	16.603	1684.838	1290.133
46.213	16.682	1683.115	1289.301
47.228	16.716	1682.410	1288.909
48.242	16.830	1681.435	1288.909
49.257	16.987	1680.226	1289.065
50.271	16.915	1678.889	1287.379
51.286	17.020	1677.392	1286.908
52.301	17.003	1676.000	1285.602
53.315	16.894	1675.010	1283.900
54.330	16.954	1673.356	1282.974
55.344	16.811	1671.547	1280.397
56.359	16.718	1670.539	1278.805
57.374	16.766	1669.325	1278.125
58.388	16.806	1668.077	1277.361
59.403	16.730	1666.982	1275.833
60.417	16.641	1665.240	1273.718
61.432	16.703	1664.007	1273.131
62.447	16.654	1663.338	1272.137
63.461	16.589	1661.839	1270.390
64.476	16.590	1660.870	1269.546
65.490	16.493	1659.981	1268.028
66.505	16.506	1658.103	1266.575
67.520	16.542	1657.609	1266.359
68.534	16.576	1656.207	1265.426
69.549	16.591	1655.269	1264.706
70.563	16.711	1653.846	1264.406
71.578	16.514	1652.627	1261.890
72.593	16.573	1651.632	1261.460
73.607	16.414	1650.806	1259.531
74.622	16.452	1649.853	1258.976
75.636	16.385	1649.111	1257.799
76.651	16.446	1648.179	1257.430
77.666	16.446	1647.108	1256.509
78.680	16.430	1646.111	1255.515
79.695	16.480	1644.948	1254.890
80.709	16.530	1644.386	1254.723
81.724	16.578	1643.441	1254.247
82.739	16.676	1643.360	1254.798
83.753	16.665	1642.146	1253.678
84.768	16.850	1640.993	1254.054
85.782	16.934	1640.193	1253.951
86.797	16.941	1639.465	1253.341
87.812	17.089	1638.437	1253.533
88.826	16.935	1637.623	1251.666
89.841	16.901	1636.303	1250.292
90.855	16.971	1635.405	1250.012
91.870	16.978	1634.469	1249.236
92.884	17.015	1633.318	1248.519
93.899	17.041	1632.406	1247.901
94.914	17.073	1630.742	1246.756
95.928	17.043	1629.743	1245.665
96.943	17.182	1628.259	1245.439
97.957	17.175	1627.123	1244.407
98.972	17.008	1625.511	1241.845
99.987	17.027	1623.929	1240.660
101.001	16.990	1622.090	1238.876
102.016	17.115	1620.042	1238.114
103.030	16.992	1619.355	1236.583
104.045	16.926	1618.260	1235.159
105.060	17.055	1616.783	1234.857
106.074	16.957	1615.795	1233.285
107.089	16.887	1613.737	1231.094
108.103	16.650	1612.187	1228.082
109.118	16.569	1610.417	1226.041
110.133	16.524	1608.928	1224.472
111.147	16.491	1607.829	1223.288
112.162	16.619	1606.136	1222.818
113.176	16.637	1604.861	1221.868
114.191	16.651	1603.824	1221.074
115.206	16.696	1602.660	1220.402
116.220	16.666	1601.531	1219.216
117.235	16.738	1599.950	1218.422
118.249	16.642	1598.800	1216.750
119.264	16.699	1597.622	1216.154
120.279	16.564	1595.996	1213.845
121.293	16.582	1594.669	1212.852
122.308	16.616	1592.822	1211.590
123.322	16.539	1591.444	1209.880
124.337	16.451	1589.902	1207.970
125.352	16.364	1588.858	1206.453
126.366	16.489	1587.335	1206.079
127.381	16.472	1586.354	1205.106
128.395	16.506	1585.283	1204.429
129.410	16.543	1583.376	1203.137
130.424	16.516	1582.208	1201.950
131.439	16.528	1580.999	1201.008
132.454	16.629	1580.032	1200.883
133.468	16.698	1578.529	1200.125
134.483	16.712	1577.118	1199.046
135.497	16.662	1575.694	1197.502
136.512	16.650	1574.822	1196.649
137.527	16.683	1573.069	1195.445
138.541	16.780	1571.368	1194.733
139.556	16.794	1570.345	1193.947
140.570	16.865	1568.982	1193.305
141.585	16.869	1568.136	1192.581
142.600	16.965	1566.359	1191.802
143.614	17.112	1564.889	1191.611
144.629	17.074	1564.640	1191.047
145.643	17.168	1563.260	1190.548
146.658	17.152	1561.551	1189.034
147.673	17.178	1559.741	1187.727
148.687	16.918	1558.547	1184.898
149.702	16.863	1556.768	1183.060
150.716	16.875	1555.451	1182.040
151.731	16.844	1554.153	1180.732
152.746	16.777	1552.690	1179.045
153.760	16.842	1551.459	1178.463
154.775	16.822	1550.316	1177.348
155.789	16.927	1549.049	1177.008
156.804	16.957	1547.964	1176.293
157.819	16.979	1546.648	1175.342
158.833	17.075	1544.895	1174.569
159.848	17.151	1543.959	1174.278
160.862	17.218	1543.045	1173.941
161.877	17.283	1541.760	1173.305
162.892	17.101	1540.791	1171.211
163.906	17.002	1539.250	1169.252
164.921	16.850	1537.891	1167.073
165.935	16.901	1537.102	1166.723
166.950	16.919	1535.947	1165.866
167.964	17.006	1534.775	1165.468
168.979	17.050	1533.676	1164.835
169.994	17.022	1532.363	1163.539
171.008	16.944	1531.607	1162.333
172.023	17.057	1530.415	1162.095
173.037	17.125	1529.270	1161.586
174.052	17.123	1528.310	1160.745
175.067	17.123	1527.298	1159.875
176.081	17.083	1525.524	1158.148
177.096	16.965	1524.084	1156.152
178.110	17.026	1522.230	1155.057
179.125	16.975	1521.969	1154.407
180.140	17.043	1520.755	1153.849
181.154	17.023	1520.106	1153.121
182.169	17.108	1518.445	1152.331
183.183	17.175	1517.538	1151.995
184.198	17.156	1516.644	1151.088
185.213	17.302	1515.462	1151.079
186.227	17.338	1514.338	1150.366
187.242	17.331	1513.446	1149.540
188.256	17.284	1512.835	1148.656
189.271	17.422	1511.209	1148.248
190.286	17.420	1510.608	1147.677
191.300	17.433	1509.881	1147.116
192.315	17.129	1508.084	1143.600
193.329	16.845	1506.664	1140.513
194.344	16.805	1505.798	1139.484
195.359	17.077	1503.943	1139.809
196.373	17.055	1503.369	1139.121
197.388	17.181	1502.549	1139.246
198.402	17.262	1501.600	1138.971
199.417	17.359	1500.567	1138.735
200.432	17.569	1499.404	1139.155
201.446	17.611	1498.745	1138.832
202.461	17.616	1498.259	1138.397
203.475	17.730	1496.930	1138.049
204.490	17.760	1495.094	1136.748
205.504	17.641	1494.623	1135.498
206.519	17.490	1493.174	1133.296
207.534	17.432	1491.729	1131.711
208.548	17.460	1490.596	1130.938
209.563	17.523	1489.632	1130.521
210.577	17.411	1488.767	1129.025
211.592	17.383	1488.210	1128.317
212.607	17.513	1487.657	1128.656
213.621	17.625	1487.010	1128.811
214.636	17.701	1485.842	1128.324
215.650	17.681	1484.911	1127.390
216.665	17.696	1483.356	1126.207
217.680	17.678	1482.619	1125.426
218.694	17.738	1482.283	1125.470
219.709	17.873	1481.079	1125.346
220.723	17.743	1480.397	1123.870
221.738	17.816	1479.326	1123.440
222.753	17.782	1478.218	1122.274
223.767	17.821	1476.989	1121.499
224.782	17.696	1476.413	1120.140
225.796	17.901	1475.474	1120.674
226.811	17.903	1474.966	1120.204
227.826	17.985	1473.800	1119.754
228.840	17.820	1473.247	1118.157
229.855	17.827	1472.042	1117.191
230.869	17.787	1470.586	1115.725
231.884	17.744	1469.977	1114.883
232.899	17.743	1469.006	1114.041
233.913	17.649	1467.639	1112.289
234.928	17.678	1466.421	1111.458
235.942	17.696	1464.968	1110.376
236.957	17.662	1463.820	1109.188
237.972	17.656	1462.855	1108.321
238.986	17.606	1461.966	1107.220
240.001	17.764	1460.621	1107.134
241.015	17.732	1459.797	1106.197
242.030	17.775	1458.445	1105.355
243.045	17.806	1457.534	1104.770
244.059	17.882	1456.793	1104.603
245.074	17.898	1455.736	1103.804
246.088	17.928	1454.899	1103.268
247.103	17.974	1454.320	1103.027
248.117	18.083	1453.422	1102.951
249.132	18.111	1452.908	1102.644
250.147	18.157	1452.538	1102.563
251.161	18.257	1451.855	1102.591
252.176	18.441	1451.029	1103.050
253.190	18.466	1450.394	1102.635
254.205	18.486	1449.576	1102.044
255.220	18.537	1448.754	1101.647
256.234	18.609	1448.152	1101.554
257.249	18.629	1446.840	1100.589
258.263	18.526	1446.223	1099.360
259.278	18.581	1444.994	1098.677
260.293	18.539	1444.603	1098.014
261.307	18.561	1443.597	1097.296
262.322	18.600	1442.965	1096.967
263.336	18.719	1441.985	1096.885
264.351	18.602	1441.466	1095.644
265.366	18.709	1440.368	1095.401
266.380	18.744	1439.073	1094.541
267.395	18.623	1438.469	1093.211
268.409	18.805	1436.842	1093.037
269.424	18.592	1436.127	1091.042
270.439	18.586	1434.932	1090.001
271.453	18.638	1434.089	1089.593
272.468	18.652	1433.108	1088.840
273.482	18.516	1432.874	1087.703
274.497	18.548	1431.633	1086.865
275.512	18.406	1431.130	1085.492
276.526	18.530	1429.840	1085.198
277.541	18.561	1428.366	1084.179
278.555	18.565	1427.660	1083.572
279.570	18.566	1427.150	1083.100
280.585	18.674	1426.133	1082.911
281.599	18.817	1425.612	1083.322
282.614	18.867	1424.472	1082.677
283.628	18.750	1423.688	1081.248
284.643	18.641	1422.311	1079.419
285.657	18.766	1420.817	1078.976
286.672	18.623	1420.480	1077.726
287.687	18.671	1419.239	1076.990
288.701	18.722	1418.394	1076.574
289.716	18.642	1417.717	1075.461
290.730	18.776	1416.484	1075.270
291.745	18.797	1415.479	1074.545
292.760	18.753	1414.824	1073.680
293.774	18.894	1413.490	1073.450
294.789	18.874	1412.761	1072.679
295.803	18.971	1412.246	1072.799
296.818	18.995	1411.113	1071.993
297.833	18.934	1410.202	1070.824
298.847	18.930	1409.116	1069.882
299.862	18.787	1408.262	1068.248
300.876	18.849	1406.851	1067.467
301.891	18.845	1406.464	1067.057
302.906	18.827	1405.686	1066.256
303.920	19.011	1404.690	1066.547
304.935	19.108	1403.792	1066.375
305.949	19.170	1403.271	1066.268
306.964	19.212	1402.806	1066.081
307.979	19.285	1401.667	1065.569
308.993	19.253	1400.341	1064.275
310.008	19.110	1399.536	1062.681
311.022	19.075	1398.357	1061.477
312.037	19.220	1397.677	1061.761
313.052	19.269	1396.693	1061.221
314.066	19.266	1395.363	1060.098
315.081	19.130	1394.690	1058.658
316.095	19.030	1393.170	1056.796
317.110	18.977	1391.882	1055.401
318.125	19.047	1390.946	1055.029
319.139	19.005	1389.845	1053.840
320.154	19.010	1389.106	1053.216
321.168	18.986	1388.010	1052.150
322.183	19.051	1387.340	1051.944
323.197	19.084	1386.187	1051.174
324.212	19.070	1385.169	1050.228
325.227	19.090	1384.797	1049.976
326.241	19.106	1384.058	1049.421
327.256	19.192	1383.155	1049.163
328.270	19.248	1381.845	1048.416
329.285	19.093	1381.065	1046.790
330.300	19.107	1380.233	1046.152
331.314	19.090	1379.418	1045.337
332.329	19.093	1378.387	1044.485
333.343	19.068	1377.343	1043.450
334.358	19.207	1376.516	1043.574
335.373	19.245	1375.953	1043.286
336.387	19.292	1375.070	1042.803
337.402	19.348	1374.590	1042.692
338.416	19.331	1373.833	1041.918
339.431	19.304	1373.104	1041.114
340.446	19.377	1372.636	1041.103
341.460	19.493	1371.432	1040.801
342.475	19.609	1370.141	1040.424
343.489	19.601	1369.558	1039.843
344.504	19.757	1368.734	1040.067
345.519	19.726	1367.659	1038.970
346.533	19.780	1367.009	1038.710
347.548	19.787	1366.084	1037.954
348.562	19.887	1364.987	1037.627
349.577	19.802	1364.200	1036.429
350.592	19.766	1363.651	1035.703
351.606	19.705	1362.451	1034.337
352.621	19.573	1361.170	1032.485
353.635	19.476	1360.442	1031.260
354.650	19.518	1359.256	1030.523
355.665	19.519	1358.117	1029.570
356.679	19.509	1357.158	1028.697
357.694	19.606	1355.898	1028.226
358.708	19.620	1354.890	1027.454
359.723	19.795	1353.709	1027.510
360.738	19.733	1353.237	1026.689
361.752	19.659	1352.128	1025.318
362.767	19.646	1351.107	1024.375
363.781	19.651	1349.702	1023.250
364.796	19.683	1349.745	1023.385
365.810	19.795	1348.441	1022.964
366.825	19.995	1347.968	1023.698
367.840	19.955	1347.553	1023.058
368.854	20.050	1346.343	1022.609
369.869	20.108	1345.976	1022.578
370.883	20.201	1345.379	1022.586
371.898	20.147	1344.686	1021.647
372.913	20.091	1343.884	1020.619
373.927	20.022	1342.695	1019.223
374.942	19.996	1341.910	1018.383
375.956	20.028	1341.401	1018.091
376.971	20.109	1340.442	1017.754
377.986	20.106	1339.311	1016.785
379.000	20.113	1338.473	1016.101
380.015	20.151	1337.975	1015.852
381.029	20.221	1337.439	1015.766
382.044	20.318	1336.651	1015.645
383.059	20.310	1335.886	1014.932
384.073	20.274	1335.637	1014.439
385.088	20.349	1334.278	1013.755
386.102	20.338	1333.721	1013.178
387.117	20.329	1333.227	1012.660
388.132	20.337	1332.249	1011.878
389.146	20.259	1331.254	1010.578
390.161	20.128	1330.356	1009.044
391.175	20.058	1329.613	1007.981
392.190	20.095	1328.795	1007.487
393.205	20.176	1327.604	1006.965
394.219	20.276	1326.762	1006.818
395.234	20.411	1325.704	1006.707
396.248	20.218	1324.479	1004.575
397.263	20.172	1323.535	1003.503
398.278	20.141	1322.011	1002.078
399.292	20.240	1320.351	1001.301
400.307	20.208	1319.184	1000.144
401.321	20.076	1318.293	998.620
402.336	20.065	1317.331	997.739
403.350	20.052	1316.762	997.148
404.365	20.103	1315.548	996.432
405.380	20.152	1314.466	995.807
406.394	20.177	1313.995	995.505
407.409	20.292	1313.229	995.492
408.423	20.296	1312.590	994.944
409.438	20.414	1312.220	995.251
410.453	20.575	1311.213	995.324
411.467	20.528	1310.906	994.735
412.482	20.699	1309.680	994.690
413.496	20.617	1309.510	994.006
414.511	20.734	1308.780	994.034
415.526	20.680	1308.056	993.085
416.540	20.771	1307.335	992.970
417.555	20.767	1306.908	992.535
418.569	20.826	1305.847	991.979
419.584	20.750	1305.522	991.212
420.599	20.733	1304.777	990.463
421.613	144.122	1435.930	1795.711
422.628	139.598	1454.981	1795.812
