DTS Sentinel unit serial number:	SN413079Multiplexer serial number:	ORYXHardware model number:	OX4-SRSoftware version number:	ORYX F/W v4.00 Oryx Data Collector v3.7.2.0data status	okinstallation	princeton_trtdifferential loss correction	single-endedforward channel	channel 4reverse channel	N/Adate	2019/09/18time	08:57:34forward acquisition time	60.00reverse acquisition time	0.00gamma	496.2192k internal	0.2324k external	0.2324temperature offset calibration	0.9987default loss term (dB/km)	0.3790temperature slope calibration	1.0000multiplexer offset coefficient	1.0000multiplexer slope coefficient	1.0000fibre end	0.00T internal ref (°C)	24.98T ext. ref 1 (°C)	0.24T ext. ref 2 (°C)	21.39length (m)	temperature (°C)	Stokes	anti-Stokes-747.200	94.471	0.142	0.163
-746.185	-29.825	0.168	0.097
-745.171	-146.463	-0.268	-0.024
-744.156	-200.000	-0.026	0.272
-743.142	8.595	0.087	-0.066
-742.127	-200.000	-0.023	0.418
-741.112	-200.000	0.001	-0.016
-740.098	65.940	-0.288	0.295
-739.083	-200.000	-0.019	0.097
-738.069	-103.826	-0.099	0.023
-737.054	-200.000	0.056	-0.334
-736.039	-77.146	-0.075	-0.026
-735.025	212.500	0.155	0.247
-734.010	-110.430	-0.217	0.045
-732.996	12.063	-0.278	-0.216
-731.981	18.439	-0.066	-0.053
-730.966	-200.000	-0.026	0.380
-729.952	105.285	-0.185	-0.220
-728.937	157.583	-0.124	-0.174
-727.923	-19.243	-0.229	0.143
-726.908	-97.782	-0.259	0.068
-725.894	800.000	0.065	-0.237
-724.879	-108.283	0.245	-0.053
-723.864	-68.922	-0.097	-0.038
-722.850	-73.310	-0.080	0.029
-721.835	800.000	-0.012	0.033
-720.821	124.506	-0.330	0.419
-719.806	138.015	-0.054	0.072
-718.791	-134.945	-0.466	0.057
-717.777	-200.000	-0.036	0.444
-716.762	48.432	0.094	-0.088
-715.748	105.474	0.028	-0.034
-714.733	263.146	-0.250	-0.438
-713.718	-39.084	0.222	-0.118
-712.704	-179.959	-0.220	-0.005
-711.689	486.295	0.024	-0.055
-710.675	221.310	0.064	-0.104
-709.660	-200.000	-0.065	-0.326
-708.645	-127.512	-0.273	-0.040
-707.631	-200.000	0.020	-0.190
-706.616	416.834	-0.092	0.199
-705.602	-82.642	-0.133	0.043
-704.587	800.000	0.093	-0.395
-703.572	359.615	-0.144	0.290
-702.558	-200.000	0.017	-0.116
-701.543	124.461	0.142	0.179
-700.529	320.005	-0.055	-0.106
-699.514	-200.000	-0.042	-0.260
-698.499	-200.000	0.003	0.238
-697.485	-69.531	-0.292	-0.113
-696.470	-200.000	-0.008	0.219
-695.456	257.343	-0.081	-0.140
-694.441	325.306	-0.144	0.277
-693.426	737.426	-0.054	-0.146
-692.412	-21.432	-0.134	-0.082
-691.397	154.608	-0.290	-0.401
-690.383	-61.084	-0.308	-0.131
-689.368	-50.626	0.202	-0.096
-688.354	-200.000	0.018	0.324
-687.339	127.318	0.128	0.163
-686.324	-200.000	0.013	-0.146
-685.310	-200.000	0.008	0.080
-684.295	-117.591	-0.291	-0.053
-683.281	64.794	0.105	-0.107
-682.266	576.585	-0.140	0.346
-681.251	386.180	-0.017	0.036
-680.237	-137.670	-0.296	-0.033
-679.222	441.243	0.087	0.192
-678.208	-172.985	-0.362	-0.011
-677.193	-200.000	0.031	0.153
-676.178	-200.000	0.052	0.281
-675.164	-200.000	0.032	-0.215
-674.149	-200.000	-0.007	-0.350
-673.135	-58.874	0.069	0.030
-672.120	-65.323	-0.177	-0.072
-671.105	-160.950	0.165	-0.009
-670.091	-200.000	-0.017	-0.149
-669.076	8.935	-0.127	-0.097
-668.062	-60.392	-0.239	0.102
-667.047	32.511	-0.165	0.144
-666.032	86.224	-0.077	0.085
-665.018	-60.634	-0.178	0.076
-664.003	42.045	-0.266	-0.243
-662.989	-33.775	-0.098	0.055
-661.974	184.407	-0.181	-0.269
-660.959	729.664	0.166	-0.447
-659.945	49.066	0.259	0.245
-658.930	-113.586	-0.072	-0.014
-657.916	382.133	0.063	-0.131
-656.901	60.372	0.281	-0.280
-655.886	-57.550	0.338	-0.149
-654.872	-100.156	0.216	-0.054
-653.857	-200.000	0.034	-0.314
-652.843	-19.251	0.199	0.125
-651.828	284.816	0.124	-0.225
-650.814	60.682	-0.108	0.108
-649.799	-200.000	0.038	-0.410
-648.784	-134.451	-0.137	-0.017
-647.770	195.558	-0.155	-0.237
-646.755	-36.109	0.109	0.059
-645.741	-200.000	0.019	-0.290
-644.726	-199.945	-0.383	0.002
-643.711	-37.844	-0.229	-0.122
-642.697	-61.946	-0.184	0.077
-641.682	164.434	0.162	0.229
-640.668	44.336	0.024	-0.022
-639.653	-97.371	0.101	0.026
-638.638	193.345	-0.091	-0.138
-637.624	-200.000	0.014	-0.186
-636.609	800.000	-0.090	0.294
-635.595	-9.526	-0.177	0.118
-634.580	-55.162	0.508	0.230
-633.565	21.012	-0.086	-0.070
-632.551	-143.540	-0.232	-0.022
-631.536	-200.000	-0.040	-0.309
-630.522	29.505	0.276	0.236
-629.507	-200.000	0.005	-0.130
-628.492	-50.277	0.172	0.082
-627.478	197.870	-0.087	-0.134
-626.463	-200.000	0.001	0.188
-625.449	-4.829	0.363	-0.251
-624.434	-89.605	-0.457	0.135
-623.419	-179.403	0.241	0.005
-622.405	-140.933	-0.241	-0.025
-621.390	-200.000	0.012	-0.185
-620.376	179.337	0.172	0.253
-619.361	800.000	-0.014	-0.039
-618.346	800.000	0.016	-0.051
-617.332	66.993	0.171	-0.175
-616.317	-10.416	0.251	-0.167
-615.303	-124.042	0.089	0.014
-614.288	-11.335	-0.127	0.084
-613.273	96.629	0.118	-0.136
-612.259	136.991	-0.333	-0.437
-611.244	-200.000	0.027	0.268
-610.230	-86.635	0.214	0.066
-609.215	800.000	0.079	-0.250
-608.201	-116.512	-0.160	-0.030
-607.186	-130.712	-0.312	0.042
-606.171	800.000	0.116	0.487
-605.157	-106.258	-0.127	0.028
-604.142	22.923	-0.050	-0.041
-603.128	759.476	-0.070	-0.189
-602.113	238.778	0.142	0.237
-601.098	11.003	-0.309	-0.237
-600.084	-200.000	0.004	-0.193
-599.069	-200.000	-0.081	0.361
-598.055	-200.000	0.005	0.165
-597.040	-200.000	-0.062	0.310
-596.025	144.587	-0.141	-0.189
-595.011	-62.570	-0.198	-0.083
-593.996	79.541	-0.113	0.122
-592.982	-200.000	-0.027	-0.261
-591.967	-102.739	-0.060	0.014
-590.952	77.909	-0.156	0.167
-589.938	-200.000	0.049	0.222
-588.923	-130.613	0.100	0.013
-587.909	29.845	0.141	0.121
-586.894	-90.197	-0.107	0.031
-585.879	-42.269	-0.346	-0.177
-584.865	-200.000	0.032	0.252
-583.850	685.462	-0.106	-0.277
-582.836	-200.000	-0.010	-0.305
-581.821	254.769	0.048	0.083
-580.806	733.618	0.119	-0.318
-579.792	207.425	0.120	0.188
-578.777	-139.052	-0.151	-0.016
-577.763	800.000	-0.081	0.298
-576.748	3.917	0.278	0.203
-575.733	12.971	0.131	0.101
-574.719	800.000	0.037	0.153
-573.704	40.986	-0.252	0.229
-572.690	39.306	-0.209	0.188
-571.675	-200.000	0.001	-0.187
-570.661	800.000	-0.076	0.313
-569.646	-76.633	-0.420	0.148
-568.631	630.612	-0.075	-0.189
-567.617	-200.000	0.053	0.243
-566.602	238.871	0.115	0.191
-565.588	-34.414	-0.148	-0.081
-564.573	800.000	0.062	-0.177
-563.558	-22.992	0.147	-0.089
-562.544	800.000	-0.068	0.277
-561.529	800.000	0.140	0.430
-560.515	-89.441	0.119	0.035
-559.500	-55.278	-0.128	-0.058
-558.485	-79.102	0.344	0.117
-557.471	-200.000	-0.047	0.291
-556.456	198.020	0.138	0.211
-555.442	-200.000	0.048	0.223
-554.427	-148.324	0.385	-0.032
-553.412	69.603	-0.202	-0.209
-552.398	-22.521	0.144	0.087
-551.383	-87.144	0.168	-0.051
-550.369	-200.000	0.076	0.347
-549.354	293.693	0.194	-0.355
-548.339	-60.802	0.272	0.115
-547.325	-200.000	-0.129	0.001
-546.310	-169.452	-0.242	-0.009
-545.296	-100.012	0.332	0.083
-544.281	-132.394	-0.215	0.028
-543.266	-200.000	-0.031	0.263
-542.252	302.132	-0.178	0.329
-541.237	-200.000	-0.022	0.132
-540.223	-97.717	0.453	-0.118
-539.208	-169.662	-0.294	-0.011
-538.193	-90.392	0.108	0.031
-537.179	118.497	0.132	0.163
-536.164	800.000	-0.023	-0.063
-535.150	104.270	-0.083	0.098
-534.135	-197.338	0.095	0.001
-533.121	-200.000	-0.041	0.244
-532.106	-44.403	0.244	-0.122
-531.091	22.936	0.238	0.195
-530.077	61.261	0.219	0.218
-529.062	-200.000	0.012	-0.120
-528.048	104.154	-0.153	-0.180
-527.033	-172.784	0.171	0.005
-526.018	143.940	0.067	0.090
-525.004	28.460	0.054	0.045
-523.989	-80.359	-0.119	0.040
-522.975	4.916	0.217	-0.159
-521.960	105.264	-0.139	-0.164
-520.945	248.344	-0.089	-0.150
-519.931	321.112	-0.145	-0.275
-518.916	452.072	-0.102	-0.227
-517.902	-200.000	0.024	-0.224
-516.887	800.000	-0.075	-0.236
-515.872	6.336	-0.170	0.126
-514.858	-61.219	-0.166	0.070
-513.843	41.684	0.082	0.075
-512.829	305.397	0.057	-0.106
-511.814	-5.798	0.096	-0.066
-510.799	-97.252	-0.337	0.088
-509.785	514.164	0.107	0.250
-508.770	800.000	-0.130	-0.475
-507.756	-73.184	0.254	-0.093
-506.741	-34.189	-0.057	-0.031
-505.726	166.978	0.019	0.027
-504.712	-43.298	0.321	0.162
-503.697	132.105	-0.218	-0.281
-502.683	-75.219	0.469	-0.168
-501.668	-6.329	0.047	0.032
-500.653	-73.206	-0.031	-0.011
-499.639	23.447	-0.072	0.059
-498.624	196.451	0.141	0.215
-497.610	-119.575	0.311	-0.054
-496.595	283.252	-0.038	0.067
-495.581	-200.000	0.015	0.263
-494.566	297.832	-0.068	-0.125
-493.551	-70.092	0.038	0.014
-492.537	-200.000	-0.001	-0.146
-491.522	800.000	-0.020	-0.083
-490.508	193.077	0.043	0.065
-489.493	393.661	0.038	-0.079
-488.478	337.617	0.094	-0.183
-487.464	-200.000	-0.055	-0.540
-486.449	487.023	0.063	-0.144
-485.435	-55.279	-0.130	0.058
-484.420	800.000	0.060	-0.196
-483.405	-200.000	0.025	-0.273
-482.391	800.000	0.083	0.248
-481.376	-200.000	0.016	0.269
-480.362	-200.000	-0.004	-0.260
-479.347	148.149	-0.073	-0.099
-478.332	208.295	-0.102	-0.160
-477.318	-36.660	0.271	0.146
-476.303	116.312	0.203	-0.249
-475.289	-69.900	0.161	-0.061
-474.274	-122.984	-0.721	0.116
-473.259	127.438	0.065	0.082
-472.245	-42.098	-0.222	-0.114
-471.230	-200.000	0.070	-0.377
-470.216	-133.308	-0.105	-0.013
-469.201	142.653	-0.168	0.223
-468.186	-200.000	-0.036	-0.352
-467.172	-69.963	0.125	-0.048
-466.157	-136.238	0.246	0.029
-465.143	-74.687	-0.337	-0.121
-464.128	800.000	0.073	-0.233
-463.113	-61.122	-0.132	-0.055
-462.099	785.336	-0.151	0.412
-461.084	457.130	0.063	0.140
-460.070	-50.278	-0.247	-0.116
-459.055	61.085	-0.096	-0.095
-458.040	-19.556	0.095	-0.058
-457.026	-150.443	-0.182	0.014
-456.011	31.743	0.096	0.083
-454.997	442.323	-0.127	0.277
-453.982	77.964	-0.124	-0.132
-452.968	119.065	0.161	-0.198
-451.953	800.000	-0.022	0.077
-450.938	294.911	0.025	-0.046
-449.924	74.651	0.252	0.264
-448.909	-135.921	0.161	0.019
-447.895	-7.130	-0.252	-0.171
-446.880	174.691	-0.104	-0.151
-445.865	-11.749	-0.141	-0.093
-444.851	-67.438	0.437	0.171
-443.836	-75.643	0.149	-0.053
-442.822	547.042	-0.043	-0.102
-441.807	-51.073	0.234	-0.110
-440.792	-21.624	-0.515	0.313
-439.778	-106.028	0.285	0.064
-438.763	-200.000	-0.002	0.273
-437.749	800.000	0.058	-0.239
-436.734	-43.876	-0.214	-0.107
-435.719	571.613	-0.035	0.086
-434.705	-200.000	-0.020	0.202
-433.690	102.358	0.050	0.058
-432.676	230.284	-0.151	0.247
-431.661	77.802	0.186	-0.198
-430.646	-83.952	-0.092	-0.029
-429.632	147.589	-0.189	-0.254
-428.617	183.868	-0.196	0.289
-427.603	-72.445	0.212	-0.078
-426.588	327.451	0.236	0.451
-425.573	33.149	-0.089	0.077
-424.559	-45.567	-0.159	-0.079
-423.544	-29.559	-0.149	-0.085
-422.530	-1.134	-0.205	-0.144
-421.515	800.000	0.019	0.080
-420.500	409.797	0.063	0.134
-419.486	70.755	-0.158	-0.163
-418.471	-200.000	-0.041	0.327
-417.457	-200.000	0.004	0.231
-416.442	101.172	-0.056	0.065
-415.428	-162.468	0.039	0.002
-414.413	710.373	0.107	-0.283
-413.398	-200.000	0.000	-0.035
-412.384	-200.000	0.047	0.222
-411.369	-200.000	-0.038	-0.352
-410.355	124.495	-0.087	-0.109
-409.340	301.015	-0.122	0.224
-408.325	-200.000	0.012	-0.273
-407.311	151.598	-0.141	-0.191
-406.296	-98.574	-0.322	-0.082
-405.282	800.000	0.134	0.408
-404.267	-100.375	0.221	-0.055
-403.252	130.168	0.091	0.116
-402.238	-34.266	0.193	-0.106
-401.223	-4.192	-0.302	0.208
-400.209	-200.000	-0.005	0.145
-399.194	434.645	-0.050	0.108
-398.179	274.790	0.071	-0.125
-397.165	800.000	0.054	0.162
-396.150	-108.872	-0.211	-0.045
-395.136	366.611	-0.090	-0.182
-394.121	161.507	-0.238	-0.331
-393.106	-44.977	-0.230	-0.114
-392.092	449.572	-0.069	0.152
-391.077	-181.562	-0.123	-0.002
-390.063	-88.059	0.168	-0.050
-389.048	-66.972	0.180	0.071
-388.033	-200.000	-0.005	0.052
-387.019	156.938	0.181	0.249
-386.004	-118.809	-0.139	0.024
-384.990	-9.151	-0.181	-0.121
-383.975	-117.399	-0.279	0.050
-382.960	741.170	0.047	-0.125
-381.946	-200.000	0.026	-0.130
-380.931	-200.000	-0.055	-0.347
-379.917	421.803	0.081	0.173
-378.902	168.452	-0.209	0.296
-377.888	9.169	-0.171	-0.129
-376.873	-47.767	0.065	0.032
-375.858	-111.313	-0.113	-0.023
-374.844	-200.000	-0.047	-0.283
-373.829	-33.115	0.043	0.024
-372.815	-33.592	0.348	0.191
-371.800	169.475	0.090	-0.128
-370.785	-84.429	0.057	0.018
-369.771	-66.806	0.278	0.109
-368.756	800.000	-0.078	0.311
-367.742	800.000	0.050	0.169
-366.727	110.322	0.182	-0.218
-365.712	399.505	0.205	0.426
-364.698	466.833	-0.036	0.080
-363.683	37.987	-0.226	-0.200
-362.669	800.000	-0.032	-0.135
-361.654	-200.000	0.021	-0.555
-360.639	800.000	0.049	-0.148
-359.625	231.031	0.154	-0.251
-358.610	16.506	-0.165	0.129
-357.596	373.913	0.036	-0.072
-356.581	800.000	0.050	0.163
-355.566	-200.000	-0.061	-0.462
-354.552	-45.457	-0.206	-0.102
-353.537	-70.276	-0.259	-0.098
-352.523	-49.825	-0.205	-0.097
-351.508	-200.000	-0.020	-0.117
-350.493	-200.000	0.025	-0.113
-349.479	-200.000	-0.035	0.321
-348.464	-126.244	0.136	-0.020
-347.450	-200.000	0.016	-0.173
-346.435	372.894	0.066	-0.133
-345.420	-32.088	0.053	-0.029
-344.406	271.479	0.102	0.178
-343.391	-200.000	0.007	-0.057
-342.377	34.302	0.094	-0.082
-341.362	-200.000	-0.018	0.114
-340.348	-200.000	-0.009	-0.142
-339.333	47.845	0.060	0.055
-338.318	-128.994	0.296	-0.041
-337.304	74.217	-0.237	-0.248
-336.289	61.574	0.123	0.121
-335.275	145.339	-0.194	0.258
-334.260	-200.000	0.013	0.081
-333.245	800.000	0.123	0.362
-332.231	73.387	0.145	-0.150
-331.216	-3.946	0.258	0.178
-330.202	6.475	0.103	0.076
-329.187	800.000	0.080	0.221
-328.172	-200.000	-0.010	0.182
-327.158	16.428	0.102	0.080
-326.143	151.344	-0.081	0.110
-325.129	130.192	-0.114	-0.145
-324.114	800.000	-0.139	-0.427
-323.099	141.603	0.059	-0.077
-322.085	-75.412	0.098	0.035
-321.070	800.000	-0.045	0.164
-320.056	-200.000	0.028	0.176
-319.041	-200.000	-0.020	-0.138
-318.026	800.000	-0.010	-0.041
-317.012	-144.461	0.288	-0.027
-315.997	-38.414	-0.273	-0.143
-314.983	-200.000	-0.035	-0.561
-313.968	-61.934	-0.204	-0.085
-312.953	-200.000	0.009	-0.238
-311.939	-31.846	-0.289	0.161
-310.924	800.000	-0.046	0.182
-309.910	106.198	-0.008	0.009
-308.895	-200.000	-0.011	0.134
-307.880	-48.520	0.129	-0.062
-306.866	608.702	0.127	-0.314
-305.851	-200.000	-0.074	-0.380
-304.837	17.068	-0.255	0.201
-303.822	-200.000	0.036	0.206
-302.807	113.632	-0.196	0.236
-301.793	61.918	-0.160	-0.158
-300.778	-147.512	0.168	0.014
-299.764	42.298	0.296	0.267
-298.749	93.184	-0.139	-0.156
-297.735	615.443	0.152	0.379
-296.720	800.000	-0.020	0.084
-295.705	-14.905	-0.139	-0.088
-294.691	-200.000	0.060	0.351
-293.676	266.053	0.049	-0.085
-292.662	800.000	-0.041	-0.143
-291.647	-78.186	-0.068	0.023
-290.632	800.000	-0.049	-0.151
-289.618	-48.672	0.140	0.067
-288.603	-200.000	0.038	-0.207
-287.589	2.314	-0.349	-0.250
-286.574	58.431	0.180	-0.175
-285.559	-20.235	0.276	0.168
-284.545	-31.830	0.182	0.101
-283.530	40.021	0.317	0.282
-282.516	-82.619	-0.178	0.057
-281.501	116.776	-0.215	-0.261
-280.486	-159.577	-0.235	0.013
-279.472	724.417	0.067	0.176
-278.457	800.000	0.037	-0.149
-277.443	20.155	0.103	0.082
-276.428	256.957	-0.125	-0.213
-275.413	800.000	0.202	-0.599
-274.399	-64.461	-0.261	-0.105
-273.384	-124.452	0.306	-0.047
-272.370	114.712	-0.127	-0.153
-271.355	-5.900	-0.339	0.230
-270.340	32.184	0.398	0.340
-269.326	-200.000	0.003	-0.044
-268.311	-24.368	0.011	0.006
-267.297	800.000	0.042	-0.130
-266.282	-70.909	0.367	0.137
-265.267	-200.000	-0.013	0.321
-264.253	120.675	-0.073	0.089
-263.238	-134.403	-0.310	-0.038
-262.224	-200.000	-0.009	0.170
-261.209	203.203	-0.175	0.267
-260.195	209.025	0.143	-0.221
-259.180	-200.000	-0.031	-0.268
-258.165	115.104	-0.041	0.050
-257.151	165.775	-0.160	0.224
-256.136	19.007	0.222	-0.176
-255.122	9.001	-0.394	0.295
-254.107	-62.658	-0.395	0.162
-253.092	800.000	0.112	0.347
-252.078	-127.730	0.157	0.022
-251.063	-111.476	0.411	0.083
-250.049	-200.000	0.036	-0.237
-249.034	-200.000	-0.006	-0.030
-248.019	29.850	0.095	0.080
-247.005	26.645	0.526	0.436
-245.990	800.000	0.065	-0.268
-244.976	-130.968	0.145	-0.019
-243.961	-13.015	0.242	0.156
-242.946	-61.066	0.109	0.045
-241.932	-80.333	-0.089	0.030
-240.917	211.732	0.094	-0.147
-239.903	-65.986	0.177	-0.070
-238.888	-13.114	-0.313	0.202
-237.873	-173.805	0.071	0.002
-236.859	62.693	-0.117	-0.115
-235.844	11.783	0.067	0.051
-234.830	-156.710	0.383	-0.023
-233.815	255.084	0.078	-0.133
-232.800	-196.163	-0.107	0.001
-231.786	150.791	-0.247	0.332
-230.771	-200.000	0.010	0.416
-229.757	95.021	0.110	0.124
-228.742	-200.000	-0.124	-0.581
-227.727	-200.000	-0.015	-0.076
-226.713	117.291	-0.306	-0.372
-225.698	288.125	0.040	0.072
-224.684	-200.000	-0.021	0.150
-223.669	-29.619	-0.172	-0.097
-222.655	800.000	0.063	-0.227
-221.640	800.000	-0.049	0.186
-220.625	-200.000	-0.013	0.120
-219.611	-102.302	-0.432	0.103
-218.596	273.423	-0.121	-0.211
-217.582	-155.339	-0.102	-0.007
-216.567	-8.190	-0.155	-0.103
-215.552	75.456	-0.025	0.026
-214.538	141.687	0.155	-0.203
-213.523	-156.256	-0.506	0.031
-212.509	82.188	-0.080	-0.085
-211.494	-161.098	-0.120	-0.006
-210.479	-144.908	-0.128	-0.012
-209.465	505.182	0.088	-0.201
-208.450	249.585	-0.116	-0.194
-207.436	93.800	-0.045	-0.050
-206.421	800.000	-0.064	-0.189
-205.406	-35.970	0.382	-0.204
-204.392	-93.021	0.018	-0.005
-203.377	-124.936	0.420	-0.064
-202.363	-200.000	-0.051	0.227
-201.348	-200.000	0.042	0.243
-200.333	528.800	0.034	-0.079
-199.319	-27.761	-0.366	0.209
-198.304	-200.000	0.012	0.068
-197.290	-117.945	-0.167	0.030
-196.275	-110.155	0.352	0.073
-195.260	-200.000	0.042	0.354
-194.246	-134.371	0.360	0.044
-193.231	-200.000	0.041	0.266
-192.217	-200.000	-0.033	0.284
-191.202	-79.734	0.322	0.107
-190.187	-200.000	0.080	-0.399
-189.173	648.469	0.176	0.443
-188.158	187.041	-0.311	-0.457
-187.144	16.192	-0.130	0.101
-186.129	800.000	-0.017	0.070
-185.114	-38.038	0.079	-0.041
-184.100	-96.471	0.190	-0.050
-183.085	37.560	-0.249	0.218
-182.071	30.210	0.412	0.347
-181.056	-200.000	-0.043	0.216
-180.042	-159.175	-0.202	0.011
-179.027	-181.653	0.280	0.005
-178.012	-176.816	0.088	0.002
-176.998	-200.000	0.023	0.281
-175.983	-123.232	0.175	0.028
-174.969	633.246	-0.077	-0.194
-173.954	-59.161	0.306	-0.130
-172.939	233.661	0.303	-0.492
-171.925	-159.014	-0.119	0.007
-170.910	-48.347	-0.188	0.089
-169.896	372.498	-0.036	-0.072
-168.881	-200.000	-0.022	-0.227
-167.866	4.572	0.257	-0.186
-166.852	-102.782	-0.351	-0.083
-165.837	-101.391	0.295	-0.071
-164.823	-18.824	-0.191	0.117
-163.808	8.807	0.084	0.063
-162.793	-18.855	-0.099	0.061
-161.779	-129.828	0.291	-0.039
-160.764	-45.960	0.101	-0.049
-159.750	-200.000	-0.079	-0.362
-158.735	193.614	-0.079	-0.117
-157.720	-106.988	-0.155	-0.034
-156.706	-171.107	0.537	-0.018
-155.691	-200.000	0.026	0.123
-154.677	93.303	0.077	0.086
-153.662	-121.887	-0.353	-0.057
-152.647	112.668	-0.105	0.125
-151.633	247.662	0.043	0.072
-150.618	334.219	0.114	0.218
-149.604	6.000	0.227	0.166
-148.589	38.431	-0.221	0.194
-147.574	275.104	0.069	0.120
-146.560	-99.794	0.140	0.035
-145.545	87.097	0.113	0.123
-144.531	-74.348	0.163	-0.058
-143.516	21.339	0.218	-0.175
-142.502	-200.000	0.031	-0.220
-141.487	-94.124	0.150	-0.040
-140.472	-132.685	0.097	-0.012
-139.458	-70.354	-0.158	0.059
-138.443	-200.000	0.013	0.298
-137.429	-9.875	0.114	-0.075
-136.414	31.420	0.338	-0.286
-135.399	7.721	0.148	0.109
-134.385	-200.000	0.023	0.159
-133.370	-200.000	0.002	0.065
-132.356	800.000	0.017	0.062
-131.341	-200.000	-0.069	0.363
-130.326	-200.000	0.048	0.299
-129.312	85.609	-0.207	0.224
-128.297	-200.000	-0.042	-0.201
-127.283	210.428	-0.083	-0.129
-126.268	-40.594	0.126	0.065
-125.253	-200.000	0.022	0.166
-124.239	71.575	0.139	0.143
-123.224	653.141	0.201	0.507
-122.210	533.132	0.122	0.286
-121.195	-157.498	0.469	0.028
-120.180	800.000	-0.104	-0.292
-119.166	-92.980	-0.282	0.078
-118.151	93.260	0.399	0.445
-117.137	35.768	-0.149	-0.129
-116.122	272.048	0.047	0.082
-115.107	34.622	-0.282	0.243
-114.093	-91.737	0.244	-0.068
-113.078	103.915	0.263	-0.305
-112.064	24.118	0.165	-0.134
-111.049	-3.226	-0.103	0.071
-110.034	63.885	-0.070	-0.069
-109.020	-56.617	0.172	-0.075
-108.005	-54.916	-0.247	0.110
-106.991	193.555	0.019	-0.029
-105.976	-200.000	-0.006	0.058
-104.962	-77.765	0.101	0.035
-103.947	-86.896	0.383	-0.115
-102.932	105.066	0.096	0.111
-101.918	-29.729	0.385	0.216
-100.903	-12.148	0.223	-0.143
-99.889	-134.303	-0.277	0.034
-98.874	36.900	-0.134	-0.117
-97.859	15.968	-0.131	-0.102
-96.845	-74.488	0.576	0.204
-95.830	-33.220	-0.405	0.221
-94.816	671.571	0.146	0.371
-93.801	-200.000	0.037	0.366
-92.786	353.876	-0.047	-0.093
-91.772	34.062	0.163	-0.140
-90.757	-200.000	0.003	-0.269
-89.743	145.948	-0.093	-0.123
-88.728	-49.657	0.337	-0.158
-87.713	-200.000	-0.025	0.180
-86.699	-95.996	0.164	0.043
-85.684	53.825	0.197	-0.186
-84.670	-200.000	-0.002	-0.052
-83.655	-64.754	-0.240	-0.096
-82.640	800.000	-0.066	0.270
-81.626	572.595	0.069	0.166
-80.611	653.506	-0.095	0.240
-79.597	134.550	-0.083	-0.106
-78.582	-46.351	0.130	-0.063
-77.567	-4.624	0.370	-0.251
-76.553	-200.000	-0.002	0.040
-75.538	-80.617	-0.082	-0.027
-74.524	-124.708	-0.371	0.056
-73.509	-96.264	-0.154	-0.040
-72.494	19.819	0.236	0.187
-71.480	-17.225	0.119	-0.074
-70.465	110.994	-0.120	-0.142
-69.451	-149.606	0.361	0.028
-68.436	278.158	0.280	0.490
-67.422	-200.000	0.025	0.123
-66.407	-60.263	0.158	0.066
-65.392	-93.952	0.077	-0.021
-64.378	60.628	-0.116	0.113
-63.363	-1.301	0.195	0.135
-62.349	-110.968	-0.095	0.019
-61.334	35.835	-1.332	-1.151
-60.319	46.688	0.627	0.572
-59.305	443.632	-0.577	-1.244
-58.290	151.977	0.986	1.322
-57.276	800.000	0.537	1.643
-56.261	-200.000	120.655	622.352
-55.246	391.296	1568.142	3198.970
-54.232	137.471	2746.883	3531.495
-53.217	86.603	2350.013	2546.608
-52.203	31.074	2089.502	1760.260
-51.188	26.634	2003.887	1647.774
-50.173	25.374	1986.247	1621.834
-49.159	42.204	2051.209	1830.180
-48.144	41.072	2066.484	1833.316
-47.130	27.171	2021.282	1666.743
-46.115	25.073	2010.682	1638.782
-45.100	24.937	2007.185	1634.624
-44.086	24.901	2004.549	1632.078
-43.071	24.765	2002.438	1629.057
-42.057	24.861	2000.358	1628.174
-41.042	24.848	1998.986	1626.874
-40.027	24.938	1996.775	1625.830
-39.013	24.917	1994.589	1623.794
-37.998	24.868	1993.446	1622.356
-36.984	24.871	1991.709	1620.908
-35.969	24.870	1989.589	1619.103
-34.954	24.869	1987.696	1617.490
-33.940	24.920	1986.266	1616.727
-32.925	24.962	1985.006	1616.016
-31.911	24.959	1983.684	1614.850
-30.896	24.959	1981.382	1612.907
-29.881	25.027	1980.017	1612.343
-28.867	25.067	1978.381	1611.311
-27.852	25.029	1976.878	1609.682
-26.838	25.109	1974.816	1608.651
-25.823	25.015	1973.332	1606.543
-24.809	25.078	1971.320	1605.401
-23.794	25.061	1969.561	1603.752
-22.779	24.963	1968.182	1601.689
-21.765	24.997	1966.103	1600.240
-20.750	25.031	1964.445	1599.126
-19.736	25.063	1963.341	1598.455
-18.721	25.030	1961.297	1596.431
-17.706	25.062	1960.133	1595.703
-16.692	25.028	1957.986	1593.588
-15.677	25.044	1956.581	1592.527
-14.663	25.037	1954.995	1591.113
-13.648	24.949	1954.101	1589.542
-12.633	25.039	1952.707	1589.144
-11.619	24.902	1951.696	1587.040
-10.604	25.023	1949.863	1586.557
-9.590	24.944	1948.856	1584.975
-8.575	25.009	1947.409	1584.308
-7.560	25.070	1945.773	1583.457
-6.546	25.029	1944.829	1582.262
-5.531	24.904	1944.065	1580.474
-4.517	25.056	1941.619	1579.768
-3.502	25.046	1940.916	1579.040
-2.487	24.952	1939.910	1577.332
-1.473	24.961	1938.904	1576.529
-0.458	25.131	1933.506	1573.569
0.556	23.532	1914.753	1548.673
1.571	19.852	1897.765	1502.889
2.586	16.430	1922.230	1491.972
3.600	15.530	1957.700	1511.272
4.615	15.393	1951.262	1504.937
5.629	12.033	1849.609	1397.799
6.644	4.637	1733.124	1250.363
7.659	0.657	1698.369	1193.776
8.673	0.329	1695.619	1189.150
9.688	0.315	1693.642	1187.553
10.702	0.222	1692.938	1186.216
11.717	0.095	1688.870	1182.263
12.731	0.609	1687.581	1185.296
13.746	6.088	1698.888	1236.325
14.761	13.340	1713.803	1304.447
15.775	16.481	1719.077	1333.158
16.790	16.745	1717.928	1334.225
17.804	15.923	1714.948	1325.326
18.819	14.935	1711.753	1314.981
19.834	14.369	1709.393	1308.605
20.848	14.058	1707.908	1304.909
21.863	13.861	1706.337	1302.052
22.877	13.644	1703.886	1298.363
23.892	13.386	1702.769	1295.377
24.907	13.244	1702.313	1293.808
25.921	13.275	1701.004	1292.935
26.936	13.210	1699.828	1291.420
27.950	13.182	1699.450	1290.802
28.965	13.308	1698.640	1291.054
29.980	13.338	1698.078	1290.749
30.994	13.385	1697.145	1290.291
32.009	13.561	1695.511	1290.305
33.023	13.444	1695.359	1289.166
34.038	13.541	1693.972	1288.754
35.053	13.474	1693.350	1287.640
36.067	13.416	1691.934	1286.005
37.082	13.450	1691.160	1285.567
38.096	13.376	1690.232	1284.167
39.111	13.342	1689.308	1283.089
40.126	13.460	1688.510	1283.290
41.140	13.435	1687.411	1282.142
42.155	13.332	1685.800	1280.007
43.169	13.215	1684.456	1277.974
44.184	13.276	1683.203	1277.381
45.199	13.161	1682.335	1275.715
46.213	13.189	1680.926	1274.756
47.228	13.225	1679.703	1273.987
48.242	13.290	1678.313	1273.327
49.257	13.309	1676.971	1272.343
50.271	13.351	1675.953	1271.777
51.286	13.378	1674.210	1270.553
52.301	13.350	1673.208	1269.464
53.315	13.351	1671.606	1268.142
54.330	13.301	1670.295	1266.649
55.344	13.346	1668.614	1265.611
56.359	13.224	1667.294	1263.561
57.374	13.284	1665.874	1262.837
58.388	13.279	1664.616	1261.728
59.403	13.175	1663.601	1260.059
60.417	13.201	1661.547	1258.588
61.432	13.192	1660.988	1257.987
62.447	13.151	1659.528	1256.454
63.461	13.148	1658.602	1255.619
64.476	13.143	1657.533	1254.659
65.490	13.150	1655.888	1253.356
66.505	13.102	1654.923	1252.156
67.520	13.079	1654.426	1251.495
68.534	13.127	1653.163	1250.786
69.549	13.211	1651.943	1250.393
70.563	13.161	1650.753	1249.003
71.578	13.174	1649.172	1247.792
72.593	13.100	1648.114	1246.324
73.607	13.155	1646.999	1245.788
74.622	13.098	1645.804	1244.342
75.636	13.021	1645.061	1243.088
76.651	13.099	1644.162	1242.891
77.666	13.017	1643.432	1241.607
78.680	13.082	1641.979	1240.889
79.695	13.157	1640.784	1240.440
80.709	13.147	1639.848	1239.546
81.724	13.133	1638.707	1238.473
82.739	13.155	1638.290	1238.208
83.753	13.108	1637.117	1236.861
84.768	13.233	1635.629	1236.564
85.782	13.203	1635.009	1235.765
86.797	13.242	1634.212	1235.345
87.812	13.320	1633.097	1234.969
88.826	13.227	1632.092	1233.409
89.841	13.228	1630.651	1232.222
90.855	13.274	1629.199	1231.354
91.870	13.294	1628.002	1230.489
92.884	13.342	1627.343	1230.237
93.899	13.295	1626.340	1229.021
94.914	13.338	1625.391	1228.514
95.928	13.387	1623.620	1227.431
96.943	13.477	1622.579	1227.205
97.957	13.365	1621.187	1225.213
98.972	13.367	1619.573	1223.904
99.987	13.315	1618.266	1222.423
101.001	13.288	1616.597	1220.849
102.016	13.293	1615.188	1219.716
103.030	13.347	1613.704	1218.887
104.045	13.292	1612.591	1217.531
105.060	13.339	1610.911	1216.499
106.074	13.282	1609.943	1215.243
107.089	13.252	1607.943	1213.410
108.103	13.132	1606.851	1211.595
109.118	13.175	1605.446	1210.744
110.133	13.057	1604.362	1208.958
111.147	13.274	1602.104	1208.733
112.162	13.180	1601.344	1207.367
113.176	13.217	1600.157	1206.635
114.191	13.276	1598.785	1205.925
115.206	13.259	1597.330	1204.595
116.220	13.254	1595.890	1203.366
117.235	13.265	1594.583	1202.358
118.249	13.284	1593.243	1201.379
119.264	13.303	1591.869	1200.369
120.279	13.194	1590.792	1198.661
121.293	13.222	1589.026	1197.431
122.308	13.266	1587.361	1196.387
123.322	13.236	1585.541	1194.689
124.337	13.217	1584.454	1193.632
125.352	13.172	1583.507	1192.489
126.366	13.179	1581.831	1191.171
127.381	13.228	1580.709	1190.569
128.395	13.203	1579.227	1189.170
129.410	13.194	1578.475	1188.433
130.424	13.194	1577.150	1187.333
131.439	13.304	1575.712	1186.934
132.454	13.296	1574.195	1185.630
133.468	13.260	1572.908	1184.299
134.483	13.236	1571.482	1182.944
135.497	13.247	1570.315	1182.039
136.512	13.260	1568.722	1180.832
137.527	13.355	1566.923	1180.051
138.541	13.307	1565.777	1178.744
139.556	13.261	1564.560	1177.389
140.570	13.364	1562.469	1176.446
141.585	13.349	1561.692	1175.651
142.600	13.422	1560.448	1175.127
143.614	13.373	1559.300	1173.814
144.629	13.378	1558.280	1172.978
145.643	13.486	1556.550	1172.336
146.658	13.519	1555.120	1171.389
147.673	13.469	1553.742	1169.894
148.687	13.450	1552.228	1168.515
149.702	13.473	1550.403	1167.198
150.716	13.485	1548.649	1165.860
151.731	13.466	1547.660	1164.882
152.746	13.403	1546.258	1163.279
153.760	13.383	1545.133	1162.189
154.775	13.420	1543.523	1161.135
155.789	13.527	1542.077	1160.694
156.804	13.542	1540.542	1159.542
157.819	13.586	1539.543	1158.995
158.833	13.573	1538.234	1157.819
159.848	13.581	1537.475	1157.195
160.862	13.672	1536.409	1156.928
161.877	13.687	1534.644	1155.603
162.892	13.571	1533.978	1154.190
163.906	13.600	1532.618	1153.264
164.921	13.600	1531.019	1151.961
165.935	13.637	1530.174	1151.484
166.950	13.586	1529.423	1150.457
167.964	13.700	1527.981	1150.065
168.979	13.644	1527.023	1148.852
169.994	13.746	1525.841	1148.566
171.008	13.618	1524.359	1146.464
172.023	13.604	1523.961	1145.967
173.037	13.598	1523.044	1145.135
174.052	13.680	1521.734	1144.619
175.067	13.665	1520.693	1143.627
176.081	13.759	1519.066	1142.950
177.096	13.704	1517.706	1141.445
178.110	13.610	1517.026	1140.189
179.125	13.696	1515.115	1139.239
180.140	13.691	1514.174	1138.399
181.154	13.667	1513.724	1137.795
182.169	13.748	1512.389	1137.250
183.183	13.673	1510.999	1135.586
184.198	13.794	1509.816	1135.424
185.213	13.841	1508.512	1134.668
186.227	13.801	1507.712	1133.693
187.242	13.890	1506.460	1133.259
188.256	13.901	1505.555	1132.552
189.271	13.942	1504.400	1131.861
190.286	13.899	1503.277	1130.622
191.300	13.821	1502.493	1129.405
192.315	13.810	1500.933	1128.057
193.329	13.768	1499.452	1126.555
194.344	13.783	1498.776	1126.053
195.359	13.752	1497.545	1124.817
196.373	13.815	1496.420	1124.301
197.388	13.848	1495.829	1123.979
198.402	13.916	1494.059	1123.011
199.417	13.997	1492.986	1122.653
200.432	13.950	1492.407	1121.801
201.446	14.021	1491.220	1121.283
202.461	14.100	1489.826	1120.674
203.475	14.069	1488.917	1119.678
204.490	14.117	1487.824	1119.081
205.504	14.103	1486.554	1117.934
206.519	14.052	1485.699	1116.848
207.534	14.030	1484.442	1115.656
208.548	14.054	1483.394	1114.934
209.563	13.995	1482.336	1113.642
210.577	14.138	1480.598	1113.198
211.592	14.184	1479.698	1112.729
212.607	14.122	1479.690	1112.210
213.621	14.182	1478.645	1111.726
214.636	14.279	1477.210	1111.198
215.650	14.248	1476.467	1110.333
216.665	14.261	1475.880	1109.877
217.680	14.260	1474.639	1108.843
218.694	14.299	1474.011	1108.531
219.709	14.330	1473.425	1108.197
220.723	14.301	1471.985	1106.823
221.738	14.301	1471.017	1105.998
222.753	14.319	1470.430	1105.580
223.767	14.319	1469.142	1104.511
224.782	14.308	1468.171	1103.611
225.796	14.369	1467.245	1103.218
226.811	14.360	1466.675	1102.638
227.826	14.444	1465.438	1102.164
228.840	14.435	1464.841	1101.557
229.855	14.376	1463.796	1100.285
230.869	14.426	1462.908	1099.852
231.884	14.388	1461.643	1098.550
232.899	14.424	1460.835	1098.082
233.913	14.459	1459.282	1097.048
234.928	14.388	1458.295	1095.746
235.942	14.379	1457.485	1094.979
236.957	14.393	1456.299	1094.080
237.972	14.454	1454.647	1093.147
238.986	14.388	1453.503	1091.757
240.001	14.392	1453.091	1091.379
241.015	14.405	1451.828	1090.419
242.030	14.456	1450.534	1089.682
243.045	14.465	1449.845	1089.127
244.059	14.547	1448.940	1088.883
245.074	14.428	1448.343	1087.567
246.088	14.566	1447.230	1087.534
247.103	14.580	1446.500	1086.975
248.117	14.653	1445.277	1086.439
249.132	14.608	1444.922	1085.783
250.147	14.733	1444.024	1085.822
251.161	14.842	1442.934	1085.618
252.176	14.748	1442.608	1084.662
253.190	14.797	1442.085	1084.497
254.205	14.872	1440.726	1083.863
255.220	14.907	1440.190	1083.587
256.234	14.899	1439.320	1082.784
257.249	14.871	1438.436	1081.846
258.263	14.985	1437.670	1081.911
259.278	14.986	1436.450	1080.905
260.293	14.864	1436.122	1079.773
261.307	14.964	1434.836	1079.358
262.322	14.991	1434.242	1078.990
263.336	15.016	1432.968	1078.093
264.351	15.066	1432.333	1077.842
265.366	15.147	1431.229	1077.440
266.380	15.116	1430.186	1076.359
267.395	15.082	1429.199	1075.301
268.409	15.074	1428.598	1074.704
269.424	15.074	1427.310	1073.640
270.439	15.215	1426.152	1073.576
271.453	15.209	1425.080	1072.634
272.468	15.108	1424.396	1071.380
273.482	15.166	1423.710	1071.140
274.497	15.212	1422.603	1070.506
275.512	15.091	1422.212	1069.343
276.526	15.144	1421.389	1068.972
277.541	15.180	1420.450	1068.397
278.555	15.212	1419.320	1067.661
279.570	15.169	1418.557	1066.716
280.585	15.211	1417.605	1066.176
281.599	15.300	1416.769	1066.013
282.614	15.251	1415.934	1064.982
283.628	15.420	1414.292	1064.726
284.643	15.292	1413.487	1063.215
285.657	15.316	1412.363	1062.427
286.672	15.330	1411.404	1061.701
287.687	15.220	1410.960	1060.576
288.701	15.242	1410.130	1059.995
289.716	15.344	1408.718	1059.483
290.730	15.364	1408.067	1059.027
291.745	15.325	1407.173	1058.014
292.760	15.369	1406.375	1057.603
293.774	15.466	1405.247	1057.266
294.789	15.401	1404.228	1056.001
295.803	15.416	1403.715	1055.617
296.818	15.532	1402.370	1055.240
297.833	15.467	1401.190	1053.847
298.847	15.532	1400.073	1053.321
299.862	15.504	1399.258	1052.443
300.876	15.553	1398.288	1051.925
301.891	15.418	1397.820	1050.638
302.906	15.536	1396.668	1050.412
303.920	15.604	1395.789	1050.085
304.935	15.567	1395.433	1049.492
305.949	15.592	1394.671	1048.986
306.964	15.717	1393.249	1048.600
307.979	15.714	1392.350	1047.814
308.993	15.687	1391.469	1046.889
310.008	15.650	1391.185	1046.355
311.022	15.753	1389.668	1045.762
312.037	15.682	1388.774	1044.552
313.052	15.668	1387.968	1043.765
314.066	15.783	1386.607	1043.363
315.081	15.653	1385.705	1041.786
316.095	15.684	1384.515	1040.991
317.110	15.694	1383.505	1040.203
318.125	15.689	1382.766	1039.527
319.139	15.655	1381.692	1038.417
320.154	15.676	1381.073	1037.988
321.168	15.822	1379.661	1037.737
322.183	15.804	1378.712	1036.818
323.197	15.765	1377.843	1035.834
324.212	15.850	1376.764	1035.457
325.227	15.873	1376.088	1034.995
326.241	15.810	1375.012	1033.707
327.256	15.842	1374.308	1033.286
328.270	15.833	1373.450	1032.491
329.285	15.748	1372.749	1031.353
330.300	15.779	1372.088	1030.954
331.314	15.758	1370.979	1029.899
332.329	15.769	1370.639	1029.622
333.343	15.922	1368.773	1029.061
334.358	15.844	1368.813	1028.527
335.373	15.914	1367.653	1027.992
336.387	15.971	1366.620	1027.468
337.402	16.054	1365.894	1027.341
338.416	15.972	1365.408	1026.382
339.431	16.059	1364.752	1026.328
340.446	15.962	1364.058	1025.126
341.460	16.091	1362.575	1024.706
342.475	16.057	1361.897	1023.897
343.489	16.069	1361.157	1023.324
344.504	16.222	1359.766	1023.118
345.519	16.148	1359.244	1022.186
346.533	16.126	1358.458	1021.372
347.548	16.182	1357.293	1020.743
348.562	16.135	1356.639	1019.876
349.577	16.331	1355.767	1020.317
350.592	16.235	1354.966	1019.044
351.606	16.200	1354.126	1018.108
352.621	16.087	1353.006	1016.493
353.635	16.236	1351.377	1016.078
354.650	16.240	1350.648	1015.465
355.665	16.257	1349.643	1014.722
356.679	16.321	1348.317	1014.020
357.694	16.338	1347.604	1013.493
358.708	16.308	1346.309	1012.253
359.723	16.280	1345.498	1011.386
360.738	16.227	1344.631	1010.324
361.752	16.408	1343.540	1010.497
362.767	16.503	1342.209	1009.977
363.781	16.480	1341.177	1008.976
364.796	16.424	1340.781	1008.254
365.810	16.302	1340.167	1006.973
366.825	16.455	1339.473	1007.272
367.840	16.507	1338.755	1006.958
368.854	16.581	1337.934	1006.689
369.869	16.528	1337.297	1005.809
370.883	16.616	1336.541	1005.674
371.898	16.550	1335.964	1004.755
372.913	16.529	1335.361	1004.091
373.927	16.555	1334.434	1003.460
374.942	16.631	1333.237	1002.917
375.956	16.659	1332.556	1002.481
376.971	16.642	1331.613	1001.586
377.986	16.730	1330.871	1001.455
379.000	16.705	1329.891	1000.487
380.015	16.750	1329.210	1000.147
381.029	16.763	1328.562	999.647
382.044	16.883	1327.483	999.460
383.059	16.810	1327.243	998.756
384.073	16.736	1326.348	997.563
385.088	16.991	1325.404	998.264
386.102	16.829	1325.260	997.115
387.117	16.847	1324.438	996.513
388.132	16.919	1323.760	996.340
389.146	16.904	1322.469	995.191
390.161	16.826	1322.365	994.562
391.175	16.865	1321.193	993.826
392.190	16.899	1320.340	993.291
393.205	16.904	1319.244	992.413
394.219	16.932	1318.350	991.814
395.234	16.965	1316.898	990.827
396.248	16.981	1315.904	990.083
397.263	17.035	1314.414	989.188
398.278	16.963	1312.758	987.435
399.292	16.895	1312.148	986.494
400.307	16.959	1310.973	985.895
401.321	17.019	1309.798	985.272
402.336	16.942	1308.811	984.000
403.350	16.953	1308.041	983.395
404.365	16.991	1307.258	982.941
405.380	16.999	1306.378	982.238
406.394	17.030	1305.433	981.619
407.409	17.047	1304.945	981.263
408.423	17.030	1304.272	980.574
409.438	17.174	1303.216	980.523
410.453	17.145	1302.405	979.663
411.467	17.094	1301.961	978.945
412.482	17.210	1301.603	979.255
413.496	17.297	1300.697	978.989
414.511	17.330	1299.596	978.268
415.526	17.318	1298.845	977.543
416.540	17.300	1298.617	977.185
417.555	17.331	1297.843	976.694
418.569	17.250	1297.114	975.590
419.584	17.331	1296.755	975.697
420.599	17.407	1296.056	975.525
421.613	98.143	1360.270	1484.155
422.628	96.302	1369.548	1484.229
