DTS Sentinel unit serial number:	SN413079Multiplexer serial number:	ORYXHardware model number:	OX4-SRSoftware version number:	ORYX F/W v4.00 Oryx Data Collector v3.7.2.0data status	okinstallation	princeton_trtdifferential loss correction	single-endedforward channel	channel 4reverse channel	N/Adate	2019/09/14time	19:05:34forward acquisition time	60.00reverse acquisition time	0.00gamma	496.2192k internal	0.2302k external	0.2302temperature offset calibration	1.0098default loss term (dB/km)	0.3790temperature slope calibration	1.0000multiplexer offset coefficient	1.0000multiplexer slope coefficient	1.0000fibre end	0.00T internal ref (°C)	35.48T ext. ref 1 (°C)	4.87T ext. ref 2 (°C)	29.37length (m)	temperature (°C)	Stokes	anti-Stokes-747.200	627.010	0.039	-0.100
-746.185	258.726	-0.173	0.304
-745.171	-129.105	0.146	0.021
-744.156	204.845	0.093	0.147
-743.142	-111.273	0.314	-0.065
-742.127	-115.260	-0.105	0.020
-741.112	189.565	0.067	0.103
-740.098	800.000	-0.041	0.143
-739.083	-74.582	-0.191	-0.070
-738.069	70.686	-0.148	0.156
-737.054	464.249	-0.123	-0.280
-736.039	-134.757	0.215	-0.027
-735.025	117.607	0.071	0.089
-734.010	586.618	0.154	-0.387
-732.996	690.242	0.074	0.197
-731.981	161.688	0.212	0.302
-730.966	-105.320	-0.144	0.033
-729.952	-35.937	-0.248	0.137
-728.937	800.000	0.032	-0.119
-727.923	-11.590	-0.212	-0.142
-726.908	33.560	0.094	0.083
-725.894	-44.557	0.327	-0.166
-724.879	-200.000	-0.058	-0.441
-723.864	8.860	-0.103	0.079
-722.850	800.000	0.036	0.121
-721.835	-69.143	0.228	0.089
-720.821	800.000	0.086	-0.358
-719.806	-98.575	-0.101	-0.026
-718.791	-118.834	-0.228	0.041
-717.777	-114.915	-0.182	0.035
-716.762	33.117	0.222	0.196
-715.748	-200.000	0.042	0.247
-714.733	44.242	-0.050	0.046
-713.718	-47.472	-0.073	0.036
-712.704	-105.568	-0.355	-0.082
-711.689	-65.461	-0.117	0.048
-710.675	-58.677	0.518	-0.229
-709.660	-84.578	0.230	0.074
-708.645	700.657	0.091	-0.244
-707.631	-200.000	-0.017	-0.265
-706.616	421.669	0.063	-0.137
-705.602	412.681	0.064	-0.139
-704.587	18.246	0.205	0.167
-703.572	-40.534	0.327	-0.173
-702.558	69.502	-0.206	-0.215
-701.543	327.668	-0.033	0.064
-700.529	800.000	0.028	0.099
-699.514	173.073	-0.148	-0.218
-698.499	-41.124	0.184	-0.097
-697.485	-200.000	-0.013	-0.121
-696.470	-20.786	-0.100	0.062
-695.456	-12.625	0.270	-0.179
-694.441	-200.000	-0.025	-0.157
-693.426	-82.971	-0.144	0.047
-692.412	690.785	-0.148	-0.394
-691.397	2.297	-0.155	-0.114
-690.383	84.196	0.138	0.154
-689.368	800.000	-0.038	0.147
-688.354	-95.323	-0.103	0.028
-687.339	800.000	-0.125	-0.485
-686.324	-140.914	0.043	-0.005
-685.310	-25.550	-0.331	0.199
-684.295	-70.224	-0.092	0.036
-683.281	-129.959	-0.281	0.039
-682.266	-106.227	-0.594	-0.135
-681.251	-200.000	0.038	0.421
-680.237	-133.760	-0.329	0.042
-679.222	-14.285	-0.190	0.124
-678.208	-150.538	0.266	0.021
-677.193	-192.121	-0.493	0.005
-676.178	-78.221	-0.300	0.105
-675.164	340.721	0.080	-0.159
-674.149	-200.000	-0.022	0.202
-673.135	-102.147	-0.313	-0.077
-672.120	90.757	-0.051	0.058
-671.105	-104.866	-0.303	0.071
-670.091	800.000	-0.030	0.086
-669.076	50.294	-0.187	-0.180
-668.062	194.178	-0.160	0.246
-667.047	-200.000	0.019	0.223
-666.032	45.227	-0.241	-0.226
-665.018	200.330	0.084	-0.131
-664.003	-0.434	0.172	-0.124
-662.989	-200.000	0.022	0.130
-661.974	212.101	0.135	0.216
-660.959	800.000	-0.026	-0.085
-659.945	-156.729	-0.190	0.012
-658.930	-200.000	-0.017	0.134
-657.916	-106.784	-0.190	-0.043
-656.901	-200.000	-0.016	-0.153
-655.886	-125.539	-0.184	0.028
-654.872	-77.651	-0.335	-0.118
-653.857	380.674	-0.153	-0.318
-652.843	-144.236	-0.168	-0.016
-651.828	-200.000	-0.043	-0.301
-650.814	-200.000	-0.023	0.197
-649.799	-105.682	0.221	-0.051
-648.784	-129.405	0.020	0.003
-647.770	77.197	-0.118	-0.127
-646.755	-103.068	0.130	0.031
-645.741	-73.006	-0.258	0.096
-644.726	-63.617	-0.159	-0.066
-643.711	800.000	-0.025	0.098
-642.697	-20.502	-0.189	-0.118
-641.682	211.520	0.189	0.302
-640.668	23.514	-0.123	-0.103
-639.653	-105.129	-0.261	0.061
-638.638	199.681	-0.099	0.153
-637.624	128.337	-0.112	0.145
-636.609	209.179	-0.245	-0.389
-635.595	440.333	0.132	-0.292
-634.580	-200.000	0.018	0.195
-633.565	21.488	0.159	-0.131
-632.551	-64.995	-0.049	0.020
-631.536	-200.000	0.029	0.377
-630.522	-127.813	-0.131	0.019
-629.507	-38.292	0.168	-0.090
-628.492	-200.000	-0.021	-0.096
-627.478	34.494	-0.049	0.044
-626.463	-200.000	-0.014	0.094
-625.449	-200.000	0.037	0.258
-624.434	-122.139	0.252	0.042
-623.419	-200.000	-0.002	-0.202
-622.405	-29.235	-0.227	-0.132
-621.390	-1.902	-0.206	0.147
-620.376	-200.000	-0.021	0.255
-619.361	-200.000	-0.028	-0.172
-618.346	-70.716	0.118	0.045
-617.332	-184.551	0.049	0.001
-616.317	91.227	-0.145	-0.165
-615.303	509.412	-0.100	0.235
-614.288	443.255	0.136	0.303
-613.273	-74.901	0.182	-0.066
-612.259	-49.043	0.115	-0.056
-611.244	-200.000	0.043	-0.282
-610.230	-90.960	-0.347	-0.101
-609.215	-95.446	-0.239	0.065
-608.201	-17.416	-0.151	-0.096
-607.186	-15.573	0.244	-0.158
-606.171	-200.000	0.001	-0.267
-605.157	157.495	0.041	-0.057
-604.142	-200.000	0.038	0.170
-603.128	463.847	0.098	-0.222
-602.113	139.173	-0.151	-0.202
-601.098	206.102	-0.158	-0.249
-600.084	476.900	-0.055	-0.125
-599.069	800.000	0.045	0.154
-598.055	800.000	0.037	-0.149
-597.040	146.556	-0.330	0.449
-596.025	35.735	-0.108	0.096
-595.011	-200.000	-0.010	0.225
-593.996	139.971	-0.295	0.394
-592.982	121.447	-0.155	0.195
-591.967	-73.818	0.152	0.056
-590.952	93.042	-0.096	-0.110
-589.938	-133.325	-0.214	0.027
-588.923	202.288	-0.103	-0.161
-587.909	250.699	-0.166	0.286
-586.894	-25.817	0.252	-0.151
-585.879	123.165	-0.125	0.159
-584.865	289.835	-0.167	-0.307
-583.850	181.507	0.013	-0.020
-582.836	305.512	0.098	-0.184
-581.821	-200.000	-0.072	-0.483
-580.806	-127.670	-0.214	0.031
-579.792	-153.618	0.370	-0.026
-578.777	-17.925	0.251	0.160
-577.763	179.282	0.080	0.119
-576.748	-124.625	-0.514	0.081
-575.733	61.976	0.237	-0.239
-574.719	-15.929	0.090	0.058
-573.704	151.526	0.110	0.152
-572.690	-16.390	-0.181	0.116
-571.675	800.000	0.012	-0.052
-570.661	92.427	0.172	-0.196
-569.646	-25.618	-0.067	0.040
-568.631	104.895	-0.169	-0.202
-567.617	-139.843	0.042	0.005
-566.602	324.374	-0.171	0.330
-565.588	-36.150	-0.249	0.136
-564.573	-200.000	-0.063	0.338
-563.558	195.771	-0.061	0.093
-562.544	222.468	-0.284	-0.463
-561.529	-49.121	-0.263	-0.127
-560.515	-200.000	0.007	-0.112
-559.500	-108.424	0.214	0.047
-558.485	-39.511	-0.107	0.057
-557.471	2.817	0.140	-0.103
-556.456	85.145	-0.150	0.166
-555.442	800.000	0.050	0.210
-554.427	-29.384	0.404	0.234
-553.412	242.482	0.155	-0.262
-552.398	-200.000	-0.060	-0.280
-551.383	118.056	-0.133	0.165
-550.369	-132.476	-0.232	-0.030
-549.354	-200.000	-0.013	0.138
-548.339	8.933	0.133	-0.101
-547.325	-45.186	0.237	-0.119
-546.310	-108.006	-0.260	0.057
-545.296	-200.000	0.011	0.216
-544.281	-16.073	-0.074	0.048
-543.266	176.962	-0.075	0.110
-542.252	32.872	-0.307	0.269
-541.237	-200.000	0.031	0.247
-540.223	-8.158	0.157	-0.107
-539.208	-200.000	0.006	0.064
-538.193	-200.000	0.005	0.081
-537.179	800.000	-0.093	-0.364
-536.164	244.363	0.064	-0.108
-535.150	-200.000	0.016	-0.103
-534.135	-93.545	0.185	0.052
-533.121	-3.549	0.123	-0.087
-532.106	75.957	0.153	-0.163
-531.091	-65.019	-0.216	0.088
-530.077	-200.000	-0.035	-0.268
-529.062	-200.000	-0.000	-0.150
-528.048	800.000	-0.073	-0.292
-527.033	-125.113	0.162	0.025
-526.018	-200.000	0.030	0.247
-525.004	-9.322	0.241	-0.163
-523.989	-92.261	-0.136	0.039
-522.975	-200.000	0.006	-0.089
-521.960	186.744	0.070	-0.106
-520.945	-92.902	0.195	0.055
-519.931	407.645	-0.168	-0.359
-518.916	150.485	0.213	-0.293
-517.902	641.649	0.115	0.296
-516.887	-51.126	-0.037	0.017
-515.872	129.604	0.054	-0.070
-514.858	800.000	0.082	-0.323
-513.843	50.928	0.173	0.166
-512.829	198.412	0.084	0.130
-511.814	233.193	-0.106	-0.176
-510.799	59.334	-0.184	-0.183
-509.785	-24.560	0.165	-0.099
-508.770	14.374	-0.046	-0.037
-507.756	-200.000	-0.012	-0.250
-506.741	235.438	-0.185	-0.309
-505.726	-200.000	0.025	0.127
-504.712	-57.773	-0.179	-0.079
-503.697	73.553	-0.326	0.345
-502.683	800.000	0.022	-0.081
-501.668	-93.080	-0.191	0.054
-500.653	-70.846	-0.339	0.129
-499.639	-166.102	0.275	-0.012
-498.624	132.236	-0.046	-0.059
-497.610	-73.357	-0.170	0.063
-496.595	-92.843	-0.072	-0.020
-495.581	-200.000	0.041	0.376
-494.566	170.574	0.084	-0.121
-493.551	800.000	0.061	0.188
-492.537	86.933	-0.124	-0.138
-491.522	44.280	-0.277	-0.256
-490.508	356.226	0.146	-0.293
-489.493	25.941	0.223	0.188
-488.478	283.246	0.145	0.262
-487.464	-139.017	-0.147	0.016
-486.449	542.957	-0.100	-0.241
-485.435	-200.000	0.061	-0.429
-484.420	47.411	-0.103	0.097
-483.405	90.861	-0.169	-0.191
-482.391	-53.398	-0.082	-0.038
-481.376	-44.264	-0.280	0.141
-480.362	-78.247	0.137	0.047
-479.347	-107.914	-0.041	0.009
-478.332	800.000	0.057	-0.180
-477.318	-200.000	-0.025	-0.310
-476.303	800.000	0.055	0.181
-475.289	77.887	0.148	0.159
-474.274	-17.983	-0.025	-0.016
-473.259	-113.980	-0.123	0.024
-472.245	332.100	0.131	-0.254
-471.230	-200.000	-0.003	0.175
-470.216	139.597	0.089	-0.119
-469.201	264.452	-0.138	0.242
-468.186	480.269	-0.030	0.069
-467.172	-200.000	0.009	-0.382
-466.157	167.525	-0.063	-0.090
-465.143	-162.133	0.233	0.012
-464.128	-24.398	-0.077	0.046
-463.113	229.712	-0.150	-0.247
-462.099	-4.768	-0.128	-0.089
-461.084	102.722	-0.302	0.356
-460.070	-1.964	0.173	-0.123
-459.055	-200.000	-0.002	-0.371
-458.040	194.496	0.156	-0.238
-457.026	158.489	0.122	0.171
-456.011	-44.945	0.114	0.057
-454.997	4.750	0.345	-0.255
-453.982	-0.438	-0.477	-0.341
-452.968	-200.000	-0.014	-0.194
-451.953	-150.108	-0.088	-0.007
-450.938	102.265	0.023	0.027
-449.924	-65.877	-0.210	0.085
-448.909	-200.000	-0.008	0.315
-447.895	800.000	-0.169	0.484
-446.880	44.511	-0.151	0.140
-445.865	-13.464	0.393	0.257
-444.851	437.899	-0.100	-0.220
-443.836	110.980	-0.173	-0.209
-442.822	-57.058	0.130	-0.058
-441.807	-200.000	0.047	-0.233
-440.792	-63.834	0.208	-0.086
-439.778	26.775	-0.234	0.197
-438.763	800.000	-0.064	-0.278
-437.749	132.388	-0.169	-0.220
-436.734	-200.000	0.038	-0.222
-435.719	48.955	0.080	0.076
-434.705	-113.375	0.243	-0.048
-433.690	-75.165	0.173	-0.062
-432.676	3.078	0.066	-0.048
-431.661	344.988	-0.206	0.408
-430.646	800.000	-0.011	-0.041
-429.632	-122.157	-0.222	-0.037
-428.617	-200.000	-0.010	0.108
-427.603	-21.531	0.139	-0.086
-426.588	511.351	-0.072	0.168
-425.573	83.508	-0.163	0.178
-424.559	159.905	-0.149	0.209
-423.544	-30.537	0.100	-0.057
-422.530	800.000	-0.056	0.176
-421.515	-88.546	-0.083	-0.025
-420.500	-26.455	0.228	0.134
-419.486	800.000	0.046	-0.204
-418.471	-200.000	0.002	-0.164
-417.457	38.869	0.367	-0.329
-416.442	109.985	-0.058	0.070
-415.428	25.565	0.302	-0.253
-414.413	171.469	0.141	0.204
-413.398	-0.529	0.189	0.135
-412.384	-200.000	-0.073	0.377
-411.369	-138.222	0.155	0.017
-410.355	-127.063	0.263	0.039
-409.340	-53.612	0.291	0.134
-408.325	791.407	0.073	0.203
-407.311	-149.024	-0.146	0.012
-406.296	-100.184	-0.217	-0.054
-405.282	173.891	0.028	0.041
-404.267	448.016	-0.092	0.204
-403.252	-200.000	-0.014	0.086
-402.238	800.000	0.054	0.162
-401.223	800.000	0.096	0.343
-400.209	800.000	-0.078	0.247
-399.194	-182.932	-0.185	0.003
-398.179	140.277	0.064	0.085
-397.165	-8.092	0.216	0.146
-396.150	333.322	0.083	0.161
-395.136	35.117	0.093	0.082
-394.121	-6.506	-0.173	0.119
-393.106	-1.386	-0.126	0.090
-392.092	-200.000	0.007	0.237
-391.077	55.826	0.183	0.179
-390.063	25.076	-0.065	-0.054
-389.048	145.195	0.177	0.238
-388.033	61.560	0.131	0.131
-387.019	-108.834	0.266	-0.057
-386.004	800.000	-0.127	-0.357
-384.990	705.027	0.059	0.157
-383.975	10.430	0.294	-0.225
-382.960	-68.536	0.262	0.102
-381.946	-79.824	0.312	0.105
-380.931	-30.000	-0.297	-0.170
-379.917	-200.000	0.049	-0.289
-378.902	455.523	0.076	0.169
-377.888	71.795	0.290	-0.303
-376.873	141.713	0.136	0.181
-375.858	275.490	-0.074	0.132
-374.844	112.043	0.027	0.032
-373.829	654.407	0.073	-0.188
-372.815	54.266	0.176	-0.170
-371.800	-39.486	-0.160	-0.084
-370.785	-189.957	-0.150	0.002
-369.771	-16.252	0.160	0.102
-368.756	122.605	-0.099	0.125
-367.742	-54.060	0.223	0.102
-366.727	22.529	-0.367	-0.301
-365.712	800.000	0.047	0.186
-364.698	74.702	-0.048	0.051
-363.683	-104.695	0.211	0.049
-362.669	-200.000	-0.006	0.159
-361.654	204.198	0.183	0.285
-360.639	-200.000	-0.052	0.251
-359.625	230.613	0.134	0.220
-358.610	-90.378	0.365	-0.106
-357.596	800.000	0.121	-0.458
-356.581	800.000	-0.048	0.162
-355.566	-200.000	-0.013	-0.083
-354.552	-35.544	-0.108	-0.059
-353.537	98.186	-0.072	-0.084
-352.523	-200.000	-0.006	-0.120
-351.508	800.000	-0.120	-0.422
-350.493	-200.000	-0.046	-0.346
-349.479	-126.067	-0.368	0.056
-348.464	-19.559	-0.165	-0.103
-347.450	352.802	0.038	0.077
-346.435	179.592	0.161	-0.237
-345.420	-200.000	0.055	0.327
-344.406	68.074	-0.262	0.269
-343.391	-123.586	0.375	0.060
-342.377	62.071	0.228	-0.229
-341.362	1.171	-0.237	0.171
-340.348	-78.130	0.291	0.100
-339.333	-200.000	-0.043	0.336
-338.318	227.118	0.039	-0.064
-337.304	416.635	0.081	-0.173
-336.289	-200.000	-0.021	0.216
-335.275	-150.016	-0.325	0.025
-334.260	785.388	-0.099	0.273
-333.245	-117.721	0.299	0.054
-332.231	-59.214	0.208	0.090
-331.216	69.182	0.186	-0.192
-330.202	-66.226	0.217	0.087
-329.187	800.000	-0.053	-0.150
-328.172	-99.632	-0.285	0.072
-327.158	189.708	0.163	0.246
-326.143	-84.757	0.379	0.120
-325.129	-140.445	-0.205	-0.021
-324.114	-200.000	0.006	0.077
-323.099	-135.335	0.308	0.037
-322.085	48.541	0.213	-0.200
-321.070	62.143	0.094	0.094
-320.056	130.960	0.032	-0.041
-319.041	-99.712	-0.144	-0.036
-318.026	-50.867	0.095	-0.045
-317.012	-57.967	0.254	-0.111
-315.997	-103.999	-0.150	0.035
-314.983	-130.821	0.132	0.018
-313.968	-100.334	0.261	-0.065
-312.953	78.797	-0.204	0.218
-311.939	-200.000	-0.048	-0.215
-310.924	-200.000	-0.016	-0.078
-309.910	-30.589	-0.040	-0.022
-308.895	-200.000	0.026	0.475
-307.880	800.000	0.057	0.240
-306.866	23.464	0.181	0.149
-305.851	-169.970	0.449	0.016
-304.837	6.932	-0.340	-0.253
-303.822	-200.000	-0.010	0.127
-302.807	543.571	0.091	0.218
-301.793	800.000	0.061	-0.266
-300.778	72.523	-0.064	-0.066
-299.764	-139.667	-0.319	-0.034
-298.749	800.000	-0.035	0.109
-297.735	481.950	-0.153	0.347
-296.720	119.291	-0.159	0.197
-295.705	195.822	0.316	-0.481
-294.691	-160.364	0.221	0.012
-293.676	-70.105	0.067	-0.026
-292.662	-6.388	0.062	0.042
-291.647	-200.000	-0.072	0.380
-290.632	-184.680	-0.234	0.004
-289.618	-200.000	-0.065	-0.508
-288.603	22.138	-0.061	0.050
-287.589	213.573	0.062	0.098
-286.574	-200.000	0.047	-0.318
-285.559	-15.165	0.389	-0.249
-284.545	602.700	-0.050	0.125
-283.530	-156.028	-0.144	-0.009
-282.516	146.724	-0.161	0.217
-281.501	-200.000	-0.036	0.220
-280.486	525.716	0.155	0.364
-279.472	449.579	0.051	-0.113
-278.457	800.000	-0.088	0.382
-277.443	-200.000	0.039	-0.233
-276.428	-174.848	0.429	0.012
-275.413	800.000	-0.023	-0.072
-274.399	44.101	-0.179	-0.165
-273.384	80.683	-0.205	0.221
-272.370	-31.011	0.288	0.163
-271.355	96.938	-0.110	0.127
-270.340	152.107	-0.088	-0.120
-269.326	800.000	-0.024	0.104
-268.311	-163.269	-0.460	-0.022
-267.297	-117.069	0.278	-0.051
-266.282	668.625	0.042	0.110
-265.267	429.719	0.059	0.129
-264.253	800.000	-0.094	0.362
-263.238	30.373	-0.148	0.127
-262.224	-82.281	0.265	-0.086
-261.209	393.967	0.076	0.159
-260.195	410.068	0.110	-0.233
-259.180	-200.000	0.033	0.183
-258.165	-200.000	0.048	-0.513
-257.151	91.054	0.304	-0.341
-256.136	-200.000	0.032	-0.296
-255.122	23.464	0.213	-0.175
-254.107	81.221	-0.128	0.138
-253.092	-4.456	-0.164	-0.113
-252.078	-15.079	0.016	-0.010
-251.063	91.209	0.191	0.215
-250.049	-200.000	-0.029	-0.175
-249.034	-11.476	-0.137	-0.090
-248.019	74.387	0.176	0.185
-247.005	-85.757	-0.387	-0.120
-245.990	268.034	0.103	-0.179
-244.976	800.000	-0.032	0.113
-243.961	800.000	-0.136	0.381
-242.946	-200.000	-0.046	0.277
-241.932	-157.835	-0.562	0.033
-240.917	331.505	-0.172	0.331
-239.903	-194.535	-0.291	-0.002
-238.888	-136.136	0.094	0.011
-237.873	29.634	0.149	0.127
-236.859	453.070	-0.083	-0.184
-235.844	-48.364	-0.198	0.095
-234.830	-14.393	0.289	-0.186
-233.815	-200.000	-0.027	-0.367
-232.800	-200.000	0.004	0.088
-231.786	800.000	-0.094	0.354
-230.771	-109.720	-0.388	-0.082
-229.757	31.876	0.158	-0.136
-228.742	-200.000	-0.017	-0.110
-227.727	800.000	0.039	0.166
-226.713	-129.170	-0.165	0.023
-225.698	-61.448	0.181	0.076
-224.684	-200.000	-0.022	0.164
-223.669	148.167	0.246	0.331
-222.655	-129.121	-0.204	0.029
-221.640	51.233	-0.048	0.046
-220.625	-46.922	-0.111	0.054
-219.611	397.959	-0.115	-0.240
-218.596	-200.000	0.039	0.251
-217.582	306.684	0.163	-0.304
-216.567	-200.000	-0.030	-0.152
-215.552	55.056	-0.129	-0.124
-214.538	-71.534	-0.163	-0.061
-213.523	95.597	0.067	-0.077
-212.509	267.684	-0.094	-0.163
-211.494	800.000	-0.158	0.449
-210.479	-45.336	-0.155	-0.077
-209.465	-67.249	-0.349	-0.137
-208.450	-200.000	-0.015	0.097
-207.436	-17.197	-0.116	-0.073
-206.421	114.732	-0.131	0.159
-205.406	-126.407	-0.244	-0.036
-204.392	139.353	0.186	0.244
-203.377	16.161	-0.133	-0.105
-202.363	800.000	0.087	-0.279
-201.348	-62.022	0.254	-0.106
-200.333	-29.775	-0.097	0.055
-199.319	73.230	0.202	-0.211
-198.304	-36.094	0.160	0.086
-197.290	389.890	0.125	-0.259
-196.275	-13.603	0.035	0.023
-195.260	41.398	0.138	0.125
-194.246	-71.168	0.070	-0.026
-193.231	-200.000	0.005	0.307
-192.217	-26.315	-0.309	0.181
-191.202	-115.146	0.348	-0.066
-190.187	160.362	-0.142	0.197
-189.173	-200.000	0.040	0.183
-188.158	-19.055	-0.153	-0.095
-187.144	451.234	-0.206	-0.453
-186.129	-19.926	0.185	-0.114
-185.114	405.350	-0.104	-0.218
-184.100	32.135	-0.045	-0.039
-183.085	800.000	-0.011	0.036
-182.071	-97.129	-0.060	-0.016
-181.056	48.150	-0.149	0.139
-180.042	-106.863	0.232	0.051
-179.027	98.650	0.063	-0.073
-178.012	-40.357	-0.110	-0.057
-176.998	419.569	0.154	-0.328
-175.983	-71.870	0.209	-0.077
-174.969	-80.912	0.344	-0.114
-173.954	-156.714	0.090	-0.006
-172.939	-10.806	0.241	0.159
-171.925	-125.595	0.284	0.043
-170.910	770.077	0.088	-0.239
-169.896	-200.000	-0.070	-0.363
-168.881	-200.000	-0.003	-0.253
-167.866	-200.000	-0.010	-0.147
-166.852	-200.000	-0.015	-0.129
-165.837	6.478	-0.387	0.286
-164.823	-161.351	0.179	0.009
-163.808	800.000	-0.099	0.314
-162.793	-148.901	0.123	-0.010
-161.779	-200.000	0.058	-0.343
-160.764	-200.000	0.025	-0.189
-159.750	-200.000	0.032	0.313
-158.735	76.237	0.095	-0.100
-157.720	194.745	-0.125	0.189
-156.706	40.697	-0.299	-0.268
-155.691	-135.971	0.201	-0.024
-154.677	800.000	-0.116	-0.342
-153.662	51.207	-0.136	0.129
-152.647	-200.000	-0.014	-0.106
-151.633	-200.000	-0.012	0.253
-150.618	-70.118	0.183	0.069
-149.604	-200.000	0.029	0.213
-148.589	273.255	-0.061	0.108
-147.574	-200.000	0.065	-0.290
-146.560	-150.000	-0.364	0.028
-145.545	154.058	0.089	0.121
-144.531	-55.696	0.173	0.077
-143.516	-143.487	0.096	0.009
-142.502	97.747	0.130	0.149
-141.487	24.667	0.210	0.173
-140.472	-185.145	0.407	-0.006
-139.458	-96.554	-0.035	0.009
-138.443	-200.000	0.022	-0.142
-137.429	-95.779	0.288	0.077
-136.414	-69.394	0.152	-0.058
-135.399	-66.386	-0.072	0.029
-134.385	105.889	0.119	-0.140
-133.370	610.817	-0.041	0.102
-132.356	-49.893	-0.215	0.102
-131.341	-88.767	0.165	-0.049
-130.326	-25.672	0.076	0.045
-129.312	-24.266	-0.113	-0.067
-128.297	121.188	-0.112	0.139
-127.283	800.000	0.034	0.146
-126.268	-54.655	-0.289	-0.130
-125.253	-119.415	0.120	0.021
-124.239	114.995	0.158	0.192
-123.224	210.719	0.036	0.057
-122.210	83.505	-0.100	0.109
-121.195	-151.911	0.188	0.014
-120.180	-200.000	0.302	-0.001
-119.166	-41.104	-0.099	-0.051
-118.151	-9.850	0.197	-0.131
-117.137	7.240	0.171	0.127
-116.122	172.397	-0.174	0.248
-115.107	401.780	0.088	-0.184
-114.093	-122.331	0.214	-0.035
-113.078	-114.049	0.197	-0.038
-112.064	800.000	0.151	-0.478
-111.049	-125.283	-0.538	-0.082
-110.034	34.975	-0.031	-0.027
-109.020	-120.029	0.284	0.048
-108.005	-163.031	-0.128	0.006
-106.991	165.215	-0.086	0.121
-105.976	307.048	-0.134	-0.249
-104.962	43.247	-0.293	0.266
-103.947	-170.474	0.228	0.008
-102.932	-200.000	-0.001	0.448
-101.918	-44.670	0.287	-0.142
-100.903	-200.000	0.003	0.284
-99.889	15.429	-0.085	-0.066
-98.874	23.845	0.221	-0.181
-97.859	-125.705	0.357	-0.054
-96.845	-121.280	0.107	0.018
-95.830	800.000	-0.033	-0.138
-94.816	61.106	0.214	0.212
-93.801	800.000	-0.070	0.278
-92.786	8.869	-0.247	-0.185
-91.772	151.396	0.137	0.185
-90.757	-85.371	-0.205	-0.063
-89.743	-62.180	0.039	-0.016
-88.728	800.000	0.075	0.265
-87.713	592.517	0.188	-0.462
-86.699	-82.372	0.193	0.062
-85.684	283.561	-0.115	-0.206
-84.670	41.449	-0.067	-0.060
-83.655	800.000	-0.047	-0.202
-82.640	-118.920	-0.280	0.049
-81.626	-149.220	0.158	-0.013
-80.611	245.853	0.080	0.134
-79.597	273.705	-0.145	-0.255
-78.582	-200.000	0.022	-0.135
-77.567	14.233	0.095	0.074
-76.553	742.762	-0.145	-0.387
-75.538	27.861	-0.045	0.038
-74.524	3.757	-0.127	0.092
-73.509	-200.000	-0.022	-0.129
-72.494	-40.240	-0.375	-0.194
-71.480	125.569	-0.174	-0.218
-70.465	28.565	-0.072	0.060
-69.451	800.000	-0.097	-0.370
-68.436	316.220	-0.059	-0.111
-67.422	-75.879	-0.095	0.033
-66.407	-56.123	0.196	-0.087
-65.392	-141.758	0.098	-0.010
-64.378	-200.000	-0.003	-0.091
-63.363	-122.668	-0.251	-0.040
-62.349	-145.797	0.479	-0.042
-61.334	99.828	-0.706	-0.811
-60.319	-11.889	0.259	0.168
-59.305	-200.000	-0.199	-0.959
-58.290	148.992	0.496	0.665
-57.276	263.830	0.929	1.604
-56.261	-200.000	95.929	577.557
-55.246	653.323	1378.767	3507.815
-54.232	187.730	2590.900	3837.006
-53.217	114.755	2323.207	2809.607
-52.203	42.368	2073.318	1869.597
-51.188	37.242	1985.946	1744.829
-50.173	35.709	1967.396	1714.798
-49.159	50.483	2019.602	1894.181
-48.144	53.505	2039.047	1939.664
-47.130	37.960	1995.638	1759.541
-46.115	35.504	1984.184	1727.311
-45.100	35.427	1981.469	1724.190
-44.086	35.459	1978.373	1721.712
-43.071	35.302	1976.710	1718.794
-42.057	35.293	1974.390	1716.622
-41.042	35.354	1972.326	1715.307
-40.027	35.390	1970.275	1713.782
-39.013	35.401	1968.267	1712.057
-37.998	35.437	1966.290	1710.596
-36.984	35.464	1964.407	1709.130
-35.969	35.425	1963.127	1707.603
-34.954	35.469	1961.219	1706.266
-33.940	35.495	1959.158	1704.636
-32.925	35.523	1957.693	1703.537
-31.911	35.518	1956.113	1702.054
-30.896	35.463	1955.061	1700.581
-29.881	35.524	1953.036	1699.297
-28.867	35.583	1951.625	1698.525
-27.852	35.524	1949.853	1696.386
-26.838	35.540	1947.676	1694.570
-25.823	35.497	1946.253	1692.882
-24.809	35.479	1944.820	1691.412
-23.794	35.455	1942.979	1689.537
-22.779	35.469	1941.173	1688.017
-21.765	35.458	1939.163	1686.110
-20.750	35.498	1937.609	1685.037
-19.736	35.587	1935.700	1684.092
-18.721	35.547	1934.461	1682.596
-17.706	35.468	1933.352	1680.876
-16.692	35.456	1931.612	1679.187
-15.677	35.516	1929.474	1677.790
-14.663	35.530	1927.929	1676.501
-13.648	35.521	1927.175	1675.698
-12.633	35.499	1926.052	1674.467
-11.619	35.542	1924.862	1673.738
-10.604	35.477	1923.260	1671.714
-9.590	35.421	1922.512	1670.511
-8.575	35.432	1920.449	1668.746
-7.560	35.503	1919.066	1668.096
-6.546	35.510	1918.118	1667.264
-5.531	35.490	1916.720	1665.809
-4.517	35.539	1915.215	1664.862
-3.502	35.470	1914.592	1663.657
-2.487	35.499	1913.167	1662.604
-1.473	35.416	1912.920	1661.601
-0.458	35.515	1907.711	1657.867
0.556	35.641	1887.320	1627.781
1.571	30.933	1866.514	1570.140
2.586	26.418	1887.806	1549.335
3.600	25.168	1923.444	1567.523
4.615	24.334	1918.093	1555.751
5.629	18.822	1816.615	1427.648
6.644	9.590	1697.119	1261.629
7.659	5.196	1659.632	1199.939
8.673	4.966	1656.244	1195.618
9.688	4.898	1654.878	1194.008
10.702	4.854	1653.815	1192.800
11.717	4.762	1650.907	1189.889
12.731	5.325	1649.949	1193.393
13.746	11.106	1663.569	1247.542
14.761	18.654	1679.852	1317.825
15.775	20.585	1681.644	1333.939
16.790	19.630	1678.327	1323.874
17.804	18.643	1674.868	1313.479
18.819	17.628	1671.371	1302.866
19.834	16.941	1669.239	1295.843
20.848	16.652	1667.869	1292.455
21.863	16.464	1666.029	1289.482
22.877	16.216	1664.336	1286.163
23.892	15.972	1663.255	1283.356
24.907	15.923	1662.383	1282.200
25.921	15.922	1661.475	1281.374
26.936	15.888	1660.652	1280.368
27.950	15.898	1659.727	1279.623
28.965	15.933	1659.140	1279.320
29.980	15.975	1658.172	1278.779
30.994	16.033	1657.280	1278.417
32.009	16.200	1656.269	1278.789
33.023	16.168	1655.311	1277.697
34.038	16.242	1654.414	1277.453
35.053	16.215	1653.046	1276.077
36.067	16.147	1651.892	1274.562
37.082	16.213	1650.574	1273.925
38.096	16.180	1649.274	1272.563
39.111	16.167	1648.933	1272.088
40.126	16.201	1648.390	1271.811
41.140	16.156	1647.479	1270.660
42.155	16.007	1645.866	1268.182
43.169	15.809	1644.669	1265.659
44.184	15.841	1643.552	1264.930
45.199	15.789	1642.222	1263.404
46.213	15.867	1640.819	1262.796
47.228	15.874	1639.687	1261.862
48.242	15.911	1638.888	1261.412
49.257	16.046	1637.619	1261.338
50.271	15.981	1636.508	1259.885
51.286	15.959	1635.300	1258.675
52.301	15.960	1634.077	1257.630
53.315	15.967	1632.469	1256.336
54.330	16.022	1631.420	1255.828
55.344	15.899	1629.424	1253.265
56.359	15.894	1628.129	1252.118
57.374	15.898	1626.698	1250.940
58.388	15.931	1625.615	1250.242
59.403	15.846	1624.581	1248.703
60.417	15.756	1623.050	1246.752
61.432	15.735	1622.077	1245.739
62.447	15.740	1620.998	1244.838
63.461	15.737	1619.874	1243.837
64.476	15.577	1619.360	1242.148
65.490	15.569	1617.942	1240.893
66.505	15.671	1616.475	1240.416
67.520	15.635	1615.786	1239.510
68.534	15.779	1614.402	1239.401
69.549	15.646	1614.027	1238.023
70.563	15.763	1611.958	1237.188
71.578	15.700	1611.379	1236.172
72.593	15.739	1610.228	1235.462
73.607	15.542	1609.213	1233.125
74.622	15.535	1608.185	1232.177
75.636	15.537	1607.433	1231.508
76.651	15.597	1606.398	1231.044
77.666	15.701	1605.076	1230.687
78.680	15.639	1604.879	1229.974
79.695	15.609	1603.981	1228.958
80.709	15.678	1602.848	1228.484
81.724	15.704	1602.214	1228.081
82.739	15.793	1601.352	1227.961
83.753	15.849	1600.524	1227.624
84.768	15.902	1599.544	1227.150
85.782	15.941	1598.770	1226.729
86.797	16.023	1598.253	1226.825
87.812	16.037	1597.245	1226.042
88.826	16.037	1595.586	1224.659
89.841	15.928	1595.087	1223.376
90.855	16.046	1593.769	1223.118
91.870	16.022	1592.723	1222.028
92.884	16.089	1591.676	1221.602
93.899	16.029	1590.929	1220.489
94.914	16.079	1589.706	1219.800
95.928	16.191	1588.417	1219.516
96.943	16.146	1586.779	1217.827
97.957	16.177	1585.567	1217.012
98.972	16.189	1583.680	1215.542
99.987	16.083	1582.567	1213.816
101.001	16.034	1580.969	1212.134
102.016	16.138	1579.299	1211.492
103.030	16.125	1577.792	1210.134
104.045	16.053	1577.290	1209.126
105.060	16.058	1576.158	1208.190
106.074	15.996	1574.563	1206.412
107.089	15.908	1572.779	1204.310
108.103	15.805	1571.231	1202.283
109.118	15.704	1569.758	1200.329
110.133	15.762	1567.917	1199.231
111.147	15.754	1566.984	1198.349
112.162	15.796	1565.448	1197.370
113.176	15.779	1564.289	1196.258
114.191	15.802	1563.025	1195.349
115.206	15.881	1562.130	1195.118
116.220	15.756	1561.325	1193.513
117.235	15.834	1559.303	1192.410
118.249	15.835	1558.229	1191.493
119.264	15.797	1557.476	1190.541
120.279	15.730	1555.465	1188.426
121.293	15.700	1554.142	1187.097
122.308	15.677	1552.841	1185.838
123.322	15.661	1551.738	1184.779
124.337	15.665	1549.648	1183.102
125.352	15.650	1548.276	1181.845
126.366	15.641	1547.586	1181.155
127.381	15.643	1546.358	1180.124
128.395	15.655	1545.237	1179.251
129.410	15.751	1543.344	1178.372
130.424	15.676	1542.402	1177.025
131.439	15.785	1541.288	1176.833
132.454	15.776	1539.961	1175.652
133.468	15.886	1538.292	1175.039
134.483	15.840	1537.739	1174.193
135.497	15.922	1535.456	1172.917
136.512	15.808	1534.460	1171.259
137.527	15.916	1533.333	1171.047
138.541	15.980	1531.956	1170.338
139.556	15.981	1530.437	1169.078
140.570	15.929	1529.153	1167.632
141.585	16.108	1527.969	1167.868
142.600	16.108	1526.689	1166.785
143.614	16.142	1525.753	1166.205
144.629	16.204	1524.619	1165.660
145.643	16.244	1523.541	1165.011
146.658	16.201	1522.018	1163.446
147.673	16.186	1520.147	1161.808
148.687	16.107	1518.593	1159.976
149.702	16.038	1517.105	1158.263
150.716	16.065	1515.188	1156.882
151.731	15.928	1514.354	1155.205
152.746	16.002	1512.993	1154.567
153.760	15.944	1511.499	1152.931
154.775	16.023	1510.648	1152.720
155.789	16.047	1509.578	1151.961
156.804	16.216	1507.907	1151.738
157.819	16.161	1506.789	1150.407
158.833	16.123	1505.955	1149.413
159.848	16.339	1504.431	1149.619
160.862	16.298	1503.298	1148.372
161.877	16.399	1502.136	1148.070
162.892	16.284	1500.982	1146.305
163.906	16.175	1499.601	1144.410
164.921	15.962	1498.478	1142.008
165.935	16.089	1497.420	1141.961
166.950	16.028	1496.539	1140.775
167.964	16.168	1495.302	1140.678
168.979	16.253	1494.200	1140.306
169.994	16.115	1493.403	1138.667
171.008	16.087	1492.753	1137.882
172.023	16.225	1491.521	1137.776
173.037	16.204	1490.555	1136.792
174.052	16.296	1489.229	1136.305
175.067	16.358	1488.355	1135.951
176.081	16.296	1486.948	1134.359
177.096	16.188	1484.975	1132.033
178.110	16.173	1484.247	1131.272
179.125	16.136	1482.912	1129.912
180.140	16.156	1482.169	1129.378
181.154	16.230	1481.381	1129.175
182.169	16.387	1479.685	1128.828
183.183	16.304	1478.535	1127.300
184.198	16.301	1478.014	1126.780
185.213	16.357	1476.920	1126.222
186.227	16.481	1475.443	1125.818
187.242	16.452	1474.602	1124.885
188.256	16.466	1473.586	1124.106
189.271	16.428	1472.567	1122.978
190.286	16.627	1471.574	1123.440
191.300	16.503	1470.611	1121.782
192.315	16.412	1468.690	1119.613
193.329	16.241	1467.363	1117.372
194.344	16.158	1466.504	1116.071
195.359	16.117	1465.760	1115.132
196.373	16.326	1464.624	1115.549
197.388	16.418	1463.852	1115.475
198.402	16.549	1462.845	1115.468
199.417	16.484	1462.292	1114.519
200.432	16.692	1460.993	1114.799
201.446	16.634	1460.592	1114.018
202.461	16.850	1459.231	1114.302
203.475	16.734	1458.225	1112.670
204.490	16.902	1456.934	1112.692
205.504	16.809	1455.631	1110.987
206.519	16.744	1454.399	1109.523
207.534	16.620	1453.709	1108.087
208.548	16.617	1452.634	1107.151
209.563	16.691	1450.858	1106.180
210.577	16.568	1450.636	1105.111
211.592	16.546	1449.607	1104.087
212.607	16.696	1448.286	1103.962
213.621	16.815	1448.078	1104.481
214.636	16.732	1447.263	1103.220
215.650	16.815	1446.213	1102.861
216.665	16.791	1445.114	1101.768
217.680	16.879	1444.580	1101.838
218.694	16.887	1443.530	1100.988
219.709	16.928	1442.969	1100.728
220.723	16.903	1441.990	1099.722
221.738	16.955	1441.253	1099.402
222.753	16.932	1440.089	1098.269
223.767	16.987	1438.883	1097.605
224.782	16.933	1438.022	1096.503
225.796	16.944	1437.334	1095.952
226.811	17.017	1436.779	1095.905
227.826	17.122	1435.791	1095.729
228.840	17.066	1434.651	1094.406
229.855	16.968	1433.771	1093.006
230.869	16.950	1432.750	1092.011
231.884	16.928	1431.749	1091.014
232.899	16.934	1430.657	1090.125
233.913	16.941	1428.934	1088.759
234.928	16.936	1428.052	1087.955
235.942	16.788	1426.790	1085.952
236.957	16.832	1425.423	1085.097
237.972	16.821	1424.673	1084.358
238.986	16.843	1423.307	1083.365
240.001	16.864	1422.357	1082.681
241.015	16.924	1421.363	1082.211
242.030	17.011	1420.075	1081.688
243.045	16.967	1419.241	1080.678
244.059	16.986	1418.934	1080.469
245.074	16.991	1418.124	1079.790
246.088	17.080	1417.029	1079.424
247.103	17.149	1416.388	1079.281
248.117	17.193	1415.463	1078.758
249.132	17.149	1415.234	1078.208
250.147	17.343	1414.152	1078.519
251.161	17.375	1413.736	1078.306
252.176	17.530	1413.010	1078.639
253.190	17.594	1412.487	1078.552
254.205	17.575	1411.629	1077.680
255.220	17.590	1410.753	1077.014
256.234	17.673	1409.915	1076.802
257.249	17.689	1409.125	1076.205
258.263	17.712	1408.246	1075.582
259.278	17.640	1407.145	1074.194
260.293	17.625	1406.196	1073.277
261.307	17.709	1405.457	1073.151
262.322	17.663	1404.948	1072.377
263.336	17.892	1403.952	1072.962
264.351	17.788	1402.927	1071.431
265.366	17.872	1401.871	1071.053
266.380	17.811	1401.299	1070.138
267.395	17.814	1400.539	1069.487
268.409	17.831	1399.182	1068.457
269.424	17.784	1398.107	1067.249
270.439	17.783	1396.441	1065.878
271.453	17.731	1395.771	1064.947
272.468	17.679	1395.641	1064.428
273.482	17.761	1394.492	1063.967
274.497	17.641	1393.444	1062.328
275.512	17.604	1393.232	1061.840
276.526	17.634	1392.211	1061.156
277.541	17.669	1391.340	1060.617
278.555	17.787	1390.335	1060.488
279.570	17.764	1389.090	1059.306
280.585	17.784	1388.247	1058.693
281.599	17.808	1387.738	1058.358
282.614	18.035	1386.403	1058.656
283.628	17.875	1385.316	1056.741
284.643	17.826	1384.409	1055.649
285.657	17.792	1383.499	1054.653
286.672	17.821	1382.099	1053.675
287.687	17.831	1381.364	1053.080
288.701	17.885	1380.201	1052.432
289.716	17.942	1379.732	1052.333
290.730	17.831	1379.080	1051.057
291.745	17.939	1377.740	1050.607
292.760	17.895	1377.260	1049.878
293.774	17.953	1375.927	1049.128
294.789	18.065	1374.557	1048.679
295.803	18.066	1374.050	1048.203
296.818	18.064	1373.558	1047.724
297.833	17.968	1372.785	1046.454
298.847	18.027	1371.434	1045.694
299.862	17.952	1370.808	1044.664
300.876	17.952	1369.979	1043.939
301.891	18.021	1368.675	1043.274
302.906	18.073	1367.960	1042.956
303.920	18.150	1367.353	1042.871
304.935	18.113	1367.308	1042.518
305.949	18.240	1366.002	1042.202
306.964	18.313	1365.219	1041.958
307.979	18.276	1364.083	1040.771
308.993	18.267	1363.076	1039.856
310.008	18.289	1362.057	1039.123
311.022	18.319	1361.154	1038.526
312.037	18.400	1360.219	1038.207
313.052	18.378	1359.386	1037.349
314.066	18.323	1358.147	1035.980
315.081	18.260	1357.216	1034.796
316.095	18.205	1355.982	1033.432
317.110	18.173	1354.834	1032.273
318.125	18.084	1354.194	1031.155
319.139	18.190	1353.062	1030.840
320.154	18.096	1352.226	1029.547
321.168	18.104	1351.299	1028.800
322.183	18.112	1350.209	1027.923
323.197	18.267	1349.084	1027.908
324.212	18.203	1348.267	1026.811
325.227	18.275	1347.528	1026.588
326.241	18.299	1346.846	1026.120
327.256	18.288	1345.846	1025.203
328.270	18.269	1345.374	1024.642
329.285	18.242	1344.396	1023.644
330.300	18.318	1343.053	1022.984
331.314	18.358	1342.436	1022.663
332.329	18.282	1341.497	1021.401
333.343	18.216	1340.664	1020.284
334.358	18.365	1339.790	1020.415
335.373	18.368	1339.507	1020.128
336.387	18.487	1338.421	1019.919
337.402	18.486	1337.747	1019.312
338.416	18.492	1337.355	1018.959
339.431	18.511	1336.321	1018.195
340.446	18.546	1335.677	1017.817
341.460	18.626	1334.485	1017.297
342.475	18.724	1333.767	1017.236
343.489	18.714	1333.167	1016.632
344.504	18.753	1332.211	1016.044
345.519	18.792	1331.302	1015.488
346.533	18.874	1330.458	1015.244
347.548	18.891	1329.568	1014.575
348.562	18.883	1328.553	1013.660
349.577	18.969	1328.004	1013.660
350.592	18.932	1326.969	1012.565
351.606	18.791	1325.941	1010.857
352.621	18.683	1324.749	1009.223
353.635	18.691	1323.943	1008.570
354.650	18.717	1322.690	1007.675
355.665	18.692	1322.086	1006.983
356.679	18.679	1321.158	1006.108
357.694	18.776	1319.874	1005.609
358.708	18.747	1319.171	1004.818
359.723	18.799	1318.225	1004.308
360.738	18.867	1317.015	1003.699
361.752	18.895	1315.787	1002.837
362.767	18.891	1314.574	1001.797
363.781	18.847	1314.307	1001.251
364.796	18.827	1313.553	1000.472
365.810	18.976	1312.663	1000.575
366.825	19.004	1312.022	1000.156
367.840	19.051	1311.738	1000.124
368.854	19.112	1310.554	999.489
369.869	19.294	1309.911	999.969
370.883	19.294	1309.364	999.459
371.898	19.172	1308.924	998.329
372.913	19.062	1308.250	997.086
373.927	19.078	1307.070	996.197
374.942	19.232	1305.903	996.105
375.956	19.189	1305.331	995.336
376.971	19.196	1304.542	994.683
377.986	19.175	1303.885	993.976
379.000	19.157	1303.152	993.226
380.015	19.267	1302.424	993.213
381.029	19.269	1301.774	992.644
382.044	19.406	1300.949	992.713
383.059	19.465	1299.895	992.163
384.073	19.452	1299.202	991.472
385.088	19.344	1298.960	990.580
386.102	19.382	1298.337	990.231
387.117	19.420	1297.607	989.806
388.132	19.454	1296.711	989.228
389.146	19.374	1295.156	987.500
390.161	19.241	1294.811	986.384
391.175	19.324	1293.750	985.969
392.190	19.335	1293.087	985.435
393.205	19.401	1292.435	985.228
394.219	19.519	1291.539	985.132
395.234	19.625	1290.189	984.622
396.248	19.502	1288.442	982.501
397.263	19.277	1287.642	980.522
398.278	19.372	1286.062	979.775
399.292	19.467	1285.234	979.594
400.307	19.274	1284.114	977.561
401.321	19.284	1282.935	976.630
402.336	19.286	1281.803	975.697
403.350	19.282	1281.269	975.178
404.365	19.300	1280.252	974.424
405.380	19.398	1279.190	974.079
406.394	19.368	1278.585	973.365
407.409	19.351	1278.162	972.860
408.423	19.500	1277.470	973.087
409.438	19.683	1276.045	972.947
410.453	19.742	1275.621	972.868
411.467	19.720	1275.270	972.392
412.482	19.697	1274.667	971.714
413.496	19.753	1274.335	971.693
414.511	19.821	1273.297	971.194
415.526	19.833	1272.471	970.549
416.540	19.854	1271.947	970.178
417.555	19.971	1270.943	969.985
418.569	20.014	1270.366	969.697
419.584	19.934	1270.055	968.926
420.599	19.889	1269.217	967.951
421.613	141.061	1429.772	1789.296
422.628	135.580	1453.150	1789.411
