DTS Sentinel unit serial number:	SN413079Multiplexer serial number:	ORYXHardware model number:	OX4-SRSoftware version number:	ORYX F/W v4.00 Oryx Data Collector v3.7.2.0data status	okinstallation	princeton_trtdifferential loss correction	single-endedforward channel	channel 4reverse channel	N/Adate	2019/09/18time	20:49:35forward acquisition time	60.00reverse acquisition time	0.00gamma	496.2192k internal	0.2327k external	0.2327temperature offset calibration	1.0037default loss term (dB/km)	0.3790temperature slope calibration	1.0000multiplexer offset coefficient	1.0000multiplexer slope coefficient	1.0000fibre end	0.00T internal ref (°C)	27.12T ext. ref 1 (°C)	0.95T ext. ref 2 (°C)	18.45length (m)	temperature (°C)	Stokes	anti-Stokes-747.200	98.116	0.144	-0.167
-746.185	-96.110	-0.172	0.046
-745.171	-200.000	0.022	0.298
-744.156	-145.303	-0.058	0.005
-743.142	-95.338	-0.175	-0.047
-742.127	251.417	-0.172	0.296
-741.112	624.040	-0.114	0.289
-740.098	-81.904	-0.183	0.060
-739.083	-39.408	-0.070	-0.037
-738.069	800.000	0.032	0.098
-737.054	311.516	0.066	-0.125
-736.039	-64.924	-0.318	-0.130
-735.025	-82.670	0.262	-0.085
-734.010	33.655	-0.264	-0.231
-732.996	-200.000	0.016	-0.177
-731.981	-59.989	-0.148	0.064
-730.966	36.910	0.060	-0.053
-729.952	263.911	0.065	0.113
-728.937	-69.356	-0.378	0.146
-727.923	-91.350	0.102	-0.029
-726.908	-159.197	-0.074	-0.004
-725.894	800.000	0.063	0.229
-724.879	134.223	0.069	-0.090
-723.864	142.503	0.042	-0.056
-722.850	-178.633	0.368	-0.009
-721.835	-78.926	-0.278	0.095
-720.821	-200.000	-0.028	0.226
-719.806	-143.144	-0.059	-0.006
-718.791	-44.673	0.266	-0.134
-717.777	110.851	-0.210	0.255
-716.762	-146.556	-0.202	-0.018
-715.748	-78.637	-0.288	0.099
-714.733	-127.438	0.244	-0.036
-713.718	-39.624	-0.374	-0.197
-712.704	-200.000	0.038	-0.174
-711.689	800.000	0.136	0.406
-710.675	39.848	-0.433	-0.391
-709.660	-47.929	0.292	-0.142
-708.645	-88.176	0.197	0.059
-707.631	8.122	0.179	-0.135
-706.616	-31.855	-0.137	0.077
-705.602	-200.000	-0.003	-0.036
-704.587	-36.616	-0.235	0.127
-703.572	68.028	0.042	-0.043
-702.558	-78.441	-0.622	-0.215
-701.543	156.750	-0.060	-0.083
-700.529	-122.514	0.114	-0.019
-699.514	661.883	-0.108	-0.280
-698.499	-200.000	-0.001	-0.066
-697.485	106.299	-0.208	-0.248
-696.470	-22.671	-0.235	-0.143
-695.456	-123.133	0.215	-0.035
-694.441	-200.000	0.002	-0.099
-693.426	-54.023	0.315	0.144
-692.412	800.000	0.012	0.044
-691.397	-8.123	-0.079	0.053
-690.383	-59.566	-0.139	0.060
-689.368	-24.836	0.069	0.041
-688.354	-200.000	-0.015	-0.359
-687.339	-26.132	0.088	-0.052
-686.324	-200.000	0.040	0.227
-685.310	289.885	0.078	0.143
-684.295	28.687	0.250	-0.213
-683.281	-136.870	-0.375	-0.043
-682.266	-155.639	0.050	0.003
-681.251	-200.000	0.065	-0.636
-680.237	800.000	0.077	0.217
-679.222	-171.707	0.257	-0.009
-678.208	800.000	-0.061	-0.196
-677.193	-102.246	0.193	0.047
-676.178	97.448	0.036	0.042
-675.164	-124.655	-0.210	-0.033
-674.149	-200.000	-0.087	0.501
-673.135	-200.000	-0.009	0.112
-672.120	-73.518	0.303	-0.111
-671.105	111.729	-0.204	-0.247
-670.091	-163.244	-0.331	-0.016
-669.076	31.974	0.066	-0.057
-668.062	-100.669	0.306	0.076
-667.047	20.351	0.058	0.047
-666.032	800.000	-0.042	0.122
-665.018	-200.000	-0.021	0.108
-664.003	308.846	0.153	0.288
-662.989	-53.821	0.207	-0.095
-661.974	530.524	-0.081	0.193
-660.959	134.188	-0.049	0.064
-659.945	-14.014	-0.224	0.145
-658.930	800.000	-0.052	0.146
-657.916	800.000	-0.064	-0.185
-656.901	-23.799	-0.263	-0.159
-655.886	-153.498	-0.150	-0.010
-654.872	773.088	-0.086	-0.236
-653.857	54.197	-0.087	-0.084
-652.843	-88.252	-0.134	-0.040
-651.828	800.000	-0.059	0.177
-650.814	74.461	0.119	0.126
-649.799	-83.450	0.240	-0.077
-648.784	293.308	-0.090	0.165
-647.770	306.849	-0.088	-0.164
-646.755	325.793	0.183	-0.351
-645.741	-109.383	-0.504	-0.107
-644.726	-21.187	-0.186	-0.114
-643.711	55.241	0.327	-0.317
-642.697	13.727	-0.047	0.037
-641.682	-13.270	0.179	-0.116
-640.668	-16.374	-0.156	-0.099
-639.653	-21.820	-0.182	0.111
-638.638	204.341	0.124	0.194
-637.624	-200.000	-0.053	-0.249
-636.609	39.495	0.104	0.093
-635.595	20.564	-0.174	0.141
-634.580	257.238	-0.133	-0.229
-633.565	-56.272	0.236	-0.105
-632.551	-200.000	-0.037	-0.258
-631.536	-177.945	-0.165	0.004
-630.522	-57.460	0.073	-0.032
-629.507	281.398	-0.183	-0.329
-628.492	-112.098	0.203	0.041
-627.478	-128.357	0.574	-0.082
-626.463	3.304	-0.299	-0.218
-625.449	85.020	-0.017	0.019
-624.434	117.662	-0.215	-0.265
-623.419	-37.683	0.076	0.040
-622.405	132.822	-0.205	-0.266
-621.390	626.069	-0.090	-0.227
-620.376	-200.000	-0.003	0.335
-619.361	-34.258	-0.186	0.103
-618.346	800.000	-0.090	-0.389
-617.332	-170.022	0.007	0.000
-616.317	185.616	0.128	0.191
-615.303	28.465	-0.216	0.183
-614.288	426.110	0.146	0.316
-613.273	800.000	-0.061	0.193
-612.259	-4.295	0.070	0.048
-611.244	-96.722	-0.068	-0.018
-610.230	-108.413	0.206	0.044
-609.215	-139.976	0.341	-0.036
-608.201	55.947	0.202	0.197
-607.186	71.220	-0.170	0.177
-606.171	-151.275	-0.328	0.025
-605.157	28.969	0.287	0.244
-604.142	56.559	-0.250	0.244
-603.128	-114.260	-0.228	0.044
-602.113	496.969	0.078	-0.181
-601.098	-91.233	-0.367	0.105
-600.084	-55.772	-0.308	0.138
-599.069	-66.518	0.262	-0.104
-598.055	4.203	0.052	-0.038
-597.040	-87.510	-0.164	0.050
-596.025	4.738	0.141	-0.103
-595.011	-44.895	-0.156	-0.078
-593.996	-46.920	0.220	-0.108
-592.982	-51.826	-0.263	0.123
-591.967	94.831	-0.244	0.278
-590.952	-165.694	0.170	0.007
-589.938	-143.307	-0.447	0.043
-588.923	6.456	-0.073	-0.055
-587.909	201.176	-0.077	-0.119
-586.894	156.140	0.132	0.182
-585.879	-27.999	-0.313	0.181
-584.865	800.000	-0.035	-0.111
-583.850	529.458	0.146	-0.345
-582.836	12.779	-0.231	0.179
-581.821	-76.783	0.319	-0.112
-580.806	90.633	0.166	-0.186
-579.792	-200.000	0.021	-0.124
-578.777	-156.659	-0.116	-0.007
-577.763	7.431	-0.268	0.201
-576.748	-200.000	0.003	-0.090
-575.733	-200.000	0.032	-0.378
-574.719	427.461	0.037	0.080
-573.704	-132.171	0.167	0.022
-572.690	-2.900	-0.083	0.058
-571.675	759.984	0.028	-0.075
-570.661	-200.000	-0.028	-0.377
-569.646	229.846	0.102	-0.166
-568.631	4.883	-0.131	-0.096
-567.617	-18.166	0.365	0.229
-566.602	800.000	0.057	-0.189
-565.588	89.473	0.106	-0.119
-564.573	-200.000	0.015	-0.260
-563.558	1.862	-0.206	0.149
-562.544	-67.951	0.379	-0.148
-561.529	-65.985	-0.143	-0.057
-560.515	372.569	0.050	0.101
-559.500	160.041	-0.122	0.171
-558.485	-200.000	-0.001	0.085
-557.471	-12.118	0.075	0.049
-556.456	-139.797	-0.175	-0.019
-555.442	-200.000	-0.028	-0.249
-554.427	577.568	0.076	-0.185
-553.412	-135.957	-0.008	-0.001
-552.398	-25.939	-0.349	0.205
-551.383	-92.039	-0.109	0.031
-550.369	-200.000	0.091	-0.547
-549.354	-0.531	-0.134	0.095
-548.339	-137.278	0.248	-0.028
-547.325	136.353	0.028	0.036
-546.310	-69.936	-0.104	0.040
-545.296	-54.391	-0.327	0.149
-544.281	179.332	0.187	0.274
-543.266	381.636	-0.143	0.294
-542.252	189.085	-0.122	0.182
-541.237	-49.489	-0.066	0.031
-540.223	-106.422	-0.125	0.028
-539.208	-200.000	-0.006	-0.072
-538.193	-200.000	-0.001	-0.019
-537.179	165.052	-0.138	0.195
-536.164	-200.000	-0.020	-0.215
-535.150	-30.795	0.382	-0.216
-534.135	-44.594	-0.378	0.189
-533.121	206.918	0.073	0.113
-532.106	-171.668	-0.363	0.012
-531.091	-51.427	0.382	-0.178
-530.077	54.872	0.161	-0.155
-529.062	75.025	-0.308	0.324
-528.048	-117.382	-0.188	0.034
-527.033	800.000	-0.059	0.244
-526.018	-90.585	0.309	0.089
-525.004	756.797	-0.080	0.217
-523.989	-128.404	0.159	-0.023
-522.975	-48.082	0.058	0.028
-521.960	-130.139	0.325	0.044
-520.945	338.916	-0.053	-0.104
-519.931	-74.304	-0.311	0.112
-518.916	-63.924	0.148	0.061
-517.902	448.770	-0.037	-0.082
-516.887	210.605	-0.104	0.163
-515.872	-59.585	-0.116	0.050
-514.858	210.113	-0.052	-0.082
-513.843	-123.001	0.191	-0.031
-512.829	-126.609	0.214	-0.032
-511.814	-52.051	-0.150	0.069
-510.799	-200.000	0.050	0.236
-509.785	-123.773	-0.133	0.021
-508.770	250.343	0.137	0.233
-507.756	800.000	0.051	0.157
-506.741	800.000	0.080	-0.300
-505.726	667.579	0.091	0.236
-504.712	-200.000	-0.117	0.583
-503.697	-103.310	0.061	-0.014
-502.683	800.000	0.031	-0.091
-501.668	-125.982	0.229	0.034
-500.653	0.871	-0.250	-0.179
-499.639	51.946	0.314	-0.298
-498.624	-133.192	-0.024	0.003
-497.610	-81.563	-0.240	0.079
-496.595	-22.180	-0.207	0.126
-495.581	351.294	0.050	-0.098
-494.566	-99.422	0.080	0.020
-493.551	133.012	-0.078	-0.100
-492.537	-120.706	-0.291	-0.049
-491.522	-59.902	-0.138	-0.059
-490.508	143.789	0.040	-0.053
-489.493	-78.616	-0.220	0.075
-488.478	-7.487	-0.105	0.071
-487.464	129.381	0.109	-0.139
-486.449	800.000	-0.069	-0.193
-485.435	-75.462	0.247	-0.088
-484.420	-69.878	-0.258	0.098
-483.405	126.743	-0.271	-0.343
-482.391	-24.314	-0.163	-0.097
-481.376	-200.000	-0.013	-0.078
-480.362	-62.368	0.083	-0.035
-479.347	-200.000	0.053	0.245
-478.332	-200.000	0.001	0.015
-477.318	409.539	0.097	-0.205
-476.303	800.000	0.084	-0.356
-475.289	722.015	-0.037	-0.097
-474.274	-145.868	0.361	0.032
-473.259	142.064	-0.164	-0.217
-472.245	-48.498	0.235	-0.113
-471.230	-104.255	-0.061	0.014
-470.216	-200.000	-0.038	0.232
-469.201	-52.275	0.382	-0.176
-468.186	-63.538	-0.390	0.160
-467.172	535.160	0.015	-0.037
-466.157	-97.772	0.153	0.040
-465.143	635.746	-0.111	-0.280
-464.128	218.020	0.200	-0.318
-463.113	-118.630	-0.192	0.034
-462.099	-80.993	-0.162	0.054
-461.084	-59.998	0.199	0.085
-460.070	-115.341	0.259	-0.049
-459.055	-18.565	0.149	0.093
-458.040	800.000	-0.111	-0.383
-457.026	467.720	0.145	-0.325
-456.011	103.439	-0.215	-0.251
-454.997	-38.104	-0.084	-0.045
-453.982	-39.451	0.263	0.137
-452.968	800.000	-0.098	-0.304
-451.953	-10.779	0.120	-0.079
-450.938	-200.000	-0.033	0.353
-449.924	658.755	0.110	-0.281
-448.909	437.550	-0.066	-0.143
-447.895	87.363	0.133	-0.146
-446.880	-200.000	0.096	-0.543
-445.865	-200.000	0.031	-0.149
-444.851	-156.703	0.297	-0.018
-443.836	75.021	0.107	0.112
-442.822	-200.000	-0.004	-0.133
-441.807	184.494	-0.116	0.171
-440.792	588.443	0.004	0.010
-439.778	-124.687	-0.074	0.011
-438.763	-200.000	-0.023	-0.361
-437.749	-5.518	-0.076	0.052
-436.734	-43.820	0.332	-0.167
-435.719	-42.735	-0.217	0.110
-434.705	-166.272	0.059	0.002
-433.690	219.227	0.134	0.214
-432.676	30.534	0.148	-0.126
-431.661	-79.238	-0.341	0.115
-430.646	27.789	0.273	0.229
-429.632	-200.000	0.016	0.173
-428.617	358.522	-0.086	-0.171
-427.603	-200.000	-0.036	0.230
-426.588	-200.000	-0.010	-0.155
-425.573	370.582	-0.104	-0.210
-424.559	-200.000	0.065	0.298
-423.544	233.649	-0.117	0.191
-422.530	-30.605	-0.228	-0.128
-421.515	21.293	0.162	0.131
-420.500	-120.119	0.191	0.033
-419.486	-200.000	0.023	-0.236
-418.471	-200.000	0.021	-0.113
-417.457	-123.442	0.129	0.020
-416.442	800.000	0.029	-0.101
-415.428	-126.124	-0.076	0.011
-414.413	-92.115	0.321	0.090
-413.398	1.747	-0.267	0.192
-412.384	-104.908	0.128	0.029
-411.369	-73.191	-0.147	-0.053
-410.355	164.011	-0.098	0.137
-409.340	36.813	-0.239	-0.210
-408.325	-115.477	0.194	-0.036
-407.311	-35.572	-0.145	0.078
-406.296	-200.000	0.004	0.269
-405.282	-53.566	-0.247	0.112
-404.267	733.640	-0.035	-0.093
-403.252	32.602	-0.098	-0.084
-402.238	-40.937	0.204	-0.105
-401.223	230.884	0.132	-0.216
-400.209	-160.629	-0.125	0.007
-399.194	435.720	-0.045	0.096
-398.179	-134.311	0.153	0.019
-397.165	126.688	0.167	0.210
-396.150	-200.000	-0.025	0.326
-395.136	-200.000	-0.012	-0.346
-394.121	30.348	-0.135	-0.114
-393.106	35.845	-0.103	0.091
-392.092	800.000	0.080	0.254
-391.077	71.750	0.179	-0.185
-390.063	404.624	-0.070	-0.146
-389.048	-5.220	-0.255	-0.174
-388.033	-141.733	0.059	-0.006
-387.019	166.206	0.170	-0.239
-386.004	-85.480	-0.437	-0.135
-384.990	-10.839	-0.196	-0.129
-383.975	800.000	-0.141	-0.419
-382.960	-200.000	0.052	0.242
-381.946	-95.263	-0.121	-0.032
-380.931	-36.887	0.134	-0.071
-379.917	-15.379	0.199	-0.126
-378.902	22.524	0.165	0.134
-377.888	24.422	-0.274	-0.225
-376.873	23.929	0.095	-0.078
-375.858	5.808	0.185	0.136
-374.844	235.578	0.211	0.347
-373.829	232.508	-0.086	-0.140
-372.815	75.112	0.019	0.020
-371.800	-109.923	0.278	0.058
-370.785	-200.000	0.009	-0.078
-369.771	-148.346	-0.201	0.016
-368.756	800.000	0.194	0.560
-367.742	130.059	-0.167	0.212
-366.727	-72.458	0.314	0.115
-365.712	42.926	-0.183	-0.166
-364.698	-200.000	0.021	-0.385
-363.683	-200.000	0.001	-0.044
-362.669	-200.000	-0.028	-0.151
-361.654	53.126	0.277	0.264
-360.639	-200.000	-0.017	-0.095
-359.625	235.713	0.100	0.165
-358.610	-1.079	0.076	0.053
-357.596	-23.791	-0.107	-0.064
-356.581	518.583	0.080	-0.186
-355.566	128.813	-0.080	0.101
-354.552	194.953	-0.245	0.369
-353.537	81.642	-0.127	0.137
-352.523	-63.766	-0.297	0.121
-351.508	800.000	-0.128	0.397
-350.493	-200.000	0.033	-0.363
-349.479	-164.492	0.198	-0.009
-348.464	296.245	-0.133	0.242
-347.450	-200.000	-0.000	0.008
-346.435	2.536	-0.243	-0.175
-345.420	-171.800	0.245	0.008
-344.406	-141.037	0.290	0.029
-343.391	195.772	-0.057	-0.086
-342.377	-181.961	0.195	0.004
-341.362	-130.803	0.181	-0.024
-340.348	-78.521	-0.187	0.064
-339.333	152.295	0.179	0.242
-338.318	-111.759	0.481	-0.097
-337.304	-200.000	-0.001	-0.114
-336.289	149.162	-0.192	-0.258
-335.275	179.140	0.043	0.062
-334.260	503.718	-0.130	0.298
-333.245	743.520	-0.167	0.445
-332.231	626.268	-0.112	-0.280
-331.216	-200.000	0.026	0.124
-330.202	-76.378	0.188	-0.066
-329.187	800.000	0.069	-0.232
-328.172	-33.088	0.154	0.085
-327.158	-159.587	-0.183	0.010
-326.143	70.560	0.123	-0.127
-325.129	116.500	0.151	-0.183
-324.114	-93.056	-0.050	0.014
-323.099	217.515	0.032	0.051
-322.085	302.828	-0.078	0.142
-321.070	543.690	-0.078	0.186
-320.056	-127.053	-0.231	0.034
-319.041	403.021	0.114	-0.239
-318.026	-106.894	0.140	0.031
-317.012	800.000	-0.046	0.191
-315.997	800.000	0.055	0.157
-314.983	800.000	-0.054	0.193
-313.968	298.383	0.090	0.163
-312.953	51.157	-0.091	-0.086
-311.939	-200.000	0.017	0.293
-310.924	-200.000	-0.034	-0.273
-309.910	800.000	0.097	-0.342
-308.895	-24.742	0.353	-0.208
-307.880	800.000	-0.059	0.207
-306.866	205.508	0.123	-0.189
-305.851	800.000	-0.111	-0.356
-304.837	-126.162	0.203	0.030
-303.822	74.557	-0.282	-0.294
-302.807	-200.000	0.004	-0.145
-301.793	-46.607	0.256	-0.124
-300.778	800.000	0.020	0.058
-299.764	-66.635	-0.277	0.109
-298.749	526.300	0.138	-0.323
-297.735	800.000	-0.135	0.561
-296.720	746.021	0.042	-0.111
-295.705	27.794	-0.148	0.123
-294.691	240.242	-0.125	0.206
-293.676	-200.000	-0.036	0.167
-292.662	70.990	-0.196	0.201
-291.647	-56.237	-0.246	0.108
-290.632	800.000	-0.063	-0.232
-289.618	28.260	0.272	-0.227
-288.603	-161.906	-0.374	-0.019
-287.589	-29.851	0.062	-0.035
-286.574	255.385	0.102	0.173
-285.559	5.824	-0.134	0.098
-284.545	105.095	-0.072	-0.084
-283.530	-154.979	0.062	-0.004
-282.516	-149.057	-0.275	0.022
-281.501	97.497	0.143	-0.163
-280.486	-51.088	0.276	0.128
-279.472	339.684	-0.131	0.254
-278.457	-71.012	0.307	0.114
-277.443	-164.809	0.273	0.012
-276.428	-165.691	-0.088	-0.004
-275.413	-173.376	0.352	-0.011
-274.399	-200.000	-0.096	0.438
-273.384	-200.000	0.020	-0.216
-272.370	470.972	-0.184	-0.409
-271.355	-112.001	-0.047	-0.009
-270.340	181.172	-0.212	0.308
-269.326	117.004	-0.193	0.234
-268.311	287.618	0.103	-0.184
-267.297	-108.546	-0.149	-0.032
-266.282	-83.702	0.233	0.074
-265.267	69.393	0.153	0.156
-264.253	14.271	0.038	-0.029
-263.238	-110.779	0.289	-0.059
-262.224	-20.494	-0.095	-0.058
-261.209	-133.901	0.464	0.057
-260.195	441.602	0.129	0.279
-259.180	567.905	0.043	-0.103
-258.165	-89.190	0.171	-0.050
-257.151	235.723	-0.150	-0.245
-256.136	-68.454	0.058	-0.022
-255.122	464.118	0.027	-0.059
-254.107	800.000	0.060	0.209
-253.092	-200.000	0.013	0.116
-252.078	-67.376	-0.158	0.061
-251.063	-200.000	-0.003	-0.340
-250.049	-103.203	0.170	0.040
-249.034	-61.250	-0.091	0.038
-248.019	-200.000	-0.009	-0.113
-247.005	378.613	-0.078	0.158
-245.990	751.968	-0.050	0.134
-244.976	115.758	0.034	-0.041
-243.961	-200.000	0.014	0.212
-242.946	435.087	-0.084	0.180
-241.932	599.880	-0.155	0.380
-240.917	71.693	0.427	-0.439
-239.903	-91.777	-0.061	0.017
-238.888	-200.000	-0.053	0.313
-237.873	800.000	-0.068	0.218
-236.859	6.695	-0.385	-0.283
-235.844	184.432	0.136	-0.199
-234.830	123.048	0.045	0.056
-233.815	90.462	0.293	0.324
-232.800	204.247	-0.123	-0.188
-231.786	800.000	-0.052	-0.155
-230.771	-200.000	0.005	0.149
-229.757	80.351	0.062	0.066
-228.742	29.452	0.149	-0.125
-227.727	-125.323	-0.108	-0.016
-226.713	96.222	0.208	-0.235
-225.698	15.554	-0.233	0.181
-224.684	-139.786	0.187	0.020
-223.669	-1.929	0.187	0.130
-222.655	-17.946	-0.097	-0.060
-221.640	-173.978	-0.135	-0.004
-220.625	-137.374	0.249	0.028
-219.611	104.242	0.092	0.107
-218.596	24.594	-0.054	-0.044
-217.582	124.930	-0.283	-0.352
-216.567	-192.458	-0.189	0.002
-215.552	39.250	0.481	0.425
-214.538	136.188	0.113	-0.146
-213.523	-200.000	-0.053	0.265
-212.509	-200.000	-0.042	-0.267
-211.494	208.740	-0.057	0.089
-210.479	-200.000	0.026	-0.316
-209.465	-200.000	0.022	0.178
-208.450	-200.000	-0.009	-0.104
-207.436	-200.000	0.006	0.514
-206.421	132.058	-0.145	0.185
-205.406	-89.811	0.181	0.052
-204.392	239.591	0.143	0.235
-203.377	533.089	-0.104	0.244
-202.363	235.162	0.205	0.334
-201.348	62.762	0.033	-0.032
-200.333	536.255	0.158	-0.370
-199.319	-56.000	-0.331	0.146
-198.304	-6.556	-0.255	0.171
-197.290	14.609	0.210	0.162
-196.275	-72.982	0.285	0.103
-195.260	-152.916	-0.169	-0.012
-194.246	-89.508	0.317	-0.092
-193.231	800.000	-0.128	0.381
-192.217	275.852	0.146	0.255
-191.202	-140.191	0.235	0.024
-190.187	155.073	-0.122	-0.166
-189.173	119.346	-0.176	-0.215
-188.158	-163.991	0.166	-0.008
-187.144	-182.099	-0.277	0.005
-186.129	-183.741	0.170	-0.003
-185.114	564.582	-0.125	-0.298
-184.100	-200.000	0.060	0.393
-183.085	-184.633	-0.025	0.000
-182.071	-66.363	-0.303	-0.119
-181.056	98.564	0.029	-0.033
-180.042	-8.561	0.096	0.064
-179.027	39.930	0.220	-0.195
-178.012	800.000	0.060	0.187
-176.998	103.016	-0.060	0.069
-175.983	3.522	-0.179	0.129
-174.969	-19.934	-0.030	0.018
-173.954	800.000	-0.047	0.167
-172.939	204.229	0.187	0.286
-171.925	-88.936	0.222	-0.065
-170.910	247.660	-0.142	0.237
-169.896	113.285	0.115	-0.137
-168.881	638.025	0.108	-0.270
-167.866	-99.914	-0.160	-0.039
-166.852	-200.000	-0.045	0.201
-165.837	-200.000	-0.033	-0.372
-164.823	402.137	0.084	-0.173
-163.808	-54.208	-0.204	-0.091
-162.793	116.118	-0.087	0.105
-161.779	-200.000	-0.097	0.470
-160.764	-144.244	-0.093	-0.009
-159.750	3.521	0.136	-0.098
-158.735	-86.282	-0.277	-0.084
-157.720	-37.091	0.363	-0.191
-156.706	-89.272	0.102	-0.030
-155.691	-200.000	0.021	-0.145
-154.677	-107.097	-0.096	0.021
-153.662	-23.063	-0.342	0.203
-152.647	-148.452	-0.240	0.019
-151.633	11.292	0.219	0.165
-150.618	307.237	-0.084	0.154
-149.604	-28.406	-0.173	-0.098
-148.589	-108.267	0.192	0.041
-147.574	152.404	0.073	-0.098
-146.560	296.702	-0.003	0.006
-145.545	-200.000	-0.052	-0.322
-144.531	337.417	0.112	0.215
-143.516	503.043	-0.025	-0.057
-142.502	329.737	0.266	-0.504
-141.487	116.393	0.038	0.046
-140.472	184.108	0.107	0.156
-139.458	-200.000	-0.087	0.539
-138.443	-200.000	-0.010	0.119
-137.429	-20.707	0.341	0.206
-136.414	179.198	-0.102	0.147
-135.399	-53.559	0.138	-0.062
-134.385	-18.959	0.428	-0.262
-133.370	800.000	0.093	-0.402
-132.356	-59.081	0.246	-0.104
-131.341	-146.909	0.060	-0.005
-130.326	55.792	-0.221	0.210
-129.312	-23.793	0.178	-0.105
-128.297	-200.000	0.059	0.411
-127.283	-103.778	-0.078	0.018
-126.268	-71.707	0.165	-0.061
-125.253	743.604	0.041	-0.108
-124.239	436.275	-0.039	-0.084
-123.224	-187.788	0.187	-0.002
-122.210	-104.833	-0.409	-0.092
-121.195	-110.554	0.122	-0.025
-120.180	-126.865	-0.421	0.061
-119.166	800.000	-0.052	0.221
-118.151	-5.011	-0.385	0.261
-117.137	45.370	0.229	-0.208
-116.122	-50.971	0.149	-0.069
-115.107	95.931	-0.213	-0.239
-114.093	-81.718	0.223	0.072
-113.078	141.851	0.090	0.117
-112.064	-151.359	0.246	0.018
-111.049	-46.277	0.301	-0.145
-110.034	800.000	0.044	-0.127
-109.020	797.955	-0.166	-0.451
-108.005	257.093	0.173	0.292
-106.991	-200.000	0.029	-0.235
-105.976	45.313	-0.299	-0.272
-104.962	208.568	-0.199	-0.306
-103.947	-116.862	0.118	-0.021
-102.932	-20.311	0.226	-0.137
-101.918	-70.404	-0.277	-0.103
-100.903	-200.000	-0.072	0.553
-99.889	-77.944	0.389	0.132
-98.874	-126.523	-0.098	-0.014
-97.859	-200.000	0.021	-0.107
-96.845	800.000	-0.080	0.224
-95.830	-52.232	0.361	0.165
-94.816	-155.402	0.131	-0.008
-93.801	-90.590	-0.144	0.041
-92.786	-200.000	0.010	0.328
-91.772	760.966	0.123	-0.327
-90.757	176.668	0.089	-0.128
-89.743	-81.657	0.074	-0.024
-88.728	800.000	-0.018	0.072
-87.713	131.411	-0.157	-0.199
-86.699	276.671	0.107	0.188
-85.684	-118.839	-0.269	0.046
-84.670	-53.616	-0.045	-0.020
-83.655	360.579	-0.088	-0.173
-82.640	-136.164	-0.162	0.019
-81.626	397.781	0.153	0.315
-80.611	800.000	0.150	0.481
-79.597	-41.286	-0.139	-0.070
-78.582	-44.361	0.205	-0.101
-77.567	-102.877	-0.276	0.065
-76.553	18.677	-0.146	-0.115
-75.538	112.929	-0.036	0.043
-74.524	-200.000	0.015	-0.365
-73.509	94.994	0.040	0.044
-72.494	-200.000	-0.002	0.219
-71.480	129.822	-0.159	-0.199
-70.465	75.204	0.222	0.230
-69.451	283.504	-0.043	0.077
-68.436	225.523	-0.076	-0.121
-67.422	-78.496	-0.194	0.065
-66.407	-62.754	-0.118	-0.048
-65.392	559.456	-0.044	-0.105
-64.378	-200.000	-0.004	0.114
-63.363	206.897	-0.131	0.200
-62.349	-200.000	-0.042	0.288
-61.334	177.785	-0.940	-1.345
-60.319	468.364	0.234	0.515
-59.305	800.000	-0.379	-1.204
-58.290	800.000	0.416	1.285
-57.276	304.328	0.800	1.457
-56.261	-200.000	113.969	627.734
-55.246	445.261	1487.854	3206.653
-54.232	149.136	2658.423	3529.742
-53.217	89.433	2301.574	2518.231
-52.203	33.152	2052.886	1746.664
-51.188	29.083	1968.854	1638.956
-50.173	27.606	1952.084	1611.885
-49.159	43.420	2013.747	1805.585
-48.144	42.830	2028.343	1813.284
-47.130	29.239	1986.600	1654.864
-46.115	27.212	1975.660	1627.566
-45.100	27.066	1973.027	1624.025
-44.086	27.004	1970.424	1621.264
-43.071	27.082	1967.434	1619.435
-42.057	26.964	1965.830	1616.997
-41.042	26.986	1964.361	1615.920
-40.027	27.098	1962.209	1615.083
-39.013	27.054	1960.462	1613.191
-37.998	27.092	1958.794	1612.089
-36.984	26.968	1957.434	1609.807
-35.969	27.066	1954.749	1608.407
-34.954	27.029	1953.395	1606.904
-33.940	27.117	1951.734	1606.247
-32.925	27.069	1950.562	1604.795
-31.911	27.138	1948.505	1603.651
-30.896	27.035	1946.824	1601.298
-29.881	27.194	1945.443	1601.496
-28.867	27.146	1944.232	1600.011
-27.852	27.187	1942.288	1598.713
-26.838	27.196	1940.614	1597.348
-25.823	27.163	1938.738	1595.454
-24.809	27.208	1937.087	1594.424
-23.794	27.199	1935.360	1592.855
-22.779	27.176	1933.573	1591.126
-21.765	27.181	1931.601	1589.481
-20.750	27.208	1930.154	1588.462
-19.736	27.129	1928.945	1586.712
-18.721	27.177	1927.207	1585.641
-17.706	27.175	1925.417	1584.093
-16.692	27.113	1924.129	1582.427
-15.677	27.044	1922.575	1580.481
-14.663	27.149	1920.994	1580.038
-13.648	27.129	1920.232	1579.170
-12.633	27.176	1918.324	1577.953
-11.619	27.130	1917.334	1576.669
-10.604	27.155	1916.138	1575.844
-9.590	27.115	1914.547	1574.129
-8.575	27.111	1913.378	1573.064
-7.560	27.106	1911.821	1571.679
-6.546	27.205	1910.087	1571.049
-5.531	27.153	1909.120	1569.747
-4.517	27.007	1908.667	1568.044
-3.502	27.071	1907.129	1567.269
-2.487	27.102	1905.466	1566.112
-1.473	27.162	1904.780	1566.001
-0.458	27.029	1899.936	1560.812
0.556	25.601	1878.022	1527.323
1.571	20.272	1857.777	1465.838
2.586	15.579	1877.713	1441.265
3.600	14.135	1911.916	1454.772
4.615	13.769	1904.951	1446.152
5.629	10.921	1807.794	1348.683
6.644	4.788	1696.506	1217.692
7.659	1.270	1663.315	1166.750
8.673	0.940	1661.005	1162.500
9.688	0.945	1659.121	1161.110
10.702	1.046	1657.512	1160.659
11.717	0.879	1654.112	1156.897
12.731	1.223	1652.782	1158.490
13.746	5.834	1662.106	1200.273
14.761	12.975	1676.303	1265.360
15.775	17.012	1682.835	1301.198
16.790	17.453	1683.196	1304.746
17.804	16.532	1679.914	1295.037
18.819	15.624	1676.706	1285.507
19.834	15.035	1673.791	1278.661
20.848	14.740	1672.578	1275.367
21.863	14.517	1671.361	1272.623
22.877	14.297	1669.497	1269.414
23.892	14.019	1667.996	1266.040
24.907	13.929	1667.122	1264.585
25.921	13.881	1665.979	1263.241
26.936	13.900	1664.926	1262.475
27.950	13.922	1664.478	1262.192
28.965	13.972	1663.513	1261.724
29.980	13.940	1663.265	1261.179
30.994	14.080	1661.466	1260.768
32.009	14.192	1660.310	1260.624
33.023	14.067	1660.244	1259.521
34.038	14.151	1659.465	1259.449
35.053	14.121	1658.115	1258.092
36.067	14.150	1657.128	1257.450
37.082	14.101	1656.107	1256.195
38.096	14.068	1655.462	1255.346
39.111	14.061	1654.451	1254.414
40.126	14.191	1653.210	1254.338
41.140	14.075	1652.399	1252.738
42.155	14.046	1651.117	1251.437
43.169	13.984	1649.526	1249.658
44.184	13.952	1648.673	1248.661
45.199	13.922	1647.427	1247.378
46.213	13.880	1646.706	1246.407
47.228	13.848	1645.349	1245.029
48.242	14.011	1643.952	1245.083
49.257	13.970	1642.630	1243.662
50.271	13.990	1641.525	1242.866
51.286	13.960	1640.382	1241.669
52.301	14.000	1638.575	1240.491
53.315	14.042	1637.686	1240.019
54.330	14.007	1635.985	1238.362
55.344	13.968	1634.413	1236.772
56.359	13.877	1633.157	1235.038
57.374	13.954	1631.855	1234.511
58.388	13.930	1630.482	1233.192
59.403	13.921	1629.622	1232.360
60.417	13.876	1628.147	1230.805
61.432	13.999	1626.646	1230.473
62.447	13.888	1626.027	1229.075
63.461	13.892	1624.445	1227.798
64.476	13.793	1623.530	1226.263
65.490	13.883	1622.471	1226.024
66.505	13.868	1620.966	1224.665
67.520	13.883	1620.165	1224.065
68.534	13.880	1619.077	1223.111
69.549	13.891	1618.385	1222.558
70.563	13.900	1616.602	1221.175
71.578	13.984	1614.991	1220.467
72.593	13.907	1614.216	1219.204
73.607	13.874	1612.839	1217.811
74.622	13.804	1612.131	1216.658
75.636	13.802	1611.115	1215.768
76.651	13.814	1610.389	1215.205
77.666	13.845	1608.999	1214.276
78.680	13.724	1608.708	1213.062
79.695	13.780	1607.176	1212.206
80.709	13.845	1605.756	1211.507
81.724	13.793	1605.053	1210.487
82.739	13.906	1604.287	1210.624
83.753	13.875	1602.880	1209.230
84.768	13.989	1601.783	1209.129
85.782	13.936	1601.358	1208.310
86.797	13.934	1600.951	1207.881
87.812	14.044	1599.231	1207.282
88.826	13.933	1597.807	1205.293
89.841	13.913	1597.178	1204.563
90.855	13.890	1596.098	1203.476
91.870	14.071	1594.929	1203.802
92.884	14.106	1593.689	1203.010
93.899	14.027	1592.874	1201.718
94.914	14.013	1591.958	1200.817
95.928	14.083	1590.398	1200.045
96.943	14.056	1589.093	1198.758
97.957	14.119	1587.889	1198.196
98.972	14.132	1586.106	1196.839
99.987	14.107	1584.713	1195.499
101.001	14.049	1582.950	1193.645
102.016	14.003	1581.565	1192.168
103.030	14.036	1580.269	1191.324
104.045	14.087	1579.161	1190.747
105.060	14.019	1577.969	1189.257
106.074	13.933	1576.676	1187.559
107.089	13.915	1575.172	1186.199
108.103	13.883	1573.783	1184.816
109.118	13.839	1572.186	1183.198
110.133	13.870	1570.845	1182.301
111.147	13.851	1569.801	1181.275
112.162	13.929	1568.202	1180.526
113.176	13.863	1566.586	1178.732
114.191	13.948	1565.386	1178.327
115.206	13.903	1564.332	1177.117
116.220	13.941	1562.985	1176.266
117.235	13.978	1561.821	1175.549
118.249	13.942	1560.644	1174.305
119.264	13.989	1559.082	1173.356
120.279	13.960	1557.969	1172.207
121.293	13.939	1556.460	1170.824
122.308	13.934	1555.251	1169.777
123.322	13.936	1553.053	1168.033
124.337	13.881	1552.090	1166.820
125.352	13.923	1550.665	1165.936
126.366	13.948	1549.246	1164.942
127.381	13.997	1547.889	1164.163
128.395	13.875	1546.880	1162.449
129.410	13.878	1545.960	1161.676
130.424	13.955	1544.470	1160.992
131.439	13.946	1542.704	1159.497
132.454	13.854	1541.855	1158.112
133.468	14.007	1540.205	1157.841
134.483	13.931	1539.073	1156.353
135.497	14.018	1537.421	1155.620
136.512	13.955	1536.339	1154.266
137.527	13.963	1535.225	1153.382
138.541	13.993	1533.511	1152.201
139.556	14.032	1531.429	1150.804
140.570	14.021	1531.013	1150.314
141.585	14.061	1529.749	1149.540
142.600	14.044	1528.595	1148.448
143.614	14.160	1526.621	1147.667
144.629	14.148	1526.256	1147.206
145.643	14.187	1524.679	1146.192
146.658	14.239	1523.211	1145.340
147.673	14.241	1521.600	1144.041
148.687	14.188	1520.118	1142.462
149.702	14.186	1518.916	1141.447
150.716	14.256	1516.918	1140.321
151.731	14.113	1516.125	1138.649
152.746	14.204	1514.457	1137.916
153.760	14.221	1513.054	1136.879
154.775	14.157	1512.186	1135.684
155.789	14.223	1511.053	1135.183
156.804	14.192	1509.833	1133.955
157.819	14.256	1508.301	1133.146
158.833	14.323	1507.218	1132.685
159.848	14.330	1506.011	1131.724
160.862	14.335	1504.889	1130.814
161.877	14.301	1503.948	1129.777
162.892	14.369	1502.318	1128.913
163.906	14.340	1501.080	1127.690
164.921	14.251	1500.074	1126.228
165.935	14.278	1499.033	1125.532
166.950	14.356	1497.503	1124.812
167.964	14.421	1496.815	1124.634
168.979	14.361	1495.737	1123.317
169.994	14.369	1494.508	1122.349
171.008	14.334	1493.705	1121.409
172.023	14.338	1492.657	1120.549
173.037	14.378	1491.661	1119.977
174.052	14.397	1490.368	1119.033
175.067	14.537	1489.202	1118.998
176.081	14.400	1488.640	1117.559
177.096	14.440	1486.538	1116.145
178.110	14.410	1485.141	1114.800
179.125	14.412	1484.833	1114.480
180.140	14.469	1483.046	1113.427
181.154	14.406	1482.238	1112.300
182.169	14.435	1481.219	1111.629
183.183	14.477	1479.735	1110.699
184.198	14.507	1478.780	1110.078
185.213	14.569	1477.444	1109.391
186.227	14.644	1476.274	1108.911
187.242	14.643	1475.343	1108.110
188.256	14.510	1474.881	1106.783
189.271	14.713	1473.104	1106.693
190.286	14.682	1472.054	1105.603
191.300	14.583	1471.325	1104.302
192.315	14.578	1469.579	1102.864
193.329	14.492	1468.762	1101.581
194.344	14.474	1467.848	1100.684
195.359	14.466	1466.959	1099.867
196.373	14.536	1465.734	1099.309
197.388	14.560	1465.096	1098.892
198.402	14.591	1463.745	1097.987
199.417	14.649	1462.683	1097.474
200.432	14.746	1461.168	1096.876
201.446	14.805	1460.812	1096.901
202.461	14.799	1459.409	1095.710
203.475	14.872	1458.011	1095.043
204.490	14.812	1457.308	1094.025
205.504	14.955	1455.909	1093.814
206.519	14.729	1455.282	1091.770
207.534	14.798	1453.875	1091.067
208.548	14.875	1452.800	1090.665
209.563	14.836	1451.841	1089.595
210.577	14.900	1450.664	1089.033
211.592	14.831	1449.955	1087.955
212.607	14.871	1449.532	1087.797
213.621	14.950	1448.340	1087.322
214.636	14.975	1447.567	1086.806
215.650	15.003	1446.557	1086.136
216.665	14.951	1445.999	1085.282
217.680	14.953	1444.942	1084.407
218.694	15.048	1444.189	1084.359
219.709	15.058	1443.124	1083.529
220.723	15.035	1442.306	1082.670
221.738	14.968	1441.644	1081.645
222.753	15.011	1440.918	1081.282
223.767	14.933	1439.878	1079.901
224.782	15.050	1438.539	1079.561
225.796	15.042	1437.421	1078.571
226.811	15.045	1436.985	1078.167
227.826	15.182	1436.094	1078.289
228.840	15.128	1435.518	1077.409
229.855	15.061	1434.207	1075.899
230.869	15.074	1433.465	1075.335
231.884	15.065	1432.459	1074.422
232.899	15.137	1431.192	1073.841
233.913	15.022	1430.300	1072.339
234.928	15.164	1428.718	1071.971
235.942	15.241	1427.186	1071.216
236.957	15.118	1426.424	1069.762
237.972	15.080	1425.616	1068.824
238.986	15.085	1424.486	1067.911
240.001	15.180	1423.557	1067.724
241.015	15.171	1422.276	1066.612
242.030	15.216	1421.157	1065.964
243.045	15.214	1420.319	1065.230
244.059	15.263	1419.404	1064.764
245.074	15.297	1418.649	1064.316
246.088	15.356	1417.453	1063.697
247.103	15.311	1417.192	1063.123
248.117	15.407	1416.346	1063.001
249.132	15.396	1415.212	1061.990
250.147	15.381	1415.202	1061.789
251.161	15.456	1413.978	1061.254
252.176	15.491	1413.587	1061.090
253.190	15.502	1412.786	1060.463
254.205	15.528	1411.799	1059.791
255.220	15.636	1410.671	1059.535
256.234	15.661	1410.078	1059.150
257.249	15.752	1408.847	1058.707
258.263	15.760	1408.470	1058.378
259.278	15.598	1407.828	1056.785
260.293	15.697	1406.673	1056.442
261.307	15.675	1405.811	1055.567
262.322	15.753	1405.157	1055.471
263.336	15.754	1404.300	1054.738
264.351	15.726	1403.716	1054.030
265.366	15.810	1402.168	1053.300
266.380	15.789	1401.212	1052.358
267.395	15.910	1400.491	1052.480
268.409	15.836	1399.871	1051.458
269.424	15.854	1398.680	1050.585
270.439	15.844	1397.907	1049.848
271.453	15.897	1396.282	1048.868
272.468	15.853	1396.022	1048.302
273.482	15.778	1395.610	1047.434
274.497	15.891	1394.436	1047.165
275.512	15.919	1393.436	1046.496
276.526	15.934	1392.275	1045.621
277.541	15.908	1391.175	1044.546
278.555	15.855	1391.151	1044.105
279.570	15.846	1390.020	1043.105
280.585	15.950	1389.337	1043.148
281.599	16.033	1388.216	1042.729
282.614	16.086	1386.869	1041.951
283.628	15.979	1386.221	1040.708
284.643	15.948	1385.274	1039.712
285.657	16.003	1383.597	1038.704
286.672	16.023	1382.977	1038.269
287.687	16.102	1382.364	1038.203
288.701	16.043	1381.063	1036.771
289.716	16.080	1380.456	1036.453
290.730	16.052	1379.614	1035.554
291.745	16.133	1378.092	1034.817
292.760	16.148	1377.704	1034.529
293.774	16.116	1376.662	1033.458
294.789	16.106	1375.433	1032.381
295.803	16.285	1374.529	1032.706
296.818	16.309	1373.766	1032.190
297.833	16.271	1372.532	1030.938
298.847	16.322	1371.581	1030.444
299.862	16.203	1370.534	1028.843
300.876	16.322	1370.149	1029.185
301.891	16.285	1369.313	1028.241
302.906	16.213	1368.519	1027.120
303.920	16.423	1367.511	1027.548
304.935	16.451	1366.459	1026.837
305.949	16.428	1366.000	1026.257
306.964	16.411	1365.395	1025.612
307.979	16.396	1364.627	1024.851
308.993	16.441	1363.540	1024.221
310.008	16.445	1362.558	1023.416
311.022	16.490	1361.646	1022.910
312.037	16.508	1360.383	1021.982
313.052	16.546	1359.497	1021.456
314.066	16.514	1358.507	1020.427
315.081	16.560	1357.434	1019.806
316.095	16.452	1356.626	1018.461
317.110	16.466	1355.334	1017.484
318.125	16.512	1354.311	1016.902
319.139	16.446	1353.609	1015.887
320.154	16.454	1352.917	1015.330
321.168	16.468	1351.852	1014.520
322.183	16.489	1351.028	1013.940
323.197	16.604	1349.645	1013.502
324.212	16.504	1349.001	1012.332
325.227	16.416	1348.652	1011.450
326.241	16.527	1347.614	1011.248
327.256	16.599	1346.438	1010.708
328.270	16.605	1345.486	1009.934
329.285	16.698	1344.203	1009.440
330.300	16.662	1343.661	1008.727
331.314	16.658	1342.864	1008.018
332.329	16.688	1342.203	1007.611
333.343	16.703	1341.224	1006.873
334.358	16.679	1340.423	1006.044
335.373	16.662	1339.679	1005.297
336.387	16.633	1339.038	1004.551
337.402	16.769	1338.234	1004.668
338.416	16.789	1337.448	1004.107
339.431	16.780	1336.893	1003.544
340.446	16.810	1336.300	1003.189
341.460	16.876	1334.751	1002.330
342.475	16.821	1334.223	1001.519
343.489	16.859	1333.157	1000.854
344.504	16.914	1332.288	1000.441
345.519	16.974	1331.151	999.853
346.533	16.907	1330.502	998.876
347.548	17.123	1329.467	999.287
348.562	16.957	1329.125	997.962
349.577	16.981	1327.749	996.983
350.592	17.086	1327.515	997.333
351.606	16.923	1326.639	995.629
352.621	16.980	1325.247	994.836
353.635	16.928	1324.443	993.839
354.650	17.023	1323.235	993.397
355.665	16.967	1322.289	992.274
356.679	17.049	1321.384	991.986
357.694	17.094	1319.977	991.102
358.708	17.067	1319.278	990.335
359.723	17.056	1318.495	989.595
360.738	17.095	1317.208	988.770
361.752	17.169	1316.390	988.500
362.767	17.097	1315.300	987.176
363.781	17.057	1314.230	986.051
364.796	17.227	1313.487	986.395
365.810	17.166	1312.771	985.415
366.825	17.214	1312.398	985.324
367.840	17.306	1311.691	985.242
368.854	17.249	1311.226	984.476
369.869	17.424	1310.110	984.562
370.883	17.318	1309.858	983.671
371.898	17.304	1308.958	982.827
372.913	17.369	1307.993	982.389
373.927	17.341	1307.281	981.605
374.942	17.323	1306.282	980.666
375.956	17.317	1305.775	980.165
376.971	17.429	1304.580	979.827
377.986	17.476	1303.848	979.462
379.000	17.342	1303.127	978.064
380.015	17.455	1302.605	978.235
381.029	17.637	1301.400	978.286
382.044	17.568	1301.108	977.583
383.059	17.572	1300.273	976.892
384.073	17.563	1299.755	976.368
385.088	17.540	1298.970	975.558
386.102	17.628	1298.333	975.498
387.117	17.661	1297.452	974.936
388.132	17.631	1297.067	974.388
389.146	17.533	1296.473	973.296
390.161	17.496	1295.528	972.291
391.175	17.659	1294.344	972.246
392.190	17.679	1293.874	971.919
393.205	17.711	1292.490	970.979
394.219	17.632	1291.485	969.689
395.234	17.619	1290.745	968.973
396.248	17.751	1289.145	968.434
397.263	17.706	1287.952	967.197
398.278	17.775	1286.322	966.279
399.292	17.638	1285.711	964.958
400.307	17.657	1284.983	964.437
401.321	17.685	1283.629	963.489
402.336	17.699	1282.311	962.494
403.350	17.719	1281.626	962.009
404.365	17.805	1280.552	961.604
405.380	17.718	1279.881	960.522
406.394	17.808	1279.198	960.434
407.409	17.736	1278.572	959.475
408.423	17.818	1277.505	959.048
409.438	17.935	1276.733	959.042
410.453	17.926	1276.102	958.430
411.467	17.998	1275.273	958.129
412.482	17.964	1275.019	957.664
413.496	18.003	1274.559	957.449
414.511	17.977	1273.632	956.525
415.526	18.081	1272.716	956.332
416.540	18.160	1271.887	956.067
417.555	18.140	1270.735	955.006
418.569	18.171	1270.541	954.947
419.584	18.186	1270.030	954.564
420.599	18.155	1269.618	953.995
421.613	100.330	1356.588	1482.709
422.628	97.789	1369.211	1482.814
