DTS Sentinel unit serial number:	SN413079Multiplexer serial number:	ORYXHardware model number:	OX4-SRSoftware version number:	ORYX F/W v4.00 Oryx Data Collector v3.7.2.0data status	okinstallation	princeton_trtdifferential loss correction	single-endedforward channel	channel 4reverse channel	N/Adate	2019/09/15time	08:41:34forward acquisition time	60.00reverse acquisition time	0.00gamma	496.2192k internal	0.2304k external	0.2304temperature offset calibration	1.0024default loss term (dB/km)	0.3790temperature slope calibration	1.0000multiplexer offset coefficient	1.0000multiplexer slope coefficient	1.0000fibre end	0.00T internal ref (°C)	32.03T ext. ref 1 (°C)	4.98T ext. ref 2 (°C)	29.30length (m)	temperature (°C)	Stokes	anti-Stokes-747.200	-33.968	0.196	0.110
-746.185	8.639	-0.232	0.178
-745.171	96.855	0.183	-0.214
-744.156	24.214	-0.125	-0.105
-743.142	-71.927	-0.145	0.055
-742.127	-64.179	-0.151	0.063
-741.112	-56.009	-0.079	0.036
-740.098	-200.000	0.008	0.341
-739.083	415.723	0.072	0.156
-738.069	800.000	-0.021	0.080
-737.054	-51.193	0.441	-0.210
-736.039	36.463	-0.081	-0.073
-735.025	-200.000	-0.021	-0.216
-734.010	-79.728	0.089	-0.030
-732.996	202.776	-0.158	-0.248
-731.981	230.497	0.122	0.203
-730.966	-58.187	-0.293	-0.130
-729.952	247.520	-0.123	-0.211
-728.937	-128.241	0.408	0.059
-727.923	-162.245	-0.208	0.011
-726.908	-80.179	-0.104	0.035
-725.894	-200.000	-0.006	0.090
-724.879	261.180	-0.072	-0.127
-723.864	-117.003	-0.229	0.042
-722.850	-142.682	0.268	-0.027
-721.835	800.000	0.095	-0.319
-720.821	-37.474	-0.312	-0.169
-719.806	800.000	0.048	0.204
-718.791	-50.080	-0.213	0.103
-717.777	100.111	0.187	-0.220
-716.762	246.918	-0.220	-0.377
-715.748	-84.529	-0.315	-0.101
-714.733	-186.389	0.228	0.003
-713.718	432.993	-0.121	-0.267
-712.704	-200.000	-0.008	-0.323
-711.689	-35.689	0.139	-0.077
-710.675	7.807	0.174	0.132
-709.660	-200.000	-0.032	0.212
-708.645	800.000	-0.090	-0.357
-707.631	265.360	0.074	-0.132
-706.616	306.186	-0.045	0.085
-705.602	-200.000	0.015	0.295
-704.587	9.411	-0.114	0.088
-703.572	315.265	0.074	-0.142
-702.558	-18.734	0.176	-0.111
-701.543	-90.375	-0.135	-0.040
-700.529	-71.041	0.079	-0.030
-699.514	-39.197	0.069	-0.037
-698.499	-200.000	0.036	-0.295
-697.485	63.532	-0.098	-0.100
-696.470	-19.720	0.109	0.069
-695.456	100.253	0.059	0.070
-694.441	-33.664	-0.189	-0.106
-693.426	7.227	-0.439	-0.333
-692.412	101.740	0.111	0.132
-691.397	166.523	-0.213	0.307
-690.383	224.983	-0.257	0.422
-689.368	-72.461	0.210	0.079
-688.354	-46.163	-0.074	0.037
-687.339	-3.052	-0.228	0.161
-686.324	-100.727	-0.216	-0.054
-685.310	800.000	-0.060	0.260
-684.295	-108.167	-0.246	0.054
-683.281	107.929	-0.045	-0.054
-682.266	224.057	0.208	-0.341
-681.251	-42.082	-0.309	0.161
-680.237	111.386	-0.071	0.087
-679.222	-200.000	0.013	-0.345
-678.208	-48.898	-0.174	0.085
-677.193	-79.005	0.099	-0.034
-676.178	559.129	0.108	0.265
-675.164	-200.000	0.036	0.197
-674.149	-200.000	0.002	0.013
-673.135	800.000	-0.076	-0.232
-672.120	-128.718	-0.300	-0.043
-671.105	189.066	0.086	0.130
-670.091	-97.321	-0.229	-0.061
-669.076	-200.000	0.027	-0.135
-668.062	-85.428	-0.199	0.063
-667.047	-200.000	0.010	-0.367
-666.032	165.141	0.128	-0.183
-665.018	134.499	0.240	0.317
-664.003	485.928	0.053	-0.124
-662.989	137.008	-0.223	-0.296
-661.974	2.815	0.075	0.055
-660.959	493.058	0.118	-0.276
-659.945	-200.000	0.047	-0.270
-658.930	-142.071	-0.601	0.061
-657.916	99.054	-0.080	-0.094
-656.901	-200.000	0.003	0.206
-655.886	111.955	0.287	-0.352
-654.872	-200.000	0.006	-0.122
-653.857	124.845	-0.138	-0.176
-652.843	47.005	0.074	-0.070
-651.828	97.508	-0.310	-0.361
-650.814	309.100	0.111	-0.210
-649.799	-72.680	0.335	0.125
-648.784	174.679	-0.162	0.238
-647.770	239.504	0.154	-0.260
-646.755	-200.000	-0.011	-0.109
-645.741	-152.427	0.182	-0.013
-644.726	116.731	0.146	0.182
-643.711	627.862	0.012	0.032
-642.697	-117.956	0.103	-0.019
-641.682	9.449	0.067	-0.052
-640.668	-0.277	-0.341	0.246
-639.653	-65.446	0.109	0.044
-638.638	-50.472	0.029	-0.014
-637.624	-136.352	-0.259	0.031
-636.609	-200.000	-0.015	-0.136
-635.595	39.930	-0.088	-0.080
-634.580	22.377	0.257	-0.213
-633.565	-91.413	0.258	0.075
-632.551	504.081	-0.075	0.176
-631.536	494.547	-0.140	0.327
-630.522	-1.169	-0.158	0.113
-629.507	267.894	-0.026	0.047
-628.492	-45.792	-0.124	0.062
-627.478	-60.279	-0.311	-0.134
-626.463	76.499	-0.166	-0.178
-625.449	-120.816	-0.137	-0.023
-624.434	-114.572	0.128	-0.025
-623.419	-200.000	-0.052	0.417
-622.405	800.000	-0.092	-0.394
-621.390	-73.426	0.072	-0.026
-620.376	124.148	0.091	-0.115
-619.361	372.071	0.105	-0.216
-618.346	-200.000	0.009	-0.106
-617.332	437.599	-0.039	0.086
-616.317	224.879	0.166	0.271
-615.303	-59.951	-0.575	0.249
-614.288	84.540	-0.224	0.248
-613.273	152.636	-0.122	0.169
-612.259	247.112	0.069	-0.118
-611.244	-200.000	0.020	-0.154
-610.230	-23.989	-0.168	0.102
-609.215	70.189	-0.234	-0.245
-608.201	66.904	0.116	0.120
-607.186	428.008	-0.035	0.076
-606.171	211.721	0.328	-0.523
-605.157	-200.000	-0.038	-0.290
-604.142	263.370	-0.150	0.264
-603.128	-99.571	-0.330	-0.084
-602.113	273.366	-0.045	0.080
-601.098	-130.649	0.259	0.035
-600.084	420.182	0.104	-0.225
-599.069	-155.716	0.106	0.007
-598.055	437.019	0.106	0.234
-597.040	195.254	-0.281	-0.433
-596.025	739.517	-0.072	0.195
-595.011	32.885	0.129	-0.113
-593.996	-163.325	0.179	0.009
-592.982	220.898	-0.180	-0.292
-591.967	-154.665	-0.365	-0.025
-590.952	78.840	0.134	-0.145
-589.938	-173.132	-0.078	0.002
-588.923	-200.000	0.040	0.288
-587.909	-86.694	-0.171	-0.053
-586.894	-200.000	-0.006	-0.050
-585.879	-184.890	0.309	0.005
-584.865	0.313	0.106	-0.076
-583.850	394.548	-0.163	-0.344
-582.836	65.666	-0.218	0.223
-581.821	-96.965	-0.266	-0.071
-580.806	-174.983	-0.081	-0.002
-579.792	650.890	-0.153	0.395
-578.777	-78.120	0.067	0.023
-577.763	31.011	0.049	-0.043
-576.748	138.795	-0.151	-0.201
-575.733	-200.000	0.051	-0.353
-574.719	-45.524	-0.224	0.112
-573.704	-134.401	-0.416	-0.052
-572.690	800.000	-0.072	-0.209
-571.675	-200.000	0.003	-0.085
-570.661	13.052	-0.225	0.176
-569.646	99.857	0.153	0.179
-568.631	-200.000	0.003	-0.098
-567.617	-90.577	0.166	0.049
-566.602	-57.149	-0.084	-0.037
-565.588	270.055	-0.056	0.099
-564.573	-104.209	0.189	-0.044
-563.558	-28.535	0.139	-0.081
-562.544	4.972	-0.132	0.098
-561.529	173.472	0.063	0.091
-560.515	-74.984	-0.108	-0.039
-559.500	-168.491	0.213	-0.008
-558.485	-200.000	-0.042	0.218
-557.471	33.190	-0.239	0.210
-556.456	8.892	0.333	-0.254
-555.442	-22.256	0.403	0.247
-554.427	-84.218	-0.207	0.066
-553.412	76.285	0.156	-0.167
-552.398	62.421	-0.092	-0.093
-551.383	-200.000	-0.003	-0.116
-550.369	-25.610	0.268	-0.160
-549.354	16.708	0.018	-0.014
-548.339	-108.175	0.357	-0.078
-547.325	800.000	-0.070	0.260
-546.310	-76.839	0.186	0.066
-545.296	-50.509	-0.205	0.098
-544.281	-6.407	-0.162	-0.112
-543.266	-158.469	0.077	0.005
-542.252	-121.536	0.180	-0.030
-541.237	57.933	0.134	-0.132
-540.223	-90.421	-0.153	0.045
-539.208	-99.649	-0.097	-0.025
-538.193	149.103	-0.029	-0.040
-537.179	-131.930	-0.219	-0.029
-536.164	745.299	-0.083	0.226
-535.150	-96.224	0.089	-0.024
-534.135	800.000	0.133	-0.441
-533.121	-74.923	-0.292	0.106
-532.106	-200.000	-0.006	0.061
-531.091	789.476	-0.086	-0.237
-530.077	-200.000	0.004	0.255
-529.062	433.694	0.061	0.133
-528.048	-175.668	-0.509	-0.014
-527.033	77.043	-0.080	-0.086
-526.018	800.000	-0.064	-0.228
-525.004	-200.000	0.036	0.179
-523.989	526.580	-0.100	-0.239
-522.975	800.000	0.042	-0.165
-521.960	223.971	-0.016	0.027
-520.945	18.542	-0.244	0.197
-519.931	-200.000	0.051	-0.233
-518.916	-35.397	-0.132	0.072
-517.902	-43.077	0.259	-0.132
-516.887	800.000	0.020	0.060
-515.872	-200.000	-0.005	-0.120
-514.858	252.725	0.080	-0.137
-513.843	-138.488	-0.104	-0.011
-512.829	-200.000	0.043	0.294
-511.814	689.236	-0.062	-0.163
-510.799	-148.395	-0.164	0.014
-509.785	241.166	-0.175	0.295
-508.770	-181.194	0.226	-0.005
-507.756	-10.732	-0.108	-0.072
-506.741	340.165	0.103	0.202
-505.726	67.311	-0.223	-0.229
-504.712	134.086	-0.242	0.317
-503.697	483.596	-0.101	0.231
-502.683	-38.271	-0.215	-0.115
-501.668	25.795	-0.126	0.106
-500.653	-118.599	0.226	0.040
-499.639	453.931	0.069	0.154
-498.624	167.472	0.140	0.200
-497.610	415.743	0.067	0.144
-496.595	91.135	-0.134	-0.152
-495.581	-79.389	-0.093	-0.032
-494.566	-200.000	0.001	0.178
-493.551	-200.000	0.017	0.237
-492.537	-122.945	0.180	0.029
-491.522	101.043	-0.178	0.209
-490.508	-200.000	0.006	0.110
-489.493	-9.702	0.214	0.143
-488.478	-77.017	-0.098	0.034
-487.464	26.460	-0.107	0.090
-486.449	-192.625	0.281	-0.003
-485.435	164.256	0.049	0.070
-484.420	-75.355	-0.098	-0.035
-483.405	-185.876	0.282	-0.004
-482.391	-200.000	-0.035	0.480
-481.376	-62.585	0.206	0.086
-480.362	-86.330	-0.419	0.130
-479.347	-92.895	-0.409	-0.115
-478.332	32.769	0.148	-0.129
-477.318	238.645	0.067	0.113
-476.303	246.613	-0.085	-0.145
-475.289	-33.089	0.369	-0.206
-474.274	-124.178	0.056	-0.009
-473.259	124.004	0.173	-0.218
-472.245	-51.475	0.132	-0.062
-471.230	-200.000	0.043	0.343
-470.216	-99.419	0.177	0.045
-469.201	116.491	-0.187	-0.231
-468.186	-200.000	-0.002	0.177
-467.172	-200.000	-0.007	0.033
-466.157	120.931	-0.343	-0.430
-465.143	-9.234	0.156	-0.105
-464.128	-200.000	-0.074	0.339
-463.113	-200.000	-0.002	0.338
-462.099	800.000	0.100	0.340
-461.084	335.879	0.042	-0.082
-460.070	472.732	0.087	0.198
-459.055	223.746	0.097	-0.158
-458.040	-51.663	-0.203	0.096
-457.026	-67.292	0.218	-0.087
-456.011	-29.641	0.218	0.125
-454.997	-78.702	-0.310	0.107
-453.982	297.801	-0.199	0.368
-452.968	222.320	0.099	-0.161
-451.953	800.000	0.058	-0.162
-450.938	-200.000	-0.003	-0.076
-449.924	-18.426	0.059	0.037
-448.909	40.014	-0.014	-0.013
-447.895	-60.283	0.246	0.105
-446.880	17.958	0.222	0.178
-445.865	-200.000	-0.054	0.267
-444.851	-146.297	-0.174	-0.015
-443.836	187.367	0.198	-0.297
-442.822	-104.605	0.090	0.021
-441.807	610.885	-0.117	-0.294
-440.792	8.701	-0.090	0.068
-439.778	800.000	0.115	0.369
-438.763	-200.000	0.005	0.297
-437.749	-92.798	0.238	-0.067
-436.734	131.982	0.136	0.176
-435.719	-98.545	0.204	-0.052
-434.705	76.829	0.171	0.182
-433.690	189.379	0.128	-0.194
-432.676	728.739	-0.025	0.067
-431.661	152.381	0.209	-0.287
-430.646	800.000	0.025	0.106
-429.632	775.297	-0.022	-0.062
-428.617	575.050	0.016	0.039
-427.603	794.684	0.083	0.230
-426.588	208.384	0.169	-0.266
-425.573	732.348	0.015	0.041
-424.559	-200.000	0.086	-0.450
-423.544	-200.000	0.024	-0.248
-422.530	-200.000	0.105	0.529
-421.515	-200.000	-0.028	0.142
-420.500	421.677	-0.037	0.080
-419.486	800.000	-0.060	-0.168
-418.471	199.667	0.032	-0.049
-417.457	-8.148	0.294	0.199
-416.442	800.000	0.040	0.138
-415.428	330.304	0.060	0.115
-414.413	36.471	0.232	-0.206
-413.398	519.680	0.077	-0.181
-412.384	-78.800	0.251	0.086
-411.369	-108.985	-0.034	0.007
-410.355	-74.910	0.249	-0.090
-409.340	322.420	0.049	-0.095
-408.325	101.220	0.004	0.005
-407.311	121.676	-0.092	-0.115
-406.296	800.000	-0.105	-0.303
-405.282	591.446	0.052	-0.130
-404.267	-200.000	-0.019	0.155
-403.252	-65.274	0.237	-0.096
-402.238	-59.395	0.154	0.067
-401.223	-134.285	-0.004	0.001
-400.209	50.883	0.058	-0.055
-399.194	375.412	-0.113	0.231
-398.179	106.731	0.114	-0.136
-397.165	249.294	-0.148	-0.252
-396.150	-104.514	0.223	0.052
-395.136	339.526	-0.103	-0.202
-394.121	-36.631	-0.348	0.188
-393.106	-69.381	-0.262	0.101
-392.092	-38.170	-0.255	-0.136
-391.077	140.518	0.036	0.048
-390.063	243.311	0.149	0.250
-389.048	-195.482	0.148	0.001
-388.033	-28.554	0.241	0.139
-387.019	366.089	-0.072	-0.145
-386.004	-15.138	0.192	-0.123
-384.990	-85.449	0.344	-0.108
-383.975	637.528	-0.054	-0.139
-382.960	800.000	0.072	-0.261
-381.946	259.405	-0.083	-0.143
-380.931	-29.548	-0.345	0.198
-379.917	-200.000	-0.048	0.445
-378.902	-200.000	-0.009	-0.241
-377.888	800.000	0.034	0.117
-376.873	-114.037	-0.082	-0.016
-375.858	337.467	-0.137	-0.267
-374.844	800.000	0.034	0.119
-373.829	-153.209	0.096	0.007
-372.815	800.000	0.084	0.262
-371.800	-200.000	0.008	-0.217
-370.785	-49.558	0.213	-0.102
-369.771	-140.667	-0.213	-0.022
-368.756	-200.000	-0.016	-0.086
-367.742	43.590	-0.154	-0.141
-366.727	243.663	0.165	0.278
-365.712	92.166	-0.386	0.436
-364.698	44.588	-0.151	0.139
-363.683	285.157	0.088	-0.159
-362.669	468.549	0.070	0.157
-361.654	-19.771	0.240	0.149
-360.639	-200.000	0.008	-0.110
-359.625	-200.000	0.014	-0.172
-358.610	43.946	-0.053	-0.048
-357.596	-176.080	0.205	-0.005
-356.581	-9.029	0.227	0.152
-355.566	-35.325	0.151	-0.083
-354.552	-200.000	-0.036	-0.240
-353.537	-130.559	0.095	-0.013
-352.523	12.099	0.254	-0.196
-351.508	800.000	-0.069	0.302
-350.493	433.879	0.079	-0.171
-349.479	341.165	-0.169	0.332
-348.464	-20.766	0.106	0.065
-347.450	42.245	-0.262	0.238
-346.435	-17.857	0.075	0.047
-345.420	-110.840	-0.150	-0.031
-344.406	-155.302	-0.256	0.017
-343.391	54.061	0.201	-0.194
-342.377	-200.000	0.001	-0.242
-341.362	-52.775	-0.090	0.041
-340.348	-30.479	0.266	0.151
-339.333	800.000	-0.059	0.219
-338.318	0.865	0.245	0.176
-337.304	-130.052	-0.222	-0.030
-336.289	-25.448	0.139	-0.082
-335.275	-200.000	0.011	-0.090
-334.260	-99.963	0.202	-0.051
-333.245	35.528	-0.204	0.179
-332.231	800.000	0.083	0.277
-331.216	-46.013	-0.059	0.029
-330.202	-200.000	0.013	0.111
-329.187	-200.000	-0.046	-0.227
-328.172	-127.269	-0.212	0.031
-327.158	150.842	-0.131	-0.178
-326.143	341.458	-0.064	-0.125
-325.129	-136.364	-0.340	0.040
-324.114	-80.889	0.022	0.007
-323.099	-184.512	-0.269	0.004
-322.085	232.410	0.212	-0.348
-321.070	-200.000	-0.003	-0.121
-320.056	-200.000	0.005	0.226
-319.041	343.031	0.112	0.219
-318.026	51.869	-0.174	-0.166
-317.012	-137.840	-0.224	0.025
-315.997	-200.000	-0.101	-0.667
-314.983	-139.351	0.480	0.052
-313.968	-84.659	-0.150	0.047
-312.953	800.000	-0.043	0.174
-311.939	329.306	-0.074	0.143
-310.924	-74.219	-0.060	-0.022
-309.910	-113.062	-0.247	-0.049
-308.895	-167.896	0.507	0.020
-307.880	-61.604	0.390	0.164
-306.866	-188.554	-0.173	-0.002
-305.851	-11.896	-0.260	-0.171
-304.837	-51.828	0.151	-0.070
-303.822	-74.832	-0.332	0.119
-302.807	87.749	0.140	0.156
-301.793	-27.868	0.080	0.046
-300.778	-74.334	0.155	-0.056
-299.764	-52.223	-0.203	0.094
-298.749	107.353	-0.130	-0.155
-297.735	370.460	-0.110	-0.223
-296.720	-200.000	-0.013	0.193
-295.705	-79.745	0.124	-0.042
-294.691	-200.000	-0.059	-0.284
-293.676	-53.484	0.110	-0.050
-292.662	-52.535	-0.106	-0.049
-291.647	421.936	-0.027	0.058
-290.632	65.397	-0.034	0.034
-289.618	41.312	-0.275	0.249
-288.603	-7.595	-0.297	0.201
-287.589	27.576	0.104	0.088
-286.574	316.523	-0.209	-0.394
-285.559	-200.000	-0.033	-0.280
-284.545	55.953	-0.215	-0.209
-283.530	-109.755	0.235	-0.049
-282.516	46.694	0.087	0.081
-281.501	-200.000	-0.087	-0.500
-280.486	-164.846	0.207	-0.009
-279.472	-91.571	0.213	0.061
-278.457	-98.876	0.143	-0.036
-277.443	130.809	0.228	0.292
-276.428	-200.000	-0.058	-0.407
-275.413	192.706	0.063	-0.094
-274.399	37.282	0.150	0.133
-273.384	158.272	-0.113	-0.157
-272.370	-41.762	0.282	0.145
-271.355	-53.283	-0.244	0.112
-270.340	114.221	0.200	-0.243
-269.326	60.553	-0.235	-0.232
-268.311	800.000	-0.052	0.152
-267.297	597.385	0.011	0.026
-266.282	-109.965	-0.250	0.052
-265.267	-27.609	0.142	-0.082
-264.253	1.695	-0.107	-0.077
-263.238	-200.000	0.001	0.216
-262.224	-95.042	0.459	-0.124
-261.209	800.000	-0.033	-0.101
-260.195	369.785	0.037	-0.076
-259.180	-137.659	-0.170	-0.019
-258.165	-25.822	0.140	-0.083
-257.151	34.103	0.297	-0.258
-256.136	156.053	0.228	-0.314
-255.122	59.211	-0.187	-0.184
-254.107	-200.000	0.027	-0.294
-253.092	-102.979	0.066	-0.016
-252.078	-33.983	-0.365	-0.201
-251.063	133.909	0.072	0.093
-250.049	-41.897	-0.231	0.118
-249.034	274.572	-0.119	-0.210
-248.019	-42.778	0.113	-0.057
-247.005	-126.977	0.177	0.026
-245.990	-200.000	0.009	-0.088
-244.976	-17.739	0.090	-0.057
-243.961	-51.599	0.268	0.125
-242.946	46.237	-0.050	0.046
-241.932	-87.579	-0.489	0.148
-240.917	194.996	0.164	0.249
-239.903	77.542	0.192	-0.204
-238.888	800.000	0.174	-0.551
-237.873	-119.674	0.233	-0.040
-236.859	113.492	-0.181	0.219
-235.844	-127.853	-0.118	-0.017
-234.830	99.809	0.123	0.142
-233.815	800.000	0.121	0.385
-232.800	-75.438	-0.049	0.017
-231.786	351.462	0.174	0.344
-230.771	-141.725	-0.050	-0.005
-229.757	1.575	-0.220	-0.158
-228.742	-83.195	-0.243	-0.078
-227.727	-200.000	0.025	-0.350
-226.713	-44.057	-0.052	-0.026
-225.698	437.753	0.147	0.319
-224.684	-200.000	-0.008	-0.102
-223.669	-145.896	0.065	-0.006
-222.655	-167.736	-0.189	0.007
-221.640	-162.234	-0.040	-0.002
-220.625	-101.919	-0.528	-0.127
-219.611	-200.000	-0.002	-0.166
-218.596	205.915	-0.185	0.287
-217.582	-200.000	0.008	0.437
-216.567	-30.114	0.201	0.114
-215.552	154.659	-0.273	0.374
-214.538	245.165	0.110	-0.184
-213.523	282.422	0.187	0.335
-212.509	-32.073	0.108	-0.060
-211.494	139.011	0.251	-0.329
-210.479	800.000	-0.077	-0.228
-209.465	30.906	-0.155	0.132
-208.450	-63.015	-0.337	0.139
-207.436	-32.223	-0.234	0.130
-206.421	369.907	-0.096	0.193
-205.406	662.569	0.112	-0.287
-204.392	800.000	-0.035	0.097
-203.377	-200.000	-0.001	-0.073
-202.363	75.312	-0.070	-0.073
-201.348	-89.418	0.415	-0.122
-200.333	-200.000	0.065	0.378
-199.319	225.424	-0.066	-0.107
-198.304	-180.080	-0.089	-0.002
-197.290	80.350	-0.217	0.233
-196.275	83.127	-0.118	-0.128
-195.260	-200.000	-0.027	0.124
-194.246	130.207	0.147	-0.187
-193.231	-81.549	0.127	-0.042
-192.217	-57.418	0.108	-0.047
-191.202	-102.907	-0.404	-0.096
-190.187	81.114	0.230	0.247
-189.173	-200.000	0.029	-0.329
-188.158	-200.000	-0.001	0.022
-187.144	-165.817	0.493	0.021
-186.129	37.630	-0.222	0.196
-185.114	-107.826	0.189	-0.041
-184.100	-147.473	-0.335	0.028
-183.085	-200.000	-0.026	-0.304
-182.071	-200.000	-0.012	-0.217
-181.056	6.903	-0.165	0.122
-180.042	-200.000	0.013	-0.145
-179.027	-54.287	0.248	-0.112
-178.012	-200.000	-0.015	0.116
-176.998	-200.000	0.023	0.298
-175.983	42.111	0.245	0.222
-174.969	800.000	0.062	-0.193
-173.954	-161.041	-0.404	0.021
-172.939	15.311	-0.123	-0.096
-171.925	329.725	-0.109	-0.209
-170.910	-14.519	0.110	0.070
-169.896	-148.609	0.205	0.017
-168.881	-200.000	-0.046	0.281
-167.866	-63.672	-0.165	0.068
-166.852	441.425	-0.061	0.132
-165.837	-101.524	0.489	0.119
-164.823	-200.000	0.011	0.226
-163.808	141.850	-0.077	-0.101
-162.793	378.022	-0.134	0.272
-161.779	108.465	0.113	-0.134
-160.764	-16.274	-0.100	0.063
-159.750	800.000	-0.043	-0.186
-158.735	147.557	0.198	-0.265
-157.720	19.959	0.058	0.046
-156.706	-43.258	-0.130	-0.066
-155.691	710.197	-0.101	-0.267
-154.677	-200.000	-0.035	0.312
-153.662	-43.187	0.249	0.125
-152.647	-200.000	0.007	-0.139
-151.633	800.000	-0.077	-0.253
-150.618	800.000	-0.085	-0.266
-149.604	-78.221	0.142	0.049
-148.589	-34.152	-0.215	-0.118
-147.574	-63.063	0.330	-0.136
-146.560	13.451	0.192	-0.148
-145.545	800.000	0.047	-0.151
-144.531	-109.392	0.281	0.059
-143.516	-200.000	-0.025	-0.257
-142.502	-98.739	0.222	-0.056
-141.487	-115.286	0.169	-0.032
-140.472	-52.476	0.069	-0.032
-139.458	-84.137	-0.173	0.055
-138.443	-95.172	0.126	-0.034
-137.429	20.874	-0.220	-0.178
-136.414	-200.000	0.022	-0.154
-135.399	46.608	0.110	0.102
-134.385	-113.171	0.186	-0.036
-133.370	800.000	0.020	-0.060
-132.356	-26.824	-0.228	-0.132
-131.341	128.711	-0.040	-0.051
-130.326	-32.843	-0.242	-0.134
-129.312	383.797	0.074	-0.152
-128.297	800.000	-0.022	0.074
-127.283	227.656	-0.193	0.312
-126.268	800.000	0.039	0.113
-125.253	-107.967	-0.289	-0.063
-124.239	-21.123	0.246	0.150
-123.224	-58.196	0.043	0.019
-122.210	42.468	0.152	-0.138
-121.195	372.886	0.018	-0.036
-120.180	-29.891	0.128	-0.073
-119.166	-19.331	0.286	-0.177
-118.151	-200.000	0.002	0.083
-117.137	18.691	-0.125	0.100
-116.122	47.153	-0.119	0.110
-115.107	326.895	0.080	0.153
-114.093	-91.810	0.269	-0.076
-113.078	504.862	-0.118	0.271
-112.064	-196.930	0.379	-0.002
-111.049	32.619	-0.169	0.145
-110.034	-9.774	-0.181	0.119
-109.020	568.151	0.040	-0.096
-108.005	74.861	0.214	-0.224
-106.991	154.964	0.129	-0.177
-105.976	176.910	-0.038	0.055
-104.962	277.978	0.136	0.240
-103.947	174.264	0.213	-0.306
-102.932	-68.846	-0.104	0.040
-101.918	14.357	0.245	-0.190
-100.903	-200.000	0.020	-0.140
-99.889	283.277	0.058	0.104
-98.874	92.380	0.098	0.109
-97.859	26.397	-0.126	0.104
-96.845	14.656	-0.108	0.084
-95.830	116.516	0.098	0.119
-94.816	-160.564	-0.163	0.009
-93.801	74.239	-0.030	0.032
-92.786	-200.000	-0.091	0.451
-91.772	-169.865	0.110	0.004
-90.757	102.730	-0.066	0.077
-89.743	20.356	0.061	0.049
-88.728	-200.000	0.021	0.147
-87.713	555.192	-0.086	0.205
-86.699	122.374	-0.085	-0.105
-85.684	-94.645	0.304	0.082
-84.670	-93.634	0.370	0.101
-83.655	780.114	-0.060	-0.163
-82.640	187.806	-0.137	-0.203
-81.626	-79.381	0.181	0.061
-80.611	-4.678	0.218	0.149
-79.597	222.972	-0.097	0.155
-78.582	-22.203	0.037	-0.022
-77.567	-21.575	-0.092	-0.055
-76.553	-196.713	0.239	-0.002
-75.538	479.444	-0.066	0.148
-74.524	126.624	0.103	0.130
-73.509	9.373	-0.136	0.102
-72.494	-78.969	0.526	0.178
-71.480	108.588	-0.108	-0.128
-70.465	31.929	0.081	-0.070
-69.451	-155.288	0.231	0.015
-68.436	132.488	0.087	0.111
-67.422	-200.000	-0.011	0.106
-66.407	88.182	-0.154	-0.169
-65.392	-111.160	0.149	-0.030
-64.378	800.000	0.098	-0.308
-63.363	-5.926	-0.114	0.077
-62.349	232.029	0.090	-0.146
-61.334	216.889	-0.603	-0.952
-60.319	-19.574	0.726	0.445
-59.305	-200.000	-0.032	-0.928
-58.290	406.866	0.457	0.956
-57.276	800.000	0.488	1.426
-56.261	-200.000	96.667	594.438
-55.246	636.917	1398.770	3521.750
-54.232	188.872	2588.813	3841.120
-53.217	109.247	2321.160	2753.727
-52.203	38.675	2077.617	1837.459
-51.188	33.686	1991.560	1716.292
-50.173	32.202	1973.587	1687.419
-49.159	47.296	2022.631	1866.850
-48.144	48.678	2039.499	1894.904
-47.130	34.363	2003.132	1732.147
-46.115	32.057	1991.744	1701.360
-45.100	31.980	1989.090	1698.329
-44.086	31.931	1986.884	1695.934
-43.071	31.861	1984.122	1692.881
-42.057	31.789	1981.586	1689.996
-41.042	31.845	1979.908	1689.004
-40.027	31.886	1977.731	1687.450
-39.013	31.982	1975.483	1686.332
-37.998	31.879	1974.627	1684.603
-36.984	31.951	1972.409	1683.292
-35.969	31.962	1970.121	1681.367
-34.954	31.960	1968.570	1679.962
-33.940	32.005	1967.514	1679.395
-32.925	32.192	1965.378	1679.182
-31.911	32.013	1964.168	1676.476
-30.896	32.044	1962.364	1675.150
-29.881	32.081	1960.908	1674.169
-28.867	32.099	1959.613	1673.155
-27.852	32.067	1957.428	1670.946
-26.838	32.082	1955.380	1669.264
-25.823	32.094	1953.311	1667.535
-24.809	32.092	1951.682	1666.063
-23.794	32.041	1950.438	1664.481
-22.779	32.029	1948.428	1662.596
-21.765	31.972	1946.862	1660.689
-20.750	32.108	1944.514	1659.819
-19.736	32.081	1943.225	1658.415
-18.721	32.077	1941.515	1656.851
-17.706	32.025	1940.646	1655.588
-16.692	31.989	1938.880	1653.701
-15.677	32.013	1937.046	1652.284
-14.663	32.056	1935.641	1651.392
-13.648	32.061	1934.261	1650.192
-12.633	32.103	1933.090	1649.503
-11.619	31.997	1932.250	1647.788
-10.604	32.014	1930.382	1646.283
-9.590	32.010	1929.209	1645.173
-8.575	32.133	1927.214	1644.488
-7.560	32.044	1926.379	1642.931
-6.546	32.005	1925.044	1641.387
-5.531	32.043	1924.084	1640.837
-4.517	32.050	1922.578	1639.548
-3.502	32.057	1921.733	1638.824
-2.487	31.973	1920.556	1637.021
-1.473	32.088	1919.178	1636.781
-0.458	32.166	1914.894	1633.740
0.556	31.466	1896.175	1610.341
1.571	27.818	1877.891	1563.498
2.586	24.147	1901.857	1551.399
3.600	23.372	1938.163	1573.993
4.615	22.713	1932.832	1563.694
5.629	17.680	1831.222	1438.980
6.644	9.349	1713.041	1279.938
7.659	5.420	1677.079	1222.300
8.673	5.080	1674.390	1217.575
9.688	5.028	1672.605	1215.768
10.702	4.932	1671.478	1214.093
11.717	4.880	1667.724	1210.856
12.731	5.337	1667.582	1214.196
13.746	11.161	1680.877	1269.258
14.761	18.016	1695.456	1333.850
15.775	19.358	1696.234	1344.820
16.790	18.261	1693.198	1333.754
17.804	17.276	1689.046	1322.705
18.819	16.100	1686.544	1311.484
19.834	15.560	1683.681	1304.944
20.848	15.344	1681.290	1301.303
21.863	15.092	1680.457	1298.590
22.877	14.742	1679.149	1294.747
23.892	14.599	1677.323	1292.118
24.907	14.494	1676.910	1290.873
25.921	14.482	1675.322	1289.445
26.936	14.489	1674.260	1288.570
27.950	14.509	1673.582	1288.084
28.965	14.595	1672.902	1288.117
29.980	14.682	1671.910	1287.908
30.994	14.644	1671.346	1287.064
32.009	14.751	1669.820	1286.605
33.023	14.867	1669.132	1286.846
34.038	14.826	1668.207	1285.707
35.053	14.731	1667.440	1284.275
36.067	14.719	1665.692	1282.719
37.082	14.668	1664.591	1281.370
38.096	14.640	1663.736	1280.378
39.111	14.714	1662.963	1280.243
40.126	14.782	1661.931	1279.852
41.140	14.661	1661.279	1278.312
42.155	14.535	1660.255	1276.443
43.169	14.519	1658.462	1274.833
44.184	14.429	1656.946	1272.869
45.199	14.398	1655.880	1271.701
46.213	14.421	1654.565	1270.748
47.228	14.457	1653.753	1270.294
48.242	14.540	1652.690	1269.992
49.257	14.634	1651.476	1269.661
50.271	14.639	1649.927	1268.395
51.286	14.587	1649.033	1267.200
52.301	14.678	1647.521	1266.618
53.315	14.658	1645.902	1265.114
54.330	14.586	1644.382	1263.287
55.344	14.585	1642.630	1261.821
56.359	14.487	1642.042	1260.513
57.374	14.490	1640.466	1259.218
58.388	14.471	1639.299	1258.065
59.403	14.395	1638.612	1256.856
60.417	14.387	1637.165	1255.576
61.432	14.400	1635.502	1254.285
62.447	14.351	1634.980	1253.404
63.461	14.315	1633.483	1251.876
64.476	14.253	1632.529	1250.568
65.490	14.131	1631.828	1249.003
66.505	14.342	1629.692	1248.844
67.520	14.276	1629.441	1248.044
68.534	14.291	1628.219	1247.113
69.549	14.301	1627.074	1246.196
70.563	14.281	1626.267	1245.321
71.578	14.364	1624.799	1244.704
72.593	14.343	1623.700	1243.598
73.607	14.348	1622.267	1242.424
74.622	14.228	1621.440	1240.793
75.636	14.224	1620.554	1239.974
76.651	14.207	1620.201	1239.465
77.666	14.300	1618.942	1239.087
78.680	14.226	1618.428	1238.032
79.695	14.268	1617.008	1237.148
80.709	14.306	1616.003	1236.549
81.724	14.334	1615.432	1236.211
82.739	14.410	1614.757	1236.152
83.753	14.576	1613.482	1236.295
84.768	14.492	1613.163	1235.322
85.782	14.593	1612.815	1235.694
86.797	14.536	1611.858	1234.425
87.812	14.627	1610.829	1234.204
88.826	14.597	1609.286	1232.692
89.841	14.608	1607.746	1231.480
90.855	14.592	1606.989	1230.672
91.870	14.623	1605.907	1229.967
92.884	14.686	1604.694	1229.392
93.899	14.705	1603.674	1228.640
94.914	14.603	1603.093	1227.338
95.928	14.678	1601.310	1226.413
96.943	14.753	1600.636	1226.341
97.957	14.780	1599.017	1225.192
98.972	14.613	1597.571	1222.747
99.987	14.589	1595.673	1221.016
101.001	14.590	1594.342	1219.893
102.016	14.648	1592.874	1219.083
103.030	14.604	1591.610	1217.691
104.045	14.693	1590.284	1217.216
105.060	14.692	1588.881	1216.025
106.074	14.692	1587.756	1215.062
107.089	14.590	1585.707	1212.642
108.103	14.462	1584.117	1210.393
109.118	14.389	1583.125	1208.996
110.133	14.334	1581.414	1207.184
111.147	14.368	1580.147	1206.356
112.162	14.357	1579.021	1205.309
113.176	14.370	1577.616	1204.221
114.191	14.463	1576.028	1203.578
115.206	14.520	1575.072	1203.150
116.220	14.555	1573.453	1202.064
117.235	14.546	1572.180	1200.915
118.249	14.422	1571.051	1199.057
119.264	14.530	1569.927	1198.869
120.279	14.359	1568.745	1196.635
121.293	14.381	1567.140	1195.460
122.308	14.404	1565.670	1194.399
123.322	14.363	1564.014	1192.732
124.337	14.420	1562.277	1191.711
125.352	14.450	1561.191	1190.992
126.366	14.350	1560.046	1189.303
127.381	14.339	1559.459	1188.671
128.395	14.272	1558.023	1186.994
129.410	14.311	1556.942	1186.341
130.424	14.441	1555.308	1185.915
131.439	14.426	1553.967	1184.680
132.454	14.426	1553.120	1183.933
133.468	14.504	1551.000	1182.761
134.483	14.394	1550.264	1181.317
135.497	14.509	1548.624	1180.778
136.512	14.511	1547.166	1179.575
137.527	14.469	1545.981	1178.274
138.541	14.518	1544.750	1177.574
139.556	14.561	1543.359	1176.713
140.570	14.605	1541.411	1175.435
141.585	14.638	1540.504	1174.868
142.600	14.635	1539.392	1173.898
143.614	14.713	1538.700	1173.816
144.629	14.694	1537.544	1172.697
145.643	14.788	1536.206	1172.230
146.658	14.775	1534.875	1171.019
147.673	14.809	1532.622	1169.434
148.687	14.644	1531.837	1167.580
149.702	14.630	1530.463	1166.327
150.716	14.709	1528.419	1165.220
151.731	14.671	1526.769	1163.594
152.746	14.673	1525.835	1162.798
153.760	14.673	1524.481	1161.663
154.775	14.658	1523.433	1160.657
155.789	14.740	1522.240	1160.213
156.804	14.780	1520.920	1159.379
157.819	14.794	1519.761	1158.492
158.833	14.789	1518.802	1157.623
159.848	14.794	1517.521	1156.579
160.862	14.889	1516.496	1156.354
161.877	15.005	1514.779	1155.740
162.892	14.925	1513.437	1154.063
163.906	14.725	1512.820	1152.110
164.921	14.713	1510.982	1150.527
165.935	14.782	1509.725	1149.943
166.950	14.799	1509.281	1149.623
167.964	14.837	1507.803	1148.653
168.979	14.815	1506.852	1147.681
169.994	14.787	1506.346	1147.000
171.008	14.803	1504.844	1145.865
172.023	14.864	1503.461	1145.128
173.037	14.865	1502.808	1144.532
174.052	14.929	1501.769	1144.077
175.067	14.988	1500.476	1143.397
176.081	14.912	1499.317	1141.892
177.096	14.793	1498.239	1140.157
178.110	14.796	1496.876	1139.041
179.125	14.792	1495.910	1138.177
180.140	14.881	1494.831	1137.861
181.154	14.885	1493.559	1136.822
182.169	14.948	1492.624	1136.437
183.183	14.886	1491.408	1134.993
184.198	14.996	1490.478	1134.929
185.213	15.042	1489.140	1134.124
186.227	15.049	1488.069	1133.254
187.242	15.097	1487.114	1132.752
188.256	15.065	1485.995	1131.582
189.271	15.210	1485.149	1131.813
190.286	15.202	1483.970	1130.760
191.300	15.085	1482.940	1129.088
192.315	14.995	1481.428	1127.230
193.329	14.812	1479.996	1124.810
194.344	14.876	1478.547	1124.041
195.359	14.927	1477.560	1123.532
196.373	14.952	1476.917	1123.115
197.388	14.958	1476.521	1122.751
198.402	15.112	1474.972	1122.504
199.417	15.214	1473.606	1122.049
200.432	15.234	1473.158	1121.743
201.446	15.325	1472.365	1121.651
202.461	15.348	1471.391	1120.965
203.475	15.360	1469.879	1119.789
204.490	15.471	1468.684	1119.524
205.504	15.350	1467.665	1117.839
206.519	15.346	1466.199	1116.598
207.534	15.372	1465.196	1115.910
208.548	15.241	1464.377	1114.313
209.563	15.342	1463.371	1114.125
210.577	15.367	1462.022	1113.161
211.592	15.284	1461.126	1111.830
212.607	15.375	1460.592	1111.931
213.621	15.479	1460.032	1112.096
214.636	15.427	1459.043	1110.898
215.650	15.466	1457.731	1110.056
216.665	15.337	1457.000	1108.551
217.680	15.373	1456.499	1108.313
218.694	15.528	1455.365	1108.370
219.709	15.615	1454.334	1108.060
220.723	15.597	1453.432	1107.159
221.738	15.561	1452.908	1106.421
222.753	15.541	1451.797	1105.348
223.767	15.637	1450.532	1104.920
224.782	15.489	1450.027	1103.461
225.796	15.577	1449.175	1103.295
226.811	15.605	1448.234	1102.667
227.826	15.830	1447.024	1103.119
228.840	15.635	1446.417	1101.283
229.855	15.653	1445.324	1100.470
230.869	15.537	1444.370	1098.886
231.884	15.606	1443.557	1098.625
232.899	15.589	1442.060	1097.279
233.913	15.560	1440.886	1096.101
234.928	15.499	1439.960	1094.898
235.942	15.548	1438.754	1094.207
236.957	15.478	1437.469	1092.672
237.972	15.488	1436.070	1091.579
238.986	15.510	1435.301	1091.040
240.001	15.529	1434.592	1090.529
241.015	15.631	1433.163	1090.007
242.030	15.599	1432.224	1088.988
243.045	15.698	1431.132	1088.705
244.059	15.730	1430.325	1088.199
245.074	15.765	1429.643	1087.810
246.088	15.735	1428.720	1086.817
247.103	15.638	1428.417	1085.865
248.117	15.814	1427.084	1085.892
249.132	15.820	1426.694	1085.540
250.147	15.788	1426.264	1084.909
251.161	15.895	1425.522	1084.936
252.176	16.076	1424.727	1085.405
253.190	16.148	1423.908	1085.143
254.205	16.089	1423.024	1083.995
255.220	16.251	1421.791	1084.003
256.234	16.251	1421.396	1083.606
257.249	16.291	1420.122	1082.794
258.263	16.294	1419.611	1082.327
259.278	16.275	1418.393	1081.183
260.293	16.295	1417.571	1080.589
261.307	16.311	1416.453	1079.743
262.322	16.246	1416.284	1079.103
263.336	16.350	1415.323	1078.938
264.351	16.384	1414.155	1078.168
265.366	16.414	1412.919	1077.324
266.380	16.388	1412.309	1076.598
267.395	16.416	1411.606	1076.144
268.409	16.435	1410.703	1075.482
269.424	16.390	1409.765	1074.384
270.439	16.319	1408.826	1073.125
271.453	16.415	1407.721	1072.798
272.468	16.326	1406.872	1071.489
273.482	16.302	1406.037	1070.604
274.497	16.306	1405.036	1069.774
275.512	16.350	1403.803	1069.023
276.526	16.309	1403.175	1068.187
277.541	16.308	1402.252	1067.385
278.555	16.358	1401.445	1066.993
279.570	16.411	1400.524	1066.529
280.585	16.399	1400.012	1065.970
281.599	16.451	1399.062	1065.479
282.614	16.551	1398.412	1065.523
283.628	16.562	1397.138	1064.523
284.643	16.413	1396.224	1062.798
285.657	16.478	1394.656	1061.918
286.672	16.386	1394.524	1061.147
287.687	16.384	1393.497	1060.261
288.701	16.532	1392.000	1059.952
289.716	16.558	1391.549	1059.679
290.730	16.641	1390.307	1059.158
291.745	16.641	1388.980	1058.052
292.760	16.609	1388.323	1057.260
293.774	16.639	1387.314	1056.583
294.789	16.644	1386.473	1055.881
295.803	16.628	1385.832	1055.200
296.818	16.704	1384.954	1054.911
297.833	16.682	1383.862	1053.850
298.847	16.644	1382.868	1052.764
299.862	16.702	1381.637	1052.094
300.876	16.709	1381.077	1051.616
301.891	16.677	1380.488	1050.876
302.906	16.651	1379.626	1049.965
303.920	16.780	1378.850	1050.085
304.935	16.859	1378.040	1049.867
305.949	16.895	1377.367	1049.484
306.964	16.924	1376.760	1049.108
307.979	17.022	1375.332	1048.527
308.993	17.039	1374.238	1047.711
310.008	16.884	1373.329	1045.969
311.022	16.883	1372.647	1045.347
312.037	16.900	1371.608	1044.569
313.052	16.980	1370.282	1043.959
314.066	16.869	1370.095	1043.043
315.081	16.876	1368.709	1041.936
316.095	16.866	1367.302	1040.711
317.110	16.843	1366.180	1039.623
318.125	16.840	1365.235	1038.797
319.139	16.759	1364.525	1037.665
320.154	16.845	1363.476	1037.302
321.168	16.825	1362.425	1036.290
322.183	16.815	1361.692	1035.581
323.197	16.901	1360.522	1035.125
324.212	16.907	1359.805	1034.522
325.227	16.978	1359.179	1034.389
326.241	17.066	1358.014	1033.944
327.256	16.943	1357.336	1032.587
328.270	16.924	1356.400	1031.672
329.285	17.004	1355.334	1031.255
330.300	16.933	1354.671	1030.227
331.314	16.950	1353.680	1029.484
332.329	17.026	1352.432	1028.906
333.343	17.013	1351.545	1028.060
334.358	17.052	1350.884	1027.707
335.373	17.106	1350.427	1027.595
336.387	17.118	1349.619	1026.958
337.402	17.099	1348.848	1026.169
338.416	17.165	1348.235	1026.007
339.431	17.242	1347.544	1025.854
340.446	17.192	1347.070	1025.104
341.460	17.285	1345.966	1024.732
342.475	17.320	1344.970	1024.094
343.489	17.486	1343.710	1024.045
344.504	17.457	1343.154	1023.354
345.519	17.414	1342.310	1022.363
346.533	17.517	1341.136	1022.000
347.548	17.492	1340.417	1021.206
348.562	17.598	1339.505	1021.057
349.577	17.510	1339.123	1020.152
350.592	17.569	1338.155	1019.673
351.606	17.443	1337.188	1018.095
352.621	17.282	1336.388	1016.432
353.635	17.370	1334.849	1015.697
354.650	17.382	1334.043	1015.064
355.665	17.359	1332.871	1013.948
356.679	17.412	1331.888	1013.427
357.694	17.459	1330.427	1012.503
358.708	17.527	1329.773	1012.319
359.723	17.484	1328.862	1011.285
360.738	17.488	1327.965	1010.535
361.752	17.546	1326.766	1009.876
362.767	17.520	1325.531	1008.691
363.781	17.492	1324.910	1007.967
364.796	17.608	1324.102	1007.947
365.810	17.557	1323.274	1006.927
366.825	17.601	1322.912	1006.822
367.840	17.640	1322.014	1006.279
368.854	17.848	1321.314	1006.886
369.869	17.787	1320.935	1006.146
370.883	17.806	1320.620	1005.933
371.898	17.842	1319.157	1004.938
372.913	17.798	1318.719	1004.260
373.927	17.719	1317.810	1003.012
374.942	17.741	1317.225	1002.605
375.956	17.832	1316.460	1002.472
376.971	17.801	1315.578	1001.528
377.986	17.907	1314.885	1001.536
379.000	17.808	1314.256	1000.387
380.015	17.893	1313.287	1000.058
381.029	18.063	1312.329	1000.238
382.044	18.049	1311.994	999.809
383.059	18.052	1311.296	999.208
384.073	18.012	1310.440	998.234
385.088	17.998	1309.703	997.503
386.102	18.120	1308.659	997.332
387.117	18.051	1308.165	996.464
388.132	18.088	1307.589	996.153
389.146	17.976	1306.300	994.426
390.161	18.006	1305.636	994.008
391.175	17.933	1304.882	992.922
392.190	17.974	1303.755	992.217
393.205	18.037	1303.035	991.948
394.219	18.098	1301.895	991.344
395.234	18.121	1300.538	990.355
396.248	18.127	1299.493	989.511
397.263	18.046	1298.459	988.167
398.278	18.025	1296.991	986.839
399.292	18.128	1295.876	986.499
400.307	17.976	1295.236	985.046
401.321	17.998	1293.928	984.091
402.336	17.872	1293.196	982.719
403.350	18.028	1291.852	982.510
404.365	17.991	1290.959	981.534
405.380	18.089	1289.898	981.203
406.394	18.104	1288.867	980.415
407.409	18.129	1288.578	980.251
408.423	18.156	1288.121	979.976
409.438	18.264	1287.243	979.839
410.453	18.298	1286.424	979.319
411.467	18.415	1285.435	979.149
412.482	18.456	1285.121	979.061
413.496	18.427	1284.882	978.626
414.511	18.461	1283.848	977.942
415.526	18.547	1282.814	977.563
416.540	18.557	1282.079	976.969
417.555	18.606	1281.352	976.610
418.569	18.536	1281.027	975.878
419.584	18.461	1280.859	975.237
420.599	18.471	1280.086	974.618
421.613	139.154	1431.928	1793.840
422.628	134.022	1454.035	1793.951
