DTS Sentinel unit serial number:	SN413079Multiplexer serial number:	ORYXHardware model number:	OX4-SRSoftware version number:	ORYX F/W v4.00 Oryx Data Collector v3.7.2.0data status	okinstallation	princeton_trtdifferential loss correction	single-endedforward channel	channel 4reverse channel	N/Adate	2019/09/13time	22:53:34forward acquisition time	60.00reverse acquisition time	0.00gamma	496.2192k internal	0.2322k external	0.2322temperature offset calibration	1.0139default loss term (dB/km)	0.3790temperature slope calibration	1.0000multiplexer offset coefficient	1.0000multiplexer slope coefficient	1.0000fibre end	0.00T internal ref (°C)	27.44T ext. ref 1 (°C)	3.22T ext. ref 2 (°C)	21.53length (m)	temperature (°C)	Stokes	anti-Stokes-747.200	-200.000	0.008	0.264
-746.185	-20.574	0.283	0.176
-745.171	-123.643	0.268	0.043
-744.156	-157.212	-0.193	0.012
-743.142	43.543	-0.293	0.271
-742.127	147.717	-0.197	0.268
-741.112	6.196	0.067	-0.050
-740.098	-174.521	-0.307	0.009
-739.083	-9.671	-0.142	-0.095
-738.069	-200.000	0.023	-0.103
-737.054	70.750	0.167	0.174
-736.039	-69.945	0.102	0.039
-735.025	-119.019	0.712	0.126
-734.010	462.090	0.103	-0.233
-732.996	71.812	0.044	-0.047
-731.981	-47.262	-0.429	-0.211
-730.966	794.230	0.072	-0.200
-729.952	45.358	0.176	-0.164
-728.937	374.972	0.049	-0.101
-727.923	800.000	-0.048	0.183
-726.908	800.000	0.011	0.039
-725.894	-162.674	-0.300	-0.015
-724.879	-74.436	0.116	0.042
-723.864	-80.187	-0.123	-0.042
-722.850	125.637	0.205	0.261
-721.835	-133.435	-0.326	-0.041
-720.821	800.000	0.006	0.025
-719.806	-200.000	-0.055	0.350
-718.791	105.240	0.175	-0.208
-717.777	36.463	0.058	0.051
-716.762	5.513	0.170	-0.127
-715.748	55.205	0.271	-0.264
-714.733	800.000	0.037	-0.137
-713.718	594.505	-0.048	-0.120
-712.704	-117.944	0.330	0.060
-711.689	-102.178	0.215	0.052
-710.675	-125.745	-0.347	-0.053
-709.660	157.474	-0.099	0.138
-708.645	-200.000	0.013	0.435
-707.631	28.188	-0.119	-0.101
-706.616	-200.000	-0.013	0.063
-705.602	106.369	-0.099	0.119
-704.587	42.915	-0.285	0.262
-703.572	253.779	-0.077	-0.134
-702.558	75.526	0.131	0.139
-701.543	86.430	-0.104	-0.115
-700.529	52.052	0.319	0.306
-699.514	89.651	-0.222	-0.250
-698.499	53.870	0.366	-0.355
-697.485	-40.988	0.175	0.091
-696.470	442.076	-0.119	0.262
-695.456	-172.327	0.248	0.008
-694.441	-86.859	0.174	0.054
-693.426	-200.000	0.041	0.295
-692.412	-200.000	-0.076	-0.353
-691.397	800.000	0.246	-0.698
-690.383	-200.000	0.040	0.236
-689.368	261.372	0.240	0.419
-688.354	725.695	0.055	0.149
-687.339	800.000	0.039	-0.141
-686.324	-161.056	-0.266	-0.014
-685.310	-108.970	0.246	-0.053
-684.295	800.000	-0.022	-0.096
-683.281	-129.168	0.088	-0.012
-682.266	67.797	0.155	-0.160
-681.251	-200.000	-0.088	-0.462
-680.237	-89.141	0.199	-0.059
-679.222	-200.000	-0.009	-0.266
-678.208	-200.000	0.002	0.165
-677.193	-200.000	-0.032	0.170
-676.178	159.304	0.149	-0.208
-675.164	81.737	0.125	0.136
-674.149	800.000	0.002	0.006
-673.135	16.838	0.142	0.114
-672.120	-159.450	0.130	0.007
-671.105	267.691	-0.016	0.027
-670.091	98.624	0.142	-0.165
-669.076	-126.253	-0.294	0.044
-668.062	326.760	-0.061	-0.118
-667.047	-115.429	-0.190	-0.036
-666.032	-68.923	-0.254	0.099
-665.018	-88.589	0.118	-0.035
-664.003	-41.085	0.329	-0.171
-662.989	-200.000	-0.008	-0.184
-661.974	-85.429	0.095	0.030
-660.959	-200.000	0.029	0.221
-659.945	-82.368	0.223	-0.073
-658.930	-200.000	-0.023	-0.262
-657.916	-146.384	-0.402	-0.035
-656.901	800.000	0.069	0.238
-655.886	87.994	0.126	-0.140
-654.872	557.582	-0.062	-0.151
-653.857	-161.737	0.274	-0.014
-652.843	48.503	-0.034	0.032
-651.828	-27.380	-0.365	0.214
-650.814	208.678	0.138	0.217
-649.799	319.212	-0.109	0.209
-648.784	624.010	0.042	-0.107
-647.770	-66.716	-0.189	-0.075
-646.755	290.349	-0.101	0.185
-645.741	-17.683	-0.155	0.098
-644.726	-100.727	0.204	-0.051
-643.711	-200.000	0.016	-0.108
-642.697	-76.199	0.192	0.068
-641.682	-200.000	0.006	-0.286
-640.668	-13.558	0.317	-0.207
-639.653	-87.877	0.164	0.050
-638.638	248.330	-0.104	-0.177
-637.624	-58.668	-0.087	-0.038
-636.609	-137.981	0.103	0.012
-635.595	-200.000	-0.036	-0.288
-634.580	-1.518	-0.037	0.026
-633.565	179.966	-0.036	0.053
-632.551	-69.333	-0.216	0.083
-631.536	15.025	0.321	-0.253
-630.522	224.813	-0.061	-0.099
-629.507	-200.000	-0.034	-0.337
-628.492	165.480	-0.104	-0.149
-627.478	-97.077	-0.301	-0.079
-626.463	-7.858	0.168	0.114
-625.449	-78.077	0.133	0.046
-624.434	12.913	0.187	-0.146
-623.419	-59.526	-0.391	0.169
-622.405	494.687	0.115	-0.265
-621.390	-72.348	-0.172	0.064
-620.376	134.233	0.132	0.172
-619.361	-131.422	-0.125	-0.017
-618.346	-200.000	0.030	-0.290
-617.332	-108.995	0.136	0.029
-616.317	800.000	-0.157	0.530
-615.303	-137.747	-0.063	0.007
-614.288	800.000	0.099	0.325
-613.273	151.828	0.062	0.085
-612.259	800.000	-0.121	-0.393
-611.244	10.557	0.113	0.087
-610.230	-130.329	0.112	0.015
-609.215	161.838	-0.123	-0.173
-608.201	228.611	-0.207	-0.340
-607.186	156.151	0.301	0.418
-606.171	-109.696	-0.244	0.052
-605.157	-200.000	0.013	0.467
-604.142	800.000	-0.107	0.309
-603.128	-200.000	-0.045	0.369
-602.113	-68.592	0.126	-0.049
-601.098	-42.014	-0.210	0.108
-600.084	62.785	0.085	-0.085
-599.069	542.671	0.088	-0.212
-598.055	-152.528	0.213	-0.015
-597.040	62.988	-0.139	-0.140
-596.025	-200.000	0.038	-0.305
-595.011	61.924	-0.251	0.251
-593.996	-35.492	-0.431	0.235
-592.982	-152.697	0.108	0.008
-591.967	27.737	0.251	-0.213
-590.952	67.585	0.046	-0.047
-589.938	-121.911	-0.212	-0.035
-588.923	93.339	0.134	-0.152
-587.909	4.408	0.217	0.160
-586.894	206.942	-0.220	-0.344
-585.879	77.772	-0.155	0.165
-584.865	-28.706	-0.110	-0.063
-583.850	15.118	-0.025	-0.019
-582.836	-114.373	0.246	-0.048
-581.821	-82.475	0.334	-0.109
-580.806	-200.000	0.023	-0.169
-579.792	-200.000	-0.012	0.305
-578.777	4.705	-0.154	0.114
-577.763	-72.703	0.136	0.050
-576.748	-69.263	0.179	0.069
-575.733	-131.934	-0.409	0.054
-574.719	800.000	-0.055	-0.180
-573.704	17.441	-0.104	-0.083
-572.690	-56.412	-0.185	-0.082
-571.675	59.666	-0.054	-0.053
-570.661	-200.000	0.012	-0.206
-569.646	-173.439	-0.185	0.006
-568.631	-138.041	0.161	0.018
-567.617	197.494	0.131	-0.200
-566.602	-38.389	-0.336	0.179
-565.588	-99.736	-0.190	0.048
-564.573	32.213	0.171	0.148
-563.558	295.813	0.055	-0.101
-562.544	398.983	-0.029	0.061
-561.529	-200.000	0.006	0.255
-560.515	-200.000	-0.098	0.520
-559.500	92.266	0.098	-0.110
-558.485	28.822	-0.176	0.149
-557.471	139.126	-0.097	0.127
-556.456	278.079	-0.071	-0.127
-555.442	122.286	-0.086	0.108
-554.427	-182.228	0.339	-0.006
-553.412	-160.828	-0.360	0.019
-552.398	-69.995	0.204	-0.078
-551.383	261.168	0.036	0.063
-550.369	-42.144	0.257	0.132
-549.354	-42.551	0.165	0.084
-548.339	-45.685	-0.250	-0.124
-547.325	-81.917	-0.179	-0.059
-546.310	1.372	-0.229	-0.165
-545.296	487.361	-0.135	0.309
-544.281	-200.000	-0.005	0.032
-543.266	50.547	-0.187	0.177
-542.252	-200.000	-0.023	-0.419
-541.237	-200.000	-0.024	-0.111
-540.223	68.226	-0.164	-0.169
-539.208	293.561	0.157	-0.288
-538.193	101.217	-0.339	0.396
-537.179	169.420	-0.114	-0.164
-536.164	222.017	-0.145	-0.234
-535.150	-77.505	-0.148	-0.051
-534.135	-61.136	-0.244	-0.103
-533.121	-8.471	-0.129	-0.087
-532.106	800.000	0.033	-0.142
-531.091	800.000	-0.037	-0.141
-530.077	-17.072	0.166	-0.105
-529.062	-40.416	-0.239	-0.124
-528.048	-170.606	-0.167	0.006
-527.033	-64.461	-0.277	-0.113
-526.018	-102.059	0.113	0.027
-525.004	-200.000	-0.102	0.470
-523.989	10.907	-0.113	-0.087
-522.975	-200.000	-0.052	-0.306
-521.960	-137.516	0.150	-0.017
-520.945	-23.640	-0.268	-0.161
-519.931	30.193	0.140	0.119
-518.916	-200.000	-0.036	-0.408
-517.902	-184.833	-0.188	0.003
-516.887	-200.000	-0.047	0.214
-515.872	-200.000	0.001	-0.221
-514.858	180.529	0.084	0.124
-513.843	-200.000	0.014	0.090
-512.829	136.373	0.184	0.240
-511.814	-118.468	0.173	0.031
-510.799	97.677	0.206	-0.237
-509.785	359.962	-0.055	-0.111
-508.770	-52.327	0.130	-0.061
-507.756	139.224	0.184	-0.242
-506.741	-22.546	-0.209	-0.126
-505.726	-200.000	-0.006	-0.284
-504.712	800.000	0.076	-0.333
-503.697	800.000	-0.153	-0.472
-502.683	530.792	-0.074	-0.176
-501.668	-73.206	-0.411	-0.151
-500.653	-4.725	0.289	0.200
-499.639	-200.000	-0.037	0.332
-498.624	-200.000	0.007	0.051
-497.610	-200.000	-0.001	-0.208
-496.595	423.411	-0.091	0.195
-495.581	-200.000	0.035	0.231
-494.566	800.000	0.040	-0.142
-493.551	-91.387	-0.262	0.075
-492.537	525.812	-0.101	-0.237
-491.522	203.833	0.136	-0.211
-490.508	543.418	0.105	-0.252
-489.493	529.494	-0.059	-0.139
-488.478	-75.134	0.146	0.052
-487.464	-200.000	-0.063	-0.375
-486.449	218.936	0.096	-0.154
-485.435	-92.759	-0.355	0.099
-484.420	-74.302	-0.312	0.113
-483.405	182.322	-0.203	-0.299
-482.391	127.093	-0.220	0.279
-481.376	-200.000	0.022	-0.229
-480.362	23.712	-0.050	-0.041
-479.347	800.000	0.030	-0.087
-478.332	575.810	0.072	-0.176
-477.318	-99.816	-0.090	0.023
-476.303	800.000	0.019	0.065
-475.289	-15.681	-0.305	-0.195
-474.274	-52.244	0.221	-0.102
-473.259	-133.387	0.066	0.008
-472.245	-182.168	0.149	0.003
-471.230	-5.826	0.138	-0.094
-470.216	341.516	-0.166	-0.323
-469.201	-122.058	0.225	-0.037
-468.186	-200.000	0.013	0.091
-467.172	-200.000	-0.022	0.272
-466.157	-175.302	-0.171	0.005
-465.143	-157.440	0.173	0.010
-464.128	-52.059	0.263	-0.122
-463.113	-157.870	-0.035	-0.002
-462.099	65.316	0.157	0.159
-461.084	-99.986	-0.184	-0.046
-460.070	-78.558	-0.415	-0.142
-459.055	218.202	0.043	0.069
-458.040	13.254	-0.334	-0.259
-457.026	-48.625	0.331	-0.159
-456.011	-174.166	0.360	0.010
-454.997	-200.000	0.065	0.481
-453.982	-68.112	0.365	0.142
-452.968	-200.000	-0.042	0.249
-451.953	625.668	0.059	-0.148
-450.938	-3.825	0.070	-0.048
-449.924	-56.944	-0.311	0.137
-448.909	107.048	-0.139	-0.165
-447.895	800.000	0.036	-0.108
-446.880	800.000	-0.108	0.360
-445.865	-131.899	-0.410	0.053
-444.851	-176.959	0.378	0.010
-443.836	-200.000	-0.016	-0.172
-442.822	1.203	-0.320	0.229
-441.807	-184.378	-0.189	0.003
-440.792	-200.000	0.008	0.121
-439.778	-200.000	-0.005	0.124
-438.763	-68.237	-0.196	0.076
-437.749	-56.545	0.093	-0.041
-436.734	-133.841	0.210	-0.026
-435.719	-122.231	-0.118	0.019
-434.705	-87.873	-0.270	0.081
-433.690	189.502	-0.195	-0.292
-432.676	472.066	0.215	-0.483
-431.661	102.909	-0.031	-0.036
-430.646	-87.397	-0.397	0.120
-429.632	-121.894	-0.174	-0.029
-428.617	316.399	-0.168	-0.317
-427.603	-63.951	0.168	0.069
-426.588	678.763	-0.086	0.224
-425.573	-113.281	0.333	0.065
-424.559	-166.388	0.300	-0.013
-423.544	232.589	-0.172	0.281
-422.530	-200.000	0.014	0.228
-421.515	575.518	-0.060	0.146
-420.500	99.698	-0.171	-0.198
-419.486	114.140	-0.037	0.045
-418.471	800.000	0.116	0.400
-417.457	445.200	0.095	0.208
-416.442	15.500	0.031	-0.024
-415.428	800.000	-0.108	0.458
-414.413	34.164	0.218	-0.190
-413.398	-97.460	0.286	-0.074
-412.384	-38.099	-0.231	0.122
-411.369	-200.000	-0.040	0.231
-410.355	-21.051	0.253	0.155
-409.340	800.000	-0.020	0.081
-408.325	-200.000	0.010	0.209
-407.311	54.529	0.009	0.009
-406.296	-115.295	0.123	0.023
-405.282	-200.000	-0.048	0.220
-404.267	-67.970	0.242	0.094
-403.252	-200.000	0.002	-0.301
-402.238	-51.168	0.188	-0.088
-401.223	97.338	-0.155	0.177
-400.209	-188.812	0.185	0.002
-399.194	-200.000	-0.016	-0.215
-398.179	115.097	-0.319	0.388
-397.165	800.000	0.116	0.349
-396.150	-133.906	-0.268	-0.033
-395.136	800.000	-0.054	-0.208
-394.121	340.448	0.084	-0.163
-393.106	-200.000	-0.011	-0.181
-392.092	800.000	-0.023	-0.098
-391.077	-200.000	0.078	0.496
-390.063	196.549	-0.182	-0.276
-389.048	-180.663	-0.231	0.005
-388.033	45.006	-0.124	-0.113
-387.019	21.634	-0.166	0.134
-386.004	100.036	-0.027	-0.032
-384.990	-200.000	0.016	0.191
-383.975	138.254	0.265	-0.347
-382.960	800.000	-0.060	-0.198
-381.946	-200.000	-0.005	-0.131
-380.931	-138.818	0.222	0.024
-379.917	-116.407	-0.101	-0.019
-378.902	-40.949	0.100	0.051
-377.888	66.316	0.267	0.270
-376.873	-169.358	-0.278	0.010
-375.858	-68.061	0.331	-0.128
-374.844	76.338	-0.117	-0.123
-373.829	120.486	0.051	-0.063
-372.815	43.714	-0.259	-0.236
-371.800	98.572	0.254	-0.291
-370.785	-131.421	0.186	-0.024
-369.771	-200.000	-0.043	0.412
-368.756	800.000	-0.083	-0.279
-367.742	-110.460	0.234	0.048
-366.727	800.000	-0.147	-0.423
-365.712	-56.899	-0.007	0.003
-364.698	-200.000	-0.134	0.000
-363.683	311.375	-0.136	-0.254
-362.669	-138.157	0.371	0.041
-361.654	161.137	0.259	-0.360
-360.639	17.242	-0.281	-0.222
-359.625	-200.000	0.008	0.153
-358.610	-200.000	-0.000	-0.097
-357.596	-157.569	0.228	-0.014
-356.581	-96.333	0.169	-0.045
-355.566	-155.104	0.116	0.008
-354.552	-170.551	0.153	0.005
-353.537	800.000	-0.031	-0.091
-352.523	-78.535	-0.223	0.076
-351.508	220.768	0.153	-0.244
-350.493	800.000	0.069	-0.211
-349.479	-200.000	0.029	0.424
-348.464	-200.000	0.022	-0.217
-347.450	509.114	0.035	-0.080
-346.435	-200.000	0.005	0.398
-345.420	148.409	0.144	0.194
-344.406	-165.977	-0.421	0.018
-343.391	4.844	0.180	-0.132
-342.377	-200.000	-0.029	0.273
-341.362	7.236	0.118	0.087
-340.348	-200.000	-0.053	-0.445
-339.333	-186.048	-0.286	0.004
-338.318	-200.000	-0.058	-0.347
-337.304	13.885	-0.204	-0.158
-336.289	46.637	0.161	-0.148
-335.275	-200.000	-0.014	0.177
-334.260	-200.000	-0.006	0.033
-333.245	26.137	0.176	0.146
-332.231	57.073	-0.393	-0.381
-331.216	-200.000	0.045	-0.420
-330.202	800.000	-0.030	0.114
-329.187	-200.000	0.021	-0.210
-328.172	9.317	0.268	-0.202
-327.158	31.529	-0.263	0.225
-326.143	800.000	0.077	-0.261
-325.129	-200.000	-0.022	-0.195
-324.114	66.220	0.158	-0.159
-323.099	-80.550	-0.061	0.020
-322.085	-12.740	-0.113	0.073
-321.070	305.095	-0.113	-0.208
-320.056	-51.007	0.199	0.093
-319.041	-200.000	-0.015	0.296
-318.026	-82.482	-0.583	0.188
-317.012	-154.303	0.047	0.003
-315.997	-30.373	0.115	-0.065
-314.983	154.172	0.060	0.082
-313.968	155.066	0.235	-0.321
-312.953	800.000	-0.065	-0.260
-311.939	1.979	-0.187	-0.134
-310.924	350.369	-0.229	0.451
-309.910	602.446	-0.107	0.264
-308.895	-67.226	0.082	-0.032
-307.880	-200.000	-0.009	-0.256
-306.866	800.000	-0.008	0.028
-305.851	-73.357	0.163	-0.059
-304.837	-200.000	-0.051	0.232
-303.822	-200.000	0.007	0.125
-302.807	70.447	-0.053	-0.054
-301.793	-74.528	0.257	-0.092
-300.778	304.033	-0.030	-0.055
-299.764	-128.446	0.325	-0.046
-298.749	-200.000	0.034	0.172
-297.735	-200.000	0.006	0.240
-296.720	-91.144	0.255	-0.073
-295.705	-82.164	-0.371	-0.120
-294.691	-92.311	-0.175	-0.049
-293.676	-148.838	0.168	-0.014
-292.662	-52.513	-0.198	0.091
-291.647	163.602	0.146	-0.205
-290.632	-176.120	-0.035	0.001
-289.618	-50.342	0.071	-0.034
-288.603	201.506	-0.216	-0.331
-287.589	-13.387	0.070	0.045
-286.574	-157.868	0.282	-0.017
-285.559	-200.000	0.093	0.462
-284.545	-25.006	0.151	0.089
-283.530	151.232	0.180	0.244
-282.516	30.448	-0.221	0.187
-281.501	-200.000	0.014	0.074
-280.486	458.287	0.150	0.331
-279.472	-121.028	0.464	0.077
-278.457	105.810	-0.188	0.221
-277.443	-0.980	0.129	0.091
-276.428	100.922	0.101	0.116
-275.413	127.581	-0.110	0.139
-274.399	170.168	0.224	0.318
-273.384	-109.395	-0.214	0.045
-272.370	47.290	-0.131	0.121
-271.355	-200.000	-0.032	0.309
-270.340	-103.743	-0.283	-0.066
-269.326	800.000	0.078	-0.289
-268.311	-200.000	0.035	0.299
-267.297	-29.271	0.195	-0.111
-266.282	-135.208	-0.289	0.034
-265.267	800.000	0.023	-0.098
-264.253	-109.494	-0.186	0.039
-263.238	800.000	0.034	0.103
-262.224	138.521	-0.174	0.226
-261.209	-53.877	0.384	0.174
-260.195	462.199	-0.088	0.196
-259.180	800.000	-0.026	-0.096
-258.165	239.328	0.031	-0.051
-257.151	-79.846	0.129	-0.043
-256.136	174.404	-0.031	0.045
-255.122	-30.988	-0.183	0.103
-254.107	-181.695	0.234	0.004
-253.092	800.000	-0.092	0.354
-252.078	-83.867	0.287	-0.091
-251.063	800.000	-0.073	0.309
-250.049	-200.000	-0.002	-0.043
-249.034	-31.204	0.405	0.226
-248.019	114.968	0.104	0.125
-247.005	-200.000	0.010	0.207
-245.990	-86.152	-0.332	0.101
-244.976	-83.139	-0.192	0.061
-243.961	-200.000	0.180	-0.001
-242.946	800.000	0.006	0.019
-241.932	-42.411	0.117	0.059
-240.917	269.457	0.146	0.254
-239.903	-200.000	0.005	-0.115
-238.888	250.615	0.066	0.111
-237.873	15.709	-0.166	0.130
-236.859	-177.735	0.054	0.001
-235.844	-200.000	-0.015	0.131
-234.830	-43.823	-0.297	-0.148
-233.815	-165.029	0.357	0.016
-232.800	267.731	-0.071	-0.123
-231.786	70.313	-0.260	0.266
-230.771	-200.000	0.014	-0.117
-229.757	169.183	-0.023	0.033
-228.742	-190.371	-0.066	0.001
-227.727	-200.000	0.038	0.222
-226.713	-52.118	-0.023	-0.010
-225.698	-200.000	0.077	-0.453
-224.684	-64.686	-0.281	0.113
-223.669	-2.504	0.202	-0.140
-222.655	18.601	-0.041	0.032
-221.640	61.541	0.207	-0.204
-220.625	79.467	0.076	-0.081
-219.611	-46.059	-0.060	0.029
-218.596	282.592	0.113	-0.201
-217.582	-137.337	0.313	0.035
-216.567	-194.918	-0.151	0.001
-215.552	250.721	-0.120	0.203
-214.538	-43.218	-0.044	-0.022
-213.523	-106.340	-0.365	-0.081
-212.509	142.986	0.121	-0.160
-211.494	102.671	0.147	0.170
-210.479	-56.112	0.504	-0.222
-209.465	800.000	0.079	0.295
-208.450	-200.000	-0.020	0.206
-207.436	-85.421	0.361	0.111
-206.421	-134.018	-0.237	-0.029
-205.406	-28.806	-0.096	-0.055
-204.392	-200.000	0.173	0.000
-203.377	4.500	-0.205	-0.148
-202.363	109.587	0.227	-0.269
-201.348	787.788	-0.080	-0.216
-200.333	-181.401	-0.284	-0.006
-199.319	155.519	0.114	-0.155
-198.304	-52.772	0.278	0.127
-197.290	33.075	-0.223	0.192
-196.275	-200.000	0.025	0.123
-195.260	800.000	-0.137	0.398
-194.246	-146.159	-0.261	-0.023
-193.231	-200.000	-0.007	0.047
-192.217	486.109	0.187	0.422
-191.202	-108.678	0.290	-0.061
-190.187	-58.907	0.118	0.051
-189.173	-200.000	-0.032	0.209
-188.158	61.892	0.285	0.281
-187.144	128.754	0.111	-0.140
-186.129	42.703	-0.205	0.185
-185.114	-200.000	-0.027	0.201
-184.100	374.416	0.116	0.233
-183.085	313.003	0.075	-0.139
-182.071	-200.000	-0.018	-0.206
-181.056	545.884	-0.096	-0.226
-180.042	-65.834	0.285	0.113
-179.027	-93.197	0.229	-0.063
-178.012	543.683	-0.081	-0.192
-176.998	-73.530	0.177	-0.064
-175.983	-200.000	0.033	0.615
-174.969	-200.000	-0.020	-0.135
-173.954	29.858	0.047	0.040
-172.939	-22.222	0.233	-0.140
-171.925	-105.055	0.408	0.092
-170.910	-182.205	0.483	0.009
-169.896	-42.192	0.105	-0.053
-168.881	316.603	0.071	0.133
-167.866	-46.414	-0.352	0.171
-166.852	145.400	-0.176	-0.233
-165.837	-47.148	0.129	0.062
-164.823	395.530	0.070	0.144
-163.808	-67.835	0.310	-0.120
-162.793	-200.000	-0.082	-0.453
-161.779	800.000	-0.033	-0.121
-160.764	-121.151	0.306	-0.051
-159.750	-200.000	0.037	0.183
-158.735	-70.366	-0.251	0.094
-157.720	-116.345	0.217	0.040
-156.706	-31.435	-0.198	0.110
-155.691	800.000	-0.039	-0.114
-154.677	-128.630	0.356	-0.050
-153.662	714.306	-0.126	0.329
-152.647	-28.920	0.296	0.168
-151.633	-200.000	-0.012	-0.300
-150.618	800.000	0.033	-0.104
-149.604	-17.606	0.195	0.121
-148.589	-103.964	0.335	0.077
-147.574	-62.899	0.161	0.066
-146.560	-50.085	0.154	0.072
-145.545	-109.318	0.060	0.013
-144.531	641.688	-0.054	-0.136
-143.516	-143.657	0.203	-0.019
-142.502	800.000	0.053	0.177
-141.487	800.000	-0.040	0.150
-140.472	-200.000	-0.030	-0.224
-139.458	403.290	0.092	0.190
-138.443	4.991	0.027	0.020
-137.429	-132.934	0.192	0.024
-136.414	515.255	0.070	-0.161
-135.399	58.428	0.128	0.123
-134.385	-200.000	0.000	-0.178
-133.370	703.048	0.045	0.118
-132.356	-103.692	-0.240	0.055
-131.341	172.958	0.062	-0.087
-130.326	176.003	-0.075	-0.108
-129.312	50.067	-0.110	0.102
-128.297	132.043	-0.097	-0.124
-127.283	-200.000	0.010	0.084
-126.268	148.300	-0.145	0.193
-125.253	-71.670	-0.241	-0.089
-124.239	-200.000	0.034	-0.386
-123.224	-200.000	0.001	0.306
-122.210	231.381	0.042	-0.067
-121.195	-28.746	0.117	-0.066
-120.180	800.000	0.069	0.228
-119.166	-21.599	-0.113	-0.068
-118.151	44.612	0.073	-0.066
-117.137	129.111	-0.285	0.359
-116.122	213.622	0.095	0.147
-115.107	-102.291	0.338	-0.080
-114.093	800.000	-0.018	0.058
-113.078	26.168	-0.075	0.062
-112.064	200.131	-0.068	0.103
-111.049	-145.868	0.249	-0.022
-110.034	-41.748	-0.152	0.077
-109.020	17.971	0.080	0.063
-108.005	-200.000	0.030	-0.165
-106.991	-173.324	0.227	0.007
-105.976	-9.596	-0.227	0.149
-104.962	42.274	-0.175	0.156
-103.947	25.934	0.109	0.089
-102.932	-200.000	-0.002	-0.151
-101.918	-150.448	-0.179	0.014
-100.903	800.000	-0.046	-0.152
-99.889	80.145	0.077	-0.081
-98.874	-107.567	0.502	0.108
-97.859	133.231	-0.072	-0.092
-96.845	253.315	-0.175	0.294
-95.830	-160.614	0.241	0.013
-94.816	240.069	0.118	0.193
-93.801	-11.966	0.149	-0.096
-92.786	-95.213	-0.252	-0.067
-91.772	94.628	0.091	0.102
-90.757	763.315	0.030	0.079
-89.743	709.433	-0.058	-0.152
-88.728	800.000	0.132	-0.401
-87.713	-107.522	-0.149	0.032
-86.699	-53.470	-0.056	-0.025
-85.684	437.425	-0.108	-0.231
-84.670	31.070	-0.094	-0.079
-83.655	-56.719	-0.214	0.093
-82.640	-127.397	0.269	-0.039
-81.626	-200.000	-0.034	0.312
-80.611	91.137	-0.218	0.240
-79.597	-83.004	0.267	-0.085
-78.582	-200.000	0.042	0.244
-77.567	-110.695	0.160	0.032
-76.553	-81.621	0.187	0.061
-75.538	-200.000	0.001	-0.145
-74.524	800.000	0.133	-0.539
-73.509	800.000	0.084	-0.253
-72.494	155.191	0.144	-0.195
-71.480	-50.578	0.365	-0.169
-70.465	26.060	0.234	-0.192
-69.451	-26.492	-0.219	-0.127
-68.436	-83.301	-0.149	0.047
-67.422	-175.740	0.450	0.012
-66.407	255.789	-0.077	0.130
-65.392	41.648	0.180	0.160
-64.378	800.000	-0.090	0.248
-63.363	-51.014	-0.174	0.081
-62.349	800.000	0.040	0.127
-61.334	28.236	-1.148	-0.954
-60.319	-65.476	0.795	0.314
-59.305	583.980	-0.385	-0.931
-58.290	162.501	0.973	1.343
-57.276	800.000	0.519	1.794
-56.261	-200.000	115.048	669.131
-55.246	542.631	1518.412	3562.122
-54.232	175.626	2694.702	3843.939
-53.217	100.371	2320.565	2649.066
-52.203	34.032	2066.362	1770.473
-51.188	29.307	1980.312	1654.392
-50.173	27.830	1963.487	1627.117
-49.159	46.344	2022.664	1844.118
-48.144	45.220	2038.484	1848.307
-47.130	29.831	1997.039	1672.841
-46.115	27.472	1986.940	1643.063
-45.100	27.425	1983.364	1639.617
-44.086	27.379	1981.512	1637.607
-43.071	27.263	1978.772	1634.238
-42.057	27.290	1976.874	1632.851
-41.042	27.359	1975.131	1631.960
-40.027	27.288	1973.466	1629.889
-39.013	27.296	1971.490	1628.260
-37.998	27.341	1969.442	1626.904
-36.984	27.396	1967.888	1626.045
-35.969	27.327	1966.097	1623.890
-34.954	27.381	1964.420	1622.920
-33.940	27.497	1962.346	1622.177
-32.925	27.450	1961.247	1620.788
-31.911	27.446	1959.843	1619.528
-30.896	27.442	1957.625	1617.596
-29.881	27.474	1956.009	1616.481
-28.867	27.509	1954.400	1615.392
-27.852	27.488	1953.096	1614.069
-26.838	27.497	1951.165	1612.484
-25.823	27.440	1949.627	1610.645
-24.809	27.555	1947.244	1609.630
-23.794	27.471	1945.707	1607.553
-22.779	27.466	1943.441	1605.575
-21.765	27.442	1942.280	1604.336
-20.750	27.521	1939.732	1602.865
-19.736	27.465	1938.711	1601.462
-18.721	27.529	1937.349	1600.843
-17.706	27.494	1935.647	1599.065
-16.692	27.432	1934.163	1597.233
-15.677	27.429	1932.984	1596.164
-14.663	27.499	1931.489	1595.477
-13.648	27.430	1930.612	1594.089
-12.633	27.441	1928.318	1592.232
-11.619	27.394	1927.678	1591.222
-10.604	27.468	1925.944	1590.377
-9.590	27.387	1925.009	1588.839
-8.575	27.401	1923.263	1587.455
-7.560	27.444	1922.199	1586.889
-6.546	27.440	1920.774	1585.611
-5.531	27.406	1919.085	1583.858
-4.517	27.435	1918.267	1583.372
-3.502	27.453	1917.525	1582.855
-2.487	27.357	1916.665	1581.248
-1.473	27.457	1915.182	1580.827
-0.458	27.391	1910.545	1576.365
0.556	28.261	1889.486	1547.261
1.571	23.672	1870.870	1493.379
2.586	19.627	1893.174	1476.553
3.600	18.553	1928.022	1494.246
4.615	18.024	1920.914	1484.009
5.629	13.756	1820.357	1370.999
6.644	6.703	1707.118	1230.759
7.659	3.466	1674.371	1182.259
8.673	3.269	1671.248	1178.439
9.688	3.180	1670.147	1176.880
10.702	3.167	1668.844	1175.755
11.717	3.285	1664.933	1173.796
12.731	3.661	1663.820	1175.770
13.746	8.479	1675.087	1220.492
14.761	16.137	1692.429	1291.891
15.775	20.285	1698.600	1328.306
16.790	20.486	1698.196	1329.416
17.804	19.593	1695.069	1320.026
18.819	18.623	1692.099	1310.195
19.834	18.036	1689.496	1303.587
20.848	17.802	1687.986	1300.520
21.863	17.752	1687.090	1299.332
22.877	17.436	1685.780	1295.807
23.892	17.210	1684.688	1293.132
24.907	17.161	1683.434	1291.681
25.921	17.182	1681.932	1290.571
26.936	17.221	1681.103	1290.122
27.950	17.114	1680.403	1288.655
28.965	17.214	1680.101	1289.068
29.980	17.275	1678.980	1288.553
30.994	17.461	1677.580	1288.775
32.009	17.520	1676.718	1288.449
33.023	17.551	1676.359	1288.294
34.038	17.647	1674.879	1287.765
35.053	17.520	1673.976	1285.996
36.067	17.428	1672.608	1284.138
37.082	17.361	1671.991	1283.048
38.096	17.474	1670.278	1282.471
39.111	17.383	1669.996	1281.455
40.126	17.492	1669.240	1281.580
41.140	17.525	1668.022	1280.780
42.155	17.253	1666.494	1277.451
43.169	17.033	1664.610	1274.239
44.184	17.039	1663.613	1273.413
45.199	17.019	1662.530	1272.318
46.213	16.966	1661.202	1270.794
47.228	17.024	1660.240	1270.381
48.242	17.146	1658.965	1270.207
49.257	17.345	1657.956	1270.805
50.271	17.178	1657.375	1268.997
51.286	17.314	1655.500	1268.467
52.301	17.338	1653.996	1267.380
53.315	17.316	1652.828	1266.210
54.330	17.215	1651.287	1264.163
55.344	17.119	1649.509	1261.978
56.359	17.056	1647.913	1260.179
57.374	17.080	1647.013	1259.559
58.388	17.123	1645.530	1258.633
59.403	16.980	1644.943	1257.014
60.417	16.986	1643.098	1255.537
61.432	17.006	1641.859	1254.623
62.447	16.929	1641.080	1253.352
63.461	16.878	1640.088	1252.107
64.476	16.857	1638.619	1250.715
65.490	16.935	1636.988	1249.935
66.505	16.740	1636.583	1248.077
67.520	16.819	1634.905	1247.272
68.534	16.823	1634.037	1246.530
69.549	16.857	1633.069	1245.932
70.563	16.880	1631.687	1244.932
71.578	16.814	1630.093	1243.125
72.593	16.778	1629.590	1242.366
73.607	16.737	1628.393	1241.042
74.622	16.673	1627.527	1239.803
75.636	16.658	1626.606	1238.884
76.651	16.652	1625.741	1238.072
77.666	16.669	1625.237	1237.700
78.680	16.641	1624.379	1236.736
79.695	16.854	1622.859	1237.021
80.709	16.815	1621.656	1235.711
81.724	16.895	1621.663	1236.190
82.739	17.064	1620.281	1236.258
83.753	17.072	1619.663	1235.734
84.768	17.161	1618.700	1235.536
85.782	17.275	1618.166	1235.848
86.797	17.344	1617.975	1236.096
87.812	17.445	1616.835	1235.849
88.826	17.350	1615.268	1233.856
89.841	17.309	1613.759	1232.293
90.855	17.389	1612.555	1231.844
91.870	17.345	1612.414	1231.309
92.884	17.360	1611.368	1230.514
93.899	17.455	1610.412	1230.359
94.914	17.460	1609.563	1229.635
95.928	17.572	1607.669	1228.888
96.943	17.572	1606.581	1227.947
97.957	17.493	1605.139	1226.173
98.972	17.453	1602.956	1224.109
99.987	17.390	1601.887	1222.732
101.001	17.361	1600.444	1221.312
102.016	17.409	1598.794	1220.291
103.030	17.274	1597.951	1218.566
104.045	17.309	1596.710	1217.768
105.060	17.405	1594.659	1216.782
106.074	17.286	1593.358	1214.829
107.089	17.211	1591.564	1212.818
108.103	16.977	1589.955	1209.813
109.118	16.852	1588.443	1207.667
110.133	16.830	1587.302	1206.538
111.147	16.828	1585.605	1205.129
112.162	16.894	1584.534	1204.676
113.176	16.889	1583.330	1203.621
114.191	16.964	1581.843	1202.916
115.206	17.022	1580.658	1202.315
116.220	16.996	1579.699	1201.295
117.235	16.975	1578.011	1199.758
118.249	17.011	1576.690	1198.900
119.264	16.958	1575.138	1197.240
120.279	16.911	1573.993	1195.932
121.293	16.856	1571.896	1193.848
122.308	16.898	1569.986	1192.588
123.322	16.852	1568.499	1191.031
124.337	16.730	1567.121	1189.022
125.352	16.581	1566.435	1187.347
126.366	16.648	1565.228	1186.798
127.381	16.660	1563.613	1185.554
128.395	16.727	1562.880	1185.361
129.410	16.716	1561.143	1183.860
130.424	16.708	1559.957	1182.801
131.439	16.825	1558.895	1182.710
132.454	16.805	1557.663	1181.529
133.468	16.908	1555.924	1180.824
134.483	16.913	1555.134	1180.152
135.497	17.012	1553.779	1179.708
136.512	17.057	1551.644	1178.297
137.527	16.972	1551.114	1177.204
138.541	17.058	1549.666	1176.594
139.556	17.070	1548.366	1175.585
140.570	17.115	1546.648	1174.488
141.585	17.151	1545.872	1174.044
142.600	17.229	1545.056	1173.863
143.614	17.288	1543.960	1173.328
144.629	17.326	1542.580	1172.438
145.643	17.439	1541.163	1172.035
146.658	17.443	1540.202	1171.233
147.673	17.436	1538.281	1169.615
148.687	17.292	1536.935	1167.499
149.702	17.198	1535.312	1165.522
150.716	17.161	1533.501	1163.786
151.731	17.126	1532.232	1162.484
152.746	17.054	1530.947	1160.913
153.760	17.143	1529.614	1160.408
154.775	17.102	1528.868	1159.459
155.789	17.271	1527.189	1159.234
156.804	17.390	1525.909	1158.972
157.819	17.357	1524.677	1157.713
158.833	17.260	1524.221	1156.604
159.848	17.447	1522.354	1156.356
160.862	17.545	1521.177	1156.021
161.877	17.646	1519.829	1155.578
162.892	17.457	1519.091	1153.637
163.906	17.238	1517.452	1150.805
164.921	17.125	1515.996	1148.835
165.935	17.038	1514.917	1147.329
166.950	17.165	1513.677	1147.147
167.964	17.169	1512.740	1146.362
168.979	17.352	1512.168	1147.058
169.994	17.257	1510.839	1145.314
171.008	17.247	1509.629	1144.223
172.023	17.271	1508.852	1143.694
173.037	17.403	1507.151	1143.195
174.052	17.437	1506.377	1142.733
175.067	17.558	1505.535	1142.803
176.081	17.337	1504.559	1140.480
177.096	17.268	1502.925	1138.678
178.110	17.125	1501.606	1136.622
179.125	17.209	1500.438	1136.203
180.140	17.218	1499.997	1135.824
181.154	17.278	1498.650	1135.104
182.169	17.386	1497.458	1134.826
183.183	17.445	1496.721	1134.560
184.198	17.505	1495.949	1134.271
185.213	17.589	1494.705	1133.788
186.227	17.604	1493.587	1132.940
187.242	17.581	1492.301	1131.709
188.256	17.664	1491.339	1131.434
189.271	17.729	1490.257	1130.943
190.286	17.780	1489.611	1130.688
191.300	17.686	1488.055	1128.783
192.315	17.495	1486.137	1125.970
193.329	17.137	1485.160	1122.765
194.344	17.104	1484.639	1122.051
195.359	17.261	1483.423	1122.069
196.373	17.370	1482.603	1122.069
197.388	17.480	1481.067	1121.534
198.402	17.544	1480.082	1121.110
199.417	17.694	1479.318	1121.418
200.432	17.773	1478.818	1121.459
201.446	17.885	1477.956	1121.438
202.461	17.993	1476.721	1121.110
203.475	17.987	1476.167	1120.551
204.490	18.013	1475.065	1119.791
205.504	17.966	1473.667	1118.322
206.519	17.781	1472.526	1116.143
207.534	17.753	1471.455	1115.054
208.548	17.700	1470.156	1113.625
209.563	17.673	1468.698	1112.245
210.577	17.723	1467.929	1111.889
211.592	17.748	1467.371	1111.530
212.607	17.828	1466.207	1111.070
213.621	17.853	1466.064	1111.026
214.636	18.022	1464.967	1111.200
215.650	17.894	1463.939	1109.487
216.665	17.943	1463.153	1109.111
217.680	17.933	1462.138	1108.177
218.694	18.079	1461.508	1108.552
219.709	18.242	1460.728	1108.920
220.723	18.155	1459.574	1107.381
221.738	18.147	1458.496	1106.414
222.753	18.035	1458.314	1105.450
223.767	17.964	1457.090	1103.969
224.782	17.942	1455.980	1102.884
225.796	18.168	1454.941	1103.457
226.811	18.242	1454.240	1103.310
227.826	18.304	1453.419	1102.985
228.840	18.137	1452.743	1101.298
229.855	18.050	1451.375	1099.606
230.869	18.022	1450.950	1099.007
231.884	17.983	1449.778	1097.770
232.899	18.126	1448.136	1097.348
233.913	18.062	1446.751	1095.795
234.928	18.020	1445.867	1094.754
235.942	17.829	1444.708	1092.559
236.957	17.754	1443.730	1091.240
237.972	17.924	1442.120	1091.015
238.986	17.834	1441.201	1089.647
240.001	17.887	1439.867	1088.885
241.015	17.883	1439.442	1088.436
242.030	17.984	1437.670	1087.645
243.045	17.942	1437.275	1086.985
244.059	18.055	1435.766	1086.467
245.074	18.103	1435.374	1086.377
246.088	18.026	1435.237	1085.688
247.103	18.190	1433.951	1085.661
248.117	18.167	1433.574	1085.135
249.132	18.334	1432.695	1085.429
250.147	18.479	1432.232	1085.901
251.161	18.694	1431.522	1086.628
252.176	18.757	1430.828	1086.402
253.190	18.768	1430.684	1086.269
254.205	18.805	1429.547	1085.540
255.220	18.946	1428.518	1085.555
256.234	18.869	1428.186	1084.721
257.249	18.847	1427.133	1083.688
258.263	18.849	1426.134	1082.842
259.278	18.784	1425.261	1081.679
260.293	18.856	1424.250	1081.265
261.307	18.818	1423.573	1080.421
262.322	18.841	1423.088	1080.101
263.336	18.988	1422.394	1080.398
264.351	18.949	1421.382	1079.292
265.366	19.014	1420.224	1078.724
266.380	19.044	1419.085	1077.952
267.395	19.036	1417.691	1076.746
268.409	19.138	1416.781	1076.596
269.424	19.024	1416.069	1075.247
270.439	18.895	1415.365	1073.817
271.453	18.878	1414.133	1072.677
272.468	18.878	1413.326	1071.973
273.482	18.853	1412.466	1071.071
274.497	18.773	1411.600	1069.817
275.512	18.754	1410.794	1068.994
276.526	18.785	1409.784	1068.325
277.541	18.844	1408.515	1067.635
278.555	18.752	1407.904	1066.510
279.570	18.776	1407.436	1066.208
280.585	18.841	1406.410	1065.744
281.599	19.033	1405.772	1066.353
282.614	19.085	1404.737	1065.795
283.628	19.095	1403.317	1064.683
284.643	18.944	1402.362	1062.934
285.657	18.942	1400.937	1061.748
286.672	18.948	1400.257	1061.172
287.687	18.977	1399.156	1060.428
288.701	18.952	1398.806	1059.914
289.716	19.041	1397.869	1059.655
290.730	18.985	1396.710	1058.339
291.745	18.997	1395.979	1057.769
292.760	19.061	1394.600	1057.022
293.774	19.006	1393.914	1056.073
294.789	19.018	1392.926	1055.299
295.803	19.197	1392.404	1055.912
296.818	19.151	1391.636	1054.954
297.833	19.088	1390.157	1053.353
298.847	19.022	1389.366	1052.253
299.862	19.106	1388.200	1051.792
300.876	19.049	1387.271	1050.651
301.891	19.072	1386.208	1049.890
302.906	19.177	1385.824	1050.147
303.920	19.230	1385.092	1049.824
304.935	19.365	1384.233	1049.897
305.949	19.434	1383.611	1049.755
306.964	19.531	1382.752	1049.602
307.979	19.561	1382.157	1049.236
308.993	19.435	1381.015	1047.516
310.008	19.353	1380.090	1046.225
311.022	19.376	1378.811	1045.298
312.037	19.411	1378.320	1045.046
313.052	19.448	1377.577	1044.618
314.066	19.437	1376.402	1043.562
315.081	19.445	1374.369	1041.978
316.095	19.210	1373.680	1039.947
317.110	19.071	1372.749	1038.308
318.125	19.189	1371.282	1037.822
319.139	19.204	1370.708	1037.382
320.154	19.179	1369.697	1036.374
321.168	19.116	1369.217	1035.541
322.183	19.213	1367.954	1035.079
323.197	19.176	1366.946	1034.002
324.212	19.290	1366.170	1034.006
325.227	19.276	1365.656	1033.446
326.241	19.356	1364.901	1033.258
327.256	19.338	1363.446	1031.961
328.270	19.412	1362.583	1031.660
329.285	19.306	1361.759	1030.311
330.300	19.232	1361.016	1029.214
331.314	19.269	1359.890	1028.494
332.329	19.270	1359.322	1027.975
333.343	19.299	1358.300	1027.289
334.358	19.305	1357.651	1026.740
335.373	19.372	1356.996	1026.551
336.387	19.638	1355.852	1027.176
337.402	19.672	1355.063	1026.692
338.416	19.528	1354.876	1025.602
339.431	19.661	1354.165	1025.766
340.446	19.737	1353.537	1025.652
341.460	19.811	1352.673	1025.345
342.475	19.858	1351.402	1024.567
343.489	19.975	1350.660	1024.607
344.504	19.971	1349.912	1023.922
345.519	20.003	1348.864	1023.226
346.533	20.021	1348.290	1022.806
347.548	20.088	1347.476	1022.498
348.562	20.153	1346.479	1022.031
349.577	20.192	1345.543	1021.462
350.592	20.020	1344.986	1019.937
351.606	19.906	1343.718	1018.212
352.621	19.706	1342.318	1015.885
353.635	19.690	1341.413	1015.019
354.650	19.692	1340.654	1014.366
355.665	19.702	1339.621	1013.550
356.679	19.773	1338.407	1012.958
357.694	19.866	1337.359	1012.624
358.708	19.898	1336.524	1012.085
359.723	19.878	1335.489	1011.095
360.738	19.960	1334.546	1010.773
361.752	19.942	1333.597	1009.857
362.767	19.990	1331.757	1008.654
363.781	19.971	1331.338	1008.138
364.796	19.869	1330.891	1007.114
365.810	19.895	1330.181	1006.643
366.825	20.175	1329.327	1007.536
367.840	20.137	1328.956	1006.944
368.854	20.305	1328.484	1007.471
369.869	20.374	1327.930	1007.362
370.883	20.377	1326.913	1006.517
371.898	20.475	1325.650	1006.042
372.913	20.303	1325.124	1004.555
373.927	20.267	1324.261	1003.604
374.942	20.257	1323.687	1003.022
375.956	20.344	1322.868	1002.815
376.971	20.346	1322.194	1002.227
377.986	20.303	1321.516	1001.379
379.000	20.283	1320.264	1000.223
380.015	20.423	1320.039	1000.775
381.029	20.363	1319.435	999.877
382.044	20.612	1318.528	1000.538
383.059	20.697	1317.213	999.940
384.073	20.482	1317.057	998.500
385.088	20.512	1316.436	998.112
386.102	20.553	1315.279	997.379
387.117	20.586	1314.564	996.939
388.132	20.467	1313.995	995.735
389.146	20.378	1313.089	994.451
390.161	20.333	1311.913	993.215
391.175	20.374	1310.891	992.591
392.190	20.234	1310.609	991.486
393.205	20.414	1309.688	991.730
394.219	20.478	1308.624	991.200
395.234	20.610	1307.516	991.028
396.248	20.628	1306.168	990.023
397.263	20.455	1304.581	987.745
398.278	20.431	1303.406	986.632
399.292	20.447	1302.309	985.809
400.307	20.304	1301.500	984.295
401.321	20.197	1300.478	982.831
402.336	20.156	1299.538	981.803
403.350	20.225	1298.191	981.086
404.365	20.278	1297.376	980.682
405.380	20.375	1296.423	980.423
406.394	20.322	1296.128	979.815
407.409	20.477	1294.891	979.664
408.423	20.501	1294.813	979.659
409.438	20.673	1293.908	979.852
410.453	20.742	1293.278	979.680
411.467	20.725	1292.700	979.058
412.482	20.886	1292.385	979.640
413.496	20.935	1291.628	979.256
414.511	20.913	1290.950	978.530
415.526	21.048	1290.144	978.588
416.540	21.015	1289.308	977.684
417.555	21.154	1288.909	978.075
418.569	21.215	1287.860	977.534
419.584	21.056	1287.740	976.467
420.599	20.980	1286.632	975.114
421.613	145.918	1434.298	1797.380
422.628	140.772	1455.773	1797.470
