DTS Sentinel unit serial number:	SN413079Multiplexer serial number:	ORYXHardware model number:	OX4-SRSoftware version number:	ORYX F/W v4.00 Oryx Data Collector v3.7.2.0data status	okinstallation	princeton_trtdifferential loss correction	single-endedforward channel	channel 4reverse channel	N/Adate	2019/09/19time	04:25:35forward acquisition time	60.00reverse acquisition time	0.00gamma	496.2192k internal	0.2340k external	0.2340temperature offset calibration	1.0029default loss term (dB/km)	0.3790temperature slope calibration	1.0000multiplexer offset coefficient	1.0000multiplexer slope coefficient	1.0000fibre end	0.00T internal ref (°C)	20.19T ext. ref 1 (°C)	0.62T ext. ref 2 (°C)	13.26length (m)	temperature (°C)	Stokes	anti-Stokes-747.200	-124.439	0.133	-0.021
-746.185	-78.991	0.149	-0.051
-745.171	57.354	-0.016	0.015
-744.156	-200.000	0.002	0.069
-743.142	377.060	0.071	0.146
-742.127	800.000	-0.063	0.242
-741.112	-110.605	-0.057	0.012
-740.098	-200.000	0.030	0.205
-739.083	-103.132	0.196	0.046
-738.069	800.000	0.064	0.197
-737.054	-106.776	-0.261	0.058
-736.039	415.504	-0.030	-0.065
-735.025	800.000	-0.098	0.342
-734.010	65.315	-0.209	0.212
-732.996	550.501	-0.121	0.290
-731.981	-200.000	-0.003	-0.233
-730.966	260.622	0.059	-0.103
-729.952	23.851	0.123	0.102
-728.937	-37.896	-0.166	-0.088
-727.923	-200.000	-0.005	0.199
-726.908	449.766	-0.139	-0.307
-725.894	-200.000	-0.057	0.283
-724.879	44.297	-0.126	-0.115
-723.864	-5.145	-0.200	0.138
-722.850	99.383	0.052	-0.060
-721.835	-91.439	0.142	-0.041
-720.821	-90.480	-0.387	-0.112
-719.806	-200.000	0.022	-0.210
-718.791	800.000	-0.098	0.368
-717.777	-123.222	0.363	-0.058
-716.762	205.789	0.142	-0.221
-715.748	-107.448	-0.262	-0.058
-714.733	800.000	0.057	-0.173
-713.718	-200.000	-0.062	0.304
-712.704	-118.762	-0.090	0.016
-711.689	-25.164	-0.235	-0.140
-710.675	52.990	0.067	-0.064
-709.660	57.748	-0.379	0.371
-708.645	-68.714	0.043	0.017
-707.631	84.762	-0.062	-0.068
-706.616	-200.000	0.003	0.153
-705.602	-125.124	0.131	-0.020
-704.587	495.209	0.033	0.076
-703.572	-128.434	-0.241	-0.034
-702.558	278.657	0.114	-0.203
-701.543	800.000	-0.083	0.293
-700.529	120.616	0.254	0.316
-699.514	195.728	-0.078	-0.119
-698.499	-31.427	-0.301	-0.169
-697.485	800.000	-0.092	-0.342
-696.470	30.398	-0.170	-0.145
-695.456	-175.281	-0.072	-0.002
-694.441	-80.399	-0.075	-0.025
-693.426	-129.926	-0.072	-0.010
-692.412	316.585	0.147	-0.278
-691.397	33.453	-0.223	0.194
-690.383	-18.369	0.392	-0.245
-689.368	-149.245	-0.452	0.036
-688.354	-114.453	0.032	0.006
-687.339	800.000	0.087	0.344
-686.324	447.389	-0.025	0.055
-685.310	-2.650	0.443	0.310
-684.295	800.000	0.047	-0.204
-683.281	-102.442	0.295	-0.071
-682.266	-88.753	0.131	-0.039
-681.251	670.195	-0.028	0.073
-680.237	800.000	-0.050	-0.163
-679.222	-155.728	-0.182	0.012
-678.208	60.747	-0.021	0.021
-677.193	-41.239	-0.107	-0.055
-676.178	634.779	0.024	-0.060
-675.164	-200.000	0.055	-0.309
-674.149	82.788	-0.227	0.247
-673.135	-69.861	0.216	-0.082
-672.120	-200.000	-0.012	0.096
-671.105	126.546	0.118	-0.150
-670.091	68.745	-0.125	-0.128
-669.076	-56.682	0.216	-0.095
-668.062	-200.000	-0.025	0.193
-667.047	307.135	-0.099	0.185
-666.032	54.083	0.092	-0.088
-665.018	-200.000	0.061	-0.300
-664.003	66.831	0.137	-0.139
-662.989	-33.028	0.097	0.054
-661.974	328.522	-0.187	0.360
-660.959	69.598	-0.127	-0.131
-659.945	-200.000	-0.019	-0.169
-658.930	220.037	-0.103	-0.165
-657.916	779.838	0.079	-0.215
-656.901	-173.251	0.270	-0.008
-655.886	-186.121	-0.222	0.003
-654.872	36.588	-0.227	0.201
-653.857	-17.535	-0.102	-0.064
-652.843	800.000	-0.012	-0.037
-651.828	27.771	-0.216	0.181
-650.814	-200.000	0.040	-0.204
-649.799	179.151	-0.134	-0.197
-648.784	390.823	0.127	-0.264
-647.770	-200.000	-0.003	0.115
-646.755	-200.000	0.016	-0.138
-645.741	800.000	0.157	0.471
-644.726	166.360	0.142	-0.201
-643.711	-27.068	-0.173	-0.101
-642.697	-200.000	0.016	-0.136
-641.682	267.727	-0.095	0.165
-640.668	84.690	-0.111	-0.122
-639.653	-200.000	-0.009	0.079
-638.638	184.021	-0.239	0.354
-637.624	-200.000	-0.054	-0.245
-636.609	-111.891	0.344	0.069
-635.595	-46.965	-0.238	0.116
-634.580	29.007	0.286	0.242
-633.565	28.944	0.180	-0.153
-632.551	800.000	0.083	0.337
-631.536	-200.000	-0.018	-0.152
-630.522	-84.775	-0.018	-0.006
-629.507	-122.103	-0.147	-0.024
-628.492	-200.000	-0.052	0.431
-627.478	-32.459	-0.340	0.189
-626.463	108.722	-0.123	-0.147
-625.449	448.396	0.066	-0.145
-624.434	9.393	-0.388	-0.293
-623.419	-200.000	-0.037	0.301
-622.405	-200.000	0.012	0.162
-621.390	-200.000	0.051	-0.275
-620.376	196.303	-0.121	0.184
-619.361	-113.697	0.173	0.034
-618.346	651.943	-0.154	0.394
-617.332	-131.608	-0.318	0.042
-616.317	-200.000	0.005	-0.288
-615.303	70.036	0.096	-0.099
-614.288	-58.295	-0.282	-0.122
-613.273	422.751	0.091	-0.195
-612.259	14.401	0.141	-0.110
-611.244	349.616	-0.215	-0.423
-610.230	-24.346	-0.065	-0.039
-609.215	321.319	-0.163	0.309
-608.201	-200.000	-0.020	-0.139
-607.186	486.410	0.149	0.338
-606.171	198.565	-0.027	0.041
-605.157	32.964	-0.251	0.217
-604.142	67.433	-0.218	-0.222
-603.128	205.008	0.095	0.147
-602.113	-200.000	-0.041	0.184
-601.098	-200.000	0.006	0.068
-600.084	-167.654	0.265	0.010
-599.069	800.000	0.168	-0.478
-598.055	149.587	-0.086	0.116
-597.040	800.000	-0.064	-0.248
-596.025	-200.000	-0.028	-0.122
-595.011	30.094	-0.277	0.236
-593.996	-154.224	0.157	-0.011
-592.982	-55.253	0.257	0.115
-591.967	-56.530	0.215	-0.095
-590.952	800.000	0.067	-0.238
-589.938	-59.267	0.348	-0.149
-588.923	44.945	0.207	0.190
-587.909	800.000	0.039	-0.145
-586.894	-200.000	-0.054	-0.276
-585.879	-167.092	-0.277	0.011
-584.865	171.421	-0.187	0.268
-583.850	-199.546	-0.415	-0.002
-582.836	-200.000	-0.013	-0.059
-581.821	93.560	0.111	-0.125
-580.806	82.450	0.088	-0.095
-579.792	-200.000	-0.028	-0.135
-578.777	-125.610	0.292	-0.044
-577.763	-200.000	-0.095	-0.523
-576.748	800.000	-0.045	0.154
-575.733	-9.940	0.076	-0.050
-574.719	386.489	-0.127	-0.262
-573.704	122.793	-0.188	0.235
-572.690	-4.325	-0.257	-0.177
-571.675	75.484	0.248	0.261
-570.661	-200.000	-0.024	0.165
-569.646	51.723	-0.371	-0.352
-568.631	122.267	0.099	0.123
-567.617	-200.000	-0.023	0.156
-566.602	25.835	-0.044	0.036
-565.588	-200.000	-0.001	-0.020
-564.573	367.076	-0.074	-0.149
-563.558	-100.557	-0.480	-0.118
-562.544	-200.000	0.024	-0.180
-561.529	18.594	0.120	0.096
-560.515	168.265	-0.090	0.128
-559.500	47.971	-0.201	0.187
-558.485	800.000	-0.025	0.073
-557.471	350.889	0.077	0.152
-556.456	187.830	0.019	-0.028
-555.442	75.053	0.230	-0.241
-554.427	-46.387	0.366	-0.179
-553.412	-156.194	0.053	-0.003
-552.398	800.000	0.076	0.315
-551.383	-92.102	-0.350	0.098
-550.369	391.717	0.102	-0.211
-549.354	-84.474	0.092	-0.029
-548.339	151.805	0.058	0.079
-547.325	-50.380	0.292	-0.137
-546.310	-200.000	-0.031	-0.167
-545.296	80.214	0.145	-0.155
-544.281	78.098	-0.218	-0.231
-543.266	-190.953	-0.165	0.002
-542.252	-118.862	-0.353	-0.062
-541.237	-54.724	-0.397	-0.179
-540.223	482.776	0.101	-0.228
-539.208	406.580	-0.152	-0.320
-538.193	63.108	-0.254	0.253
-537.179	-121.609	0.074	0.012
-536.164	551.496	0.143	-0.342
-535.150	127.398	0.235	0.297
-534.135	-59.784	0.272	0.116
-533.121	127.885	-0.064	-0.081
-532.106	283.982	-0.118	-0.212
-531.091	77.226	-0.095	0.100
-530.077	17.155	0.319	0.252
-529.062	-200.000	0.034	0.253
-528.048	480.836	-0.028	-0.064
-527.033	726.757	0.057	0.151
-526.018	-69.942	-0.321	-0.122
-525.004	-33.280	-0.045	-0.025
-523.989	-200.000	-0.047	0.416
-522.975	210.040	-0.084	-0.130
-521.960	586.963	-0.084	-0.207
-520.945	302.057	0.055	0.101
-519.931	800.000	0.049	0.161
-518.916	-74.829	-0.231	-0.082
-517.902	493.250	0.120	0.274
-516.887	-79.189	0.345	0.116
-515.872	-150.024	-0.180	-0.014
-514.858	37.868	0.320	0.283
-513.843	-116.827	0.208	-0.038
-512.829	-200.000	-0.017	0.251
-511.814	-66.390	0.191	-0.075
-510.799	-135.722	0.118	-0.014
-509.785	34.774	-0.072	0.062
-508.770	-200.000	0.007	0.379
-507.756	195.212	-0.165	-0.249
-506.741	-54.027	0.111	0.050
-505.726	26.413	0.134	0.111
-504.712	-200.000	-0.027	-0.382
-503.697	-64.655	-0.499	-0.201
-502.683	-200.000	0.021	0.235
-501.668	800.000	0.100	0.277
-500.653	79.988	-0.205	0.219
-499.639	-95.247	0.265	0.071
-498.624	463.479	0.126	-0.280
-497.610	-121.629	-0.291	0.048
-496.595	-163.487	-0.389	0.018
-495.581	-200.000	0.396	0.002
-494.566	-114.464	-0.203	0.039
-493.551	57.728	0.209	-0.203
-492.537	-200.000	0.018	0.184
-491.522	800.000	-0.031	-0.086
-490.508	263.560	-0.122	-0.210
-489.493	-200.000	-0.010	0.172
-488.478	-200.000	-0.043	-0.290
-487.464	-10.822	-0.203	0.133
-486.449	-153.109	-0.293	0.020
-485.435	-86.497	-0.250	-0.076
-484.420	-62.601	-0.158	0.065
-483.405	800.000	-0.076	-0.320
-482.391	-106.719	-0.070	0.016
-481.376	800.000	-0.032	0.111
-480.362	-57.429	-0.278	-0.121
-479.347	-58.313	0.149	-0.064
-478.332	-200.000	0.015	0.286
-477.318	208.427	0.181	0.281
-476.303	762.560	0.063	0.170
-475.289	-200.000	0.055	-0.271
-474.274	14.505	0.265	-0.205
-473.259	20.148	-0.140	0.112
-472.245	40.152	-0.023	-0.021
-471.230	-143.376	0.103	0.010
-470.216	18.640	0.214	0.170
-469.201	99.034	0.058	0.066
-468.186	-4.550	-0.210	0.144
-467.172	-200.000	-0.032	-0.305
-466.157	-107.163	0.064	-0.014
-465.143	-67.537	-0.232	0.090
-464.128	278.919	0.161	0.284
-463.113	115.347	-0.191	0.231
-462.099	9.183	-0.368	-0.276
-461.084	-128.717	-0.275	0.038
-460.070	800.000	0.033	0.137
-459.055	171.708	0.098	0.139
-458.040	453.019	-0.095	0.209
-457.026	178.431	-0.067	-0.097
-456.011	430.400	0.026	-0.056
-454.997	-14.258	-0.228	0.146
-453.982	-113.637	-0.297	0.058
-452.968	800.000	-0.107	0.414
-451.953	51.011	0.033	0.031
-450.938	116.804	-0.126	0.153
-449.924	-180.474	0.308	0.006
-448.909	-99.034	0.106	-0.027
-447.895	57.501	0.255	-0.247
-446.880	-200.000	-0.003	0.090
-445.865	443.824	0.126	0.273
-444.851	-116.013	0.207	0.038
-443.836	800.000	-0.036	0.147
-442.822	-39.035	0.260	0.135
-441.807	143.621	0.183	-0.241
-440.792	-200.000	0.003	0.100
-439.778	89.759	0.159	0.176
-438.763	117.911	-0.146	0.178
-437.749	157.263	-0.151	-0.206
-436.734	-102.652	0.230	0.054
-435.719	800.000	-0.035	-0.125
-434.705	11.706	0.078	-0.059
-433.690	10.199	-0.356	0.269
-432.676	-80.786	-0.177	0.058
-431.661	-15.655	0.233	-0.147
-430.646	-149.147	0.453	-0.036
-429.632	800.000	0.044	-0.159
-428.617	47.243	-0.060	0.055
-427.603	410.823	0.153	0.322
-426.588	-86.024	-0.211	0.065
-425.573	-98.974	0.104	0.026
-424.559	67.391	-0.085	-0.085
-423.544	-160.129	-0.128	-0.007
-422.530	-200.000	0.011	-0.060
-421.515	-200.000	-0.046	-0.377
-420.500	-62.846	-0.092	0.038
-419.486	-115.752	-0.196	0.036
-418.471	-200.000	0.008	-0.056
-417.457	-200.000	-0.081	-0.463
-416.442	-81.055	0.201	0.066
-415.428	800.000	0.100	-0.416
-414.413	-106.328	-0.328	-0.073
-413.398	114.957	0.079	-0.095
-412.384	-106.560	-0.081	0.018
-411.369	217.960	0.134	-0.212
-410.355	111.971	-0.180	-0.215
-409.340	-39.045	0.441	-0.230
-408.325	178.467	-0.085	0.122
-407.311	51.171	-0.091	0.086
-406.296	22.831	-0.185	0.150
-405.282	-76.914	-0.220	0.076
-404.267	106.720	0.172	0.202
-403.252	-125.590	0.146	0.022
-402.238	-26.715	-0.187	0.108
-401.223	800.000	0.061	0.173
-400.209	-149.950	-0.202	-0.016
-399.194	-37.293	-0.226	-0.120
-398.179	800.000	0.055	-0.206
-397.165	-74.108	0.140	-0.050
-396.150	800.000	0.071	-0.267
-395.136	61.682	0.119	-0.118
-394.121	-28.900	-0.162	0.092
-393.106	-200.000	-0.002	-0.132
-392.092	18.744	0.139	-0.110
-391.077	203.685	0.168	-0.258
-390.063	407.641	-0.137	0.287
-389.048	3.562	-0.113	-0.081
-388.033	800.000	-0.053	-0.204
-387.019	172.545	-0.118	0.168
-386.004	-170.368	0.244	-0.008
-384.990	44.197	0.136	0.123
-383.975	-200.000	-0.017	-0.083
-382.960	239.385	0.163	-0.268
-381.946	-200.000	-0.016	0.215
-380.931	-38.013	0.262	-0.137
-379.917	44.950	0.241	-0.219
-378.902	389.806	0.136	0.279
-377.888	136.255	-0.087	-0.112
-376.873	-3.414	0.214	-0.147
-375.858	800.000	-0.083	0.327
-374.844	-157.688	0.132	0.008
-373.829	-93.544	0.214	0.059
-372.815	57.929	-0.203	0.196
-371.800	-33.215	-0.254	-0.139
-370.785	-163.575	-0.113	0.005
-369.771	-54.890	-0.240	0.107
-368.756	72.426	-0.042	0.043
-367.742	800.000	0.112	0.347
-366.727	-115.851	-0.443	-0.082
-365.712	-27.332	-0.270	0.155
-364.698	280.637	-0.073	-0.129
-363.683	767.021	0.124	0.334
-362.669	91.773	-0.109	0.121
-361.654	-7.805	-0.429	-0.286
-360.639	78.744	0.120	-0.127
-359.625	-79.825	0.222	-0.074
-358.610	-93.654	0.268	0.073
-357.596	-105.453	0.354	-0.079
-356.581	35.719	-0.182	-0.158
-355.566	-200.000	-0.053	-0.261
-354.552	23.169	-0.141	-0.114
-353.537	-1.862	0.202	-0.140
-352.523	-200.000	-0.013	0.367
-351.508	-96.960	0.238	0.062
-350.493	174.104	-0.050	0.071
-349.479	-200.000	-0.019	0.090
-348.464	800.000	-0.109	0.338
-347.450	116.572	-0.060	0.072
-346.435	-200.000	-0.066	-0.287
-345.420	-160.545	-0.059	0.003
-344.406	170.986	-0.106	-0.149
-343.391	94.176	0.172	0.192
-342.377	136.553	-0.199	-0.256
-341.362	-200.000	0.005	0.167
-340.348	456.498	0.160	-0.351
-339.333	350.018	-0.003	-0.006
-338.318	124.894	-0.057	0.071
-337.304	716.139	0.134	0.351
-336.289	59.312	-0.051	0.050
-335.275	800.000	-0.070	-0.287
-334.260	800.000	-0.065	-0.213
-333.245	27.375	-0.433	-0.359
-332.231	148.200	0.341	0.455
-331.216	12.612	-0.046	0.035
-330.202	-11.878	-0.210	-0.136
-329.187	21.274	0.269	-0.215
-328.172	-80.909	-0.183	-0.060
-327.158	356.414	-0.091	0.179
-326.143	-65.378	0.114	-0.045
-325.129	-5.521	-0.196	-0.133
-324.114	69.579	0.126	-0.128
-323.099	-200.000	0.005	-0.025
-322.085	72.330	-0.233	0.239
-321.070	-200.000	-0.015	0.129
-320.056	-33.605	0.263	0.143
-319.041	-200.000	0.049	-0.247
-318.026	31.707	-0.064	-0.055
-317.012	-60.742	-0.161	-0.067
-315.997	800.000	-0.039	0.148
-314.983	-94.555	0.116	0.031
-313.968	9.143	-0.319	-0.237
-312.953	57.316	-0.143	0.138
-311.939	-200.000	0.082	0.381
-310.924	-200.000	0.011	-0.056
-309.910	-17.665	0.414	-0.257
-308.895	263.389	-0.107	-0.183
-307.880	-135.867	-0.121	0.014
-306.866	145.891	0.246	-0.325
-305.851	86.222	0.226	-0.246
-304.837	-155.528	0.100	0.006
-303.822	-200.000	-0.061	-0.268
-302.807	225.410	0.043	0.069
-301.793	734.571	0.096	0.254
-300.778	309.974	0.092	-0.169
-299.764	-60.861	0.160	-0.067
-298.749	156.174	0.241	0.328
-297.735	-105.378	0.176	0.040
-296.720	-200.000	0.011	0.202
-295.705	113.503	-0.320	0.383
-294.691	85.031	0.202	0.218
-293.676	-115.487	0.069	0.013
-292.662	-29.105	0.272	-0.154
-291.647	362.028	0.156	0.309
-290.632	315.296	0.168	-0.312
-289.618	-86.430	-0.127	-0.038
-288.603	-16.514	0.127	0.079
-287.589	-63.469	-0.163	0.066
-286.574	-126.543	-0.189	0.028
-285.559	-113.646	-0.008	-0.002
-284.545	-200.000	-0.018	-0.108
-283.530	-200.000	0.009	-0.051
-282.516	-200.000	-0.018	0.259
-281.501	-49.627	0.127	0.059
-280.486	354.492	-0.173	-0.338
-279.472	-200.000	0.009	0.050
-278.457	148.329	0.087	-0.116
-277.443	-74.777	0.395	0.140
-276.428	-90.766	-0.332	-0.094
-275.413	408.383	0.136	-0.283
-274.399	-67.406	0.273	0.106
-273.384	242.223	0.207	-0.341
-272.370	-47.760	0.146	0.070
-271.355	127.536	-0.198	0.248
-270.340	56.771	-0.082	-0.079
-269.326	-79.274	0.095	-0.032
-268.311	145.979	0.348	-0.459
-267.297	111.931	0.149	-0.177
-266.282	-17.100	-0.271	-0.168
-265.267	32.703	0.108	-0.092
-264.253	-105.521	0.288	0.064
-263.238	-117.133	-0.267	-0.048
-262.224	-200.000	-0.041	0.225
-261.209	-28.682	0.188	0.107
-260.195	-124.847	0.639	0.097
-259.180	-88.618	-0.309	0.090
-258.165	134.583	-0.165	-0.211
-257.151	37.463	0.072	0.063
-256.136	115.028	0.135	0.163
-255.122	29.186	0.152	0.127
-254.107	229.556	0.074	-0.118
-253.092	-132.134	0.088	0.011
-252.078	-200.000	0.002	0.138
-251.063	155.646	-0.155	0.210
-250.049	51.601	0.207	-0.194
-249.034	433.494	0.124	0.265
-248.019	-187.850	-0.221	-0.003
-247.005	123.736	-0.093	0.115
-245.990	800.000	-0.053	0.195
-244.976	-148.352	0.240	0.019
-243.961	-56.815	-0.284	-0.123
-242.946	92.698	0.252	-0.280
-241.932	-200.000	-0.006	-0.166
-240.917	37.412	-0.276	-0.241
-239.903	313.425	0.129	-0.239
-238.888	-10.389	-0.090	-0.059
-237.873	67.272	-0.156	0.156
-236.859	-200.000	0.062	0.349
-235.844	-200.000	-0.044	0.284
-234.830	14.640	0.298	0.228
-233.815	-130.475	-0.016	-0.002
-232.800	-200.000	-0.021	-0.337
-231.786	537.514	-0.115	-0.268
-230.771	8.424	0.270	0.200
-229.757	-176.961	-0.185	0.005
-228.742	800.000	-0.065	0.264
-227.727	-68.183	-0.257	0.098
-226.713	703.398	-0.038	0.098
-225.698	-30.045	-0.075	-0.042
-224.684	40.895	-0.080	-0.071
-223.669	-69.922	0.295	0.110
-222.655	-8.579	0.233	-0.154
-221.640	-162.780	0.078	-0.004
-220.625	632.491	-0.105	-0.261
-219.611	-200.000	-0.053	0.231
-218.596	398.170	0.067	-0.137
-217.582	800.000	0.074	0.292
-216.567	-42.935	-0.229	-0.114
-215.552	-67.560	-0.177	-0.068
-214.538	-87.153	0.292	0.087
-213.523	800.000	-0.052	0.217
-212.509	133.886	-0.079	-0.100
-211.494	-75.201	-0.038	0.013
-210.479	91.667	-0.082	0.090
-209.465	-200.000	0.065	-0.438
-208.450	-57.345	-0.281	-0.121
-207.436	-69.161	0.150	0.057
-206.421	-75.024	0.326	0.115
-205.406	-54.449	-0.202	0.090
-204.392	-40.602	0.284	0.144
-203.377	153.915	0.094	-0.126
-202.363	55.521	0.139	-0.132
-201.348	268.386	0.183	-0.315
-200.333	-68.554	-0.367	0.140
-199.319	-200.000	-0.013	0.075
-198.304	-61.740	0.224	0.092
-197.290	-79.837	0.321	-0.106
-196.275	800.000	-0.040	-0.121
-195.260	235.600	-0.068	0.110
-194.246	-38.240	-0.154	-0.080
-193.231	-200.000	-0.012	-0.230
-192.217	343.565	-0.054	0.103
-191.202	333.418	0.119	-0.227
-190.187	115.173	0.028	0.034
-189.173	-71.884	0.307	-0.112
-188.158	-122.296	-0.257	0.041
-187.144	-118.766	0.275	-0.048
-186.129	-200.000	0.027	-0.499
-185.114	-200.000	0.012	-0.102
-184.100	46.966	0.058	0.053
-183.085	137.250	-0.075	-0.096
-182.071	-12.287	-0.099	0.064
-181.056	76.512	0.276	0.287
-180.042	-200.000	-0.021	0.253
-179.027	-109.550	0.215	-0.045
-178.012	-200.000	0.000	0.008
-176.998	34.762	0.135	0.116
-175.983	-117.904	-0.264	-0.046
-174.969	-200.000	-0.039	0.169
-173.954	-136.953	0.189	-0.021
-172.939	-200.000	-0.032	0.172
-171.925	264.000	0.051	-0.087
-170.910	437.836	-0.266	-0.569
-169.896	-29.227	-0.359	0.202
-168.881	49.672	0.229	0.212
-167.866	-125.726	0.412	-0.061
-166.852	58.968	0.227	0.219
-165.837	800.000	-0.091	0.336
-164.823	-61.995	-0.177	-0.073
-163.808	-153.882	-0.123	-0.008
-162.793	-121.630	0.259	0.042
-161.779	-200.000	-0.015	0.146
-160.764	332.111	-0.192	0.364
-159.750	172.879	-0.091	0.128
-158.735	26.185	-0.211	0.173
-157.720	-119.055	0.431	0.074
-156.706	-81.119	-0.100	-0.032
-155.691	-113.462	-0.283	0.054
-154.677	-127.588	-0.021	0.003
-153.662	800.000	0.022	0.081
-152.647	728.949	-0.100	-0.261
-151.633	-35.614	0.116	0.062
-150.618	-54.010	-0.428	0.191
-149.604	-200.000	0.051	0.244
-148.589	-4.332	-0.081	-0.055
-147.574	-200.000	0.034	0.147
-146.560	8.613	-0.271	-0.200
-145.545	-53.574	-0.170	0.076
-144.531	340.946	-0.085	-0.163
-143.516	58.250	-0.118	-0.113
-142.502	-200.000	0.021	0.281
-141.487	-200.000	0.001	0.192
-140.472	-123.313	0.162	-0.025
-139.458	-200.000	0.007	0.477
-138.443	-200.000	0.003	0.137
-137.429	-50.525	0.027	0.012
-136.414	321.564	0.226	-0.422
-135.399	33.625	0.073	0.062
-134.385	-134.829	0.183	-0.022
-133.370	65.493	-0.207	0.205
-132.356	123.685	-0.289	0.355
-131.341	-61.191	-0.179	-0.074
-130.326	60.486	0.242	0.234
-129.312	38.535	-0.043	-0.037
-128.297	-55.442	-0.022	0.010
-127.283	-147.285	0.074	-0.006
-126.268	800.000	-0.101	0.278
-125.253	-51.780	-0.263	-0.120
-124.239	399.718	0.142	0.292
-123.224	-56.327	-0.289	-0.125
-122.210	86.974	0.037	0.040
-121.195	-108.952	0.129	-0.027
-120.180	-12.351	-0.175	-0.112
-119.166	-93.680	0.174	-0.047
-118.151	-200.000	0.027	-0.194
-117.137	-68.405	0.398	-0.151
-116.122	-110.302	-0.160	0.032
-115.107	240.338	-0.069	-0.112
-114.093	-58.350	0.114	-0.049
-113.078	800.000	-0.166	0.470
-112.064	367.169	0.017	0.034
-111.049	-141.258	0.428	-0.043
-110.034	7.385	0.094	-0.068
-109.020	-33.027	-0.236	0.128
-108.005	-71.527	-0.262	0.096
-106.991	1.194	-0.230	-0.161
-105.976	-200.000	0.013	0.135
-104.962	21.470	-0.067	0.053
-103.947	-105.258	-0.204	0.046
-102.932	800.000	0.010	0.029
-101.918	569.051	-0.109	0.259
-100.903	471.099	0.160	-0.351
-99.889	166.052	-0.030	0.042
-98.874	-29.340	0.309	0.173
-97.859	-115.583	0.110	-0.020
-96.845	-104.603	-0.281	-0.063
-95.830	39.640	-0.138	-0.121
-94.816	72.549	-0.299	-0.304
-93.801	-64.505	-0.332	-0.132
-92.786	-195.469	0.239	0.002
-91.772	17.938	0.205	-0.160
-90.757	-200.000	0.008	-0.051
-89.743	-200.000	0.022	-0.170
-88.728	-123.777	-0.105	-0.016
-87.713	-200.000	-0.022	0.428
-86.699	-11.491	0.116	-0.075
-85.684	-41.536	0.260	0.130
-84.670	423.298	-0.045	-0.094
-83.655	-200.000	-0.026	0.161
-82.640	-200.000	0.068	0.345
-81.626	50.953	-0.128	-0.119
-80.611	-131.538	-0.195	0.025
-79.597	175.538	0.187	0.265
-78.582	-200.000	0.020	0.259
-77.567	-86.676	0.254	-0.076
-76.553	570.582	-0.134	0.318
-75.538	-82.452	0.413	-0.131
-74.524	-133.377	0.179	0.022
-73.509	-109.988	-0.049	-0.010
-72.494	-200.000	0.002	-0.188
-71.480	-114.231	-0.242	0.046
-70.465	-22.952	-0.236	-0.139
-69.451	471.996	-0.052	-0.115
-68.436	-56.033	0.182	-0.079
-67.422	642.339	0.078	-0.195
-66.407	-200.000	-0.046	0.375
-65.392	-194.709	0.215	-0.002
-64.378	-200.000	0.021	-0.106
-63.363	354.599	-0.146	0.283
-62.349	-96.599	-0.123	-0.032
-61.334	51.289	-1.046	-0.969
-60.319	-42.411	1.126	0.561
-59.305	-200.000	-0.204	-1.207
-58.290	398.191	0.801	1.635
-57.276	800.000	0.596	1.633
-56.261	-200.000	136.884	644.933
-55.246	333.171	1664.085	3139.405
-54.232	133.118	2805.613	3537.220
-53.217	76.636	2347.314	2429.592
-52.203	26.241	2089.881	1703.575
-51.188	21.711	2008.197	1595.770
-50.173	20.923	1993.827	1577.156
-49.159	38.865	2071.345	1805.354
-48.144	36.048	2081.406	1787.955
-47.130	22.274	2033.454	1620.774
-46.115	20.214	2023.219	1593.643
-45.100	20.176	2019.954	1590.655
-44.086	20.139	2017.751	1588.522
-43.071	20.060	2015.577	1586.022
-42.057	20.050	2013.279	1584.058
-41.042	20.010	2011.531	1582.253
-40.027	20.103	2009.732	1581.630
-39.013	20.118	2007.272	1579.768
-37.998	20.110	2006.105	1578.714
-36.984	20.071	2004.657	1577.154
-35.969	20.110	2002.205	1575.518
-34.954	20.087	2000.807	1574.141
-33.940	20.115	1999.896	1573.615
-32.925	20.111	1998.280	1572.248
-31.911	20.182	1996.499	1571.432
-30.896	20.150	1994.476	1569.488
-29.881	20.252	1992.743	1568.982
-28.867	20.282	1991.085	1567.886
-27.852	20.250	1989.437	1566.239
-26.838	20.228	1987.650	1564.567
-25.823	20.246	1985.690	1563.127
-24.809	20.281	1983.957	1562.015
-23.794	20.247	1982.554	1560.543
-22.779	20.201	1981.012	1558.856
-21.765	20.178	1979.745	1557.590
-20.750	20.215	1978.242	1556.678
-19.736	20.213	1975.933	1554.780
-18.721	20.253	1974.681	1554.088
-17.706	20.233	1972.699	1552.288
-16.692	20.195	1971.499	1550.944
-15.677	20.146	1969.920	1549.203
-14.663	20.224	1968.467	1548.696
-13.648	20.221	1967.366	1547.739
-12.633	20.226	1965.985	1546.634
-11.619	20.297	1964.631	1546.139
-10.604	20.194	1963.499	1544.274
-9.590	20.144	1961.898	1542.504
-8.575	20.218	1960.811	1542.250
-7.560	20.191	1959.560	1540.967
-6.546	20.167	1958.050	1539.506
-5.531	20.234	1956.677	1538.962
-4.517	20.151	1955.953	1537.587
-3.502	20.279	1953.768	1536.948
-2.487	20.187	1953.462	1535.828
-1.473	20.219	1952.331	1535.167
-0.458	20.264	1946.128	1530.621
0.556	18.897	1926.025	1500.785
1.571	14.292	1906.910	1445.861
2.586	10.329	1930.376	1428.619
3.600	9.370	1964.302	1444.987
4.615	9.401	1955.699	1438.813
5.629	7.555	1856.203	1349.812
6.644	3.216	1747.936	1236.179
7.659	0.863	1718.221	1196.468
8.673	0.701	1715.857	1193.436
9.688	0.584	1714.836	1191.698
10.702	0.677	1713.397	1191.322
11.717	0.498	1709.230	1186.911
12.731	0.849	1706.823	1187.892
13.746	4.455	1714.004	1221.181
14.761	11.086	1727.606	1283.170
15.775	15.997	1737.894	1329.538
16.790	17.173	1738.703	1339.318
17.804	16.188	1736.046	1329.394
18.819	15.329	1731.979	1319.411
19.834	14.716	1729.886	1312.882
20.848	14.444	1728.565	1309.628
21.863	14.390	1726.847	1307.783
22.877	14.067	1725.310	1303.972
23.892	13.812	1723.746	1300.672
24.907	13.690	1721.988	1298.280
25.921	13.578	1721.523	1296.937
26.936	13.726	1720.243	1297.016
27.950	13.714	1719.463	1296.218
28.965	13.806	1718.964	1296.442
29.980	13.758	1717.834	1295.102
30.994	13.808	1717.207	1294.910
32.009	13.762	1716.493	1293.898
33.023	13.920	1715.083	1293.946
34.038	13.846	1714.957	1293.165
35.053	13.842	1713.602	1291.993
36.067	13.841	1712.391	1290.963
37.082	13.806	1711.301	1289.748
38.096	13.891	1710.100	1289.394
39.111	13.778	1709.950	1288.291
40.126	13.901	1708.725	1288.202
41.140	13.939	1707.365	1287.362
42.155	13.855	1705.900	1285.495
43.169	13.797	1704.518	1283.887
44.184	13.781	1703.215	1282.672
45.199	13.691	1702.194	1281.092
46.213	13.689	1701.226	1280.235
47.228	13.781	1699.766	1279.731
48.242	13.812	1698.344	1278.785
49.257	13.656	1698.183	1277.348
50.271	13.830	1695.805	1276.791
51.286	13.779	1694.774	1275.509
52.301	13.726	1693.596	1274.103
53.315	13.745	1692.236	1273.112
54.330	13.766	1691.065	1272.275
55.344	13.702	1688.957	1270.089
56.359	13.631	1687.560	1268.379
57.374	13.704	1686.282	1267.866
58.388	13.712	1685.257	1267.046
59.403	13.749	1683.241	1265.703
60.417	13.680	1682.103	1264.206
61.432	13.632	1681.174	1263.027
62.447	13.585	1680.159	1261.799
63.461	13.667	1678.314	1260.928
64.476	13.590	1677.933	1259.942
65.490	13.485	1676.850	1258.222
66.505	13.527	1675.216	1257.204
67.520	13.590	1674.133	1256.755
68.534	13.553	1673.391	1255.807
69.549	13.720	1671.420	1255.479
70.563	13.709	1670.106	1254.296
71.578	13.648	1668.788	1252.736
72.593	13.689	1667.419	1251.910
73.607	13.521	1666.629	1249.933
74.622	13.569	1665.719	1249.502
75.636	13.709	1664.421	1249.479
76.651	13.563	1663.679	1247.711
77.666	13.505	1663.349	1246.913
78.680	13.560	1661.716	1245.993
79.695	13.637	1660.512	1245.562
80.709	13.599	1659.537	1244.432
81.724	13.595	1659.158	1244.005
82.739	13.711	1657.796	1243.743
83.753	13.708	1656.823	1242.885
84.768	13.721	1656.370	1242.531
85.782	13.667	1655.378	1241.274
86.797	13.701	1654.268	1240.584
87.812	13.801	1653.006	1240.278
88.826	13.704	1651.733	1238.489
89.841	13.665	1650.638	1237.266
90.855	13.670	1649.625	1236.437
91.870	13.702	1648.510	1235.726
92.884	13.822	1647.403	1235.678
93.899	13.812	1646.396	1234.745
94.914	13.844	1644.869	1233.722
95.928	13.855	1643.582	1232.730
96.943	13.929	1642.154	1232.098
97.957	13.796	1641.111	1230.223
98.972	13.825	1639.124	1228.844
99.987	13.842	1637.854	1227.908
101.001	13.779	1636.174	1226.069
102.016	13.800	1634.587	1224.926
103.030	13.758	1633.640	1223.800
104.045	13.868	1631.912	1223.208
105.060	13.857	1630.210	1221.743
106.074	13.763	1628.980	1220.020
107.089	13.746	1627.330	1218.555
108.103	13.703	1626.134	1217.236
109.118	13.665	1624.252	1215.438
110.133	13.647	1623.216	1214.429
111.147	13.630	1621.572	1212.968
112.162	13.684	1620.315	1212.309
113.176	13.671	1619.211	1211.283
114.191	13.772	1617.364	1210.528
115.206	13.681	1616.043	1208.772
116.220	13.815	1614.296	1208.332
117.235	13.737	1613.558	1207.107
118.249	13.754	1612.201	1206.107
119.264	13.622	1611.279	1204.351
120.279	13.645	1609.399	1203.009
121.293	13.711	1607.853	1202.225
122.308	13.703	1606.656	1201.164
123.322	13.677	1604.790	1199.477
124.337	13.613	1603.165	1197.694
125.352	13.710	1601.647	1197.157
126.366	13.617	1600.620	1195.606
127.381	13.653	1599.616	1195.013
128.395	13.629	1598.580	1193.961
129.410	13.757	1596.689	1193.360
130.424	13.621	1595.508	1191.400
131.439	13.734	1593.839	1190.860
132.454	13.709	1592.774	1189.773
133.468	13.753	1590.954	1188.625
134.483	13.767	1589.552	1187.575
135.497	13.769	1588.265	1186.522
136.512	13.724	1587.328	1185.397
137.527	13.704	1585.745	1183.964
138.541	13.771	1584.717	1183.574
139.556	13.814	1583.303	1182.720
140.570	13.818	1581.465	1181.269
141.585	13.809	1580.824	1180.623
142.600	13.826	1579.371	1179.553
143.614	13.918	1577.910	1179.010
144.629	13.936	1576.498	1177.979
145.643	13.945	1575.312	1177.054
146.658	14.018	1574.190	1176.623
147.673	14.016	1572.863	1175.514
148.687	13.911	1571.283	1173.491
149.702	13.927	1569.686	1172.304
150.716	13.959	1567.523	1170.810
151.731	13.958	1566.535	1169.961
152.746	13.995	1565.244	1169.156
153.760	13.912	1564.073	1167.594
154.775	13.890	1562.697	1166.307
155.789	13.972	1561.711	1166.045
156.804	14.032	1560.507	1165.466
157.819	14.014	1559.057	1164.153
158.833	14.008	1557.808	1163.072
159.848	14.123	1556.239	1162.603
160.862	14.167	1555.164	1162.004
161.877	14.090	1554.118	1160.582
162.892	14.122	1552.662	1159.617
163.906	14.052	1551.557	1158.201
164.921	14.086	1549.874	1157.079
165.935	13.988	1549.137	1155.745
166.950	13.916	1548.171	1154.420
167.964	14.132	1546.628	1154.668
168.979	14.126	1545.776	1153.891
169.994	14.093	1544.474	1152.585
171.008	14.083	1543.556	1151.729
172.023	14.099	1542.437	1150.904
173.037	14.137	1541.511	1150.376
174.052	14.110	1539.881	1148.869
175.067	14.264	1538.369	1148.704
176.081	14.292	1537.349	1148.029
177.096	14.175	1535.808	1145.975
178.110	14.172	1534.856	1145.144
179.125	14.136	1534.255	1144.342
180.140	14.150	1532.993	1143.400
181.154	14.238	1531.485	1142.775
182.169	14.203	1529.969	1141.302
183.183	14.265	1528.872	1140.808
184.198	14.224	1528.378	1140.061
185.213	14.302	1526.792	1139.306
186.227	14.300	1525.772	1138.432
187.242	14.370	1524.865	1138.135
188.256	14.438	1523.386	1137.395
189.271	14.346	1522.656	1136.119
190.286	14.323	1521.833	1135.246
191.300	14.430	1520.151	1134.624
192.315	14.268	1519.433	1132.883
193.329	14.315	1517.588	1131.728
194.344	14.145	1517.203	1130.187
195.359	14.181	1516.549	1129.840
196.373	14.302	1514.802	1129.260
197.388	14.346	1514.179	1128.995
198.402	14.373	1513.144	1128.308
199.417	14.424	1511.160	1127.070
200.432	14.452	1510.437	1126.624
201.446	14.540	1509.362	1126.312
202.461	14.569	1508.333	1125.641
203.475	14.683	1506.804	1125.171
204.490	14.614	1505.784	1123.846
205.504	14.696	1504.577	1123.400
206.519	14.633	1503.637	1122.172
207.534	14.619	1502.350	1121.017
208.548	14.608	1501.421	1120.153
209.563	14.529	1500.404	1118.765
210.577	14.703	1498.763	1118.609
211.592	14.647	1498.123	1117.656
212.607	14.634	1497.316	1116.867
213.621	14.684	1496.544	1116.524
214.636	14.685	1495.585	1115.718
215.650	14.699	1494.372	1114.811
216.665	14.787	1493.237	1114.454
217.680	14.697	1492.805	1113.427
218.694	14.758	1492.121	1113.226
219.709	14.759	1491.138	1112.403
220.723	14.808	1490.146	1111.888
221.738	14.808	1488.730	1110.738
222.753	14.879	1487.525	1110.208
223.767	14.810	1487.199	1109.411
224.782	14.824	1486.411	1108.816
225.796	14.923	1485.224	1108.487
226.811	14.920	1484.166	1107.584
227.826	14.867	1483.700	1106.785
228.840	14.935	1482.607	1106.323
229.855	15.020	1481.110	1105.669
230.869	14.944	1480.852	1104.877
231.884	14.942	1479.510	1103.764
232.899	15.016	1478.062	1103.075
233.913	14.945	1477.038	1101.746
234.928	14.851	1476.212	1100.413
235.942	14.878	1474.586	1099.281
236.957	14.893	1473.683	1098.608
237.972	14.880	1471.944	1097.130
238.986	14.849	1471.566	1096.546
240.001	15.001	1470.258	1096.470
241.015	14.941	1469.427	1095.359
242.030	14.967	1468.022	1094.390
243.045	14.996	1467.336	1093.971
244.059	15.076	1466.199	1093.546
245.074	15.113	1465.330	1093.042
246.088	15.077	1464.860	1092.358
247.103	15.033	1464.003	1091.338
248.117	15.032	1463.108	1090.571
249.132	15.156	1462.170	1090.582
250.147	15.200	1461.579	1090.328
251.161	15.235	1460.561	1089.702
252.176	15.357	1459.887	1089.896
253.190	15.303	1459.395	1089.081
254.205	15.334	1458.104	1088.221
255.220	15.313	1457.742	1087.719
256.234	15.308	1456.802	1086.888
257.249	15.366	1455.983	1086.555
258.263	15.425	1455.202	1086.260
259.278	15.443	1453.883	1085.292
260.293	15.451	1453.190	1084.733
261.307	15.492	1451.918	1083.952
262.322	15.536	1451.380	1083.739
263.336	15.614	1450.644	1083.594
264.351	15.568	1449.671	1082.477
265.366	15.539	1448.600	1081.394
266.380	15.514	1448.102	1080.768
267.395	15.620	1446.749	1080.346
268.409	15.556	1445.966	1079.252
269.424	15.582	1444.984	1078.593
270.439	15.635	1443.707	1077.884
271.453	15.685	1442.667	1077.333
272.468	15.641	1442.098	1076.529
273.482	15.550	1441.329	1075.276
274.497	15.528	1440.479	1074.405
275.512	15.661	1439.704	1074.585
276.526	15.631	1438.832	1073.645
277.541	15.581	1437.588	1072.303
278.555	15.646	1436.281	1071.650
279.570	15.568	1435.794	1070.692
280.585	15.671	1434.747	1070.473
281.599	15.758	1433.606	1070.079
282.614	15.782	1433.239	1069.862
283.628	15.891	1431.545	1069.199
284.643	15.865	1430.502	1068.160
285.657	15.843	1429.467	1067.149
286.672	15.650	1428.972	1065.467
287.687	15.727	1428.144	1065.240
288.701	15.814	1427.095	1064.916
289.716	15.750	1426.404	1063.900
290.730	15.912	1424.931	1063.731
291.745	15.947	1423.738	1062.968
292.760	15.793	1423.111	1061.433
293.774	15.947	1421.811	1061.342
294.789	15.913	1420.780	1060.266
295.803	15.960	1420.309	1060.115
296.818	16.002	1419.321	1059.543
297.833	15.986	1418.235	1058.541
298.847	15.896	1417.520	1057.350
299.862	16.022	1416.042	1056.942
300.876	16.002	1415.042	1055.979
301.891	15.948	1414.386	1055.055
302.906	16.022	1413.538	1054.796
303.920	16.082	1412.459	1054.269
304.935	16.041	1411.742	1053.385
305.949	16.237	1410.960	1053.934
306.964	16.183	1410.391	1053.078
307.979	16.261	1409.183	1052.570
308.993	16.226	1408.240	1051.553
310.008	16.174	1406.916	1050.149
311.022	16.206	1406.345	1049.831
312.037	16.312	1404.993	1049.383
313.052	16.278	1404.273	1048.545
314.066	16.263	1403.376	1047.686
315.081	16.286	1402.077	1046.766
316.095	16.299	1401.020	1045.966
317.110	16.226	1400.200	1044.807
318.125	16.198	1399.413	1043.956
319.139	16.288	1398.449	1043.701
320.154	16.259	1397.288	1042.566
321.168	16.267	1396.538	1041.959
322.183	16.281	1395.597	1041.256
323.197	16.267	1394.480	1040.240
324.212	16.288	1393.942	1039.876
325.227	16.394	1392.818	1039.602
326.241	16.334	1391.550	1038.193
327.256	16.264	1391.197	1037.405
328.270	16.326	1389.931	1036.751
329.285	16.412	1389.179	1036.625
330.300	16.329	1388.297	1035.365
331.314	16.415	1387.032	1034.862
332.329	16.369	1386.366	1033.987
333.343	16.398	1385.356	1033.320
334.358	16.423	1384.352	1032.636
335.373	16.517	1383.581	1032.545
336.387	16.498	1382.888	1031.821
337.402	16.616	1382.079	1031.844
338.416	16.537	1381.742	1031.015
339.431	16.566	1380.626	1030.271
340.446	16.547	1380.299	1029.817
341.460	16.630	1378.886	1029.178
342.475	16.651	1378.004	1028.558
343.489	16.647	1377.092	1027.764
344.504	16.631	1376.397	1027.053
345.519	16.577	1375.904	1026.267
346.533	16.713	1374.754	1026.147
347.548	16.758	1373.337	1025.267
348.562	16.715	1372.586	1024.356
349.577	16.812	1371.560	1024.088
350.592	16.784	1371.211	1023.569
351.606	16.827	1370.370	1023.105
352.621	16.648	1369.514	1021.295
353.635	16.896	1367.856	1021.465
354.650	16.726	1366.798	1019.561
355.665	16.758	1366.041	1019.102
356.679	16.825	1365.264	1018.831
357.694	16.758	1364.157	1017.514
358.708	16.862	1362.940	1017.137
359.723	16.884	1361.749	1016.291
360.738	16.800	1360.913	1015.073
361.752	16.916	1359.842	1014.880
362.767	16.940	1358.545	1013.964
363.781	16.881	1357.484	1012.735
364.796	16.972	1356.865	1012.727
365.810	17.048	1356.130	1012.542
366.825	16.916	1355.707	1011.350
367.840	17.032	1354.410	1010.982
368.854	17.042	1354.049	1010.684
369.869	17.012	1353.311	1009.865
370.883	17.086	1352.603	1009.686
371.898	17.144	1351.905	1009.420
372.913	17.105	1350.822	1008.288
373.927	17.081	1350.347	1007.702
374.942	17.067	1349.861	1007.171
375.956	17.196	1348.351	1006.719
376.971	17.188	1347.608	1006.025
377.986	17.263	1346.264	1005.377
379.000	17.314	1345.712	1005.180
380.015	17.168	1345.492	1004.065
381.029	17.167	1344.942	1003.558
382.044	17.265	1344.062	1003.391
383.059	17.354	1343.098	1003.105
384.073	17.392	1342.263	1002.617
385.088	17.386	1341.843	1002.183
386.102	17.436	1340.904	1001.684
387.117	17.439	1340.100	1001.013
388.132	17.368	1339.229	999.854
389.146	17.332	1338.512	999.020
390.161	17.349	1337.411	998.209
391.175	17.341	1337.247	997.952
392.190	17.327	1336.127	996.949
393.205	17.318	1335.450	996.301
394.219	17.485	1333.850	995.997
395.234	17.494	1332.647	995.065
396.248	17.512	1331.530	994.248
397.263	17.463	1330.360	993.001
398.278	17.410	1329.206	991.738
399.292	17.468	1327.866	990.992
400.307	17.552	1326.692	990.513
401.321	17.479	1325.956	989.454
402.336	17.458	1324.660	988.276
403.350	17.495	1323.348	987.427
404.365	17.605	1322.447	987.306
405.380	17.484	1322.019	986.193
406.394	17.521	1320.860	985.459
407.409	17.477	1320.719	985.012
408.423	17.528	1319.794	984.530
409.438	17.633	1319.186	984.593
410.453	17.639	1318.415	983.965
411.467	17.721	1317.491	983.663
412.482	17.575	1317.165	982.492
413.496	17.711	1316.241	982.496
414.511	17.755	1315.341	981.995
415.526	17.761	1314.768	981.513
416.540	17.768	1314.017	980.904
417.555	17.883	1312.605	980.426
418.569	17.885	1312.386	980.185
419.584	17.893	1312.337	980.107
420.599	17.931	1311.049	979.277
421.613	101.722	1364.707	1492.013
422.628	100.171	1372.446	1492.114
