DTS Sentinel unit serial number:	SN413079Multiplexer serial number:	ORYXHardware model number:	OX4-SRSoftware version number:	ORYX F/W v4.00 Oryx Data Collector v3.7.2.0data status	okinstallation	princeton_trtdifferential loss correction	single-endedforward channel	channel 4reverse channel	N/Adate	2019/09/14time	22:29:35forward acquisition time	60.00reverse acquisition time	0.00gamma	496.2192k internal	0.2306k external	0.2306temperature offset calibration	1.0064default loss term (dB/km)	0.3790temperature slope calibration	1.0000multiplexer offset coefficient	1.0000multiplexer slope coefficient	1.0000fibre end	0.00T internal ref (°C)	32.56T ext. ref 1 (°C)	4.70T ext. ref 2 (°C)	27.54length (m)	temperature (°C)	Stokes	anti-Stokes-747.200	-64.447	-0.489	-0.202
-746.185	800.000	0.097	0.396
-745.171	632.424	0.008	-0.021
-744.156	532.034	0.087	0.210
-743.142	215.234	0.092	0.149
-742.127	25.570	-0.143	0.121
-741.112	10.292	0.087	0.068
-740.098	306.064	-0.265	0.502
-739.083	31.746	-0.094	-0.082
-738.069	800.000	0.015	0.046
-737.054	318.728	-0.121	0.234
-736.039	-172.216	-0.295	-0.010
-735.025	800.000	0.041	-0.159
-734.010	314.773	-0.145	-0.277
-732.996	-200.000	0.050	-0.323
-731.981	800.000	0.101	0.302
-730.966	333.448	-0.196	0.386
-729.952	-147.313	-0.178	-0.015
-728.937	99.712	-0.172	-0.203
-727.923	-200.000	-0.031	-0.346
-726.908	9.710	-0.123	0.095
-725.894	-110.289	0.071	-0.015
-724.879	800.000	-0.105	-0.380
-723.864	573.576	-0.040	0.100
-722.850	3.479	0.130	-0.096
-721.835	-200.000	-0.030	0.142
-720.821	-75.128	-0.080	0.029
-719.806	-83.930	-0.164	0.053
-718.791	576.244	-0.083	-0.205
-717.777	-200.000	-0.034	-0.183
-716.762	-132.079	-0.208	-0.027
-715.748	344.712	0.060	0.120
-714.733	311.579	0.073	-0.139
-713.718	-113.406	-0.251	0.050
-712.704	-200.000	0.004	-0.114
-711.689	-74.870	0.244	0.089
-710.675	87.669	-0.194	-0.219
-709.660	-67.386	-0.176	0.070
-708.645	-9.422	-0.194	0.132
-707.631	-58.561	0.422	0.186
-706.616	381.309	0.081	-0.169
-705.602	-147.202	0.233	0.020
-704.587	-172.205	0.179	-0.006
-703.572	399.740	-0.092	0.196
-702.558	-169.248	0.329	-0.012
-701.543	-105.802	-0.128	-0.029
-700.529	-65.144	-0.080	-0.033
-699.514	-13.284	0.316	0.209
-698.499	-200.000	-0.045	-0.214
-697.485	-200.000	0.064	-0.291
-696.470	54.508	0.107	-0.105
-695.456	-140.893	-0.021	0.002
-694.441	97.098	-0.019	-0.022
-693.426	35.975	-0.166	0.148
-692.412	-108.427	-0.455	-0.100
-691.397	278.731	0.024	0.043
-690.383	34.660	-0.090	-0.080
-689.368	-141.045	-0.386	0.040
-688.354	90.493	-0.153	0.173
-687.339	-180.362	0.406	-0.009
-686.324	142.836	0.268	0.361
-685.310	-33.748	0.154	0.086
-684.295	100.735	-0.116	-0.137
-683.281	418.504	0.073	0.158
-682.266	36.972	-0.272	0.244
-681.251	-200.000	-0.021	-0.211
-680.237	-62.279	0.140	0.059
-679.222	800.000	0.029	-0.080
-678.208	532.853	-0.093	-0.222
-677.193	-40.552	-0.095	-0.050
-676.178	-23.809	-0.137	0.083
-675.164	800.000	-0.028	-0.112
-674.149	-42.261	0.030	0.015
-673.135	-200.000	-0.027	-0.386
-672.120	-42.795	-0.036	-0.019
-671.105	174.274	0.184	-0.269
-670.091	386.213	-0.109	-0.228
-669.076	-200.000	-0.030	-0.238
-668.062	-200.000	0.008	0.266
-667.047	155.906	-0.129	0.181
-666.032	-48.002	0.032	-0.015
-665.018	-47.401	0.068	0.033
-664.003	-149.137	0.355	0.029
-662.989	-200.000	-0.005	-0.175
-661.974	628.346	0.067	-0.171
-660.959	200.097	0.156	0.244
-659.945	-145.482	0.037	0.003
-658.930	-200.000	-0.020	-0.094
-657.916	-107.191	-0.225	-0.050
-656.901	-169.054	-0.329	-0.012
-655.886	81.357	0.228	-0.250
-654.872	356.975	-0.127	0.257
-653.857	292.604	0.125	-0.231
-652.843	642.973	-0.130	0.335
-651.828	166.874	-0.101	0.145
-650.814	-2.567	-0.211	0.150
-649.799	425.624	0.058	-0.127
-648.784	-41.244	-0.216	-0.113
-647.770	-122.826	-0.087	0.014
-646.755	-47.018	-0.142	0.070
-645.741	183.531	-0.133	0.199
-644.726	800.000	-0.021	0.086
-643.711	501.574	0.051	-0.120
-642.697	85.031	-0.138	-0.153
-641.682	172.278	-0.219	-0.318
-640.668	-85.249	-0.510	-0.161
-639.653	-67.600	-0.198	-0.079
-638.638	-200.000	0.000	-0.311
-637.624	126.518	-0.184	-0.236
-636.609	-136.003	-0.177	-0.021
-635.595	15.844	-0.145	-0.115
-634.580	81.570	0.269	0.295
-633.565	-66.498	-0.091	0.037
-632.551	484.015	-0.066	-0.153
-631.536	-101.673	-0.015	0.004
-630.522	79.820	-0.167	-0.181
-629.507	114.668	-0.125	-0.154
-628.492	6.626	0.193	-0.146
-627.478	40.468	0.147	-0.134
-626.463	9.668	-0.152	0.117
-625.449	204.322	0.072	0.113
-624.434	-52.081	-0.211	0.099
-623.419	-74.653	0.111	-0.040
-622.405	-127.416	-0.039	0.006
-621.390	-79.170	0.100	0.034
-620.376	-14.371	-0.043	-0.028
-619.361	70.303	-0.262	-0.274
-618.346	117.739	0.122	-0.152
-617.332	179.616	0.027	0.040
-616.317	54.366	0.054	-0.053
-615.303	31.421	0.135	0.117
-614.288	81.713	-0.061	-0.066
-613.273	-50.953	0.120	-0.057
-612.259	353.485	-0.069	-0.138
-611.244	800.000	-0.066	0.222
-610.230	64.482	-0.290	-0.296
-609.215	492.384	0.080	-0.185
-608.201	-155.857	-0.356	0.023
-607.186	395.557	-0.092	0.195
-606.171	-34.101	0.273	0.152
-605.157	800.000	0.063	0.185
-604.142	147.199	0.078	0.106
-603.128	-72.098	-0.258	-0.097
-602.113	480.403	-0.089	0.203
-601.098	-109.381	0.146	0.031
-600.084	800.000	-0.055	-0.172
-599.069	105.377	0.112	-0.134
-598.055	91.448	0.082	0.094
-597.040	-29.069	0.230	-0.134
-596.025	-200.000	-0.003	0.058
-595.011	7.023	-0.148	-0.111
-593.996	-39.623	-0.114	-0.060
-592.982	-36.292	0.181	-0.099
-591.967	221.587	0.137	0.223
-590.952	-68.200	-0.103	-0.040
-589.938	-7.353	0.139	0.095
-588.923	-24.948	-0.169	-0.101
-587.909	-147.550	0.066	0.006
-586.894	116.588	-0.188	0.233
-585.879	572.454	0.072	0.179
-584.865	84.414	0.141	0.156
-583.850	-40.445	-0.038	-0.020
-582.836	800.000	-0.025	-0.074
-581.821	214.874	-0.176	-0.282
-580.806	-96.453	-0.217	0.058
-579.792	-200.000	0.050	-0.348
-578.777	92.833	0.109	0.124
-577.763	50.262	-0.164	0.157
-576.748	800.000	0.040	-0.141
-575.733	-96.054	-0.295	0.079
-574.719	41.706	-0.137	-0.125
-573.704	203.971	0.179	0.281
-572.690	50.774	0.194	0.186
-571.675	-200.000	0.018	0.089
-570.661	192.604	0.075	-0.115
-569.646	227.622	0.163	-0.268
-568.631	-200.000	-0.027	0.280
-567.617	444.165	-0.039	-0.087
-566.602	-146.608	-0.087	0.008
-565.588	-54.796	-0.162	0.074
-564.573	19.350	0.055	-0.045
-563.558	800.000	-0.091	0.291
-562.544	-109.806	0.229	0.049
-561.529	-145.474	-0.344	0.031
-560.515	2.640	-0.197	-0.144
-559.500	627.019	-0.092	0.235
-558.485	-200.000	-0.067	0.000
-557.471	-200.000	0.018	0.095
-556.456	-35.593	0.017	0.010
-555.442	-138.780	0.104	0.011
-554.427	-7.437	0.139	0.095
-553.412	-200.000	-0.055	-0.293
-552.398	800.000	-0.123	-0.414
-551.383	493.796	0.178	-0.412
-550.369	-106.345	-0.362	-0.082
-549.354	-164.901	0.269	-0.012
-548.339	150.584	0.080	0.110
-547.325	-86.391	0.321	-0.100
-546.310	220.518	-0.161	-0.261
-545.296	-27.849	0.152	0.089
-544.281	501.924	0.206	0.481
-543.266	800.000	0.082	0.247
-542.252	-145.000	-0.122	0.011
-541.237	682.241	0.133	0.349
-540.223	571.263	-0.029	0.070
-539.208	-200.000	-0.010	0.078
-538.193	-136.698	0.164	0.019
-537.179	-14.095	0.183	0.119
-536.164	-200.000	-0.033	-0.152
-535.150	-200.000	-0.003	-0.411
-534.135	-200.000	-0.426	-0.001
-533.121	47.223	-0.203	-0.191
-532.106	-200.000	-0.006	0.151
-531.091	173.314	0.125	-0.182
-530.077	-184.952	-0.125	-0.002
-529.062	-200.000	0.035	0.155
-528.048	6.815	-0.098	0.074
-527.033	737.812	-0.077	-0.208
-526.018	-36.923	-0.144	-0.078
-525.004	-147.976	-0.184	0.015
-523.989	39.890	-0.157	-0.142
-522.975	-150.966	-0.193	-0.015
-521.960	800.000	-0.040	-0.174
-520.945	-11.635	0.053	-0.035
-519.931	84.034	-0.074	0.081
-518.916	286.055	-0.081	0.147
-517.902	285.625	0.141	0.257
-516.887	80.655	-0.236	-0.256
-515.872	137.919	0.192	0.253
-514.858	85.068	-0.157	0.174
-513.843	-155.379	-0.289	-0.019
-512.829	-12.237	-0.130	0.086
-511.814	-125.014	0.279	0.043
-510.799	215.033	0.246	-0.394
-509.785	84.009	-0.131	0.145
-508.770	22.592	0.066	0.055
-507.756	92.526	-0.121	-0.138
-506.741	-200.000	-0.047	0.209
-505.726	-57.292	-0.130	-0.058
-504.712	-129.501	-0.227	-0.032
-503.697	57.558	0.113	-0.111
-502.683	108.803	0.119	-0.144
-501.668	800.000	0.117	-0.383
-500.653	250.980	0.023	0.039
-499.639	-108.767	-0.017	-0.004
-498.624	-64.947	0.313	0.128
-497.610	-39.062	-0.408	-0.216
-496.595	294.755	0.165	-0.304
-495.581	-200.000	0.008	0.040
-494.566	-200.000	0.016	-0.273
-493.551	-159.416	0.270	-0.015
-492.537	3.515	0.333	-0.245
-491.522	46.381	-0.037	0.035
-490.508	188.365	-0.161	0.242
-489.493	139.411	-0.018	0.024
-488.478	-200.000	0.024	-0.109
-487.464	-75.376	0.304	0.109
-486.449	249.349	-0.103	-0.175
-485.435	8.091	0.282	-0.213
-484.420	-46.678	-0.211	-0.104
-483.405	556.914	0.093	0.225
-482.391	-127.171	0.216	0.032
-481.376	-47.421	0.188	-0.092
-480.362	150.145	0.260	-0.355
-479.347	630.594	-0.060	0.152
-478.332	178.925	0.210	0.309
-477.318	331.788	-0.064	0.124
-476.303	263.059	0.222	0.388
-475.289	29.860	-0.083	0.071
-474.274	-141.764	0.098	-0.010
-473.259	129.727	-0.222	-0.285
-472.245	329.655	-0.301	-0.582
-471.230	290.090	0.060	0.110
-470.216	-13.532	-0.163	0.106
-469.201	145.222	0.148	-0.199
-468.186	79.765	0.093	0.101
-467.172	-97.430	0.385	-0.101
-466.157	332.732	0.109	-0.213
-465.143	48.148	-0.082	-0.078
-464.128	-47.541	-0.059	-0.029
-463.113	338.175	0.083	-0.162
-462.099	-119.672	0.130	-0.023
-461.084	52.076	0.209	0.201
-460.070	19.513	0.272	0.220
-459.055	-200.000	-0.025	0.147
-458.040	-49.950	0.082	-0.039
-457.026	11.617	0.130	-0.100
-456.011	48.587	-0.215	-0.203
-454.997	-164.078	0.148	-0.007
-453.982	800.000	-0.075	0.332
-452.968	-15.225	-0.173	0.111
-451.953	-132.104	-0.091	-0.012
-450.938	377.763	-0.029	-0.060
-449.924	-200.000	-0.061	-0.279
-448.909	-95.453	0.252	-0.068
-447.895	-48.915	-0.267	-0.129
-446.880	436.890	0.071	-0.156
-445.865	369.865	0.149	0.303
-444.851	88.691	0.092	-0.103
-443.836	602.031	0.041	0.103
-442.822	-61.462	-0.252	-0.107
-441.807	-17.170	-0.069	0.044
-440.792	-200.000	-0.007	-0.157
-439.778	-89.428	0.357	-0.106
-438.763	90.479	0.145	0.163
-437.749	-200.000	0.015	-0.383
-436.734	-35.857	-0.149	0.081
-435.719	-200.000	0.084	0.437
-434.705	60.777	0.185	0.185
-433.690	586.946	0.110	0.272
-432.676	-171.541	-0.362	-0.012
-431.661	-31.605	-0.144	0.081
-430.646	-33.211	0.342	-0.191
-429.632	-119.491	-0.134	0.023
-428.617	719.083	-0.041	-0.110
-427.603	-75.984	-0.271	0.096
-426.588	234.929	0.040	-0.067
-425.573	-86.213	0.092	0.028
-424.559	-135.180	0.311	0.038
-423.544	800.000	-0.033	0.129
-422.530	308.664	-0.188	0.352
-421.515	0.213	0.221	0.159
-420.500	20.788	-0.105	0.085
-419.486	-138.233	0.312	-0.035
-418.471	7.991	-0.163	-0.123
-417.457	65.104	0.166	-0.169
-416.442	81.645	-0.195	-0.212
-415.428	239.043	-0.141	-0.236
-414.413	800.000	-0.019	-0.078
-413.398	80.658	-0.160	0.173
-412.384	82.505	-0.189	-0.206
-411.369	138.640	-0.035	0.047
-410.355	-148.120	0.315	0.026
-409.340	-102.157	0.138	-0.033
-408.325	116.427	0.150	0.185
-407.311	364.885	0.068	0.138
-406.296	427.665	0.062	-0.134
-405.282	800.000	-0.035	0.137
-404.267	263.020	0.101	0.176
-403.252	-14.534	0.239	0.154
-402.238	-200.000	0.010	0.177
-401.223	-128.570	0.129	-0.018
-400.209	187.522	0.063	-0.094
-399.194	-175.425	-0.297	0.008
-398.179	-200.000	0.016	0.101
-397.165	800.000	-0.038	-0.124
-396.150	800.000	-0.058	-0.167
-395.136	-200.000	0.017	-0.076
-394.121	800.000	-0.072	0.310
-393.106	-6.546	0.026	0.018
-392.092	-200.000	-0.010	-0.241
-391.077	-29.253	0.195	-0.112
-390.063	800.000	0.041	0.130
-389.048	800.000	0.066	0.217
-388.033	-101.819	-0.409	-0.099
-387.019	7.788	0.089	0.067
-386.004	14.429	0.191	-0.149
-384.990	-30.424	0.141	-0.080
-383.975	-200.000	0.046	0.215
-382.960	-70.606	-0.146	-0.055
-381.946	-53.935	0.222	0.101
-380.931	31.161	-0.067	0.058
-379.917	9.976	-0.086	-0.066
-378.902	-123.884	-0.264	0.042
-377.888	-98.720	-0.305	-0.078
-376.873	765.507	0.165	-0.450
-375.858	-200.000	-0.075	-0.344
-374.844	-50.862	0.205	-0.097
-373.829	-1.873	0.366	-0.258
-372.815	-112.223	0.049	0.010
-371.800	245.703	-0.088	-0.148
-370.785	-135.669	0.077	-0.009
-369.771	-103.751	-0.089	-0.021
-368.756	121.335	-0.190	-0.237
-367.742	-200.000	-0.031	0.274
-366.727	87.027	-0.145	0.160
-365.712	800.000	-0.032	-0.101
-364.698	-117.607	0.099	-0.018
-363.683	58.105	-0.021	0.021
-362.669	-26.487	-0.349	-0.205
-361.654	-10.334	0.141	-0.094
-360.639	-95.686	0.182	0.049
-359.625	112.354	-0.105	-0.127
-358.610	800.000	-0.132	-0.439
-357.596	-83.320	0.179	-0.058
-356.581	-144.497	0.390	0.036
-355.566	-143.499	-0.550	0.053
-354.552	-123.673	-0.219	-0.035
-353.537	151.939	0.039	-0.053
-352.523	155.530	0.142	-0.197
-351.508	6.851	0.098	0.073
-350.493	-54.807	0.152	0.069
-349.479	-200.000	-0.033	-0.254
-348.464	-29.271	0.183	-0.105
-347.450	106.330	0.097	-0.115
-346.435	114.993	0.090	0.110
-345.420	168.622	-0.026	-0.037
-344.406	800.000	-0.072	-0.251
-343.391	-200.000	0.030	0.268
-342.377	-200.000	-0.004	0.274
-341.362	-200.000	-0.082	0.000
-340.348	551.942	-0.074	-0.179
-339.333	-116.679	-0.115	-0.021
-338.318	-200.000	-0.033	-0.199
-337.304	-99.739	-0.176	0.044
-336.289	-115.781	-0.395	-0.074
-335.275	-15.912	-0.276	0.176
-334.260	76.596	-0.099	0.105
-333.245	-35.625	0.179	0.097
-332.231	115.168	0.037	0.045
-331.216	28.089	0.163	-0.137
-330.202	-21.838	0.132	0.080
-329.187	-157.056	0.028	-0.002
-328.172	364.120	0.120	-0.242
-327.158	-38.484	-0.095	-0.050
-326.143	-200.000	0.008	0.093
-325.129	-127.721	0.052	0.007
-324.114	-200.000	-0.003	0.102
-323.099	7.477	-0.310	-0.232
-322.085	-200.000	-0.026	0.466
-321.070	502.172	-0.068	0.156
-320.056	655.994	-0.075	0.194
-319.041	583.548	0.124	0.304
-318.026	154.398	0.223	-0.306
-317.012	-100.521	0.354	-0.088
-315.997	-200.000	-0.002	0.055
-314.983	-77.723	0.523	-0.181
-313.968	-87.341	0.198	-0.060
-312.953	-200.000	0.113	-0.511
-311.939	119.309	-0.084	0.103
-310.924	144.539	-0.131	0.175
-309.910	-200.000	-0.046	-0.271
-308.895	-61.824	0.317	-0.133
-307.880	-10.210	0.277	-0.184
-306.866	250.006	-0.176	0.298
-305.851	186.879	-0.080	0.119
-304.837	-200.000	-0.032	-0.155
-303.822	348.236	0.027	-0.054
-302.807	154.589	-0.128	0.176
-301.793	95.102	0.178	-0.203
-300.778	461.031	0.078	0.173
-299.764	800.000	0.063	0.212
-298.749	-200.000	-0.008	0.231
-297.735	103.044	-0.247	0.289
-296.720	-45.281	0.400	0.199
-295.705	-200.000	0.006	-0.177
-294.691	800.000	0.043	0.177
-293.676	-200.000	0.003	0.156
-292.662	135.055	0.124	0.161
-291.647	-32.863	-0.193	0.107
-290.632	-115.541	0.216	-0.041
-289.618	-95.654	0.210	0.056
-288.603	-162.144	-0.164	0.008
-287.589	259.595	-0.194	0.334
-286.574	-110.773	-0.366	-0.076
-285.559	-96.722	0.212	0.056
-284.545	-138.871	0.099	-0.011
-283.530	363.781	0.096	-0.193
-282.516	277.161	-0.080	0.143
-281.501	-200.000	-0.027	-0.178
-280.486	84.545	-0.108	-0.118
-279.472	-200.000	-0.039	-0.190
-278.457	543.487	0.081	-0.193
-277.443	-14.888	0.039	-0.025
-276.428	-100.086	-0.122	0.030
-275.413	-2.531	-0.238	0.166
-274.399	800.000	0.056	0.218
-273.384	365.079	0.049	-0.099
-272.370	144.723	0.027	-0.036
-271.355	-33.467	-0.313	-0.173
-270.340	-200.000	-0.017	0.084
-269.326	800.000	0.036	0.133
-268.311	14.407	-0.130	-0.101
-267.297	-200.000	0.007	0.286
-266.282	141.885	0.207	0.274
-265.267	800.000	-0.093	0.268
-264.253	-39.866	-0.127	-0.066
-263.238	450.423	0.199	0.438
-262.224	-200.000	-0.010	0.448
-261.209	-36.417	-0.197	0.106
-260.195	-121.845	0.215	-0.035
-259.180	-135.904	0.094	-0.011
-258.165	-160.863	-0.173	0.009
-257.151	-65.337	0.066	-0.026
-256.136	-200.000	-0.051	0.271
-255.122	14.248	0.194	0.151
-254.107	92.810	0.045	0.051
-253.092	-200.000	-0.017	-0.090
-252.078	110.789	0.068	-0.082
-251.063	-97.466	-0.305	-0.079
-250.049	800.000	-0.041	-0.135
-249.034	2.393	0.239	-0.172
-248.019	-51.335	-0.123	0.057
-247.005	268.443	-0.005	0.009
-245.990	-42.283	0.211	0.108
-244.976	-62.745	0.326	0.135
-243.961	-200.000	0.036	0.271
-242.946	800.000	-0.052	-0.159
-241.932	800.000	-0.081	0.352
-240.917	-5.069	-0.189	0.130
-239.903	111.849	-0.119	0.144
-238.888	301.350	-0.161	0.296
-237.873	-12.005	0.400	0.262
-236.859	45.414	-0.179	0.165
-235.844	57.969	-0.029	0.028
-234.830	-71.276	0.222	0.083
-233.815	-84.550	0.209	0.066
-232.800	-189.626	-0.129	0.001
-231.786	3.136	-0.180	0.131
-230.771	800.000	-0.019	-0.066
-229.757	-200.000	0.004	0.126
-228.742	66.302	-0.210	0.213
-227.727	527.842	-0.061	-0.144
-226.713	17.990	-0.144	0.115
-225.698	-156.663	0.040	0.002
-224.684	240.346	0.165	-0.273
-223.669	-114.401	0.017	-0.003
-222.655	-81.926	-0.197	-0.064
-221.640	800.000	0.007	-0.022
-220.625	-200.000	-0.034	-0.177
-219.611	26.152	-0.274	-0.228
-218.596	-200.000	0.018	0.117
-217.582	-200.000	-0.021	0.166
-216.567	-75.415	-0.071	-0.025
-215.552	160.325	-0.230	0.319
-214.538	38.397	-0.118	-0.104
-213.523	-200.000	0.049	-0.213
-212.509	426.534	0.071	-0.152
-211.494	-68.013	0.184	-0.072
-210.479	110.536	0.225	0.270
-209.465	28.636	0.195	0.164
-208.450	-200.000	-0.017	0.092
-207.436	-81.615	0.313	-0.102
-206.421	-0.388	0.187	0.133
-205.406	87.772	0.276	-0.305
-204.392	-99.857	0.247	0.062
-203.377	800.000	0.034	-0.095
-202.363	193.873	-0.012	0.019
-201.348	149.883	-0.067	0.091
-200.333	29.012	-0.233	0.197
-199.319	-200.000	-0.093	-0.469
-198.304	-200.000	-0.032	-0.163
-197.290	-118.173	-0.062	-0.011
-196.275	-125.296	-0.272	0.041
-195.260	56.961	-0.054	-0.052
-194.246	-200.000	0.004	-0.094
-193.231	74.624	-0.038	-0.040
-192.217	257.423	0.026	-0.045
-191.202	438.592	0.052	0.114
-190.187	-102.490	0.252	-0.060
-189.173	175.920	-0.114	0.165
-188.158	104.184	0.105	0.123
-187.144	-123.915	-0.083	-0.013
-186.129	800.000	0.024	-0.072
-185.114	-93.935	0.303	-0.083
-184.100	-43.959	0.169	0.085
-183.085	-86.189	-0.066	0.020
-182.071	32.100	-0.217	0.186
-181.056	25.865	-0.106	0.088
-180.042	-158.840	-0.118	0.007
-179.027	-137.834	-0.284	0.032
-178.012	-90.542	-0.206	-0.059
-176.998	132.602	0.247	0.317
-175.983	148.624	0.060	-0.081
-174.969	800.000	0.028	-0.109
-173.954	-122.766	0.233	0.038
-172.939	407.203	-0.123	-0.260
-171.925	-200.000	-0.020	-0.125
-170.910	320.811	-0.116	0.219
-169.896	-200.000	0.032	0.145
-168.881	-60.995	-0.219	0.092
-167.866	-27.853	-0.055	-0.032
-166.852	-79.589	0.175	-0.059
-165.837	-82.033	-0.092	0.030
-164.823	33.357	-0.157	-0.136
-163.808	-200.000	-0.010	0.286
-162.793	-15.961	0.177	0.112
-161.779	-200.000	0.035	0.179
-160.764	-140.624	-0.111	-0.011
-159.750	-55.906	-0.102	-0.045
-158.735	12.980	-0.101	0.077
-157.720	12.852	0.158	0.121
-156.706	-200.000	-0.039	0.361
-155.691	21.275	-0.122	-0.099
-154.677	209.367	0.111	-0.172
-153.662	722.811	0.042	-0.111
-152.647	127.995	0.208	-0.263
-151.633	-98.580	0.116	0.029
-150.618	70.490	-0.157	0.161
-149.604	-200.000	-0.005	-0.052
-148.589	204.521	-0.170	-0.262
-147.574	310.069	-0.020	0.037
-146.560	1.867	-0.149	0.107
-145.545	73.033	0.153	-0.159
-144.531	331.066	0.165	-0.317
-143.516	-200.000	-0.010	-0.187
-142.502	-110.148	0.313	0.065
-141.487	372.304	0.030	-0.061
-140.472	145.105	0.212	-0.282
-139.458	342.243	-0.026	0.050
-138.443	88.188	0.143	0.157
-137.429	162.779	-0.156	0.217
-136.414	-60.204	0.176	-0.075
-135.399	-200.000	-0.006	0.174
-134.385	216.941	-0.198	-0.313
-133.370	800.000	0.116	0.388
-132.356	13.243	-0.224	-0.172
-131.341	-21.901	0.110	-0.066
-130.326	-60.445	-0.279	-0.118
-129.312	800.000	0.057	0.163
-128.297	397.373	0.011	0.024
-127.283	236.715	0.242	0.398
-126.268	-98.155	0.185	-0.047
-125.253	-120.702	0.226	0.038
-124.239	-41.999	-0.146	-0.074
-123.224	274.541	0.041	-0.071
-122.210	120.768	-0.158	0.195
-121.195	-200.000	0.021	-0.202
-120.180	-114.248	0.351	-0.067
-119.166	-200.000	0.022	0.164
-118.151	-13.930	-0.252	-0.162
-117.137	-200.000	0.027	0.272
-116.122	-49.054	-0.098	0.047
-115.107	-200.000	0.036	-0.271
-114.093	-77.720	-0.188	-0.065
-113.078	-93.612	-0.261	0.071
-112.064	-200.000	-0.023	-0.106
-111.049	277.638	0.178	0.315
-110.034	-200.000	-0.021	0.167
-109.020	-72.123	-0.295	-0.108
-108.005	-86.370	0.429	-0.131
-106.991	-118.757	-0.237	-0.042
-105.976	-157.157	-0.193	0.012
-104.962	-129.116	0.119	-0.016
-103.947	-118.571	0.114	-0.020
-102.932	-92.590	-0.103	0.029
-101.918	-200.000	-0.003	0.248
-100.903	330.257	0.068	0.130
-99.889	32.163	-0.190	0.162
-98.874	552.767	0.069	0.165
-97.859	203.816	0.210	0.323
-96.845	9.054	-0.291	-0.218
-95.830	-200.000	-0.050	-0.305
-94.816	-105.640	0.144	-0.032
-93.801	-116.362	-0.221	0.041
-92.786	417.187	0.080	-0.170
-91.772	125.659	0.056	-0.070
-90.757	28.804	0.374	-0.314
-89.743	-200.000	0.002	-0.127
-88.728	-91.557	0.182	-0.052
-87.713	50.611	-0.266	0.249
-86.699	800.000	0.075	0.291
-85.684	43.322	0.354	0.321
-84.670	-200.000	0.003	0.057
-83.655	19.421	0.287	0.229
-82.640	74.913	0.104	-0.108
-81.626	143.910	-0.202	-0.267
-80.611	800.000	-0.072	0.220
-79.597	134.103	-0.324	-0.416
-78.582	-45.031	0.090	-0.045
-77.567	-140.782	0.440	-0.045
-76.553	-14.231	0.198	-0.127
-75.538	-12.396	0.155	0.101
-74.524	-200.000	0.003	0.036
-73.509	-143.068	-0.216	0.021
-72.494	35.429	0.104	-0.090
-71.480	-70.488	-0.592	0.222
-70.465	-200.000	0.021	0.108
-69.451	-200.000	0.061	-0.345
-68.436	-40.245	0.217	-0.112
-67.422	-200.000	0.051	0.372
-66.407	-200.000	0.020	-0.180
-65.392	800.000	-0.018	0.053
-64.378	-200.000	0.012	-0.228
-63.363	633.106	-0.039	0.097
-62.349	-112.732	-0.151	-0.030
-61.334	99.876	-1.135	-1.302
-60.319	-6.464	0.643	0.434
-59.305	-200.000	0.012	-0.691
-58.290	136.296	0.739	0.954
-57.276	800.000	0.546	1.610
-56.261	-200.000	94.603	579.529
-55.246	650.875	1370.417	3475.809
-54.232	195.900	2550.469	3842.199
-53.217	110.114	2299.826	2734.004
-52.203	39.183	2062.933	1827.574
-51.188	34.330	1977.589	1708.513
-50.173	32.862	1959.537	1679.800
-49.159	47.405	2008.537	1853.177
-48.144	48.815	2026.515	1882.408
-47.130	34.961	1988.592	1723.439
-46.115	32.525	1978.796	1693.003
-45.100	32.458	1975.745	1689.726
-44.086	32.380	1973.650	1687.169
-43.071	32.332	1970.595	1684.062
-42.057	32.356	1968.156	1682.128
-41.042	32.306	1966.601	1680.284
-40.027	32.404	1964.591	1679.375
-39.013	32.459	1962.498	1678.007
-37.998	32.453	1960.834	1676.468
-36.984	32.495	1958.795	1675.030
-35.969	32.543	1956.875	1673.749
-34.954	32.513	1955.404	1672.156
-33.940	32.610	1953.888	1671.658
-32.925	32.650	1951.982	1670.308
-31.911	32.617	1950.501	1668.688
-30.896	32.610	1948.893	1667.181
-29.881	32.584	1947.699	1665.867
-28.867	32.625	1945.846	1664.579
-27.852	32.670	1944.257	1663.545
-26.838	32.559	1941.809	1660.413
-25.823	32.529	1940.272	1658.764
-24.809	32.552	1938.542	1657.419
-23.794	32.461	1937.418	1655.592
-22.779	32.566	1934.793	1654.210
-21.765	32.557	1933.623	1653.061
-20.750	32.593	1931.638	1651.617
-19.736	32.570	1930.095	1650.034
-18.721	32.553	1928.457	1648.419
-17.706	32.606	1926.809	1647.402
-16.692	32.647	1925.118	1646.254
-15.677	32.648	1923.641	1644.933
-14.663	32.566	1922.700	1643.347
-13.648	32.564	1921.249	1642.026
-12.633	32.615	1919.908	1641.261
-11.619	32.592	1918.882	1640.113
-10.604	32.570	1917.239	1638.456
-9.590	32.508	1915.948	1636.743
-8.575	32.579	1914.414	1635.984
-7.560	32.600	1912.392	1634.379
-6.546	32.531	1912.089	1633.453
-5.531	32.563	1910.339	1632.169
-4.517	32.577	1909.240	1631.289
-3.502	32.577	1907.993	1630.164
-2.487	32.618	1907.088	1629.680
-1.473	32.570	1906.163	1628.409
-0.458	32.647	1901.385	1624.920
0.556	32.329	1882.196	1598.019
1.571	28.190	1863.670	1547.244
2.586	24.353	1885.055	1531.971
3.600	23.254	1921.127	1551.524
4.615	22.631	1916.516	1542.214
5.629	17.525	1815.788	1418.605
6.644	8.984	1698.385	1259.942
7.659	4.993	1662.859	1202.734
8.673	4.798	1658.981	1198.324
9.688	4.672	1657.793	1196.393
10.702	4.631	1656.674	1195.162
11.717	4.678	1653.101	1192.842
12.731	5.180	1652.454	1196.110
13.746	10.733	1665.373	1248.135
14.761	17.980	1681.333	1316.021
15.775	19.948	1683.387	1332.675
16.790	19.105	1679.848	1323.277
17.804	17.960	1677.102	1312.208
18.819	16.889	1673.931	1301.394
19.834	16.337	1670.910	1294.698
20.848	16.075	1669.638	1291.593
21.863	15.817	1668.349	1288.505
22.877	15.574	1666.834	1285.359
23.892	15.426	1665.163	1282.825
24.907	15.377	1663.762	1281.261
25.921	15.337	1662.744	1280.059
26.936	15.283	1662.033	1278.982
27.950	15.295	1661.416	1278.491
28.965	15.287	1661.128	1278.088
29.980	15.414	1659.796	1277.924
30.994	15.533	1658.837	1277.973
32.009	15.658	1657.456	1277.745
33.023	15.604	1657.096	1276.946
34.038	15.580	1656.387	1276.105
35.053	15.553	1654.827	1274.586
36.067	15.532	1653.469	1273.270
37.082	15.538	1652.400	1272.379
38.096	15.509	1651.412	1271.281
39.111	15.530	1650.955	1270.980
40.126	15.676	1649.519	1270.865
41.140	15.544	1649.152	1269.469
42.155	15.378	1647.500	1266.837
43.169	15.260	1646.051	1264.719
44.184	15.252	1644.859	1263.629
45.199	15.282	1643.396	1262.623
46.213	15.227	1642.480	1261.392
47.228	15.188	1641.687	1260.381
48.242	15.393	1640.415	1260.826
49.257	15.484	1639.157	1260.437
50.271	15.431	1638.080	1259.098
51.286	15.447	1636.692	1258.039
52.301	15.490	1635.425	1257.278
53.315	15.429	1634.001	1255.610
54.330	15.408	1632.924	1254.516
55.344	15.315	1630.965	1252.210
56.359	15.298	1629.551	1250.884
57.374	15.273	1628.874	1250.071
58.388	15.322	1627.330	1249.138
59.403	15.265	1626.419	1247.901
60.417	15.176	1625.363	1246.322
61.432	15.229	1624.331	1245.812
62.447	15.181	1622.771	1244.146
63.461	15.092	1621.745	1242.589
64.476	15.122	1620.809	1241.985
65.490	15.192	1619.598	1241.465
66.505	15.182	1617.863	1239.951
67.520	15.107	1616.942	1238.588
68.534	15.104	1616.347	1237.997
69.549	15.143	1615.154	1237.263
70.563	15.261	1613.177	1236.509
71.578	15.213	1612.443	1235.484
72.593	15.072	1611.502	1233.610
73.607	15.038	1610.452	1232.453
74.622	15.009	1609.063	1231.065
75.636	14.942	1608.295	1229.871
76.651	15.031	1607.868	1230.095
77.666	14.999	1607.135	1229.191
78.680	15.029	1606.363	1228.713
79.695	15.055	1604.853	1227.635
80.709	15.049	1604.382	1227.125
81.724	15.140	1603.704	1227.161
82.739	15.182	1602.731	1226.616
83.753	15.241	1601.969	1226.359
84.768	15.380	1600.924	1226.464
85.782	15.456	1600.208	1226.365
86.797	15.371	1599.681	1225.228
87.812	15.440	1598.772	1224.930
88.826	15.436	1597.089	1223.503
89.841	15.433	1596.251	1222.730
90.855	15.416	1594.763	1221.361
91.870	15.427	1594.128	1220.846
92.884	15.461	1592.844	1219.999
93.899	15.487	1592.314	1219.674
94.914	15.500	1590.915	1218.591
95.928	15.529	1589.942	1217.950
96.943	15.596	1588.502	1217.220
97.957	15.525	1587.471	1215.810
98.972	15.499	1585.306	1213.856
99.987	15.541	1584.097	1213.125
101.001	15.536	1582.237	1211.556
102.016	15.499	1580.964	1210.213
103.030	15.389	1580.295	1208.801
104.045	15.505	1578.707	1208.309
105.060	15.508	1577.326	1207.170
106.074	15.536	1575.708	1206.024
107.089	15.335	1574.486	1203.540
108.103	15.169	1573.125	1201.201
109.118	15.144	1571.326	1199.547
110.133	15.155	1569.738	1198.306
111.147	15.090	1568.836	1197.048
112.162	15.146	1567.228	1196.112
113.176	15.217	1565.545	1195.229
114.191	15.218	1564.281	1194.169
115.206	15.262	1563.206	1193.551
116.220	15.213	1562.148	1192.294
117.235	15.251	1560.342	1191.075
118.249	15.218	1559.177	1189.851
119.264	15.148	1558.428	1188.671
120.279	15.067	1557.032	1186.928
121.293	15.147	1555.001	1185.842
122.308	15.175	1553.417	1184.726
123.322	15.129	1552.240	1183.401
124.337	15.145	1550.520	1182.098
125.352	15.198	1549.257	1181.403
126.366	15.065	1548.369	1179.686
127.381	15.121	1546.718	1178.720
128.395	15.099	1546.108	1177.991
129.410	15.080	1544.688	1176.674
130.424	15.012	1543.918	1175.505
131.439	15.145	1541.926	1174.821
132.454	15.207	1540.670	1174.195
133.468	15.245	1539.204	1173.237
134.483	15.317	1537.763	1172.539
135.497	15.284	1536.574	1171.297
136.512	15.288	1535.425	1170.344
137.527	15.392	1533.604	1169.582
138.541	15.251	1533.167	1168.163
139.556	15.309	1531.648	1167.303
140.570	15.391	1529.979	1166.499
141.585	15.408	1529.044	1165.801
142.600	15.408	1528.007	1164.903
143.614	15.574	1526.534	1164.833
144.629	15.558	1525.625	1163.924
145.643	15.668	1524.142	1163.451
146.658	15.663	1522.779	1162.272
147.673	15.612	1521.544	1160.872
148.687	15.483	1520.193	1158.849
149.702	15.544	1518.060	1157.545
150.716	15.487	1516.395	1155.778
151.731	15.383	1515.466	1154.255
152.746	15.414	1514.573	1153.686
153.760	15.484	1512.865	1152.763
154.775	15.441	1511.760	1151.523
155.789	15.497	1510.556	1150.886
156.804	15.487	1509.511	1149.918
157.819	15.652	1507.915	1149.729
158.833	15.583	1506.938	1148.410
159.848	15.655	1505.708	1147.863
160.862	15.779	1504.578	1147.750
161.877	15.616	1504.022	1146.112
162.892	15.661	1502.649	1145.268
163.906	15.586	1500.849	1143.284
164.921	15.536	1499.408	1141.745
165.935	15.508	1498.540	1140.793
166.950	15.584	1497.844	1140.685
167.964	15.559	1496.481	1139.375
168.979	15.588	1495.750	1138.914
169.994	15.617	1495.026	1138.458
171.008	15.638	1493.703	1137.488
172.023	15.649	1492.304	1136.397
173.037	15.708	1491.043	1135.736
174.052	15.745	1490.419	1135.410
175.067	15.777	1489.136	1134.545
176.081	15.681	1488.271	1133.145
177.096	15.565	1487.120	1131.382
178.110	15.570	1485.500	1130.086
179.125	15.681	1484.448	1129.930
180.140	15.710	1483.256	1129.118
181.154	15.614	1482.847	1128.066
182.169	15.667	1481.052	1126.955
183.183	15.747	1480.228	1126.764
184.198	15.781	1479.219	1126.122
185.213	15.920	1477.668	1125.773
186.227	15.948	1476.608	1125.051
187.242	15.895	1475.771	1123.957
188.256	15.971	1474.782	1123.612
189.271	15.960	1473.675	1122.600
190.286	15.979	1472.625	1121.823
191.300	15.932	1471.886	1120.852
192.315	15.806	1469.893	1118.394
193.329	15.590	1468.892	1116.101
194.344	15.648	1467.574	1115.385
195.359	15.618	1467.039	1114.681
196.373	15.708	1466.048	1114.424
197.388	15.790	1464.917	1114.008
198.402	15.823	1464.208	1113.592
199.417	15.973	1462.936	1113.519
200.432	16.059	1462.127	1113.368
201.446	16.150	1461.390	1113.310
202.461	16.148	1460.567	1112.573
203.475	16.215	1459.355	1111.996
204.490	16.272	1458.272	1111.444
205.504	16.161	1457.152	1109.759
206.519	16.146	1455.755	1108.500
207.534	16.080	1454.663	1107.136
208.548	16.059	1453.473	1105.999
209.563	16.123	1452.548	1105.613
210.577	16.044	1451.836	1104.457
211.592	16.023	1450.673	1103.336
212.607	16.116	1450.187	1103.477
213.621	16.299	1449.408	1103.987
214.636	16.263	1448.631	1103.060
215.650	16.231	1447.251	1101.700
216.665	16.248	1446.158	1100.882
217.680	16.311	1445.654	1100.814
218.694	16.316	1444.980	1100.238
219.709	16.374	1444.425	1100.095
220.723	16.334	1443.092	1098.721
221.738	16.312	1442.407	1097.960
222.753	16.328	1441.184	1097.036
223.767	16.404	1440.455	1096.878
224.782	16.359	1439.255	1095.571
225.796	16.433	1438.584	1095.445
226.811	16.498	1437.647	1095.055
227.826	16.513	1436.763	1094.385
228.840	16.493	1436.172	1093.708
229.855	16.425	1435.298	1092.503
230.869	16.372	1434.164	1091.203
231.884	16.444	1432.893	1090.607
232.899	16.361	1431.804	1089.143
233.913	16.405	1430.248	1088.145
234.928	16.322	1429.458	1086.913
235.942	16.284	1428.380	1085.757
236.957	16.303	1427.065	1084.778
237.972	16.299	1425.986	1083.838
238.986	16.355	1424.603	1083.053
240.001	16.369	1424.298	1082.811
241.015	16.405	1423.279	1082.176
242.030	16.393	1422.161	1081.152
243.045	16.425	1421.030	1080.399
244.059	16.508	1419.818	1079.913
245.074	16.389	1419.841	1079.078
246.088	16.538	1418.409	1078.843
247.103	16.561	1418.192	1078.725
248.117	16.613	1417.307	1078.290
249.132	16.689	1416.356	1077.958
250.147	16.744	1415.730	1077.737
251.161	16.816	1415.502	1077.926
252.176	16.896	1414.880	1077.862
253.190	17.015	1414.336	1078.111
254.205	16.949	1413.276	1076.785
255.220	17.047	1412.135	1076.447
256.234	17.103	1411.643	1076.327
257.249	17.085	1410.574	1075.303
258.263	17.105	1409.632	1074.620
259.278	17.057	1408.884	1073.651
260.293	17.029	1408.279	1072.918
261.307	17.084	1407.328	1072.443
262.322	17.173	1406.164	1072.025
263.336	17.247	1405.616	1071.980
264.351	17.215	1404.442	1070.789
265.366	17.209	1403.646	1070.045
266.380	17.294	1402.784	1069.828
267.395	17.243	1401.899	1068.742
268.409	17.305	1400.825	1068.218
269.424	17.246	1399.696	1066.891
270.439	17.144	1399.127	1065.721
271.453	17.140	1398.055	1064.783
272.468	17.178	1396.757	1063.941
273.482	17.189	1396.025	1063.356
274.497	17.125	1395.410	1062.397
275.512	17.118	1394.590	1061.634
276.526	17.182	1393.663	1061.233
277.541	17.231	1392.356	1060.448
278.555	17.203	1391.949	1059.869
279.570	17.169	1391.222	1059.014
280.585	17.301	1390.081	1058.869
281.599	17.351	1389.367	1058.542
282.614	17.367	1388.597	1057.965
283.628	17.405	1387.281	1057.106
284.643	17.331	1386.333	1055.829
285.657	17.250	1385.303	1054.450
286.672	17.325	1384.263	1054.026
287.687	17.317	1383.288	1053.143
288.701	17.316	1382.168	1052.194
289.716	17.300	1381.726	1051.662
290.730	17.396	1380.885	1051.523
291.745	17.417	1379.959	1050.854
292.760	17.410	1378.751	1049.797
293.774	17.458	1377.794	1049.276
294.789	17.395	1377.165	1048.311
295.803	17.453	1376.604	1048.153
296.818	17.628	1375.316	1048.155
297.833	17.514	1374.496	1046.732
298.847	17.468	1373.706	1045.758
299.862	17.416	1372.632	1044.529
300.876	17.463	1371.341	1043.743
301.891	17.477	1370.779	1043.309
302.906	17.512	1370.425	1043.162
303.920	17.644	1369.457	1043.142
304.935	17.653	1368.380	1042.283
305.949	17.694	1367.653	1041.890
306.964	17.705	1367.205	1041.523
307.979	17.899	1366.097	1041.768
308.993	17.841	1364.986	1040.477
310.008	17.734	1364.010	1038.988
311.022	17.789	1362.901	1038.383
312.037	17.823	1362.246	1038.004
313.052	17.905	1361.171	1037.591
314.066	17.834	1360.030	1036.197
315.081	17.719	1359.229	1034.793
316.095	17.635	1358.117	1033.346
317.110	17.574	1356.949	1032.001
318.125	17.608	1356.204	1031.547
319.139	17.588	1355.397	1030.723
320.154	17.618	1354.529	1030.151
321.168	17.781	1352.977	1029.866
322.183	17.662	1351.971	1028.286
323.197	17.601	1351.365	1027.372
324.212	17.686	1350.554	1027.176
325.227	17.844	1349.424	1027.172
326.241	17.797	1348.791	1026.319
327.256	17.845	1347.881	1025.825
328.270	17.709	1347.378	1024.532
329.285	17.784	1346.160	1023.968
330.300	17.770	1345.324	1023.158
331.314	17.819	1344.294	1022.580
332.329	17.760	1343.831	1021.779
333.343	17.763	1342.960	1021.044
334.358	17.833	1341.882	1020.556
335.373	17.980	1341.465	1021.026
336.387	17.946	1340.355	1019.884
337.402	18.017	1339.348	1019.452
338.416	17.914	1339.038	1018.513
339.431	17.997	1338.527	1018.529
340.446	18.063	1337.300	1017.899
341.460	18.072	1337.086	1017.699
342.475	18.145	1335.730	1017.013
343.489	18.197	1334.984	1016.662
344.504	18.253	1333.971	1016.134
345.519	18.241	1333.279	1015.447
346.533	18.274	1332.262	1014.777
347.548	18.394	1331.387	1014.732
348.562	18.441	1330.572	1014.299
349.577	18.414	1329.886	1013.525
350.592	18.323	1329.028	1012.247
351.606	18.221	1328.124	1010.866
352.621	18.130	1327.070	1009.433
353.635	18.156	1325.842	1008.564
354.650	18.070	1325.347	1007.596
355.665	18.231	1323.613	1007.131
356.679	18.255	1322.504	1006.341
357.694	18.279	1321.426	1005.572
358.708	18.277	1320.513	1004.780
359.723	18.258	1319.836	1004.063
360.738	18.262	1318.975	1003.340
361.752	18.291	1318.048	1002.718
362.767	18.254	1316.824	1001.480
363.781	18.383	1315.733	1001.315
364.796	18.320	1315.395	1000.601
365.810	18.374	1314.532	1000.172
366.825	18.507	1313.608	1000.159
367.840	18.553	1313.366	1000.153
368.854	18.635	1312.622	999.975
369.869	18.680	1312.049	999.716
370.883	18.661	1311.589	999.165
371.898	18.604	1311.059	998.343
372.913	18.670	1309.645	997.560
373.927	18.698	1308.662	996.885
374.942	18.642	1307.847	995.849
375.956	18.719	1307.259	995.761
376.971	18.705	1306.666	995.138
377.986	18.707	1305.564	994.224
379.000	18.651	1304.944	993.337
380.015	18.927	1303.908	994.058
381.029	18.825	1303.513	993.082
382.044	18.775	1303.354	992.582
383.059	18.935	1301.999	992.386
384.073	18.833	1301.389	991.245
385.088	18.910	1300.514	990.937
386.102	18.871	1300.389	990.528
387.117	18.905	1299.176	989.710
388.132	18.857	1298.686	988.977
389.146	18.834	1297.235	987.649
390.161	18.746	1296.599	986.572
391.175	18.826	1295.609	986.192
392.190	18.776	1294.760	985.170
393.205	18.809	1294.400	984.997
394.219	18.987	1293.057	984.907
395.234	18.945	1292.056	983.817
396.248	18.931	1290.335	982.342
397.263	18.907	1289.098	981.176
398.278	18.918	1287.725	980.110
399.292	18.820	1286.660	978.650
400.307	18.747	1285.917	977.584
401.321	18.687	1284.985	976.451
402.336	18.719	1283.663	975.536
403.350	18.818	1282.648	975.241
404.365	18.895	1281.945	975.059
405.380	18.920	1280.896	974.317
406.394	18.849	1279.921	973.088
407.409	18.933	1279.544	973.190
408.423	18.963	1278.649	972.595
409.438	19.117	1278.039	972.914
410.453	19.126	1277.588	972.536
411.467	19.113	1276.931	971.876
412.482	19.205	1276.396	971.902
413.496	19.173	1275.953	971.299
414.511	19.337	1274.885	971.325
415.526	19.300	1274.103	970.433
416.540	19.383	1273.654	970.470
417.555	19.432	1272.995	970.161
418.569	19.386	1272.622	969.532
419.584	19.335	1272.018	968.695
420.599	19.273	1271.558	967.915
421.613	141.017	1432.042	1794.928
422.628	135.548	1455.407	1795.045
