DTS Sentinel unit serial number:	SN413079Multiplexer serial number:	ORYXHardware model number:	OX4-SRSoftware version number:	ORYX F/W v4.00 Oryx Data Collector v3.7.2.0data status	okinstallation	princeton_trtdifferential loss correction	single-endedforward channel	channel 4reverse channel	N/Adate	2019/09/15time	19:49:34forward acquisition time	60.00reverse acquisition time	0.00gamma	496.2192k internal	0.2306k external	0.2306temperature offset calibration	0.9928default loss term (dB/km)	0.3790temperature slope calibration	1.0000multiplexer offset coefficient	1.0000multiplexer slope coefficient	1.0000fibre end	0.00T internal ref (°C)	36.72T ext. ref 1 (°C)	7.46T ext. ref 2 (°C)	26.87length (m)	temperature (°C)	Stokes	anti-Stokes-747.200	-121.223	0.147	-0.025
-746.185	-151.332	0.358	-0.027
-745.171	27.665	0.221	0.189
-744.156	-35.872	-0.299	-0.165
-743.142	102.551	0.045	-0.054
-742.127	-200.000	-0.027	-0.207
-741.112	-200.000	0.039	-0.195
-740.098	-200.000	-0.016	-0.146
-739.083	800.000	-0.044	0.148
-738.069	129.340	-0.260	0.338
-737.054	-12.985	-0.195	-0.129
-736.039	-46.182	-0.219	0.109
-735.025	382.797	0.076	0.160
-734.010	-104.805	-0.293	-0.068
-732.996	260.347	-0.249	-0.437
-731.981	-157.945	0.110	0.007
-730.966	480.570	0.131	-0.302
-729.952	800.000	-0.045	-0.141
-728.937	225.603	0.127	-0.210
-727.923	380.695	-0.093	-0.194
-726.908	-200.000	-0.008	0.069
-725.894	316.498	0.158	-0.304
-724.879	-200.000	-0.017	-0.331
-723.864	57.222	0.168	0.167
-722.850	-200.000	0.010	-0.258
-721.835	127.902	-0.122	0.157
-720.821	19.868	0.255	-0.209
-719.806	-119.984	0.235	0.041
-718.791	167.040	-0.152	-0.219
-717.777	97.525	-0.150	-0.175
-716.762	-75.349	0.187	-0.068
-715.748	85.855	0.136	0.152
-714.733	-48.722	-0.128	0.062
-713.718	-166.196	-0.068	0.003
-712.704	-27.839	0.194	-0.114
-711.689	-200.000	-0.005	-0.113
-710.675	-64.988	0.199	-0.082
-709.660	-200.000	-0.053	-0.279
-708.645	800.000	-0.133	0.384
-707.631	-83.901	0.164	0.053
-706.616	-200.000	-0.044	-0.377
-705.602	800.000	-0.077	-0.223
-704.587	-93.900	-0.026	-0.007
-703.572	215.933	-0.122	-0.197
-702.558	126.770	0.136	-0.174
-701.543	-200.000	-0.013	0.180
-700.529	800.000	-0.074	-0.256
-699.514	800.000	-0.036	0.121
-698.499	-200.000	0.004	-0.307
-697.485	54.022	-0.114	0.111
-696.470	205.582	0.161	-0.253
-695.456	-97.204	0.183	0.049
-694.441	-200.000	0.001	-0.102
-693.426	800.000	-0.064	-0.240
-692.412	800.000	-0.047	-0.146
-691.397	-87.299	-0.213	0.065
-690.383	249.233	0.041	0.070
-689.368	-7.998	-0.184	-0.126
-688.354	-200.000	0.034	-0.182
-687.339	358.866	-0.082	-0.167
-686.324	213.295	0.060	-0.096
-685.310	-157.501	-0.182	0.011
-684.295	800.000	-0.103	-0.331
-683.281	800.000	0.047	-0.173
-682.266	-200.000	-0.035	-0.590
-681.251	97.957	0.135	-0.157
-680.237	263.132	0.091	0.160
-679.222	-157.908	0.068	0.004
-678.208	-94.739	0.396	-0.109
-677.193	53.485	-0.321	-0.313
-676.178	-200.000	0.011	-0.121
-675.164	147.880	0.222	-0.304
-674.149	-200.000	-0.057	-0.367
-673.135	-38.497	-0.157	-0.084
-672.120	66.392	-0.104	-0.107
-671.105	-183.560	0.257	-0.004
-670.091	-177.393	-0.266	-0.007
-669.076	226.391	0.063	0.103
-668.062	84.342	-0.150	-0.167
-667.047	234.305	-0.049	0.082
-666.032	497.475	0.104	-0.243
-665.018	664.962	0.089	0.233
-664.003	-200.000	-0.060	0.320
-662.989	38.209	0.122	0.111
-661.974	-75.862	0.149	0.054
-660.959	390.995	-0.102	-0.214
-659.945	-29.525	-0.095	0.055
-658.930	417.724	-0.046	-0.100
-657.916	366.475	-0.121	0.248
-656.901	321.548	-0.032	-0.061
-655.886	230.340	-0.084	-0.138
-654.872	-200.000	-0.009	0.280
-653.857	51.291	-0.208	0.200
-652.843	-95.661	-0.165	-0.045
-651.828	800.000	0.050	0.155
-650.814	-123.423	-0.137	-0.022
-649.799	800.000	0.083	0.258
-648.784	-79.822	-0.221	0.075
-647.770	-8.256	-0.141	0.096
-646.755	123.914	0.261	-0.333
-645.741	136.694	-0.009	-0.012
-644.726	-189.933	-0.056	-0.001
-643.711	-99.148	0.229	0.059
-642.697	-65.311	-0.288	0.117
-641.682	4.744	0.113	0.084
-640.668	85.653	-0.110	0.122
-639.653	-200.000	0.079	-0.403
-638.638	-36.679	-0.138	0.075
-637.624	-101.821	-0.376	0.092
-636.609	-17.378	-0.247	-0.157
-635.595	-132.192	0.428	0.056
-634.580	16.652	-0.044	-0.035
-633.565	-14.164	0.172	-0.112
-632.551	145.257	0.234	0.317
-631.536	-147.259	0.200	0.017
-630.522	64.296	0.062	-0.063
-629.507	367.219	0.172	-0.352
-628.492	-98.782	-0.166	-0.043
-627.478	86.518	-0.095	-0.106
-626.463	-40.340	-0.158	0.083
-625.449	61.311	0.133	0.134
-624.434	-200.000	-0.255	-0.001
-623.419	-110.151	0.251	0.053
-622.405	-86.742	0.188	-0.058
-621.390	405.784	-0.117	-0.250
-620.376	24.732	-0.115	-0.097
-619.361	193.759	-0.307	-0.470
-618.346	59.394	-0.123	0.123
-617.332	482.329	0.035	0.081
-616.317	537.829	0.095	0.227
-615.303	180.864	0.130	0.193
-614.288	-9.448	0.128	0.087
-613.273	-148.369	-0.238	0.020
-612.259	800.000	-0.041	0.127
-611.244	-102.958	0.043	-0.010
-610.230	206.574	-0.118	-0.186
-609.215	216.692	0.114	-0.183
-608.201	-200.000	-0.010	-0.081
-607.186	274.864	-0.203	-0.365
-606.171	43.017	0.053	-0.049
-605.157	169.163	-0.111	-0.160
-604.142	179.676	-0.058	0.086
-603.128	800.000	-0.071	0.203
-602.113	73.208	0.237	0.251
-601.098	219.516	-0.175	0.283
-600.084	-21.512	-0.082	0.051
-599.069	-74.909	-0.113	-0.041
-598.055	452.021	-0.105	0.235
-597.040	-64.188	-0.148	0.061
-596.025	-77.224	-0.326	-0.115
-595.011	440.856	0.174	0.384
-593.996	113.430	0.131	0.161
-592.982	800.000	-0.045	-0.158
-591.967	-79.871	-0.225	-0.076
-590.952	800.000	-0.024	-0.089
-589.938	392.939	-0.057	-0.120
-588.923	-155.840	0.228	0.015
-587.909	-13.914	0.070	-0.046
-586.894	-97.895	0.150	-0.039
-585.879	-184.898	-0.105	-0.002
-584.865	402.943	0.190	0.405
-583.850	54.301	-0.113	-0.110
-582.836	-30.254	0.270	-0.155
-581.821	425.269	-0.059	-0.127
-580.806	62.873	-0.137	-0.138
-579.792	-200.000	-0.031	0.173
-578.777	316.170	0.083	-0.158
-577.763	97.352	0.366	-0.424
-576.748	-185.103	0.205	-0.003
-575.733	-125.016	0.234	0.036
-574.719	296.505	0.025	-0.046
-573.704	800.000	-0.135	-0.386
-572.690	-119.087	-0.478	-0.084
-571.675	-69.982	0.076	-0.029
-570.661	800.000	0.107	-0.355
-569.646	671.286	0.089	-0.233
-568.631	-28.211	-0.191	0.112
-567.617	800.000	-0.099	-0.341
-566.602	4.027	0.167	-0.124
-565.588	763.069	-0.139	-0.381
-564.573	18.693	0.188	0.152
-563.558	370.349	-0.189	-0.387
-562.544	35.057	0.147	-0.130
-561.529	-111.629	-0.083	-0.017
-560.515	-37.143	0.289	-0.156
-559.500	-40.875	0.374	-0.196
-558.485	45.580	-0.055	0.052
-557.471	-39.145	-0.329	0.174
-556.456	370.940	0.135	-0.277
-555.442	576.550	-0.126	-0.310
-554.427	23.169	0.085	0.071
-553.412	-54.346	-0.417	-0.191
-552.398	-200.000	-0.011	-0.419
-551.383	-200.000	-0.008	0.134
-550.369	-200.000	-0.027	0.180
-549.354	-200.000	-0.005	-0.026
-548.339	-46.182	0.332	0.165
-547.325	-200.000	0.001	0.233
-546.310	-143.771	-0.232	0.022
-545.296	-6.939	-0.284	0.195
-544.281	314.537	0.105	0.199
-543.266	594.536	0.071	-0.177
-542.252	214.075	0.252	0.402
-541.237	-79.945	-0.246	0.084
-540.223	-68.509	0.232	0.091
-539.208	33.785	0.013	-0.011
-538.193	49.421	-0.226	0.214
-537.179	-136.370	0.108	0.013
-536.164	51.829	-0.388	0.372
-535.150	9.831	0.291	-0.222
-534.135	-7.760	0.158	-0.107
-533.121	-200.000	-0.080	-0.440
-532.106	-70.222	-0.179	-0.069
-531.091	800.000	0.029	0.096
-530.077	-113.378	0.184	0.036
-529.062	80.041	-0.072	0.078
-528.048	510.721	-0.015	-0.036
-527.033	25.987	0.080	-0.067
-526.018	-26.691	0.128	-0.076
-525.004	800.000	-0.098	-0.337
-523.989	-1.471	0.075	-0.054
-522.975	-100.221	0.247	-0.062
-521.960	-200.000	-0.005	0.032
-520.945	-200.000	-0.014	-0.215
-519.931	38.278	0.251	-0.225
-518.916	-120.946	0.480	-0.081
-517.902	-200.000	0.012	-0.228
-516.887	64.514	0.051	0.052
-515.872	-37.355	-0.331	0.178
-514.858	-157.374	0.115	-0.007
-513.843	-132.164	-0.459	-0.060
-512.829	-138.535	-0.042	0.005
-511.814	-76.520	0.045	-0.016
-510.799	-38.439	-0.058	-0.031
-509.785	-147.502	-0.256	-0.022
-508.770	15.278	-0.265	-0.209
-507.756	-56.666	-0.254	-0.114
-506.741	-200.000	0.027	-0.254
-505.726	-132.730	0.165	-0.021
-504.712	8.605	0.175	0.133
-503.697	395.319	0.083	0.174
-502.683	-200.000	-0.014	-0.152
-501.668	-200.000	0.013	-0.302
-500.653	14.873	-0.168	-0.133
-499.639	800.000	-0.055	-0.171
-498.624	-200.000	-0.008	-0.086
-497.610	800.000	0.011	-0.046
-496.595	800.000	-0.066	0.270
-495.581	659.315	0.064	0.167
-494.566	-127.512	-0.054	0.008
-493.551	7.942	0.182	0.137
-492.537	61.147	0.170	-0.170
-491.522	-30.243	0.084	-0.048
-490.508	800.000	-0.066	0.224
-489.493	-39.785	-0.235	-0.124
-488.478	57.151	0.104	0.102
-487.464	-58.437	-0.200	0.088
-486.449	-41.012	0.223	0.116
-485.435	-102.831	0.208	0.050
-484.420	-93.910	0.220	-0.061
-483.405	-16.038	0.201	-0.128
-482.391	-1.260	-0.383	-0.272
-481.376	-1.595	-0.089	-0.063
-480.362	800.000	-0.077	-0.289
-479.347	-114.483	-0.304	0.059
-478.332	208.390	0.036	-0.057
-477.318	-2.785	0.178	-0.125
-476.303	-164.102	-0.206	0.010
-475.289	800.000	0.072	-0.214
-474.274	-134.733	-0.243	-0.030
-473.259	-133.973	-0.196	0.024
-472.245	73.811	-0.166	0.175
-471.230	-200.000	0.008	0.365
-470.216	47.106	0.149	-0.139
-469.201	800.000	0.025	-0.102
-468.186	-119.900	0.205	0.036
-467.172	-141.420	0.300	0.031
-466.157	-120.039	0.321	0.055
-465.143	-200.000	-0.069	0.327
-464.128	472.350	0.015	-0.034
-463.113	-89.862	-0.208	-0.061
-462.099	-127.487	0.139	0.020
-461.084	800.000	-0.054	0.155
-460.070	33.887	-0.093	0.082
-459.055	-200.000	-0.022	-0.408
-458.040	-172.585	0.081	-0.003
-457.026	-64.290	-0.339	-0.139
-456.011	-200.000	0.022	0.220
-454.997	-12.505	-0.168	-0.110
-453.982	-200.000	-0.041	-0.275
-452.968	317.313	0.053	-0.102
-451.953	-146.189	0.082	0.007
-450.938	131.921	-0.137	0.178
-449.924	243.485	0.098	0.164
-448.909	-87.212	-0.195	-0.060
-447.895	-109.241	0.220	-0.047
-446.880	-200.000	0.004	0.028
-445.865	-56.760	-0.267	-0.119
-444.851	602.618	-0.040	0.101
-443.836	-34.834	-0.134	0.073
-442.822	-85.570	-0.102	0.032
-441.807	798.879	-0.035	0.096
-440.792	143.635	0.085	0.114
-439.778	-50.964	0.120	-0.057
-438.763	9.971	0.205	-0.157
-437.749	-200.000	0.018	-0.136
-436.734	-55.705	-0.183	-0.082
-435.719	-57.223	0.159	0.070
-434.705	-200.000	0.002	0.129
-433.690	800.000	0.046	0.181
-432.676	-8.354	-0.268	0.181
-431.661	72.132	0.239	-0.250
-430.646	800.000	-0.034	0.109
-429.632	27.522	0.256	0.216
-428.617	72.921	0.317	0.332
-427.603	190.131	0.018	0.027
-426.588	181.440	-0.054	-0.080
-425.573	-129.765	0.209	0.029
-424.559	-80.177	-0.231	0.078
-423.544	163.944	-0.150	0.212
-422.530	115.693	-0.018	-0.022
-421.515	800.000	-0.124	-0.503
-420.500	-106.969	-0.148	-0.033
-419.486	800.000	-0.039	0.131
-418.471	215.438	0.110	-0.175
-417.457	-49.088	-0.183	-0.088
-416.442	-40.539	0.111	0.058
-415.428	-91.662	0.158	0.045
-414.413	800.000	0.053	0.213
-413.398	326.672	-0.159	0.306
-412.384	-195.657	0.329	0.002
-411.369	161.266	0.143	-0.201
-410.355	-112.250	0.180	0.036
-409.340	-175.377	0.354	0.010
-408.325	-200.000	0.093	0.420
-407.311	-184.922	-0.212	0.003
-406.296	-200.000	-0.008	0.172
-405.282	8.963	0.215	0.163
-404.267	-160.095	-0.581	-0.032
-403.252	185.062	0.200	-0.298
-402.238	19.525	0.200	-0.162
-401.223	-10.786	-0.241	0.160
-400.209	104.035	0.106	0.125
-399.194	62.330	0.210	0.211
-398.179	-11.553	0.161	0.106
-397.165	51.577	-0.169	-0.161
-396.150	38.076	-0.078	-0.070
-395.136	119.313	0.119	0.147
-394.121	800.000	-0.083	-0.246
-393.106	-14.385	0.216	-0.139
-392.092	26.073	0.151	-0.126
-391.077	-100.074	-0.249	0.062
-390.063	370.460	0.116	0.235
-389.048	-134.490	-0.217	-0.027
-388.033	-104.676	0.085	-0.020
-387.019	-90.881	-0.183	-0.053
-386.004	800.000	-0.043	0.128
-384.990	-74.378	0.055	-0.020
-383.975	-158.758	-0.303	0.017
-382.960	-77.414	-0.030	-0.011
-381.946	3.097	-0.204	0.148
-380.931	-200.000	0.004	-0.033
-379.917	238.780	0.078	-0.129
-378.902	-200.000	-0.163	0.001
-377.888	-33.130	-0.358	-0.199
-376.873	-100.802	-0.389	-0.096
-375.858	-121.140	0.269	0.045
-374.844	-64.077	-0.294	0.120
-373.829	265.812	0.107	0.186
-372.815	-10.208	0.250	-0.167
-371.800	461.121	0.129	-0.289
-370.785	-171.247	0.120	-0.004
-369.771	-121.759	-0.443	-0.073
-368.756	800.000	0.121	0.391
-367.742	-63.592	-0.035	-0.014
-366.727	-123.110	-0.424	-0.068
-365.712	-200.000	-0.037	-0.309
-364.698	48.482	0.236	-0.222
-363.683	-154.217	0.184	0.012
-362.669	800.000	0.043	0.178
-361.654	-68.964	0.176	0.068
-360.639	-200.000	0.049	0.293
-359.625	1.618	0.140	0.101
-358.610	14.319	0.091	-0.071
-357.596	-110.420	0.119	0.025
-356.581	-61.984	-0.330	-0.138
-355.566	-200.000	-0.026	0.118
-354.552	178.358	0.183	-0.268
-353.537	260.364	0.160	-0.277
-352.523	-14.096	-0.231	0.149
-351.508	263.316	-0.125	0.217
-350.493	-23.389	0.111	0.067
-349.479	-53.023	-0.280	0.129
-348.464	585.761	0.132	-0.326
-347.450	0.993	-0.127	0.091
-346.435	260.535	-0.143	-0.247
-345.420	-80.581	0.192	-0.064
-344.406	-75.513	0.357	0.127
-343.391	4.120	-0.259	0.189
-342.377	-200.000	0.022	-0.108
-341.362	-150.401	0.404	-0.031
-340.348	-200.000	-0.019	0.085
-339.333	343.072	-0.033	-0.065
-338.318	-200.000	0.001	0.040
-337.304	22.955	-0.157	-0.129
-336.289	-200.000	0.017	0.495
-335.275	-200.000	-0.022	0.160
-334.260	-61.616	-0.439	0.184
-333.245	52.847	0.071	0.068
-332.231	-48.758	-0.305	0.147
-331.216	471.959	0.027	-0.060
-330.202	-100.928	0.334	0.082
-329.187	-142.790	0.155	-0.015
-328.172	315.401	-0.146	0.275
-327.158	-200.000	-0.013	-0.206
-326.143	224.917	0.077	0.125
-325.129	-57.238	0.318	-0.140
-324.114	-69.652	-0.185	-0.071
-323.099	112.142	-0.153	-0.185
-322.085	20.185	0.135	-0.109
-321.070	-120.222	-0.188	0.032
-320.056	260.572	-0.061	-0.105
-319.041	-200.000	0.016	0.086
-318.026	175.452	0.116	0.168
-317.012	-137.573	-0.227	-0.026
-315.997	299.144	-0.142	0.262
-314.983	-76.437	-0.293	-0.103
-313.968	220.595	-0.181	0.291
-312.953	-81.737	-0.275	-0.090
-311.939	400.940	-0.064	-0.134
-310.924	36.220	-0.094	0.083
-309.910	-118.227	0.145	-0.026
-308.895	166.364	-0.102	0.145
-307.880	250.677	-0.114	-0.194
-306.866	-200.000	-0.013	0.137
-305.851	-15.522	0.095	-0.060
-304.837	256.829	0.209	-0.358
-303.822	213.287	-0.094	-0.149
-302.807	70.920	0.163	-0.169
-301.793	33.959	0.126	0.110
-300.778	239.638	0.142	-0.236
-299.764	-54.704	0.237	-0.107
-298.749	-200.000	-0.046	0.213
-297.735	-178.072	0.446	-0.011
-296.720	800.000	0.040	0.144
-295.705	-126.368	0.270	0.040
-294.691	-106.218	-0.103	-0.023
-293.676	82.151	0.294	0.318
-292.662	-117.225	-0.385	-0.070
-291.647	22.624	0.200	0.163
-290.632	-61.589	-0.107	-0.045
-289.618	-118.336	-0.350	0.062
-288.603	-200.000	-0.027	0.277
-287.589	19.840	0.081	-0.065
-286.574	-200.000	0.011	-0.189
-285.559	68.963	0.164	-0.169
-284.545	-200.000	-0.005	-0.034
-283.530	189.669	-0.054	0.081
-282.516	271.162	0.087	0.154
-281.501	-54.385	0.308	0.140
-280.486	-38.821	-0.156	0.082
-279.472	50.300	-0.177	0.167
-278.457	-3.742	0.134	-0.093
-277.443	-181.580	-0.392	-0.008
-276.428	-111.967	-0.354	0.071
-275.413	-88.411	-0.183	0.054
-274.399	106.657	-0.105	0.124
-273.384	-64.458	0.074	-0.030
-272.370	-200.000	0.029	0.402
-271.355	32.609	-0.083	-0.072
-270.340	-114.452	-0.450	0.086
-269.326	319.061	0.049	0.093
-268.311	650.300	-0.026	-0.068
-267.297	38.535	-0.163	-0.145
-266.282	-174.306	0.322	-0.009
-265.267	800.000	-0.112	-0.364
-264.253	82.875	0.235	0.256
-263.238	-22.652	0.138	-0.083
-262.224	-29.119	0.042	-0.024
-261.209	-74.671	-0.097	-0.035
-260.195	-38.211	-0.182	-0.096
-259.180	47.458	0.123	-0.114
-258.165	34.252	0.305	0.265
-257.151	-45.243	0.126	-0.062
-256.136	-58.928	0.210	-0.091
-255.122	-200.000	0.045	-0.302
-254.107	-87.826	0.360	0.108
-253.092	268.867	-0.107	0.188
-252.078	21.842	-0.468	0.380
-251.063	-28.359	-0.072	-0.042
-250.049	29.100	0.110	-0.093
-249.034	-200.000	0.015	0.355
-248.019	196.486	-0.096	0.146
-247.005	768.154	0.046	0.125
-245.990	142.822	0.099	0.131
-244.976	-80.238	0.232	-0.077
-243.961	-80.336	0.133	0.044
-242.946	57.119	-0.030	-0.029
-241.932	800.000	0.042	-0.166
-240.917	3.363	0.104	0.076
-239.903	261.518	0.178	-0.307
-238.888	800.000	0.044	-0.171
-237.873	-200.000	-0.005	0.145
-236.859	73.335	0.114	-0.119
-235.844	800.000	0.056	0.239
-234.830	800.000	0.027	-0.108
-233.815	-200.000	-0.023	0.281
-232.800	-200.000	0.014	-0.453
-231.786	-11.302	0.166	0.109
-230.771	-200.000	-0.016	0.431
-229.757	192.854	-0.094	-0.142
-228.742	-200.000	0.065	0.462
-227.727	26.444	0.066	-0.055
-226.713	-200.000	0.016	0.217
-225.698	-97.040	0.173	0.045
-224.684	800.000	-0.025	-0.111
-223.669	-118.345	-0.304	-0.054
-222.655	800.000	0.045	-0.131
-221.640	-113.277	0.189	0.037
-220.625	250.626	0.046	-0.078
-219.611	12.442	-0.186	0.143
-218.596	120.650	-0.067	-0.083
-217.582	22.740	-0.162	-0.132
-216.567	470.638	-0.086	0.192
-215.552	-115.557	-0.192	-0.036
-214.538	-200.000	0.032	-0.489
-213.523	-122.304	0.129	-0.021
-212.509	-127.037	0.184	-0.027
-211.494	800.000	0.127	-0.428
-210.479	545.961	0.077	0.184
-209.465	301.990	0.045	-0.084
-208.450	-116.038	0.240	0.045
-207.436	-48.842	-0.212	-0.101
-206.421	380.163	-0.056	0.115
-205.406	-165.382	-0.251	-0.011
-204.392	-105.737	-0.056	0.013
-203.377	-72.693	0.205	-0.075
-202.363	12.678	-0.191	0.147
-201.348	-108.942	0.340	-0.072
-200.333	90.481	0.196	0.218
-199.319	-200.000	-0.011	-0.307
-198.304	455.514	0.037	0.083
-197.290	42.504	-0.145	0.131
-196.275	343.376	0.048	-0.093
-195.260	13.218	-0.143	0.110
-194.246	153.942	0.139	0.189
-193.231	31.888	0.124	0.106
-192.217	-200.000	-0.027	0.183
-191.202	13.128	-0.117	-0.090
-190.187	38.782	-0.221	0.197
-189.173	-134.626	0.236	0.029
-188.158	-91.641	-0.144	-0.041
-187.144	-36.001	-0.404	-0.217
-186.129	29.846	0.254	0.215
-185.114	125.875	0.081	-0.102
-184.100	-72.618	-0.393	-0.144
-183.085	-200.000	0.004	0.080
-182.071	-200.000	-0.028	0.424
-181.056	-62.131	0.234	0.097
-180.042	581.570	-0.075	0.183
-179.027	158.843	-0.039	-0.053
-178.012	271.881	-0.117	-0.205
-176.998	195.793	-0.130	-0.196
-175.983	-128.227	0.215	0.030
-174.969	-53.272	0.144	-0.066
-173.954	-67.276	0.219	0.086
-172.939	-12.648	0.258	-0.167
-171.925	261.346	0.043	0.074
-170.910	-200.000	0.018	0.220
-169.896	-169.309	0.035	0.001
-168.881	-112.526	-0.229	-0.045
-167.866	21.540	0.120	-0.097
-166.852	32.079	-0.037	0.031
-165.837	800.000	-0.116	0.335
-164.823	-81.596	-0.192	0.063
-163.808	-200.000	-0.021	0.324
-162.793	-19.838	-0.224	0.137
-161.779	123.997	-0.116	0.145
-160.764	230.885	0.200	-0.325
-159.750	246.371	-0.119	0.200
-158.735	-32.697	0.241	0.133
-157.720	-98.072	-0.142	0.036
-156.706	-200.000	-0.017	0.182
-155.691	53.361	0.216	-0.206
-154.677	72.613	-0.078	-0.081
-153.662	-138.876	0.155	-0.017
-152.647	1.844	0.245	0.175
-151.633	97.040	0.063	0.072
-150.618	104.730	-0.086	0.101
-149.604	-200.000	0.027	-0.194
-148.589	206.671	0.036	0.056
-147.574	-70.459	0.090	0.034
-146.560	-200.000	-0.006	0.215
-145.545	259.501	0.164	0.281
-144.531	800.000	0.029	-0.117
-143.516	-200.000	0.009	0.162
-142.502	-92.900	-0.057	0.016
-141.487	-151.371	0.224	0.017
-140.472	186.111	0.208	-0.308
-139.458	196.301	0.145	-0.219
-138.443	-185.209	0.113	-0.002
-137.429	-200.000	0.091	0.000
-136.414	173.143	-0.135	0.193
-135.399	-137.695	-0.528	0.059
-134.385	128.969	0.210	0.266
-133.370	320.160	-0.138	-0.260
-132.356	-78.389	-0.174	0.059
-131.341	800.000	0.050	-0.214
-130.326	457.451	-0.075	0.166
-129.312	-200.000	0.015	0.124
-128.297	97.131	-0.180	0.205
-127.283	83.166	-0.084	0.091
-126.268	361.724	-0.063	-0.126
-125.253	-39.521	-0.228	-0.119
-124.239	99.502	-0.110	-0.127
-123.224	-149.107	-0.213	-0.017
-122.210	70.546	0.175	0.180
-121.195	-21.069	0.145	-0.088
-120.180	-39.095	0.192	-0.100
-119.166	682.804	0.131	0.340
-118.151	-0.574	-0.196	0.138
-117.137	218.176	0.061	-0.097
-116.122	800.000	0.030	-0.106
-115.107	23.854	0.304	-0.249
-114.093	-200.000	0.003	-0.114
-113.078	800.000	-0.055	-0.173
-112.064	216.669	0.084	0.133
-111.049	-43.901	-0.353	-0.176
-110.034	683.192	-0.051	-0.131
-109.020	-200.000	0.011	-0.093
-108.005	-97.486	-0.160	-0.041
-106.991	195.716	-0.136	0.205
-105.976	77.646	-0.144	0.152
-104.962	800.000	-0.150	0.504
-103.947	-26.827	-0.199	-0.115
-102.932	-70.751	-0.207	0.077
-101.918	225.876	-0.107	0.172
-100.903	-81.847	0.278	0.090
-99.889	-200.000	-0.016	-0.159
-98.874	-200.000	0.015	-0.172
-97.859	135.226	-0.069	0.089
-96.845	-112.716	0.174	0.034
-95.830	-131.559	0.161	0.021
-94.816	-91.896	0.346	-0.097
-93.801	30.951	-0.025	0.021
-92.786	438.970	-0.047	-0.101
-91.772	-27.513	-0.486	-0.280
-90.757	520.994	0.031	0.072
-89.743	-200.000	0.004	-0.209
-88.728	26.008	0.353	-0.292
-87.713	-48.716	0.173	-0.083
-86.699	-95.142	-0.416	-0.111
-85.684	430.293	0.186	-0.400
-84.670	12.367	-0.088	0.067
-83.655	-200.000	-0.033	0.180
-82.640	105.691	-0.027	0.031
-81.626	14.523	-0.128	-0.099
-80.611	100.803	0.124	0.143
-79.597	247.636	-0.216	-0.362
-78.582	800.000	-0.073	0.289
-77.567	-77.974	-0.287	-0.098
-76.553	-118.986	0.243	-0.042
-75.538	800.000	-0.070	0.203
-74.524	20.227	-0.214	0.171
-73.509	79.952	0.131	0.140
-72.494	741.792	-0.025	0.065
-71.480	158.852	0.165	-0.227
-70.465	216.883	0.056	0.088
-69.451	800.000	-0.073	-0.311
-68.436	800.000	-0.078	-0.258
-67.422	-54.772	-0.191	-0.086
-66.407	5.896	-0.060	0.044
-65.392	-153.766	0.236	0.016
-64.378	-95.032	-0.159	-0.042
-63.363	-200.000	-0.006	0.030
-62.349	-200.000	0.016	0.316
-61.334	42.892	-0.748	-0.676
-60.319	-200.000	0.062	0.366
-59.305	-200.000	-0.203	-1.217
-58.290	146.624	0.661	0.879
-57.276	424.053	0.737	1.569
-56.261	-200.000	94.145	555.431
-55.246	534.923	1378.463	3236.031
-54.232	151.489	2580.723	3479.606
-53.217	107.667	2326.604	2742.168
-52.203	43.721	2075.772	1880.751
-51.188	38.605	1988.189	1755.621
-50.173	36.935	1969.411	1724.132
-49.159	51.002	2019.849	1895.377
-48.144	54.147	2039.861	1942.442
-47.130	39.254	1996.770	1768.762
-46.115	36.751	1985.311	1736.126
-45.100	36.619	1982.367	1732.297
-44.086	36.709	1979.292	1730.350
-43.071	36.609	1977.566	1727.880
-42.057	36.599	1975.035	1725.508
-41.042	36.663	1972.921	1724.159
-40.027	36.618	1971.433	1722.395
-39.013	36.655	1968.924	1720.462
-37.998	36.641	1967.405	1718.938
-36.984	36.714	1965.705	1718.036
-35.969	36.615	1963.845	1715.464
-34.954	36.628	1962.308	1714.172
-33.940	36.646	1960.703	1712.857
-32.925	36.740	1958.975	1712.115
-31.911	36.759	1957.208	1710.669
-30.896	36.822	1955.801	1709.927
-29.881	36.780	1954.179	1708.067
-28.867	36.858	1952.034	1706.811
-27.852	36.851	1950.917	1705.708
-26.838	36.872	1948.582	1703.789
-25.823	36.774	1947.143	1701.597
-24.809	36.845	1944.840	1700.137
-23.794	36.818	1944.037	1699.130
-22.779	36.763	1942.439	1697.187
-21.765	36.728	1941.171	1695.709
-20.750	36.708	1938.763	1693.360
-19.736	36.736	1937.241	1692.211
-18.721	36.701	1935.705	1690.491
-17.706	36.698	1934.470	1689.322
-16.692	36.751	1932.126	1687.673
-15.677	36.698	1930.366	1685.602
-14.663	36.718	1929.142	1684.639
-13.648	36.819	1928.172	1684.610
-12.633	36.734	1926.410	1682.259
-11.619	36.702	1925.701	1681.296
-10.604	36.677	1924.414	1679.892
-9.590	36.645	1922.570	1677.933
-8.575	36.597	1921.538	1676.551
-7.560	36.619	1919.954	1675.296
-6.546	36.731	1918.480	1674.911
-5.531	36.640	1917.273	1673.001
-4.517	36.738	1915.670	1672.387
-3.502	36.779	1914.409	1671.574
-2.487	36.684	1913.727	1670.095
-1.473	36.641	1913.029	1669.046
-0.458	36.573	1907.829	1663.860
0.556	32.897	1886.101	1627.750
1.571	26.958	1861.634	1555.756
2.586	21.505	1879.710	1523.392
3.600	19.735	1913.778	1535.164
4.615	18.922	1909.365	1524.282
5.629	15.991	1816.609	1425.338
6.644	10.879	1706.446	1298.064
7.659	7.865	1670.478	1247.004
8.673	7.591	1666.832	1242.032
9.688	7.535	1665.853	1240.759
10.702	7.448	1664.164	1238.711
11.717	7.266	1660.991	1234.819
12.731	7.652	1659.859	1236.873
13.746	11.204	1667.895	1270.493
14.761	15.837	1677.343	1313.823
15.775	17.180	1679.032	1325.512
16.790	16.619	1675.882	1318.538
17.804	15.530	1672.488	1307.285
18.819	14.552	1669.300	1297.071
19.834	13.827	1667.066	1289.588
20.848	13.565	1665.207	1286.004
21.863	13.213	1663.654	1281.962
22.877	13.026	1662.124	1279.223
23.892	12.793	1660.848	1276.318
24.907	12.679	1659.783	1274.503
25.921	12.655	1658.982	1273.590
26.936	12.663	1657.605	1272.488
27.950	12.719	1656.745	1272.145
28.965	12.904	1655.933	1272.836
29.980	12.907	1654.723	1271.816
30.994	12.899	1654.037	1271.114
32.009	12.986	1652.570	1270.545
33.023	12.997	1652.170	1270.214
34.038	12.991	1651.149	1269.267
35.053	12.963	1650.360	1268.331
36.067	12.949	1648.835	1266.943
37.082	12.913	1647.822	1265.774
38.096	12.847	1647.108	1264.605
39.111	12.894	1645.645	1263.733
40.126	12.984	1645.180	1263.954
41.140	12.982	1644.012	1262.929
42.155	12.839	1642.261	1260.375
43.169	12.680	1641.655	1258.589
44.184	12.702	1640.068	1257.424
45.199	12.697	1638.700	1256.225
46.213	12.628	1638.034	1255.082
47.228	12.749	1636.769	1254.921
48.242	12.750	1635.371	1253.747
49.257	12.814	1634.592	1253.526
50.271	12.752	1633.146	1251.834
51.286	12.846	1632.169	1251.690
52.301	12.830	1630.431	1250.123
53.315	12.861	1629.467	1249.510
54.330	12.838	1627.588	1247.781
55.344	12.779	1626.692	1246.541
56.359	12.791	1624.464	1244.814
57.374	12.733	1623.887	1243.825
58.388	12.775	1622.689	1243.111
59.403	12.683	1621.716	1241.563
60.417	12.736	1619.964	1240.512
61.432	12.644	1618.808	1238.825
62.447	12.661	1617.621	1237.934
63.461	12.627	1616.293	1236.550
64.476	12.542	1616.217	1235.745
65.490	12.535	1614.976	1234.639
66.505	12.531	1613.054	1233.023
67.520	12.553	1612.187	1232.416
68.534	12.586	1611.196	1231.799
69.549	12.606	1610.373	1231.207
70.563	12.598	1609.405	1230.299
71.578	12.625	1607.873	1229.221
72.593	12.609	1606.756	1228.144
73.607	12.518	1605.959	1226.746
74.622	12.450	1604.848	1225.283
75.636	12.466	1603.792	1224.483
76.651	12.435	1603.390	1223.840
77.666	12.491	1602.183	1223.230
78.680	12.522	1601.563	1222.872
79.695	12.517	1600.522	1221.936
80.709	12.465	1599.630	1220.761
81.724	12.624	1598.134	1220.693
82.739	12.641	1597.501	1220.227
83.753	12.667	1597.098	1220.001
84.768	12.784	1596.010	1219.926
85.782	12.853	1595.302	1219.791
86.797	12.910	1594.239	1219.288
87.812	12.889	1593.698	1218.612
88.826	12.887	1592.432	1217.522
89.841	12.718	1591.429	1215.400
90.855	12.786	1590.490	1215.080
91.870	12.757	1589.405	1213.924
92.884	12.803	1588.277	1213.300
93.899	12.893	1587.560	1213.302
94.914	12.819	1586.245	1211.652
95.928	12.919	1585.277	1211.535
96.943	13.053	1583.501	1211.053
97.957	13.008	1582.173	1209.603
98.972	12.888	1580.674	1207.468
99.987	12.778	1579.063	1205.326
101.001	12.877	1577.725	1204.923
102.016	12.812	1576.175	1203.160
103.030	12.903	1575.089	1202.890
104.045	12.798	1573.976	1201.164
105.060	12.912	1572.483	1200.753
106.074	12.815	1571.007	1198.814
107.089	12.766	1569.336	1197.076
108.103	12.645	1567.962	1195.040
109.118	12.547	1566.468	1193.089
110.133	12.635	1564.690	1192.265
111.147	12.659	1563.334	1191.303
112.162	12.542	1562.330	1189.580
113.176	12.596	1560.969	1188.830
114.191	12.731	1558.988	1188.191
115.206	12.673	1558.187	1187.055
116.220	12.706	1557.157	1186.408
117.235	12.623	1555.485	1184.434
118.249	12.700	1554.450	1184.089
119.264	12.722	1553.173	1183.174
120.279	12.666	1551.706	1181.546
121.293	12.652	1550.710	1180.581
122.308	12.615	1548.565	1178.583
123.322	12.583	1547.098	1177.134
124.337	12.551	1545.557	1175.624
125.352	12.508	1544.675	1174.544
126.366	12.587	1543.519	1174.122
127.381	12.635	1542.236	1173.385
128.395	12.573	1540.945	1171.859
129.410	12.626	1539.947	1171.378
130.424	12.558	1538.386	1169.603
131.439	12.604	1537.304	1169.002
132.454	12.753	1535.667	1168.708
133.468	12.768	1534.161	1167.564
134.483	12.720	1532.914	1166.177
135.497	12.723	1531.380	1164.922
136.512	12.767	1530.394	1164.383
137.527	12.672	1529.083	1162.616
138.541	12.735	1527.097	1161.443
139.556	12.772	1526.026	1160.785
140.570	12.796	1524.832	1159.945
141.585	12.929	1523.475	1159.743
142.600	12.927	1522.382	1158.797
143.614	12.953	1521.286	1158.045
144.629	12.973	1519.662	1156.842
145.643	12.933	1518.977	1155.943
146.658	13.086	1517.414	1155.719
147.673	12.989	1515.921	1153.801
148.687	12.977	1514.234	1152.329
149.702	12.913	1512.926	1150.788
150.716	12.840	1511.073	1148.767
151.731	12.808	1510.161	1147.752
152.746	12.906	1508.410	1146.998
153.760	12.891	1507.261	1145.923
154.775	12.900	1506.335	1145.176
155.789	12.926	1504.812	1144.097
156.804	12.887	1504.019	1143.120
157.819	12.979	1502.119	1142.218
158.833	13.004	1501.260	1141.635
159.848	12.967	1500.373	1140.605
160.862	13.106	1498.939	1140.368
161.877	13.153	1498.045	1139.917
162.892	13.049	1496.723	1138.090
163.906	12.974	1495.300	1136.392
164.921	12.904	1494.326	1135.067
165.935	12.922	1492.871	1133.986
166.950	13.007	1491.835	1133.686
167.964	13.007	1490.878	1132.856
168.979	12.970	1490.178	1131.971
169.994	12.970	1489.136	1131.077
171.008	13.079	1487.763	1130.679
172.023	13.019	1486.960	1129.564
173.037	13.086	1485.461	1128.781
174.052	13.187	1484.488	1128.635
175.067	13.188	1483.544	1127.821
176.081	13.162	1481.886	1126.280
177.096	13.071	1480.715	1124.674
178.110	13.010	1479.544	1123.267
179.125	13.000	1478.823	1122.559
180.140	12.943	1477.770	1121.266
181.154	13.159	1476.286	1121.514
182.169	13.114	1475.265	1120.328
183.183	13.183	1474.015	1119.753
184.198	13.196	1473.099	1119.045
185.213	13.191	1472.343	1118.333
186.227	13.317	1470.897	1117.989
187.242	13.324	1470.155	1117.375
188.256	13.384	1468.801	1116.652
189.271	13.299	1468.373	1115.656
190.286	13.370	1467.260	1115.186
191.300	13.319	1466.162	1113.911
192.315	13.189	1464.778	1111.888
193.329	13.024	1463.238	1109.510
194.344	13.064	1462.102	1108.818
195.359	13.078	1461.496	1108.357
196.373	13.138	1460.215	1107.690
197.388	13.151	1459.721	1107.303
198.402	13.305	1458.154	1107.047
199.417	13.376	1457.506	1106.930
200.432	13.469	1456.055	1106.352
201.446	13.554	1455.377	1106.308
202.461	13.525	1454.524	1105.369
203.475	13.570	1453.271	1104.617
204.490	13.669	1451.687	1103.975
205.504	13.544	1451.136	1102.630
206.519	13.500	1450.149	1101.490
207.534	13.528	1448.106	1100.023
208.548	13.421	1447.412	1098.690
209.563	13.516	1446.451	1098.491
210.577	13.610	1445.283	1098.129
211.592	13.486	1444.625	1096.715
212.607	13.479	1444.290	1096.316
213.621	13.494	1443.609	1095.801
214.636	13.545	1442.960	1095.546
215.650	13.561	1441.489	1094.441
216.665	13.649	1440.552	1094.213
217.680	13.697	1439.559	1093.675
218.694	13.652	1439.298	1093.086
219.709	13.738	1438.308	1092.803
220.723	13.787	1436.986	1092.027
221.738	13.756	1436.146	1091.086
222.753	13.804	1435.256	1090.629
223.767	13.719	1434.426	1089.344
224.782	13.767	1433.464	1088.831
225.796	13.786	1432.252	1087.944
226.811	13.704	1432.235	1087.296
227.826	13.859	1430.726	1087.070
228.840	13.839	1430.047	1086.327
229.855	13.757	1429.497	1085.271
230.869	13.720	1428.255	1083.992
231.884	13.762	1427.117	1083.308
232.899	13.803	1426.039	1082.663
233.913	13.816	1424.295	1081.322
234.928	13.826	1423.266	1080.514
235.942	13.772	1422.057	1079.147
236.957	13.752	1420.934	1078.073
237.972	13.739	1419.758	1077.002
238.986	13.724	1418.862	1076.127
240.001	13.765	1418.241	1075.827
241.015	13.748	1417.194	1074.830
242.030	13.782	1416.167	1074.174
243.045	13.872	1414.863	1073.670
244.059	13.908	1414.125	1073.247
245.074	13.890	1413.181	1072.320
246.088	13.988	1411.730	1071.757
247.103	13.964	1412.073	1071.767
248.117	14.050	1410.669	1071.162
249.132	14.040	1409.855	1070.384
250.147	14.112	1409.650	1070.596
251.161	14.134	1409.254	1070.344
252.176	14.262	1408.144	1070.230
253.190	14.228	1407.971	1069.787
254.205	14.356	1406.492	1069.389
255.220	14.290	1406.253	1068.687
256.234	14.309	1405.378	1068.049
257.249	14.337	1404.810	1067.701
258.263	14.356	1403.448	1066.694
259.278	14.433	1402.873	1066.658
260.293	14.377	1401.632	1065.263
261.307	14.409	1400.791	1064.729
262.322	14.428	1400.278	1064.367
263.336	14.496	1399.523	1064.137
264.351	14.538	1398.172	1063.283
265.366	14.543	1397.732	1062.882
266.380	14.625	1396.447	1062.334
267.395	14.671	1395.494	1061.807
268.409	14.570	1395.037	1060.727
269.424	14.595	1393.820	1059.863
270.439	14.583	1392.326	1058.557
271.453	14.595	1391.576	1057.973
272.468	14.516	1391.220	1057.103
273.482	14.428	1390.518	1055.924
274.497	14.533	1389.096	1055.413
275.512	14.505	1388.514	1054.698
276.526	14.549	1387.017	1053.747
277.541	14.528	1386.446	1053.091
278.555	14.482	1385.472	1051.966
279.570	14.550	1384.869	1051.842
280.585	14.580	1383.931	1051.223
281.599	14.703	1382.561	1050.869
282.614	14.707	1382.335	1050.628
283.628	14.595	1381.471	1049.172
284.643	14.685	1379.963	1048.500
285.657	14.661	1378.827	1047.394
286.672	14.651	1378.055	1046.655
287.687	14.623	1377.405	1045.889
288.701	14.711	1376.272	1045.488
289.716	14.745	1375.380	1044.934
290.730	14.786	1374.526	1044.443
291.745	14.680	1373.768	1043.114
292.760	14.758	1372.926	1042.872
293.774	14.765	1371.622	1041.830
294.789	14.748	1370.685	1040.920
295.803	14.893	1369.772	1041.039
296.818	14.860	1369.179	1040.291
297.833	14.928	1368.063	1039.773
298.847	14.910	1367.045	1038.798
299.862	14.825	1366.377	1037.671
300.876	14.928	1365.103	1037.246
301.891	14.863	1364.258	1036.109
302.906	14.920	1363.387	1035.711
303.920	15.043	1362.577	1035.767
304.935	14.981	1361.989	1034.841
305.949	15.044	1361.385	1034.680
306.964	14.993	1360.793	1033.824
307.979	15.091	1359.893	1033.655
308.993	15.096	1358.671	1032.669
310.008	15.009	1357.903	1031.458
311.022	15.160	1356.339	1031.106
312.037	15.116	1355.923	1030.430
313.052	15.079	1355.204	1029.563
314.066	15.148	1353.590	1028.670
315.081	15.113	1352.626	1027.630
316.095	15.089	1351.822	1026.781
317.110	15.017	1350.767	1025.449
318.125	15.046	1349.616	1024.664
319.139	15.073	1348.976	1024.253
320.154	15.017	1348.250	1023.269
321.168	15.021	1347.150	1022.362
322.183	15.181	1345.866	1022.276
323.197	15.145	1345.026	1021.330
324.212	15.176	1344.179	1020.783
325.227	15.135	1343.388	1019.844
326.241	15.153	1342.464	1019.163
327.256	15.210	1341.610	1018.771
328.270	15.168	1340.839	1017.838
329.285	15.135	1339.981	1016.895
330.300	15.153	1338.925	1016.111
331.314	15.154	1338.322	1015.575
332.329	15.185	1337.126	1014.764
333.343	15.208	1336.426	1014.283
334.358	15.225	1335.675	1013.726
335.373	15.232	1334.879	1013.073
336.387	15.304	1333.908	1012.682
337.402	15.313	1333.263	1012.156
338.416	15.391	1332.761	1012.155
339.431	15.348	1332.146	1011.337
340.446	15.444	1331.211	1011.120
341.460	15.461	1330.363	1010.486
342.475	15.397	1329.503	1009.357
343.489	15.525	1328.703	1009.434
344.504	15.574	1327.538	1008.756
345.519	15.600	1326.664	1008.153
346.533	15.685	1325.677	1007.825
347.548	15.758	1325.064	1007.709
348.562	15.722	1324.349	1006.859
349.577	15.676	1323.531	1005.875
350.592	15.718	1322.619	1005.344
351.606	15.598	1321.400	1003.610
352.621	15.452	1320.773	1002.173
353.635	15.601	1319.220	1001.795
354.650	15.613	1318.315	1001.089
355.665	15.492	1318.060	1000.087
356.679	15.556	1316.787	999.415
357.694	15.521	1315.446	998.097
358.708	15.622	1314.323	997.759
359.723	15.729	1313.105	997.378
360.738	15.771	1312.116	996.788
361.752	15.679	1311.301	995.536
362.767	15.599	1310.679	994.507
363.781	15.641	1309.372	993.675
364.796	15.746	1308.867	993.820
365.810	15.776	1308.308	993.485
366.825	15.835	1307.478	993.116
367.840	15.897	1307.126	993.128
368.854	15.927	1306.016	992.372
369.869	16.057	1305.771	992.864
370.883	16.006	1304.953	991.853
371.898	15.951	1304.517	991.113
372.913	15.959	1303.387	990.212
373.927	15.916	1302.641	989.304
374.942	16.037	1301.189	988.824
375.956	16.061	1300.491	988.348
376.971	16.020	1300.065	987.699
377.986	16.023	1299.189	986.963
379.000	16.032	1298.293	986.246
380.015	16.119	1297.730	986.240
381.029	16.167	1296.827	985.746
382.044	16.150	1296.714	985.476
383.059	16.191	1295.781	984.916
384.073	16.237	1294.950	984.469
385.088	16.327	1293.893	984.099
386.102	16.196	1293.632	983.052
387.117	16.162	1292.871	982.189
388.132	16.300	1292.218	982.411
389.146	16.195	1290.930	980.733
390.161	16.085	1290.679	979.814
391.175	16.103	1289.831	979.192
392.190	16.200	1288.981	979.020
393.205	16.239	1287.874	978.317
394.219	16.349	1286.902	978.129
395.234	16.277	1285.891	976.860
396.248	16.315	1284.407	975.866
397.263	16.222	1283.148	974.284
398.278	16.267	1281.893	973.504
399.292	16.266	1280.503	972.358
400.307	16.225	1279.534	971.303
401.321	16.201	1278.481	970.276
402.336	16.311	1277.310	969.935
403.350	16.183	1276.513	968.509
404.365	16.223	1276.250	968.454
405.380	16.225	1275.013	967.440
406.394	16.204	1274.358	966.740
407.409	16.317	1273.449	966.612
408.423	16.350	1272.594	966.064
409.438	16.484	1272.032	966.319
410.453	16.474	1271.569	965.825
411.467	16.452	1270.722	964.968
412.482	16.551	1270.378	965.186
413.496	16.540	1269.465	964.346
414.511	16.675	1268.512	964.304
415.526	16.670	1267.905	963.728
416.540	16.606	1267.672	963.103
417.555	16.642	1266.434	962.281
418.569	16.727	1266.182	962.491
419.584	16.643	1265.907	961.717
420.599	16.724	1264.907	961.330
421.613	88.508	1341.111	1431.541
422.628	86.396	1352.195	1431.664
