DTS Sentinel unit serial number:	SN413079Multiplexer serial number:	ORYXHardware model number:	OX4-SRSoftware version number:	ORYX F/W v4.00 Oryx Data Collector v3.7.2.0data status	okinstallation	princeton_trtdifferential loss correction	single-endedforward channel	channel 4reverse channel	N/Adate	2019/09/18time	02:57:35forward acquisition time	60.00reverse acquisition time	0.00gamma	496.2192k internal	0.2335k external	0.2335temperature offset calibration	0.9994default loss term (dB/km)	0.3790temperature slope calibration	1.0000multiplexer offset coefficient	1.0000multiplexer slope coefficient	1.0000fibre end	0.00T internal ref (°C)	22.75T ext. ref 1 (°C)	0.16T ext. ref 2 (°C)	16.66length (m)	temperature (°C)	Stokes	anti-Stokes-747.200	-200.000	-0.009	0.151
-746.185	-103.649	-0.220	-0.052
-745.171	-8.465	-0.121	0.082
-744.156	-27.798	-0.151	0.088
-743.142	190.017	-0.043	-0.064
-742.127	-174.978	0.239	0.007
-741.112	318.115	-0.168	0.319
-740.098	337.598	-0.075	0.147
-739.083	800.000	0.009	0.028
-738.069	-164.124	-0.121	-0.006
-737.054	-113.483	-0.386	0.076
-736.039	-148.456	0.135	-0.011
-735.025	39.796	-0.035	-0.031
-734.010	-66.421	0.209	0.083
-732.996	19.137	0.030	0.024
-731.981	-59.753	-0.332	-0.143
-730.966	-200.000	-0.035	0.320
-729.952	-52.636	0.226	0.105
-728.937	345.392	0.102	0.201
-727.923	1.926	-0.221	-0.160
-726.908	73.111	0.197	-0.207
-725.894	-200.000	0.009	0.195
-724.879	-65.010	0.154	0.063
-723.864	800.000	0.015	0.061
-722.850	800.000	0.071	0.217
-721.835	-200.000	0.052	0.284
-720.821	-125.953	-0.259	0.039
-719.806	-78.078	0.466	0.161
-718.791	55.541	0.175	-0.170
-717.777	800.000	-0.081	-0.270
-716.762	-56.320	0.314	0.140
-715.748	-157.113	-0.245	-0.015
-714.733	800.000	0.074	-0.276
-713.718	-67.321	-0.226	0.089
-712.704	491.091	-0.049	-0.112
-711.689	-200.000	-0.039	-0.173
-710.675	550.761	-0.027	-0.065
-709.660	-137.510	0.262	-0.030
-708.645	-200.000	0.024	-0.220
-707.631	-200.000	0.000	0.094
-706.616	7.201	0.045	-0.034
-705.602	165.720	-0.201	0.286
-704.587	88.961	0.079	0.088
-703.572	-76.804	0.380	0.133
-702.558	-154.111	-0.227	-0.015
-701.543	-137.673	-0.244	0.027
-700.529	89.052	0.177	0.197
-699.514	-55.700	0.209	0.094
-698.499	-9.623	0.094	-0.063
-697.485	-83.965	-0.146	0.047
-696.470	514.312	0.101	-0.236
-695.456	-9.359	0.133	0.089
-694.441	-34.470	-0.181	-0.099
-693.426	108.366	0.169	0.202
-692.412	320.983	0.047	0.090
-691.397	-200.000	0.057	-0.276
-690.383	-200.000	-0.018	-0.081
-689.368	-56.820	-0.217	-0.096
-688.354	-156.690	0.237	-0.015
-687.339	10.698	0.191	-0.146
-686.324	275.589	-0.067	-0.119
-685.310	170.107	0.093	-0.133
-684.295	-37.973	0.120	-0.064
-683.281	800.000	0.071	-0.260
-682.266	800.000	-0.040	-0.135
-681.251	-77.802	0.074	-0.025
-680.237	-161.383	0.398	-0.021
-679.222	452.551	-0.036	-0.081
-678.208	-200.000	-0.012	-0.166
-677.193	-114.120	-0.217	0.042
-676.178	-99.022	-0.178	-0.045
-675.164	-200.000	0.001	0.208
-674.149	32.567	-0.074	0.064
-673.135	-102.941	0.132	-0.031
-672.120	337.220	0.014	0.026
-671.105	-116.699	-0.084	-0.015
-670.091	-200.000	-0.024	-0.201
-669.076	33.258	-0.131	-0.114
-668.062	-64.636	0.240	-0.098
-667.047	163.453	0.134	0.189
-666.032	-70.372	0.149	0.057
-665.018	-180.172	0.238	-0.005
-664.003	301.854	0.138	-0.256
-662.989	405.358	-0.128	-0.271
-661.974	-59.600	0.396	-0.170
-660.959	-200.000	0.003	0.058
-659.945	800.000	0.099	0.324
-658.930	-10.888	-0.060	0.040
-657.916	167.498	0.112	0.160
-656.901	40.451	0.153	-0.138
-655.886	-37.704	0.163	-0.087
-654.872	-66.482	-0.047	-0.019
-653.857	800.000	0.042	0.182
-652.843	27.057	0.146	0.122
-651.828	-21.764	-0.279	-0.170
-650.814	-200.000	0.066	-0.498
-649.799	469.252	-0.101	-0.227
-648.784	800.000	0.132	-0.414
-647.770	-200.000	-0.007	0.039
-646.755	29.758	0.106	-0.090
-645.741	4.289	-0.155	0.113
-644.726	-200.000	-0.008	-0.270
-643.711	800.000	0.012	-0.045
-642.697	-200.000	0.069	-0.432
-641.682	-24.607	-0.344	-0.205
-640.668	399.935	0.093	-0.196
-639.653	-42.188	0.237	-0.121
-638.638	71.929	-0.127	-0.132
-637.624	-116.163	0.122	0.023
-636.609	288.781	-0.181	-0.328
-635.595	-73.251	0.336	0.123
-634.580	-53.820	-0.398	-0.182
-633.565	24.583	0.373	-0.309
-632.551	-178.982	-0.146	0.003
-631.536	-47.251	0.481	-0.235
-630.522	800.000	0.071	0.203
-629.507	-3.277	0.022	0.015
-628.492	58.943	-0.188	0.185
-627.478	-31.508	0.216	0.122
-626.463	-69.538	0.143	0.055
-625.449	81.712	0.155	0.168
-624.434	-200.000	0.067	-0.479
-623.419	63.883	-0.167	-0.167
-622.405	598.120	0.090	0.222
-621.390	-94.192	-0.235	-0.064
-620.376	555.328	-0.126	-0.304
-619.361	-200.000	-0.011	0.130
-618.346	454.680	0.053	0.117
-617.332	494.553	-0.058	-0.134
-616.317	-5.278	-0.253	-0.174
-615.303	-94.759	-0.285	0.077
-614.288	633.687	-0.009	-0.023
-613.273	82.305	-0.065	-0.070
-612.259	-200.000	0.038	-0.309
-611.244	79.401	-0.183	-0.196
-610.230	255.207	-0.057	0.097
-609.215	84.024	0.385	-0.421
-608.201	81.070	0.111	0.120
-607.186	168.295	0.144	0.205
-606.171	337.308	-0.088	-0.170
-605.157	-57.862	0.128	0.056
-604.142	-173.133	0.241	-0.007
-603.128	-7.596	-0.101	-0.068
-602.113	-200.000	-0.026	0.217
-601.098	33.591	-0.111	-0.096
-600.084	-58.966	-0.317	0.137
-599.069	-113.787	0.218	0.042
-598.055	-35.915	0.092	0.050
-597.040	800.000	0.080	-0.340
-596.025	-7.308	0.132	0.089
-595.011	-178.582	-0.334	-0.008
-593.996	596.251	-0.067	0.166
-592.982	-0.562	0.214	-0.152
-591.967	710.508	0.112	-0.297
-590.952	-187.428	-0.345	0.005
-589.938	800.000	0.160	-0.443
-588.923	-168.248	-0.350	0.014
-587.909	-200.000	0.109	-0.501
-586.894	68.850	0.071	0.073
-585.879	201.454	0.113	0.174
-584.865	-50.526	0.104	0.049
-583.850	800.000	0.134	0.384
-582.836	83.343	-0.244	-0.265
-581.821	-10.088	-0.063	0.042
-580.806	-200.000	0.016	0.140
-579.792	8.978	0.133	0.100
-578.777	38.396	0.243	-0.217
-577.763	17.779	-0.294	-0.234
-576.748	-132.041	-0.076	0.010
-575.733	117.143	-0.221	-0.271
-574.719	-200.000	-0.022	0.199
-573.704	-200.000	-0.002	0.227
-572.690	338.418	-0.065	0.126
-571.675	-53.944	-0.320	-0.145
-570.661	-200.000	-0.061	0.448
-569.646	249.007	-0.035	-0.059
-568.631	0.060	-0.303	-0.216
-567.617	160.522	0.121	0.169
-566.602	-117.973	-0.353	0.063
-565.588	-65.129	-0.414	0.167
-564.573	-200.000	0.027	0.184
-563.558	13.595	-0.081	0.063
-562.544	-101.513	0.271	-0.066
-561.529	-200.000	-0.010	-0.079
-560.515	-176.545	0.288	-0.007
-559.500	118.277	0.185	-0.228
-558.485	37.796	-0.133	0.118
-557.471	-181.118	0.225	0.004
-556.456	-200.000	0.004	0.054
-555.442	45.693	-0.149	0.138
-554.427	-52.008	-0.181	-0.084
-553.412	-200.000	0.020	0.172
-552.398	274.599	-0.104	0.184
-551.383	-105.218	-0.166	0.038
-550.369	800.000	-0.040	-0.132
-549.354	800.000	0.051	0.197
-548.339	-24.013	-0.154	-0.092
-547.325	-16.621	-0.166	0.105
-546.310	-40.418	-0.239	0.124
-545.296	-96.543	-0.289	0.076
-544.281	135.972	-0.043	0.056
-543.266	53.217	0.174	0.167
-542.252	-200.000	0.028	0.233
-541.237	-4.444	0.178	0.122
-540.223	-82.083	-0.213	-0.069
-539.208	-131.399	-0.258	0.034
-538.193	261.320	0.103	-0.179
-537.179	38.566	-0.094	-0.083
-536.164	800.000	-0.059	0.172
-535.150	75.938	-0.045	0.047
-534.135	-200.000	-0.044	-0.431
-533.121	-200.000	0.000	-0.315
-532.106	148.536	-0.277	0.373
-531.091	-200.000	-0.022	-0.189
-530.077	215.844	0.134	-0.212
-529.062	394.970	0.176	0.367
-528.048	70.017	0.196	0.201
-527.033	-200.000	0.020	-0.135
-526.018	-97.466	0.175	0.045
-525.004	-103.101	0.244	-0.058
-523.989	164.244	0.109	-0.153
-522.975	-74.145	-0.249	-0.090
-521.960	-99.662	0.157	0.039
-520.945	33.333	-0.196	-0.170
-519.931	35.847	0.183	0.160
-518.916	-9.992	0.075	-0.050
-517.902	-108.191	-0.093	0.020
-516.887	-200.000	0.005	-0.181
-515.872	-33.264	0.142	0.078
-514.858	460.183	0.082	0.183
-513.843	122.766	0.194	-0.241
-512.829	138.033	0.033	-0.044
-511.814	16.081	-0.251	-0.197
-510.799	-74.544	-0.118	-0.042
-509.785	-9.645	-0.091	0.061
-508.770	7.690	-0.239	0.178
-507.756	-200.000	0.008	0.170
-506.741	-200.000	0.028	0.345
-505.726	-200.000	0.013	-0.149
-504.712	269.528	0.009	-0.016
-503.697	515.885	0.084	0.195
-502.683	41.770	0.176	0.159
-501.668	74.492	-0.124	-0.130
-500.653	800.000	-0.073	-0.261
-499.639	-24.717	-0.107	-0.063
-498.624	-123.460	-0.451	-0.072
-497.610	197.342	-0.159	0.241
-496.595	-200.000	-0.008	0.177
-495.581	-3.018	-0.087	0.061
-494.566	-52.620	-0.116	-0.053
-493.551	-17.458	0.141	0.088
-492.537	-131.647	-0.353	-0.046
-491.522	-35.612	0.220	-0.119
-490.508	800.000	0.090	-0.269
-489.493	617.498	-0.062	-0.154
-488.478	118.381	-0.132	0.162
-487.464	2.491	-0.203	-0.146
-486.449	800.000	0.083	0.317
-485.435	-57.171	0.054	-0.024
-484.420	217.827	-0.087	-0.138
-483.405	-54.691	0.343	-0.154
-482.391	102.608	0.058	0.068
-481.376	-24.612	-0.212	-0.126
-480.362	-129.018	-0.135	0.019
-479.347	-94.078	-0.249	-0.068
-478.332	800.000	-0.119	-0.486
-477.318	-8.244	0.154	0.103
-476.303	-64.428	-0.148	-0.060
-475.289	245.281	0.126	-0.210
-474.274	-113.915	0.172	0.033
-473.259	-113.370	-0.065	-0.013
-472.245	185.952	0.371	-0.549
-471.230	-184.408	0.129	0.002
-470.216	-21.045	0.262	0.159
-469.201	-5.507	0.242	0.165
-468.186	107.270	0.071	0.084
-467.172	-114.253	0.307	0.059
-466.157	800.000	-0.042	0.168
-465.143	-200.000	0.045	0.261
-464.128	-200.000	0.013	-0.254
-463.113	596.134	-0.111	0.273
-462.099	-20.058	-0.145	0.089
-461.084	-80.101	0.128	0.043
-460.070	-87.542	0.543	0.163
-459.055	-31.379	0.231	-0.129
-458.040	-147.264	-0.321	-0.027
-457.026	38.394	-0.188	-0.166
-456.011	-200.000	0.007	0.286
-454.997	-64.196	-0.027	0.011
-453.982	-200.000	0.011	0.096
-452.968	-200.000	-0.047	0.386
-451.953	202.613	-0.227	0.349
-450.938	32.080	0.202	-0.173
-449.924	-70.391	-0.139	0.052
-448.909	-200.000	-0.045	-0.309
-447.895	-20.067	0.315	-0.193
-446.880	-70.190	-0.294	-0.111
-445.865	-167.544	0.303	-0.012
-444.851	-200.000	0.065	-0.404
-443.836	-200.000	-0.028	0.144
-442.822	-2.661	0.136	0.095
-441.807	-23.506	0.025	-0.015
-440.792	800.000	0.096	0.341
-439.778	-200.000	-0.017	-0.246
-438.763	-3.882	0.155	-0.107
-437.749	43.403	-0.219	0.198
-436.734	677.177	0.061	0.158
-435.719	-170.157	-0.358	-0.013
-434.705	14.218	-0.084	0.065
-433.690	-200.000	-0.010	-0.112
-432.676	53.066	0.134	0.127
-431.661	-43.931	-0.114	-0.057
-430.646	780.096	-0.064	-0.173
-429.632	88.089	0.154	0.170
-428.617	340.290	-0.089	0.172
-427.603	-70.328	0.112	0.042
-426.588	-49.778	-0.213	0.101
-425.573	-118.378	-0.316	0.056
-424.559	267.678	-0.114	-0.198
-423.544	-200.000	-0.018	-0.228
-422.530	-200.000	-0.019	-0.143
-421.515	-40.525	-0.106	0.055
-420.500	-95.914	0.251	0.066
-419.486	525.078	0.070	0.163
-418.471	223.800	-0.282	0.451
-417.457	-64.432	0.293	0.118
-416.442	622.100	0.116	0.289
-415.428	465.979	-0.062	0.138
-414.413	33.852	-0.048	-0.041
-413.398	800.000	0.044	0.153
-412.384	-187.973	-0.071	0.001
-411.369	-10.864	-0.127	0.083
-410.355	800.000	0.081	-0.322
-409.340	-19.539	-0.091	-0.056
-408.325	-200.000	0.062	-0.299
-407.311	458.143	0.178	-0.393
-406.296	0.468	-0.163	0.116
-405.282	426.696	-0.027	0.058
-404.267	800.000	0.103	0.426
-403.252	116.810	0.158	-0.192
-402.238	-26.240	-0.121	0.071
-401.223	-200.000	0.002	-0.114
-400.209	3.836	0.397	0.287
-399.194	-200.000	-0.001	0.286
-398.179	53.783	0.284	0.271
-397.165	38.519	-0.265	0.235
-396.150	-40.856	-0.199	-0.102
-395.136	71.402	0.083	0.085
-394.121	608.914	0.003	-0.008
-393.106	3.534	-0.221	-0.160
-392.092	-83.673	-0.190	0.060
-391.077	-76.021	-0.060	-0.021
-390.063	37.170	-0.162	0.142
-389.048	-200.000	0.044	0.344
-388.033	344.486	0.258	0.501
-387.019	-72.936	-0.086	-0.031
-386.004	-200.000	0.018	0.287
-384.990	148.269	0.112	-0.149
-383.975	36.363	0.038	-0.033
-382.960	800.000	-0.041	-0.170
-381.946	38.558	0.259	-0.229
-380.931	-124.880	0.202	-0.031
-379.917	71.468	0.083	-0.085
-378.902	-79.353	0.351	-0.118
-377.888	93.490	-0.066	0.074
-376.873	413.876	0.096	0.203
-375.858	127.482	-0.177	0.222
-374.844	800.000	0.064	-0.238
-373.829	549.247	-0.141	0.334
-372.815	279.755	0.153	0.271
-371.800	-80.989	0.192	0.063
-370.785	-166.420	-0.189	-0.008
-369.771	800.000	-0.031	0.114
-368.756	-93.018	0.379	0.105
-367.742	-97.375	-0.192	0.050
-366.727	-73.340	0.207	-0.075
-365.712	-66.177	0.186	0.073
-364.698	-17.983	-0.350	0.217
-363.683	37.871	0.200	-0.176
-362.669	365.334	0.123	0.244
-361.654	-91.988	-0.280	0.078
-360.639	-200.000	-0.007	0.384
-359.625	-200.000	-0.020	0.133
-358.610	473.119	-0.057	-0.126
-357.596	353.013	0.126	-0.246
-356.581	82.322	0.209	-0.224
-355.566	-31.633	0.141	-0.078
-354.552	-200.000	-0.021	-0.143
-353.537	800.000	0.033	-0.135
-352.523	259.833	0.107	0.182
-351.508	397.207	0.091	-0.189
-350.493	-191.937	0.157	0.002
-349.479	-200.000	-0.032	0.183
-348.464	-200.000	-0.002	-0.170
-347.450	10.989	-0.064	-0.048
-346.435	-200.000	-0.020	-0.257
-345.420	-200.000	-0.013	-0.111
-344.406	35.684	-0.044	-0.039
-343.391	25.420	-0.171	-0.140
-342.377	-113.586	-0.120	-0.023
-341.362	-81.543	0.337	-0.110
-340.348	-96.861	0.310	0.080
-339.333	222.099	0.114	0.181
-338.318	800.000	-0.080	0.252
-337.304	181.017	-0.208	-0.302
-336.289	-85.197	-0.316	0.098
-335.275	-200.000	-0.025	0.159
-334.260	-200.000	0.020	0.185
-333.245	-53.299	-0.128	-0.058
-332.231	-4.719	0.179	-0.122
-331.216	-127.179	0.260	-0.038
-330.202	176.234	0.155	-0.222
-329.187	187.236	0.035	-0.052
-328.172	-36.713	0.208	0.111
-327.158	-75.813	-0.210	0.073
-326.143	-50.655	-0.051	0.024
-325.129	-200.000	0.017	-0.215
-324.114	-181.685	-0.255	-0.005
-323.099	-8.363	0.067	0.044
-322.085	-80.429	0.320	0.106
-321.070	800.000	-0.037	0.116
-320.056	-94.148	-0.271	0.073
-319.041	-21.346	-0.345	-0.208
-318.026	419.199	-0.042	0.089
-317.012	236.148	0.256	0.418
-315.997	-22.422	-0.135	0.081
-314.983	-152.122	0.129	0.009
-313.968	800.000	-0.006	0.026
-312.953	340.174	-0.031	-0.060
-311.939	74.835	-0.196	-0.204
-310.924	-76.219	-0.199	-0.069
-309.910	-166.985	0.381	-0.015
-308.895	278.485	0.115	-0.202
-307.880	-159.772	-0.230	0.012
-306.866	63.740	-0.079	-0.079
-305.851	-49.463	0.020	0.009
-304.837	57.663	-0.164	0.158
-303.822	303.966	-0.056	-0.103
-302.807	135.662	-0.023	-0.030
-301.793	324.017	-0.155	-0.292
-300.778	-133.564	0.449	0.056
-299.764	800.000	0.033	-0.138
-298.749	-100.372	-0.405	-0.099
-297.735	-200.000	0.015	-0.098
-296.720	-200.000	0.017	0.104
-295.705	800.000	0.091	0.386
-294.691	229.564	-0.116	0.187
-293.676	800.000	0.104	0.440
-292.662	800.000	0.058	-0.173
-291.647	26.119	-0.051	0.042
-290.632	-109.586	0.081	-0.017
-289.618	306.614	0.028	0.052
-288.603	-52.668	0.247	0.112
-287.589	101.472	-0.226	0.260
-286.574	21.397	0.104	0.084
-285.559	-154.358	-0.213	0.014
-284.545	28.613	0.115	-0.096
-283.530	-200.000	-0.018	-0.134
-282.516	198.050	0.180	0.271
-281.501	-88.759	0.237	-0.070
-280.486	-117.736	0.233	0.041
-279.472	-200.000	-0.017	-0.082
-278.457	800.000	0.111	0.329
-277.443	196.947	-0.079	0.119
-276.428	-118.484	-0.316	-0.055
-275.413	-200.000	0.018	-0.095
-274.399	-50.842	0.110	0.051
-273.384	-200.000	-0.000	-0.250
-272.370	-200.000	0.003	-0.060
-271.355	-55.942	0.238	-0.105
-270.340	125.281	-0.102	-0.126
-269.326	-131.399	-0.074	-0.010
-268.311	67.449	0.092	0.093
-267.297	-80.116	-0.149	-0.049
-266.282	-121.045	0.425	0.070
-265.267	-134.666	0.434	0.052
-264.253	800.000	-0.076	0.283
-263.238	41.521	0.140	0.125
-262.224	-95.681	0.387	-0.102
-261.209	800.000	-0.056	0.178
-260.195	-117.883	-0.353	0.062
-259.180	800.000	0.042	0.168
-258.165	736.995	-0.054	0.144
-257.151	-22.018	-0.095	0.057
-256.136	-56.729	-0.212	-0.092
-255.122	200.803	0.042	0.064
-254.107	61.078	-0.069	0.067
-253.092	-50.574	0.072	-0.034
-252.078	-200.000	-0.005	-0.233
-251.063	-128.412	0.249	-0.035
-250.049	607.298	0.022	0.054
-249.034	232.034	0.114	0.184
-248.019	-35.652	-0.124	-0.066
-247.005	117.257	-0.072	-0.088
-245.990	-18.992	0.263	0.161
-244.976	-120.430	0.162	-0.027
-243.961	16.575	0.104	-0.081
-242.946	83.967	0.178	-0.191
-241.932	800.000	-0.036	-0.108
-240.917	800.000	-0.083	-0.301
-239.903	-200.000	-0.027	-0.206
-238.888	-8.884	0.166	-0.109
-237.873	175.649	-0.107	0.153
-236.859	-200.000	0.012	-0.114
-235.844	240.930	0.118	0.194
-234.830	-51.409	-0.220	-0.101
-233.815	23.319	0.262	-0.212
-232.800	800.000	-0.188	0.719
-231.786	240.776	0.091	0.150
-230.771	800.000	0.046	-0.169
-229.757	-128.275	-0.218	-0.031
-228.742	-73.653	-0.132	0.047
-227.727	138.282	0.044	-0.057
-226.713	312.848	-0.217	0.402
-225.698	-21.342	-0.191	-0.115
-224.684	93.441	0.062	-0.069
-223.669	800.000	-0.103	-0.285
-222.655	-63.434	-0.069	0.028
-221.640	10.811	0.115	-0.087
-220.625	-118.138	-0.363	0.064
-219.611	-53.269	-0.115	-0.052
-218.596	-70.724	0.178	-0.066
-217.582	741.665	-0.040	-0.106
-216.567	-152.509	0.611	0.043
-215.552	129.138	0.089	-0.111
-214.538	319.732	-0.124	-0.232
-213.523	-200.000	0.013	-0.269
-212.509	720.340	0.058	0.151
-211.494	800.000	-0.047	-0.128
-210.479	-56.907	-0.138	-0.060
-209.465	-169.796	-0.105	0.004
-208.450	0.963	-0.217	0.153
-207.436	410.425	-0.051	-0.107
-206.421	-96.820	-0.325	-0.084
-205.406	75.277	-0.145	-0.151
-204.392	-127.415	-0.053	-0.008
-203.377	14.365	-0.091	-0.070
-202.363	62.579	0.399	-0.392
-201.348	508.780	-0.015	-0.034
-200.333	-95.717	0.215	-0.057
-199.319	243.583	0.036	-0.059
-198.304	-97.149	0.579	0.149
-197.290	-125.443	-0.435	0.065
-196.275	-100.734	0.126	-0.031
-195.260	39.410	-0.148	0.130
-194.246	92.228	0.142	0.157
-193.231	-49.768	-0.236	0.110
-192.217	-104.032	-0.256	0.059
-191.202	427.398	-0.038	0.080
-190.187	-73.400	0.212	-0.076
-189.173	28.952	-0.176	0.146
-188.158	659.433	-0.081	-0.205
-187.144	-133.574	0.077	0.010
-186.129	101.131	0.167	0.191
-185.114	137.748	-0.080	-0.104
-184.100	-67.980	0.183	0.070
-183.085	600.950	-0.087	-0.212
-182.071	-61.570	0.329	0.136
-181.056	195.266	-0.105	0.157
-180.042	-200.000	0.003	0.212
-179.027	226.605	-0.184	-0.293
-178.012	-47.020	-0.064	0.031
-176.998	-200.000	-0.019	-0.192
-175.983	-30.772	-0.170	-0.094
-174.969	300.689	-0.080	-0.145
-173.954	276.262	-0.158	0.276
-172.939	-122.535	0.198	0.032
-171.925	71.250	-0.234	0.239
-170.910	-200.000	0.011	0.136
-169.896	-96.461	-0.240	0.062
-168.881	-108.457	-0.209	-0.044
-167.866	-200.000	-0.010	-0.210
-166.852	154.532	0.163	-0.220
-165.837	800.000	-0.036	0.126
-164.823	-166.117	-0.085	-0.004
-163.808	-59.452	0.238	-0.100
-162.793	57.361	0.234	0.225
-161.779	-128.695	0.159	-0.022
-160.764	184.668	-0.022	-0.033
-159.750	-16.713	0.225	-0.140
-158.735	-200.000	0.058	0.278
-157.720	58.289	-0.302	0.291
-156.706	-92.783	-0.103	0.028
-155.691	79.584	-0.287	-0.302
-154.677	82.336	0.134	-0.143
-153.662	-93.087	0.150	0.041
-152.647	375.602	-0.075	0.150
-151.633	800.000	0.034	-0.134
-150.618	35.020	-0.157	0.135
-149.604	-56.336	0.403	-0.176
-148.589	-200.000	0.007	0.294
-147.574	229.564	0.084	0.135
-146.560	-200.000	0.013	-0.079
-145.545	189.461	-0.195	0.286
-144.531	302.663	0.312	0.567
-143.516	-113.897	-0.191	-0.036
-142.502	152.922	0.103	-0.139
-141.487	19.618	0.260	-0.205
-140.472	800.000	-0.044	-0.160
-139.458	14.450	-0.182	-0.139
-138.443	-121.136	0.173	0.028
-137.429	-200.000	0.006	-0.145
-136.414	483.419	-0.079	-0.176
-135.399	-41.282	0.081	0.041
-134.385	800.000	-0.092	-0.343
-133.370	800.000	0.010	-0.043
-132.356	-200.000	0.016	-0.159
-131.341	-82.820	0.092	0.029
-130.326	6.462	-0.179	0.130
-129.312	-54.517	-0.057	0.025
-128.297	52.656	-0.142	-0.133
-127.283	-29.246	0.283	0.159
-126.268	24.752	-0.139	0.113
-125.253	-85.557	0.104	-0.032
-124.239	-38.888	-0.150	-0.077
-123.224	-108.939	0.404	0.085
-122.210	-98.759	-0.178	0.045
-121.195	125.843	-0.276	-0.343
-120.180	86.111	0.185	0.200
-119.166	-200.000	-0.001	0.067
-118.151	52.344	-0.161	0.150
-117.137	-153.806	-0.192	-0.013
-116.122	-101.597	0.123	0.029
-115.107	-200.000	0.012	-0.130
-114.093	-171.902	-0.269	-0.009
-113.078	51.557	0.159	-0.149
-112.064	-126.188	0.088	-0.013
-111.049	-82.368	0.140	0.045
-110.034	-200.000	0.082	-0.415
-109.020	-113.360	0.130	0.025
-108.005	156.845	-0.025	-0.033
-106.991	-21.753	0.115	-0.069
-105.976	-200.000	0.025	0.186
-104.962	121.073	0.193	0.236
-103.947	19.620	0.211	-0.167
-102.932	107.829	0.005	-0.006
-101.918	80.191	0.126	-0.133
-100.903	-60.500	-0.156	0.065
-99.889	102.521	0.202	0.231
-98.874	123.106	0.061	-0.074
-97.859	96.279	-0.123	0.138
-96.845	229.541	0.142	0.228
-95.830	35.895	-0.188	0.162
-94.816	-45.291	0.106	-0.051
-93.801	-127.280	-0.310	0.044
-92.786	-9.583	-0.121	0.079
-91.772	-64.607	0.099	-0.039
-90.757	-182.713	-0.060	0.001
-89.743	550.997	-0.194	0.455
-88.728	800.000	0.052	0.163
-87.713	138.903	-0.168	-0.216
-86.699	-200.000	0.007	-0.276
-85.684	-200.000	-0.036	0.157
-84.670	216.460	0.013	0.020
-83.655	287.356	0.167	0.296
-82.640	295.398	-0.137	0.246
-81.626	646.166	0.056	0.141
-80.611	197.252	0.081	-0.121
-79.597	-200.000	0.005	-0.108
-78.582	0.899	0.151	-0.106
-77.567	800.000	0.099	-0.357
-76.553	-200.000	0.026	-0.131
-75.538	800.000	0.044	-0.182
-74.524	-176.111	-0.191	0.005
-73.509	-71.530	0.286	0.105
-72.494	-58.996	0.211	-0.089
-71.480	-28.345	-0.338	-0.191
-70.465	27.255	-0.042	0.035
-69.451	800.000	0.130	-0.355
-68.436	651.606	0.050	0.125
-67.422	-166.355	-0.285	-0.012
-66.407	-68.151	-0.070	-0.027
-65.392	-200.000	0.022	-0.300
-64.378	800.000	-0.028	-0.094
-63.363	33.130	0.093	0.079
-62.349	15.152	0.265	0.203
-61.334	160.000	-0.951	-1.296
-60.319	136.536	0.717	0.916
-59.305	263.456	-0.653	-1.111
-58.290	235.524	0.592	0.956
-57.276	360.240	0.677	1.326
-56.261	-200.000	128.778	674.938
-55.246	399.080	1616.766	3311.894
-54.232	135.067	2782.239	3535.657
-53.217	86.219	2343.303	2524.229
-52.203	29.363	2081.614	1729.723
-51.188	24.459	1996.487	1614.686
-50.173	23.350	1980.597	1591.811
-49.159	42.024	2054.174	1822.973
-48.144	39.682	2066.776	1812.591
-47.130	24.941	2018.539	1636.662
-46.115	22.821	2007.513	1608.363
-45.100	22.696	2004.497	1604.747
-44.086	22.649	2001.873	1602.157
-43.071	22.611	1999.826	1600.112
-42.057	22.576	1997.402	1597.795
-41.042	22.641	1995.341	1596.668
-40.027	22.680	1993.741	1595.677
-39.013	22.730	1991.092	1593.945
-37.998	22.643	1990.172	1592.357
-36.984	22.724	1987.771	1591.107
-35.969	22.620	1986.530	1589.113
-34.954	22.683	1984.659	1588.121
-33.940	22.652	1983.699	1587.010
-32.925	22.728	1981.652	1585.990
-31.911	22.778	1979.905	1584.983
-30.896	22.780	1978.154	1583.533
-29.881	22.763	1977.232	1582.581
-28.867	22.738	1975.844	1581.182
-27.852	22.842	1973.900	1580.498
-26.838	22.829	1971.485	1578.383
-25.823	22.778	1969.827	1576.540
-24.809	22.779	1968.366	1575.312
-23.794	22.834	1966.087	1573.921
-22.779	22.816	1964.489	1572.418
-21.765	22.758	1964.000	1571.445
-20.750	22.771	1961.414	1569.427
-19.736	22.807	1960.111	1568.646
-18.721	22.855	1958.256	1567.529
-17.706	22.810	1956.840	1565.931
-16.692	22.806	1954.591	1564.034
-15.677	22.735	1953.305	1562.308
-14.663	22.720	1951.883	1560.982
-13.648	22.757	1951.105	1560.624
-12.633	22.713	1950.089	1559.359
-11.619	22.696	1948.606	1557.965
-10.604	22.741	1947.118	1557.110
-9.590	22.710	1945.692	1555.630
-8.575	22.831	1943.786	1555.116
-7.560	22.755	1943.182	1553.899
-6.546	22.773	1941.902	1552.969
-5.531	22.781	1940.117	1551.553
-4.517	22.795	1939.089	1550.794
-3.502	22.824	1937.990	1550.109
-2.487	22.805	1936.691	1548.843
-1.473	22.749	1935.873	1547.634
-0.458	22.841	1930.495	1544.080
0.556	21.006	1910.236	1515.127
1.571	16.854	1892.253	1464.919
2.586	13.171	1916.546	1451.296
3.600	12.322	1951.502	1470.042
4.615	12.408	1945.085	1465.841
5.629	9.684	1844.479	1366.834
6.644	3.632	1731.988	1235.059
7.659	0.471	1699.835	1187.179
8.673	0.228	1696.700	1182.977
9.688	0.191	1695.466	1181.723
10.702	0.166	1694.219	1180.551
11.717	0.035	1690.361	1176.730
12.731	0.549	1688.712	1179.500
13.746	5.204	1698.089	1222.446
14.761	12.344	1713.227	1289.468
15.775	16.278	1719.599	1325.088
16.790	16.729	1719.632	1328.533
17.804	15.832	1716.588	1319.034
18.819	14.938	1712.956	1309.134
19.834	14.277	1711.296	1302.579
20.848	14.031	1709.857	1299.444
21.863	13.813	1707.791	1296.057
22.877	13.605	1706.456	1293.311
23.892	13.397	1704.594	1290.162
24.907	13.254	1703.904	1288.406
25.921	13.269	1702.660	1287.474
26.936	13.211	1701.874	1286.314
27.950	13.256	1701.264	1286.088
28.965	13.281	1700.450	1285.551
29.980	13.353	1699.293	1285.122
30.994	13.435	1698.276	1284.878
32.009	13.432	1697.571	1284.205
33.023	13.518	1696.533	1283.976
34.038	13.500	1695.694	1283.089
35.053	13.517	1694.603	1282.277
36.067	13.501	1693.131	1280.930
37.082	13.380	1692.655	1279.518
38.096	13.335	1691.886	1278.474
39.111	13.493	1690.750	1278.724
40.126	13.504	1689.860	1278.021
41.140	13.415	1688.950	1276.533
42.155	13.358	1687.401	1274.812
43.169	13.294	1686.452	1273.489
44.184	13.367	1684.830	1272.715
45.199	13.330	1683.626	1271.407
46.213	13.230	1682.764	1269.874
47.228	13.268	1681.348	1268.983
48.242	13.302	1680.038	1268.143
49.257	13.424	1678.861	1268.083
50.271	13.326	1677.787	1266.407
51.286	13.351	1676.656	1265.631
52.301	13.368	1675.127	1264.496
53.315	13.405	1673.128	1263.159
54.330	13.380	1671.732	1261.802
55.344	13.304	1670.512	1260.187
56.359	13.310	1668.836	1258.857
57.374	13.298	1668.040	1258.057
58.388	13.311	1666.431	1256.833
59.403	13.361	1665.075	1256.073
60.417	13.245	1664.267	1254.474
61.432	13.224	1662.824	1253.120
62.447	13.249	1661.431	1252.146
63.461	13.223	1660.349	1251.027
64.476	13.125	1659.546	1249.567
65.490	13.192	1657.486	1248.411
66.505	13.168	1656.566	1247.429
67.520	13.189	1655.268	1246.497
68.534	13.252	1654.673	1246.413
69.549	13.292	1653.448	1245.682
70.563	13.267	1652.031	1244.318
71.578	13.205	1650.257	1242.400
72.593	13.240	1649.070	1241.662
73.607	13.180	1648.220	1240.465
74.622	13.048	1646.932	1238.390
75.636	13.103	1646.681	1238.511
76.651	13.110	1645.460	1237.532
77.666	13.136	1644.547	1236.928
78.680	13.103	1643.285	1235.622
79.695	13.133	1642.246	1234.962
80.709	13.138	1641.347	1234.209
81.724	13.197	1640.578	1233.963
82.739	13.174	1639.547	1232.910
83.753	13.223	1638.673	1232.505
84.768	13.320	1637.623	1232.334
85.782	13.321	1637.317	1231.997
86.797	13.342	1635.951	1231.015
87.812	13.406	1635.131	1230.768
88.826	13.337	1633.541	1228.950
89.841	13.351	1632.245	1227.968
90.855	13.258	1631.791	1226.833
91.870	13.372	1630.459	1226.565
92.884	13.341	1629.247	1225.318
93.899	13.361	1628.476	1224.778
94.914	13.336	1627.624	1223.839
95.928	13.398	1626.003	1222.974
96.943	13.383	1624.739	1221.803
97.957	13.406	1623.349	1220.819
98.972	13.438	1621.866	1219.829
99.987	13.333	1620.500	1217.924
101.001	13.421	1618.399	1216.884
102.016	13.314	1617.024	1214.954
103.030	13.384	1615.746	1214.402
104.045	13.427	1614.728	1213.845
105.060	13.395	1612.956	1212.167
106.074	13.462	1611.490	1211.450
107.089	13.362	1610.038	1209.518
108.103	13.221	1608.981	1207.587
109.118	13.244	1607.444	1206.498
110.133	13.221	1605.793	1204.983
111.147	13.186	1604.757	1203.843
112.162	13.198	1603.553	1202.922
113.176	13.254	1601.547	1201.719
114.191	13.244	1600.222	1200.549
115.206	13.224	1599.205	1199.528
116.220	13.313	1597.727	1198.963
117.235	13.371	1596.188	1198.124
118.249	13.282	1595.151	1196.596
119.264	13.307	1593.902	1195.729
120.279	13.220	1593.071	1194.370
121.293	13.340	1591.099	1193.653
122.308	13.243	1589.133	1191.376
123.322	13.303	1587.765	1190.674
124.337	13.296	1585.992	1189.189
125.352	13.245	1585.242	1188.157
126.366	13.209	1583.832	1186.735
127.381	13.178	1582.388	1185.330
128.395	13.190	1581.734	1184.819
129.410	13.255	1580.320	1184.122
130.424	13.271	1578.401	1182.693
131.439	13.317	1576.750	1181.681
132.454	13.277	1575.579	1180.408
133.468	13.327	1574.351	1179.746
134.483	13.212	1573.340	1178.058
135.497	13.358	1571.320	1177.485
136.512	13.400	1570.094	1176.761
137.527	13.391	1569.185	1175.909
138.541	13.280	1567.907	1174.057
139.556	13.392	1566.435	1173.647
140.570	13.418	1564.664	1172.400
141.585	13.454	1563.363	1171.580
142.600	13.428	1562.769	1170.846
143.614	13.467	1560.767	1169.516
144.629	13.513	1559.622	1168.882
145.643	13.620	1557.986	1168.308
146.658	13.578	1556.854	1167.057
147.673	13.582	1555.127	1165.689
148.687	13.556	1553.634	1164.283
149.702	13.513	1552.201	1162.807
150.716	13.473	1550.666	1161.272
151.731	13.474	1548.976	1159.912
152.746	13.524	1548.251	1159.617
153.760	13.511	1546.587	1158.175
154.775	13.467	1545.482	1156.940
155.789	13.551	1544.074	1156.365
156.804	13.522	1543.095	1155.330
157.819	13.586	1541.526	1154.500
158.833	13.646	1540.322	1153.912
159.848	13.684	1538.784	1152.921
160.862	13.694	1538.208	1152.461
161.877	13.792	1536.330	1151.630
162.892	13.744	1535.314	1150.433
163.906	13.626	1533.954	1148.492
164.921	13.507	1533.105	1146.934
165.935	13.541	1532.037	1146.270
166.950	13.637	1530.494	1145.675
167.964	13.695	1529.367	1145.130
168.979	13.674	1528.322	1144.102
169.994	13.666	1527.656	1143.449
171.008	13.719	1526.297	1142.696
172.023	13.854	1524.759	1142.368
173.037	13.775	1524.209	1141.314
174.052	13.769	1522.987	1140.259
175.067	13.773	1521.577	1139.127
176.081	13.787	1520.612	1138.402
177.096	13.806	1519.088	1137.290
178.110	13.714	1518.073	1135.799
179.125	13.705	1516.519	1134.476
180.140	13.745	1515.393	1133.808
181.154	13.752	1515.117	1133.544
182.169	13.772	1513.381	1132.286
183.183	13.800	1512.137	1131.446
184.198	13.762	1511.755	1130.796
185.213	13.864	1510.058	1130.127
186.227	13.858	1508.710	1128.976
187.242	13.855	1507.954	1128.287
188.256	13.903	1506.736	1127.600
189.271	14.102	1505.057	1127.593
190.286	13.960	1504.638	1126.223
191.300	13.937	1503.396	1125.037
192.315	13.880	1501.804	1123.357
193.329	13.791	1501.103	1122.131
194.344	13.739	1499.443	1120.438
195.359	13.775	1498.830	1120.127
196.373	13.824	1497.422	1119.303
197.388	13.889	1496.775	1119.165
198.402	13.900	1495.296	1118.028
199.417	14.022	1494.247	1117.969
200.432	14.084	1493.093	1117.423
201.446	14.132	1492.469	1117.182
202.461	14.125	1491.114	1116.019
203.475	14.153	1489.565	1114.952
204.490	14.179	1488.551	1114.267
205.504	14.209	1487.450	1113.541
206.519	14.165	1486.109	1112.145
207.534	14.098	1485.304	1110.996
208.548	14.062	1484.055	1109.726
209.563	14.129	1483.197	1109.433
210.577	14.157	1481.867	1108.525
211.592	14.215	1481.368	1108.442
212.607	14.199	1480.495	1107.580
213.621	14.167	1479.968	1106.876
214.636	14.276	1478.943	1106.736
215.650	14.304	1477.501	1105.745
216.665	14.259	1476.975	1104.960
217.680	14.334	1475.929	1104.571
218.694	14.322	1475.316	1103.941
219.709	14.371	1474.042	1103.213
220.723	14.313	1473.071	1102.006
221.738	14.347	1472.070	1101.384
222.753	14.402	1471.410	1101.157
223.767	14.388	1470.702	1100.435
224.782	14.370	1469.285	1099.159
225.796	14.337	1468.990	1098.622
226.811	14.457	1468.051	1098.616
227.826	14.569	1466.790	1098.310
228.840	14.475	1466.409	1097.308
229.855	14.477	1464.895	1096.092
230.869	14.376	1464.557	1095.077
231.884	14.434	1462.694	1093.970
232.899	14.459	1461.985	1093.506
233.913	14.426	1461.129	1092.554
234.928	14.536	1459.577	1092.017
235.942	14.441	1458.698	1090.637
236.957	14.423	1457.290	1089.374
237.972	14.461	1455.823	1088.429
238.986	14.428	1454.866	1087.404
240.001	14.506	1453.993	1087.162
241.015	14.455	1453.251	1086.178
242.030	14.534	1451.668	1085.411
243.045	14.476	1450.747	1084.248
244.059	14.627	1449.781	1084.416
245.074	14.583	1449.460	1083.792
246.088	14.579	1448.875	1083.236
247.103	14.651	1447.715	1082.736
248.117	14.673	1446.903	1082.176
249.132	14.750	1445.838	1081.780
250.147	14.799	1445.461	1081.724
251.161	14.832	1444.625	1081.215
252.176	14.926	1443.953	1081.227
253.190	14.984	1442.639	1080.520
254.205	14.854	1442.001	1079.108
255.220	15.041	1440.834	1079.346
256.234	14.983	1440.177	1078.385
257.249	14.949	1440.058	1077.981
258.263	14.914	1438.977	1076.850
259.278	14.987	1437.919	1076.429
260.293	15.036	1436.943	1075.922
261.307	15.035	1436.052	1075.152
262.322	15.084	1435.510	1074.963
263.336	15.151	1434.512	1074.555
264.351	15.198	1433.373	1073.902
265.366	15.180	1432.401	1072.965
266.380	15.156	1431.817	1072.281
267.395	15.153	1430.869	1071.453
268.409	15.279	1429.876	1071.425
269.424	15.139	1428.897	1069.698
270.439	15.182	1427.870	1069.114
271.453	15.179	1426.801	1068.200
272.468	15.247	1426.177	1068.072
273.482	15.236	1425.246	1067.207
274.497	15.255	1424.007	1066.305
275.512	15.228	1423.165	1065.407
276.526	15.248	1422.184	1064.706
277.541	15.149	1421.458	1063.444
278.555	15.153	1420.652	1062.769
279.570	15.229	1419.814	1062.534
280.585	15.208	1418.878	1061.606
281.599	15.272	1418.725	1061.802
282.614	15.430	1416.899	1061.337
283.628	15.348	1416.013	1060.062
284.643	15.271	1414.795	1058.572
285.657	15.412	1413.249	1058.208
286.672	15.359	1412.622	1057.314
287.687	15.389	1412.026	1056.962
288.701	15.314	1411.178	1055.765
289.716	15.386	1410.106	1055.317
290.730	15.431	1409.269	1054.880
291.745	15.414	1408.643	1054.217
292.760	15.520	1407.043	1053.589
293.774	15.521	1405.762	1052.542
294.789	15.458	1405.218	1051.650
295.803	15.480	1404.849	1051.416
296.818	15.613	1403.557	1051.187
297.833	15.548	1402.884	1050.187
298.847	15.551	1401.517	1049.088
299.862	15.557	1400.231	1048.070
300.876	15.564	1399.772	1047.676
301.891	15.615	1399.104	1047.399
302.906	15.553	1398.288	1046.315
303.920	15.646	1397.567	1046.259
304.935	15.688	1396.626	1045.720
305.949	15.671	1395.796	1044.906
306.964	15.653	1395.180	1044.237
307.979	15.811	1393.975	1044.221
308.993	15.805	1393.043	1043.395
310.008	15.788	1392.112	1042.503
311.022	15.830	1391.184	1041.976
312.037	15.835	1390.357	1041.294
313.052	15.872	1389.285	1040.624
314.066	15.902	1387.943	1039.712
315.081	15.868	1386.964	1038.682
316.095	15.780	1386.351	1037.584
317.110	15.786	1384.699	1036.297
318.125	15.761	1384.319	1035.762
319.139	15.762	1383.296	1034.912
320.154	15.775	1382.485	1034.294
321.168	15.835	1381.433	1033.787
322.183	15.821	1380.012	1032.547
323.197	15.906	1379.337	1032.472
324.212	15.921	1378.558	1031.885
325.227	15.840	1377.963	1030.852
326.241	15.859	1376.833	1030.033
327.256	15.881	1375.937	1029.406
328.270	15.950	1374.871	1028.939
329.285	15.954	1374.065	1028.268
330.300	15.909	1372.904	1027.037
331.314	15.952	1372.164	1026.655
332.329	16.020	1371.235	1026.280
333.343	15.982	1370.463	1025.380
334.358	16.010	1369.767	1024.941
335.373	16.114	1368.357	1024.428
336.387	15.984	1368.098	1023.356
337.402	16.058	1367.167	1023.015
338.416	16.097	1366.587	1022.728
339.431	16.161	1365.941	1022.543
340.446	16.185	1364.991	1021.884
341.460	16.158	1364.346	1021.149
342.475	16.215	1363.113	1020.478
343.489	16.269	1362.444	1020.212
344.504	16.202	1361.588	1019.081
345.519	16.247	1360.664	1018.571
346.533	16.248	1359.546	1017.650
347.548	16.377	1358.615	1017.641
348.562	16.425	1357.473	1016.981
349.577	16.387	1357.188	1016.447
350.592	16.293	1356.724	1015.444
351.606	16.360	1355.513	1014.854
352.621	16.282	1354.279	1013.369
353.635	16.283	1353.244	1012.511
354.650	16.298	1351.928	1011.528
355.665	16.321	1351.459	1011.225
356.679	16.330	1350.088	1010.164
357.694	16.290	1348.975	1009.001
358.708	16.467	1348.048	1009.275
359.723	16.363	1347.268	1007.983
360.738	16.382	1346.117	1007.149
361.752	16.516	1344.306	1006.500
362.767	16.415	1343.686	1005.345
363.781	16.382	1343.143	1004.655
364.796	16.406	1342.391	1004.146
365.810	16.556	1341.533	1004.304
366.825	16.578	1340.927	1003.896
367.840	16.597	1339.899	1003.151
368.854	16.531	1339.468	1002.346
369.869	16.644	1338.984	1002.567
370.883	16.638	1338.338	1001.959
371.898	16.664	1337.467	1001.369
372.913	16.559	1336.432	999.888
373.927	16.624	1335.536	999.508
374.942	16.666	1334.523	998.914
375.956	16.708	1334.076	998.735
376.971	16.727	1333.201	998.108
377.986	16.638	1332.637	997.070
379.000	16.760	1331.399	996.776
380.015	16.821	1330.588	996.436
381.029	16.804	1330.477	996.165
382.044	16.744	1329.654	995.109
383.059	16.894	1328.560	995.084
384.073	16.893	1328.097	994.640
385.088	16.902	1327.531	994.183
386.102	16.885	1326.653	993.338
387.117	16.925	1326.089	993.060
388.132	16.971	1325.018	992.441
389.146	16.892	1323.865	991.029
390.161	16.986	1323.308	991.072
391.175	16.838	1322.763	989.714
392.190	16.962	1321.758	989.594
393.205	16.891	1321.157	988.644
394.219	16.972	1320.265	988.361
395.234	17.023	1318.292	987.094
396.248	17.074	1317.258	986.529
397.263	17.003	1316.267	985.289
398.278	17.083	1314.348	984.229
399.292	16.963	1313.541	982.842
400.307	17.029	1312.423	982.298
401.321	17.053	1311.336	981.535
402.336	17.080	1310.447	980.941
403.350	17.082	1309.522	980.174
404.365	17.109	1308.134	979.203
405.380	17.047	1308.065	978.706
406.394	17.175	1306.678	978.319
407.409	17.129	1306.353	977.725
408.423	17.146	1305.832	977.348
409.438	17.179	1305.077	976.886
410.453	17.315	1303.698	976.545
411.467	17.280	1303.824	976.357
412.482	17.263	1303.229	975.723
413.496	17.243	1302.504	974.982
414.511	17.326	1301.205	974.399
415.526	17.338	1300.732	974.025
416.540	17.326	1300.219	973.485
417.555	17.359	1299.529	973.075
418.569	17.484	1298.486	972.921
419.584	17.533	1298.226	972.921
420.599	17.457	1297.889	972.147
421.613	100.016	1361.916	1488.230
422.628	98.164	1371.188	1488.326
