DTS Sentinel unit serial number:	SN413079Multiplexer serial number:	ORYXHardware model number:	OX4-SRSoftware version number:	ORYX F/W v4.00 Oryx Data Collector v3.7.2.0data status	okinstallation	princeton_trtdifferential loss correction	single-endedforward channel	channel 4reverse channel	N/Adate	2019/09/13time	16:09:34forward acquisition time	60.00reverse acquisition time	0.00gamma	496.2192k internal	0.2296k external	0.2296temperature offset calibration	1.0213default loss term (dB/km)	0.3790temperature slope calibration	1.0000multiplexer offset coefficient	1.0000multiplexer slope coefficient	1.0000fibre end	0.00T internal ref (°C)	34.75T ext. ref 1 (°C)	4.84T ext. ref 2 (°C)	31.52length (m)	temperature (°C)	Stokes	anti-Stokes-747.200	-59.283	-0.189	-0.083
-746.185	800.000	-0.058	0.205
-745.171	-200.000	-0.002	-0.124
-744.156	-155.462	-0.303	-0.020
-743.142	126.453	0.172	-0.222
-742.127	-85.106	0.151	0.048
-741.112	-84.583	0.121	0.039
-740.098	-200.000	-0.013	0.189
-739.083	-49.675	0.058	-0.028
-738.069	-107.436	-0.315	0.071
-737.054	-200.000	-0.001	-0.307
-736.039	-84.352	-0.362	-0.117
-735.025	-132.554	-0.211	-0.028
-734.010	-66.091	-0.204	-0.083
-732.996	-91.696	-0.295	0.086
-731.981	-24.716	-0.181	0.110
-730.966	-200.000	-0.006	-0.159
-729.952	267.028	0.088	0.156
-728.937	-135.823	-0.302	-0.036
-727.923	-16.384	-0.253	-0.164
-726.908	-48.995	-0.148	-0.073
-725.894	18.057	-0.109	-0.089
-724.879	50.195	0.226	-0.218
-723.864	214.171	-0.131	-0.212
-722.850	29.997	-0.029	0.025
-721.835	-200.000	-0.037	0.281
-720.821	-74.279	-0.089	-0.033
-719.806	-49.105	-0.098	-0.048
-718.791	-200.000	0.036	-0.208
-717.777	-200.000	0.055	-0.376
-716.762	45.405	0.042	0.040
-715.748	-200.000	-0.022	-0.372
-714.733	68.832	0.206	-0.216
-713.718	324.817	-0.153	-0.298
-712.704	119.014	0.084	-0.105
-711.689	800.000	0.080	-0.336
-710.675	518.868	-0.074	0.177
-709.660	-86.953	0.059	0.018
-708.645	48.749	-0.171	-0.163
-707.631	210.646	-0.046	0.073
-706.616	-36.865	0.053	-0.029
-705.602	321.682	0.102	0.199
-704.587	88.231	-0.279	0.316
-703.572	-100.978	0.370	0.093
-702.558	800.000	0.085	-0.288
-701.543	-154.615	0.216	0.015
-700.529	129.882	-0.221	-0.288
-699.514	-50.109	-0.182	-0.088
-698.499	-200.000	-0.077	-0.423
-697.485	-158.054	-0.436	0.026
-696.470	275.374	0.031	-0.057
-695.456	10.049	-0.323	-0.250
-694.441	-132.085	0.318	-0.042
-693.426	48.737	-0.273	-0.261
-692.412	-200.000	0.005	0.152
-691.397	-200.000	0.017	0.288
-690.383	-200.000	0.013	0.115
-689.368	-200.000	0.007	-0.070
-688.354	-138.704	-0.155	-0.017
-687.339	728.306	-0.065	-0.176
-686.324	-28.250	-0.183	-0.108
-685.310	97.596	-0.129	0.151
-684.295	-200.000	0.014	0.249
-683.281	-200.000	0.029	-0.193
-682.266	800.000	-0.089	-0.288
-681.251	642.087	0.049	0.129
-680.237	105.764	0.280	-0.338
-679.222	32.368	-0.073	-0.064
-678.208	-200.000	-0.017	-0.191
-677.193	384.762	-0.164	0.345
-676.178	257.619	-0.031	-0.054
-675.164	-200.000	0.005	-0.112
-674.149	13.959	-0.065	0.051
-673.135	-200.000	-0.031	-0.163
-672.120	-200.000	-0.032	0.225
-671.105	-29.632	-0.258	-0.150
-670.091	203.920	-0.095	-0.150
-669.076	-200.000	-0.015	-0.146
-668.062	-200.000	0.010	-0.086
-667.047	260.296	0.181	0.318
-666.032	-12.302	-0.278	-0.185
-665.018	481.488	0.059	0.136
-664.003	183.730	0.036	-0.054
-662.989	243.603	-0.242	-0.414
-661.974	-99.587	-0.369	0.094
-660.959	186.198	0.042	0.064
-659.945	-43.702	-0.324	-0.166
-658.930	70.033	0.074	0.077
-657.916	-164.892	-0.229	-0.010
-656.901	-114.569	-0.541	0.106
-655.886	-200.000	-0.042	0.284
-654.872	-116.765	0.288	-0.054
-653.857	-59.167	0.055	-0.024
-652.843	50.813	-0.126	-0.121
-651.828	24.126	-0.135	-0.114
-650.814	-43.571	-0.052	-0.027
-649.799	800.000	0.062	-0.236
-648.784	-40.984	-0.148	0.078
-647.770	800.000	0.083	0.319
-646.755	-144.174	-0.208	-0.020
-645.741	-200.000	-0.200	0.001
-644.726	-200.000	0.075	-0.396
-643.711	-53.577	-0.280	0.131
-642.697	-104.495	-0.203	-0.048
-641.682	-24.137	-0.232	0.141
-640.668	-93.203	-0.192	-0.054
-639.653	234.983	-0.080	-0.134
-638.638	-63.038	0.205	0.086
-637.624	-139.633	0.094	0.010
-636.609	-19.461	-0.203	-0.128
-635.595	-200.000	-0.012	-0.150
-634.580	-60.633	-0.228	-0.098
-633.565	164.307	-0.028	-0.040
-632.551	213.532	0.031	-0.051
-631.536	800.000	-0.137	-0.422
-630.522	-148.827	0.231	0.019
-629.507	-34.899	-0.151	0.084
-628.492	132.137	0.081	0.106
-627.478	323.964	-0.044	-0.086
-626.463	-2.840	-0.119	-0.085
-625.449	-200.000	-0.013	0.180
-624.434	-200.000	-0.052	0.365
-623.419	-176.716	0.340	-0.009
-622.405	800.000	-0.095	-0.398
-621.390	-131.557	0.186	-0.025
-620.376	-88.603	0.156	0.047
-619.361	-200.000	0.000	0.277
-618.346	-200.000	0.037	-0.187
-617.332	-20.822	0.183	-0.114
-616.317	-200.000	0.055	-0.265
-615.303	120.672	-0.153	-0.193
-614.288	-131.462	0.136	-0.018
-613.273	-200.000	-0.014	-0.232
-612.259	150.704	0.260	-0.359
-611.244	128.782	0.163	-0.211
-610.230	-115.482	0.326	0.062
-609.215	-16.629	-0.232	-0.149
-608.201	327.815	0.090	-0.175
-607.186	83.513	0.072	0.080
-606.171	-13.111	-0.256	-0.169
-605.157	800.000	0.015	-0.046
-604.142	-6.752	-0.123	-0.085
-603.128	-112.798	0.293	-0.059
-602.113	364.172	0.118	-0.242
-601.098	75.179	0.189	0.202
-600.084	-140.440	0.327	-0.035
-599.069	-41.079	-0.270	-0.142
-598.055	-95.793	-0.366	-0.099
-597.040	-200.000	0.008	0.230
-596.025	209.441	-0.301	0.479
-595.011	-17.799	0.194	-0.124
-593.996	96.944	-0.019	-0.022
-592.982	-24.258	-0.074	-0.045
-591.967	73.627	-0.243	-0.258
-590.952	-200.000	-0.024	0.196
-589.938	800.000	0.071	-0.292
-588.923	-92.170	-0.142	-0.041
-587.909	-99.371	0.255	-0.065
-586.894	25.638	0.011	0.009
-585.879	-200.000	0.023	-0.158
-584.865	49.673	0.141	0.135
-583.850	27.678	0.203	-0.174
-582.836	90.155	-0.077	-0.088
-581.821	28.600	0.205	-0.176
-580.806	-200.000	-0.022	-0.217
-579.792	800.000	0.019	-0.084
-578.777	653.896	-0.094	0.244
-577.763	104.360	0.101	0.120
-576.748	76.194	-0.056	-0.061
-575.733	351.667	-0.025	-0.049
-574.719	206.624	-0.037	-0.059
-573.704	12.149	0.116	-0.091
-572.690	800.000	0.046	-0.137
-571.675	230.432	0.104	0.173
-570.661	-83.695	-0.103	0.033
-569.646	200.886	-0.070	0.109
-568.631	-200.000	0.032	0.327
-567.617	24.051	0.047	0.039
-566.602	-120.829	0.219	-0.037
-565.588	-28.024	-0.476	-0.279
-564.573	-47.745	0.173	0.085
-563.558	-200.000	-0.012	0.143
-562.544	-94.426	-0.118	-0.033
-561.529	-46.622	-0.039	-0.019
-560.515	505.264	0.060	0.141
-559.500	547.938	-0.172	-0.419
-558.485	800.000	0.058	-0.240
-557.471	-200.000	0.024	-0.397
-556.456	282.494	0.210	-0.382
-555.442	-120.809	-0.133	-0.023
-554.427	7.879	-0.400	-0.304
-553.412	304.525	0.093	0.175
-552.398	800.000	-0.055	0.234
-551.383	-200.000	-0.022	-0.119
-550.369	171.493	0.170	0.247
-549.354	49.066	0.037	0.035
-548.339	-0.824	0.056	-0.040
-547.325	189.882	0.033	0.051
-546.310	-200.000	-0.038	0.190
-545.296	-162.832	-0.360	0.018
-544.281	-24.831	-0.263	0.159
-543.266	422.181	0.112	0.244
-542.252	-177.175	0.179	0.005
-541.237	69.120	0.110	0.115
-540.223	-38.883	-0.250	-0.133
-539.208	-124.935	0.207	-0.032
-538.193	367.440	0.122	-0.250
-537.179	-114.236	-0.391	-0.076
-536.164	204.919	-0.248	-0.391
-535.150	79.524	0.099	0.107
-534.135	-200.000	-0.046	-0.226
-533.121	-124.464	0.214	-0.034
-532.106	-29.297	-0.331	0.192
-531.091	-200.000	0.001	-0.080
-530.077	-57.529	0.382	-0.170
-529.062	131.348	0.240	0.313
-528.048	-167.924	0.024	0.001
-527.033	-42.653	0.016	0.008
-526.018	-200.000	-0.011	-0.239
-525.004	65.034	-0.316	-0.323
-523.989	-200.000	0.000	-0.334
-522.975	-173.277	-0.246	0.008
-521.960	-70.603	0.245	0.094
-520.945	-200.000	0.009	0.060
-519.931	228.760	0.135	-0.223
-518.916	-132.023	-0.109	-0.014
-517.902	261.555	0.114	-0.200
-516.887	800.000	0.019	0.083
-515.872	42.493	-0.069	-0.063
-514.858	108.409	0.153	-0.185
-513.843	-155.310	-0.418	0.027
-512.829	138.034	0.195	0.259
-511.814	-17.389	-0.281	0.179
-510.799	-200.000	-0.010	0.245
-509.785	-200.000	-0.010	0.044
-508.770	76.040	-0.257	0.275
-507.756	353.204	0.165	0.331
-506.741	225.126	-0.057	0.094
-505.726	-173.034	-0.344	0.011
-504.712	-200.000	0.020	0.095
-503.697	-200.000	-0.008	0.293
-502.683	-151.714	0.257	0.019
-501.668	-45.659	0.223	-0.112
-500.653	366.342	-0.118	-0.241
-499.639	-79.315	-0.112	-0.038
-498.624	25.473	0.054	-0.045
-497.610	691.908	-0.091	-0.241
-496.595	659.267	-0.111	-0.288
-495.581	-45.344	0.255	0.128
-494.566	-200.000	0.010	0.202
-493.551	280.100	-0.075	0.135
-492.537	-89.290	0.263	-0.078
-491.522	-200.000	0.020	-0.191
-490.508	-200.000	-0.038	0.181
-489.493	-125.193	0.046	-0.007
-488.478	-61.897	-0.132	-0.056
-487.464	-117.492	0.082	-0.015
-486.449	800.000	0.052	0.157
-485.435	28.726	0.102	-0.087
-484.420	-12.173	0.161	-0.107
-483.405	-60.799	0.415	0.178
-482.391	-200.000	0.008	-0.145
-481.376	-200.000	0.015	0.135
-480.362	-108.079	-0.145	-0.032
-479.347	196.333	-0.266	0.410
-478.332	103.135	-0.192	0.227
-477.318	34.016	0.258	-0.227
-476.303	148.795	0.076	-0.104
-475.289	411.029	0.079	-0.170
-474.274	369.002	-0.098	0.200
-473.259	69.002	0.201	0.209
-472.245	-135.328	-0.252	-0.031
-471.230	-91.403	-0.228	-0.066
-470.216	-14.500	0.416	-0.270
-469.201	-200.000	-0.026	-0.206
-468.186	-127.797	-0.149	-0.022
-467.172	-200.000	0.038	0.217
-466.157	-66.735	0.225	0.090
-465.143	-146.424	-0.194	0.017
-464.128	70.473	-0.141	-0.147
-463.113	-200.000	-0.027	-0.160
-462.099	129.870	-0.138	0.178
-461.084	-200.000	0.067	-0.324
-460.070	5.081	-0.158	0.118
-459.055	-63.297	0.056	0.023
-458.040	-140.490	-0.098	-0.010
-457.026	-200.000	0.032	-0.231
-456.011	-200.000	-0.057	0.348
-454.997	628.306	-0.022	-0.056
-453.982	-70.545	-0.111	0.042
-452.968	800.000	0.106	-0.394
-451.953	-79.485	0.113	-0.039
-450.938	-200.000	0.008	-0.153
-449.924	-25.563	0.024	-0.014
-448.909	-155.375	-0.191	-0.013
-447.895	127.532	0.097	0.124
-446.880	84.192	0.109	-0.121
-445.865	-49.151	0.222	-0.107
-444.851	28.623	0.193	0.165
-443.836	-149.651	-0.455	0.036
-442.822	-200.000	-0.014	0.320
-441.807	-81.172	0.376	-0.126
-440.792	-103.572	0.277	-0.066
-439.778	-35.494	-0.239	-0.131
-438.763	562.512	0.104	-0.253
-437.749	-200.000	0.009	-0.091
-436.734	37.689	0.164	-0.147
-435.719	-50.380	-0.331	0.158
-434.705	241.925	-0.108	0.182
-433.690	800.000	0.032	0.136
-432.676	-75.018	0.312	-0.113
-431.661	-200.000	-0.001	-0.019
-430.646	-28.626	-0.299	-0.174
-429.632	220.859	0.204	0.330
-428.617	-178.683	-0.125	-0.003
-427.603	204.880	-0.237	-0.372
-426.588	44.176	0.083	-0.077
-425.573	241.301	0.087	0.147
-424.559	118.949	0.209	-0.261
-423.544	-74.425	0.151	-0.055
-422.530	-54.273	-0.094	0.043
-421.515	188.112	-0.043	-0.065
-420.500	390.394	0.172	0.360
-419.486	-161.829	0.246	0.013
-418.471	-16.227	0.090	0.058
-417.457	31.535	-0.164	-0.143
-416.442	-170.688	-0.253	0.009
-415.428	91.054	-0.231	-0.261
-414.413	-126.489	-0.442	-0.066
-413.398	-64.104	-0.194	-0.080
-412.384	-200.000	0.006	-0.053
-411.369	-0.800	-0.165	-0.118
-410.355	278.598	0.015	-0.027
-409.340	-143.196	0.220	0.021
-408.325	-2.025	-0.179	-0.127
-407.311	-81.712	0.107	-0.036
-406.296	54.386	0.126	-0.122
-405.282	800.000	0.084	-0.249
-404.267	-200.000	0.011	0.290
-403.252	-146.295	-0.202	0.018
-402.238	-5.185	-0.114	0.079
-401.223	-104.946	-0.266	0.062
-400.209	800.000	-0.119	-0.436
-399.194	-119.844	0.123	0.021
-398.179	18.721	-0.286	-0.231
-397.165	-147.188	0.296	-0.025
-396.150	-73.692	-0.270	0.099
-395.136	144.903	0.173	0.233
-394.121	-58.955	-0.195	-0.085
-393.106	-40.414	-0.170	0.089
-392.092	-157.370	-0.165	0.010
-391.077	454.448	-0.142	0.316
-390.063	-37.901	-0.135	-0.072
-389.048	75.327	0.175	0.186
-388.033	577.317	-0.059	-0.146
-387.019	-142.443	-0.068	0.007
-386.004	-200.000	-0.013	0.084
-384.990	-104.039	-0.267	0.063
-383.975	-200.000	-0.001	0.065
-382.960	196.987	0.141	-0.216
-381.946	135.648	0.226	-0.296
-380.931	29.938	0.220	-0.189
-379.917	-1.345	0.162	-0.115
-378.902	-80.093	-0.166	0.056
-377.888	-200.000	0.000	0.105
-376.873	539.923	0.106	0.254
-375.858	-200.000	-0.029	0.138
-374.844	800.000	0.068	-0.212
-373.829	105.316	-0.187	0.222
-372.815	-54.202	-0.305	0.139
-371.800	40.014	0.099	-0.089
-370.785	-121.157	-0.171	0.029
-369.771	-200.000	0.041	-0.226
-368.756	-83.100	0.201	-0.065
-367.742	800.000	-0.061	0.187
-366.727	-95.966	-0.129	-0.035
-365.712	16.526	0.249	-0.198
-364.698	-200.000	-0.006	0.140
-363.683	800.000	-0.003	0.010
-362.669	800.000	0.045	-0.187
-361.654	-75.908	0.319	0.114
-360.639	-145.522	0.221	-0.020
-359.625	800.000	-0.120	0.382
-358.610	120.092	-0.193	0.241
-357.596	-18.666	0.137	-0.086
-356.581	-78.535	0.181	-0.062
-355.566	800.000	-0.065	0.219
-354.552	-101.618	-0.323	0.079
-353.537	800.000	-0.069	-0.205
-352.523	-75.077	0.216	-0.078
-351.508	-200.000	-0.003	-0.215
-350.493	40.236	0.382	0.345
-349.479	17.987	-0.073	0.058
-348.464	179.907	-0.129	-0.190
-347.450	572.408	0.136	0.334
-346.435	32.084	0.114	0.099
-345.420	-109.087	-0.152	-0.033
-344.406	218.090	0.155	0.249
-343.391	-200.000	-0.007	0.114
-342.377	261.410	0.199	0.347
-341.362	274.946	0.047	0.083
-340.348	751.553	-0.049	0.133
-339.333	-160.832	-0.166	0.009
-338.318	-122.150	-0.129	0.021
-337.304	2.987	0.135	-0.099
-336.289	-64.821	-0.308	0.125
-335.275	-200.000	0.014	0.209
-334.260	-99.895	0.315	0.079
-333.245	-128.506	0.206	-0.029
-332.231	-200.000	0.004	0.159
-331.216	-200.000	-0.041	0.234
-330.202	37.899	-0.171	0.153
-329.187	-64.667	-0.067	-0.027
-328.172	206.243	0.128	0.201
-327.158	-25.424	-0.240	0.143
-326.143	526.887	-0.058	0.136
-325.129	-138.150	0.160	-0.018
-324.114	800.000	0.090	0.330
-323.099	-146.397	0.185	0.016
-322.085	-142.673	-0.381	0.037
-321.070	-41.116	-0.267	-0.139
-320.056	-200.000	-0.001	0.427
-319.041	247.199	-0.061	0.104
-318.026	-107.709	0.241	0.053
-317.012	-200.000	-0.028	0.229
-315.997	275.579	0.091	0.162
-314.983	-200.000	-0.031	0.369
-313.968	800.000	-0.168	-0.565
-312.953	-200.000	-0.003	-0.330
-311.939	-109.493	0.397	-0.084
-310.924	42.906	0.113	-0.104
-309.910	-162.953	0.249	-0.012
-308.895	-200.000	-0.035	-0.157
-307.880	-102.492	0.194	-0.047
-306.866	-68.364	0.064	0.025
-305.851	273.548	0.134	-0.238
-304.837	-105.782	-0.172	-0.039
-303.822	-90.360	-0.090	0.026
-302.807	-94.277	-0.090	0.025
-301.793	800.000	0.161	0.501
-300.778	-6.108	0.192	0.131
-299.764	-48.704	0.319	-0.154
-298.749	-104.396	-0.097	0.023
-297.735	157.945	-0.156	0.217
-296.720	800.000	0.077	-0.272
-295.705	208.027	-0.066	-0.104
-294.691	-200.000	-0.012	-0.145
-293.676	-159.735	0.066	-0.004
-292.662	34.756	-0.183	0.160
-291.647	-44.654	0.200	-0.100
-290.632	800.000	0.107	-0.463
-289.618	800.000	0.029	0.111
-288.603	-200.000	-0.020	0.308
-287.589	-47.952	0.260	0.126
-286.574	61.762	0.108	0.108
-285.559	800.000	-0.147	0.498
-284.545	286.798	0.129	0.234
-283.530	-109.267	-0.122	-0.026
-282.516	-75.813	0.171	0.061
-281.501	17.131	-0.049	0.039
-280.486	-71.170	0.244	-0.092
-279.472	-75.789	0.096	-0.034
-278.457	-41.562	-0.079	0.041
-277.443	459.476	-0.139	0.311
-276.428	-96.275	-0.295	0.078
-275.413	-200.000	0.006	-0.440
-274.399	-27.016	0.262	0.153
-273.384	-64.605	-0.114	-0.046
-272.370	280.788	0.107	-0.192
-271.355	20.445	-0.191	0.155
-270.340	-37.342	-0.078	-0.042
-269.326	-190.581	0.044	0.000
-268.311	-55.224	0.226	-0.102
-267.297	-200.000	0.019	-0.145
-266.282	-78.174	0.347	-0.120
-265.267	-200.000	-0.004	-0.159
-264.253	69.440	-0.168	0.173
-263.238	89.753	-0.224	-0.251
-262.224	161.253	0.208	0.292
-261.209	104.653	0.232	0.275
-260.195	-200.000	-0.006	0.208
-259.180	800.000	-0.051	-0.141
-258.165	-52.988	0.208	-0.096
-257.151	-16.419	-0.169	-0.107
-256.136	253.565	-0.121	-0.207
-255.122	172.579	-0.143	0.207
-254.107	323.679	-0.031	0.060
-253.092	109.998	0.219	0.263
-252.078	26.723	0.197	0.165
-251.063	-76.052	0.155	-0.055
-250.049	-91.048	0.194	-0.056
-249.034	-59.262	0.056	-0.024
-248.019	-102.378	-0.103	-0.025
-247.005	462.168	-0.072	-0.161
-245.990	-200.000	-0.055	0.368
-244.976	662.352	0.081	0.209
-243.961	491.136	0.152	0.348
-242.946	-200.000	0.019	0.117
-241.932	-200.000	0.014	-0.231
-240.917	-12.540	0.171	0.112
-239.903	-134.075	-0.397	0.049
-238.888	-200.000	-0.039	-0.225
-237.873	220.474	-0.100	-0.161
-236.859	104.666	-0.043	-0.050
-235.844	-67.671	-0.163	-0.064
-234.830	19.722	0.067	0.054
-233.815	258.190	-0.278	0.479
-232.800	-120.909	0.226	0.038
-231.786	43.775	-0.201	0.184
-230.771	800.000	-0.117	0.366
-229.757	727.462	0.016	-0.044
-228.742	-200.000	-0.025	0.187
-227.727	15.077	0.143	0.112
-226.713	-160.572	0.325	0.017
-225.698	111.201	0.219	0.264
-224.684	54.937	-0.184	-0.178
-223.669	151.956	-0.169	-0.231
-222.655	261.588	0.039	0.068
-221.640	-63.455	0.105	0.043
-220.625	-16.770	-0.184	-0.116
-219.611	-120.239	-0.350	-0.060
-218.596	-62.660	-0.287	-0.119
-217.582	-62.165	0.179	0.075
-216.567	-91.540	0.202	0.058
-215.552	-82.854	0.257	-0.083
-214.538	10.781	0.074	-0.056
-213.523	-63.979	0.151	-0.062
-212.509	-200.000	0.038	-0.337
-211.494	-200.000	-0.034	0.242
-210.479	198.861	0.103	-0.157
-209.465	271.859	-0.154	0.271
-208.450	266.292	0.151	0.264
-207.436	236.538	0.029	-0.048
-206.421	-142.037	0.139	0.014
-205.406	375.332	0.055	-0.112
-204.392	-200.000	-0.000	-0.077
-203.377	-40.723	-0.352	-0.182
-202.363	-166.913	-0.319	0.013
-201.348	800.000	-0.093	0.358
-200.333	5.957	-0.115	-0.085
-199.319	11.255	0.110	-0.084
-198.304	570.610	-0.062	0.150
-197.290	-200.000	0.001	0.009
-196.275	-7.115	0.218	0.148
-195.260	455.219	0.134	-0.296
-194.246	506.726	-0.083	-0.193
-193.231	304.409	-0.056	0.104
-192.217	575.755	-0.070	0.171
-191.202	-200.000	0.018	0.237
-190.187	-200.000	0.012	0.057
-189.173	699.762	0.127	0.335
-188.158	647.949	-0.147	0.375
-187.144	800.000	-0.077	0.262
-186.129	52.540	-0.221	0.211
-185.114	800.000	0.023	-0.093
-184.100	-112.540	-0.382	0.076
-183.085	106.357	-0.036	-0.043
-182.071	-200.000	-0.018	-0.311
-181.056	-92.886	0.115	-0.032
-180.042	800.000	-0.047	-0.131
-179.027	-183.126	-0.180	-0.003
-178.012	100.320	0.242	-0.281
-176.998	-70.533	0.369	-0.140
-175.983	32.557	0.275	-0.238
-174.969	800.000	0.058	-0.230
-173.954	800.000	-0.015	0.042
-172.939	-122.661	0.206	0.033
-171.925	-76.165	-0.138	0.049
-170.910	-37.712	0.102	0.054
-169.896	95.758	0.085	-0.097
-168.881	28.970	0.246	-0.208
-167.866	130.598	-0.038	0.049
-166.852	673.952	-0.111	0.288
-165.837	-184.643	-0.127	-0.002
-164.823	154.381	-0.106	0.146
-163.808	-72.611	-0.027	0.010
-162.793	56.636	-0.225	0.218
-161.779	124.714	-0.140	0.176
-160.764	161.768	-0.175	0.244
-159.750	62.311	0.101	-0.101
-158.735	-82.736	-0.118	-0.038
-157.720	-200.000	0.019	-0.158
-156.706	-113.142	-0.174	0.034
-155.691	800.000	0.015	-0.058
-154.677	92.386	-0.181	-0.204
-153.662	-200.000	0.016	-0.354
-152.647	-63.034	0.220	0.091
-151.633	326.384	0.121	-0.232
-150.618	-64.497	0.174	0.071
-149.604	-6.705	-0.229	0.155
-148.589	169.558	0.264	0.376
-147.574	-20.241	-0.200	-0.123
-146.560	41.816	-0.281	-0.255
-145.545	-83.779	0.277	-0.088
-144.531	-150.300	-0.203	0.016
-143.516	48.012	-0.064	-0.060
-142.502	185.601	-0.119	0.176
-141.487	800.000	-0.066	0.202
-140.472	-130.340	0.075	0.010
-139.458	-154.329	0.126	0.008
-138.443	-171.271	0.219	-0.007
-137.429	12.545	0.092	0.071
-136.414	-45.362	0.205	0.101
-135.399	-108.911	-0.218	0.046
-134.385	207.576	0.145	-0.226
-133.370	360.200	0.032	0.063
-132.356	-33.111	0.261	0.144
-131.341	-132.199	-0.243	0.031
-130.326	124.174	0.075	0.094
-129.312	28.711	0.294	-0.248
-128.297	-109.133	0.288	0.061
-127.283	462.869	-0.063	-0.141
-126.268	-68.665	-0.165	-0.064
-125.253	648.267	0.032	-0.082
-124.239	-47.999	0.317	0.153
-123.224	-200.000	0.001	0.243
-122.210	800.000	0.027	-0.088
-121.195	577.075	-0.064	-0.155
-120.180	800.000	-0.018	0.059
-119.166	-63.215	0.181	0.074
-118.151	-55.322	-0.237	-0.106
-117.137	-94.782	-0.197	0.053
-116.122	-200.000	0.048	-0.510
-115.107	-200.000	-0.078	-0.506
-114.093	24.525	0.324	-0.267
-113.078	154.015	-0.056	-0.077
-112.064	157.449	0.015	0.020
-111.049	64.380	0.083	0.084
-110.034	262.370	0.165	0.285
-109.020	210.850	0.180	0.282
-108.005	137.748	-0.221	0.289
-106.991	316.877	-0.064	-0.120
-105.976	14.704	-0.074	-0.058
-104.962	800.000	0.025	-0.100
-103.947	575.194	-0.083	0.201
-102.932	-200.000	0.008	0.057
-101.918	800.000	0.009	0.026
-100.903	33.733	0.147	0.128
-99.889	296.982	0.159	-0.291
-98.874	800.000	0.066	0.204
-97.859	-179.151	0.370	0.008
-96.845	-33.480	-0.058	0.032
-95.830	161.533	0.229	-0.320
-94.816	369.884	0.025	-0.050
-93.801	-132.345	0.035	-0.005
-92.786	800.000	0.044	0.145
-91.772	-104.727	-0.288	-0.066
-90.757	263.392	0.137	-0.237
-89.743	-94.940	0.199	-0.054
-88.728	478.350	0.038	-0.085
-87.713	-200.000	-0.013	0.101
-86.699	-172.304	-0.187	0.006
-85.684	71.354	-0.135	0.140
-84.670	1.600	0.091	-0.065
-83.655	29.925	-0.163	-0.138
-82.640	-200.000	-0.022	-0.490
-81.626	81.414	-0.077	-0.082
-80.611	-54.877	-0.247	0.111
-79.597	-3.112	0.193	0.134
-78.582	-67.227	0.182	-0.071
-77.567	521.022	-0.063	0.148
-76.553	544.556	-0.083	0.198
-75.538	800.000	0.012	0.046
-74.524	-200.000	-0.001	-0.045
-73.509	-120.611	0.167	-0.028
-72.494	398.152	0.142	-0.296
-71.480	376.205	0.094	-0.191
-70.465	-180.425	-0.044	0.001
-69.451	160.904	0.149	0.207
-68.436	-86.388	-0.433	0.133
-67.422	-7.185	0.251	-0.169
-66.407	749.290	-0.079	-0.213
-65.392	13.929	-0.197	0.153
-64.378	22.943	-0.297	-0.242
-63.363	-67.233	0.097	-0.038
-62.349	311.743	0.119	-0.221
-61.334	80.423	-0.611	-0.654
-60.319	800.000	0.120	0.353
-59.305	-200.000	-0.168	-0.750
-58.290	291.233	0.392	0.709
-57.276	800.000	0.434	1.593
-56.261	-200.000	95.970	566.552
-55.246	636.181	1380.418	3485.724
-54.232	183.988	2606.070	3835.499
-53.217	112.769	2339.759	2818.328
-52.203	41.513	2087.616	1879.313
-51.188	36.442	2000.070	1754.518
-50.173	34.867	1982.485	1724.826
-49.159	49.018	2033.497	1898.863
-48.144	52.237	2053.147	1946.574
-47.130	37.284	2010.018	1770.647
-46.115	34.799	1998.534	1737.892
-45.100	34.675	1995.777	1734.299
-44.086	34.604	1993.698	1731.785
-43.071	34.559	1990.926	1728.895
-42.057	34.601	1988.655	1727.236
-41.042	34.565	1986.748	1725.184
-40.027	34.599	1984.762	1723.704
-39.013	34.682	1982.381	1722.313
-37.998	34.680	1980.543	1720.629
-36.984	34.590	1979.388	1718.745
-35.969	34.645	1977.042	1717.139
-34.954	34.723	1974.806	1715.828
-33.940	34.701	1973.367	1714.312
-32.925	34.731	1972.419	1713.689
-31.911	34.739	1970.684	1712.189
-30.896	34.795	1968.495	1710.721
-29.881	34.756	1967.190	1709.164
-28.867	34.815	1965.338	1708.021
-27.852	34.847	1963.541	1706.676
-26.838	34.813	1961.637	1704.646
-25.823	34.794	1960.138	1703.107
-24.809	34.707	1958.856	1701.154
-23.794	34.667	1957.291	1699.369
-22.779	34.691	1955.208	1697.710
-21.765	34.770	1953.140	1696.541
-20.750	34.767	1951.251	1694.811
-19.736	34.861	1950.042	1694.528
-18.721	34.911	1948.213	1693.314
-17.706	34.785	1946.997	1691.071
-16.692	34.795	1945.058	1689.412
-15.677	34.781	1943.414	1687.791
-14.663	34.842	1941.941	1686.988
-13.648	34.869	1940.772	1686.138
-12.633	34.816	1939.715	1684.690
-11.619	34.807	1938.123	1683.156
-10.604	34.704	1937.458	1681.609
-9.590	34.624	1935.818	1679.409
-8.575	34.717	1934.275	1678.828
-7.560	34.768	1933.001	1678.097
-6.546	34.772	1931.778	1677.004
-5.531	34.792	1930.208	1675.758
-4.517	34.817	1928.770	1674.656
-3.502	34.833	1927.700	1673.800
-2.487	34.786	1926.876	1672.607
-1.473	34.718	1926.250	1671.407
-0.458	34.840	1922.012	1668.727
0.556	37.743	1901.991	1643.801
1.571	33.425	1882.931	1591.012
2.586	28.836	1903.780	1569.406
3.600	27.058	1938.055	1582.055
4.615	25.532	1931.807	1563.552
5.629	19.693	1830.195	1432.914
6.644	10.116	1710.168	1264.282
7.659	5.156	1671.258	1197.436
8.673	4.843	1667.394	1192.159
9.688	4.802	1666.176	1190.870
10.702	4.828	1665.108	1190.200
11.717	4.878	1662.358	1188.514
12.731	5.528	1662.320	1193.342
13.746	12.103	1677.547	1254.609
14.761	20.248	1694.861	1330.163
15.775	22.941	1697.624	1352.859
16.790	22.325	1696.628	1347.233
17.804	21.353	1693.360	1337.089
18.819	20.423	1689.660	1326.944
19.834	19.775	1687.122	1319.892
20.848	19.442	1686.270	1316.569
21.863	19.355	1684.895	1314.716
22.877	19.248	1683.452	1312.655
23.892	19.043	1681.980	1309.835
24.907	19.045	1680.265	1308.396
25.921	18.893	1680.114	1307.006
26.936	18.946	1678.838	1306.301
27.950	18.923	1677.746	1305.158
28.965	18.989	1677.629	1305.452
29.980	19.005	1676.669	1304.715
30.994	19.175	1675.738	1305.165
32.009	19.245	1674.751	1304.809
33.023	19.317	1673.369	1304.162
34.038	19.312	1672.818	1303.580
35.053	19.289	1671.427	1302.203
36.067	19.148	1670.273	1300.124
37.082	19.112	1669.340	1299.016
38.096	19.172	1667.962	1298.280
39.111	19.182	1667.354	1297.765
40.126	19.227	1666.328	1297.189
41.140	19.263	1665.904	1297.020
42.155	18.904	1664.781	1293.325
43.169	18.825	1662.550	1290.887
44.184	18.777	1661.180	1289.351
45.199	18.653	1660.307	1287.625
46.213	18.769	1659.063	1287.419
47.228	18.806	1658.189	1286.901
48.242	18.959	1656.497	1286.618
49.257	19.144	1656.092	1287.576
50.271	19.046	1655.183	1286.024
51.286	19.035	1654.029	1284.928
52.301	19.039	1652.449	1283.621
53.315	19.037	1651.301	1282.600
54.330	19.004	1649.443	1280.795
55.344	18.971	1647.178	1278.680
56.359	18.824	1646.517	1276.960
57.374	18.821	1645.353	1275.919
58.388	18.824	1644.073	1274.838
59.403	18.688	1642.743	1272.689
60.417	18.635	1641.381	1271.123
61.432	18.691	1640.403	1270.672
62.447	18.633	1639.295	1269.271
63.461	18.644	1637.858	1268.127
64.476	18.502	1636.793	1266.137
65.490	18.465	1635.579	1264.818
66.505	18.552	1633.698	1263.894
67.520	18.437	1632.867	1262.291
68.534	18.541	1632.351	1262.546
69.549	18.619	1631.307	1262.201
70.563	18.564	1630.574	1261.114
71.578	18.562	1629.068	1259.823
72.593	18.470	1628.016	1258.222
73.607	18.345	1627.017	1256.426
74.622	18.358	1625.841	1255.501
75.636	18.294	1625.261	1254.471
76.651	18.314	1624.162	1253.660
77.666	18.446	1623.257	1253.813
78.680	18.451	1622.285	1252.992
79.695	18.505	1621.549	1252.707
80.709	18.526	1621.220	1252.495
81.724	18.671	1620.507	1252.893
82.739	18.690	1619.765	1252.342
83.753	18.802	1619.011	1252.471
84.768	18.865	1618.159	1252.157
85.782	19.102	1616.967	1252.852
86.797	19.229	1616.467	1253.275
87.812	19.186	1615.978	1252.472
88.826	19.178	1614.573	1251.215
89.841	19.036	1613.744	1249.428
90.855	19.065	1612.376	1248.472
91.870	19.126	1611.544	1248.158
92.884	19.141	1610.717	1247.513
93.899	19.257	1609.909	1247.622
94.914	19.283	1608.543	1246.639
95.928	19.367	1607.058	1245.984
96.943	19.238	1606.339	1244.386
97.957	19.328	1604.410	1243.430
98.972	19.261	1602.832	1241.616
99.987	19.158	1601.748	1239.926
101.001	19.178	1599.858	1238.494
102.016	19.253	1598.264	1237.689
103.030	19.186	1597.394	1236.426
104.045	19.210	1595.973	1235.385
105.060	19.206	1594.801	1234.341
106.074	19.097	1593.482	1232.430
107.089	18.908	1591.907	1229.755
108.103	18.653	1589.665	1226.090
109.118	18.463	1588.546	1223.763
110.133	18.562	1586.473	1222.761
111.147	18.593	1584.874	1221.642
112.162	18.613	1583.981	1220.988
113.176	18.586	1582.598	1219.623
114.191	18.636	1581.482	1219.011
115.206	18.794	1580.418	1219.206
116.220	18.783	1579.058	1217.966
117.235	18.670	1578.039	1216.273
118.249	18.684	1576.444	1215.040
119.264	18.676	1574.993	1213.753
120.279	18.610	1573.796	1212.260
121.293	18.565	1571.995	1210.444
122.308	18.610	1570.416	1209.438
123.322	18.468	1569.022	1207.259
124.337	18.379	1567.290	1205.194
125.352	18.392	1566.109	1204.272
126.366	18.227	1565.515	1202.545
127.381	18.347	1564.127	1202.215
128.395	18.335	1562.847	1201.045
129.410	18.323	1562.169	1200.333
130.424	18.310	1560.474	1198.834
131.439	18.471	1558.876	1198.622
132.454	18.470	1557.853	1197.728
133.468	18.582	1556.834	1197.618
134.483	18.693	1554.713	1196.656
135.497	18.689	1553.832	1195.845
136.512	18.767	1552.729	1195.429
137.527	18.818	1551.069	1194.405
138.541	18.704	1549.815	1192.537
139.556	18.870	1548.018	1192.203
140.570	18.909	1547.324	1191.835
141.585	18.927	1546.321	1191.081
142.600	19.001	1545.111	1190.554
143.614	19.128	1544.155	1190.593
144.629	19.177	1543.031	1189.954
145.643	19.281	1541.614	1189.474
146.658	19.337	1540.059	1188.559
147.673	19.348	1538.114	1187.030
148.687	19.144	1536.846	1184.540
149.702	18.988	1535.648	1182.440
150.716	18.882	1534.014	1180.349
151.731	18.778	1532.395	1178.288
152.746	18.824	1531.150	1177.540
153.760	18.874	1529.593	1176.578
154.775	18.888	1528.621	1175.822
155.789	19.009	1527.094	1175.371
156.804	18.958	1526.929	1174.796
157.819	19.021	1525.334	1173.893
158.833	19.121	1524.167	1173.570
159.848	19.132	1523.413	1172.959
160.862	19.221	1522.786	1172.981
161.877	19.311	1521.068	1172.165
162.892	19.171	1519.954	1170.251
163.906	19.006	1518.023	1167.543
164.921	18.917	1516.360	1165.556
165.935	18.819	1515.758	1164.327
166.950	18.949	1514.481	1164.123
167.964	19.029	1513.377	1163.715
168.979	19.159	1512.189	1163.577
169.994	19.011	1511.385	1161.853
171.008	18.878	1511.000	1160.555
172.023	19.013	1509.296	1160.054
173.037	19.041	1508.832	1159.783
174.052	19.147	1507.879	1159.667
175.067	19.272	1506.476	1159.326
176.081	19.189	1505.129	1157.626
177.096	18.948	1503.604	1154.732
178.110	18.923	1502.250	1153.422
179.125	18.881	1500.807	1151.934
180.140	19.027	1499.555	1151.847
181.154	18.960	1499.585	1151.318
182.169	19.149	1498.234	1151.442
183.183	19.147	1497.227	1150.555
184.198	19.231	1496.748	1150.643
185.213	19.360	1495.171	1150.192
186.227	19.395	1494.609	1149.890
187.242	19.267	1493.630	1148.183
188.256	19.370	1492.578	1147.962
189.271	19.456	1491.661	1147.726
190.286	19.545	1490.322	1147.187
191.300	19.402	1489.753	1145.693
192.315	19.147	1487.923	1142.497
193.329	18.777	1486.252	1138.661
194.344	18.806	1485.017	1137.801
195.359	18.966	1484.188	1138.126
196.373	19.171	1483.423	1138.796
197.388	19.195	1482.290	1137.984
198.402	19.212	1481.875	1137.679
199.417	19.363	1481.039	1137.931
200.432	19.477	1480.186	1137.924
201.446	19.650	1479.046	1138.090
202.461	19.802	1477.995	1138.178
203.475	19.827	1477.151	1137.595
204.490	19.893	1476.186	1137.180
205.504	19.715	1475.037	1135.030
206.519	19.586	1473.723	1133.068
207.534	19.468	1472.379	1131.161
208.548	19.445	1471.417	1130.170
209.563	19.376	1470.068	1128.586
210.577	19.440	1469.610	1128.553
211.592	19.478	1468.211	1127.627
212.607	19.451	1467.877	1127.097
213.621	19.691	1467.000	1127.888
214.636	19.735	1466.684	1127.835
215.650	19.690	1465.209	1126.302
216.665	19.684	1464.242	1125.423
217.680	19.730	1463.393	1124.973
218.694	19.890	1462.655	1125.343
219.709	19.989	1462.249	1125.574
220.723	19.928	1460.956	1124.086
221.738	19.824	1460.105	1122.652
222.753	19.795	1459.343	1121.782
223.767	19.705	1458.571	1120.507
224.782	19.790	1457.330	1120.004
225.796	19.886	1456.200	1119.654
226.811	19.923	1455.739	1119.440
227.826	20.071	1455.106	1119.812
228.840	19.946	1453.869	1117.957
229.855	19.724	1453.118	1115.845
230.869	19.720	1451.907	1114.794
231.884	19.689	1450.585	1113.480
232.899	19.745	1449.145	1112.637
233.913	19.768	1447.854	1111.690
234.928	19.596	1447.175	1109.970
235.942	19.443	1445.972	1107.967
236.957	19.561	1444.544	1107.529
237.972	19.449	1443.353	1105.799
238.986	19.508	1442.558	1105.469
240.001	19.510	1441.439	1104.531
241.015	19.580	1440.284	1103.991
242.030	19.607	1438.958	1103.055
243.045	19.692	1438.210	1102.922
244.059	19.724	1437.773	1102.698
245.074	19.857	1436.638	1102.576
246.088	19.947	1435.679	1102.312
247.103	19.861	1435.545	1101.566
248.117	19.877	1434.867	1101.049
249.132	20.065	1434.102	1101.561
250.147	20.111	1433.806	1101.527
251.161	20.233	1433.288	1101.809
252.176	20.551	1432.665	1103.250
253.190	20.624	1431.869	1103.000
254.205	20.586	1431.239	1102.177
255.220	20.647	1430.258	1101.713
256.234	20.642	1429.481	1100.983
257.249	20.695	1428.392	1100.386
258.263	20.648	1427.719	1099.471
259.278	20.618	1426.547	1098.280
260.293	20.647	1425.899	1097.870
261.307	20.652	1425.211	1097.276
262.322	20.747	1424.039	1096.874
263.336	20.812	1423.334	1096.642
264.351	20.813	1422.209	1095.684
265.366	20.808	1421.463	1094.982
266.380	20.843	1420.982	1094.733
267.395	20.832	1419.577	1093.484
268.409	20.862	1418.691	1092.892
269.424	20.754	1418.067	1091.642
270.439	20.655	1416.409	1089.644
271.453	20.652	1415.653	1088.948
272.468	20.620	1414.474	1087.745
273.482	20.563	1414.078	1086.987
274.497	20.495	1412.897	1085.558
275.512	20.425	1412.186	1084.481
276.526	20.489	1410.950	1083.838
277.541	20.586	1409.817	1083.473
278.555	20.546	1409.306	1082.735
279.570	20.590	1408.391	1082.211
280.585	20.681	1407.541	1082.031
281.599	20.947	1406.952	1083.129
282.614	20.894	1406.671	1082.492
283.628	20.853	1404.739	1080.653
284.643	20.710	1403.998	1079.102
285.657	20.624	1402.672	1077.452
286.672	20.619	1401.732	1076.605
287.687	20.635	1401.305	1076.279
288.701	20.669	1399.551	1075.047
289.716	20.654	1399.219	1074.608
290.730	20.654	1398.223	1073.749
291.745	20.634	1397.531	1072.999
292.760	20.763	1396.278	1072.732
293.774	20.775	1395.083	1071.798
294.789	20.838	1393.899	1071.177
295.803	20.902	1393.825	1071.418
296.818	21.029	1393.137	1071.579
297.833	20.848	1391.874	1069.400
298.847	20.659	1391.135	1067.579
299.862	20.783	1389.820	1067.235
300.876	20.817	1389.298	1066.950
301.891	20.839	1387.770	1065.813
302.906	20.935	1387.135	1065.819
303.920	21.010	1386.526	1065.719
304.935	21.051	1386.233	1065.644
305.949	21.191	1385.406	1065.771
306.964	21.297	1384.744	1065.816
307.979	21.319	1384.003	1065.281
308.993	21.262	1382.607	1063.769
310.008	21.175	1381.694	1062.444
311.022	21.157	1380.307	1061.174
312.037	21.245	1379.710	1061.153
313.052	21.161	1379.026	1060.024
314.066	21.185	1377.689	1059.047
315.081	21.137	1376.267	1057.567
316.095	20.909	1375.349	1055.390
317.110	20.837	1374.019	1053.839
318.125	20.887	1372.819	1053.126
319.139	20.899	1372.050	1052.522
320.154	20.792	1371.457	1051.321
321.168	20.923	1370.230	1051.078
322.183	20.887	1369.218	1049.996
323.197	20.863	1368.318	1049.068
324.212	21.000	1367.582	1049.233
325.227	21.060	1366.411	1048.602
326.241	21.079	1365.702	1048.080
327.256	21.045	1365.230	1047.421
328.270	21.097	1364.162	1046.819
329.285	20.969	1363.534	1045.477
330.300	20.977	1362.550	1044.678
331.314	20.962	1361.472	1043.671
332.329	20.927	1360.798	1042.852
333.343	20.950	1359.850	1042.170
334.358	21.100	1358.859	1042.216
335.373	21.172	1358.163	1042.019
336.387	21.271	1357.402	1041.937
337.402	21.262	1356.708	1041.257
338.416	21.326	1355.922	1040.939
339.431	21.274	1355.671	1040.348
340.446	21.403	1354.689	1040.269
341.460	21.541	1353.759	1040.285
342.475	21.568	1353.250	1039.964
343.489	21.720	1352.295	1040.035
344.504	21.692	1351.681	1039.308
345.519	21.781	1350.564	1038.883
346.533	21.771	1349.588	1037.984
347.548	21.833	1348.922	1037.744
348.562	21.926	1347.818	1037.351
349.577	21.857	1347.462	1036.578
350.592	21.750	1346.279	1034.949
351.606	21.529	1345.059	1032.611
352.621	21.487	1343.983	1031.447
353.635	21.395	1342.593	1029.747
354.650	21.330	1341.892	1028.736
355.665	21.368	1341.260	1028.382
356.679	21.372	1340.321	1027.599
357.694	21.445	1339.257	1027.119
358.708	21.635	1337.651	1026.913
359.723	21.646	1337.300	1026.616
360.738	21.718	1335.916	1025.882
361.752	21.754	1334.703	1025.074
362.767	21.572	1333.803	1023.224
363.781	21.554	1333.215	1022.581
364.796	21.626	1332.293	1022.203
365.810	21.763	1331.465	1022.275
366.825	21.940	1330.710	1022.637
367.840	22.015	1330.276	1022.652
368.854	22.090	1329.696	1022.549
369.869	22.151	1329.092	1022.348
370.883	22.140	1328.829	1021.991
371.898	22.142	1327.935	1021.228
372.913	21.979	1326.677	1019.220
373.927	21.973	1325.919	1018.515
374.942	21.891	1325.296	1017.471
375.956	22.053	1324.503	1017.709
376.971	22.188	1323.355	1017.518
377.986	22.065	1323.085	1016.514
379.000	22.066	1322.003	1015.597
380.015	22.186	1320.828	1015.295
381.029	22.258	1320.811	1015.608
382.044	22.334	1320.049	1015.373
383.059	22.420	1319.121	1015.066
384.073	22.252	1318.906	1013.841
385.088	22.327	1318.150	1013.604
386.102	22.260	1317.173	1012.376
387.117	22.395	1316.384	1012.458
388.132	22.245	1315.589	1010.891
389.146	22.111	1314.374	1009.102
390.161	22.039	1313.792	1008.150
391.175	22.060	1312.954	1007.540
392.190	21.997	1312.042	1006.387
393.205	22.078	1311.552	1006.388
394.219	22.199	1310.704	1006.339
395.234	22.300	1309.308	1005.759
396.248	22.196	1308.106	1004.150
397.263	22.094	1306.436	1002.196
398.278	22.223	1304.919	1001.681
399.292	22.044	1304.030	999.891
400.307	22.103	1302.795	999.189
401.321	21.927	1301.534	997.133
402.336	21.956	1300.827	996.670
403.350	21.995	1299.485	995.773
404.365	21.880	1298.795	994.509
405.380	21.994	1297.977	994.436
406.394	22.121	1297.210	994.479
407.409	22.204	1296.359	994.210
408.423	22.219	1296.146	994.044
409.438	22.292	1295.707	994.032
410.453	22.469	1294.901	994.322
411.467	22.445	1294.297	993.639
412.482	22.462	1294.013	993.428
413.496	22.614	1293.212	993.580
414.511	22.712	1292.068	993.165
415.526	22.717	1291.809	992.908
416.540	22.681	1291.244	992.181
417.555	22.790	1290.789	992.356
418.569	22.821	1290.029	991.860
419.584	22.771	1289.336	990.961
420.599	22.764	1288.115	989.890
421.613	143.540	1430.984	1787.790
422.628	138.603	1451.777	1787.896
