DTS Sentinel unit serial number:	SN413079Multiplexer serial number:	ORYXHardware model number:	OX4-SRSoftware version number:	ORYX F/W v4.00 Oryx Data Collector v3.7.2.0data status	okinstallation	princeton_trtdifferential loss correction	single-endedforward channel	channel 4reverse channel	N/Adate	2019/09/14time	21:41:35forward acquisition time	60.00reverse acquisition time	0.00gamma	496.2192k internal	0.2306k external	0.2306temperature offset calibration	1.0073default loss term (dB/km)	0.3790temperature slope calibration	1.0000multiplexer offset coefficient	1.0000multiplexer slope coefficient	1.0000fibre end	0.00T internal ref (°C)	32.80T ext. ref 1 (°C)	4.76T ext. ref 2 (°C)	27.70length (m)	temperature (°C)	Stokes	anti-Stokes-747.200	-2.500	0.061	-0.043
-746.185	190.904	-0.083	-0.127
-745.171	224.399	0.209	0.343
-744.156	-200.000	0.009	0.313
-743.142	-61.837	0.200	0.085
-742.127	-125.383	0.141	0.022
-741.112	-50.319	-0.239	-0.115
-740.098	-200.000	0.029	0.254
-739.083	-200.000	0.021	0.096
-738.069	140.708	-0.189	0.255
-737.054	-34.689	-0.317	-0.177
-736.039	-126.992	-0.343	-0.051
-735.025	7.084	0.149	0.113
-734.010	-126.157	0.046	-0.007
-732.996	-88.413	-0.149	-0.045
-731.981	-111.939	-0.357	-0.073
-730.966	-147.713	0.415	0.035
-729.952	800.000	0.079	-0.339
-728.937	-91.496	-0.351	0.102
-727.923	-105.304	0.063	0.015
-726.908	190.611	0.099	-0.152
-725.894	-97.666	-0.188	0.049
-724.879	-200.000	0.000	-0.392
-723.864	-34.164	-0.165	-0.092
-722.850	-200.000	-0.018	0.344
-721.835	-87.252	-0.401	-0.124
-720.821	-145.870	-0.191	-0.017
-719.806	-78.229	-0.214	-0.075
-718.791	-200.000	0.063	-0.361
-717.777	-200.000	0.017	0.229
-716.762	-59.988	0.184	-0.080
-715.748	800.000	0.049	-0.157
-714.733	-79.251	-0.094	-0.032
-713.718	42.799	-0.114	-0.105
-712.704	103.372	0.128	0.152
-711.689	800.000	0.035	-0.128
-710.675	-200.000	0.021	-0.176
-709.660	-200.000	-0.016	0.293
-708.645	800.000	-0.114	-0.378
-707.631	-9.150	0.101	0.069
-706.616	99.884	-0.212	-0.250
-705.602	-120.126	0.117	0.020
-704.587	-56.674	0.363	0.163
-703.572	-43.312	-0.349	0.179
-702.558	-156.286	0.081	0.005
-701.543	-123.715	0.323	-0.052
-700.529	-76.477	-0.266	-0.095
-699.514	800.000	-0.070	0.214
-698.499	-157.464	-0.124	-0.008
-697.485	0.969	0.150	0.109
-696.470	800.000	-0.047	0.143
-695.456	-55.289	-0.129	-0.059
-694.441	227.505	0.115	0.191
-693.426	12.798	0.105	0.083
-692.412	-23.307	0.204	-0.124
-691.397	-122.965	-0.170	0.028
-690.383	-200.000	-0.024	-0.138
-689.368	-136.674	-0.147	-0.017
-688.354	-93.881	0.498	0.139
-687.339	284.278	-0.086	-0.158
-686.324	145.928	-0.127	0.173
-685.310	-63.433	0.091	-0.038
-684.295	-200.000	0.001	0.231
-683.281	597.082	0.068	0.172
-682.266	70.385	0.164	0.172
-681.251	800.000	0.029	-0.085
-680.237	-200.000	0.020	0.186
-679.222	-200.000	-0.012	-0.263
-678.208	-74.302	0.152	0.056
-677.193	151.446	0.083	0.115
-676.178	310.905	0.047	0.089
-675.164	-149.642	0.310	-0.025
-674.149	-200.000	-0.037	-0.171
-673.135	43.744	0.081	0.076
-672.120	-114.829	-0.088	-0.017
-671.105	175.049	-0.132	-0.195
-670.091	78.137	0.256	-0.278
-669.076	800.000	0.040	-0.118
-668.062	-81.681	-0.242	0.080
-667.047	-126.799	0.230	0.034
-666.032	339.905	0.201	0.398
-665.018	27.818	0.042	0.036
-664.003	-23.999	0.215	0.130
-662.989	-146.683	-0.119	0.010
-661.974	224.664	0.088	0.145
-660.959	-6.369	-0.250	-0.173
-659.945	-129.450	0.141	-0.020
-658.930	-67.627	0.169	0.067
-657.916	224.695	-0.100	-0.164
-656.901	800.000	0.097	0.312
-655.886	-200.000	-0.016	-0.265
-654.872	-113.600	0.426	-0.084
-653.857	-150.267	0.199	-0.016
-652.843	-21.133	0.220	-0.137
-651.828	-200.000	-0.039	0.292
-650.814	800.000	-0.049	-0.200
-649.799	-58.520	-0.267	0.117
-648.784	54.111	0.179	0.174
-647.770	800.000	0.096	-0.303
-646.755	-200.000	-0.026	-0.249
-645.741	-54.684	0.151	0.069
-644.726	-200.000	0.016	-0.165
-643.711	-88.082	-0.144	0.044
-642.697	-88.215	-0.315	-0.096
-641.682	630.423	-0.115	-0.295
-640.668	123.999	0.027	-0.034
-639.653	580.769	-0.104	-0.258
-638.638	-200.000	-0.028	0.255
-637.624	141.489	-0.119	0.159
-636.609	-53.722	-0.251	-0.116
-635.595	-200.000	0.040	-0.193
-634.580	681.604	-0.092	0.242
-633.565	51.770	0.055	-0.053
-632.551	272.165	-0.052	-0.093
-631.536	-200.000	0.019	-0.161
-630.522	-70.380	0.173	-0.066
-629.507	-115.319	-0.087	0.017
-628.492	-200.000	-0.008	-0.043
-627.478	800.000	0.074	0.323
-626.463	19.743	-0.069	-0.056
-625.449	-127.435	0.053	-0.008
-624.434	-146.276	-0.223	-0.020
-623.419	104.255	0.047	0.056
-622.405	-200.000	-0.021	0.263
-621.390	-200.000	0.059	-0.327
-620.376	559.226	0.051	-0.124
-619.361	-57.767	-0.151	0.067
-618.346	116.565	-0.034	0.042
-617.332	-126.003	0.224	0.034
-616.317	800.000	-0.067	-0.200
-615.303	425.344	-0.128	0.278
-614.288	-10.779	0.165	-0.110
-613.273	-131.344	-0.093	-0.012
-612.259	74.846	0.173	-0.184
-611.244	-29.761	0.268	-0.155
-610.230	212.555	0.234	-0.373
-609.215	-76.156	-0.326	-0.116
-608.201	-26.635	-0.229	0.135
-607.186	5.555	-0.090	0.067
-606.171	-200.000	0.022	-0.161
-605.157	136.403	0.043	-0.057
-604.142	15.424	0.196	0.156
-603.128	55.731	0.278	-0.272
-602.113	-170.662	-0.456	0.016
-601.098	-95.264	-0.429	-0.117
-600.084	-200.000	-0.007	0.044
-599.069	-149.528	0.245	-0.020
-598.055	-39.659	-0.225	0.119
-597.040	2.328	-0.161	0.118
-596.025	-200.000	-0.035	0.245
-595.011	340.738	0.047	-0.093
-593.996	-2.555	0.099	0.070
-592.982	328.233	0.148	-0.287
-591.967	-77.692	0.179	0.063
-590.952	-7.287	0.262	-0.180
-589.938	96.461	-0.227	-0.263
-588.923	-200.000	0.041	0.307
-587.909	365.626	0.091	0.186
-586.894	-200.000	-0.008	-0.169
-585.879	252.973	0.097	-0.168
-584.865	-4.865	0.272	-0.190
-583.850	-24.932	-0.185	0.111
-582.836	117.494	0.255	0.317
-581.821	-101.056	-0.079	0.020
-580.806	-59.540	-0.195	0.085
-579.792	-37.296	-0.160	0.087
-578.777	122.884	-0.102	-0.129
-577.763	-34.083	-0.231	0.129
-576.748	-0.414	0.082	0.059
-575.733	-200.000	-0.075	-0.474
-574.719	73.954	-0.220	0.233
-573.704	68.851	-0.216	-0.224
-572.690	757.343	-0.025	0.068
-571.675	-200.000	-0.032	-0.258
-570.661	800.000	-0.078	-0.229
-569.646	169.502	-0.097	0.140
-568.631	-200.000	0.027	-0.282
-567.617	-47.810	-0.141	0.069
-566.602	-60.201	0.365	-0.157
-565.588	57.849	0.162	-0.160
-564.573	-11.800	0.200	0.133
-563.558	47.734	-0.080	-0.076
-562.544	800.000	0.017	-0.052
-561.529	-31.771	0.471	-0.267
-560.515	-200.000	0.040	0.250
-559.500	28.759	-0.137	0.117
-558.485	-54.889	0.094	0.043
-557.471	-200.000	0.066	-0.322
-556.456	-153.222	0.351	-0.025
-555.442	201.399	0.101	-0.157
-554.427	-86.192	-0.292	0.091
-553.412	355.255	-0.185	0.372
-552.398	-115.678	-0.113	0.021
-551.383	252.999	0.210	-0.362
-550.369	-143.209	-0.104	-0.010
-549.354	-63.341	0.679	0.282
-548.339	4.100	-0.170	-0.125
-547.325	800.000	-0.047	0.155
-546.310	-96.802	-0.341	0.090
-545.296	-200.000	0.003	0.158
-544.281	105.130	-0.061	0.072
-543.266	-158.214	0.335	-0.020
-542.252	-144.440	0.497	0.047
-541.237	138.295	0.247	0.327
-540.223	93.674	-0.123	0.141
-539.208	291.181	-0.070	-0.128
-538.193	37.038	0.206	-0.184
-537.179	800.000	-0.076	0.264
-536.164	800.000	-0.151	-0.503
-535.150	800.000	-0.073	0.226
-534.135	-200.000	-0.024	-0.120
-533.121	-73.783	0.275	-0.101
-532.106	459.002	0.081	0.183
-531.091	-200.000	-0.039	0.186
-530.077	282.510	-0.208	0.377
-529.062	406.998	0.124	0.265
-528.048	75.872	-0.111	-0.118
-527.033	-200.000	-0.010	0.140
-526.018	-49.982	0.247	-0.118
-525.004	694.261	0.130	-0.343
-523.989	-200.000	-0.015	0.111
-522.975	-200.000	0.003	0.212
-521.960	-144.840	0.212	-0.020
-520.945	-189.187	0.342	0.004
-519.931	505.229	-0.088	-0.207
-518.916	-2.715	0.275	0.194
-517.902	-62.253	0.411	0.173
-516.887	-137.315	0.294	-0.034
-515.872	108.699	0.116	-0.140
-514.858	800.000	-0.099	-0.281
-513.843	-200.000	-0.017	0.088
-512.829	-67.245	0.357	0.142
-511.814	27.824	0.178	0.151
-510.799	800.000	-0.053	-0.169
-509.785	-200.000	-0.029	-0.599
-508.770	-164.902	-0.208	-0.009
-507.756	-41.447	0.196	0.102
-506.741	-200.000	0.011	0.067
-505.726	-136.104	-0.069	0.008
-504.712	-200.000	0.010	-0.082
-503.697	721.271	-0.153	-0.410
-502.683	-125.802	0.352	0.054
-501.668	552.181	-0.084	0.202
-500.653	481.915	-0.138	0.316
-499.639	83.381	-0.226	0.248
-498.624	800.000	0.118	0.354
-497.610	-92.842	0.087	-0.024
-496.595	59.489	-0.013	0.013
-495.581	800.000	-0.031	-0.105
-494.566	-200.000	-0.002	0.099
-493.551	-200.000	0.015	0.160
-492.537	-80.809	-0.363	-0.122
-491.522	-200.000	0.024	-0.268
-490.508	52.389	0.063	-0.060
-489.493	-200.000	-0.042	-0.243
-488.478	-90.894	0.099	-0.029
-487.464	-200.000	0.007	-0.134
-486.449	-126.754	-0.093	0.014
-485.435	97.429	-0.128	-0.148
-484.420	25.179	-0.183	-0.153
-483.405	-88.791	-0.167	0.050
-482.391	469.433	0.076	0.173
-481.376	697.015	0.057	-0.150
-480.362	247.280	0.045	0.077
-479.347	-21.787	-0.141	-0.087
-478.332	-200.000	0.010	0.045
-477.318	-19.718	0.110	0.068
-476.303	-47.497	0.187	-0.092
-475.289	-2.204	-0.221	0.156
-474.274	-200.000	-0.044	0.290
-473.259	-200.000	-0.026	0.386
-472.245	-47.550	0.182	-0.089
-471.230	26.982	0.370	-0.312
-470.216	67.175	0.195	-0.200
-469.201	-84.852	0.203	0.064
-468.186	-63.974	0.110	-0.045
-467.172	800.000	0.095	-0.401
-466.157	-200.000	-0.067	0.359
-465.143	237.835	-0.035	0.059
-464.128	-99.584	-0.031	0.008
-463.113	-121.841	-0.113	-0.019
-462.099	-200.000	0.007	0.088
-461.084	235.337	-0.179	-0.297
-460.070	692.876	-0.051	0.135
-459.055	800.000	0.046	0.158
-458.040	800.000	0.138	0.518
-457.026	2.039	0.253	0.184
-456.011	-181.626	-0.193	-0.004
-454.997	-200.000	0.032	0.332
-453.982	-18.270	-0.241	0.152
-452.968	-78.477	-0.292	0.100
-451.953	-41.528	-0.404	-0.209
-450.938	-200.000	0.008	-0.219
-449.924	-80.462	0.364	0.122
-448.909	609.061	0.118	-0.296
-447.895	26.112	-0.226	-0.190
-446.880	-120.015	-0.029	-0.005
-445.865	313.111	-0.259	-0.490
-444.851	-79.908	-0.260	-0.088
-443.836	-138.007	0.142	0.016
-442.822	2.059	0.134	-0.098
-441.807	-200.000	0.029	0.192
-440.792	396.877	-0.080	-0.168
-439.778	-17.999	-0.413	0.260
-438.763	-51.026	0.318	-0.150
-437.749	676.973	0.066	-0.173
-436.734	-18.361	0.022	-0.014
-435.719	258.497	0.121	0.210
-434.705	411.042	0.057	0.121
-433.690	-109.139	0.047	-0.010
-432.676	173.017	-0.133	0.192
-431.661	-200.000	-0.004	0.315
-430.646	-8.706	0.248	-0.167
-429.632	72.936	-0.076	0.079
-428.617	-66.537	0.173	-0.069
-427.603	99.303	0.192	-0.223
-426.588	-200.000	-0.031	0.175
-425.573	395.678	-0.195	0.409
-424.559	-117.364	0.146	0.026
-423.544	-159.179	-0.119	-0.007
-422.530	186.657	-0.210	0.314
-421.515	-200.000	0.022	0.158
-420.500	-200.000	0.006	0.347
-419.486	-184.249	0.131	0.002
-418.471	151.770	0.056	-0.076
-417.457	491.053	0.108	-0.248
-416.442	-18.521	0.088	0.055
-415.428	798.539	0.110	0.305
-414.413	147.072	0.164	-0.222
-413.398	236.408	0.071	0.118
-412.384	-200.000	0.004	-0.100
-411.369	72.251	0.131	-0.137
-410.355	83.853	0.083	-0.091
-409.340	-114.797	-0.151	-0.029
-408.325	158.144	0.087	0.121
-407.311	-69.970	-0.118	0.045
-406.296	-58.806	-0.054	0.024
-405.282	176.009	0.223	0.325
-404.267	-200.000	-0.002	-0.146
-403.252	-200.000	-0.021	-0.244
-402.238	144.927	-0.038	-0.052
-401.223	-104.322	-0.074	0.017
-400.209	-140.572	-0.327	0.034
-399.194	-87.867	0.212	-0.064
-398.179	60.354	0.084	0.084
-397.165	-120.676	0.090	-0.015
-396.150	-75.109	0.100	-0.036
-395.136	800.000	-0.128	0.371
-394.121	103.592	0.062	0.073
-393.106	-13.431	-0.107	-0.070
-392.092	293.784	0.119	-0.217
-391.077	-31.605	-0.177	-0.100
-390.063	-134.319	-0.199	-0.024
-389.048	-9.173	0.141	0.095
-388.033	485.800	-0.058	0.134
-387.019	-95.654	-0.369	-0.099
-386.004	-43.688	0.089	-0.045
-384.990	-200.000	-0.018	0.172
-383.975	100.478	-0.253	-0.294
-382.960	-200.000	0.018	-0.088
-381.946	800.000	0.066	0.190
-380.931	42.465	0.151	0.138
-379.917	-200.000	0.002	0.369
-378.902	170.730	0.245	-0.352
-377.888	15.309	0.200	0.157
-376.873	89.153	0.164	-0.183
-375.858	-76.961	0.340	0.119
-374.844	-17.373	-0.160	-0.101
-373.829	0.158	-0.387	0.277
-372.815	193.947	0.008	0.012
-371.800	-51.246	-0.141	0.066
-370.785	-77.432	0.309	-0.108
-369.771	-75.101	-0.065	-0.023
-368.756	-200.000	-0.020	-0.172
-367.742	-102.504	-0.289	0.069
-366.727	800.000	-0.081	0.295
-365.712	364.349	-0.039	-0.078
-364.698	-31.853	-0.023	0.013
-363.683	120.068	-0.169	0.211
-362.669	231.459	-0.096	0.157
-361.654	-200.000	-0.030	-0.256
-360.639	-128.703	-0.410	0.058
-359.625	-100.126	0.416	0.104
-358.610	84.703	0.115	-0.126
-357.596	79.900	0.043	0.046
-356.581	-150.473	-0.247	-0.019
-355.566	800.000	0.035	-0.127
-354.552	-163.649	-0.225	0.011
-353.537	110.129	-0.165	0.199
-352.523	2.240	-0.152	-0.110
-351.508	208.308	-0.070	-0.109
-350.493	-125.457	-0.154	0.024
-349.479	-200.000	0.003	0.084
-348.464	-80.520	-0.471	-0.157
-347.450	-175.036	-0.022	-0.001
-346.435	641.620	0.110	0.281
-345.420	-11.809	-0.071	0.047
-344.406	-128.817	-0.099	0.014
-343.391	-200.000	-0.010	0.218
-342.377	147.418	-0.296	0.400
-341.362	23.020	0.269	-0.221
-340.348	-90.801	-0.142	0.041
-339.333	198.143	0.061	0.094
-338.318	174.380	0.021	-0.030
-337.304	800.000	-0.092	0.285
-336.289	800.000	-0.083	0.264
-335.275	-41.415	0.057	0.029
-334.260	-106.942	-0.410	-0.091
-333.245	352.167	0.064	-0.127
-332.231	-160.250	0.152	-0.008
-331.216	-3.529	0.179	-0.125
-330.202	-193.522	-0.126	-0.001
-329.187	-162.759	0.166	0.008
-328.172	-100.900	-0.082	-0.020
-327.158	800.000	-0.065	-0.203
-326.143	28.090	-0.199	0.168
-325.129	-88.002	0.193	-0.058
-324.114	800.000	0.113	-0.440
-323.099	-200.000	0.028	0.128
-322.085	16.267	0.214	0.169
-321.070	-200.000	0.013	0.281
-320.056	-95.469	0.063	-0.017
-319.041	800.000	-0.110	-0.309
-318.026	-126.750	0.189	-0.028
-317.012	-15.217	0.361	0.231
-315.997	-200.000	0.054	0.245
-314.983	17.678	0.335	0.266
-313.968	-76.503	0.180	0.063
-312.953	-150.005	-0.152	0.012
-311.939	32.759	-0.140	-0.121
-310.924	22.011	-0.206	-0.168
-309.910	-106.700	-0.286	0.064
-308.895	-129.098	0.085	-0.012
-307.880	-200.000	-0.064	-0.304
-306.866	275.372	0.140	-0.248
-305.851	-87.412	0.145	0.044
-304.837	-79.300	-0.137	-0.047
-303.822	-73.619	0.224	0.082
-302.807	379.865	0.249	-0.511
-301.793	0.526	-0.341	-0.244
-300.778	174.024	-0.137	0.198
-299.764	42.536	-0.152	0.138
-298.749	-200.000	-0.419	0.000
-297.735	723.420	-0.047	-0.126
-296.720	-135.893	-0.011	0.001
-295.705	73.486	-0.081	0.084
-294.691	-200.000	-0.012	0.198
-293.676	-152.237	-0.385	0.028
-292.662	1.582	0.183	0.132
-291.647	-101.567	0.237	0.057
-290.632	-95.348	-0.136	0.036
-289.618	179.332	0.120	-0.176
-288.603	-19.453	-0.085	0.053
-287.589	-193.266	0.264	0.002
-286.574	-63.296	0.130	0.053
-285.559	-1.538	-0.152	-0.107
-284.545	-74.380	0.128	0.046
-283.530	71.263	0.225	-0.234
-282.516	218.314	-0.064	0.102
-281.501	-200.000	-0.010	0.109
-280.486	428.781	0.084	0.180
-279.472	-108.099	0.083	0.018
-278.457	102.246	0.067	0.078
-277.443	156.954	0.111	-0.153
-276.428	-76.074	0.226	0.080
-275.413	-99.140	-0.447	0.113
-274.399	321.302	-0.162	-0.307
-273.384	-180.598	0.053	-0.001
-272.370	629.585	0.093	-0.236
-271.355	-103.249	0.368	-0.087
-270.340	-35.200	0.129	0.070
-269.326	-47.846	-0.230	-0.111
-268.311	-200.000	-0.029	-0.180
-267.297	-30.098	0.354	-0.201
-266.282	-159.139	-0.268	0.015
-265.267	-161.289	0.278	-0.014
-264.253	104.111	0.100	0.117
-263.238	-126.385	0.274	0.041
-262.224	-70.838	-0.307	-0.116
-261.209	-200.000	0.023	-0.196
-260.195	182.164	-0.160	-0.236
-259.180	-117.988	-0.249	-0.045
-258.165	-35.424	0.229	0.124
-257.151	800.000	-0.049	0.189
-256.136	51.905	-0.375	0.356
-255.122	30.012	0.088	-0.075
-254.107	122.842	-0.208	0.260
-253.092	-200.000	-0.017	0.101
-252.078	800.000	-0.048	0.188
-251.063	-2.153	-0.207	0.145
-250.049	-200.000	-0.014	0.100
-249.034	768.239	0.147	-0.398
-248.019	800.000	0.024	-0.073
-247.005	15.420	0.126	-0.099
-245.990	197.856	0.063	0.096
-244.976	65.897	-0.052	-0.053
-243.961	265.343	0.139	-0.243
-242.946	36.507	-0.163	0.144
-241.932	-200.000	-0.010	-0.238
-240.917	24.741	0.346	0.286
-239.903	-132.720	-0.146	0.019
-238.888	-74.891	0.146	0.052
-237.873	-200.000	0.017	-0.123
-236.859	-153.130	-0.037	0.003
-235.844	38.852	-0.150	0.134
-234.830	164.346	0.136	-0.192
-233.815	-179.471	-0.236	0.005
-232.800	-200.000	0.076	-0.452
-231.786	559.319	0.072	-0.173
-230.771	-157.589	-0.168	0.010
-229.757	109.306	-0.154	-0.184
-228.742	158.981	0.089	-0.123
-227.727	-72.043	0.197	-0.073
-226.713	747.893	-0.090	-0.241
-225.698	542.394	-0.103	-0.245
-224.684	143.133	0.357	0.474
-223.669	800.000	0.069	0.203
-222.655	50.901	-0.299	0.282
-221.640	227.704	0.089	0.144
-220.625	800.000	-0.074	-0.231
-219.611	-37.348	-0.162	-0.086
-218.596	31.972	0.110	0.095
-217.582	172.475	-0.122	0.175
-216.567	-87.689	-0.056	-0.017
-215.552	132.887	-0.211	-0.271
-214.538	256.904	0.155	-0.266
-213.523	800.000	0.123	0.396
-212.509	206.990	0.139	-0.217
-211.494	-161.792	-0.511	0.026
-210.479	-32.443	0.285	0.158
-209.465	133.400	-0.109	0.140
-208.450	15.993	0.177	-0.139
-207.436	-145.750	-0.372	0.033
-206.421	497.671	0.052	-0.119
-205.406	-106.028	-0.088	0.020
-204.392	-200.000	0.018	0.416
-203.377	-70.526	-0.299	0.113
-202.363	91.979	-0.247	-0.277
-201.348	2.845	0.205	-0.148
-200.333	259.012	-0.135	0.233
-199.319	-91.664	-0.115	0.033
-198.304	-200.000	0.022	-0.283
-197.290	-128.975	-0.158	-0.022
-196.275	35.111	0.233	0.203
-195.260	91.113	0.192	0.215
-194.246	-17.948	0.390	-0.243
-193.231	-28.037	0.094	-0.054
-192.217	-75.991	-0.417	-0.147
-191.202	-139.315	0.115	-0.012
-190.187	217.965	0.106	0.168
-189.173	183.173	-0.095	-0.139
-188.158	-200.000	0.021	-0.524
-187.144	588.334	0.076	-0.187
-186.129	800.000	-0.065	0.237
-185.114	-83.985	0.162	0.051
-184.100	-200.000	-0.016	0.215
-183.085	-94.913	0.163	0.044
-182.071	-132.472	-0.275	-0.035
-181.056	800.000	0.056	0.243
-180.042	-77.592	-0.318	-0.110
-179.027	-66.830	0.135	0.053
-178.012	-200.000	0.005	-0.029
-176.998	490.408	-0.040	0.090
-175.983	-200.000	-0.025	-0.178
-174.969	303.698	0.098	0.180
-173.954	-77.323	-0.125	0.043
-172.939	156.596	-0.216	0.297
-171.925	-200.000	0.058	-0.322
-170.910	71.674	0.141	0.146
-169.896	417.561	0.130	-0.277
-168.881	474.479	-0.125	0.282
-167.866	-48.997	-0.185	0.088
-166.852	-11.273	-0.093	0.061
-165.837	-24.343	0.269	0.159
-164.823	-139.619	0.436	0.046
-163.808	-200.000	0.029	-0.193
-162.793	-93.506	-0.258	-0.071
-161.779	800.000	-0.053	-0.149
-160.764	-167.540	0.100	0.004
-159.750	624.191	-0.071	0.177
-158.735	366.509	-0.036	-0.071
-157.720	240.865	-0.075	0.125
-156.706	-29.136	-0.085	-0.048
-155.691	52.676	-0.192	0.182
-154.677	800.000	-0.053	0.178
-153.662	413.676	0.096	-0.204
-152.647	352.472	-0.028	-0.056
-151.633	-87.571	0.160	-0.048
-150.618	-170.944	0.403	-0.014
-149.604	-200.000	0.004	0.194
-148.589	-171.507	0.134	0.004
-147.574	242.001	-0.167	0.278
-146.560	391.743	0.186	-0.383
-145.545	-118.211	-0.297	0.053
-144.531	-71.925	0.020	0.007
-143.516	168.488	-0.092	0.130
-142.502	-130.929	-0.329	0.044
-141.487	-97.333	0.227	-0.059
-140.472	-5.965	0.164	0.111
-139.458	-75.474	-0.193	-0.068
-138.443	-23.936	0.094	-0.056
-137.429	-74.720	0.158	0.057
-136.414	100.483	0.104	0.120
-135.399	-200.000	0.023	0.187
-134.385	-40.495	0.098	-0.050
-133.370	258.698	0.120	0.206
-132.356	-68.156	-0.215	-0.083
-131.341	-99.675	-0.209	-0.052
-130.326	-123.821	0.146	0.023
-129.312	-200.000	0.022	0.197
-128.297	-200.000	0.022	-0.106
-127.283	-200.000	0.003	0.070
-126.268	-69.475	-0.081	0.031
-125.253	695.903	-0.018	-0.048
-124.239	800.000	-0.105	0.292
-123.224	-200.000	-0.010	-0.155
-122.210	255.443	-0.129	0.219
-121.195	295.917	0.215	0.390
-120.180	169.511	-0.246	0.349
-119.166	-200.000	-0.038	-0.173
-118.151	130.976	0.210	0.267
-117.137	-137.288	0.441	0.050
-116.122	-76.207	0.265	-0.093
-115.107	-82.042	-0.493	-0.160
-114.093	26.922	0.053	0.044
-113.078	-6.118	0.147	0.100
-112.064	-200.000	-0.018	-0.195
-111.049	33.171	0.177	-0.152
-110.034	75.017	-0.223	-0.233
-109.020	36.199	-0.168	0.147
-108.005	236.515	0.073	0.119
-106.991	152.632	-0.154	0.209
-105.976	-26.707	-0.218	-0.127
-104.962	-200.000	0.021	0.233
-103.947	1.856	-0.312	0.223
-102.932	-200.000	-0.002	-0.028
-101.918	-48.550	-0.436	0.208
-100.903	-200.000	0.028	-0.336
-99.889	-161.045	0.483	-0.025
-98.874	-200.000	0.024	0.143
-97.859	-21.380	-0.121	-0.073
-96.845	106.605	0.231	-0.272
-95.830	306.214	0.176	-0.324
-94.816	136.773	0.171	0.221
-93.801	-65.938	0.187	-0.074
-92.786	90.462	0.211	0.234
-91.772	116.197	0.085	-0.103
-90.757	-57.724	0.126	0.054
-89.743	230.375	0.111	0.180
-88.728	-78.001	-0.439	0.150
-87.713	-134.022	0.278	-0.034
-86.699	-200.000	-0.021	0.175
-85.684	65.776	0.202	-0.203
-84.670	-53.699	-0.210	0.095
-83.655	157.018	0.041	-0.057
-82.640	-19.263	0.202	0.124
-81.626	-200.000	-0.011	-0.154
-80.611	385.363	0.029	-0.060
-79.597	183.499	0.276	0.404
-78.582	-200.000	0.017	-0.280
-77.567	-200.000	0.005	-0.127
-76.553	149.625	0.174	0.234
-75.538	-200.000	-0.004	0.018
-74.524	241.668	-0.092	-0.152
-73.509	-193.014	0.087	-0.001
-72.494	148.140	0.114	0.152
-71.480	101.874	-0.175	-0.203
-70.465	800.000	-0.020	-0.064
-69.451	-142.078	-0.057	0.006
-68.436	252.588	0.046	0.077
-67.422	-95.616	0.146	-0.039
-66.407	800.000	-0.049	0.184
-65.392	-115.920	-0.142	-0.026
-64.378	-200.000	-0.070	-0.542
-63.363	-200.000	-0.007	0.215
-62.349	15.376	0.064	0.050
-61.334	74.797	-0.932	-0.972
-60.319	21.388	0.489	0.394
-59.305	-200.000	-0.038	-0.750
-58.290	403.121	0.548	1.141
-57.276	650.229	0.652	1.654
-56.261	-200.000	95.360	571.239
-55.246	640.288	1374.178	3463.806
-54.232	194.896	2555.752	3841.527
-53.217	109.352	2301.341	2728.826
-52.203	39.275	2061.757	1827.436
-51.188	34.524	1976.838	1709.646
-50.173	33.019	1958.553	1680.395
-49.159	47.591	2007.085	1853.543
-48.144	49.024	2025.513	1883.399
-47.130	35.131	1988.050	1724.543
-46.115	32.832	1977.441	1694.651
-45.100	32.682	1974.653	1690.850
-44.086	32.662	1972.233	1688.525
-43.071	32.653	1969.291	1685.865
-42.057	32.569	1967.305	1683.347
-41.042	32.598	1965.927	1682.359
-40.027	32.616	1963.083	1680.016
-39.013	32.659	1961.629	1679.090
-37.998	32.788	1959.300	1678.174
-36.984	32.732	1957.949	1676.453
-35.969	32.724	1955.756	1674.437
-34.954	32.821	1954.150	1673.860
-33.940	32.832	1952.496	1672.471
-32.925	32.795	1951.578	1671.297
-31.911	32.843	1949.692	1670.039
-30.896	32.816	1948.057	1668.333
-29.881	32.779	1946.768	1666.837
-28.867	32.911	1945.250	1666.630
-27.852	32.873	1943.561	1664.789
-26.838	32.775	1941.508	1662.100
-25.823	32.860	1939.210	1660.812
-24.809	32.796	1937.174	1658.438
-23.794	32.734	1936.539	1657.286
-22.779	32.747	1934.291	1655.406
-21.765	32.799	1932.620	1654.368
-20.750	32.806	1930.485	1652.538
-19.736	32.795	1929.025	1651.123
-18.721	32.872	1927.678	1650.578
-17.706	32.837	1926.030	1648.797
-16.692	32.795	1924.666	1647.202
-15.677	32.809	1923.029	1645.854
-14.663	32.829	1921.367	1644.540
-13.648	32.825	1920.023	1643.293
-12.633	32.811	1918.907	1642.150
-11.619	32.803	1918.058	1641.285
-10.604	32.808	1915.850	1639.377
-9.590	32.787	1915.000	1638.400
-8.575	32.764	1914.127	1637.394
-7.560	32.791	1912.176	1635.893
-6.546	32.855	1911.499	1635.801
-5.531	32.860	1909.682	1634.225
-4.517	32.807	1908.920	1633.049
-3.502	32.751	1907.863	1631.591
-2.487	32.805	1906.140	1630.522
-1.473	32.837	1905.470	1630.164
-0.458	32.882	1900.873	1626.555
0.556	32.699	1881.137	1598.785
1.571	28.638	1861.323	1547.642
2.586	24.522	1883.700	1530.910
3.600	23.549	1918.955	1550.923
4.615	22.944	1913.594	1541.171
5.629	17.794	1813.971	1418.113
6.644	9.163	1695.911	1258.348
7.659	5.137	1659.570	1200.355
8.673	4.810	1656.904	1195.809
9.688	4.763	1655.346	1194.221
10.702	4.763	1654.213	1193.294
11.717	4.714	1650.750	1190.321
12.731	5.237	1650.139	1193.773
13.746	10.738	1663.445	1245.577
14.761	18.146	1678.650	1313.979
15.775	20.120	1680.913	1330.807
16.790	19.275	1677.479	1321.492
17.804	18.161	1674.552	1310.538
18.819	17.168	1670.649	1299.774
19.834	16.523	1668.428	1293.000
20.848	16.177	1667.031	1289.164
21.863	15.957	1665.514	1286.198
22.877	15.688	1664.053	1282.903
23.892	15.543	1662.645	1280.598
24.907	15.481	1661.535	1279.156
25.921	15.514	1660.236	1278.297
26.936	15.494	1659.305	1277.309
27.950	15.503	1658.705	1276.808
28.965	15.475	1658.676	1276.454
29.980	15.569	1657.404	1276.080
30.994	15.671	1656.436	1275.997
32.009	15.775	1655.447	1275.906
33.023	15.814	1654.451	1275.325
34.038	15.834	1653.534	1274.655
35.053	15.813	1651.945	1273.160
36.067	15.727	1650.739	1271.469
37.082	15.692	1649.853	1270.409
38.096	15.694	1648.636	1269.374
39.111	15.655	1648.271	1268.685
40.126	15.712	1647.670	1268.541
41.140	15.666	1646.828	1267.432
42.155	15.653	1644.771	1265.640
43.169	15.465	1643.164	1262.876
44.184	15.417	1642.141	1261.619
45.199	15.465	1641.063	1261.041
46.213	15.395	1639.901	1259.507
47.228	15.406	1638.937	1258.740
48.242	15.510	1638.096	1258.765
49.257	15.564	1636.661	1257.955
50.271	15.598	1635.397	1257.123
51.286	15.594	1634.052	1255.948
52.301	15.640	1632.819	1255.234
53.315	15.543	1631.653	1253.501
54.330	15.591	1630.340	1252.742
55.344	15.437	1628.793	1250.291
56.359	15.424	1627.274	1248.924
57.374	15.487	1626.232	1248.479
58.388	15.395	1624.953	1246.706
59.403	15.413	1623.736	1245.796
60.417	15.403	1622.106	1244.361
61.432	15.347	1621.443	1243.328
62.447	15.408	1619.721	1242.349
63.461	15.366	1618.722	1241.158
64.476	15.265	1617.723	1239.536
65.490	15.281	1616.475	1238.592
66.505	15.240	1615.402	1237.351
67.520	15.238	1614.565	1236.589
68.534	15.332	1613.516	1236.369
69.549	15.317	1612.347	1235.251
70.563	15.365	1610.872	1234.366
71.578	15.284	1610.254	1233.189
72.593	15.226	1609.141	1231.797
73.607	15.260	1607.789	1230.903
74.622	15.181	1606.675	1229.367
75.636	15.145	1606.099	1228.555
76.651	15.243	1605.643	1228.810
77.666	15.188	1604.401	1227.349
78.680	15.173	1603.958	1226.790
79.695	15.209	1602.494	1225.829
80.709	15.229	1601.225	1224.893
81.724	15.221	1601.327	1224.807
82.739	15.366	1599.991	1224.735
83.753	15.449	1598.636	1224.197
84.768	15.390	1598.647	1223.662
85.782	15.643	1597.264	1224.339
86.797	15.675	1596.845	1224.141
87.812	15.720	1595.645	1223.443
88.826	15.647	1594.668	1222.053
89.841	15.515	1593.458	1220.059
90.855	15.589	1592.553	1219.796
91.870	15.613	1591.693	1219.205
92.884	15.619	1590.597	1218.301
93.899	15.647	1589.989	1217.927
94.914	15.663	1588.758	1216.993
95.928	15.686	1587.312	1215.948
96.943	15.702	1586.179	1215.085
97.957	15.677	1584.550	1213.552
98.972	15.777	1582.564	1212.644
99.987	15.559	1581.695	1210.303
101.001	15.652	1580.035	1209.595
102.016	15.698	1578.174	1208.392
103.030	15.601	1577.224	1206.861
104.045	15.629	1576.197	1206.171
105.060	15.677	1574.349	1204.994
106.074	15.550	1573.431	1203.269
107.089	15.476	1571.920	1201.478
108.103	15.353	1570.561	1199.454
109.118	15.300	1568.443	1197.356
110.133	15.328	1566.916	1196.282
111.147	15.299	1565.788	1195.111
112.162	15.244	1565.026	1194.032
113.176	15.299	1563.170	1192.896
114.191	15.287	1562.553	1192.234
115.206	15.426	1560.752	1191.746
116.220	15.481	1559.389	1190.988
117.235	15.340	1558.421	1189.146
118.249	15.354	1556.951	1188.017
119.264	15.283	1555.473	1186.279
120.279	15.292	1554.365	1185.394
121.293	15.297	1552.537	1183.934
122.308	15.328	1551.087	1182.940
123.322	15.317	1549.428	1181.491
124.337	15.270	1547.958	1179.935
125.352	15.130	1546.983	1178.104
126.366	15.174	1545.921	1177.498
127.381	15.259	1544.901	1177.214
128.395	15.264	1543.450	1176.042
129.410	15.202	1542.524	1174.794
130.424	15.324	1540.972	1174.366
131.439	15.295	1540.115	1173.403
132.454	15.385	1538.380	1172.606
133.468	15.401	1537.213	1171.727
134.483	15.378	1535.837	1170.413
135.497	15.482	1534.231	1169.811
136.512	15.450	1533.114	1168.632
137.527	15.459	1531.510	1167.370
138.541	15.417	1530.742	1166.390
139.556	15.503	1528.879	1165.466
140.570	15.499	1527.575	1164.341
141.585	15.516	1526.647	1163.645
142.600	15.597	1525.462	1163.199
143.614	15.752	1523.927	1163.000
144.629	15.780	1522.953	1162.345
145.643	15.778	1521.763	1161.323
146.658	15.795	1520.642	1160.479
147.673	15.755	1518.805	1158.698
148.687	15.750	1517.747	1157.754
149.702	15.644	1515.906	1155.519
150.716	15.567	1514.480	1153.801
151.731	15.528	1512.954	1152.271
152.746	15.630	1511.502	1151.760
153.760	15.696	1510.487	1151.336
154.775	15.666	1508.921	1149.841
155.789	15.636	1507.964	1148.801
156.804	15.720	1507.203	1148.692
157.819	15.779	1505.472	1147.674
158.833	15.735	1504.067	1146.201
159.848	15.785	1503.391	1145.926
160.862	15.903	1502.185	1145.708
161.877	15.969	1500.603	1144.849
162.892	15.779	1500.218	1143.166
163.906	15.723	1498.392	1141.294
164.921	15.659	1497.108	1139.779
165.935	15.635	1495.965	1138.647
166.950	15.673	1495.246	1138.255
167.964	15.790	1493.772	1137.820
168.979	15.730	1492.989	1136.724
169.994	15.711	1492.192	1135.884
171.008	15.688	1490.959	1134.687
172.023	15.697	1490.239	1134.104
173.037	15.800	1488.629	1133.469
174.052	15.866	1487.863	1133.232
175.067	15.872	1486.965	1132.488
176.081	15.854	1485.341	1131.030
177.096	15.717	1484.228	1129.161
178.110	15.692	1483.101	1128.040
179.125	15.797	1481.545	1127.459
180.140	15.728	1481.008	1126.487
181.154	15.672	1480.368	1125.528
182.169	15.777	1478.660	1124.831
183.183	15.825	1477.660	1124.287
184.198	15.894	1477.007	1124.152
185.213	15.991	1475.720	1123.720
186.227	16.029	1474.654	1123.066
187.242	16.060	1473.620	1122.382
188.256	16.067	1472.634	1121.578
189.271	16.179	1471.053	1121.023
190.286	16.178	1470.793	1120.715
191.300	16.139	1469.451	1119.339
192.315	15.854	1468.538	1116.653
193.329	15.671	1467.004	1114.173
194.344	15.724	1465.823	1113.532
195.359	15.784	1464.813	1113.059
196.373	15.891	1463.910	1112.986
197.388	16.007	1463.001	1112.957
198.402	16.077	1461.866	1112.457
199.417	16.019	1461.214	1111.486
200.432	16.168	1459.953	1111.406
201.446	16.195	1459.297	1110.988
202.461	16.279	1458.402	1110.759
203.475	16.322	1457.408	1110.187
204.490	16.533	1455.874	1110.306
205.504	16.462	1454.793	1108.919
206.519	16.328	1453.715	1107.121
207.534	16.204	1452.847	1105.550
208.548	16.220	1451.548	1104.568
209.563	16.244	1450.555	1103.868
210.577	16.161	1449.644	1102.534
211.592	16.295	1448.382	1102.357
212.607	16.243	1448.215	1101.794
213.621	16.362	1447.303	1101.775
214.636	16.471	1446.219	1101.564
215.650	16.368	1445.259	1100.063
216.665	16.332	1444.418	1099.094
217.680	16.366	1443.781	1098.728
218.694	16.448	1442.990	1098.566
219.709	16.501	1442.210	1098.218
220.723	16.491	1440.954	1097.099
221.738	16.480	1439.769	1096.030
222.753	16.510	1439.279	1095.752
223.767	16.422	1438.324	1094.360
224.782	16.493	1437.336	1093.969
225.796	16.543	1436.333	1093.431
226.811	16.730	1435.337	1093.784
227.826	16.652	1434.872	1092.831
228.840	16.605	1433.995	1091.765
229.855	16.543	1432.685	1090.272
230.869	16.490	1432.417	1089.630
231.884	16.534	1430.861	1088.631
232.899	16.548	1429.781	1087.802
233.913	16.477	1428.597	1086.352
234.928	16.489	1427.242	1085.301
235.942	16.417	1426.209	1083.955
236.957	16.518	1424.772	1083.417
237.972	16.370	1423.819	1081.645
238.986	16.486	1422.679	1081.429
240.001	16.510	1421.707	1080.748
241.015	16.515	1420.704	1079.920
242.030	16.551	1419.475	1079.121
243.045	16.656	1418.871	1079.240
244.059	16.534	1418.398	1078.002
245.074	16.642	1416.906	1077.459
246.088	16.682	1416.366	1077.209
247.103	16.746	1415.634	1076.966
248.117	16.736	1415.392	1076.625
249.132	16.837	1414.358	1076.384
250.147	16.945	1413.795	1076.543
251.161	17.044	1413.075	1076.529
252.176	17.191	1412.207	1076.705
253.190	17.286	1411.384	1076.583
254.205	17.151	1411.234	1075.515
255.220	17.224	1410.035	1074.972
256.234	17.229	1409.070	1074.170
257.249	17.229	1408.482	1073.632
258.263	17.305	1407.352	1073.150
259.278	17.362	1406.208	1072.543
260.293	17.226	1405.724	1071.220
261.307	17.163	1404.995	1070.174
262.322	17.306	1404.261	1070.420
263.336	17.343	1403.837	1070.238
264.351	17.347	1402.518	1069.164
265.366	17.434	1401.504	1068.842
266.380	17.301	1401.171	1067.660
267.395	17.439	1399.565	1067.202
268.409	17.444	1398.347	1066.212
269.424	17.407	1397.836	1065.497
270.439	17.333	1397.029	1064.324
271.453	17.388	1395.799	1063.638
272.468	17.368	1394.809	1062.661
273.482	17.278	1394.139	1061.495
274.497	17.345	1393.134	1061.059
275.512	17.262	1392.606	1060.043
276.526	17.282	1391.668	1059.357
277.541	17.299	1390.743	1058.667
278.555	17.301	1389.470	1057.614
279.570	17.364	1388.463	1057.146
280.585	17.404	1387.759	1056.769
281.599	17.377	1387.416	1056.248
282.614	17.419	1386.580	1055.777
283.628	17.453	1385.196	1054.840
284.643	17.420	1384.175	1053.765
285.657	17.450	1382.873	1052.863
286.672	17.363	1381.845	1051.454
287.687	17.413	1381.060	1051.068
288.701	17.517	1380.023	1050.830
289.716	17.509	1379.521	1050.305
290.730	17.358	1378.981	1048.872
291.745	17.517	1377.714	1048.791
292.760	17.560	1376.394	1047.963
293.774	17.572	1375.765	1047.461
294.789	17.587	1374.541	1046.528
295.803	17.673	1374.011	1046.564
296.818	17.707	1373.074	1045.966
297.833	17.603	1372.537	1044.822
298.847	17.607	1371.416	1043.902
299.862	17.578	1370.520	1042.953
300.876	17.675	1369.131	1042.398
301.891	17.592	1368.518	1041.327
302.906	17.670	1367.921	1041.260
303.920	17.682	1366.775	1040.370
304.935	17.772	1366.387	1040.529
305.949	17.885	1365.588	1040.517
306.964	17.940	1364.360	1039.825
307.979	17.968	1363.778	1039.460
308.993	17.938	1362.779	1038.427
310.008	17.894	1361.731	1037.269
311.022	17.923	1360.640	1036.520
312.037	17.970	1359.962	1036.194
313.052	17.892	1359.130	1034.997
314.066	17.923	1357.946	1034.195
315.081	17.877	1356.771	1032.928
316.095	17.704	1356.149	1031.318
317.110	17.753	1354.781	1030.483
318.125	17.770	1354.002	1029.898
319.139	17.915	1352.954	1029.889
320.154	17.751	1352.370	1028.359
321.168	17.777	1350.941	1027.343
322.183	17.806	1350.233	1026.889
323.197	17.864	1349.349	1026.474
324.212	17.867	1348.255	1025.564
325.227	17.842	1347.684	1024.890
326.241	17.812	1346.967	1024.075
327.256	17.930	1345.882	1023.866
328.270	17.999	1344.612	1023.224
329.285	17.823	1344.211	1021.772
330.300	17.905	1343.026	1021.272
331.314	17.888	1341.962	1020.273
332.329	18.008	1341.149	1020.283
333.343	17.942	1340.422	1019.243
334.358	17.910	1340.124	1018.739
335.373	17.996	1339.023	1018.320
336.387	18.027	1338.075	1017.698
337.402	18.106	1336.941	1017.213
338.416	18.039	1336.609	1016.472
339.431	18.130	1336.059	1016.507
340.446	18.186	1335.410	1016.257
341.460	18.244	1334.207	1015.590
342.475	18.350	1333.102	1015.290
343.489	18.475	1332.391	1015.402
344.504	18.453	1331.548	1014.538
345.519	18.384	1330.969	1013.596
346.533	18.450	1330.173	1013.292
347.548	18.418	1329.077	1012.178
348.562	18.497	1328.404	1012.045
349.577	18.501	1327.686	1011.428
350.592	18.477	1326.749	1010.488
351.606	18.355	1325.944	1009.063
352.621	18.376	1324.261	1007.818
353.635	18.320	1323.400	1006.743
354.650	18.289	1322.922	1006.111
355.665	18.286	1322.039	1005.332
356.679	18.269	1321.252	1004.545
357.694	18.318	1319.685	1003.548
358.708	18.433	1319.026	1003.636
359.723	18.460	1317.837	1002.796
360.738	18.469	1316.565	1001.796
361.752	18.457	1315.934	1001.153
362.767	18.468	1314.468	1000.014
363.781	18.448	1313.789	999.295
364.796	18.454	1313.091	998.710
365.810	18.506	1312.393	998.396
366.825	18.611	1311.869	998.520
367.840	18.642	1311.293	998.171
368.854	18.729	1310.487	997.974
369.869	18.792	1309.916	997.821
370.883	18.891	1309.322	997.851
371.898	18.792	1308.476	996.546
372.913	18.681	1308.245	995.636
373.927	18.791	1306.478	994.838
374.942	18.838	1305.899	994.585
375.956	18.834	1305.044	993.822
376.971	18.844	1304.669	993.507
377.986	18.774	1303.453	992.088
379.000	18.808	1302.788	991.687
380.015	18.858	1302.105	991.371
381.029	18.853	1301.533	990.817
382.044	18.990	1300.651	990.846
383.059	19.057	1300.028	990.675
384.073	18.912	1299.649	989.459
385.088	18.954	1299.022	989.139
386.102	19.064	1297.993	988.897
387.117	19.012	1297.355	988.028
388.132	18.962	1296.714	987.161
389.146	18.986	1295.279	986.124
390.161	18.990	1294.521	985.482
391.175	18.862	1293.648	983.995
392.190	18.962	1293.114	984.075
393.205	18.952	1292.759	983.659
394.219	19.057	1290.897	982.757
395.234	19.181	1290.035	982.722
396.248	19.124	1288.617	981.232
397.263	19.040	1287.735	979.990
398.278	19.049	1286.021	978.652
399.292	19.066	1284.962	977.858
400.307	18.979	1284.140	976.648
401.321	18.893	1282.991	975.204
402.336	18.908	1281.952	974.413
403.350	18.930	1281.226	973.896
404.365	18.887	1280.141	972.741
405.380	18.891	1279.312	972.050
406.394	18.958	1278.408	971.657
407.409	18.982	1277.813	971.254
408.423	19.105	1277.020	971.259
409.438	19.110	1276.965	971.160
410.453	19.370	1275.636	971.529
411.467	19.270	1275.121	970.487
412.482	19.360	1274.737	970.614
413.496	19.465	1273.870	970.459
414.511	19.446	1273.259	969.803
415.526	19.514	1272.453	969.485
416.540	19.543	1272.120	969.305
417.555	19.586	1271.201	968.763
418.569	19.534	1270.429	967.798
419.584	19.542	1269.915	967.364
420.599	19.464	1269.569	966.579
421.613	141.318	1431.730	1794.442
422.628	135.787	1455.320	1794.551
