DTS Sentinel unit serial number:	SN413079Multiplexer serial number:	ORYXHardware model number:	OX4-SRSoftware version number:	ORYX F/W v4.00 Oryx Data Collector v3.7.2.0data status	okinstallation	princeton_trtdifferential loss correction	single-endedforward channel	channel 4reverse channel	N/Adate	2019/09/19time	10:33:35forward acquisition time	60.00reverse acquisition time	0.00gamma	496.2192k internal	0.2328k external	0.2328temperature offset calibration	1.0017default loss term (dB/km)	0.3790temperature slope calibration	1.0000multiplexer offset coefficient	1.0000multiplexer slope coefficient	1.0000fibre end	0.00T internal ref (°C)	24.42T ext. ref 1 (°C)	0.71T ext. ref 2 (°C)	19.91length (m)	temperature (°C)	Stokes	anti-Stokes-747.200	-30.629	-0.099	-0.057
-746.185	185.423	0.212	0.317
-745.171	-127.173	0.367	0.054
-744.156	-77.247	0.125	0.044
-743.142	-54.532	0.338	0.154
-742.127	-163.347	-0.075	0.004
-741.112	309.614	-0.117	-0.221
-740.098	800.000	0.132	0.379
-739.083	52.375	-0.180	0.173
-738.069	39.983	-0.218	0.198
-737.054	-95.507	0.246	0.067
-736.039	638.215	-0.053	-0.136
-735.025	158.220	-0.087	-0.121
-734.010	739.303	-0.183	-0.495
-732.996	-62.537	-0.112	0.047
-731.981	-128.289	-0.095	-0.014
-730.966	59.833	0.101	-0.101
-729.952	-139.576	0.105	0.011
-728.937	111.497	-0.098	-0.119
-727.923	-200.000	0.018	0.257
-726.908	800.000	-0.025	-0.098
-725.894	8.479	0.208	0.158
-724.879	-31.770	-0.274	0.154
-723.864	119.444	0.213	0.265
-722.850	-122.590	0.128	-0.021
-721.835	-78.770	-0.229	-0.079
-720.821	26.336	0.407	-0.343
-719.806	-124.687	0.170	0.026
-718.791	-180.348	-0.189	0.004
-717.777	41.525	0.090	0.082
-716.762	273.767	0.081	0.144
-715.748	226.499	-0.165	0.269
-714.733	77.815	0.102	0.109
-713.718	-143.718	0.068	-0.006
-712.704	-38.844	0.229	-0.122
-711.689	-20.619	0.186	-0.115
-710.675	383.357	-0.155	0.321
-709.660	14.170	-0.174	0.136
-708.645	0.721	0.216	0.156
-707.631	606.448	0.053	0.132
-706.616	426.581	-0.072	0.156
-705.602	-131.721	-0.271	0.036
-704.587	-158.685	0.545	-0.031
-703.572	-200.000	0.035	0.235
-702.558	-200.000	0.035	0.155
-701.543	109.625	-0.111	0.134
-700.529	-0.504	0.152	-0.109
-699.514	-200.000	-0.021	-0.113
-698.499	-101.751	-0.225	-0.055
-697.485	86.283	0.213	-0.236
-696.470	-66.394	-0.263	-0.105
-695.456	-200.000	0.057	0.277
-694.441	749.018	-0.119	-0.323
-693.426	169.991	0.139	-0.200
-692.412	25.616	-0.241	0.202
-691.397	543.217	-0.120	0.287
-690.383	18.819	0.118	0.095
-689.368	46.348	0.192	0.179
-688.354	-44.678	0.227	-0.114
-687.339	-200.000	0.025	-0.194
-686.324	-200.000	0.038	-0.490
-685.310	-155.526	0.175	-0.011
-684.295	714.137	0.101	0.269
-683.281	307.813	-0.172	0.323
-682.266	-200.000	-0.019	0.333
-681.251	-127.906	-0.149	-0.022
-680.237	800.000	-0.139	-0.462
-679.222	-200.000	0.003	-0.121
-678.208	-153.968	-0.322	0.022
-677.193	13.500	-0.224	-0.175
-676.178	131.062	-0.114	-0.146
-675.164	-68.185	-0.180	0.070
-674.149	-45.653	-0.188	0.094
-673.135	-44.504	0.046	-0.023
-672.120	113.670	0.312	0.381
-671.105	-95.444	0.211	0.057
-670.091	-143.252	-0.221	0.021
-669.076	659.505	-0.091	-0.235
-668.062	665.022	-0.132	-0.341
-667.047	-198.876	-0.308	0.002
-666.032	-200.000	-0.006	-0.429
-665.018	316.415	-0.132	0.250
-664.003	-134.764	-0.169	-0.021
-662.989	-96.767	-0.070	-0.018
-661.974	-15.969	-0.259	0.166
-660.959	-200.000	0.032	0.142
-659.945	51.881	-0.161	-0.154
-658.930	-200.000	-0.034	0.170
-657.916	-71.643	-0.279	0.105
-656.901	276.471	-0.208	-0.371
-655.886	-164.872	0.221	-0.010
-654.872	-101.415	-0.095	0.023
-653.857	-84.848	0.118	-0.037
-652.843	215.875	-0.149	0.237
-651.828	-55.960	0.373	0.167
-650.814	348.716	-0.081	0.161
-649.799	-76.744	0.163	-0.057
-648.784	112.003	-0.141	0.171
-647.770	187.697	-0.165	0.248
-646.755	-93.607	-0.315	0.087
-645.741	130.350	0.037	0.048
-644.726	4.365	0.188	0.138
-643.711	-127.349	0.206	-0.030
-642.697	-74.560	0.133	0.048
-641.682	-200.000	-0.004	-0.482
-640.668	67.324	0.274	-0.281
-639.653	-99.492	-0.132	-0.033
-638.638	430.582	0.096	0.209
-637.624	-28.769	0.141	-0.081
-636.609	800.000	-0.112	0.395
-635.595	36.403	-0.121	-0.107
-634.580	800.000	-0.023	0.074
-633.565	800.000	0.068	0.238
-632.551	-200.000	0.022	0.128
-631.536	-200.000	-0.035	0.320
-630.522	430.473	0.167	0.364
-629.507	-125.744	-0.289	0.044
-628.492	-200.000	0.008	-0.089
-627.478	-93.702	-0.143	-0.039
-626.463	800.000	0.011	0.032
-625.449	12.689	-0.174	0.134
-624.434	-145.008	0.137	-0.013
-623.419	110.058	-0.148	0.178
-622.405	345.947	0.049	0.097
-621.390	-52.455	0.155	0.072
-620.376	800.000	0.099	-0.364
-619.361	-183.101	-0.352	-0.006
-618.346	-118.030	0.163	0.029
-617.332	-107.677	-0.175	-0.038
-616.317	-160.698	-0.154	0.008
-615.303	800.000	-0.110	0.319
-614.288	-15.536	0.409	0.262
-613.273	33.361	0.232	0.202
-612.259	-200.000	-0.046	-0.367
-611.244	-200.000	-0.027	0.193
-610.230	-103.274	-0.084	-0.020
-609.215	49.235	-0.134	0.126
-608.201	294.707	-0.093	-0.170
-607.186	76.582	0.036	-0.038
-606.171	35.115	0.098	-0.086
-605.157	-158.050	0.269	0.016
-604.142	-66.099	0.124	-0.049
-603.128	143.543	-0.139	0.186
-602.113	-200.000	0.104	-0.594
-601.098	-35.658	0.163	0.089
-600.084	-3.240	0.310	-0.217
-599.069	452.313	-0.060	0.133
-598.055	667.135	0.082	-0.213
-597.040	-90.699	-0.143	0.041
-596.025	75.682	0.231	-0.245
-595.011	-61.661	0.087	0.036
-593.996	-200.000	-0.023	0.326
-592.982	-12.248	-0.230	-0.151
-591.967	219.065	0.176	-0.283
-590.952	-48.313	0.133	-0.064
-589.938	-7.100	-0.161	0.109
-588.923	83.461	-0.124	-0.135
-587.909	-73.470	0.095	-0.035
-586.894	-138.640	0.327	-0.036
-585.879	800.000	-0.024	0.100
-584.865	800.000	-0.042	0.155
-583.850	-200.000	0.019	-0.187
-582.836	-40.572	0.230	0.119
-581.821	800.000	0.062	0.217
-580.806	742.454	-0.076	0.204
-579.792	24.725	-0.036	0.030
-578.777	-200.000	-0.009	-0.272
-577.763	-80.167	0.125	0.042
-576.748	-200.000	0.021	0.138
-575.733	-14.177	-0.081	0.052
-574.719	-52.114	0.200	-0.093
-573.704	-114.539	-0.149	0.029
-572.690	-200.000	-0.057	-0.279
-571.675	-200.000	-0.004	-0.028
-570.661	-15.119	0.164	-0.105
-569.646	-84.806	0.287	-0.090
-568.631	-130.098	0.079	0.011
-567.617	33.807	-0.154	-0.134
-566.602	105.971	-0.056	-0.067
-565.588	-200.000	0.050	0.255
-564.573	258.059	0.106	0.183
-563.558	-42.487	-0.129	0.066
-562.544	-167.686	0.154	-0.006
-561.529	-8.836	-0.165	0.111
-560.515	-72.308	-0.278	0.103
-559.500	-200.000	0.044	0.256
-558.485	800.000	-0.075	-0.245
-557.471	-45.230	0.104	-0.052
-556.456	-108.927	-0.119	0.025
-555.442	424.526	0.186	0.400
-554.427	-33.236	0.254	0.141
-553.412	54.427	0.203	0.195
-552.398	-200.000	0.048	0.370
-551.383	-132.375	-0.044	-0.006
-550.369	362.525	0.041	-0.083
-549.354	-103.160	-0.183	-0.043
-548.339	198.824	-0.145	0.222
-547.325	-200.000	-0.197	0.001
-546.310	104.115	0.045	-0.053
-545.296	84.994	-0.210	-0.230
-544.281	-200.000	0.019	-0.175
-543.266	-89.251	0.302	-0.089
-542.252	-35.238	-0.290	-0.158
-541.237	-49.244	0.147	0.070
-540.223	-14.649	0.280	0.180
-539.208	-200.000	0.012	-0.102
-538.193	-200.000	-0.018	-0.128
-537.179	7.491	0.231	0.172
-536.164	85.488	-0.094	0.103
-535.150	57.805	-0.153	-0.150
-534.135	320.009	0.099	-0.188
-533.121	-101.508	0.116	0.028
-532.106	434.924	-0.140	-0.305
-531.091	-200.000	0.036	0.207
-530.077	-5.443	0.626	0.429
-529.062	-200.000	0.004	-0.228
-528.048	800.000	-0.070	-0.248
-527.033	93.626	0.095	0.107
-526.018	-63.103	0.435	0.179
-525.004	147.622	-0.129	0.174
-523.989	-200.000	0.012	-0.195
-522.975	-1.400	-0.163	-0.115
-521.960	102.659	-0.254	-0.297
-520.945	24.301	0.079	0.065
-519.931	99.600	0.192	-0.222
-518.916	-57.304	0.029	-0.013
-517.902	-86.684	-0.153	0.047
-516.887	-58.644	-0.238	-0.103
-515.872	-170.114	-0.135	-0.005
-514.858	-108.703	0.191	0.041
-513.843	237.701	-0.112	0.186
-512.829	45.392	0.342	0.315
-511.814	-76.143	-0.226	0.080
-510.799	-194.640	-0.065	0.001
-509.785	-200.000	0.013	0.227
-508.770	235.172	0.199	-0.328
-507.756	800.000	-0.059	0.209
-506.741	-200.000	-0.026	-0.318
-505.726	-163.055	0.172	0.008
-504.712	-200.000	0.016	0.103
-503.697	-122.986	-0.289	0.046
-502.683	-174.649	-0.196	-0.006
-501.668	-49.593	-0.100	-0.048
-500.653	-185.645	0.035	-0.001
-499.639	567.230	0.075	-0.182
-498.624	691.916	-0.066	0.172
-497.610	10.869	-0.208	0.158
-496.595	-152.189	-0.206	-0.015
-495.581	-101.746	0.137	-0.033
-494.566	800.000	-0.192	-0.575
-493.551	370.214	0.100	0.203
-492.537	59.116	-0.238	-0.234
-491.522	-157.088	-0.098	-0.006
-490.508	91.523	0.058	-0.065
-489.493	-200.000	0.002	0.195
-488.478	-28.638	0.219	-0.126
-487.464	462.554	-0.113	0.252
-486.449	-102.731	0.077	0.018
-485.435	6.064	-0.196	0.145
-484.420	114.299	0.154	-0.187
-483.405	-75.880	-0.267	0.094
-482.391	152.230	-0.044	-0.059
-481.376	-94.932	-0.212	-0.057
-480.362	-105.740	-0.119	-0.027
-479.347	353.121	0.181	0.359
-478.332	-200.000	-0.025	-0.117
-477.318	-45.645	0.130	-0.064
-476.303	-200.000	-0.037	-0.236
-475.289	-133.954	-0.130	-0.016
-474.274	-200.000	-0.007	0.124
-473.259	-17.329	-0.198	-0.125
-472.245	-200.000	-0.006	0.099
-471.230	284.270	0.093	0.166
-470.216	292.310	0.050	-0.091
-469.201	-152.981	0.416	-0.029
-468.186	365.812	-0.057	-0.114
-467.172	147.002	0.096	0.129
-466.157	-200.000	0.026	0.137
-465.143	118.094	0.267	-0.328
-464.128	800.000	-0.036	0.137
-463.113	-79.468	-0.313	0.105
-462.099	800.000	-0.122	0.437
-461.084	800.000	0.040	0.116
-460.070	57.666	-0.173	-0.168
-459.055	174.247	0.048	0.069
-458.040	-35.666	-0.200	-0.108
-457.026	-40.896	0.280	-0.144
-456.011	511.261	-0.050	0.116
-454.997	191.617	0.099	-0.149
-453.982	800.000	0.058	0.214
-452.968	-13.017	-0.083	0.054
-451.953	544.451	0.065	0.155
-450.938	800.000	0.040	-0.158
-449.924	-43.689	0.447	0.225
-448.909	800.000	0.036	0.135
-447.895	-200.000	0.000	-0.351
-446.880	-146.531	0.137	-0.012
-445.865	-32.640	-0.318	-0.176
-444.851	-100.103	-0.219	0.054
-443.836	21.513	-0.105	-0.085
-442.822	-200.000	0.019	-0.173
-441.807	-102.176	0.225	0.054
-440.792	-90.960	0.197	-0.057
-439.778	-93.299	0.076	0.021
-438.763	550.349	-0.050	0.120
-437.749	-52.244	-0.159	-0.073
-436.734	800.000	0.071	-0.250
-435.719	-200.000	0.071	-0.332
-434.705	489.900	0.110	0.251
-433.690	-55.159	-0.028	-0.012
-432.676	-115.540	0.262	-0.049
-431.661	250.608	0.134	0.226
-430.646	-200.000	0.012	0.060
-429.632	116.217	-0.347	0.423
-428.617	-63.311	-0.034	0.014
-427.603	800.000	0.036	-0.100
-426.588	77.706	0.236	0.251
-425.573	-200.000	0.209	0.001
-424.559	-42.347	0.209	-0.106
-423.544	112.930	0.134	0.162
-422.530	382.322	-0.082	0.168
-421.515	123.303	0.127	-0.158
-420.500	702.016	0.063	-0.164
-419.486	-94.071	0.132	0.036
-418.471	82.118	0.187	-0.202
-417.457	-16.131	-0.251	-0.159
-416.442	62.726	-0.079	-0.079
-415.428	778.457	-0.083	0.226
-414.413	226.648	-0.102	0.165
-413.398	-86.806	0.109	0.033
-412.384	800.000	-0.083	-0.254
-411.369	156.936	-0.048	-0.066
-410.355	-6.512	0.239	0.162
-409.340	-200.000	-0.022	0.164
-408.325	-200.000	0.035	-0.306
-407.311	0.272	0.208	-0.147
-406.296	-76.917	-0.252	0.088
-405.282	-40.532	-0.098	0.051
-404.267	800.000	-0.064	0.260
-403.252	-200.000	0.027	0.305
-402.238	-29.329	-0.029	0.016
-401.223	407.652	0.077	-0.161
-400.209	-107.178	-0.230	0.050
-399.194	-73.877	0.534	0.193
-398.179	-51.166	0.196	0.091
-397.165	754.317	-0.029	-0.079
-396.150	-2.659	-0.095	-0.066
-395.136	-44.524	0.189	0.094
-394.121	-121.446	0.267	0.044
-393.106	-149.543	0.178	-0.014
-392.092	-20.861	-0.162	0.099
-391.077	-70.914	-0.089	0.033
-390.063	800.000	-0.066	-0.276
-389.048	-11.056	-0.177	-0.116
-388.033	-50.285	-0.249	-0.117
-387.019	800.000	-0.089	-0.346
-386.004	-129.321	-0.133	0.018
-384.990	-129.017	0.111	0.015
-383.975	31.438	-0.393	-0.335
-382.960	374.101	0.117	0.236
-381.946	104.542	-0.229	0.268
-380.931	800.000	0.090	-0.338
-379.917	-59.000	0.137	0.059
-378.902	-200.000	0.025	-0.179
-377.888	206.748	-0.158	-0.245
-376.873	-76.046	0.363	-0.128
-375.858	-200.000	0.005	-0.349
-374.844	295.826	-0.142	-0.259
-373.829	115.743	-0.075	0.091
-372.815	541.168	0.142	0.335
-371.800	19.533	-0.322	0.257
-370.785	102.617	0.109	-0.127
-369.771	-37.267	-0.198	-0.105
-368.756	4.470	0.082	-0.060
-367.742	-82.690	-0.292	0.094
-366.727	-48.909	-0.312	-0.148
-365.712	262.508	0.146	-0.251
-364.698	-200.000	-0.022	-0.365
-363.683	310.790	0.201	-0.373
-362.669	14.763	-0.225	-0.174
-361.654	336.234	-0.070	-0.135
-360.639	-156.436	0.281	-0.017
-359.625	-29.847	-0.066	-0.037
-358.610	168.418	0.088	-0.124
-357.596	155.982	-0.216	-0.295
-356.581	513.075	0.076	0.177
-355.566	-165.361	-0.340	0.015
-354.552	15.744	-0.051	0.040
-353.537	-200.000	0.002	-0.087
-352.523	-4.532	0.096	0.066
-351.508	-94.091	0.218	0.059
-350.493	800.000	0.047	0.190
-349.479	-150.799	-0.040	-0.003
-348.464	-17.089	0.168	0.105
-347.450	-59.070	-0.183	0.078
-346.435	92.770	0.052	-0.058
-345.420	-48.874	-0.236	-0.112
-344.406	-29.748	0.293	-0.166
-343.391	155.274	0.258	-0.353
-342.377	-125.150	-0.414	0.063
-341.362	-200.000	-0.020	-0.195
-340.348	-200.000	-0.030	0.155
-339.333	800.000	-0.059	-0.220
-338.318	-84.659	-0.130	0.041
-337.304	-67.206	-0.264	0.103
-336.289	-200.000	-0.010	0.156
-335.275	-166.469	-0.110	0.005
-334.260	26.418	0.061	0.050
-333.245	-115.085	-0.083	-0.016
-332.231	-200.000	-0.055	0.241
-331.216	108.729	-0.098	-0.116
-330.202	-62.714	-0.053	-0.022
-329.187	-154.629	-0.265	0.017
-328.172	-47.120	0.079	0.038
-327.158	-154.978	0.313	0.020
-326.143	312.983	-0.021	-0.039
-325.129	-136.118	0.245	-0.028
-324.114	26.188	0.133	0.110
-323.099	-200.000	-0.027	0.247
-322.085	-200.000	-0.042	0.372
-321.070	-124.631	0.128	0.020
-320.056	15.391	0.162	0.126
-319.041	12.562	-0.218	-0.167
-318.026	-114.403	-0.181	0.034
-317.012	-49.693	0.223	0.105
-315.997	-120.352	0.252	0.042
-314.983	-102.768	-0.136	0.032
-313.968	134.077	-0.192	-0.247
-312.953	-132.637	0.396	-0.050
-311.939	84.795	0.137	-0.149
-310.924	30.514	0.261	0.221
-309.910	-104.008	-0.034	0.008
-308.895	-99.175	0.088	0.022
-307.880	113.953	-0.046	0.056
-306.866	14.647	-0.129	0.100
-305.851	207.798	-0.202	0.312
-304.837	-61.915	0.072	-0.030
-303.822	-200.000	0.052	0.232
-302.807	-73.280	0.125	0.045
-301.793	504.636	0.148	0.340
-300.778	-200.000	0.041	0.481
-299.764	-27.275	0.237	0.137
-298.749	-120.086	-0.228	-0.039
-297.735	-200.000	-0.006	0.270
-296.720	-98.400	-0.221	0.056
-295.705	258.795	-0.056	-0.096
-294.691	55.617	-0.227	-0.218
-293.676	-200.000	-0.014	-0.112
-292.662	261.213	-0.051	-0.088
-291.647	101.177	-0.093	-0.108
-290.632	130.358	-0.140	0.178
-289.618	704.408	-0.162	-0.422
-288.603	-200.000	0.029	-0.192
-287.589	495.824	-0.048	-0.110
-286.574	-72.287	0.257	0.094
-285.559	-44.098	-0.135	0.067
-284.545	-200.000	-0.050	0.333
-283.530	-200.000	0.058	0.478
-282.516	184.612	0.223	0.327
-281.501	-129.154	0.250	0.035
-280.486	5.795	0.174	-0.127
-279.472	-200.000	-0.022	-0.104
-278.457	-93.880	0.110	-0.030
-277.443	78.500	-0.147	0.156
-276.428	181.765	0.134	-0.195
-275.413	-32.186	-0.215	-0.119
-274.399	-32.432	0.327	-0.181
-273.384	-200.000	-0.050	0.267
-272.370	-200.000	0.024	0.246
-271.355	100.621	-0.157	0.180
-270.340	34.617	0.220	0.190
-269.326	-200.000	-0.032	-0.288
-268.311	800.000	0.033	0.125
-267.297	85.233	-0.069	0.075
-266.282	550.399	0.083	-0.197
-265.267	800.000	-0.031	-0.122
-264.253	-200.000	-0.047	-0.223
-263.238	-70.299	0.296	-0.111
-262.224	-38.431	0.280	-0.146
-261.209	-111.167	0.301	0.061
-260.195	800.000	-0.075	-0.214
-259.180	-35.186	0.405	-0.218
-258.165	-200.000	-0.004	0.039
-257.151	89.131	-0.103	-0.113
-256.136	-30.643	-0.133	-0.075
-255.122	-46.432	-0.373	0.181
-254.107	36.892	-0.234	-0.204
-253.092	-46.687	0.095	-0.046
-252.078	-200.000	0.001	-0.155
-251.063	381.689	-0.111	-0.226
-250.049	-27.920	-0.131	-0.075
-249.034	285.538	0.065	0.117
-248.019	541.432	-0.106	0.249
-247.005	-175.976	0.031	0.001
-245.990	-200.000	-0.036	-0.416
-244.976	-57.703	-0.252	-0.109
-243.961	211.271	-0.026	0.040
-242.946	-200.000	0.063	-0.341
-241.932	-134.134	-0.130	0.016
-240.917	-200.000	-0.063	0.309
-239.903	-109.775	-0.443	-0.092
-238.888	-91.819	0.114	-0.032
-237.873	112.235	0.214	-0.255
-236.859	-150.256	-0.477	0.036
-235.844	-68.661	-0.209	0.080
-234.830	-107.251	-0.199	-0.043
-233.815	265.923	-0.110	0.189
-232.800	800.000	-0.084	0.275
-231.786	14.106	0.143	0.110
-230.771	-120.374	-0.089	0.015
-229.757	-200.000	0.269	0.000
-228.742	-200.000	-0.014	-0.235
-227.727	752.776	-0.060	-0.159
-226.713	-79.270	0.191	-0.064
-225.698	-100.594	-0.114	0.028
-224.684	-200.000	0.018	-0.179
-223.669	24.090	0.140	0.114
-222.655	1.748	0.167	-0.119
-221.640	-128.350	0.289	-0.041
-220.625	18.271	-0.235	0.185
-219.611	-33.860	0.236	0.129
-218.596	-62.323	0.247	0.101
-217.582	14.382	0.084	-0.065
-216.567	800.000	-0.073	-0.207
-215.552	-48.747	0.288	-0.136
-214.538	61.161	0.232	0.227
-213.523	-200.000	0.013	-0.109
-212.509	33.596	-0.214	0.183
-211.494	-18.413	0.162	0.100
-210.479	33.576	-0.119	-0.102
-209.465	-200.000	0.022	0.145
-208.450	262.843	-0.159	0.273
-207.436	-183.000	-0.288	-0.005
-206.421	-89.669	0.065	-0.019
-205.406	6.688	0.170	-0.125
-204.392	748.751	-0.065	-0.173
-203.377	-200.000	-0.061	0.312
-202.363	-36.092	0.269	0.143
-201.348	-57.481	0.192	-0.083
-200.333	38.043	-0.058	-0.051
-199.319	-181.463	-0.245	0.005
-198.304	67.724	-0.184	0.186
-197.290	-200.000	-0.093	-0.430
-196.275	-68.280	-0.166	-0.064
-195.260	-47.024	0.051	-0.024
-194.246	-21.525	-0.209	0.126
-193.231	-78.242	-0.015	-0.005
-192.217	129.790	-0.145	0.183
-191.202	18.917	0.120	0.095
-190.187	12.302	-0.105	0.080
-189.173	-200.000	0.031	0.151
-188.158	15.639	-0.101	0.079
-187.144	-100.988	-0.164	0.040
-186.129	-96.188	-0.270	-0.071
-185.114	-28.118	-0.040	-0.023
-184.100	-25.451	-0.131	-0.077
-183.085	-200.000	-0.040	0.197
-182.071	-200.000	0.019	-0.354
-181.056	-87.983	-0.151	-0.045
-180.042	-21.246	-0.278	-0.167
-179.027	227.904	0.176	-0.282
-178.012	48.615	0.239	-0.221
-176.998	-3.408	-0.073	0.050
-175.983	-200.000	0.008	0.095
-174.969	-42.046	-0.265	0.134
-173.954	58.848	0.056	-0.054
-172.939	-200.000	-0.016	0.197
-171.925	-42.338	-0.338	-0.170
-170.910	161.544	0.133	0.184
-169.896	43.560	-0.288	0.259
-168.881	800.000	-0.029	0.099
-167.866	41.418	-0.240	-0.214
-166.852	800.000	0.054	-0.153
-165.837	82.228	-0.163	-0.174
-164.823	-67.902	0.402	-0.155
-163.808	214.961	0.040	0.063
-162.793	-65.146	0.232	0.092
-161.779	-17.858	-0.053	-0.033
-160.764	81.623	0.211	-0.224
-159.750	800.000	0.044	-0.129
-158.735	-200.000	0.011	-0.120
-157.720	16.602	-0.288	0.225
-156.706	-107.475	-0.105	0.023
-155.691	-48.854	-0.159	0.075
-154.677	160.423	-0.137	-0.188
-153.662	800.000	0.026	0.095
-152.647	58.444	0.084	0.081
-151.633	616.650	-0.085	-0.211
-150.618	800.000	0.051	0.205
-149.604	67.950	0.085	0.085
-148.589	220.938	0.170	-0.268
-147.574	673.395	0.112	0.286
-146.560	96.508	-0.198	-0.223
-145.545	80.350	0.306	0.324
-144.531	-92.707	-0.327	-0.090
-143.516	-96.760	0.300	0.078
-142.502	130.871	-0.074	0.094
-141.487	351.418	-0.068	-0.132
-140.472	782.797	-0.097	0.261
-139.458	69.443	-0.148	-0.150
-138.443	-105.735	-0.290	0.064
-137.429	-2.788	0.169	-0.116
-136.414	270.940	0.049	-0.084
-135.399	-101.627	-0.109	0.026
-134.385	-34.471	0.300	-0.162
-133.370	-4.204	-0.212	0.144
-132.356	-173.347	-0.125	-0.004
-131.341	-197.411	0.206	-0.001
-130.326	-35.077	-0.114	0.061
-129.312	-157.727	-0.285	-0.017
-128.297	800.000	0.060	0.224
-127.283	374.675	0.107	0.214
-126.268	-200.000	0.039	-0.356
-125.253	37.722	0.232	0.202
-124.239	-41.027	0.239	-0.121
-123.224	680.899	0.101	0.258
-122.210	-200.000	-0.013	0.120
-121.195	-64.538	-0.233	-0.093
-120.180	-200.000	0.019	-0.106
-119.166	-80.226	-0.207	-0.068
-118.151	-114.890	0.017	-0.003
-117.137	-77.937	0.154	0.052
-116.122	800.000	0.045	-0.141
-115.107	151.764	-0.182	0.244
-114.093	-11.773	0.114	-0.074
-113.078	261.444	0.035	0.059
-112.064	163.713	-0.221	-0.305
-111.049	-98.083	0.154	-0.039
-110.034	-131.703	0.271	0.035
-109.020	-200.000	-0.010	0.281
-108.005	125.796	0.133	-0.165
-106.991	800.000	0.028	0.086
-105.976	-200.000	-0.043	-0.302
-104.962	61.421	0.123	0.120
-103.947	13.034	0.240	0.182
-102.932	504.038	0.046	0.105
-101.918	-124.506	0.155	-0.024
-100.903	5.278	0.251	-0.182
-99.889	-90.472	0.529	-0.151
-98.874	-200.000	-0.009	-0.213
-97.859	-129.466	0.185	0.025
-96.845	-200.000	-0.020	0.203
-95.830	48.805	0.214	0.197
-94.816	800.000	0.093	0.349
-93.801	800.000	-0.042	0.121
-92.786	-9.221	-0.185	-0.122
-91.772	-136.444	0.486	0.055
-90.757	54.482	-0.288	0.272
-89.743	-200.000	0.004	0.275
-88.728	-200.000	-0.033	-0.205
-87.713	-137.708	0.323	-0.036
-86.699	-43.552	0.195	0.097
-85.684	-200.000	0.038	-0.286
-84.670	541.390	0.110	0.258
-83.655	-128.404	-0.121	-0.017
-82.640	-125.890	0.007	0.001
-81.626	800.000	0.139	-0.384
-80.611	-93.261	0.202	-0.055
-79.597	-156.374	0.331	-0.020
-78.582	800.000	0.037	-0.131
-77.567	-143.759	-0.128	-0.012
-76.553	800.000	-0.061	-0.200
-75.538	800.000	-0.079	-0.258
-74.524	293.416	-0.140	0.250
-73.509	74.379	-0.141	0.145
-72.494	109.199	-0.215	0.252
-71.480	800.000	-0.090	0.256
-70.465	369.380	0.192	0.381
-69.451	-104.901	0.073	0.016
-68.436	800.000	0.117	-0.470
-67.422	-117.433	0.029	-0.005
-66.407	800.000	-0.106	-0.396
-65.392	308.995	0.132	-0.241
-64.378	329.283	-0.126	0.238
-63.363	70.546	-0.244	-0.248
-62.349	-200.000	-0.032	0.441
-61.334	45.785	-1.288	-1.169
-60.319	148.216	0.588	0.778
-59.305	800.000	-0.445	-1.336
-58.290	260.255	0.768	1.302
-57.276	484.706	0.731	1.631
-56.261	-200.000	121.439	622.030
-55.246	379.506	1577.702	3170.019
-54.232	136.614	2759.780	3533.186
-53.217	85.899	2362.939	2549.420
-52.203	30.814	2104.477	1767.435
-51.188	26.062	2018.614	1651.871
-50.173	24.858	2002.063	1627.320
-49.159	41.497	2071.110	1838.326
-48.144	40.455	2084.598	1840.551
-47.130	26.563	2038.071	1672.151
-46.115	24.465	2026.726	1643.488
-45.100	24.369	2023.790	1640.162
-44.086	24.352	2020.974	1637.651
-43.071	24.334	2018.801	1635.665
-42.057	24.295	2016.651	1633.502
-41.042	24.315	2015.018	1632.292
-40.027	24.303	2013.129	1630.588
-39.013	24.328	2010.500	1628.625
-37.998	24.309	2008.896	1627.087
-36.984	24.282	2007.749	1625.852
-35.969	24.299	2005.351	1623.994
-34.954	24.305	2003.491	1622.476
-33.940	24.396	2002.076	1622.094
-32.925	24.418	2000.382	1620.860
-31.911	24.504	1998.801	1620.298
-30.896	24.463	1996.970	1618.374
-29.881	24.465	1995.545	1617.175
-28.867	24.461	1994.189	1615.974
-27.852	24.520	1992.197	1614.833
-26.838	24.442	1991.000	1613.090
-25.823	24.498	1988.526	1611.529
-24.809	24.461	1986.993	1609.887
-23.794	24.379	1985.498	1607.872
-22.779	24.487	1983.321	1607.020
-21.765	24.404	1981.636	1604.846
-20.750	24.483	1980.106	1604.247
-19.736	24.448	1978.094	1602.248
-18.721	24.512	1976.869	1601.764
-17.706	24.459	1975.288	1599.945
-16.692	24.527	1973.473	1599.017
-15.677	24.404	1972.099	1596.736
-14.663	24.397	1970.701	1595.480
-13.648	24.468	1969.029	1594.703
-12.633	24.479	1967.495	1593.496
-11.619	24.464	1966.481	1592.471
-10.604	24.342	1965.835	1590.795
-9.590	24.410	1964.242	1590.049
-8.575	24.449	1962.282	1588.749
-7.560	24.428	1961.386	1587.773
-6.546	24.430	1960.333	1586.878
-5.531	24.452	1958.787	1585.756
-4.517	24.449	1957.704	1584.791
-3.502	24.487	1956.193	1583.840
-2.487	24.410	1955.229	1582.319
-1.473	24.490	1953.817	1581.824
-0.458	24.560	1949.189	1578.634
0.556	23.342	1929.854	1551.985
1.571	19.254	1911.693	1501.697
2.586	15.451	1935.775	1486.849
3.600	14.461	1971.826	1505.472
4.615	14.481	1965.115	1500.394
5.629	11.588	1863.190	1397.731
6.644	4.759	1747.865	1256.143
7.659	1.024	1714.399	1202.374
8.673	0.718	1711.227	1197.619
9.688	0.758	1709.851	1196.869
10.702	0.706	1708.276	1195.245
11.717	0.669	1704.431	1192.159
12.731	1.067	1703.497	1194.538
13.746	6.168	1713.740	1241.988
14.761	13.053	1728.633	1307.370
15.775	16.593	1734.060	1339.429
16.790	17.082	1734.072	1343.193
17.804	16.318	1730.956	1334.626
18.819	15.373	1727.873	1324.674
19.834	14.799	1725.424	1318.146
20.848	14.434	1724.021	1314.081
21.863	14.221	1722.137	1310.858
22.877	13.932	1720.607	1307.297
23.892	13.716	1719.112	1304.352
24.907	13.625	1717.905	1302.602
25.921	13.577	1716.747	1301.234
26.936	13.616	1715.687	1300.617
27.950	13.555	1714.881	1299.418
28.965	13.676	1714.341	1299.838
29.980	13.666	1713.772	1299.217
30.994	13.727	1712.734	1298.791
32.009	13.798	1711.872	1298.580
33.023	13.842	1710.914	1298.084
34.038	13.822	1710.159	1297.236
35.053	13.783	1708.943	1295.893
36.067	13.847	1707.089	1294.872
37.082	13.782	1706.768	1294.007
38.096	13.738	1705.715	1292.749
39.111	13.729	1705.307	1292.260
40.126	13.765	1704.174	1291.563
41.140	13.743	1702.871	1290.291
42.155	13.636	1701.607	1288.387
43.169	13.603	1700.118	1286.894
44.184	13.598	1698.904	1285.820
45.199	13.578	1697.983	1284.850
46.213	13.585	1697.006	1284.056
47.228	13.604	1695.489	1282.939
48.242	13.656	1693.653	1281.840
49.257	13.616	1692.937	1280.877
50.271	13.692	1691.490	1280.251
51.286	13.723	1689.681	1279.009
52.301	13.697	1688.568	1277.853
53.315	13.705	1687.562	1277.040
54.330	13.608	1685.898	1274.925
55.344	13.622	1684.471	1273.841
56.359	13.638	1682.725	1272.533
57.374	13.590	1681.510	1271.129
58.388	13.588	1680.369	1270.142
59.403	13.579	1679.119	1269.013
60.417	13.555	1677.325	1267.360
61.432	13.547	1676.440	1266.518
62.447	13.545	1675.104	1265.385
63.461	13.536	1674.105	1264.445
64.476	13.470	1673.167	1263.121
65.490	13.632	1671.241	1262.793
66.505	13.612	1670.217	1261.757
67.520	13.501	1669.772	1260.461
68.534	13.541	1668.766	1259.898
69.549	13.609	1667.364	1259.242
70.563	13.584	1665.631	1257.629
71.578	13.529	1664.299	1256.100
72.593	13.590	1663.440	1255.800
73.607	13.498	1662.553	1254.322
74.622	13.483	1661.506	1253.307
75.636	13.454	1660.219	1252.009
76.651	13.481	1659.594	1251.633
77.666	13.497	1658.451	1250.780
78.680	13.523	1657.828	1250.395
79.695	13.522	1656.540	1249.303
80.709	13.425	1656.059	1248.097
81.724	13.545	1654.364	1247.613
82.739	13.529	1653.672	1246.860
83.753	13.549	1652.540	1246.052
84.768	13.643	1651.238	1245.667
85.782	13.645	1650.772	1245.216
86.797	13.693	1649.821	1244.747
87.812	13.708	1648.451	1243.720
88.826	13.698	1647.383	1242.727
89.841	13.619	1646.173	1241.113
90.855	13.614	1645.464	1240.429
91.870	13.609	1643.982	1239.166
92.884	13.748	1643.340	1239.612
93.899	13.682	1642.037	1238.023
94.914	13.672	1641.205	1237.214
95.928	13.656	1640.128	1236.172
96.943	13.753	1638.543	1235.594
97.957	13.781	1636.796	1234.373
98.972	13.662	1635.184	1232.168
99.987	13.727	1633.650	1231.387
101.001	13.696	1632.089	1229.866
102.016	13.740	1630.426	1228.830
103.030	13.698	1629.142	1227.446
104.045	13.672	1628.401	1226.586
105.060	13.649	1627.340	1225.506
106.074	13.684	1624.686	1223.656
107.089	13.653	1623.625	1222.523
108.103	13.658	1621.935	1221.182
109.118	13.506	1621.216	1219.411
110.133	13.625	1619.526	1218.905
111.147	13.613	1617.732	1217.359
112.162	13.654	1616.509	1216.632
113.176	13.575	1615.330	1215.062
114.191	13.667	1613.607	1214.328
115.206	13.676	1612.561	1213.504
116.220	13.563	1611.347	1211.651
117.235	13.655	1609.734	1211.002
118.249	13.707	1608.138	1210.074
119.264	13.614	1607.396	1208.734
120.279	13.623	1606.248	1207.830
121.293	13.583	1604.305	1205.973
122.308	13.696	1602.417	1205.266
123.322	13.562	1601.153	1203.237
124.337	13.607	1599.976	1202.570
125.352	13.628	1598.281	1201.342
126.366	13.543	1597.513	1200.045
127.381	13.641	1595.964	1199.482
128.395	13.716	1594.784	1199.035
129.410	13.560	1593.727	1197.007
130.424	13.581	1592.231	1195.923
131.439	13.625	1591.042	1195.247
132.454	13.616	1589.464	1193.890
133.468	13.677	1588.131	1193.219
134.483	13.729	1586.507	1192.266
135.497	13.678	1585.308	1190.895
136.512	13.666	1583.826	1189.589
137.527	13.707	1582.444	1188.742
138.541	13.688	1581.158	1187.535
139.556	13.676	1579.641	1186.205
140.570	13.669	1578.400	1185.117
141.585	13.844	1576.824	1185.076
142.600	13.821	1575.527	1183.833
143.614	13.822	1574.602	1183.044
144.629	13.906	1573.148	1182.447
145.643	13.853	1571.816	1180.959
146.658	13.875	1570.637	1180.125
147.673	13.863	1569.275	1178.911
148.687	13.757	1567.738	1176.902
149.702	13.912	1565.820	1176.454
150.716	13.876	1564.153	1174.847
151.731	13.811	1562.890	1173.337
152.746	13.864	1561.765	1172.760
153.760	13.802	1560.769	1171.468
154.775	13.822	1559.272	1170.381
155.789	13.970	1557.647	1170.105
156.804	13.939	1556.707	1169.073
157.819	13.959	1555.272	1168.034
158.833	13.891	1554.186	1166.642
159.848	14.065	1552.381	1166.405
160.862	13.946	1551.564	1164.848
161.877	14.058	1550.147	1164.468
162.892	13.951	1549.336	1163.008
163.906	13.879	1548.097	1161.469
164.921	13.917	1546.190	1160.201
165.935	13.866	1545.184	1158.990
166.950	13.983	1544.326	1159.056
167.964	14.024	1542.688	1158.011
168.979	14.002	1541.972	1157.221
169.994	14.041	1540.994	1156.657
171.008	14.037	1540.208	1155.933
172.023	14.067	1538.692	1154.903
173.037	14.134	1537.099	1154.067
174.052	14.137	1536.021	1153.179
175.067	14.137	1535.505	1152.688
176.081	14.035	1534.530	1151.145
177.096	14.064	1532.693	1149.870
178.110	14.122	1531.305	1149.124
179.125	14.046	1530.826	1148.143
180.140	14.131	1529.568	1147.686
181.154	14.171	1527.980	1146.662
182.169	14.001	1527.611	1145.114
183.183	14.173	1525.806	1144.844
184.198	14.220	1524.674	1144.218
185.213	14.309	1523.532	1143.872
186.227	14.198	1522.768	1142.432
187.242	14.237	1521.500	1141.647
188.256	14.244	1520.639	1140.950
189.271	14.362	1519.239	1140.604
190.286	14.363	1518.097	1139.655
191.300	14.300	1517.141	1138.407
192.315	14.188	1515.961	1136.655
193.329	14.119	1514.622	1135.076
194.344	14.098	1513.630	1134.090
195.359	14.200	1512.142	1133.571
196.373	14.181	1511.243	1132.666
197.388	14.253	1510.296	1132.351
198.402	14.346	1509.720	1132.445
199.417	14.303	1508.227	1130.934
200.432	14.384	1507.285	1130.677
201.446	14.506	1506.394	1130.738
202.461	14.480	1505.025	1129.437
203.475	14.531	1503.856	1128.800
204.490	14.541	1503.239	1128.307
205.504	14.548	1501.952	1127.291
206.519	14.542	1500.574	1126.117
207.534	14.523	1499.413	1125.016
208.548	14.519	1498.660	1124.321
209.563	14.483	1497.424	1123.055
210.577	14.586	1496.296	1122.801
211.592	14.562	1495.377	1121.849
212.607	14.590	1494.636	1121.386
213.621	14.559	1494.104	1120.681
214.636	14.652	1492.534	1120.029
215.650	14.701	1491.305	1119.334
216.665	14.631	1490.834	1118.410
217.680	14.575	1490.247	1117.499
218.694	14.708	1489.102	1117.427
219.709	14.632	1488.392	1116.286
220.723	14.667	1487.522	1115.773
221.738	14.749	1485.929	1115.022
222.753	14.685	1485.496	1114.174
223.767	14.676	1484.420	1113.210
224.782	14.691	1483.358	1112.416
225.796	14.760	1482.875	1112.413
226.811	14.803	1481.289	1111.413
227.826	14.866	1480.283	1110.977
228.840	14.762	1479.783	1109.813
229.855	14.895	1478.563	1109.678
230.869	14.816	1477.856	1108.531
231.884	14.854	1476.198	1107.438
232.899	14.837	1475.894	1106.997
233.913	14.751	1474.680	1105.421
234.928	14.804	1473.211	1104.575
235.942	14.756	1472.140	1103.357
236.957	14.841	1470.864	1102.862
237.972	14.876	1469.741	1102.151
238.986	14.934	1468.232	1101.310
240.001	14.900	1467.732	1100.611
241.015	14.941	1466.536	1099.888
242.030	14.853	1465.548	1098.469
243.045	14.916	1464.146	1097.732
244.059	15.017	1463.048	1097.475
245.074	14.900	1462.520	1096.217
246.088	15.012	1461.680	1096.223
247.103	15.006	1461.130	1095.673
248.117	15.004	1460.472	1095.072
249.132	15.069	1459.422	1094.610
250.147	15.068	1459.246	1094.379
251.161	15.012	1458.692	1093.501
252.176	15.105	1457.381	1093.026
253.190	15.101	1457.036	1092.647
254.205	15.156	1456.003	1092.130
255.220	15.286	1454.794	1091.976
256.234	15.310	1454.017	1091.450
257.249	15.380	1452.986	1091.037
258.263	15.415	1452.022	1090.445
259.278	15.277	1451.691	1089.202
260.293	15.315	1450.430	1088.407
261.307	15.394	1449.501	1088.126
262.322	15.396	1448.822	1087.534
263.336	15.370	1448.280	1086.859
264.351	15.431	1447.510	1086.583
265.366	15.433	1446.224	1085.531
266.380	15.507	1444.681	1084.754
267.395	15.503	1443.882	1084.036
268.409	15.505	1443.229	1083.460
269.424	15.611	1442.214	1083.290
270.439	15.565	1440.925	1081.926
271.453	15.487	1440.316	1080.874
272.468	15.556	1439.135	1080.332
273.482	15.545	1438.705	1079.844
274.497	15.561	1437.826	1079.194
275.512	15.617	1436.746	1078.642
276.526	15.467	1436.476	1077.384
277.541	15.542	1435.175	1076.797
278.555	15.624	1434.121	1076.433
279.570	15.571	1432.946	1075.119
280.585	15.612	1431.842	1074.456
281.599	15.779	1431.107	1074.875
282.614	15.707	1430.705	1074.021
283.628	15.656	1429.620	1072.782
284.643	15.719	1428.347	1072.134
285.657	15.701	1426.997	1070.914
286.672	15.657	1426.149	1069.902
287.687	15.759	1425.484	1069.960
288.701	15.756	1424.287	1068.944
289.716	15.765	1423.447	1068.280
290.730	15.780	1423.120	1068.029
291.745	15.904	1421.436	1067.463
292.760	15.799	1420.064	1065.671
293.774	15.741	1419.459	1064.753
294.789	15.884	1418.293	1064.688
295.803	15.867	1417.388	1063.811
296.818	15.948	1416.964	1063.907
297.833	15.910	1415.719	1062.640
298.847	15.900	1414.613	1061.649
299.862	15.841	1413.734	1060.525
300.876	15.910	1412.600	1060.015
301.891	15.963	1411.573	1059.486
302.906	15.949	1411.042	1058.907
303.920	16.026	1410.623	1058.982
304.935	16.019	1409.621	1058.089
305.949	16.022	1408.759	1057.369
306.964	16.077	1407.789	1056.893
307.979	16.125	1406.823	1056.377
308.993	16.123	1406.072	1055.703
310.008	16.083	1405.022	1054.572
311.022	16.048	1403.773	1053.324
312.037	16.202	1402.732	1053.412
313.052	16.226	1401.898	1052.841
314.066	16.096	1401.302	1051.490
315.081	16.085	1400.033	1050.374
316.095	16.141	1398.773	1049.689
317.110	16.160	1397.834	1049.010
318.125	16.066	1397.046	1047.741
319.139	16.178	1395.964	1047.527
320.154	16.057	1394.963	1045.935
321.168	16.114	1394.131	1045.571
322.183	16.159	1392.692	1044.680
323.197	16.195	1391.974	1044.269
324.212	16.261	1391.033	1043.881
325.227	16.264	1390.098	1043.106
326.241	16.281	1389.240	1042.473
327.256	16.208	1388.481	1041.364
328.270	16.277	1387.884	1041.248
329.285	16.248	1386.939	1040.267
330.300	16.311	1385.926	1039.804
331.314	16.382	1384.786	1039.292
332.329	16.310	1383.836	1038.048
333.343	16.355	1382.995	1037.598
334.358	16.306	1382.243	1036.642
335.373	16.372	1381.090	1036.088
336.387	16.324	1380.606	1035.345
337.402	16.382	1380.030	1035.177
338.416	16.476	1378.774	1034.715
339.431	16.440	1378.683	1034.336
340.446	16.548	1377.324	1033.882
341.460	16.597	1376.606	1033.552
342.475	16.580	1375.333	1032.402
343.489	16.489	1374.779	1031.341
344.504	16.545	1373.829	1030.880
345.519	16.670	1372.425	1030.495
346.533	16.634	1371.643	1029.600
347.548	16.632	1370.476	1028.620
348.562	16.621	1370.110	1028.185
349.577	16.674	1369.429	1027.906
350.592	16.703	1368.640	1027.398
351.606	16.677	1367.685	1026.431
352.621	16.692	1366.431	1025.492
353.635	16.679	1365.429	1024.572
354.650	16.668	1364.342	1023.595
355.665	16.605	1363.476	1022.478
356.679	16.679	1362.296	1021.948
357.694	16.668	1361.196	1020.964
358.708	16.767	1360.293	1020.795
359.723	16.798	1359.006	1019.926
360.738	16.766	1358.006	1018.889
361.752	16.846	1356.800	1018.378
362.767	16.810	1355.806	1017.323
363.781	16.719	1355.328	1016.331
364.796	16.830	1354.408	1016.216
365.810	16.759	1353.962	1015.366
366.825	16.846	1352.842	1014.958
367.840	16.891	1351.856	1014.395
368.854	16.815	1352.013	1013.969
369.869	17.064	1350.887	1014.526
370.883	16.957	1350.226	1013.297
371.898	17.025	1349.101	1012.771
372.913	16.933	1348.427	1011.629
373.927	16.973	1347.687	1011.223
374.942	17.060	1346.461	1010.727
375.956	17.001	1345.909	1009.872
376.971	17.053	1345.059	1009.455
377.986	16.989	1344.886	1008.857
379.000	17.038	1343.820	1008.259
380.015	17.135	1343.001	1008.128
381.029	17.082	1342.083	1007.040
382.044	17.111	1341.414	1006.620
383.059	17.169	1340.553	1006.225
384.073	17.219	1339.897	1005.944
385.088	17.237	1339.204	1005.439
386.102	17.237	1338.470	1004.801
387.117	17.294	1337.293	1004.164
388.132	17.297	1336.964	1003.847
389.146	17.221	1335.961	1002.557
390.161	17.254	1335.215	1002.104
391.175	17.298	1333.714	1001.143
392.190	17.333	1333.312	1000.962
393.205	17.247	1333.030	1000.154
394.219	17.335	1331.745	999.617
395.234	17.389	1330.349	998.799
396.248	17.476	1328.733	998.006
397.263	17.397	1327.369	996.432
398.278	17.306	1326.197	994.934
399.292	17.380	1325.142	994.488
400.307	17.369	1324.366	993.749
401.321	17.414	1323.112	992.986
402.336	17.388	1322.209	992.064
403.350	17.326	1321.449	991.050
404.365	17.285	1320.483	989.996
405.380	17.344	1319.399	989.442
406.394	17.496	1318.313	989.423
407.409	17.502	1317.620	988.852
408.423	17.480	1317.485	988.534
409.438	17.489	1316.494	987.753
410.453	17.547	1315.713	987.417
411.467	17.563	1314.906	986.818
412.482	17.641	1314.102	986.579
413.496	17.664	1313.250	985.981
414.511	17.711	1312.684	985.742
415.526	17.664	1312.192	985.016
416.540	17.688	1311.361	984.440
417.555	17.695	1310.623	983.840
418.569	17.780	1309.938	983.728
419.584	17.633	1309.691	982.608
420.599	17.839	1308.656	982.933
421.613	99.594	1361.061	1485.849
422.628	98.092	1368.641	1485.968
