DTS Sentinel unit serial number:	SN413079Multiplexer serial number:	ORYXHardware model number:	OX4-SRSoftware version number:	ORYX F/W v4.00 Oryx Data Collector v3.7.2.0data status	okinstallation	princeton_trtdifferential loss correction	single-endedforward channel	channel 4reverse channel	N/Adate	2019/09/17time	03:21:35forward acquisition time	60.00reverse acquisition time	0.00gamma	496.2192k internal	0.2311k external	0.2311temperature offset calibration	0.9973default loss term (dB/km)	0.3790temperature slope calibration	1.0000multiplexer offset coefficient	1.0000multiplexer slope coefficient	1.0000fibre end	0.00T internal ref (°C)	30.00T ext. ref 1 (°C)	0.14T ext. ref 2 (°C)	24.84length (m)	temperature (°C)	Stokes	anti-Stokes-747.200	800.000	-0.083	-0.232
-746.185	19.459	-0.181	0.148
-745.171	118.065	-0.113	0.142
-744.156	68.843	0.250	0.260
-743.142	-84.920	0.078	0.025
-742.127	-200.000	-0.032	0.367
-741.112	26.088	-0.113	-0.096
-740.098	800.000	-0.136	0.463
-739.083	105.811	0.235	0.283
-738.069	657.887	0.070	-0.183
-737.054	-98.071	0.163	-0.043
-736.039	34.773	-0.320	0.284
-735.025	16.088	-0.169	-0.135
-734.010	-83.044	-0.126	-0.041
-732.996	-41.141	-0.517	-0.271
-731.981	-123.500	-0.364	0.059
-730.966	-200.000	0.016	0.315
-729.952	147.896	-0.306	0.419
-728.937	-134.255	-0.071	-0.009
-727.923	800.000	0.089	-0.252
-726.908	345.742	0.077	0.153
-725.894	-49.562	0.337	0.163
-724.879	-69.202	-0.243	-0.095
-723.864	-91.390	0.097	-0.028
-722.850	-36.265	-0.197	-0.108
-721.835	-21.409	-0.161	0.100
-720.821	0.250	-0.228	-0.165
-719.806	305.262	-0.279	-0.526
-718.791	-110.699	-0.168	0.035
-717.777	800.000	0.048	-0.143
-716.762	-48.592	-0.194	-0.094
-715.748	-29.809	0.543	0.314
-714.733	200.934	-0.042	-0.065
-713.718	800.000	-0.100	-0.289
-712.704	9.535	0.239	-0.184
-711.689	-38.505	0.142	0.076
-710.675	-43.805	-0.221	0.113
-709.660	546.475	-0.118	-0.286
-708.645	353.054	0.045	-0.091
-707.631	800.000	0.026	0.102
-706.616	800.000	0.039	0.109
-705.602	-25.726	0.289	-0.173
-704.587	320.773	0.061	0.117
-703.572	73.453	0.046	-0.049
-702.558	-45.918	-0.083	0.042
-701.543	-42.622	0.372	0.192
-700.529	159.255	0.190	0.267
-699.514	-200.000	0.032	-0.251
-698.499	-176.968	-0.417	-0.011
-697.485	-36.586	-0.158	0.086
-696.470	6.214	-0.248	0.186
-695.456	154.661	0.100	0.139
-694.441	800.000	0.032	-0.112
-693.426	145.424	0.039	-0.054
-692.412	-74.929	-0.186	-0.068
-691.397	-123.639	-0.151	0.024
-690.383	145.666	-0.127	-0.172
-689.368	86.806	0.192	-0.215
-688.354	14.806	-0.132	-0.104
-687.339	800.000	0.065	0.218
-686.324	-50.627	0.177	0.084
-685.310	-82.911	-0.217	-0.071
-684.295	-139.843	0.143	0.015
-683.281	403.556	0.021	0.045
-682.266	-71.719	0.123	-0.047
-681.251	-200.000	0.007	-0.047
-680.237	-80.015	0.044	0.015
-679.222	800.000	-0.100	-0.366
-678.208	51.800	-0.087	-0.084
-677.193	-123.332	0.143	-0.023
-676.178	-17.826	-0.143	0.091
-675.164	-28.347	-0.242	-0.141
-674.149	800.000	-0.082	-0.247
-673.135	-91.985	-0.053	-0.015
-672.120	-200.000	-0.027	0.146
-671.105	34.612	-0.068	-0.060
-670.091	-200.000	-0.012	-0.120
-669.076	-27.744	0.140	0.082
-668.062	-126.368	-0.115	-0.017
-667.047	130.839	-0.032	0.041
-666.032	110.054	-0.165	0.200
-665.018	138.344	-0.211	-0.280
-664.003	-200.000	0.059	-0.354
-662.989	205.416	0.047	-0.074
-661.974	86.255	-0.098	-0.109
-660.959	-65.201	0.157	-0.064
-659.945	47.130	-0.158	-0.149
-658.930	-200.000	-0.008	-0.233
-657.916	-200.000	0.012	0.079
-656.901	-47.117	-0.123	-0.061
-655.886	180.811	-0.125	-0.185
-654.872	-0.238	0.204	0.147
-653.857	-139.132	0.256	-0.028
-652.843	134.405	-0.083	-0.108
-651.828	421.247	-0.087	-0.189
-650.814	-69.243	0.066	-0.026
-649.799	-198.009	0.177	0.001
-648.784	139.024	-0.108	0.144
-647.770	-17.159	0.036	0.023
-646.755	-92.209	0.149	-0.042
-645.741	-44.934	-0.263	0.132
-644.726	-200.000	-0.025	0.188
-643.711	-18.481	-0.087	-0.055
-642.697	-149.925	-0.208	0.016
-641.682	-200.000	-0.013	-0.073
-640.668	-36.873	-0.177	-0.096
-639.653	-200.000	-0.014	-0.149
-638.638	123.059	0.117	-0.148
-637.624	-200.000	0.001	0.131
-636.609	-200.000	0.007	0.139
-635.595	-53.852	-0.040	0.018
-634.580	-91.729	-0.301	0.086
-633.565	-71.112	-0.041	0.015
-632.551	164.852	0.130	0.185
-631.536	-51.743	0.100	0.047
-630.522	800.000	-0.102	0.385
-629.507	35.390	0.427	0.378
-628.492	-129.793	0.309	-0.043
-627.478	-117.279	-0.346	-0.064
-626.463	260.957	-0.041	0.072
-625.449	800.000	-0.040	-0.150
-624.434	-171.690	-0.386	0.013
-623.419	-129.789	-0.230	-0.032
-622.405	241.508	0.107	0.180
-621.390	800.000	-0.054	0.188
-620.376	-95.144	-0.469	-0.128
-619.361	-197.283	0.135	-0.001
-618.346	-80.812	-0.199	0.067
-617.332	14.137	0.063	0.050
-616.317	296.880	-0.029	0.053
-615.303	464.092	-0.110	0.248
-614.288	800.000	-0.057	0.251
-613.273	-53.422	-0.101	0.047
-612.259	-82.609	0.465	-0.152
-611.244	-200.000	-0.008	-0.124
-610.230	45.487	0.182	-0.169
-609.215	800.000	-0.160	-0.463
-608.201	45.368	0.197	-0.184
-607.186	-128.521	0.077	-0.011
-606.171	-105.365	-0.167	-0.038
-605.157	-113.671	-0.219	-0.043
-604.142	-82.315	0.107	0.035
-603.128	3.112	-0.073	-0.053
-602.113	-200.000	-0.014	-0.111
-601.098	-200.000	-0.078	0.000
-600.084	613.896	0.109	-0.274
-599.069	-200.000	-0.042	-0.258
-598.055	-200.000	-0.025	0.127
-597.040	800.000	0.042	0.161
-596.025	-200.000	-0.029	-0.193
-595.011	-69.398	-0.221	0.086
-593.996	56.133	-0.154	0.151
-592.982	-131.354	-0.154	-0.021
-591.967	246.668	0.071	-0.121
-590.952	18.858	0.271	-0.219
-589.938	-129.111	0.068	-0.010
-588.923	-104.564	0.146	-0.034
-587.909	-77.501	0.424	0.148
-586.894	-2.399	-0.074	0.053
-585.879	-200.000	-0.032	0.367
-584.865	-132.498	-0.198	0.026
-583.850	-114.755	-0.168	0.032
-582.836	-91.836	-0.153	-0.044
-581.821	-87.301	0.122	0.037
-580.806	800.000	-0.064	-0.188
-579.792	800.000	0.078	-0.257
-578.777	286.460	-0.070	-0.127
-577.763	-157.710	-0.297	-0.018
-576.748	-138.286	-0.127	-0.014
-575.733	325.634	0.103	0.199
-574.719	800.000	-0.025	-0.082
-573.704	142.265	-0.099	0.133
-572.690	120.015	0.040	-0.050
-571.675	123.986	0.067	-0.085
-570.661	-200.000	-0.028	-0.176
-569.646	800.000	-0.081	-0.330
-568.631	251.694	0.061	0.104
-567.617	8.248	-0.391	0.296
-566.602	142.357	-0.057	-0.077
-565.588	-200.000	0.034	0.158
-564.573	-47.193	-0.141	-0.069
-563.558	309.820	-0.174	-0.329
-562.544	53.029	-0.128	-0.123
-561.529	-200.000	-0.078	0.353
-560.515	-77.205	-0.071	0.025
-559.500	134.180	0.046	-0.060
-558.485	-200.000	-0.004	0.027
-557.471	339.638	-0.061	0.120
-556.456	107.024	0.230	-0.276
-555.442	-46.866	-0.181	-0.089
-554.427	-59.530	-0.173	-0.075
-553.412	-1.612	-0.204	-0.145
-552.398	-129.181	-0.155	-0.022
-551.383	800.000	-0.009	0.029
-550.369	-121.941	0.198	-0.033
-549.354	-93.429	0.084	0.024
-548.339	-0.602	-0.051	0.037
-547.325	-14.056	0.266	0.173
-546.310	-40.266	-0.038	-0.020
-545.296	110.476	-0.026	-0.031
-544.281	800.000	0.049	0.207
-543.266	165.159	0.124	0.177
-542.252	374.543	0.109	0.224
-541.237	800.000	-0.080	-0.249
-540.223	-200.000	-0.057	-0.559
-539.208	-68.241	0.213	0.083
-538.193	-107.567	0.141	0.031
-537.179	200.100	0.123	-0.190
-536.164	-86.288	-0.074	-0.023
-535.150	82.435	0.095	0.103
-534.135	-144.160	-0.439	-0.041
-533.121	-89.761	-0.123	0.036
-532.106	253.934	0.045	0.077
-531.091	-89.633	0.374	-0.110
-530.077	-99.745	0.348	-0.088
-529.062	-68.042	-0.201	0.079
-528.048	14.838	0.140	-0.110
-527.033	-2.532	-0.082	0.058
-526.018	-138.590	-0.239	0.026
-525.004	314.421	0.033	-0.063
-523.989	27.328	-0.047	-0.040
-522.975	263.269	0.189	-0.331
-521.960	-23.326	0.087	0.053
-520.945	-34.043	-0.136	-0.075
-519.931	11.090	-0.358	-0.276
-518.916	800.000	-0.105	-0.378
-517.902	-73.918	0.535	0.195
-516.887	-151.525	-0.232	0.017
-515.872	800.000	0.015	-0.052
-514.858	-45.967	-0.259	0.129
-513.843	-91.868	-0.181	-0.052
-512.829	-200.000	0.035	0.268
-511.814	235.945	-0.063	0.106
-510.799	595.966	0.050	0.126
-509.785	122.526	0.158	0.199
-508.770	244.115	0.072	0.121
-507.756	185.420	-0.117	0.174
-506.741	52.833	-0.069	0.067
-505.726	169.419	0.255	-0.367
-504.712	-200.000	0.032	-0.143
-503.697	-171.878	-0.191	0.006
-502.683	106.923	-0.112	0.134
-501.668	149.932	0.097	-0.133
-500.653	-200.000	-0.009	0.076
-499.639	-27.642	-0.043	0.025
-498.624	31.115	-0.267	0.230
-497.610	-81.370	0.275	0.091
-496.595	-200.000	0.025	-0.411
-495.581	195.766	0.135	-0.207
-494.566	742.649	-0.150	0.404
-493.551	180.376	-0.116	0.170
-492.537	222.062	-0.247	-0.400
-491.522	204.232	0.088	0.137
-490.508	53.728	0.242	-0.233
-489.493	-39.223	0.156	0.082
-488.478	-99.479	0.194	0.049
-487.464	-200.000	-0.013	0.185
-486.449	-43.087	0.275	0.140
-485.435	800.000	-0.108	0.318
-484.420	292.108	0.062	-0.114
-483.405	40.704	-0.246	0.223
-482.391	800.000	-0.044	0.138
-481.376	-86.450	-0.097	-0.030
-480.362	-200.000	-0.007	0.200
-479.347	272.005	0.139	0.246
-478.332	-160.340	0.240	0.013
-477.318	-200.000	0.008	-0.108
-476.303	-84.646	-0.242	-0.077
-475.289	35.761	0.127	-0.112
-474.274	800.000	-0.070	0.235
-473.259	192.690	0.064	-0.097
-472.245	227.156	0.097	-0.159
-471.230	-30.934	-0.280	-0.159
-470.216	71.955	0.084	0.087
-469.201	-4.063	-0.019	0.013
-468.186	22.532	0.168	0.138
-467.172	-112.325	-0.230	0.046
-466.157	800.000	0.025	0.080
-465.143	297.034	-0.125	-0.230
-464.128	-32.171	-0.198	-0.111
-463.113	16.469	0.181	-0.144
-462.099	-37.761	-0.233	-0.125
-461.084	-110.245	0.306	-0.064
-460.070	-181.023	0.069	-0.001
-459.055	277.616	0.140	-0.250
-458.040	-200.000	0.024	-0.388
-457.026	-70.012	-0.264	0.101
-456.011	85.099	0.319	-0.351
-454.997	-109.968	0.141	-0.030
-453.982	474.717	0.057	0.129
-452.968	800.000	0.070	0.272
-451.953	-41.482	0.308	0.159
-450.938	767.242	-0.105	0.286
-449.924	600.066	-0.115	-0.287
-448.909	-170.226	0.267	-0.009
-447.895	272.501	0.066	-0.116
-446.880	-200.000	-0.001	0.161
-445.865	-21.147	-0.231	0.142
-444.851	236.436	-0.211	-0.351
-443.836	627.199	-0.065	0.165
-442.822	-110.525	-0.130	0.027
-441.807	-200.000	0.051	-0.614
-440.792	-189.664	0.079	0.001
-439.778	-192.840	0.238	0.002
-438.763	15.422	0.061	0.048
-437.749	207.533	0.079	-0.124
-436.734	144.953	0.073	-0.097
-435.719	-23.341	0.172	-0.104
-434.705	-25.676	-0.080	-0.048
-433.690	41.650	-0.123	0.112
-432.676	-200.000	0.030	0.410
-431.661	667.507	-0.219	-0.568
-430.646	58.106	0.242	-0.238
-429.632	133.739	0.175	0.228
-428.617	26.994	0.085	0.072
-427.603	-200.000	-0.045	0.268
-426.588	-53.061	-0.384	-0.177
-425.573	632.035	0.093	-0.236
-424.559	-155.770	0.131	-0.008
-423.544	537.483	0.081	-0.194
-422.530	-106.589	-0.298	-0.067
-421.515	800.000	0.060	0.248
-420.500	339.584	-0.192	-0.376
-419.486	-164.235	0.168	-0.008
-418.471	-200.000	-0.030	0.231
-417.457	69.758	-0.377	0.389
-416.442	36.521	0.186	-0.164
-415.428	82.787	-0.173	0.188
-414.413	81.612	-0.137	-0.148
-413.398	-120.674	0.117	0.020
-412.384	-200.000	0.004	-0.031
-411.369	-6.790	0.329	-0.224
-410.355	251.864	-0.081	-0.137
-409.340	-163.216	-0.121	-0.006
-408.325	-200.000	0.168	0.000
-407.311	-87.379	-0.108	0.033
-406.296	-200.000	-0.030	-0.196
-405.282	-22.954	0.177	0.107
-404.267	800.000	-0.097	0.389
-403.252	-200.000	-0.011	0.174
-402.238	375.347	0.100	-0.205
-401.223	800.000	-0.058	-0.252
-400.209	433.444	-0.025	0.055
-399.194	703.646	-0.071	-0.187
-398.179	-200.000	0.016	0.139
-397.165	372.538	0.098	0.199
-396.150	-12.354	0.182	0.119
-395.136	-108.132	0.270	0.058
-394.121	-200.000	0.004	0.060
-393.106	208.807	-0.181	-0.283
-392.092	-200.000	0.017	0.225
-391.077	163.115	0.087	0.123
-390.063	-38.719	0.120	0.063
-389.048	210.457	0.068	-0.108
-388.033	35.439	0.262	0.230
-387.019	-200.000	0.035	0.437
-386.004	-118.274	-0.078	0.014
-384.990	-16.807	0.164	0.104
-383.975	-200.000	-0.005	0.099
-382.960	-34.705	0.190	-0.104
-381.946	-200.000	0.016	-0.242
-380.931	498.947	-0.098	0.226
-379.917	800.000	-0.034	0.110
-378.902	141.290	-0.084	0.111
-377.888	-146.503	0.050	0.004
-376.873	-61.535	-0.291	-0.122
-375.858	-25.506	-0.160	0.094
-374.844	-15.225	0.168	0.108
-373.829	-48.417	0.136	0.066
-372.815	63.305	0.146	-0.146
-371.800	145.851	-0.047	0.063
-370.785	142.036	0.225	0.299
-369.771	800.000	-0.055	-0.219
-368.756	558.749	0.127	0.307
-367.742	31.475	0.273	0.235
-366.727	800.000	0.044	-0.123
-365.712	75.720	0.275	0.291
-364.698	-10.409	-0.293	-0.194
-363.683	483.585	-0.026	0.060
-362.669	-93.095	-0.081	-0.022
-361.654	-30.073	-0.347	0.198
-360.639	-51.492	0.292	-0.136
-359.625	303.524	-0.124	-0.229
-358.610	-200.000	-0.010	-0.051
-357.596	800.000	0.064	-0.177
-356.581	-65.704	-0.183	-0.073
-355.566	28.435	0.107	0.090
-354.552	150.273	-0.191	0.260
-353.537	198.645	-0.028	0.044
-352.523	128.781	-0.181	-0.231
-351.508	-135.088	0.081	0.010
-350.493	74.461	-0.151	-0.159
-349.479	-22.763	-0.440	-0.266
-348.464	-200.000	-0.076	-0.340
-347.450	-200.000	0.008	0.251
-346.435	-140.331	0.175	-0.018
-345.420	-200.000	0.038	0.362
-344.406	800.000	-0.030	-0.103
-343.391	202.639	-0.025	0.039
-342.377	-200.000	-0.075	0.535
-341.362	800.000	-0.028	0.113
-340.348	94.969	0.128	0.145
-339.333	-124.436	-0.306	-0.048
-338.318	395.829	-0.220	-0.459
-337.304	-200.000	-0.107	-0.531
-336.289	56.684	0.122	0.119
-335.275	800.000	-0.054	0.196
-334.260	800.000	0.037	0.116
-333.245	762.716	0.121	-0.329
-332.231	-151.598	-0.286	-0.021
-331.216	-132.934	0.190	0.024
-330.202	130.528	-0.068	0.087
-329.187	40.206	0.161	0.145
-328.172	239.977	0.036	0.060
-327.158	-69.301	-0.167	0.064
-326.143	-200.000	0.038	-0.171
-325.129	-172.355	-0.088	-0.003
-324.114	-79.401	-0.255	0.086
-323.099	-49.950	-0.404	-0.191
-322.085	-200.000	-0.013	0.072
-321.070	-120.304	-0.110	0.019
-320.056	-27.716	-0.184	-0.107
-319.041	218.571	0.207	-0.330
-318.026	222.821	0.067	0.108
-317.012	-42.429	0.235	-0.119
-315.997	-200.000	-0.019	-0.123
-314.983	-168.542	0.245	-0.009
-313.968	589.132	-0.101	0.249
-312.953	21.547	0.060	-0.049
-311.939	11.802	-0.087	0.067
-310.924	115.472	-0.124	0.151
-309.910	189.759	0.134	-0.200
-308.895	187.810	0.165	0.245
-307.880	-134.801	0.124	0.015
-306.866	-90.536	0.201	-0.058
-305.851	-131.947	0.300	0.039
-304.837	-106.635	0.304	-0.068
-303.822	800.000	0.106	-0.331
-302.807	800.000	0.056	0.176
-301.793	214.687	-0.086	-0.136
-300.778	800.000	0.096	0.325
-299.764	-77.051	-0.263	0.092
-298.749	397.131	0.029	-0.060
-297.735	-80.668	0.283	0.094
-296.720	-47.956	0.013	-0.006
-295.705	-68.658	-0.385	0.149
-294.691	241.762	-0.128	0.213
-293.676	181.640	-0.220	-0.323
-292.662	-130.842	0.270	-0.036
-291.647	255.618	0.221	-0.378
-290.632	-23.006	0.139	-0.083
-289.618	-200.000	-0.007	-0.166
-288.603	-105.725	-0.094	-0.021
-287.589	800.000	0.031	-0.125
-286.574	-200.000	0.007	-0.145
-285.559	38.896	-0.172	0.153
-284.545	-67.976	-0.385	0.150
-283.530	88.539	0.180	-0.199
-282.516	-200.000	-0.051	0.348
-281.501	165.298	-0.219	0.309
-280.486	5.805	0.240	0.177
-279.472	72.168	-0.069	-0.072
-278.457	162.883	0.199	-0.278
-277.443	-6.766	0.044	0.030
-276.428	109.347	0.104	-0.124
-275.413	38.917	-0.113	-0.100
-274.399	-64.356	0.249	0.101
-273.384	-63.846	0.212	0.087
-272.370	14.727	0.169	-0.132
-271.355	800.000	0.055	0.228
-270.340	41.707	0.175	0.158
-269.326	-56.328	0.317	0.140
-268.311	391.500	-0.151	0.313
-267.297	-200.000	-0.007	-0.245
-266.282	-152.734	-0.324	-0.023
-265.267	118.920	-0.054	-0.067
-264.253	364.148	0.108	0.216
-263.238	62.141	0.065	0.064
-262.224	402.271	0.096	0.201
-261.209	-136.203	-0.165	-0.019
-260.195	284.946	-0.034	-0.061
-259.180	800.000	-0.085	0.277
-258.165	273.298	-0.150	-0.265
-257.151	-124.424	-0.201	-0.031
-256.136	-105.613	-0.199	0.045
-255.122	-91.047	0.191	-0.055
-254.107	25.754	0.186	0.154
-253.092	79.230	-0.201	0.214
-252.078	-132.353	-0.173	-0.022
-251.063	-54.008	-0.223	0.101
-250.049	218.702	-0.039	0.062
-249.034	173.397	-0.184	-0.264
-248.019	-200.000	-0.030	-0.235
-247.005	30.781	0.114	-0.098
-245.990	202.694	-0.338	0.520
-244.976	800.000	0.096	0.314
-243.961	-200.000	0.028	0.433
-242.946	-9.350	0.104	0.069
-241.932	-58.618	-0.179	0.077
-240.917	541.777	0.101	-0.240
-239.903	15.605	-0.114	0.089
-238.888	-126.373	0.062	0.009
-237.873	230.745	-0.095	-0.155
-236.859	-200.000	-0.001	-0.415
-235.844	767.788	0.076	-0.205
-234.830	-200.000	-0.015	-0.067
-233.815	326.291	0.118	-0.226
-232.800	-150.816	0.200	0.015
-231.786	-200.000	-0.067	-0.318
-230.771	54.206	0.107	0.103
-229.757	80.988	0.159	-0.171
-228.742	34.357	-0.103	-0.089
-227.727	-182.806	0.150	0.003
-226.713	-112.386	0.222	-0.044
-225.698	115.564	0.212	0.258
-224.684	-200.000	-0.003	-0.018
-223.669	-200.000	-0.012	-0.109
-222.655	-190.144	0.049	0.001
-221.640	-76.568	0.049	-0.017
-220.625	-200.000	-0.044	-0.211
-219.611	33.292	0.210	-0.181
-218.596	-32.448	-0.163	-0.091
-217.582	124.732	0.138	0.173
-216.567	800.000	0.012	0.041
-215.552	44.071	-0.131	0.119
-214.538	-67.832	0.213	-0.083
-213.523	-68.313	-0.086	-0.033
-212.509	314.403	-0.120	0.225
-211.494	649.965	0.083	-0.211
-210.479	-52.383	0.365	0.168
-209.465	141.450	-0.179	-0.235
-208.450	390.069	0.067	-0.138
-207.436	-86.654	0.260	0.079
-206.421	-83.349	0.209	-0.067
-205.406	-0.664	-0.466	-0.328
-204.392	134.534	-0.188	0.242
-203.377	423.193	0.127	0.271
-202.363	278.601	0.179	0.316
-201.348	-116.863	0.299	0.054
-200.333	-73.370	-0.211	-0.077
-199.319	54.140	0.124	-0.119
-198.304	-117.368	-0.344	-0.062
-197.290	-137.060	0.119	0.014
-196.275	-173.717	0.072	-0.002
-195.260	-8.592	0.207	0.138
-194.246	-200.000	-0.040	-0.496
-193.231	90.929	-0.298	0.332
-192.217	180.855	0.041	-0.059
-191.202	800.000	0.103	0.297
-190.187	658.228	0.167	0.427
-189.173	29.757	-0.105	0.089
-188.158	70.689	-0.075	0.077
-187.144	-101.442	-0.173	-0.042
-186.129	27.569	0.211	0.176
-185.114	-200.000	-0.038	-0.342
-184.100	109.834	0.114	-0.136
-183.085	2.622	-0.023	0.017
-182.071	16.918	-0.251	0.198
-181.056	-144.591	0.109	0.010
-180.042	786.692	-0.104	-0.285
-179.027	97.271	0.222	-0.253
-178.012	83.239	-0.150	0.162
-176.998	-200.000	0.045	0.307
-175.983	250.997	0.228	0.386
-174.969	-22.469	0.266	-0.160
-173.954	17.035	0.260	-0.204
-172.939	800.000	0.047	-0.154
-171.925	-200.000	0.022	-0.187
-170.910	-129.359	0.155	-0.021
-169.896	58.498	0.130	0.127
-168.881	118.258	-0.195	0.238
-167.866	-110.766	-0.152	-0.031
-166.852	-48.209	-0.270	-0.129
-165.837	-28.397	0.242	0.139
-164.823	-8.835	-0.101	0.067
-163.808	619.722	0.116	-0.290
-162.793	28.121	0.147	-0.123
-161.779	-30.269	0.090	0.050
-160.764	-37.476	0.226	-0.120
-159.750	-200.000	-0.017	-0.154
-158.735	55.446	0.080	0.077
-157.720	-97.583	-0.298	-0.077
-156.706	-200.000	0.002	-0.186
-155.691	-75.547	-0.217	-0.077
-154.677	-6.624	-0.108	-0.073
-153.662	-200.000	-0.002	0.285
-152.647	-168.459	-0.223	0.008
-151.633	-200.000	0.033	0.273
-150.618	97.108	-0.066	-0.075
-149.604	151.186	0.209	0.282
-148.589	622.024	-0.038	0.094
-147.574	385.745	0.019	0.038
-146.560	-74.698	0.249	0.089
-145.545	-37.449	0.163	-0.086
-144.531	108.732	0.126	0.149
-143.516	30.399	0.074	0.063
-142.502	-98.362	-0.322	0.082
-141.487	-200.000	-0.006	-0.325
-140.472	-126.931	0.230	-0.034
-139.458	-179.240	-0.233	0.005
-138.443	-84.571	-0.119	-0.037
-137.429	-200.000	0.057	-0.301
-136.414	19.618	0.116	-0.092
-135.399	17.007	0.050	0.039
-134.385	355.693	0.094	0.186
-133.370	-200.000	-0.054	-0.253
-132.356	43.529	-0.292	0.265
-131.341	-54.322	0.144	-0.065
-130.326	-17.879	-0.160	-0.099
-129.312	154.116	-0.058	-0.080
-128.297	21.739	0.140	-0.113
-127.283	-200.000	0.014	0.220
-126.268	-45.236	0.321	-0.158
-125.253	-43.870	0.058	0.029
-124.239	45.031	0.314	-0.286
-123.224	800.000	0.066	0.220
-122.210	-200.000	-0.014	-0.175
-121.195	109.000	-0.042	0.049
-120.180	331.325	-0.057	0.108
-119.166	25.450	-0.113	-0.093
-118.151	27.212	-0.132	0.110
-117.137	187.398	-0.037	-0.054
-116.122	175.259	-0.182	0.261
-115.107	-65.059	-0.177	-0.071
-114.093	204.517	-0.078	0.120
-113.078	800.000	-0.085	-0.254
-112.064	-151.796	-0.426	-0.031
-111.049	-50.473	-0.149	-0.070
-110.034	-6.905	0.159	0.107
-109.020	7.962	-0.290	0.215
-108.005	-200.000	0.024	0.417
-106.991	-48.513	-0.310	-0.148
-105.976	-200.000	0.001	0.287
-104.962	800.000	0.066	0.230
-103.947	800.000	-0.101	0.321
-102.932	-92.869	0.240	-0.066
-101.918	-134.001	0.040	-0.005
-100.903	-79.036	0.539	-0.181
-99.889	-126.047	-0.228	-0.034
-98.874	60.887	0.202	0.198
-97.859	-0.692	0.160	-0.113
-96.845	-83.824	0.230	0.073
-95.830	-12.974	-0.410	-0.264
-94.816	-200.000	-0.016	-0.499
-93.801	-155.294	-0.374	0.024
-92.786	76.594	0.121	0.127
-91.772	-200.000	-0.011	0.227
-90.757	-161.736	0.137	0.007
-89.743	117.818	-0.072	-0.087
-88.728	-132.176	0.204	0.026
-87.713	-200.000	0.029	0.192
-86.699	33.104	0.103	-0.088
-85.684	-92.788	-0.325	0.090
-84.670	-71.045	-0.107	-0.040
-83.655	-89.292	-0.372	-0.108
-82.640	-105.803	-0.057	-0.013
-81.626	-12.711	0.081	0.052
-80.611	-200.000	0.019	-0.100
-79.597	372.936	0.047	-0.095
-78.582	-107.768	-0.232	0.050
-77.567	-200.000	-0.049	0.378
-76.553	-1.667	0.171	-0.119
-75.538	-200.000	-0.025	0.139
-74.524	-81.480	0.170	-0.055
-73.509	14.473	-0.078	-0.060
-72.494	-65.035	0.063	0.025
-71.480	666.635	-0.041	0.103
-70.465	800.000	-0.124	0.390
-69.451	233.089	-0.134	-0.218
-68.436	800.000	0.097	0.316
-67.422	-66.362	-0.307	0.121
-66.407	541.889	-0.062	-0.147
-65.392	-111.676	-0.242	0.048
-64.378	-71.034	0.147	-0.055
-63.363	83.244	0.119	-0.128
-62.349	105.134	-0.049	0.057
-61.334	47.473	-0.959	-0.884
-60.319	-100.215	0.581	0.143
-59.305	423.455	-0.471	-0.999
-58.290	127.613	0.753	0.945
-57.276	306.509	0.671	1.233
-56.261	-200.000	105.415	575.361
-55.246	456.910	1453.306	3188.602
-54.232	146.929	2647.224	3517.176
-53.217	97.727	2325.098	2641.001
-52.203	36.345	2077.172	1809.421
-51.188	31.700	1992.585	1693.778
-50.173	30.266	1975.218	1666.080
-49.159	45.123	2029.994	1848.053
-48.144	45.947	2047.328	1871.279
-47.130	32.257	2006.728	1710.598
-46.115	30.092	1995.400	1681.266
-45.100	29.994	1992.511	1677.876
-44.086	29.983	1989.902	1675.511
-43.071	29.863	1988.108	1672.847
-42.057	29.814	1986.075	1670.634
-41.042	29.904	1983.889	1669.534
-40.027	29.923	1981.797	1667.876
-39.013	29.958	1979.668	1666.339
-37.998	29.834	1978.272	1663.983
-36.984	29.947	1975.818	1662.865
-35.969	30.020	1973.656	1661.634
-34.954	29.996	1972.944	1660.755
-33.940	29.928	1971.483	1658.846
-32.925	30.014	1969.754	1658.097
-31.911	30.003	1967.919	1656.388
-30.896	30.021	1966.342	1655.159
-29.881	30.061	1964.363	1653.779
-28.867	30.028	1963.123	1652.375
-27.852	30.096	1960.922	1651.069
-26.838	30.078	1958.890	1649.133
-25.823	30.063	1957.766	1647.981
-24.809	30.045	1955.657	1645.984
-23.794	30.053	1953.984	1644.586
-22.779	30.022	1952.471	1642.973
-21.765	30.056	1950.813	1641.808
-20.750	30.007	1948.569	1639.420
-19.736	29.923	1947.427	1637.653
-18.721	29.940	1946.670	1637.099
-17.706	29.983	1944.612	1635.687
-16.692	30.128	1942.338	1634.991
-15.677	29.960	1941.242	1632.519
-14.663	30.054	1939.662	1631.955
-13.648	29.920	1939.063	1630.202
-12.633	29.982	1937.511	1629.380
-11.619	30.108	1935.224	1628.500
-10.604	30.065	1934.329	1627.306
-9.590	29.971	1933.354	1625.599
-8.575	29.941	1931.802	1623.960
-7.560	29.995	1930.225	1623.049
-6.546	29.967	1929.109	1621.794
-5.531	30.080	1927.498	1621.363
-4.517	30.041	1926.252	1619.914
-3.502	30.011	1925.390	1618.860
-2.487	30.015	1923.771	1617.469
-1.473	30.001	1923.345	1616.929
-0.458	30.149	1917.789	1613.482
0.556	28.037	1898.807	1585.937
1.571	24.121	1879.831	1536.244
2.586	20.344	1903.691	1522.539
3.600	19.444	1939.571	1543.055
4.615	19.404	1934.911	1538.848
5.629	15.169	1833.606	1422.273
6.644	6.003	1712.401	1255.167
7.659	0.740	1674.248	1185.887
8.673	0.219	1670.273	1178.892
9.688	0.156	1669.260	1177.574
10.702	0.201	1667.619	1176.667
11.717	-0.016	1663.928	1172.269
12.731	0.610	1663.822	1176.969
13.746	7.225	1678.448	1239.080
14.761	15.592	1694.871	1316.928
15.775	17.785	1697.187	1335.804
16.790	16.916	1694.485	1326.764
17.804	15.931	1690.867	1316.120
18.819	14.954	1687.211	1305.541
19.834	14.288	1685.181	1298.659
20.848	14.013	1684.048	1295.525
21.863	13.817	1681.916	1292.244
22.877	13.473	1680.559	1288.411
23.892	13.297	1679.144	1285.846
24.907	13.242	1678.126	1284.525
25.921	13.240	1676.577	1283.210
26.936	13.204	1675.698	1282.142
27.950	13.131	1675.392	1281.230
28.965	13.203	1674.309	1280.847
29.980	13.327	1673.640	1281.182
30.994	13.409	1672.848	1281.094
32.009	13.435	1671.767	1280.358
33.023	13.534	1670.598	1280.112
34.038	13.520	1670.082	1279.498
35.053	13.424	1669.013	1277.827
36.067	13.426	1667.579	1276.626
37.082	13.333	1667.199	1275.509
38.096	13.465	1665.346	1274.994
39.111	13.339	1665.497	1274.024
40.126	13.448	1663.993	1273.602
41.140	13.433	1663.475	1272.974
42.155	13.341	1661.957	1270.992
43.169	13.198	1660.574	1268.728
44.184	13.197	1659.196	1267.550
45.199	13.155	1658.581	1266.647
46.213	13.133	1657.020	1265.178
47.228	13.142	1656.140	1264.466
48.242	13.263	1654.342	1263.901
49.257	13.356	1652.962	1263.444
50.271	13.266	1652.679	1262.430
51.286	13.348	1650.929	1261.606
52.301	13.364	1649.747	1260.716
53.315	13.349	1648.388	1259.453
54.330	13.310	1646.552	1257.640
55.344	13.233	1645.271	1255.968
56.359	13.297	1644.105	1255.450
57.374	13.293	1642.645	1254.193
58.388	13.318	1641.417	1253.337
59.403	13.246	1640.321	1251.844
60.417	13.143	1639.325	1250.189
61.432	13.143	1638.126	1249.165
62.447	13.195	1636.703	1248.366
63.461	13.187	1635.550	1247.314
64.476	13.138	1634.425	1245.972
65.490	13.084	1633.210	1244.529
66.505	13.119	1631.559	1243.430
67.520	13.124	1631.539	1243.341
68.534	13.200	1629.966	1242.602
69.549	13.201	1628.939	1241.719
70.563	13.124	1627.742	1240.115
71.578	13.172	1626.531	1239.447
72.593	13.060	1625.494	1237.705
73.607	13.053	1623.992	1236.401
74.622	13.153	1622.502	1235.901
75.636	13.034	1621.764	1234.341
76.651	13.072	1621.329	1234.184
77.666	13.023	1620.684	1233.220
78.680	13.064	1619.472	1232.497
79.695	13.095	1618.248	1231.685
80.709	13.143	1617.036	1231.012
81.724	13.093	1616.711	1230.286
82.739	13.082	1615.605	1229.251
83.753	13.216	1614.984	1229.664
84.768	13.235	1613.867	1228.850
85.782	13.253	1613.231	1228.390
86.797	13.363	1612.157	1228.282
87.812	13.386	1611.075	1227.513
88.826	13.415	1609.525	1226.440
89.841	13.290	1608.456	1224.595
90.855	13.229	1607.605	1223.385
91.870	13.330	1606.215	1222.970
92.884	13.389	1605.460	1222.720
93.899	13.305	1604.875	1221.546
94.914	13.412	1603.125	1220.891
95.928	13.360	1602.321	1219.791
96.943	13.546	1600.128	1219.384
97.957	13.434	1598.846	1217.474
98.972	13.321	1597.714	1215.678
99.987	13.364	1596.159	1214.701
101.001	13.392	1594.607	1213.618
102.016	13.345	1593.364	1212.220
103.030	13.329	1592.115	1211.043
104.045	13.279	1591.447	1210.065
105.060	13.328	1589.226	1208.621
106.074	13.363	1587.499	1207.456
107.089	13.229	1586.219	1205.400
108.103	13.256	1584.720	1204.353
109.118	13.227	1583.474	1203.090
110.133	13.165	1582.008	1201.417
111.147	13.149	1580.616	1200.136
112.162	13.112	1579.437	1198.866
113.176	13.137	1577.953	1197.820
114.191	13.104	1576.816	1196.606
115.206	13.228	1575.618	1196.494
116.220	13.245	1574.023	1195.294
117.235	13.227	1573.132	1194.385
118.249	13.185	1571.933	1193.063
119.264	13.304	1570.160	1192.475
120.279	13.257	1568.915	1191.085
121.293	13.277	1567.167	1189.796
122.308	13.219	1566.283	1188.598
123.322	13.215	1564.565	1187.162
124.337	13.136	1563.381	1185.591
125.352	13.147	1562.166	1184.643
126.366	13.216	1560.501	1183.770
127.381	13.228	1559.682	1183.134
128.395	13.165	1558.924	1182.000
129.410	13.139	1557.105	1180.331
130.424	13.130	1556.283	1179.539
131.439	13.193	1554.808	1178.766
132.454	13.222	1553.312	1177.734
133.468	13.240	1551.755	1176.576
134.483	13.247	1550.463	1175.546
135.497	13.247	1549.173	1174.465
136.512	13.266	1547.736	1173.403
137.527	13.364	1546.093	1172.747
138.541	13.370	1544.679	1171.619
139.556	13.352	1543.304	1170.341
140.570	13.358	1542.278	1169.501
141.585	13.359	1540.826	1168.304
142.600	13.372	1539.533	1167.310
143.614	13.453	1538.469	1166.977
144.629	13.524	1537.185	1166.394
145.643	13.573	1535.681	1165.500
146.658	13.528	1534.064	1163.848
147.673	13.517	1532.623	1162.575
148.687	13.448	1531.448	1161.096
149.702	13.378	1529.709	1159.188
150.716	13.406	1527.929	1157.932
151.731	13.379	1527.210	1157.096
152.746	13.447	1525.288	1156.015
153.760	13.427	1524.311	1155.034
154.775	13.483	1523.237	1154.506
155.789	13.502	1521.445	1153.180
156.804	13.592	1520.487	1152.973
157.819	13.516	1519.683	1151.738
158.833	13.585	1518.410	1151.149
159.848	13.540	1517.275	1149.872
160.862	13.651	1516.095	1149.650
161.877	13.575	1514.806	1148.044
162.892	13.590	1513.771	1147.260
163.906	13.581	1512.310	1145.989
164.921	13.533	1511.048	1144.602
165.935	13.496	1509.878	1143.355
166.950	13.543	1509.252	1143.106
167.964	13.601	1507.756	1142.269
168.979	13.670	1506.482	1141.680
169.994	13.612	1505.613	1140.517
171.008	13.597	1504.472	1139.456
172.023	13.655	1503.349	1138.897
173.037	13.681	1502.545	1138.370
174.052	13.651	1501.605	1137.347
175.067	13.678	1500.450	1136.561
176.081	13.707	1498.770	1135.384
177.096	13.597	1497.520	1133.587
178.110	13.629	1495.968	1132.527
179.125	13.672	1494.737	1131.788
180.140	13.669	1493.919	1131.049
181.154	13.671	1493.433	1130.594
182.169	13.692	1491.542	1129.206
183.183	13.741	1490.370	1128.554
184.198	13.749	1489.335	1127.726
185.213	13.794	1488.303	1127.147
186.227	13.820	1487.349	1126.502
187.242	13.810	1486.481	1125.678
188.256	13.821	1485.160	1124.655
189.271	13.888	1484.464	1124.479
190.286	13.865	1483.703	1123.649
191.300	13.889	1482.228	1122.592
192.315	13.798	1480.570	1120.623
193.329	13.634	1479.536	1118.632
194.344	13.662	1478.780	1118.157
195.359	13.636	1477.812	1117.146
196.373	13.776	1476.497	1116.996
197.388	13.794	1475.658	1116.387
198.402	13.800	1474.548	1115.487
199.417	13.878	1473.488	1115.113
200.432	13.940	1472.498	1114.681
201.446	14.070	1471.301	1114.543
202.461	14.010	1469.974	1113.039
203.475	14.118	1469.046	1112.962
204.490	14.050	1467.981	1111.602
205.504	14.102	1466.990	1111.098
206.519	14.099	1465.813	1110.087
207.534	14.016	1464.714	1108.609
208.548	14.060	1463.842	1108.141
209.563	14.002	1463.010	1107.027
210.577	14.057	1461.230	1105.948
211.592	14.065	1460.543	1105.381
212.607	14.057	1459.928	1104.764
213.621	14.143	1459.328	1104.789
214.636	14.217	1458.252	1104.363
215.650	14.258	1457.171	1103.722
216.665	14.255	1456.092	1102.788
217.680	14.201	1455.549	1101.917
218.694	14.247	1454.597	1101.408
219.709	14.302	1453.729	1101.017
220.723	14.218	1453.454	1100.153
221.738	14.316	1451.834	1099.474
222.753	14.250	1450.757	1098.127
223.767	14.281	1450.171	1097.794
224.782	14.256	1449.125	1096.739
225.796	14.396	1447.708	1096.492
226.811	14.357	1447.134	1095.702
227.826	14.444	1446.598	1095.771
228.840	14.382	1445.822	1094.682
229.855	14.335	1445.057	1093.696
230.869	14.298	1443.700	1092.328
231.884	14.413	1442.753	1092.271
232.899	14.389	1441.214	1090.848
233.913	14.400	1439.810	1089.763
234.928	14.329	1439.231	1088.762
235.942	14.283	1437.573	1087.115
236.957	14.328	1436.762	1086.696
237.972	14.338	1436.016	1086.101
238.986	14.375	1434.242	1084.903
240.001	14.421	1433.670	1084.676
241.015	14.377	1432.774	1083.618
242.030	14.415	1431.163	1082.546
243.045	14.406	1430.206	1081.668
244.059	14.470	1429.679	1081.592
245.074	14.544	1428.826	1081.331
246.088	14.486	1428.158	1080.353
247.103	14.553	1427.523	1080.209
248.117	14.647	1426.161	1079.691
249.132	14.735	1425.558	1079.709
250.147	14.617	1425.403	1078.734
251.161	14.702	1424.889	1078.799
252.176	14.809	1423.791	1078.563
253.190	14.830	1423.061	1078.046
254.205	14.901	1421.895	1077.526
255.220	14.801	1421.516	1076.504
256.234	14.884	1420.617	1076.260
257.249	15.050	1419.167	1076.135
258.263	14.794	1418.884	1074.176
259.278	14.955	1417.624	1074.162
260.293	14.966	1417.007	1073.673
261.307	14.995	1416.149	1073.112
262.322	14.968	1415.759	1072.546
263.336	15.039	1414.639	1072.061
264.351	15.048	1413.351	1071.047
265.366	15.164	1412.712	1071.206
266.380	15.082	1411.601	1069.751
267.395	15.111	1410.531	1069.031
268.409	15.155	1409.770	1068.639
269.424	15.215	1408.475	1067.940
270.439	15.087	1407.925	1066.614
271.453	15.116	1406.905	1065.932
272.468	15.122	1405.872	1065.093
273.482	15.052	1405.416	1064.207
274.497	15.062	1404.540	1063.516
275.512	15.058	1403.673	1062.740
276.526	15.088	1402.840	1062.205
277.541	15.088	1401.838	1061.353
278.555	15.092	1400.920	1060.588
279.570	15.159	1400.105	1060.300
280.585	15.167	1399.174	1059.554
281.599	15.215	1398.546	1059.289
282.614	15.302	1397.675	1059.082
283.628	15.269	1396.250	1057.703
284.643	15.253	1394.947	1056.519
285.657	15.254	1393.848	1055.602
286.672	15.246	1393.106	1054.898
287.687	15.238	1392.071	1053.971
288.701	15.245	1391.380	1053.398
289.716	15.314	1390.460	1053.040
290.730	15.223	1390.079	1052.087
291.745	15.294	1389.102	1051.702
292.760	15.232	1388.242	1050.568
293.774	15.347	1386.540	1049.903
294.789	15.335	1385.394	1048.872
295.803	15.460	1384.760	1049.079
296.818	15.437	1383.954	1048.231
297.833	15.437	1382.959	1047.385
298.847	15.485	1381.822	1046.732
299.862	15.424	1381.272	1045.841
300.876	15.500	1379.677	1045.012
301.891	15.520	1378.990	1044.525
302.906	15.481	1378.445	1043.776
303.920	15.579	1377.760	1043.774
304.935	15.565	1376.890	1042.937
305.949	15.595	1376.306	1042.590
306.964	15.617	1375.275	1041.854
307.979	15.702	1373.812	1041.178
308.993	15.722	1372.835	1040.467
310.008	15.595	1372.489	1039.329
311.022	15.561	1371.454	1038.247
312.037	15.662	1370.255	1037.866
313.052	15.736	1369.334	1037.533
314.066	15.763	1367.866	1036.499
315.081	15.737	1367.425	1035.911
316.095	15.703	1366.356	1034.801
317.110	15.707	1365.113	1033.790
318.125	15.745	1364.220	1033.259
319.139	15.677	1363.419	1032.145
320.154	15.679	1362.629	1031.464
321.168	15.688	1361.380	1030.484
322.183	15.762	1360.416	1030.116
323.197	15.629	1359.955	1028.864
324.212	15.769	1358.907	1028.836
325.227	15.746	1358.164	1028.042
326.241	15.804	1357.126	1027.518
327.256	15.788	1356.337	1026.734
328.270	15.751	1355.765	1025.979
329.285	15.815	1354.318	1025.188
330.300	15.904	1353.572	1025.074
331.314	15.768	1353.035	1023.745
332.329	15.825	1352.050	1023.258
333.343	15.748	1351.255	1022.101
334.358	15.871	1350.072	1021.861
335.373	15.972	1349.212	1021.728
336.387	15.934	1348.658	1020.990
337.402	15.883	1348.046	1020.131
338.416	15.915	1347.795	1020.040
339.431	16.096	1346.554	1020.107
340.446	15.977	1346.011	1018.885
341.460	16.089	1344.834	1018.582
342.475	16.068	1343.936	1017.686
343.489	16.154	1342.871	1017.306
344.504	16.147	1342.084	1016.580
345.519	16.164	1341.096	1015.839
346.533	16.231	1340.162	1015.450
347.548	16.280	1339.041	1014.806
348.562	16.274	1338.414	1014.204
349.577	16.258	1337.641	1013.431
350.592	16.279	1336.806	1012.831
351.606	16.200	1336.288	1011.879
352.621	16.156	1335.005	1010.555
353.635	16.125	1334.235	1009.696
354.650	16.168	1333.729	1009.482
355.665	16.187	1332.654	1008.694
356.679	16.073	1331.375	1006.952
357.694	16.302	1329.698	1006.964
358.708	16.304	1328.762	1006.177
359.723	16.335	1327.937	1005.648
360.738	16.344	1327.351	1005.165
361.752	16.280	1325.987	1003.665
362.767	16.290	1324.956	1002.853
363.781	16.316	1324.042	1002.230
364.796	16.423	1323.246	1002.174
365.810	16.390	1322.334	1001.199
366.825	16.450	1321.936	1001.161
367.840	16.464	1321.339	1000.706
368.854	16.503	1320.336	1000.090
369.869	16.667	1319.429	1000.282
370.883	16.624	1318.943	999.574
371.898	16.589	1318.274	998.766
372.913	16.543	1317.357	997.716
373.927	16.528	1316.765	997.087
374.942	16.512	1315.795	996.171
375.956	16.548	1315.128	995.792
376.971	16.653	1314.292	995.688
377.986	16.613	1313.286	994.602
379.000	16.726	1312.627	994.680
380.015	16.820	1311.762	994.487
381.029	16.783	1310.938	993.559
382.044	16.826	1310.036	993.036
383.059	16.771	1309.576	992.281
384.073	16.790	1309.305	992.100
385.088	16.821	1308.034	991.225
386.102	16.859	1307.574	991.013
387.117	16.853	1306.900	990.380
388.132	16.821	1306.165	989.549
389.146	16.758	1305.203	988.367
390.161	16.799	1304.412	987.920
391.175	16.790	1303.440	987.040
392.190	16.751	1302.894	986.315
393.205	16.855	1301.657	985.892
394.219	16.916	1300.768	985.487
395.234	16.869	1299.507	984.174
396.248	16.919	1298.200	983.387
397.263	16.919	1296.844	982.274
398.278	16.894	1295.981	981.390
399.292	16.901	1294.672	980.347
400.307	16.900	1293.681	979.509
401.321	16.838	1292.975	978.526
402.336	16.906	1291.468	977.691
403.350	16.947	1290.613	977.195
404.365	16.902	1289.945	976.342
405.380	16.998	1288.765	975.915
406.394	16.978	1288.105	975.217
407.409	17.047	1287.317	974.928
408.423	16.996	1286.926	974.255
409.438	17.080	1285.941	973.901
410.453	17.086	1285.398	973.441
411.467	17.166	1284.465	973.107
412.482	17.230	1283.932	972.983
413.496	17.113	1283.567	971.952
414.511	17.317	1282.339	972.103
415.526	17.190	1282.075	971.087
416.540	17.219	1281.370	970.635
417.555	17.339	1280.517	970.587
418.569	17.398	1279.993	970.440
419.584	17.305	1279.337	969.327
420.599	17.345	1278.912	969.146
421.613	95.003	1352.343	1469.213
422.628	92.918	1362.991	1469.325
