DTS Sentinel unit serial number:	SN413079Multiplexer serial number:	ORYXHardware model number:	OX4-SRSoftware version number:	ORYX F/W v4.00 Oryx Data Collector v3.7.2.0data status	okinstallation	princeton_trtdifferential loss correction	single-endedforward channel	channel 4reverse channel	N/Adate	2019/09/13time	19:53:35forward acquisition time	60.00reverse acquisition time	0.00gamma	496.2192k internal	0.2316k external	0.2316temperature offset calibration	1.0141default loss term (dB/km)	0.3790temperature slope calibration	1.0000multiplexer offset coefficient	1.0000multiplexer slope coefficient	1.0000fibre end	0.00T internal ref (°C)	29.98T ext. ref 1 (°C)	3.31T ext. ref 2 (°C)	24.23length (m)	temperature (°C)	Stokes	anti-Stokes-747.200	-106.261	-0.309	-0.070
-746.185	-45.877	-0.207	0.103
-745.171	-200.000	0.048	0.308
-744.156	134.782	0.182	0.240
-743.142	-200.000	0.075	0.399
-742.127	91.850	-0.120	-0.137
-741.112	-200.000	-0.003	0.081
-740.098	-106.023	-0.431	0.098
-739.083	-26.695	0.167	0.099
-738.069	-4.702	-0.190	0.133
-737.054	800.000	0.035	-0.152
-736.039	-119.627	-0.240	0.042
-735.025	800.000	-0.065	0.207
-734.010	-139.548	0.104	0.011
-732.996	-104.881	-0.342	0.079
-731.981	-5.409	0.134	0.093
-730.966	184.623	-0.151	0.226
-729.952	65.694	-0.209	-0.215
-728.937	-125.241	-0.093	0.014
-727.923	-148.446	-0.243	0.020
-726.908	-21.651	-0.026	-0.016
-725.894	-135.163	-0.269	0.033
-724.879	-4.552	0.267	-0.186
-723.864	65.695	0.235	0.241
-722.850	178.365	-0.161	-0.238
-721.835	462.028	-0.141	0.318
-720.821	-173.718	-0.251	-0.008
-719.806	-200.000	-0.014	-0.121
-718.791	-104.008	0.204	0.048
-717.777	-200.000	0.036	0.303
-716.762	34.819	0.133	-0.118
-715.748	177.038	0.056	0.083
-714.733	265.053	0.035	-0.062
-713.718	800.000	0.050	0.174
-712.704	-98.660	-0.176	0.045
-711.689	273.815	-0.148	0.265
-710.675	-95.230	0.096	-0.026
-709.660	800.000	-0.046	-0.141
-708.645	484.213	-0.014	0.033
-707.631	66.264	-0.268	0.275
-706.616	-174.771	-0.208	-0.006
-705.602	-6.355	-0.119	0.082
-704.587	184.646	0.070	0.105
-703.572	800.000	0.100	-0.292
-702.558	-49.673	-0.240	-0.115
-701.543	-200.000	-0.017	0.234
-700.529	-200.000	-0.009	0.072
-699.514	-115.286	-0.150	0.029
-698.499	-200.000	0.005	-0.383
-697.485	-94.052	-0.206	0.057
-696.470	-200.000	0.007	-0.156
-695.456	-100.532	-0.093	-0.023
-694.441	86.225	0.405	-0.451
-693.426	46.863	-0.115	0.108
-692.412	-49.265	-0.189	0.091
-691.397	-200.000	0.011	0.347
-690.383	112.498	-0.200	-0.244
-689.368	-27.055	0.262	-0.155
-688.354	-21.329	-0.068	0.042
-687.339	-200.000	0.069	0.327
-686.324	-200.000	0.010	0.080
-685.310	302.707	0.021	0.039
-684.295	-200.000	0.029	-0.274
-683.281	-153.610	-0.370	0.026
-682.266	-153.390	0.475	0.033
-681.251	-110.387	0.161	-0.034
-680.237	141.543	-0.038	-0.051
-679.222	-21.239	0.196	0.121
-678.208	800.000	0.057	-0.176
-677.193	217.424	0.153	0.246
-676.178	47.754	-0.181	0.171
-675.164	-200.000	-0.038	-0.528
-674.149	-106.378	-0.122	-0.027
-673.135	241.668	0.137	0.231
-672.120	-172.785	-0.474	0.015
-671.105	-200.000	-0.010	0.570
-670.091	-87.440	-0.473	-0.145
-669.076	-159.714	0.590	-0.033
-668.062	65.827	-0.171	0.175
-667.047	800.000	-0.089	0.319
-666.032	-111.607	0.332	-0.068
-665.018	-94.213	-0.310	0.086
-664.003	-195.333	0.254	0.002
-662.989	-200.000	-0.006	-0.035
-661.974	538.336	0.077	0.184
-660.959	623.499	-0.097	-0.248
-659.945	800.000	-0.100	0.310
-658.930	559.526	-0.061	0.150
-657.916	198.748	-0.047	0.072
-656.901	-200.000	-0.012	0.059
-655.886	14.702	0.162	0.128
-654.872	-162.740	-0.180	-0.009
-653.857	-82.854	-0.449	0.146
-652.843	333.007	0.185	-0.361
-651.828	-152.497	-0.250	0.018
-650.814	-200.000	-0.037	0.262
-649.799	-57.715	0.145	-0.064
-648.784	-153.933	-0.067	-0.005
-647.770	-200.000	-0.060	-0.359
-646.755	-200.000	-0.080	0.437
-645.741	-89.063	-0.151	-0.045
-644.726	-82.320	-0.301	-0.099
-643.711	193.044	0.143	0.219
-642.697	-144.768	-0.266	0.025
-641.682	12.460	-0.259	-0.201
-640.668	-17.191	0.393	-0.250
-639.653	168.640	-0.038	0.055
-638.638	251.404	-0.050	0.086
-637.624	38.510	-0.091	0.082
-636.609	363.513	-0.225	0.457
-635.595	-200.000	0.025	0.161
-634.580	139.274	-0.096	0.128
-633.565	335.244	0.058	0.113
-632.551	15.532	-0.333	-0.264
-631.536	-38.376	0.272	-0.145
-630.522	-34.372	-0.320	-0.177
-629.507	644.180	-0.027	-0.070
-628.492	-26.365	0.196	-0.116
-627.478	-4.877	-0.127	0.088
-626.463	79.280	-0.044	0.048
-625.449	-200.000	-0.025	0.129
-624.434	-186.637	0.302	0.004
-623.419	126.471	-0.071	-0.091
-622.405	-200.000	0.020	-0.133
-621.390	800.000	0.100	-0.336
-620.376	-200.000	-0.002	0.282
-619.361	800.000	-0.063	-0.193
-618.346	-78.879	-0.133	-0.046
-617.332	800.000	-0.102	0.285
-616.317	-200.000	-0.000	-0.264
-615.303	800.000	0.023	-0.078
-614.288	-198.368	0.128	0.001
-613.273	-200.000	0.022	0.436
-612.259	800.000	0.063	-0.214
-611.244	162.827	0.113	-0.160
-610.230	-145.593	-0.268	-0.024
-609.215	200.622	-0.187	-0.289
-608.201	-108.365	-0.255	-0.055
-607.186	-200.000	-0.007	-0.215
-606.171	3.721	-0.307	0.226
-605.157	251.284	0.141	0.241
-604.142	304.916	-0.055	-0.103
-603.128	259.676	-0.141	-0.245
-602.113	-200.000	0.014	-0.157
-601.098	800.000	0.062	-0.242
-600.084	-25.410	-0.163	-0.097
-599.069	-19.698	0.109	0.068
-598.055	424.176	-0.228	0.493
-597.040	-120.912	-0.199	0.034
-596.025	-71.095	0.043	0.016
-595.011	800.000	-0.048	0.139
-593.996	-200.000	0.004	-0.089
-592.982	96.012	0.124	0.142
-591.967	-7.005	-0.366	0.250
-590.952	277.826	-0.097	0.175
-589.938	-3.687	-0.277	-0.194
-588.923	800.000	0.004	0.018
-587.909	8.634	-0.082	-0.062
-586.894	-7.548	-0.125	0.085
-585.879	49.336	0.225	-0.213
-584.865	-200.000	0.014	0.065
-583.850	-26.171	0.208	-0.123
-582.836	-107.148	-0.253	-0.056
-581.821	41.922	-0.209	0.191
-580.806	-145.291	-0.316	-0.029
-579.792	-200.000	0.029	-0.228
-578.777	6.355	-0.196	-0.146
-577.763	-15.390	-0.107	0.069
-576.748	119.765	0.194	0.241
-575.733	-34.836	0.441	-0.242
-574.719	800.000	0.064	-0.217
-573.704	11.492	-0.156	-0.120
-572.690	800.000	0.145	0.415
-571.675	-81.175	0.158	0.052
-570.661	314.082	-0.150	0.283
-569.646	-165.569	-0.410	-0.018
-568.631	-46.157	-0.123	0.061
-567.617	-17.364	0.177	-0.112
-566.602	800.000	-0.018	0.051
-565.588	-79.386	-0.127	0.043
-564.573	-200.000	-0.030	0.387
-563.558	-142.618	0.111	0.011
-562.544	-47.367	-0.177	-0.087
-561.529	-140.400	0.134	0.014
-560.515	-164.346	0.354	-0.016
-559.500	-75.800	0.286	0.102
-558.485	-69.112	-0.271	-0.105
-557.471	-140.781	0.253	-0.026
-556.456	238.166	0.037	-0.061
-555.442	-73.162	0.079	0.029
-554.427	-192.394	0.033	-0.000
-553.412	29.973	-0.162	-0.139
-552.398	-200.000	0.046	-0.207
-551.383	374.123	-0.080	-0.164
-550.369	-26.803	-0.150	0.088
-549.354	-200.000	0.003	-0.476
-548.339	281.271	-0.159	-0.286
-547.325	48.552	-0.114	0.108
-546.310	-40.976	-0.498	0.259
-545.296	-48.234	-0.201	-0.098
-544.281	633.836	0.072	0.183
-543.266	-181.699	-0.138	-0.003
-542.252	-110.375	0.098	0.020
-541.237	-49.365	0.007	0.003
-540.223	-162.216	-0.169	-0.008
-539.208	-200.000	0.007	-0.155
-538.193	-101.845	-0.267	-0.065
-537.179	-40.016	0.313	-0.164
-536.164	177.052	-0.068	-0.100
-535.150	800.000	0.050	0.163
-534.135	800.000	0.084	0.338
-533.121	-200.000	0.062	-0.347
-532.106	-200.000	0.043	-0.256
-531.091	-114.474	0.105	0.020
-530.077	18.146	-0.399	-0.320
-529.062	66.947	0.232	-0.237
-528.048	-86.724	-0.330	0.101
-527.033	-200.000	0.022	-0.340
-526.018	-60.251	-0.132	0.057
-525.004	-9.899	-0.140	-0.094
-523.989	27.386	0.107	-0.090
-522.975	2.431	0.224	0.162
-521.960	-58.156	0.050	0.022
-520.945	33.323	0.133	0.115
-519.931	-200.000	-0.044	0.308
-518.916	38.093	0.192	0.171
-517.902	800.000	-0.091	-0.352
-516.887	22.678	0.335	0.276
-515.872	208.222	-0.128	-0.201
-514.858	125.197	-0.150	-0.190
-513.843	-89.944	-0.171	-0.050
-512.829	-109.493	0.027	0.006
-511.814	96.246	0.157	0.180
-510.799	-200.000	0.036	-0.274
-509.785	-179.632	-0.184	-0.004
-508.770	-87.836	0.182	-0.055
-507.756	684.393	-0.086	0.224
-506.741	274.676	-0.086	0.153
-505.726	3.340	0.100	-0.073
-504.712	172.177	0.118	-0.170
-503.697	79.399	0.045	-0.048
-502.683	116.808	0.094	0.116
-501.668	83.643	0.133	0.146
-500.653	481.605	0.096	0.219
-499.639	800.000	-0.058	0.174
-498.624	-140.846	0.346	0.036
-497.610	-52.656	-0.208	0.096
-496.595	-142.402	0.162	-0.016
-495.581	-150.023	0.302	0.024
-494.566	77.431	-0.307	-0.327
-493.551	294.256	-0.095	-0.174
-492.537	-106.772	0.300	-0.067
-491.522	-153.224	-0.230	0.016
-490.508	710.678	0.056	0.150
-489.493	-200.000	0.014	0.104
-488.478	-89.503	0.189	0.056
-487.464	26.711	0.077	0.065
-486.449	201.136	-0.151	0.233
-485.435	514.058	0.129	0.302
-484.420	274.039	-0.137	0.243
-483.405	102.905	0.102	0.120
-482.391	-68.386	0.254	0.099
-481.376	151.505	0.223	0.305
-480.362	-200.000	-0.001	0.032
-479.347	-200.000	-0.015	0.098
-478.332	-200.000	-0.039	0.663
-477.318	-122.136	-0.107	0.018
-476.303	-94.267	-0.289	0.079
-475.289	438.407	0.039	-0.084
-474.274	-200.000	-0.073	0.358
-473.259	-120.796	-0.010	-0.002
-472.245	-15.273	-0.181	0.116
-471.230	-200.000	0.002	0.022
-470.216	800.000	0.111	-0.474
-469.201	405.641	0.057	-0.120
-468.186	-200.000	0.015	-0.191
-467.172	-46.501	0.346	-0.170
-466.157	173.416	-0.061	-0.088
-465.143	31.984	-0.165	0.142
-464.128	-31.967	0.293	0.165
-463.113	-22.464	0.287	0.174
-462.099	99.083	-0.052	0.060
-461.084	209.149	0.177	0.277
-460.070	-89.914	-0.154	-0.045
-459.055	-100.031	0.121	-0.030
-458.040	49.521	-0.026	-0.024
-457.026	32.342	-0.083	-0.072
-456.011	20.196	0.049	-0.039
-454.997	-91.412	0.194	-0.056
-453.982	90.656	-0.225	-0.253
-452.968	145.924	0.192	0.258
-451.953	18.543	-0.112	0.090
-450.938	-22.977	-0.224	-0.135
-449.924	34.553	-0.139	-0.122
-448.909	-2.595	-0.211	-0.148
-447.895	47.300	-0.176	0.164
-446.880	232.887	0.102	-0.168
-445.865	290.874	-0.144	-0.262
-444.851	107.131	0.205	0.244
-443.836	145.421	0.162	0.218
-442.822	406.543	0.117	0.247
-441.807	-72.022	0.309	0.115
-440.792	40.918	-0.225	0.203
-439.778	25.246	-0.236	0.196
-438.763	800.000	-0.185	-0.602
-437.749	-140.196	-0.223	-0.023
-436.734	15.314	-0.198	0.156
-435.719	71.715	0.107	0.112
-434.705	800.000	-0.104	0.319
-433.690	11.331	0.224	0.172
-432.676	-200.000	0.002	0.115
-431.661	134.189	0.141	-0.183
-430.646	459.177	-0.028	0.062
-429.632	-195.512	-0.121	-0.001
-428.617	-200.000	0.044	-0.403
-427.603	-200.000	0.001	-0.246
-426.588	109.657	0.038	0.045
-425.573	-68.522	0.350	-0.136
-424.559	-30.711	0.117	0.066
-423.544	-150.517	0.304	0.023
-422.530	92.859	-0.103	-0.117
-421.515	97.757	-0.118	0.135
-420.500	-46.324	0.194	-0.095
-419.486	800.000	-0.090	0.341
-418.471	-73.038	0.086	0.031
-417.457	177.825	-0.109	-0.160
-416.442	51.996	0.154	0.146
-415.428	800.000	-0.119	-0.456
-414.413	-200.000	0.012	0.135
-413.398	146.373	-0.351	-0.471
-412.384	800.000	0.069	-0.227
-411.369	96.235	-0.093	0.107
-410.355	-169.020	0.190	0.007
-409.340	-91.167	0.290	0.083
-408.325	-165.430	-0.217	0.009
-407.311	99.380	0.246	-0.284
-406.296	-83.234	-0.318	-0.102
-405.282	438.184	-0.166	0.361
-404.267	143.798	0.099	0.132
-403.252	-87.349	-0.150	-0.046
-402.238	120.766	0.093	0.115
-401.223	-200.000	-0.034	0.210
-400.209	-119.890	0.320	-0.055
-399.194	-34.910	-0.383	0.209
-398.179	-184.040	0.081	-0.001
-397.165	58.364	0.185	0.181
-396.150	534.684	-0.048	-0.114
-395.136	-34.794	0.263	-0.144
-394.121	-200.000	0.022	0.106
-393.106	108.299	-0.158	-0.188
-392.092	-23.617	0.303	0.182
-391.077	-16.522	-0.319	-0.202
-390.063	36.269	-0.185	-0.163
-389.048	643.980	0.115	0.292
-388.033	145.566	0.045	-0.060
-387.019	-46.970	-0.092	-0.045
-386.004	-200.000	-0.013	-0.386
-384.990	-94.281	0.339	0.093
-383.975	800.000	-0.084	0.269
-382.960	185.417	-0.038	0.057
-381.946	-12.870	0.192	0.125
-380.931	388.015	0.126	0.261
-379.917	100.769	0.161	-0.187
-378.902	-146.959	0.247	0.021
-377.888	-72.638	0.327	0.121
-376.873	-17.692	-0.132	-0.083
-375.858	-123.729	0.173	-0.027
-374.844	-194.186	-0.218	-0.002
-373.829	565.131	-0.128	-0.310
-372.815	-69.947	0.213	-0.081
-371.800	-200.000	-0.002	0.116
-370.785	-200.000	0.018	-0.166
-369.771	-17.108	-0.077	0.049
-368.756	143.232	-0.169	0.224
-367.742	-5.857	-0.115	0.078
-366.727	180.608	0.085	-0.124
-365.712	-115.305	0.419	-0.079
-364.698	-172.587	-0.438	0.014
-363.683	-200.000	-0.013	-0.117
-362.669	110.646	0.146	0.175
-361.654	305.844	-0.040	0.073
-360.639	800.000	0.105	0.352
-359.625	724.213	-0.008	-0.021
-358.610	-151.609	0.187	0.014
-357.596	94.193	-0.163	0.184
-356.581	8.925	0.043	0.032
-355.566	74.609	0.096	-0.101
-354.552	637.735	0.110	0.280
-353.537	-53.044	0.056	-0.026
-352.523	249.665	0.047	-0.080
-351.508	-40.233	0.139	-0.072
-350.493	-116.833	0.287	-0.052
-349.479	-107.175	0.072	0.016
-348.464	4.182	0.255	-0.186
-347.450	234.603	-0.091	-0.150
-346.435	5.645	0.014	0.010
-345.420	8.617	0.159	0.119
-344.406	27.059	0.126	-0.106
-343.391	424.835	-0.067	0.143
-342.377	69.700	-0.156	-0.161
-341.362	800.000	0.077	0.212
-340.348	800.000	0.127	0.359
-339.333	-119.666	0.269	0.046
-338.318	-200.000	0.055	-0.286
-337.304	-200.000	-0.038	-0.209
-336.289	432.602	0.035	-0.075
-335.275	-82.839	-0.111	-0.036
-334.260	119.629	-0.111	0.137
-333.245	-92.965	0.124	-0.035
-332.231	800.000	-0.078	0.260
-331.216	631.100	-0.061	-0.155
-330.202	800.000	-0.063	-0.193
-329.187	800.000	-0.081	-0.242
-328.172	-45.626	-0.032	0.016
-327.158	104.785	-0.106	-0.124
-326.143	-200.000	-0.016	0.168
-325.129	189.656	0.218	0.325
-324.114	-200.000	-0.049	-0.224
-323.099	149.726	0.072	0.097
-322.085	-105.476	0.261	0.059
-321.070	-148.192	-0.254	-0.021
-320.056	58.063	-0.213	-0.208
-319.041	16.522	0.157	-0.123
-318.026	192.090	-0.071	0.107
-317.012	48.526	0.394	0.367
-315.997	800.000	0.149	0.448
-314.983	800.000	-0.015	-0.050
-313.968	603.996	0.110	-0.273
-312.953	14.883	0.521	-0.406
-311.939	11.221	0.098	-0.075
-310.924	663.434	0.143	-0.368
-309.910	-200.000	-0.011	0.157
-308.895	-87.483	0.310	-0.094
-307.880	9.890	-0.375	-0.283
-306.866	783.029	-0.041	0.111
-305.851	-90.928	-0.392	-0.112
-304.837	143.429	0.123	0.163
-303.822	-200.000	0.001	-0.400
-302.807	-79.311	-0.102	0.034
-301.793	23.576	0.258	0.212
-300.778	-100.580	-0.286	-0.070
-299.764	-103.309	0.051	0.012
-298.749	-82.471	-0.272	0.088
-297.735	-200.000	0.007	-0.071
-296.720	43.493	-0.106	-0.097
-295.705	89.732	0.112	-0.125
-294.691	-44.871	0.392	-0.194
-293.676	-153.751	-0.091	0.006
-292.662	80.923	0.227	-0.244
-291.647	-76.699	-0.382	0.133
-290.632	519.154	0.049	-0.113
-289.618	-42.319	-0.074	-0.038
-288.603	-200.000	-0.019	0.235
-287.589	-102.100	-0.114	-0.027
-286.574	-130.168	0.550	0.075
-285.559	-156.886	-0.056	0.003
-284.545	547.679	-0.119	0.284
-283.530	297.274	0.107	0.196
-282.516	-33.273	-0.128	-0.070
-281.501	-88.808	-0.101	-0.030
-280.486	-166.965	-0.091	-0.004
-279.472	-200.000	0.008	0.073
-278.457	381.756	0.071	-0.146
-277.443	-7.651	0.097	0.065
-276.428	-186.885	0.127	0.002
-275.413	-96.478	0.059	0.015
-274.399	166.365	0.099	-0.139
-273.384	181.231	-0.087	-0.128
-272.370	-98.376	-0.178	-0.045
-271.355	-128.650	-0.346	-0.049
-270.340	11.364	0.041	-0.031
-269.326	554.583	-0.138	0.331
-268.311	-144.757	0.177	0.016
-267.297	-12.158	0.297	-0.193
-266.282	110.754	-0.158	-0.189
-265.267	101.169	-0.162	-0.188
-264.253	-200.000	0.001	0.201
-263.238	231.034	-0.058	0.095
-262.224	800.000	-0.105	-0.325
-261.209	-51.583	0.332	-0.154
-260.195	-50.762	-0.141	-0.066
-259.180	116.732	0.061	0.074
-258.165	114.934	0.002	-0.002
-257.151	-20.593	0.054	0.033
-256.136	-113.422	0.459	0.089
-255.122	742.416	0.011	0.029
-254.107	99.014	-0.079	0.090
-253.092	-200.000	0.255	0.001
-252.078	5.803	0.245	0.180
-251.063	-167.238	-0.148	0.006
-250.049	88.088	-0.066	0.072
-249.034	-30.121	-0.079	-0.044
-248.019	-47.590	0.411	-0.198
-247.005	256.967	-0.054	-0.092
-245.990	469.813	-0.079	-0.177
-244.976	226.224	0.026	-0.042
-243.961	107.630	0.014	-0.016
-242.946	520.793	-0.144	0.335
-241.932	-175.712	-0.316	0.008
-240.917	-91.218	0.369	-0.105
-239.903	513.468	0.137	-0.318
-238.888	800.000	0.076	0.243
-237.873	43.109	-0.116	0.106
-236.859	-132.511	0.060	-0.008
-235.844	-200.000	-0.035	-0.162
-234.830	42.032	-0.181	0.163
-233.815	311.609	-0.168	0.313
-232.800	-10.268	0.124	0.082
-231.786	-200.000	0.039	0.249
-230.771	145.000	0.157	-0.208
-229.757	-200.000	-0.014	0.154
-228.742	-200.000	-0.012	-0.118
-227.727	800.000	0.120	0.348
-226.713	-46.559	0.565	-0.275
-225.698	-83.941	-0.239	0.076
-224.684	15.477	-0.058	0.046
-223.669	-200.000	-0.013	-0.071
-222.655	224.999	-0.047	0.075
-221.640	7.543	-0.207	0.154
-220.625	23.318	0.145	0.118
-219.611	800.000	-0.088	-0.293
-218.596	-125.475	0.071	0.011
-217.582	501.757	-0.139	0.318
-216.567	-200.000	0.056	0.328
-215.552	-44.175	-0.130	0.065
-214.538	-200.000	0.012	0.226
-213.523	-64.764	0.181	0.073
-212.509	-41.179	-0.169	-0.087
-211.494	525.095	0.071	-0.165
-210.479	-82.030	-0.184	0.060
-209.465	287.016	-0.064	0.114
-208.450	-72.225	-0.027	0.010
-207.436	3.052	-0.421	-0.303
-206.421	-97.776	0.338	-0.087
-205.406	115.188	-0.242	-0.293
-204.392	63.069	0.088	-0.087
-203.377	95.671	-0.341	-0.386
-202.363	-112.260	-0.151	0.030
-201.348	800.000	0.088	0.305
-200.333	295.482	-0.111	-0.201
-199.319	231.753	0.029	0.047
-198.304	-13.677	0.073	0.047
-197.290	-42.809	-0.029	-0.015
-196.275	-4.805	0.149	-0.102
-195.260	156.739	-0.142	0.195
-194.246	-87.500	0.049	-0.015
-193.231	55.468	-0.130	-0.125
-192.217	102.066	0.156	0.180
-191.202	400.405	-0.043	-0.089
-190.187	-39.282	-0.212	0.110
-189.173	-191.713	-0.119	0.001
-188.158	-200.000	0.023	-0.170
-187.144	-200.000	0.049	-0.415
-186.129	-41.238	-0.054	-0.027
-185.114	-24.228	0.060	0.036
-184.100	-200.000	0.042	-0.235
-183.085	-200.000	0.074	-0.387
-182.071	37.402	0.130	-0.115
-181.056	-107.480	-0.060	0.013
-180.042	-44.268	0.265	-0.132
-179.027	-176.250	-0.097	0.003
-178.012	-91.947	-0.081	-0.023
-176.998	800.000	-0.041	-0.176
-175.983	800.000	0.100	0.291
-174.969	-48.008	0.067	-0.032
-173.954	121.068	-0.355	0.438
-172.939	2.819	0.209	0.150
-171.925	800.000	0.040	-0.121
-170.910	751.599	0.014	-0.037
-169.896	-200.000	0.005	0.069
-168.881	-149.918	0.203	-0.016
-167.866	289.569	-0.165	-0.297
-166.852	242.413	0.232	0.385
-165.837	-145.384	-0.254	-0.023
-164.823	-49.078	0.260	-0.123
-163.808	278.947	-0.056	0.099
-162.793	68.269	0.090	0.092
-161.779	95.733	0.163	-0.184
-160.764	53.152	-0.102	-0.096
-159.750	124.150	-0.196	0.244
-158.735	-154.464	-0.266	-0.018
-157.720	512.773	-0.106	-0.244
-156.706	-200.000	0.013	0.147
-155.691	-57.315	-0.160	0.070
-154.677	-59.156	-0.338	-0.144
-153.662	29.035	-0.208	0.174
-152.647	-150.812	-0.095	-0.007
-151.633	93.135	0.260	0.290
-150.618	15.024	0.150	0.116
-149.604	565.048	-0.123	0.296
-148.589	-43.004	0.187	-0.094
-147.574	-83.754	-0.075	0.024
-146.560	406.966	0.098	-0.205
-145.545	-20.040	0.350	0.214
-144.531	-153.512	-0.192	0.013
-143.516	800.000	-0.010	0.028
-142.502	582.096	0.056	0.136
-141.487	-120.967	-0.261	-0.043
-140.472	28.070	-0.297	-0.248
-139.458	-145.333	-0.040	0.004
-138.443	-80.911	0.117	0.038
-137.429	800.000	0.110	0.312
-136.414	800.000	0.092	0.303
-135.399	141.338	0.145	0.190
-134.385	-2.528	-0.082	-0.057
-133.370	-145.675	0.173	0.015
-132.356	-200.000	-0.008	0.302
-131.341	253.703	-0.186	0.314
-130.326	773.911	0.043	0.115
-129.312	-200.000	0.096	0.451
-128.297	-155.200	0.099	-0.006
-127.283	453.024	0.017	0.036
-126.268	-78.967	0.193	-0.065
-125.253	-71.813	-0.188	-0.069
-124.239	-99.359	-0.062	-0.015
-123.224	-42.256	0.224	0.113
-122.210	78.274	-0.197	-0.208
-121.195	-56.057	0.438	-0.193
-120.180	-190.728	-0.210	0.002
-119.166	363.650	0.067	0.133
-118.151	800.000	0.135	0.438
-117.137	-200.000	-0.023	-0.148
-116.122	-200.000	-0.022	-0.133
-115.107	1.142	0.450	0.319
-114.093	-29.207	-0.169	-0.096
-113.078	792.621	0.080	0.217
-112.064	-58.553	-0.258	0.111
-111.049	-16.576	0.316	-0.198
-110.034	20.044	-0.143	-0.114
-109.020	-200.000	-0.095	0.431
-108.005	120.125	-0.067	0.082
-106.991	800.000	-0.097	0.322
-105.976	70.654	0.140	-0.143
-104.962	28.152	0.095	-0.079
-103.947	-16.351	-0.088	-0.055
-102.932	-45.233	0.047	0.023
-101.918	800.000	-0.061	-0.201
-100.903	139.585	-0.063	-0.082
-99.889	475.158	0.098	0.219
-98.874	-98.472	-0.213	0.054
-97.859	-200.000	0.007	0.208
-96.845	223.885	-0.167	0.267
-95.830	104.368	0.098	-0.113
-94.816	-121.877	0.113	0.018
-93.801	-112.380	-0.195	-0.039
-92.786	392.374	-0.076	0.157
-91.772	800.000	-0.162	-0.476
-90.757	229.398	0.036	0.058
-89.743	-197.111	-0.190	-0.001
-88.728	800.000	0.072	0.208
-87.713	411.241	0.057	0.119
-86.699	-200.000	-0.013	-0.200
-85.684	52.676	0.162	-0.153
-84.670	-177.717	-0.137	-0.003
-83.655	290.133	-0.191	-0.342
-82.640	86.508	-0.133	-0.144
-81.626	-106.809	-0.219	0.048
-80.611	758.339	-0.074	0.197
-79.597	-200.000	-0.004	0.058
-78.582	145.924	-0.058	0.076
-77.567	98.995	0.254	0.290
-76.553	-140.962	0.032	-0.003
-75.538	100.920	0.237	-0.272
-74.524	319.782	-0.068	0.128
-73.509	-45.838	0.154	0.075
-72.494	145.988	-0.057	0.076
-71.480	81.827	-0.216	0.230
-70.465	300.203	-0.061	-0.110
-69.451	106.021	-0.130	-0.152
-68.436	-200.000	0.196	-0.000
-67.422	-25.607	-0.328	0.191
-66.407	42.049	-0.075	-0.067
-65.392	291.258	-0.181	-0.324
-64.378	115.290	-0.078	-0.094
-63.363	800.000	0.078	0.235
-62.349	105.785	-0.095	0.111
-61.334	64.874	-0.771	-0.767
-60.319	109.574	0.420	0.497
-59.305	330.747	-0.368	-0.700
-58.290	477.509	0.607	1.353
-57.276	800.000	0.440	1.482
-56.261	-200.000	108.117	612.229
-55.246	520.646	1486.686	3437.137
-54.232	177.047	2679.556	3844.314
-53.217	103.213	2313.653	2673.804
-52.203	36.387	2066.328	1796.365
-51.188	31.808	1983.732	1683.475
-50.173	30.257	1966.790	1655.201
-49.159	46.318	2023.696	1848.972
-48.144	46.685	2040.280	1867.380
-47.130	32.286	1999.001	1700.491
-46.115	30.005	1988.432	1670.882
-45.100	29.935	1985.509	1667.730
-44.086	29.873	1982.832	1664.853
-43.071	29.858	1980.144	1662.394
-42.057	29.866	1977.878	1660.502
-41.042	29.853	1976.796	1659.410
-40.027	29.850	1974.398	1657.306
-39.013	29.848	1972.161	1655.345
-37.998	29.889	1970.905	1654.593
-36.984	29.941	1968.503	1652.971
-35.969	29.890	1967.192	1651.347
-34.954	29.960	1965.366	1650.378
-33.940	29.891	1964.286	1648.788
-32.925	29.995	1961.972	1647.703
-31.911	29.960	1960.694	1646.255
-30.896	29.933	1958.963	1644.498
-29.881	30.076	1957.497	1644.467
-28.867	30.077	1955.686	1642.893
-27.852	30.040	1953.986	1641.076
-26.838	30.027	1952.043	1639.263
-25.823	30.047	1950.022	1637.677
-24.809	30.082	1948.241	1636.422
-23.794	29.967	1947.037	1634.334
-22.779	30.014	1945.044	1633.012
-21.765	30.009	1943.902	1631.942
-20.750	29.996	1941.744	1629.948
-19.736	30.005	1939.864	1628.390
-18.721	30.036	1938.672	1627.593
-17.706	29.954	1937.302	1625.662
-16.692	30.078	1935.159	1624.880
-15.677	30.017	1933.766	1623.115
-14.663	29.927	1932.728	1621.392
-13.648	29.930	1930.910	1619.826
-12.633	30.054	1929.556	1619.712
-11.619	29.991	1928.591	1618.285
-10.604	29.974	1927.480	1617.144
-9.590	30.001	1925.921	1616.004
-8.575	29.993	1924.302	1614.514
-7.560	30.073	1922.945	1614.007
-6.546	30.047	1921.690	1612.667
-5.531	29.988	1920.640	1611.202
-4.517	29.926	1919.416	1609.579
-3.502	29.979	1918.190	1608.947
-2.487	30.057	1916.144	1607.838
-1.473	29.955	1916.175	1606.916
-0.458	29.998	1910.803	1602.722
0.556	30.787	1890.881	1572.995
1.571	25.975	1870.727	1515.753
2.586	21.664	1891.920	1496.056
3.600	20.421	1927.498	1513.237
4.615	19.847	1920.697	1502.777
5.629	15.009	1820.190	1384.092
6.644	7.153	1705.065	1235.350
7.659	3.624	1670.923	1183.487
8.673	3.265	1667.788	1178.417
9.688	3.251	1666.585	1177.359
10.702	3.365	1664.945	1176.967
11.717	3.358	1661.664	1174.490
12.731	3.833	1661.222	1177.687
13.746	8.884	1673.101	1224.676
14.761	16.960	1690.551	1299.451
15.775	20.811	1696.612	1333.540
16.790	20.833	1695.517	1332.737
17.804	19.819	1692.542	1322.524
18.819	18.799	1689.282	1312.077
19.834	18.215	1687.151	1305.850
20.848	17.942	1686.110	1302.847
21.863	17.942	1684.145	1301.208
22.877	17.701	1682.609	1298.078
23.892	17.548	1681.649	1296.058
24.907	17.492	1680.610	1294.715
25.921	17.477	1679.148	1293.357
26.936	17.413	1678.517	1292.271
27.950	17.477	1677.649	1291.973
28.965	17.429	1676.982	1290.985
29.980	17.539	1676.314	1291.187
30.994	17.688	1675.525	1291.599
32.009	17.748	1673.896	1290.683
33.023	17.840	1673.360	1290.846
34.038	17.841	1672.091	1289.760
35.053	17.804	1671.288	1288.749
36.067	17.696	1669.498	1286.438
37.082	17.628	1668.313	1284.902
38.096	17.640	1667.515	1284.261
39.111	17.747	1666.522	1284.186
40.126	17.752	1666.107	1283.796
41.140	17.705	1665.088	1282.540
42.155	17.560	1663.180	1279.870
43.169	17.267	1662.155	1276.765
44.184	17.310	1660.399	1275.631
45.199	17.217	1659.309	1273.983
46.213	17.273	1657.920	1273.218
47.228	17.267	1657.594	1272.814
48.242	17.408	1656.298	1272.758
49.257	17.622	1655.015	1273.263
50.271	17.640	1653.702	1272.271
51.286	17.523	1652.950	1270.705
52.301	17.532	1651.848	1269.817
53.315	17.559	1649.899	1268.403
54.330	17.579	1648.677	1267.504
55.344	17.418	1646.864	1264.802
56.359	17.314	1645.029	1262.508
57.374	17.408	1643.711	1262.080
58.388	17.399	1643.031	1261.380
59.403	17.342	1641.782	1259.891
60.417	17.298	1639.892	1257.999
61.432	17.251	1639.324	1257.105
62.447	17.171	1638.201	1255.544
63.461	17.134	1637.041	1254.271
64.476	17.021	1636.081	1252.588
65.490	16.968	1634.973	1251.235
66.505	17.005	1633.746	1250.465
67.520	17.121	1632.242	1250.054
68.534	17.165	1630.846	1249.195
69.549	17.097	1630.300	1248.170
70.563	17.139	1628.822	1247.236
71.578	17.158	1627.490	1246.245
72.593	17.007	1627.037	1244.680
73.607	16.904	1625.874	1242.922
74.622	16.964	1624.440	1242.160
75.636	16.854	1623.875	1240.813
76.651	16.957	1623.071	1240.843
77.666	16.974	1622.051	1240.077
78.680	16.968	1621.062	1239.167
79.695	16.996	1620.964	1239.187
80.709	17.099	1619.749	1238.897
81.724	17.253	1618.815	1239.195
82.739	17.149	1618.303	1237.939
83.753	17.240	1617.616	1237.965
84.768	17.552	1616.202	1239.047
85.782	17.590	1615.722	1238.840
86.797	17.701	1614.867	1238.881
87.812	17.791	1614.302	1238.996
88.826	17.697	1612.670	1236.949
89.841	17.530	1611.589	1234.803
90.855	17.564	1611.041	1234.515
91.870	17.533	1610.404	1233.699
92.884	17.753	1608.906	1234.032
93.899	17.779	1607.921	1233.353
94.914	17.755	1606.757	1232.178
95.928	17.735	1605.815	1231.202
96.943	17.880	1603.837	1230.627
97.957	17.822	1602.512	1229.083
98.972	17.604	1601.423	1226.568
99.987	17.598	1599.670	1225.072
101.001	17.659	1598.197	1224.275
102.016	17.731	1596.381	1223.291
103.030	17.736	1595.030	1222.184
104.045	17.606	1594.610	1220.820
105.060	17.705	1592.741	1219.995
106.074	17.549	1591.485	1217.805
107.089	17.524	1589.230	1215.796
108.103	17.239	1587.532	1212.355
109.118	17.073	1586.934	1210.610
110.133	17.153	1584.213	1208.994
111.147	17.035	1583.660	1207.629
112.162	17.090	1582.918	1207.347
113.176	17.163	1581.149	1206.408
114.191	17.165	1580.027	1205.455
115.206	17.213	1578.571	1204.582
116.220	17.286	1577.231	1203.970
117.235	17.235	1576.163	1202.683
118.249	17.211	1575.261	1201.720
119.264	17.220	1573.628	1200.431
120.279	17.177	1571.886	1198.697
121.293	17.077	1570.747	1197.018
122.308	17.139	1568.548	1195.670
123.322	17.029	1567.379	1193.897
124.337	17.014	1565.417	1192.193
125.352	16.942	1564.672	1191.013
126.366	16.954	1563.411	1190.036
127.381	16.933	1562.211	1188.869
128.395	16.876	1561.629	1187.920
129.410	16.951	1559.298	1186.570
130.424	16.996	1558.251	1185.983
131.439	17.089	1556.698	1185.343
132.454	17.040	1556.576	1184.804
133.468	17.160	1555.019	1184.351
134.483	17.237	1553.232	1183.419
135.497	17.277	1552.273	1182.866
136.512	17.290	1550.611	1181.583
137.527	17.344	1549.202	1180.776
138.541	17.306	1548.050	1179.533
139.556	17.316	1547.119	1178.789
140.570	17.301	1545.769	1177.553
141.585	17.415	1544.488	1177.261
142.600	17.460	1543.608	1176.797
143.614	17.616	1542.102	1176.619
144.629	17.748	1541.185	1176.728
145.643	17.804	1540.053	1176.144
146.658	17.738	1538.731	1174.577
147.673	17.710	1537.096	1173.033
148.687	17.532	1535.546	1170.521
149.702	17.527	1533.967	1169.180
150.716	17.370	1532.759	1167.080
151.731	17.269	1531.522	1165.341
152.746	17.356	1529.692	1164.441
153.760	17.484	1527.987	1163.916
154.775	17.372	1527.168	1162.428
155.789	17.548	1526.018	1162.646
156.804	17.564	1524.913	1161.814
157.819	17.507	1524.292	1160.850
158.833	17.636	1522.683	1160.399
159.848	17.656	1521.395	1159.453
160.862	17.731	1520.679	1159.316
161.877	17.848	1518.897	1158.647
162.892	17.746	1517.402	1156.715
163.906	17.589	1515.968	1154.455
164.921	17.359	1514.839	1151.936
165.935	17.368	1514.196	1151.404
166.950	17.423	1513.386	1151.057
167.964	17.570	1511.541	1150.547
168.979	17.500	1510.795	1149.403
169.994	17.511	1509.559	1148.435
171.008	17.505	1508.051	1147.145
172.023	17.510	1507.397	1146.579
173.037	17.632	1506.489	1146.611
174.052	17.676	1504.941	1145.629
175.067	17.774	1504.498	1145.842
176.081	17.657	1503.001	1143.821
177.096	17.506	1501.562	1141.609
178.110	17.407	1500.389	1139.951
179.125	17.540	1498.622	1139.402
180.140	17.498	1498.111	1138.627
181.154	17.500	1496.925	1137.640
182.169	17.571	1496.001	1137.312
183.183	17.690	1494.680	1137.001
184.198	17.789	1494.002	1137.046
185.213	17.792	1492.996	1136.197
186.227	17.886	1491.629	1135.684
187.242	17.923	1490.725	1135.142
188.256	17.852	1489.893	1133.938
189.271	17.934	1488.785	1133.536
190.286	18.118	1487.360	1133.568
191.300	18.074	1486.576	1132.579
192.315	17.794	1484.936	1129.381
193.329	17.474	1483.469	1126.049
194.344	17.402	1482.247	1124.543
195.359	17.471	1481.301	1124.181
196.373	17.559	1481.024	1124.451
197.388	17.615	1479.938	1123.900
198.402	17.765	1478.760	1123.895
199.417	17.871	1477.689	1123.680
200.432	18.017	1476.932	1123.960
201.446	18.137	1475.974	1123.922
202.461	18.257	1475.136	1123.975
203.475	18.280	1473.798	1123.004
204.490	18.238	1472.960	1121.994
205.504	18.232	1471.771	1120.946
206.519	18.091	1470.299	1118.806
207.534	17.920	1469.264	1116.798
208.548	18.042	1467.989	1116.531
209.563	17.969	1467.069	1115.251
210.577	17.945	1466.354	1114.458
211.592	18.058	1465.189	1114.209
212.607	18.087	1464.616	1113.864
213.621	18.177	1464.259	1114.079
214.636	18.260	1462.913	1113.495
215.650	18.197	1462.015	1112.304
216.665	18.197	1461.066	1111.484
217.680	18.251	1460.711	1111.468
218.694	18.330	1460.021	1111.354
219.709	18.366	1459.561	1111.143
220.723	18.412	1458.383	1110.441
221.738	18.322	1457.119	1108.803
222.753	18.278	1456.158	1107.687
223.767	18.333	1455.031	1107.088
224.782	18.332	1453.504	1105.820
225.796	18.412	1453.569	1106.290
226.811	18.536	1452.892	1106.475
227.826	18.476	1452.177	1105.448
228.840	18.470	1451.030	1104.434
229.855	18.284	1449.812	1102.216
230.869	18.359	1448.591	1101.669
231.884	18.265	1448.093	1100.589
232.899	18.316	1446.089	1099.299
233.913	18.163	1445.649	1097.884
234.928	18.198	1443.956	1096.725
235.942	18.180	1442.651	1095.520
236.957	18.024	1441.893	1093.851
237.972	18.087	1440.548	1093.134
238.986	18.042	1439.507	1091.961
240.001	18.129	1438.680	1091.795
241.015	18.134	1437.204	1090.608
242.030	18.260	1435.922	1090.342
243.045	18.202	1435.816	1089.797
244.059	18.328	1434.729	1089.674
245.074	18.349	1434.088	1089.227
246.088	18.454	1433.128	1089.070
247.103	18.499	1432.351	1088.665
248.117	18.459	1432.153	1088.169
249.132	18.576	1431.230	1088.114
250.147	18.738	1430.374	1088.393
251.161	18.876	1430.199	1089.037
252.176	19.053	1429.436	1089.481
253.190	19.099	1428.487	1088.950
254.205	19.055	1428.101	1088.279
255.220	19.156	1427.167	1088.110
256.234	19.224	1426.337	1087.814
257.249	19.123	1425.471	1086.417
258.263	19.085	1424.768	1085.546
259.278	19.202	1423.396	1085.140
260.293	19.069	1422.322	1083.388
261.307	19.126	1422.018	1083.425
262.322	19.239	1421.061	1083.309
263.336	19.195	1420.745	1082.693
264.351	19.316	1419.272	1082.237
265.366	19.342	1418.638	1081.821
266.380	19.466	1417.377	1081.542
267.395	19.346	1416.474	1080.005
268.409	19.355	1415.696	1079.372
269.424	19.344	1414.532	1078.316
270.439	19.151	1413.619	1076.321
271.453	19.178	1412.393	1075.461
272.468	19.225	1411.561	1075.025
273.482	19.132	1410.716	1073.705
274.497	19.105	1410.001	1072.901
275.512	19.114	1408.754	1071.909
276.526	19.112	1408.184	1071.373
277.541	19.107	1407.043	1070.377
278.555	19.071	1406.118	1069.352
279.570	19.099	1405.393	1068.884
280.585	19.172	1404.908	1068.869
281.599	19.242	1404.365	1068.799
282.614	19.396	1403.479	1068.986
283.628	19.391	1401.681	1067.491
284.643	19.151	1401.012	1065.403
285.657	19.215	1399.595	1064.624
286.672	19.174	1398.828	1063.693
287.687	19.272	1397.456	1063.161
288.701	19.256	1396.921	1062.561
289.716	19.348	1395.851	1062.223
290.730	19.262	1395.210	1061.109
291.745	19.233	1394.287	1060.132
292.760	19.230	1393.666	1059.550
293.774	19.328	1392.618	1059.259
294.789	19.388	1391.767	1058.887
295.803	19.449	1390.928	1058.529
296.818	19.545	1390.392	1058.617
297.833	19.470	1388.964	1056.976
298.847	19.311	1388.058	1055.220
299.862	19.298	1387.097	1054.316
300.876	19.320	1385.918	1053.466
301.891	19.315	1385.169	1052.769
302.906	19.371	1384.304	1052.364
303.920	19.414	1383.981	1052.287
304.935	19.658	1382.969	1052.907
305.949	19.658	1382.479	1052.441
306.964	19.727	1382.153	1052.523
307.979	19.893	1380.594	1052.252
308.993	19.822	1379.462	1050.863
310.008	19.649	1378.661	1049.113
311.022	19.645	1377.935	1048.441
312.037	19.701	1377.037	1048.008
313.052	19.862	1375.498	1047.716
314.066	19.747	1374.759	1046.363
315.081	19.541	1373.770	1044.272
316.095	19.582	1372.359	1043.359
317.110	19.433	1371.413	1041.645
318.125	19.415	1370.601	1040.829
319.139	19.355	1369.849	1039.800
320.154	19.470	1368.388	1039.291
321.168	19.494	1367.473	1038.649
322.183	19.397	1366.818	1037.479
323.197	19.429	1365.584	1036.645
324.212	19.426	1365.069	1036.142
325.227	19.498	1364.400	1035.973
326.241	19.584	1363.316	1035.575
327.256	19.611	1362.317	1034.889
328.270	19.670	1361.229	1034.324
329.285	19.529	1360.618	1032.923
330.300	19.556	1359.716	1032.306
331.314	19.675	1358.486	1031.996
332.329	19.497	1358.104	1030.550
333.343	19.642	1356.655	1030.223
334.358	19.594	1356.519	1029.744
335.373	19.678	1355.578	1029.435
336.387	19.733	1354.778	1029.065
337.402	19.812	1354.040	1028.882
338.416	19.891	1353.293	1028.696
339.431	19.750	1353.126	1027.637
340.446	19.948	1352.289	1028.090
341.460	20.002	1351.352	1027.606
342.475	20.125	1350.682	1027.734
343.489	20.187	1349.719	1027.277
344.504	20.185	1348.771	1026.456
345.519	20.236	1347.906	1026.005
346.533	20.276	1346.858	1025.353
347.548	20.352	1346.167	1025.186
348.562	20.449	1345.165	1024.905
349.577	20.485	1344.285	1024.358
350.592	20.331	1343.463	1022.731
351.606	20.058	1342.525	1020.318
352.621	20.096	1340.885	1019.208
353.635	19.958	1340.131	1017.730
354.650	19.843	1339.285	1016.324
355.665	19.940	1338.426	1016.151
356.679	19.986	1337.305	1015.480
357.694	19.907	1336.588	1014.386
358.708	20.091	1335.291	1014.386
359.723	20.181	1334.004	1013.846
360.738	20.205	1333.213	1013.292
361.752	20.200	1332.797	1012.857
362.767	20.217	1331.437	1011.835
363.781	20.164	1330.221	1010.512
364.796	20.283	1329.505	1010.574
365.810	20.213	1328.921	1009.629
366.825	20.321	1328.514	1009.862
367.840	20.525	1327.815	1010.428
368.854	20.476	1327.529	1009.837
369.869	20.685	1327.003	1010.560
370.883	20.725	1326.318	1010.178
371.898	20.721	1324.914	1009.001
372.913	20.577	1323.971	1007.359
373.927	20.418	1323.509	1005.996
374.942	20.542	1322.419	1005.796
375.956	20.603	1321.628	1005.459
376.971	20.583	1321.198	1004.926
377.986	20.476	1320.853	1003.957
379.000	20.525	1319.528	1003.144
380.015	20.787	1318.291	1003.623
381.029	20.784	1317.859	1003.191
382.044	20.777	1317.522	1002.807
383.059	20.796	1317.009	1002.435
384.073	20.862	1315.744	1001.764
385.088	20.851	1315.287	1001.265
386.102	20.790	1314.823	1000.471
387.117	20.830	1314.021	999.999
388.132	20.825	1313.201	999.262
389.146	20.685	1311.868	997.352
390.161	20.537	1311.313	995.996
391.175	20.577	1310.331	995.391
392.190	20.546	1309.757	994.688
393.205	20.662	1308.392	994.230
394.219	20.844	1307.901	994.806
395.234	20.872	1306.556	993.858
396.248	20.738	1305.794	992.424
397.263	20.623	1303.928	990.262
398.278	20.684	1302.462	989.407
399.292	20.645	1301.564	988.420
400.307	20.599	1300.047	986.920
401.321	20.471	1298.935	985.258
402.336	20.480	1297.850	984.402
403.350	20.511	1296.872	983.750
404.365	20.577	1296.077	983.433
405.380	20.612	1295.142	982.832
406.394	20.603	1294.677	982.341
407.409	20.664	1294.340	982.344
408.423	20.683	1293.857	982.000
409.438	20.889	1292.677	982.174
410.453	20.974	1292.074	982.108
411.467	20.974	1291.700	981.739
412.482	21.118	1291.451	982.275
413.496	21.142	1290.892	981.894
414.511	21.245	1289.651	981.444
415.526	21.286	1288.956	981.056
416.540	21.302	1288.424	980.656
417.555	21.356	1287.968	980.528
418.569	21.358	1287.663	980.219
419.584	21.352	1287.018	979.606
420.599	21.247	1286.245	978.344
421.613	145.426	1433.556	1797.681
422.628	140.299	1454.996	1797.782
