DTS Sentinel unit serial number:	SN413079Multiplexer serial number:	ORYXHardware model number:	OX4-SRSoftware version number:	ORYX F/W v4.00 Oryx Data Collector v3.7.2.0data status	okinstallation	princeton_trtdifferential loss correction	single-endedforward channel	channel 4reverse channel	N/Adate	2019/09/12time	10:39:11forward acquisition time	60.00reverse acquisition time	0.00gamma	496.2192k internal	0.2294k external	0.2294temperature offset calibration	1.0063default loss term (dB/km)	0.3790temperature slope calibration	1.0000multiplexer offset coefficient	1.0000multiplexer slope coefficient	1.0000fibre end	0.00T internal ref (°C)	37.44T ext. ref 1 (°C)	1.88T ext. ref 2 (°C)	35.81length (m)	temperature (°C)	Stokes	anti-Stokes-747.200	55.665	0.336	0.333
-746.185	-11.460	0.147	0.099
-745.171	-49.929	0.322	0.156
-744.156	-50.548	-0.359	0.173
-743.142	-200.000	0.037	0.245
-742.127	732.029	-0.099	0.272
-741.112	-200.000	0.017	-0.175
-740.098	-150.615	0.175	-0.014
-739.083	-200.000	-0.032	0.345
-738.069	-200.000	0.014	0.389
-737.054	-23.757	-0.021	0.013
-736.039	800.000	-0.064	-0.192
-735.025	302.271	-0.118	-0.224
-734.010	-200.000	-0.006	-0.202
-732.996	32.761	-0.127	-0.113
-731.981	96.377	0.096	-0.113
-730.966	-53.570	-0.068	-0.032
-729.952	185.524	0.102	-0.155
-728.937	-37.580	-0.218	-0.119
-727.923	-200.000	0.026	0.231
-726.908	425.619	0.057	-0.124
-725.894	6.968	-0.125	-0.096
-724.879	800.000	0.041	0.150
-723.864	102.569	-0.186	-0.222
-722.850	26.571	0.323	-0.276
-721.835	-23.210	0.112	-0.069
-720.821	-124.052	-0.243	-0.039
-719.806	-162.521	-0.553	-0.028
-718.791	-200.000	0.040	0.345
-717.777	-200.000	0.005	-0.120
-716.762	172.820	-0.169	0.249
-715.748	165.105	-0.118	-0.170
-714.733	-170.314	0.238	0.009
-713.718	6.789	0.276	-0.210
-712.704	-102.822	-0.556	-0.135
-711.689	-25.902	-0.089	-0.053
-710.675	-200.000	0.003	-0.146
-709.660	800.000	-0.087	0.259
-708.645	-26.540	0.222	-0.133
-707.631	96.908	-0.066	0.077
-706.616	-200.000	-0.011	-0.271
-705.602	72.793	0.083	-0.089
-704.587	-7.311	-0.266	0.184
-703.572	36.375	0.070	0.063
-702.558	126.915	0.099	0.128
-701.543	-15.783	-0.148	0.096
-700.529	-2.428	-0.126	0.090
-699.514	292.690	-0.079	0.146
-698.499	536.529	0.022	0.053
-697.485	-163.319	0.261	0.013
-696.470	800.000	0.030	0.114
-695.456	-200.000	0.000	0.076
-694.441	-200.000	0.012	0.121
-693.426	-159.297	-0.228	0.013
-692.412	-86.817	-0.243	0.076
-691.397	-59.093	0.425	-0.187
-690.383	23.288	0.248	0.208
-689.368	-20.511	0.195	-0.122
-688.354	-200.000	0.035	-0.177
-687.339	205.889	-0.176	0.279
-686.324	-134.316	0.464	-0.058
-685.310	238.886	0.073	-0.124
-684.295	83.093	0.216	0.239
-683.281	87.800	0.062	-0.071
-682.266	133.382	0.175	-0.231
-681.251	-200.000	0.094	0.462
-680.237	6.027	-0.062	-0.047
-679.222	149.208	0.170	0.234
-678.208	99.551	-0.148	0.175
-677.193	-122.017	0.125	-0.021
-676.178	-200.000	-0.004	0.091
-675.164	-200.000	-0.051	0.336
-674.149	-139.369	-0.343	-0.038
-673.135	-0.964	0.156	-0.113
-672.120	-150.413	-0.180	-0.014
-671.105	-200.000	-0.014	-0.255
-670.091	-200.000	0.073	-0.338
-669.076	-49.222	0.153	0.075
-668.062	119.524	-0.151	0.190
-667.047	186.557	-0.053	-0.081
-666.032	291.770	-0.092	0.171
-665.018	-200.000	0.007	0.301
-664.003	41.783	-0.284	-0.262
-662.989	-128.551	0.200	0.029
-661.974	315.056	0.096	0.185
-660.959	-200.000	0.037	-0.278
-659.945	58.346	0.273	0.273
-658.930	-108.938	0.186	0.040
-657.916	800.000	-0.057	0.161
-656.901	-113.956	-0.127	0.025
-655.886	133.652	0.118	-0.155
-654.872	800.000	-0.176	0.536
-653.857	-200.000	-0.011	-0.187
-652.843	291.929	-0.142	0.264
-651.828	116.647	-0.077	0.096
-650.814	-189.746	-0.304	0.004
-649.799	-115.705	0.570	-0.109
-648.784	-114.324	-0.228	0.045
-647.770	-84.432	-0.238	0.077
-646.755	767.433	-0.128	-0.354
-645.741	-71.715	0.129	-0.049
-644.726	-31.571	-0.222	-0.127
-643.711	-2.858	-0.094	0.067
-642.697	-121.707	0.253	0.043
-641.682	85.192	0.034	0.038
-640.668	-76.570	-0.081	-0.029
-639.653	-44.285	-0.242	-0.123
-638.638	-200.000	0.000	0.122
-637.624	-93.332	0.250	0.071
-636.609	104.606	0.226	0.271
-635.595	-30.419	0.092	0.053
-634.580	170.373	0.136	-0.199
-633.565	-15.367	0.259	0.169
-632.551	-200.000	0.019	0.248
-631.536	-200.000	-0.002	-0.104
-630.522	159.551	0.156	-0.221
-629.507	101.093	-0.279	-0.331
-628.492	-200.000	0.030	0.165
-627.478	-124.394	-0.146	0.023
-626.463	-200.000	-0.072	0.356
-625.449	-85.708	0.266	0.084
-624.434	-200.000	0.041	0.277
-623.419	800.000	-0.011	0.036
-622.405	-22.901	-0.321	0.197
-621.390	-188.591	-0.278	0.004
-620.376	-120.397	0.148	0.026
-619.361	144.594	-0.165	0.224
-618.346	-200.000	0.026	-0.205
-617.332	125.105	-0.157	-0.202
-616.317	-90.316	-0.225	-0.066
-615.303	800.000	-0.100	0.352
-614.288	69.001	-0.207	-0.216
-613.273	-200.000	0.019	0.135
-612.259	-21.840	0.156	-0.097
-611.244	-25.226	-0.574	-0.346
-610.230	-200.000	0.012	0.160
-609.215	274.242	-0.073	0.132
-608.201	-97.990	0.189	-0.050
-607.186	-171.722	-0.122	0.004
-606.171	-200.000	0.054	-0.264
-605.157	-20.795	-0.170	-0.106
-604.142	800.000	0.120	-0.361
-603.128	-167.775	-0.072	-0.003
-602.113	-31.987	0.078	0.044
-601.098	-111.149	0.049	-0.010
-600.084	-200.000	0.034	0.210
-599.069	-152.228	0.362	0.027
-598.055	-21.235	0.095	0.059
-597.040	-200.000	-0.053	0.264
-596.025	-121.461	-0.225	-0.038
-595.011	-75.903	0.224	-0.081
-593.996	122.360	0.070	0.089
-592.982	-26.067	0.082	0.049
-591.967	-75.226	-0.334	0.121
-590.952	-39.396	0.253	0.135
-589.938	-74.900	-0.115	-0.042
-588.923	-111.945	0.204	0.042
-587.909	-11.103	0.081	-0.055
-586.894	11.533	-0.020	-0.015
-585.879	-77.062	0.080	-0.028
-584.865	800.000	-0.112	-0.393
-583.850	301.493	0.060	-0.112
-582.836	-200.000	-0.004	-0.062
-581.821	-74.245	-0.143	0.053
-580.806	157.651	-0.151	0.212
-579.792	-125.482	0.240	-0.037
-578.777	211.229	0.096	-0.153
-577.763	-146.813	-0.224	-0.020
-576.748	56.960	-0.064	-0.064
-575.733	442.692	-0.083	-0.185
-574.719	-137.336	-0.150	0.017
-573.704	800.000	0.054	0.215
-572.690	-57.574	0.305	-0.136
-571.675	21.094	-0.109	-0.089
-570.661	-153.688	0.336	0.024
-569.646	142.886	-0.068	0.092
-568.631	138.394	-0.140	0.186
-567.617	775.760	-0.090	0.251
-566.602	449.893	-0.112	-0.250
-565.588	-124.364	-0.135	0.021
-564.573	800.000	-0.061	0.186
-563.558	-154.080	0.377	-0.026
-562.544	234.144	-0.155	0.260
-561.529	170.719	-0.062	0.090
-560.515	266.916	0.154	0.274
-559.500	43.026	-0.186	0.173
-558.485	-114.393	-0.086	0.017
-557.471	209.578	-0.083	0.132
-556.456	27.651	0.247	-0.211
-555.442	-200.000	0.009	-0.199
-554.427	-51.418	0.320	0.152
-553.412	-200.000	-0.046	-0.211
-552.398	-28.000	0.328	-0.193
-551.383	-136.716	0.235	0.028
-550.369	407.185	0.102	0.218
-549.354	-37.129	0.093	-0.050
-548.339	-60.867	0.292	0.125
-547.325	55.528	-0.192	-0.189
-546.310	-119.095	0.119	-0.021
-545.296	-35.671	0.154	0.085
-544.281	-114.645	0.316	0.061
-543.266	-200.000	-0.005	-0.035
-542.252	670.851	0.060	0.158
-541.237	417.848	-0.107	-0.233
-540.223	388.705	-0.048	0.100
-539.208	-200.000	0.024	-0.209
-538.193	120.160	-0.107	0.134
-537.179	-200.000	-0.003	0.105
-536.164	-200.000	0.019	-0.132
-535.150	-200.000	0.001	0.037
-534.135	-153.022	-0.113	0.008
-533.121	-6.485	-0.269	-0.186
-532.106	6.355	-0.238	-0.179
-531.091	-200.000	0.030	0.332
-530.077	-77.206	0.257	-0.091
-529.062	134.723	-0.127	0.167
-528.048	-104.424	-0.208	-0.049
-527.033	181.168	-0.130	0.194
-526.018	-143.074	0.058	0.006
-525.004	-62.611	0.233	0.098
-523.989	45.710	0.257	-0.240
-522.975	-87.990	-0.100	0.031
-521.960	-15.620	0.270	-0.175
-520.945	179.326	-0.237	0.352
-519.931	13.947	-0.393	-0.310
-518.916	800.000	-0.033	-0.130
-517.902	800.000	0.097	0.428
-516.887	129.167	0.014	0.018
-515.872	-170.338	0.110	-0.004
-514.858	800.000	0.053	0.171
-513.843	8.425	-0.114	-0.087
-512.829	115.956	0.045	0.056
-511.814	103.897	-0.204	-0.243
-510.799	43.032	0.224	0.207
-509.785	800.000	0.085	0.286
-508.770	-174.954	-0.245	0.007
-507.756	417.244	-0.150	0.324
-506.741	101.132	0.227	0.267
-505.726	158.981	-0.257	0.362
-504.712	29.882	-0.132	0.114
-503.697	-200.000	-0.009	0.186
-502.683	769.351	0.089	0.246
-501.668	-134.470	0.185	0.023
-500.653	-126.849	0.234	0.035
-499.639	-78.663	-0.269	0.093
-498.624	188.300	0.132	0.199
-497.610	-69.495	-0.203	0.079
-496.595	66.876	-0.177	-0.183
-495.581	-200.000	-0.009	-0.284
-494.566	140.079	0.140	0.188
-493.551	-151.492	0.285	-0.021
-492.537	-110.788	-0.398	0.083
-491.522	-2.057	0.245	0.175
-490.508	-28.851	-0.070	0.040
-489.493	-64.835	-0.230	-0.094
-488.478	63.518	-0.271	-0.276
-487.464	-200.000	0.068	-0.305
-486.449	213.625	0.075	-0.120
-485.435	45.965	0.119	0.111
-484.420	-71.541	-0.063	-0.024
-483.405	335.217	0.133	0.260
-482.391	88.545	0.104	0.117
-481.376	545.599	0.080	0.194
-480.362	-151.971	0.150	0.011
-479.347	177.382	-0.074	0.109
-478.332	156.635	0.084	-0.118
-477.318	115.234	-0.196	0.242
-476.303	63.600	-0.224	0.228
-475.289	-168.191	0.364	-0.014
-474.274	-55.432	-0.210	-0.095
-473.259	180.073	0.220	-0.326
-472.245	128.455	0.228	-0.294
-471.230	-54.194	-0.193	-0.089
-470.216	-122.579	-0.567	-0.093
-469.201	-13.319	-0.221	-0.145
-468.186	-200.000	0.013	-0.251
-467.172	192.195	0.094	-0.143
-466.157	-178.761	-0.405	-0.009
-465.143	-28.994	0.206	-0.120
-464.128	-200.000	0.008	-0.082
-463.113	-10.974	-0.225	-0.151
-462.099	-127.730	-0.047	0.007
-461.084	380.273	-0.095	0.197
-460.070	-162.807	0.228	0.011
-459.055	-30.904	0.163	-0.093
-458.040	82.653	0.075	-0.083
-457.026	189.446	-0.124	0.187
-456.011	-200.000	-0.007	-0.154
-454.997	800.000	-0.022	-0.084
-453.982	103.220	0.299	0.354
-452.968	-49.682	0.090	0.043
-451.953	-200.000	0.017	-0.082
-450.938	-188.924	0.223	-0.003
-449.924	-200.000	0.015	0.195
-448.909	-200.000	0.029	0.156
-447.895	-140.558	0.109	0.011
-446.880	-200.000	0.007	-0.159
-445.865	162.161	-0.076	0.108
-444.851	800.000	-0.054	-0.159
-443.836	-52.440	0.023	-0.011
-442.822	5.260	0.153	-0.114
-441.807	-53.646	-0.051	0.023
-440.792	14.240	-0.192	-0.151
-439.778	302.738	-0.067	-0.125
-438.763	40.253	0.148	0.134
-437.749	-14.219	-0.137	0.089
-436.734	-156.446	-0.335	0.021
-435.719	-200.000	0.041	0.255
-434.705	-45.525	0.154	0.077
-433.690	-111.388	-0.160	0.033
-432.676	800.000	-0.083	0.271
-431.661	800.000	0.079	0.350
-430.646	16.996	0.218	-0.174
-429.632	-104.716	0.453	0.105
-428.617	-200.000	-0.008	-0.324
-427.603	48.848	0.204	-0.194
-426.588	31.123	0.146	-0.127
-425.573	-200.000	0.011	-0.166
-424.559	-87.383	-0.097	-0.030
-423.544	800.000	0.028	0.117
-422.530	618.462	-0.042	-0.106
-421.515	-200.000	-0.007	-0.075
-420.500	-138.241	-0.115	-0.013
-419.486	-14.493	0.133	0.086
-418.471	-200.000	-0.024	0.277
-417.457	-8.798	-0.186	-0.126
-416.442	-200.000	0.038	-0.217
-415.428	-25.200	-0.384	0.229
-414.413	-200.000	-0.013	-0.168
-413.398	423.780	-0.036	-0.078
-412.384	800.000	-0.097	0.271
-411.369	689.903	0.036	0.095
-410.355	-83.664	-0.211	0.068
-409.340	-53.573	-0.196	-0.090
-408.325	-77.120	-0.288	-0.101
-407.311	-12.026	-0.083	-0.055
-406.296	-200.000	0.056	-0.331
-405.282	8.331	-0.277	0.210
-404.267	54.595	0.082	-0.079
-403.252	-178.244	-0.449	0.011
-402.238	-129.611	0.097	0.014
-401.223	41.519	-0.267	-0.243
-400.209	100.974	-0.248	-0.291
-399.194	-78.929	0.459	0.158
-398.179	-200.000	0.045	0.284
-397.165	-200.000	0.039	-0.314
-396.150	33.056	-0.042	-0.036
-395.136	497.216	0.092	-0.213
-394.121	800.000	-0.088	-0.327
-393.106	-200.000	-0.029	0.160
-392.092	37.401	-0.212	0.189
-391.077	800.000	-0.070	0.273
-390.063	213.093	-0.079	0.125
-389.048	69.329	0.255	-0.265
-388.033	-22.071	-0.031	0.019
-387.019	118.076	0.039	0.049
-386.004	212.165	-0.035	-0.055
-384.990	-131.044	0.033	-0.004
-383.975	32.557	-0.176	-0.153
-382.960	800.000	-0.073	0.205
-381.946	98.414	0.101	-0.117
-380.931	-200.000	0.017	0.171
-379.917	800.000	-0.071	0.282
-378.902	-98.970	-0.119	0.030
-377.888	-137.610	-0.338	0.038
-376.873	-200.000	-0.024	0.147
-375.858	180.520	0.098	-0.145
-374.844	187.462	-0.252	0.379
-373.829	-193.785	0.168	0.001
-372.815	579.069	0.025	0.062
-371.800	-106.984	-0.272	-0.061
-370.785	14.114	-0.154	-0.121
-369.771	353.459	-0.032	-0.065
-368.756	-133.374	-0.417	0.053
-367.742	93.869	0.075	-0.086
-366.727	-42.984	-0.069	-0.035
-365.712	42.888	0.200	-0.183
-364.698	763.993	0.103	0.281
-363.683	-34.697	-0.208	-0.115
-362.669	94.997	0.035	-0.040
-361.654	-153.743	-0.483	0.033
-360.639	104.136	-0.127	-0.151
-359.625	-155.742	-0.291	-0.019
-358.610	146.515	-0.212	-0.287
-357.596	-200.000	0.008	0.042
-356.581	-200.000	0.005	-0.076
-355.566	-200.000	0.002	0.314
-354.552	-63.342	0.256	0.106
-353.537	-8.103	0.401	0.272
-352.523	-200.000	0.034	-0.191
-351.508	-121.060	0.254	0.043
-350.493	-145.044	0.311	-0.028
-349.479	-106.666	-0.255	-0.057
-348.464	-200.000	0.086	-0.405
-347.450	-200.000	0.036	0.186
-346.435	-45.112	0.233	-0.116
-345.420	108.816	-0.071	-0.085
-344.406	-200.000	-0.032	0.219
-343.391	-200.000	-0.001	-0.029
-342.377	-146.890	0.437	-0.038
-341.362	474.675	-0.148	0.336
-340.348	219.340	-0.068	0.110
-339.333	226.426	-0.078	-0.127
-338.318	280.105	0.031	0.055
-337.304	505.808	0.071	0.165
-336.289	195.987	-0.079	0.121
-335.275	-200.000	-0.264	-0.000
-334.260	-200.000	-0.014	0.124
-333.245	333.697	-0.010	0.020
-332.231	16.597	-0.119	-0.095
-331.216	800.000	-0.065	-0.222
-330.202	-200.000	0.053	-0.561
-329.187	-200.000	0.030	-0.142
-328.172	-200.000	-0.014	0.224
-327.158	-69.199	-0.350	-0.135
-326.143	-102.923	0.210	0.050
-325.129	8.646	0.094	0.071
-324.114	-115.134	-0.216	0.041
-323.099	-23.030	0.125	-0.076
-322.085	-200.000	0.170	-0.000
-321.070	800.000	0.076	0.292
-320.056	401.966	-0.206	0.435
-319.041	-200.000	-0.022	-0.189
-318.026	117.036	-0.133	-0.164
-317.012	-83.198	0.148	-0.048
-315.997	20.417	-0.261	0.212
-314.983	19.077	-0.197	-0.159
-313.968	800.000	0.065	0.270
-312.953	22.518	0.106	-0.087
-311.939	26.465	0.219	-0.184
-310.924	-150.250	-0.293	0.023
-309.910	58.418	0.177	0.175
-308.895	649.090	0.057	-0.146
-307.880	173.769	0.046	-0.067
-306.866	457.858	0.191	-0.427
-305.851	-13.677	0.108	-0.070
-304.837	-168.787	0.056	-0.002
-303.822	667.472	-0.009	0.025
-302.807	111.839	-0.046	0.056
-301.793	225.030	0.097	-0.157
-300.778	800.000	0.113	-0.397
-299.764	772.635	-0.042	-0.114
-298.749	157.699	0.071	-0.099
-297.735	621.040	0.049	-0.123
-296.720	-70.965	-0.184	-0.070
-295.705	-152.525	-0.046	-0.003
-294.691	-59.347	0.293	0.127
-293.676	-8.784	0.285	-0.192
-292.662	50.172	0.098	-0.093
-291.647	-200.000	-0.037	-0.295
-290.632	800.000	-0.052	0.163
-289.618	-200.000	-0.029	-0.228
-288.603	-56.810	0.273	0.121
-287.589	192.015	0.135	-0.205
-286.574	479.743	-0.043	-0.099
-285.559	197.588	-0.064	0.098
-284.545	-200.000	0.068	0.402
-283.530	800.000	-0.043	0.163
-282.516	-200.000	-0.013	-0.098
-281.501	800.000	-0.068	-0.192
-280.486	-32.388	-0.123	-0.069
-279.472	160.823	0.245	0.344
-278.457	-200.000	-0.038	0.442
-277.443	-138.778	-0.235	0.026
-276.428	-200.000	-0.074	-0.374
-275.413	70.770	-0.215	0.223
-274.399	224.758	-0.096	0.157
-273.384	-200.000	0.010	-0.396
-272.370	-200.000	0.040	-0.194
-271.355	-72.221	-0.104	0.039
-270.340	253.720	0.092	0.158
-269.326	-18.642	0.251	0.157
-268.311	800.000	0.015	-0.060
-267.297	800.000	-0.043	-0.159
-266.282	-105.323	0.054	0.012
-265.267	30.818	0.126	-0.108
-264.253	-117.258	0.250	0.046
-263.238	68.614	0.362	-0.373
-262.224	-200.000	0.033	-0.429
-261.209	-200.000	-0.008	-0.127
-260.195	179.439	0.114	0.167
-259.180	150.438	-0.112	0.153
-258.165	-171.782	0.110	-0.004
-257.151	-109.257	-0.516	0.110
-256.136	125.048	0.108	-0.137
-255.122	-86.879	0.142	-0.043
-254.107	-76.042	0.115	0.041
-253.092	-200.000	-0.024	0.156
-252.078	-84.294	0.173	-0.055
-251.063	86.914	-0.138	-0.153
-250.049	30.583	-0.240	-0.206
-249.034	-95.454	0.141	0.038
-248.019	70.374	-0.138	0.143
-247.005	-85.784	0.397	0.123
-245.990	-200.000	-0.021	0.296
-244.976	288.885	0.184	0.334
-243.961	89.111	0.059	0.066
-242.946	-200.000	0.023	-0.288
-241.932	-125.842	-0.100	-0.015
-240.917	461.819	-0.077	-0.172
-239.903	-113.961	-0.139	0.027
-238.888	-91.682	0.197	0.056
-237.873	31.965	0.065	-0.056
-236.859	-50.768	0.246	-0.116
-235.844	214.777	0.012	-0.020
-234.830	282.422	0.136	-0.245
-233.815	-93.366	0.190	0.053
-232.800	451.668	0.083	-0.185
-231.786	61.444	0.077	0.077
-230.771	356.914	0.113	0.226
-229.757	15.165	0.209	0.164
-228.742	105.728	0.318	-0.377
-227.727	-80.185	-0.470	0.158
-226.713	-133.559	0.197	0.025
-225.698	192.095	-0.087	0.131
-224.684	-47.512	-0.088	-0.043
-223.669	-200.000	0.010	-0.048
-222.655	-200.000	0.013	-0.108
-221.640	98.786	0.061	0.071
-220.625	800.000	0.059	-0.259
-219.611	-117.569	-0.241	0.044
-218.596	-200.000	0.046	-0.244
-217.582	-84.746	0.197	0.062
-216.567	-41.094	-0.251	-0.130
-215.552	15.081	0.115	-0.090
-214.538	-133.553	-0.074	0.009
-213.523	186.910	0.101	-0.151
-212.509	35.510	0.024	0.021
-211.494	-98.764	-0.252	-0.064
-210.479	7.826	0.164	0.123
-209.465	238.512	0.132	0.219
-208.450	-108.252	-0.038	-0.008
-207.436	350.573	0.113	0.224
-206.421	-45.102	-0.336	0.168
-205.406	48.641	0.023	0.022
-204.392	211.038	0.072	0.113
-203.377	800.000	0.091	0.287
-202.363	-151.502	0.361	0.027
-201.348	-96.910	0.235	0.062
-200.333	32.837	-0.209	-0.181
-199.319	613.977	0.027	0.067
-198.304	-11.220	0.020	-0.014
-197.290	-200.000	0.001	-0.160
-196.275	-200.000	0.116	-0.599
-195.260	-130.795	-0.108	0.014
-194.246	-200.000	-0.034	0.165
-193.231	-200.000	-0.064	-0.288
-192.217	315.040	0.114	0.215
-191.202	110.223	0.199	0.240
-190.187	-29.270	-0.046	-0.026
-189.173	145.425	0.102	0.136
-188.158	-146.534	0.228	0.020
-187.144	800.000	0.078	-0.230
-186.129	-58.623	0.320	0.139
-185.114	7.567	0.106	-0.079
-184.100	732.172	0.214	0.571
-183.085	-81.039	0.141	-0.047
-182.071	-60.933	0.164	-0.070
-181.056	-140.567	-0.120	-0.013
-180.042	-62.787	-0.174	-0.072
-179.027	484.065	0.011	0.024
-178.012	-200.000	0.012	0.264
-176.998	-200.000	0.057	-0.304
-175.983	266.239	-0.096	-0.168
-174.969	3.027	0.084	-0.061
-173.954	52.789	-0.078	0.074
-172.939	138.475	-0.058	-0.076
-171.925	-200.000	0.044	-0.393
-170.910	-20.975	-0.241	-0.148
-169.896	-82.151	-0.253	0.083
-168.881	250.847	-0.015	-0.025
-167.866	-81.616	-0.064	-0.021
-166.852	-200.000	0.002	-0.076
-165.837	-119.081	-0.436	-0.076
-164.823	-15.527	-0.260	-0.166
-163.808	-56.157	0.291	-0.129
-162.793	124.736	0.078	-0.098
-161.779	-151.683	0.137	-0.010
-160.764	7.372	-0.204	0.153
-159.750	800.000	-0.005	-0.015
-158.735	-200.000	-0.074	0.473
-157.720	800.000	-0.030	0.105
-156.706	800.000	-0.063	0.215
-155.691	-7.410	-0.241	-0.163
-154.677	160.599	-0.179	0.249
-153.662	800.000	0.051	-0.144
-152.647	-200.000	0.032	-0.244
-151.633	450.667	-0.079	0.174
-150.618	93.988	-0.114	0.129
-149.604	69.728	-0.189	0.195
-148.589	672.979	0.089	0.231
-147.574	-200.000	-0.073	-0.332
-146.560	-158.632	0.172	0.010
-145.545	503.382	0.051	0.118
-144.531	-3.236	0.041	-0.029
-143.516	75.407	0.104	-0.110
-142.502	-35.928	0.071	-0.038
-141.487	103.011	-0.257	0.301
-140.472	139.085	0.107	0.140
-139.458	583.723	0.108	0.264
-138.443	113.772	-0.096	0.116
-137.429	-200.000	-0.034	0.252
-136.414	148.639	-0.100	0.135
-135.399	-144.609	-0.053	-0.005
-134.385	-200.000	0.024	0.193
-133.370	-26.702	0.341	0.199
-132.356	-200.000	-0.044	-0.227
-131.341	-91.885	-0.438	-0.124
-130.326	186.471	0.132	0.196
-129.312	12.458	-0.272	-0.210
-128.297	-138.426	-0.161	0.018
-127.283	-145.810	-0.345	0.031
-126.268	800.000	-0.032	0.100
-125.253	-200.000	-0.007	0.229
-124.239	150.071	0.074	-0.100
-123.224	-107.279	0.105	-0.023
-122.210	-120.270	0.123	-0.021
-121.195	-155.923	0.131	0.008
-120.180	-200.000	0.013	0.059
-119.166	-200.000	0.020	-0.174
-118.151	-114.546	-0.344	-0.066
-117.137	14.984	-0.056	-0.044
-116.122	444.254	-0.128	-0.280
-115.107	485.579	0.123	-0.280
-114.093	-14.900	0.186	-0.119
-113.078	219.941	-0.095	0.151
-112.064	-200.000	0.018	-0.110
-111.049	-169.078	0.104	-0.004
-110.034	-200.000	0.005	0.353
-109.020	800.000	-0.050	0.141
-108.005	-167.432	-0.198	-0.008
-106.991	20.685	0.305	0.246
-105.976	-200.000	-0.006	0.558
-104.962	44.072	-0.232	-0.212
-103.947	-60.524	-0.130	0.055
-102.932	-200.000	0.076	-0.408
-101.918	-84.728	0.163	-0.051
-100.903	169.256	0.209	-0.298
-99.889	-200.000	-0.064	-0.290
-98.874	-200.000	0.195	0.001
-97.859	800.000	0.083	0.336
-96.845	-27.726	-0.108	0.062
-95.830	165.672	-0.184	0.259
-94.816	-200.000	-0.033	-0.296
-93.801	6.595	0.070	0.052
-92.786	-200.000	0.013	-0.294
-91.772	-138.712	-0.078	-0.009
-90.757	-91.647	-0.284	-0.081
-89.743	800.000	0.054	0.153
-88.728	-81.381	-0.325	0.107
-87.713	-95.582	0.190	0.051
-86.699	1.531	0.126	-0.091
-85.684	-138.550	0.076	-0.008
-84.670	287.753	0.098	-0.176
-83.655	472.246	-0.071	0.160
-82.640	-154.854	-0.275	-0.018
-81.626	800.000	-0.060	0.166
-80.611	-118.671	0.094	0.017
-79.597	277.044	0.144	0.255
-78.582	34.466	0.249	-0.216
-77.567	-60.721	0.226	0.095
-76.553	-63.958	-0.396	0.161
-75.538	-80.374	-0.150	0.050
-74.524	-69.746	-0.194	-0.074
-73.509	-200.000	0.003	-0.146
-72.494	153.294	0.160	-0.218
-71.480	-75.482	0.267	0.095
-70.465	30.421	0.173	-0.148
-69.451	6.418	0.217	-0.160
-68.436	306.329	0.089	0.164
-67.422	-72.843	-0.443	-0.162
-66.407	-39.767	-0.028	0.015
-65.392	-200.000	0.038	-0.492
-64.378	800.000	0.021	-0.075
-63.363	-117.363	0.268	-0.048
-62.349	800.000	0.081	0.226
-61.334	78.151	-0.643	-0.683
-60.319	616.521	0.096	0.239
-59.305	398.858	-0.321	-0.668
-58.290	258.606	0.504	0.865
-57.276	800.000	0.595	1.737
-56.261	-200.000	85.419	500.189
-55.246	454.293	1392.013	3069.329
-54.232	143.065	2616.923	3464.577
-53.217	102.131	2382.669	2769.682
-52.203	43.672	2119.838	1930.598
-51.188	39.078	2029.096	1805.789
-50.173	37.550	2009.652	1774.492
-49.159	50.307	2054.385	1931.847
-48.144	53.468	2074.511	1979.873
-47.130	40.035	2034.843	1819.426
-46.115	37.542	2023.054	1785.966
-45.100	37.484	2020.076	1782.736
-44.086	37.420	2017.827	1780.092
-43.071	37.305	2015.416	1776.841
-42.057	37.291	2013.556	1775.000
-41.042	37.361	2011.765	1773.996
-40.027	37.313	2010.105	1772.024
-39.013	37.399	2007.053	1770.044
-37.998	37.356	2005.760	1768.443
-36.984	37.348	2004.251	1766.970
-35.969	37.394	2002.222	1765.529
-34.954	37.363	2000.226	1763.420
-33.940	37.411	1998.703	1762.439
-32.925	37.430	1997.427	1761.419
-31.911	37.479	1995.018	1759.664
-30.896	37.452	1993.938	1758.402
-29.881	37.405	1992.695	1756.811
-28.867	37.526	1990.395	1755.806
-27.852	37.503	1988.837	1754.148
-26.838	37.546	1986.371	1752.297
-25.823	37.505	1985.142	1750.769
-24.809	37.485	1983.400	1748.982
-23.794	37.468	1981.637	1747.208
-22.779	37.454	1979.871	1745.457
-21.765	37.407	1978.392	1743.665
-20.750	37.451	1976.787	1742.573
-19.736	37.418	1975.311	1740.903
-18.721	37.564	1973.280	1740.358
-17.706	37.435	1972.017	1738.019
-16.692	37.396	1970.015	1735.834
-15.677	37.444	1968.523	1734.878
-14.663	37.512	1966.773	1733.878
-13.648	37.485	1965.882	1732.777
-12.633	37.526	1964.296	1731.680
-11.619	37.359	1963.571	1729.480
-10.604	37.464	1961.877	1728.854
-9.590	37.415	1960.933	1727.522
-8.575	37.435	1959.348	1726.230
-7.560	37.380	1958.170	1724.642
-6.546	37.485	1956.425	1723.963
-5.531	37.415	1955.325	1722.307
-4.517	37.503	1953.755	1721.632
-3.502	37.433	1952.801	1720.109
-2.487	37.426	1951.430	1718.767
-1.473	37.421	1950.465	1717.803
-0.458	37.591	1946.009	1715.311
0.556	37.777	1927.784	1692.690
1.571	34.169	1909.502	1645.374
2.586	30.386	1933.183	1632.445
3.600	29.333	1970.982	1654.770
4.615	28.282	1965.546	1640.652
5.629	20.740	1856.755	1485.603
6.644	8.407	1727.074	1283.214
7.659	2.442	1685.202	1205.140
8.673	2.070	1681.036	1199.128
9.688	1.943	1680.050	1197.324
10.702	1.852	1678.025	1195.059
11.717	1.676	1675.483	1191.764
12.731	2.048	1674.759	1194.059
13.746	9.689	1693.628	1267.671
14.761	20.965	1718.706	1375.825
15.775	25.954	1727.872	1422.516
16.790	26.551	1728.553	1427.665
17.804	26.745	1727.815	1428.456
18.819	26.721	1727.343	1427.751
19.834	26.889	1726.076	1427.901
20.848	27.022	1725.953	1428.720
21.863	27.153	1724.803	1428.666
22.877	27.080	1724.072	1427.360
23.892	27.114	1722.790	1426.439
24.907	27.099	1721.707	1425.300
25.921	27.129	1720.982	1424.807
26.936	27.082	1719.815	1423.349
27.950	27.149	1718.551	1422.699
28.965	27.039	1718.196	1421.423
29.980	27.104	1717.384	1421.136
30.994	27.158	1715.642	1419.983
32.009	27.185	1713.951	1418.674
33.023	27.103	1713.933	1417.889
34.038	27.083	1713.164	1416.972
35.053	27.150	1711.647	1416.120
36.067	27.133	1710.758	1415.123
37.082	27.096	1710.176	1414.227
38.096	27.073	1708.871	1412.849
39.111	27.124	1708.053	1412.440
40.126	27.117	1707.450	1411.762
41.140	27.055	1706.611	1410.460
42.155	27.084	1705.618	1409.743
43.169	27.004	1704.723	1408.257
44.184	27.081	1703.335	1407.582
45.199	27.062	1702.175	1406.352
46.213	27.084	1701.035	1405.455
47.228	26.997	1700.037	1403.837
48.242	27.176	1698.104	1403.500
49.257	27.140	1697.459	1402.565
50.271	27.056	1696.322	1400.847
51.286	27.103	1694.852	1399.873
52.301	27.092	1693.886	1398.867
53.315	27.092	1692.619	1397.697
54.330	27.033	1691.454	1396.157
55.344	27.036	1689.971	1394.835
56.359	27.168	1688.298	1394.343
57.374	27.028	1687.664	1392.625
58.388	27.102	1686.209	1391.862
59.403	27.084	1685.053	1390.652
60.417	27.144	1683.792	1389.946
61.432	27.059	1683.285	1388.756
62.447	27.063	1682.030	1387.625
63.461	27.163	1680.494	1386.999
64.476	27.101	1679.913	1385.926
65.490	27.095	1678.716	1384.768
66.505	27.149	1677.783	1384.288
67.520	27.141	1676.769	1383.271
68.534	27.208	1675.707	1382.778
69.549	27.172	1675.257	1382.012
70.563	27.064	1673.730	1379.806
71.578	27.168	1672.298	1379.294
72.593	27.037	1671.901	1377.855
73.607	27.146	1671.308	1378.070
74.622	27.156	1669.701	1376.696
75.636	27.168	1668.845	1375.960
76.651	27.127	1668.176	1374.974
77.666	27.132	1667.441	1374.285
78.680	27.200	1666.310	1373.745
79.695	27.132	1665.859	1372.740
80.709	27.159	1664.308	1371.547
81.724	27.084	1663.546	1370.225
82.739	27.079	1663.089	1369.694
83.753	27.148	1662.179	1369.339
84.768	27.148	1661.104	1368.333
85.782	27.099	1660.015	1366.953
86.797	27.139	1659.175	1366.435
87.812	27.149	1658.713	1366.012
88.826	27.232	1656.835	1364.970
89.841	27.134	1656.115	1363.520
90.855	27.120	1655.666	1362.925
91.870	27.192	1654.129	1362.073
92.884	27.100	1652.853	1360.218
93.899	27.126	1652.349	1359.878
94.914	27.175	1651.157	1359.142
95.928	27.165	1649.988	1357.980
96.943	27.189	1648.750	1357.021
97.957	27.175	1647.290	1355.596
98.972	27.142	1645.839	1354.036
99.987	27.088	1644.978	1352.805
101.001	27.202	1643.074	1351.966
102.016	27.104	1641.977	1350.217
103.030	27.121	1640.492	1349.005
104.045	27.177	1639.756	1348.697
105.060	27.084	1638.246	1346.644
106.074	27.090	1637.208	1345.717
107.089	27.218	1635.611	1345.230
108.103	27.202	1634.564	1344.137
109.118	27.277	1633.450	1343.656
110.133	27.137	1632.772	1341.941
111.147	27.210	1631.142	1341.019
112.162	27.256	1630.349	1340.591
113.176	27.261	1628.660	1339.123
114.191	27.251	1627.579	1338.041
115.206	27.148	1627.034	1336.716
116.220	27.136	1626.092	1335.738
117.235	27.110	1624.792	1334.356
118.249	27.253	1623.388	1334.137
119.264	27.256	1621.929	1332.840
120.279	27.147	1621.036	1331.188
121.293	27.247	1620.351	1331.239
122.308	27.189	1618.924	1329.531
123.322	27.240	1617.593	1328.688
124.337	27.289	1616.180	1327.769
125.352	27.258	1615.625	1326.968
126.366	27.309	1614.806	1326.550
127.381	27.241	1613.913	1325.202
128.395	27.283	1612.784	1324.470
129.410	27.303	1611.186	1323.183
130.424	27.201	1610.802	1322.005
131.439	27.223	1609.697	1321.144
132.454	27.251	1607.925	1319.774
133.468	27.303	1606.533	1318.892
134.483	27.196	1606.182	1317.716
135.497	27.222	1604.643	1316.523
136.512	27.298	1603.339	1315.887
137.527	27.284	1602.084	1314.635
138.541	27.247	1601.448	1313.731
139.556	27.316	1600.062	1312.978
140.570	27.227	1599.252	1311.553
141.585	27.281	1597.291	1310.220
142.600	27.242	1596.790	1309.415
143.614	27.225	1595.560	1308.163
144.629	27.304	1593.956	1307.306
145.643	27.361	1592.793	1306.643
146.658	27.215	1591.756	1304.626
147.673	27.230	1590.254	1303.390
148.687	27.218	1589.349	1302.448
149.702	27.180	1588.837	1301.639
150.716	27.225	1587.363	1300.635
151.731	27.211	1586.168	1299.445
152.746	27.166	1585.192	1298.211
153.760	27.188	1583.892	1297.189
154.775	27.278	1582.379	1296.472
155.789	27.260	1581.902	1295.840
156.804	27.268	1580.789	1294.874
157.819	27.249	1579.672	1293.708
158.833	27.281	1578.166	1292.585
159.848	27.329	1577.403	1292.189
160.862	27.275	1576.877	1291.261
161.877	27.309	1575.629	1290.364
162.892	27.334	1574.739	1289.697
163.906	27.416	1573.620	1289.246
164.921	27.307	1572.838	1287.721
165.935	27.361	1572.074	1287.364
166.950	27.358	1571.090	1286.422
167.964	27.382	1570.062	1285.637
168.979	27.398	1569.282	1284.999
169.994	27.423	1568.104	1284.093
171.008	27.371	1567.509	1283.125
172.023	27.436	1566.170	1282.379
173.037	27.403	1565.269	1281.294
174.052	27.337	1564.106	1279.764
175.067	27.378	1563.596	1279.520
176.081	27.326	1562.292	1277.974
177.096	27.369	1561.457	1277.478
178.110	27.355	1560.425	1276.427
179.125	27.335	1559.211	1275.180
180.140	27.470	1558.158	1275.148
181.154	27.354	1557.574	1273.748
182.169	27.499	1556.472	1273.748
183.183	27.451	1555.647	1272.622
184.198	27.396	1555.017	1271.613
185.213	27.489	1554.119	1271.413
186.227	27.552	1552.793	1270.655
187.242	27.494	1552.138	1269.605
188.256	27.437	1551.686	1268.726
189.271	27.544	1550.216	1268.158
190.286	27.508	1549.736	1267.401
191.300	27.497	1548.844	1266.482
192.315	27.541	1548.102	1266.072
193.329	27.497	1546.885	1264.656
194.344	27.489	1545.640	1263.473
195.359	27.474	1545.725	1263.325
196.373	27.543	1544.688	1262.845
197.388	27.441	1543.894	1261.374
198.402	27.399	1542.594	1259.909
199.417	27.441	1541.839	1259.472
200.432	27.469	1540.887	1258.779
201.446	27.443	1539.870	1257.659
202.461	27.485	1539.055	1257.167
203.475	27.485	1538.160	1256.329
204.490	27.495	1537.247	1255.538
205.504	27.458	1536.604	1254.650
206.519	27.482	1535.930	1254.151
207.534	27.518	1534.870	1253.424
208.548	27.512	1534.341	1252.839
209.563	27.580	1533.078	1252.166
210.577	27.600	1532.201	1251.471
211.592	27.487	1531.582	1250.083
212.607	27.620	1530.810	1250.252
213.621	27.620	1530.147	1249.602
214.636	27.670	1529.373	1249.198
215.650	27.733	1527.939	1248.350
216.665	27.590	1527.918	1247.247
217.680	27.563	1526.869	1246.091
218.694	27.636	1525.893	1245.688
219.709	27.638	1525.376	1245.164
220.723	27.607	1524.062	1243.770
221.738	27.657	1523.442	1243.499
222.753	27.657	1522.724	1242.801
223.767	27.627	1521.707	1241.655
224.782	27.418	1521.290	1239.786
225.796	27.559	1519.993	1239.573
226.811	27.693	1518.905	1239.487
227.826	27.677	1518.359	1238.829
228.840	27.565	1518.228	1237.848
229.855	27.755	1517.021	1238.042
230.869	27.647	1516.026	1236.388
231.884	27.605	1515.407	1235.495
232.899	27.692	1513.836	1234.693
233.913	27.772	1512.870	1234.335
234.928	27.721	1511.799	1233.006
235.942	27.691	1510.850	1231.919
236.957	27.794	1509.832	1231.679
237.972	27.815	1509.041	1231.063
238.986	27.738	1507.626	1229.280
240.001	27.719	1506.995	1228.532
241.015	27.753	1506.218	1228.016
242.030	27.746	1505.261	1227.080
243.045	27.924	1504.060	1227.189
244.059	27.904	1502.791	1225.909
245.074	27.899	1502.176	1225.269
246.088	27.779	1502.261	1224.425
247.103	27.877	1501.107	1224.034
248.117	27.941	1500.138	1223.565
249.132	27.961	1498.906	1222.582
250.147	27.840	1499.005	1221.748
251.161	27.959	1498.435	1221.970
252.176	28.002	1497.463	1221.353
253.190	27.947	1496.655	1220.224
254.205	28.034	1495.543	1219.786
255.220	27.973	1494.708	1218.590
256.234	28.067	1493.790	1218.359
257.249	27.932	1493.444	1217.070
258.263	27.899	1493.132	1216.491
259.278	28.088	1491.309	1216.156
260.293	27.979	1491.034	1215.102
261.307	27.968	1490.047	1214.113
262.322	28.061	1489.420	1214.111
263.336	28.030	1488.569	1213.107
264.351	27.982	1487.582	1211.876
265.366	27.996	1486.697	1211.140
266.380	27.951	1486.346	1210.451
267.395	28.109	1484.628	1209.991
268.409	28.042	1484.443	1209.286
269.424	28.040	1483.360	1208.284
270.439	28.109	1481.992	1207.520
271.453	27.885	1481.587	1205.605
272.468	28.019	1480.964	1205.872
273.482	28.087	1480.273	1205.654
274.497	28.054	1479.589	1204.774
275.512	27.994	1478.460	1203.352
276.526	28.167	1477.503	1203.603
277.541	28.060	1476.990	1202.373
278.555	28.199	1475.921	1202.314
279.570	28.137	1474.995	1201.044
280.585	28.198	1474.107	1200.615
281.599	28.252	1473.133	1200.071
282.614	28.264	1472.151	1199.241
283.628	28.113	1471.325	1197.477
284.643	28.141	1470.885	1197.195
285.657	28.121	1470.087	1196.308
286.672	28.146	1469.351	1195.766
287.687	28.111	1468.346	1194.617
288.701	28.183	1467.265	1194.100
289.716	28.177	1466.795	1193.573
290.730	28.235	1466.234	1193.386
291.745	28.184	1465.156	1192.075
292.760	28.174	1464.447	1191.327
293.774	28.316	1463.105	1191.054
294.789	28.211	1462.563	1189.821
295.803	28.299	1461.764	1189.638
296.818	28.251	1460.914	1188.532
297.833	28.263	1459.848	1187.638
298.847	28.210	1459.378	1186.803
299.862	28.331	1458.143	1186.478
300.876	28.295	1458.031	1186.051
301.891	28.324	1456.527	1184.908
302.906	28.352	1455.935	1184.505
303.920	28.453	1454.970	1184.264
304.935	28.350	1454.685	1183.261
305.949	28.397	1453.804	1182.746
306.964	28.420	1452.759	1181.941
307.979	28.401	1451.826	1180.951
308.993	28.437	1451.030	1180.431
310.008	28.460	1450.514	1180.057
311.022	28.518	1449.331	1179.366
312.037	28.379	1448.410	1177.613
313.052	28.482	1447.408	1177.359
314.066	28.493	1446.800	1176.829
315.081	28.486	1445.877	1175.931
316.095	28.509	1444.700	1175.014
317.110	28.463	1444.052	1174.095
318.125	28.528	1443.142	1173.662
319.139	28.399	1442.386	1172.122
320.154	28.476	1441.948	1172.153
321.168	28.461	1441.221	1171.360
322.183	28.538	1439.326	1170.211
323.197	28.527	1438.814	1169.620
324.212	28.434	1438.185	1168.414
325.227	28.537	1437.155	1168.125
326.241	28.616	1436.208	1167.759
327.256	28.584	1435.411	1166.802
328.270	28.639	1434.929	1166.655
329.285	28.694	1433.831	1166.010
330.300	28.565	1433.423	1164.758
331.314	28.553	1432.296	1163.663
332.329	28.583	1431.837	1163.374
333.343	28.559	1430.948	1162.397
334.358	28.646	1430.236	1162.269
335.373	28.736	1429.462	1162.107
336.387	28.632	1429.059	1161.016
337.402	28.702	1427.907	1160.423
338.416	28.810	1427.096	1160.342
339.431	28.813	1426.994	1160.174
340.446	28.753	1426.491	1159.283
341.460	28.870	1425.177	1158.849
342.475	28.840	1424.421	1157.948
343.489	28.827	1423.912	1157.346
344.504	28.902	1422.446	1156.528
345.519	28.743	1421.830	1154.921
346.533	28.826	1420.158	1153.981
347.548	28.841	1419.894	1153.761
348.562	28.858	1418.956	1153.000
349.577	28.789	1418.387	1152.004
350.592	28.961	1417.484	1152.249
351.606	28.889	1416.924	1151.243
352.621	28.863	1415.751	1150.023
353.635	28.840	1415.012	1149.179
354.650	28.806	1414.166	1148.173
355.665	28.843	1413.186	1147.511
356.679	28.915	1412.378	1147.198
357.694	28.963	1410.954	1146.241
358.708	29.044	1410.219	1146.048
359.723	29.011	1408.725	1144.524
360.738	28.869	1408.168	1143.092
361.752	28.903	1407.108	1142.337
362.767	28.982	1405.436	1141.369
363.781	29.061	1404.918	1141.340
364.796	29.039	1404.070	1140.415
365.810	29.030	1403.496	1139.787
366.825	29.101	1402.878	1139.626
367.840	29.097	1402.289	1139.024
368.854	29.073	1401.300	1137.972
369.869	29.114	1400.817	1137.731
370.883	29.011	1400.852	1137.025
371.898	29.101	1399.662	1136.509
372.913	29.184	1398.880	1136.286
373.927	29.109	1398.160	1135.138
374.942	29.116	1397.239	1134.335
375.956	29.098	1396.620	1133.622
376.971	29.240	1395.675	1133.625
377.986	29.208	1394.788	1132.609
379.000	29.210	1394.345	1132.162
380.015	29.201	1393.683	1131.473
381.029	29.223	1392.760	1130.758
382.044	29.202	1392.345	1130.188
383.059	29.290	1391.528	1129.966
384.073	29.250	1390.583	1128.856
385.088	29.253	1390.594	1128.783
386.102	29.279	1389.688	1128.106
387.117	29.283	1389.131	1127.578
388.132	29.240	1388.840	1126.981
389.146	29.264	1387.698	1126.100
390.161	29.227	1386.995	1125.201
391.175	29.321	1386.011	1124.879
392.190	29.315	1385.951	1124.691
393.205	29.244	1385.185	1123.536
394.219	29.390	1383.725	1123.146
395.234	29.422	1382.680	1122.390
396.248	29.348	1381.668	1121.024
397.263	29.412	1380.620	1120.458
398.278	29.330	1379.530	1118.979
399.292	29.386	1378.869	1118.681
400.307	29.422	1378.079	1118.161
401.321	29.514	1377.388	1118.059
402.336	29.510	1376.441	1117.164
403.350	29.399	1375.292	1115.463
404.365	29.376	1374.243	1114.377
405.380	29.473	1373.665	1114.392
406.394	29.472	1372.710	1113.517
407.409	29.523	1371.888	1113.055
408.423	29.477	1371.426	1112.307
409.438	29.560	1370.669	1112.093
410.453	29.568	1369.857	1111.383
411.467	29.541	1369.498	1110.832
412.482	29.588	1368.955	1110.580
413.496	29.549	1368.411	1109.800
414.511	29.549	1367.725	1109.150
415.526	29.549	1366.934	1108.409
416.540	29.609	1365.715	1107.684
417.555	29.628	1365.249	1107.318
418.569	29.615	1364.873	1106.841
419.584	29.714	1364.021	1106.644
420.599	29.698	1363.529	1106.052
421.613	87.066	1345.367	1416.583
422.628	87.630	1342.702	1416.696
