DTS Sentinel unit serial number:	SN413079Multiplexer serial number:	ORYXHardware model number:	OX4-SRSoftware version number:	ORYX F/W v4.00 Oryx Data Collector v3.7.2.0data status	okinstallation	princeton_trtdifferential loss correction	single-endedforward channel	channel 4reverse channel	N/Adate	2019/09/12time	22:57:35forward acquisition time	60.00reverse acquisition time	0.00gamma	496.2192k internal	0.2316k external	0.2316temperature offset calibration	1.0174default loss term (dB/km)	0.3790temperature slope calibration	1.0000multiplexer offset coefficient	1.0000multiplexer slope coefficient	1.0000fibre end	0.00T internal ref (°C)	29.37T ext. ref 1 (°C)	3.73T ext. ref 2 (°C)	23.93length (m)	temperature (°C)	Stokes	anti-Stokes-747.200	485.145	0.153	-0.352
-746.185	7.784	-0.295	-0.224
-745.171	-157.158	0.155	0.010
-744.156	253.964	0.064	0.110
-743.142	-22.094	0.192	-0.118
-742.127	198.659	-0.403	0.625
-741.112	-54.930	0.250	-0.114
-740.098	142.711	-0.131	-0.176
-739.083	-200.000	-0.009	0.112
-738.069	-182.045	-0.551	-0.011
-737.054	-0.458	0.254	-0.182
-736.039	-24.708	-0.288	0.173
-735.025	800.000	0.097	0.335
-734.010	-86.265	-0.287	-0.090
-732.996	-60.417	0.080	-0.034
-731.981	-74.024	-0.356	-0.131
-730.966	-100.029	0.203	0.051
-729.952	-200.000	-0.038	0.226
-728.937	-127.379	-0.195	0.029
-727.923	-38.497	0.162	-0.086
-726.908	-63.760	-0.246	0.102
-725.894	-6.288	-0.073	-0.050
-724.879	-200.000	-0.007	-0.083
-723.864	-55.459	-0.360	-0.163
-722.850	800.000	0.002	-0.009
-721.835	-135.814	-0.258	0.031
-720.821	-67.032	-0.299	0.119
-719.806	-161.215	0.287	0.015
-718.791	-43.997	-0.204	-0.104
-717.777	260.374	0.093	-0.162
-716.762	-25.543	-0.233	0.139
-715.748	-31.646	0.187	0.106
-714.733	-138.685	-0.151	0.017
-713.718	272.573	0.069	0.122
-712.704	229.244	0.083	-0.137
-711.689	7.959	-0.301	-0.228
-710.675	161.071	-0.146	-0.206
-709.660	163.023	0.483	-0.686
-708.645	800.000	-0.072	-0.215
-707.631	-111.618	0.240	-0.049
-706.616	-58.052	-0.222	0.098
-705.602	-109.135	0.346	-0.074
-704.587	-198.255	0.162	0.001
-703.572	-200.000	-0.020	0.220
-702.558	735.542	-0.107	-0.289
-701.543	51.973	-0.086	-0.082
-700.529	37.211	0.225	-0.202
-699.514	287.709	0.045	-0.082
-698.499	27.214	0.143	-0.121
-697.485	-51.861	-0.160	0.075
-696.470	800.000	0.005	-0.016
-695.456	26.353	-0.158	-0.134
-694.441	-16.986	0.218	-0.139
-693.426	9.944	-0.136	0.104
-692.412	193.791	-0.075	0.114
-691.397	-57.361	-0.247	0.110
-690.383	-76.692	0.140	-0.050
-689.368	-110.647	-0.205	-0.043
-688.354	-200.000	-0.005	-0.197
-687.339	109.898	-0.054	0.066
-686.324	-200.000	0.241	0.000
-685.310	-200.000	-0.053	-0.252
-684.295	-30.785	-0.101	-0.058
-683.281	-200.000	0.047	-0.434
-682.266	218.662	-0.126	0.203
-681.251	-125.372	-0.323	0.050
-680.237	43.386	0.239	-0.220
-679.222	323.729	-0.078	-0.150
-678.208	76.226	0.015	0.016
-677.193	-100.728	-0.257	0.064
-676.178	143.596	-0.086	0.115
-675.164	-200.000	0.042	0.468
-674.149	-200.000	-0.000	0.055
-673.135	-140.692	-0.502	-0.052
-672.120	190.732	0.058	-0.087
-671.105	-200.000	-0.091	-0.424
-670.091	266.992	0.144	0.254
-669.076	800.000	-0.058	0.237
-668.062	552.597	-0.110	0.267
-667.047	-81.623	-0.054	0.018
-666.032	2.594	0.037	-0.027
-665.018	800.000	-0.058	-0.204
-664.003	105.776	0.212	-0.253
-662.989	181.280	-0.092	-0.137
-661.974	68.937	-0.111	0.115
-660.959	-81.991	-0.128	0.042
-659.945	-200.000	-0.022	0.175
-658.930	-200.000	-0.028	-0.155
-657.916	12.353	0.065	-0.050
-656.901	-200.000	-0.004	-0.397
-655.886	-101.793	0.210	-0.051
-654.872	167.074	0.230	-0.330
-653.857	154.436	-0.180	-0.250
-652.843	-200.000	-0.042	-0.345
-651.828	-130.490	-0.403	-0.055
-650.814	-26.651	0.042	0.025
-649.799	331.706	-0.047	0.092
-648.784	220.913	-0.062	-0.100
-647.770	-97.741	-0.412	-0.108
-646.755	-63.928	0.249	-0.103
-645.741	800.000	-0.067	0.237
-644.726	273.387	0.075	0.133
-643.711	19.852	-0.035	0.029
-642.697	-69.203	0.098	0.038
-641.682	-200.000	-0.011	0.250
-640.668	-26.051	0.044	-0.026
-639.653	162.737	-0.157	0.222
-638.638	-54.935	0.211	0.096
-637.624	-45.385	0.235	-0.118
-636.609	-21.839	0.066	-0.040
-635.595	-200.000	-0.006	-0.292
-634.580	47.491	0.075	-0.071
-633.565	105.414	0.074	0.089
-632.551	-200.000	0.004	0.191
-631.536	-200.000	-0.018	-0.084
-630.522	-114.402	0.211	-0.041
-629.507	145.306	0.165	-0.222
-628.492	-43.192	0.166	-0.085
-627.478	-200.000	-0.024	-0.136
-626.463	-35.757	-0.364	0.199
-625.449	-61.579	0.046	-0.020
-624.434	-200.000	0.016	0.166
-623.419	61.184	0.149	-0.149
-622.405	709.737	-0.102	0.272
-621.390	166.517	0.120	0.171
-620.376	-107.220	0.149	0.033
-619.361	632.812	0.151	-0.385
-618.346	-151.274	-0.057	0.004
-617.332	-9.234	0.033	0.022
-616.317	-86.568	0.309	-0.096
-615.303	-200.000	-0.000	0.214
-614.288	637.086	0.060	-0.154
-613.273	-87.996	0.093	-0.028
-612.259	-37.693	-0.226	-0.121
-611.244	-76.785	-0.291	0.103
-610.230	-121.084	-0.155	-0.026
-609.215	19.057	0.051	-0.042
-608.201	-77.885	0.189	0.066
-607.186	-135.821	0.169	-0.020
-606.171	800.000	-0.120	-0.387
-605.157	-200.000	0.007	-0.265
-604.142	91.395	-0.224	-0.253
-603.128	-45.457	-0.092	0.046
-602.113	-12.708	0.131	-0.086
-601.098	-64.792	0.146	-0.059
-600.084	-28.643	-0.209	-0.121
-599.069	385.853	-0.067	-0.138
-598.055	-200.000	0.021	-0.130
-597.040	260.827	-0.022	-0.039
-596.025	41.378	0.231	0.210
-595.011	140.907	0.149	0.199
-593.996	-54.100	-0.371	-0.170
-592.982	-22.834	-0.123	0.074
-591.967	233.648	-0.130	0.215
-590.952	-16.532	-0.388	0.247
-589.938	-200.000	0.033	-0.152
-588.923	800.000	-0.033	0.102
-587.909	-80.770	0.037	-0.012
-586.894	17.147	0.142	-0.114
-585.879	-200.000	-0.057	-0.307
-584.865	-200.000	-0.012	-0.074
-583.850	-109.776	0.373	-0.079
-582.836	-200.000	-0.018	-0.205
-581.821	28.134	-0.166	-0.141
-580.806	-200.000	-0.009	-0.147
-579.792	-91.339	0.103	0.030
-578.777	-200.000	-0.003	-0.076
-577.763	-82.754	-0.162	0.053
-576.748	443.464	-0.117	-0.257
-575.733	-84.842	-0.302	-0.096
-574.719	247.365	0.096	-0.163
-573.704	-82.990	-0.098	0.032
-572.690	37.964	-0.037	-0.033
-571.675	-200.000	-0.010	0.218
-570.661	-25.033	0.322	0.192
-569.646	291.132	0.111	0.204
-568.631	83.062	0.168	-0.184
-567.617	-200.000	-0.028	0.256
-566.602	-128.414	-0.220	0.031
-565.588	249.374	-0.194	-0.331
-564.573	-66.534	0.260	0.104
-563.558	-136.279	0.172	0.020
-562.544	-200.000	-0.005	0.324
-561.529	-200.000	-0.018	0.126
-560.515	263.559	0.255	-0.446
-559.500	178.384	-0.066	-0.097
-558.485	89.611	-0.278	-0.312
-557.471	-104.069	0.495	-0.116
-556.456	111.564	0.161	-0.195
-555.442	-73.285	0.218	-0.080
-554.427	-122.077	-0.224	-0.037
-553.412	800.000	-0.105	-0.316
-552.398	345.343	-0.093	-0.183
-551.383	800.000	-0.078	-0.289
-550.369	-140.106	0.329	-0.035
-549.354	170.520	0.128	0.184
-548.339	800.000	-0.035	-0.147
-547.325	188.271	-0.084	-0.126
-546.310	-200.000	0.018	0.241
-545.296	-100.418	-0.258	0.064
-544.281	228.441	-0.084	-0.138
-543.266	67.937	0.184	-0.189
-542.252	-87.441	-0.078	-0.024
-541.237	-80.716	-0.386	-0.129
-540.223	-20.815	0.259	-0.160
-539.208	46.918	-0.055	0.052
-538.193	-14.887	-0.282	0.182
-537.179	-48.790	-0.152	0.073
-536.164	-12.839	-0.173	0.113
-535.150	79.122	-0.020	0.022
-534.135	348.956	0.137	0.272
-533.121	118.070	-0.040	-0.050
-532.106	-200.000	-0.048	-0.375
-531.091	1.363	-0.183	-0.132
-530.077	685.971	0.019	0.051
-529.062	150.245	0.178	0.243
-528.048	293.055	0.116	-0.213
-527.033	-97.682	0.072	-0.019
-526.018	-107.917	-0.249	0.054
-525.004	-200.000	0.045	0.276
-523.989	32.306	-0.327	0.283
-522.975	63.872	-0.090	-0.091
-521.960	22.428	0.160	-0.131
-520.945	161.018	0.050	-0.070
-519.931	-62.368	-0.337	0.141
-518.916	-117.511	0.306	-0.056
-517.902	-99.858	0.215	-0.054
-516.887	-174.998	-0.223	-0.006
-515.872	10.254	0.080	-0.061
-514.858	800.000	0.048	0.181
-513.843	-43.705	0.082	0.042
-512.829	-83.944	0.240	0.077
-511.814	-200.000	0.014	-0.127
-510.799	-29.572	-0.372	0.213
-509.785	69.427	-0.098	-0.101
-508.770	-160.723	-0.373	-0.020
-507.756	-133.709	0.286	-0.036
-506.741	-200.000	0.014	-0.211
-505.726	-65.587	-0.473	0.190
-504.712	800.000	0.034	0.111
-503.697	-119.065	-0.506	-0.089
-502.683	58.630	-0.144	-0.142
-501.668	-39.162	0.148	0.078
-500.653	32.168	0.123	0.106
-499.639	72.475	0.110	0.115
-498.624	-51.671	0.141	-0.066
-497.610	-200.000	0.001	0.260
-496.595	-102.635	0.353	0.085
-495.581	-178.562	-0.310	0.007
-494.566	-114.429	0.121	0.023
-493.551	800.000	-0.058	-0.172
-492.537	-136.888	0.159	0.018
-491.522	-200.000	-0.013	-0.077
-490.508	-92.056	0.023	-0.007
-489.493	181.361	0.125	-0.185
-488.478	56.917	-0.140	0.137
-487.464	800.000	-0.049	0.144
-486.449	-164.002	-0.283	-0.013
-485.435	164.448	-0.131	0.185
-484.420	-200.000	0.196	-0.001
-483.405	-132.405	-0.388	-0.050
-482.391	34.678	-0.093	0.082
-481.376	-132.880	0.380	-0.049
-480.362	-113.354	0.141	0.028
-479.347	-46.840	-0.304	0.149
-478.332	-95.107	-0.119	-0.032
-477.318	-200.000	-0.005	-0.079
-476.303	-10.113	-0.150	-0.100
-475.289	-105.378	0.210	-0.048
-474.274	-59.877	-0.073	-0.031
-473.259	-16.943	-0.125	0.079
-472.245	135.460	0.103	-0.134
-471.230	-149.840	0.144	0.011
-470.216	-200.000	0.007	-0.074
-469.201	-200.000	0.114	-0.511
-468.186	800.000	-0.030	-0.088
-467.172	536.174	0.018	0.043
-466.157	50.063	-0.138	0.130
-465.143	-9.180	-0.146	0.098
-464.128	-64.753	0.231	0.094
-463.113	800.000	-0.065	0.229
-462.099	-118.367	-0.166	-0.030
-461.084	-91.800	0.110	-0.031
-460.070	-84.092	-0.175	-0.056
-459.055	-69.215	-0.111	-0.043
-458.040	-17.421	-0.057	-0.036
-457.026	-97.785	0.176	-0.046
-456.011	301.614	0.069	0.127
-454.997	-200.000	-0.018	0.179
-453.982	32.811	-0.048	-0.042
-452.968	-11.220	-0.507	0.335
-451.953	41.742	-0.198	0.180
-450.938	-200.000	-0.026	-0.204
-449.924	-93.274	0.157	0.044
-448.909	619.452	-0.076	-0.191
-447.895	103.168	-0.219	0.257
-446.880	-83.114	0.393	-0.127
-445.865	56.234	0.197	0.192
-444.851	276.339	0.110	0.195
-443.836	-200.000	-0.002	-0.157
-442.822	-78.407	-0.300	0.103
-441.807	117.339	-0.210	-0.258
-440.792	-27.277	0.326	-0.190
-439.778	-110.864	-0.203	0.042
-438.763	-148.862	0.151	0.012
-437.749	-193.356	-0.320	0.003
-436.734	-200.000	-0.006	-0.127
-435.719	421.466	0.020	0.043
-434.705	121.726	0.178	-0.223
-433.690	-200.000	0.011	-0.051
-432.676	-200.000	0.004	0.118
-431.661	-68.797	-0.006	0.002
-430.646	250.046	0.046	-0.078
-429.632	800.000	-0.065	-0.220
-428.617	-38.720	0.132	0.069
-427.603	-111.975	0.084	0.017
-426.588	38.237	-0.220	0.196
-425.573	167.375	-0.239	-0.340
-424.559	33.080	0.290	0.251
-423.544	-74.693	0.389	-0.140
-422.530	-200.000	-0.001	-0.356
-421.515	65.430	0.139	0.141
-420.500	129.528	0.261	0.334
-419.486	-66.796	0.229	-0.091
-418.471	-200.000	0.011	-0.085
-417.457	800.000	-0.095	-0.414
-416.442	115.575	0.037	0.046
-415.428	523.408	-0.145	-0.342
-414.413	-158.528	-0.248	0.014
-413.398	-24.139	0.215	0.128
-412.384	-19.390	-0.094	-0.058
-411.369	572.841	0.112	-0.272
-410.355	-56.725	0.243	-0.108
-409.340	800.000	-0.074	0.299
-408.325	88.940	0.215	0.239
-407.311	229.689	-0.157	0.256
-406.296	163.967	-0.277	0.391
-405.282	-192.938	-0.068	-0.001
-404.267	18.118	0.229	0.183
-403.252	370.108	-0.019	-0.038
-402.238	219.623	-0.100	-0.160
-401.223	-78.947	-0.146	0.050
-400.209	-115.837	0.253	-0.047
-399.194	-158.723	-0.448	-0.026
-398.179	468.981	0.093	-0.208
-397.165	128.011	0.115	-0.146
-396.150	-102.990	0.250	0.059
-395.136	-200.000	-0.032	-0.150
-394.121	-94.008	-0.231	-0.063
-393.106	-103.838	-0.135	-0.032
-392.092	486.147	0.078	-0.177
-391.077	105.795	-0.089	-0.106
-390.063	-44.132	0.293	0.147
-389.048	313.043	-0.080	-0.149
-388.033	150.962	0.122	-0.165
-387.019	-200.000	0.005	0.232
-386.004	-97.551	-0.380	-0.099
-384.990	82.574	0.355	-0.385
-383.975	-200.000	0.014	0.142
-382.960	128.000	-0.254	-0.323
-381.946	-27.082	-0.085	0.049
-380.931	-30.488	-0.192	0.109
-379.917	-144.418	0.193	0.018
-378.902	-7.281	-0.224	0.152
-377.888	800.000	-0.025	0.100
-376.873	-200.000	0.039	0.191
-375.858	-200.000	-0.016	-0.171
-374.844	584.266	-0.022	-0.054
-373.829	-75.952	-0.282	0.100
-372.815	-151.270	-0.377	0.028
-371.800	-21.000	0.267	-0.163
-370.785	-200.000	0.006	-0.036
-369.771	-29.288	0.176	0.101
-368.756	-82.158	-0.318	0.104
-367.742	79.915	0.029	-0.031
-366.727	800.000	-0.094	-0.312
-365.712	-178.612	-0.319	0.007
-364.698	-200.000	-0.001	-0.362
-363.683	-200.000	0.046	-0.233
-362.669	-161.732	0.143	-0.007
-361.654	403.337	-0.144	0.303
-360.639	119.920	0.081	-0.100
-359.625	800.000	-0.105	-0.374
-358.610	-61.125	0.343	0.144
-357.596	52.318	-0.029	0.027
-356.581	367.151	0.129	-0.259
-355.566	166.575	0.102	-0.145
-354.552	-15.187	0.188	0.120
-353.537	-88.864	0.398	-0.118
-352.523	67.258	0.089	0.090
-351.508	-60.391	-0.305	0.129
-350.493	101.301	-0.118	0.137
-349.479	-74.306	0.312	-0.112
-348.464	-65.375	-0.230	-0.092
-347.450	-15.042	0.307	-0.196
-346.435	346.286	-0.073	0.143
-345.420	800.000	0.046	-0.149
-344.406	171.232	-0.286	0.409
-343.391	256.149	-0.100	0.171
-342.377	800.000	-0.026	-0.077
-341.362	-200.000	-0.011	0.093
-340.348	-134.059	-0.157	0.019
-339.333	307.112	0.093	-0.172
-338.318	286.597	-0.087	-0.156
-337.304	-44.692	0.165	-0.082
-336.289	-200.000	-0.016	0.182
-335.275	800.000	0.038	-0.129
-334.260	798.562	0.102	-0.281
-333.245	-111.924	0.223	0.045
-332.231	800.000	-0.010	-0.037
-331.216	70.976	-0.031	-0.032
-330.202	-200.000	0.038	0.264
-329.187	800.000	0.074	-0.255
-328.172	133.712	-0.167	-0.215
-327.158	237.080	-0.206	0.340
-326.143	-134.862	-0.149	-0.018
-325.129	59.580	-0.069	-0.068
-324.114	-5.152	0.160	0.110
-323.099	-7.646	-0.110	-0.074
-322.085	79.367	-0.172	0.184
-321.070	-200.000	0.010	0.338
-320.056	800.000	-0.115	0.397
-319.041	-150.337	-0.113	0.009
-318.026	-137.276	0.340	0.039
-317.012	120.110	-0.068	0.084
-315.997	-130.514	-0.306	0.041
-314.983	-37.462	-0.263	0.140
-313.968	676.100	-0.033	0.084
-312.953	-89.723	0.258	0.075
-311.939	800.000	-0.082	0.338
-310.924	67.655	-0.278	0.283
-309.910	800.000	-0.100	-0.318
-308.895	84.132	-0.199	-0.216
-307.880	67.367	0.133	0.135
-306.866	800.000	0.073	0.214
-305.851	-200.000	0.018	-0.126
-304.837	402.267	-0.136	-0.286
-303.822	62.252	-0.192	-0.191
-302.807	-40.252	0.082	-0.042
-301.793	18.379	0.138	-0.110
-300.778	-82.769	0.233	0.075
-299.764	389.232	-0.098	-0.203
-298.749	40.021	0.074	0.066
-297.735	800.000	-0.132	-0.463
-296.720	-33.707	0.125	0.069
-295.705	-74.842	0.513	0.183
-294.691	-200.000	0.050	0.228
-293.676	-104.031	-0.145	-0.034
-292.662	-90.836	-0.245	-0.070
-291.647	-67.157	0.177	-0.069
-290.632	720.851	-0.100	0.264
-289.618	-200.000	0.024	0.118
-288.603	-87.282	0.128	0.039
-287.589	22.670	0.090	0.073
-286.574	102.103	0.164	-0.191
-285.559	186.375	-0.024	-0.035
-284.545	3.319	0.120	0.087
-283.530	-200.000	0.038	-0.223
-282.516	-38.425	0.298	-0.157
-281.501	112.242	-0.063	-0.076
-280.486	-97.386	-0.107	0.028
-279.472	-81.696	0.332	0.108
-278.457	92.865	-0.101	0.113
-277.443	-127.100	-0.193	0.028
-276.428	29.901	-0.290	-0.246
-275.413	-78.598	0.141	0.048
-274.399	-200.000	0.043	0.404
-273.384	-200.000	0.046	-0.269
-272.370	-1.865	-0.094	-0.066
-271.355	-57.322	0.247	0.108
-270.340	-200.000	0.019	-0.148
-269.326	-125.590	0.264	-0.040
-268.311	-43.935	0.132	-0.066
-267.297	-75.695	0.022	-0.008
-266.282	-200.000	0.006	0.067
-265.267	295.440	-0.236	-0.430
-264.253	101.997	-0.057	0.066
-263.238	159.902	-0.187	0.259
-262.224	-39.525	0.168	-0.088
-261.209	-48.527	-0.437	0.209
-260.195	-92.890	-0.406	-0.113
-259.180	237.773	0.155	-0.256
-258.165	800.000	-0.016	0.047
-257.151	433.474	0.066	0.142
-256.136	800.000	-0.079	-0.222
-255.122	524.895	-0.095	-0.223
-254.107	279.559	0.087	0.155
-253.092	-48.232	0.273	0.131
-252.078	-200.000	0.039	0.195
-251.063	-200.000	-0.014	-0.291
-250.049	800.000	0.050	-0.153
-249.034	800.000	0.060	0.203
-248.019	-200.000	0.038	0.226
-247.005	-99.591	0.076	-0.019
-245.990	26.322	0.188	-0.156
-244.976	121.688	0.207	0.257
-243.961	183.299	-0.092	0.135
-242.946	715.747	0.066	0.174
-241.932	-200.000	0.065	-0.000
-240.917	-100.510	-0.282	0.069
-239.903	31.441	-0.111	-0.095
-238.888	153.592	0.060	0.081
-237.873	-200.000	-0.013	0.364
-236.859	800.000	-0.066	0.216
-235.844	55.764	0.287	0.277
-234.830	-200.000	-0.011	0.057
-233.815	-105.507	-0.329	0.074
-232.800	800.000	0.044	-0.163
-231.786	159.245	0.092	0.127
-230.771	-200.000	-0.022	0.407
-229.757	32.459	0.098	0.084
-228.742	800.000	-0.112	0.325
-227.727	-85.275	0.107	-0.033
-226.713	44.199	-0.059	-0.053
-225.698	-166.825	-0.480	0.020
-224.684	-105.320	0.149	-0.034
-223.669	272.299	-0.099	-0.173
-222.655	32.410	0.149	0.128
-221.640	800.000	0.025	-0.105
-220.625	-200.000	-0.012	-0.243
-219.611	-146.121	-0.348	0.030
-218.596	463.130	0.081	0.179
-217.582	270.625	-0.039	-0.068
-216.567	-73.680	0.313	-0.113
-215.552	428.642	-0.122	0.261
-214.538	8.635	0.157	-0.118
-213.523	-200.000	0.011	0.243
-212.509	151.454	0.313	-0.423
-211.494	78.743	-0.024	0.025
-210.479	152.258	0.221	0.300
-209.465	-18.062	0.085	0.053
-208.450	380.711	0.016	0.033
-207.436	800.000	0.031	0.097
-206.421	-174.354	0.253	0.007
-205.406	16.751	-0.339	-0.266
-204.392	800.000	-0.053	0.215
-203.377	392.492	0.134	-0.277
-202.363	-194.521	0.129	0.001
-201.348	201.305	0.062	-0.095
-200.333	-119.032	-0.472	-0.082
-199.319	-29.130	0.352	0.200
-198.304	-200.000	-0.210	0.001
-197.290	-80.577	-0.151	0.050
-196.275	-200.000	-0.004	0.215
-195.260	-134.035	-0.075	0.009
-194.246	768.321	0.133	0.359
-193.231	227.344	0.081	-0.131
-192.217	49.374	-0.212	0.198
-191.202	-73.043	-0.320	-0.116
-190.187	800.000	0.035	-0.124
-189.173	84.324	-0.152	0.164
-188.158	130.276	0.061	0.078
-187.144	-126.909	0.207	-0.030
-186.129	-17.458	0.240	0.150
-185.114	-52.688	-0.103	-0.047
-184.100	258.929	0.107	-0.182
-183.085	800.000	-0.049	-0.158
-182.071	-200.000	0.005	0.137
-181.056	-200.000	-0.046	0.232
-180.042	330.853	-0.122	0.234
-179.027	86.217	0.133	0.146
-178.012	800.000	-0.028	0.091
-176.998	-62.315	0.205	0.085
-175.983	800.000	0.118	0.355
-174.969	-97.201	-0.161	-0.042
-173.954	107.920	-0.118	0.139
-172.939	-8.329	0.129	-0.086
-171.925	-200.000	0.090	0.000
-170.910	-121.764	0.228	0.037
-169.896	-113.008	0.209	-0.041
-168.881	227.375	0.049	0.079
-167.866	-64.333	0.322	0.130
-166.852	800.000	-0.065	0.203
-165.837	65.709	-0.064	0.065
-164.823	1.963	0.066	-0.047
-163.808	115.527	-0.239	0.289
-162.793	64.674	0.073	-0.073
-161.779	800.000	-0.050	-0.142
-160.764	446.699	-0.082	0.178
-159.750	-18.098	0.620	-0.384
-158.735	117.555	-0.195	0.237
-157.720	-200.000	0.025	0.176
-156.706	58.787	0.059	0.057
-155.691	-22.552	0.046	-0.027
-154.677	-200.000	0.004	-0.084
-153.662	-184.038	-0.017	0.000
-152.647	487.557	0.055	-0.124
-151.633	143.976	0.201	0.266
-150.618	210.032	0.177	0.275
-149.604	87.966	0.133	-0.146
-148.589	-200.000	-0.037	-0.403
-147.574	42.450	-0.303	-0.272
-146.560	-58.376	-0.066	-0.029
-145.545	79.260	-0.070	0.074
-144.531	-107.216	0.351	0.076
-143.516	21.556	-0.065	-0.052
-142.502	-64.980	0.159	-0.064
-141.487	-200.000	-0.050	-0.240
-140.472	103.272	-0.225	-0.261
-139.458	-116.430	-0.050	-0.009
-138.443	800.000	0.060	0.248
-137.429	136.250	-0.063	0.081
-136.414	90.800	-0.183	-0.203
-135.399	-3.332	-0.166	0.114
-134.385	-28.073	0.352	0.201
-133.370	-200.000	0.041	-0.278
-132.356	610.157	0.082	-0.202
-131.341	-163.407	0.179	0.008
-130.326	338.532	0.049	-0.095
-129.312	109.159	-0.187	-0.222
-128.297	-200.000	-0.086	-0.458
-127.283	48.744	-0.105	-0.097
-126.268	518.588	0.132	0.306
-125.253	140.457	0.062	-0.082
-124.239	-200.000	0.017	-0.127
-123.224	143.341	0.157	0.206
-122.210	37.420	-0.170	0.149
-121.195	-186.673	-0.434	0.006
-120.180	94.089	0.268	-0.300
-119.166	-143.508	-0.118	0.011
-118.151	416.304	-0.071	0.150
-117.137	96.278	-0.013	0.015
-116.122	52.461	0.034	0.032
-115.107	35.843	0.206	0.179
-114.093	71.490	0.144	-0.148
-113.078	-160.721	0.237	0.012
-112.064	800.000	0.108	-0.349
-111.049	-17.342	0.154	-0.096
-110.034	186.711	-0.104	-0.154
-109.020	177.778	0.130	0.188
-108.005	90.494	0.207	0.229
-106.991	-42.454	0.074	-0.037
-105.976	682.833	-0.096	-0.248
-104.962	-200.000	-0.006	0.055
-103.947	-1.069	0.250	0.175
-102.932	-200.000	-0.043	0.204
-101.918	56.357	-0.246	0.236
-100.903	-200.000	0.038	-0.297
-99.889	-200.000	-0.035	-0.198
-98.874	-41.045	0.346	-0.177
-97.859	492.056	-0.116	0.263
-96.845	-35.150	-0.371	-0.200
-95.830	-200.000	-0.061	-0.399
-94.816	-156.463	-0.104	-0.006
-93.801	-200.000	0.001	0.113
-92.786	32.015	0.122	-0.104
-91.772	45.852	-0.117	0.106
-90.757	800.000	0.106	0.304
-89.743	90.415	0.130	0.144
-88.728	-134.023	-0.096	0.012
-87.713	480.573	0.104	0.233
-86.699	-43.930	0.140	0.070
-85.684	-75.471	0.250	-0.088
-84.670	800.000	-0.040	0.126
-83.655	-200.000	0.018	0.124
-82.640	-67.566	0.106	-0.041
-81.626	-71.413	0.108	0.040
-80.611	283.111	0.107	0.189
-79.597	-118.726	-0.251	0.044
-78.582	-143.909	0.215	0.020
-77.567	-148.883	0.265	-0.021
-76.553	220.995	-0.218	0.346
-75.538	-200.000	-0.018	0.179
-74.524	-200.000	0.022	0.147
-73.509	-131.288	-0.253	0.033
-72.494	-103.577	0.223	-0.052
-71.480	-126.445	0.133	-0.020
-70.465	-134.698	0.236	0.028
-69.451	80.646	0.200	-0.213
-68.436	-200.000	0.030	0.482
-67.422	800.000	0.061	0.176
-66.407	-35.519	-0.589	0.315
-65.392	-90.223	-0.112	-0.032
-64.378	139.712	-0.018	-0.024
-63.363	473.708	-0.110	-0.245
-62.349	71.077	-0.071	-0.073
-61.334	57.673	-1.164	-1.123
-60.319	18.034	0.818	0.643
-59.305	287.843	-0.503	-0.897
-58.290	800.000	0.442	1.305
-57.276	800.000	0.298	1.074
-56.261	-200.000	109.645	605.552
-55.246	499.692	1500.028	3409.896
-54.232	175.163	2690.286	3842.090
-53.217	99.967	2316.070	2646.215
-52.203	35.572	2065.359	1788.039
-51.188	31.233	1981.716	1676.699
-50.173	29.730	1965.702	1649.679
-49.159	45.021	2023.900	1837.592
-48.144	45.367	2040.362	1855.607
-47.130	31.691	1997.828	1694.204
-46.115	29.391	1987.180	1664.385
-45.100	29.408	1983.908	1661.730
-44.086	29.308	1981.931	1659.111
-43.071	29.305	1978.868	1656.456
-42.057	29.146	1977.109	1653.486
-41.042	29.226	1975.558	1652.844
-40.027	29.276	1973.290	1651.327
-39.013	29.255	1971.380	1649.477
-37.998	29.331	1969.470	1648.491
-36.984	29.267	1967.862	1646.505
-35.969	29.320	1965.693	1645.099
-34.954	29.237	1964.882	1643.613
-33.940	29.360	1962.541	1642.690
-32.925	29.291	1961.093	1640.796
-31.911	29.403	1959.071	1640.035
-30.896	29.357	1957.844	1638.541
-29.881	29.387	1956.327	1637.469
-28.867	29.488	1954.635	1636.885
-27.852	29.410	1952.853	1634.637
-26.838	29.503	1950.638	1633.539
-25.823	29.442	1949.290	1631.809
-24.809	29.393	1947.616	1629.903
-23.794	29.474	1945.601	1628.867
-22.779	29.439	1943.844	1627.024
-21.765	29.423	1942.417	1625.630
-20.750	29.425	1940.556	1624.018
-19.736	29.396	1939.357	1622.701
-18.721	29.360	1937.834	1621.041
-17.706	29.456	1935.680	1620.021
-16.692	29.451	1934.013	1618.521
-15.677	29.402	1932.792	1616.998
-14.663	29.331	1931.467	1615.209
-13.648	29.366	1929.969	1614.193
-12.633	29.393	1928.380	1613.036
-11.619	29.386	1927.130	1611.864
-10.604	29.308	1926.108	1610.272
-9.590	29.354	1924.635	1609.377
-8.575	29.340	1923.234	1608.015
-7.560	29.392	1921.636	1607.069
-6.546	29.439	1920.224	1606.232
-5.531	29.418	1919.329	1605.242
-4.517	29.364	1918.127	1603.705
-3.502	29.375	1917.126	1602.896
-2.487	29.341	1915.833	1601.453
-1.473	29.411	1914.694	1601.052
-0.458	29.473	1909.517	1597.194
0.556	30.946	1889.980	1568.623
1.571	26.588	1870.709	1516.091
2.586	22.389	1892.855	1498.245
3.600	21.246	1927.369	1515.514
4.615	20.805	1921.129	1506.658
5.629	16.237	1821.623	1390.936
6.644	8.158	1705.659	1239.692
7.659	4.014	1670.695	1182.570
8.673	3.734	1666.955	1177.689
9.688	3.787	1665.652	1177.063
10.702	3.753	1665.053	1176.281
11.717	3.655	1661.680	1173.050
12.731	4.161	1660.704	1176.094
13.746	9.862	1674.188	1229.054
14.761	18.604	1693.594	1310.246
15.775	23.287	1701.079	1351.755
16.790	23.625	1701.637	1354.661
17.804	23.069	1698.784	1348.035
18.819	22.358	1695.928	1340.238
19.834	21.825	1694.346	1334.808
20.848	21.817	1692.804	1333.415
21.863	21.800	1691.908	1332.463
22.877	21.788	1691.093	1331.613
23.892	21.696	1690.161	1330.064
24.907	21.557	1689.049	1328.015
25.921	21.441	1687.984	1326.185
26.936	21.460	1686.395	1324.958
27.950	21.540	1685.706	1324.906
28.965	21.520	1685.368	1324.371
29.980	21.539	1685.197	1324.268
30.994	21.823	1683.085	1324.634
32.009	21.833	1682.699	1324.286
33.023	21.927	1681.973	1324.311
34.038	21.960	1681.293	1323.906
35.053	21.864	1679.916	1321.982
36.067	21.738	1678.459	1319.766
37.082	21.672	1677.653	1318.520
38.096	21.626	1676.540	1317.182
39.111	21.666	1675.737	1316.736
40.126	21.742	1674.780	1316.436
41.140	21.816	1673.797	1316.101
42.155	21.486	1672.359	1312.383
43.169	21.223	1670.812	1309.082
44.184	21.135	1669.024	1306.908
45.199	21.066	1667.914	1305.404
46.213	21.060	1667.751	1305.120
47.228	21.381	1666.962	1306.784
48.242	21.499	1666.050	1306.837
49.257	21.553	1664.876	1306.201
50.271	21.602	1663.500	1305.373
51.286	21.535	1662.486	1303.957
52.301	21.398	1661.554	1302.095
53.315	21.577	1659.411	1301.630
54.330	21.462	1658.340	1299.819
55.344	21.347	1656.361	1297.303
56.359	21.316	1654.406	1295.423
57.374	21.243	1653.590	1294.133
58.388	21.185	1652.657	1292.855
59.403	21.175	1651.004	1291.379
60.417	21.040	1649.974	1289.458
61.432	21.037	1648.527	1288.193
62.447	20.961	1647.380	1286.621
63.461	20.830	1646.491	1284.841
64.476	20.908	1645.017	1284.159
65.490	20.792	1644.408	1282.716
66.505	20.768	1642.798	1281.167
67.520	20.752	1641.871	1280.213
68.534	20.788	1640.984	1279.671
69.549	20.868	1639.773	1279.203
70.563	20.792	1638.533	1277.563
71.578	20.684	1637.417	1275.790
72.593	20.676	1635.961	1274.480
73.607	20.541	1634.872	1272.535
74.622	20.448	1633.734	1270.854
75.636	20.469	1633.158	1270.448
76.651	20.595	1632.619	1270.839
77.666	20.617	1631.666	1270.143
78.680	20.647	1631.010	1269.740
79.695	20.681	1630.051	1269.126
80.709	20.715	1629.254	1268.647
81.724	20.936	1628.268	1269.369
82.739	21.105	1627.889	1270.197
83.753	21.132	1627.160	1269.707
84.768	21.368	1626.548	1270.838
85.782	21.565	1626.347	1271.997
86.797	21.768	1625.489	1272.688
87.812	21.823	1625.392	1272.901
88.826	21.828	1623.747	1271.532
89.841	21.667	1622.406	1269.210
90.855	21.679	1621.885	1268.775
91.870	21.744	1620.756	1268.247
92.884	21.798	1619.942	1267.891
93.899	21.951	1619.034	1268.169
94.914	22.011	1618.001	1267.688
95.928	21.941	1616.982	1266.272
96.943	21.932	1615.619	1265.024
97.957	21.812	1614.289	1263.010
98.972	21.838	1612.232	1261.471
99.987	21.815	1611.240	1260.420
101.001	21.840	1609.713	1259.290
102.016	21.843	1607.829	1257.730
103.030	21.796	1606.831	1256.499
104.045	21.856	1605.547	1255.819
105.060	21.842	1603.998	1254.395
106.074	21.717	1602.489	1252.209
107.089	21.362	1600.667	1248.139
108.103	21.036	1598.496	1244.010
109.118	20.873	1596.919	1241.515
110.133	20.622	1596.316	1239.143
111.147	20.729	1593.785	1237.836
112.162	20.755	1592.975	1237.279
113.176	20.785	1591.456	1236.199
114.191	20.910	1590.197	1236.004
115.206	20.932	1589.147	1235.230
116.220	21.018	1588.007	1234.847
117.235	20.934	1586.869	1233.259
118.249	21.018	1585.537	1232.704
119.264	20.901	1583.936	1230.526
120.279	20.727	1582.538	1228.107
121.293	20.692	1581.155	1226.672
122.308	20.610	1579.890	1225.010
123.322	20.636	1577.960	1223.585
124.337	20.477	1576.499	1221.226
125.352	20.335	1575.558	1219.391
126.366	20.335	1574.562	1218.517
127.381	20.356	1573.570	1217.787
128.395	20.315	1572.204	1216.336
129.410	20.243	1570.747	1214.594
130.424	20.209	1569.266	1213.102
131.439	20.406	1568.323	1213.642
132.454	20.555	1567.470	1213.917
133.468	20.692	1566.349	1213.898
134.483	20.825	1564.852	1213.557
135.497	20.872	1563.869	1213.017
136.512	20.962	1561.987	1212.075
137.527	20.955	1560.830	1211.021
138.541	21.037	1559.839	1210.716
139.556	20.870	1559.542	1209.218
140.570	21.067	1557.360	1208.786
141.585	21.171	1556.624	1208.827
142.600	21.283	1555.571	1208.676
143.614	21.419	1555.187	1209.212
144.629	21.687	1553.830	1209.898
145.643	21.724	1553.269	1209.613
146.658	21.766	1551.384	1208.327
147.673	21.723	1549.553	1206.497
148.687	21.457	1548.042	1203.382
149.702	21.222	1546.691	1200.614
150.716	21.143	1545.011	1198.657
151.731	21.061	1543.399	1196.740
152.746	20.930	1541.927	1194.595
153.760	20.841	1540.876	1193.067
154.775	21.002	1539.805	1193.230
155.789	21.163	1539.086	1193.672
156.804	21.271	1538.207	1193.620
157.819	21.332	1536.687	1192.749
158.833	21.339	1535.720	1191.945
159.848	21.457	1535.101	1192.165
160.862	21.555	1534.721	1192.429
161.877	21.658	1533.148	1191.802
162.892	21.563	1531.451	1189.733
163.906	21.113	1529.644	1185.166
164.921	20.788	1528.463	1181.944
165.935	20.766	1527.305	1180.792
166.950	20.849	1526.233	1180.420
167.964	20.930	1525.703	1180.453
168.979	21.102	1524.902	1180.895
169.994	21.175	1523.569	1180.253
171.008	21.010	1522.495	1178.200
172.023	20.948	1521.728	1177.087
173.037	21.072	1520.647	1176.978
174.052	21.260	1520.059	1177.693
175.067	21.491	1518.946	1178.277
176.081	21.304	1517.480	1175.782
177.096	20.997	1515.696	1172.230
178.110	20.852	1514.317	1170.083
179.125	20.813	1513.233	1168.880
180.140	20.936	1512.264	1168.856
181.154	21.047	1511.878	1169.200
182.169	21.266	1511.426	1170.215
183.183	21.351	1510.392	1169.876
184.198	21.416	1509.392	1169.431
185.213	21.460	1508.915	1169.254
186.227	21.554	1508.050	1169.112
187.242	21.491	1507.133	1167.875
188.256	21.557	1505.882	1167.242
189.271	21.656	1504.957	1167.080
190.286	21.805	1504.317	1167.476
191.300	21.716	1503.250	1165.952
192.315	21.402	1501.402	1162.324
193.329	21.080	1499.503	1158.617
194.344	20.944	1498.819	1157.084
195.359	20.989	1497.757	1156.461
196.373	21.055	1496.611	1155.911
197.388	20.966	1496.107	1154.828
198.402	21.054	1495.209	1154.615
199.417	21.375	1494.156	1155.819
200.432	21.686	1493.738	1157.454
201.446	21.798	1493.593	1157.980
202.461	21.924	1493.063	1158.292
203.475	21.970	1491.770	1157.492
204.490	22.101	1490.549	1157.305
205.504	21.846	1489.416	1154.643
206.519	21.572	1487.952	1151.603
207.534	21.425	1486.813	1149.654
208.548	21.316	1485.501	1147.826
209.563	21.266	1484.273	1146.444
210.577	21.337	1482.939	1145.781
211.592	21.359	1482.484	1145.473
212.607	21.328	1481.932	1144.741
213.621	21.502	1481.688	1145.587
214.636	21.789	1480.911	1146.767
215.650	21.682	1479.647	1144.987
216.665	21.614	1478.843	1143.819
217.680	21.676	1478.233	1143.651
218.694	21.920	1477.904	1144.884
219.709	22.142	1476.933	1145.478
220.723	22.003	1475.844	1143.626
221.738	21.899	1475.102	1142.277
222.753	21.914	1474.137	1141.525
223.767	21.859	1472.813	1140.038
224.782	21.801	1472.135	1139.038
225.796	21.824	1471.325	1138.461
226.811	22.044	1471.119	1139.626
227.826	22.102	1470.420	1139.361
228.840	21.951	1468.910	1137.113
229.855	21.783	1467.763	1135.038
230.869	21.613	1466.965	1133.216
231.884	21.735	1464.963	1132.360
232.899	21.551	1464.738	1130.896
233.913	21.473	1462.778	1128.779
234.928	21.301	1461.750	1126.778
235.942	21.301	1460.235	1125.510
236.957	21.256	1458.923	1124.109
237.972	21.035	1458.138	1121.986
238.986	21.123	1457.016	1121.588
240.001	21.126	1456.060	1120.773
241.015	21.191	1455.200	1120.425
242.030	21.214	1453.930	1119.497
243.045	21.268	1453.008	1119.037
244.059	21.415	1452.597	1119.564
245.074	21.630	1451.703	1120.149
246.088	21.723	1450.991	1120.091
247.103	21.770	1450.850	1120.184
248.117	21.845	1450.288	1120.135
249.132	22.045	1449.645	1120.813
250.147	22.126	1449.218	1120.903
251.161	22.357	1448.979	1122.091
252.176	22.752	1448.749	1124.327
253.190	22.892	1448.062	1124.587
254.205	22.864	1447.262	1123.691
255.220	22.957	1446.379	1123.497
256.234	22.996	1445.820	1123.213
257.249	23.098	1445.230	1123.304
258.263	23.007	1443.783	1121.500
259.278	22.977	1443.087	1120.670
260.293	22.869	1441.976	1119.024
261.307	22.874	1441.312	1118.440
262.322	23.018	1440.623	1118.716
263.336	22.940	1440.199	1117.793
264.351	22.862	1439.218	1116.444
265.366	23.005	1437.672	1116.046
266.380	23.098	1437.336	1116.277
267.395	23.035	1436.357	1115.017
268.409	23.101	1435.158	1114.406
269.424	22.856	1434.332	1112.120
270.439	22.744	1432.766	1110.107
271.453	22.731	1432.111	1109.417
272.468	22.620	1431.153	1107.881
273.482	22.564	1430.245	1106.724
274.497	22.466	1428.648	1104.778
275.512	22.391	1428.011	1103.715
276.526	22.431	1427.010	1103.097
277.541	22.378	1426.113	1101.977
278.555	22.385	1425.139	1101.167
279.570	22.460	1424.654	1101.167
280.585	22.712	1423.823	1102.001
281.599	22.868	1423.761	1102.826
282.614	23.093	1422.445	1103.116
283.628	22.867	1421.325	1100.742
284.643	22.575	1420.304	1098.036
285.657	22.499	1418.851	1096.340
286.672	22.474	1418.045	1095.463
287.687	22.472	1417.099	1094.625
288.701	22.466	1416.057	1093.688
289.716	22.619	1415.277	1093.936
290.730	22.590	1414.583	1093.125
291.745	22.561	1413.585	1092.073
292.760	22.620	1412.871	1091.790
293.774	22.652	1411.793	1091.059
294.789	22.603	1411.032	1090.073
295.803	22.897	1410.461	1091.352
296.818	22.910	1409.561	1090.637
297.833	22.803	1408.331	1088.930
298.847	22.628	1407.297	1086.956
299.862	22.568	1406.601	1085.951
300.876	22.568	1405.145	1084.735
301.891	22.641	1404.422	1084.525
302.906	22.657	1404.158	1084.324
303.920	22.797	1403.581	1084.645
304.935	22.928	1403.458	1085.260
305.949	23.105	1402.941	1085.849
306.964	23.242	1402.207	1086.029
307.979	23.349	1401.086	1085.716
308.993	23.272	1399.844	1084.186
310.008	22.983	1399.166	1081.798
311.022	23.035	1397.826	1080.981
312.037	23.030	1397.239	1080.403
313.052	23.201	1395.846	1080.276
314.066	23.014	1395.297	1078.611
315.081	22.899	1393.210	1076.205
316.095	22.676	1391.895	1073.733
317.110	22.469	1390.503	1071.311
318.125	22.394	1389.625	1070.079
319.139	22.414	1388.891	1069.541
320.154	22.378	1387.968	1068.518
321.168	22.493	1387.041	1068.410
322.183	22.495	1385.786	1067.357
323.197	22.522	1384.724	1066.609
324.212	22.462	1384.355	1065.866
325.227	22.554	1384.057	1066.101
326.241	22.572	1383.269	1065.507
327.256	22.644	1382.267	1065.078
328.270	22.698	1381.235	1064.513
329.285	22.611	1379.902	1062.870
330.300	22.409	1379.529	1061.269
331.314	22.394	1378.859	1060.569
332.329	22.468	1377.443	1059.830
333.343	22.546	1376.421	1059.417
334.358	22.554	1375.931	1058.995
335.373	22.641	1375.419	1059.035
336.387	22.847	1375.047	1059.891
337.402	22.881	1374.453	1059.540
338.416	23.070	1373.483	1059.834
339.431	23.158	1373.253	1060.085
340.446	23.128	1372.851	1059.505
341.460	23.247	1372.126	1059.561
342.475	23.501	1371.146	1060.232
343.489	23.624	1370.976	1060.738
344.504	23.717	1369.457	1060.027
345.519	23.693	1369.000	1059.436
346.533	23.784	1368.019	1059.129
347.548	23.869	1367.129	1058.849
348.562	23.897	1366.388	1058.348
349.577	23.923	1365.571	1057.776
350.592	23.692	1364.678	1055.621
351.606	23.323	1363.174	1052.172
352.621	23.060	1361.472	1049.204
353.635	22.939	1360.392	1047.561
354.650	22.851	1359.313	1046.114
355.665	22.819	1358.123	1044.919
356.679	22.905	1357.153	1044.588
357.694	22.978	1356.381	1044.334
358.708	23.144	1355.344	1044.425
359.723	23.209	1354.404	1043.991
360.738	23.303	1353.314	1043.612
361.752	23.275	1352.656	1042.845
362.767	23.168	1351.712	1041.394
363.781	23.247	1350.732	1041.013
364.796	23.293	1349.979	1040.608
365.810	23.440	1349.495	1041.012
366.825	23.571	1349.291	1041.526
367.840	23.802	1348.628	1042.278
368.854	23.982	1348.080	1042.822
369.869	24.107	1347.805	1043.247
370.883	24.224	1347.025	1043.237
371.898	24.126	1346.168	1041.905
372.913	23.863	1344.930	1039.320
373.927	23.780	1343.731	1037.812
374.942	23.767	1342.918	1037.019
375.956	23.844	1342.494	1037.048
376.971	24.037	1342.012	1037.709
377.986	23.848	1340.655	1035.470
379.000	23.807	1339.933	1034.581
380.015	23.873	1339.991	1034.915
381.029	24.118	1339.115	1035.575
382.044	24.161	1338.641	1035.364
383.059	24.231	1338.146	1035.300
384.073	24.255	1337.376	1034.750
385.088	24.029	1336.599	1032.745
386.102	24.046	1336.003	1032.296
387.117	24.262	1334.914	1032.610
388.132	23.941	1334.208	1030.116
389.146	23.786	1332.604	1027.890
390.161	23.523	1331.968	1025.787
391.175	23.493	1331.171	1024.908
392.190	23.523	1330.147	1024.206
393.205	23.608	1329.353	1023.989
394.219	23.758	1329.148	1024.610
395.234	24.088	1327.750	1025.341
396.248	23.916	1326.353	1023.184
397.263	23.736	1324.747	1020.816
398.278	23.654	1323.176	1019.045
399.292	23.555	1322.203	1017.637
400.307	23.423	1321.229	1016.046
401.321	23.372	1320.249	1014.910
402.336	23.423	1319.061	1014.197
403.350	23.318	1317.955	1012.655
404.365	23.236	1316.834	1011.240
405.380	23.435	1316.084	1011.707
406.394	23.495	1315.884	1011.807
407.409	23.547	1315.644	1011.828
408.423	23.734	1314.822	1012.171
409.438	23.976	1314.511	1013.225
410.453	24.091	1313.526	1013.027
411.467	24.242	1313.242	1013.578
412.482	24.341	1312.787	1013.699
413.496	24.246	1312.527	1012.870
414.511	24.381	1311.263	1012.573
415.526	24.505	1310.996	1012.980
416.540	24.514	1310.172	1012.305
417.555	24.658	1310.144	1013.008
418.569	24.688	1309.352	1012.478
419.584	24.615	1308.648	1011.430
420.599	24.334	1308.046	1009.282
421.613	145.562	1436.235	1796.049
422.628	141.115	1454.838	1796.151
