DTS Sentinel unit serial number:	SN413079Multiplexer serial number:	ORYXHardware model number:	OX4-SRSoftware version number:	ORYX F/W v4.00 Oryx Data Collector v3.7.2.0data status	okinstallation	princeton_trtdifferential loss correction	single-endedforward channel	channel 4reverse channel	N/Adate	2019/09/18time	13:53:35forward acquisition time	60.00reverse acquisition time	0.00gamma	496.2192k internal	0.2302k external	0.2302temperature offset calibration	0.9997default loss term (dB/km)	0.3790temperature slope calibration	1.0000multiplexer offset coefficient	1.0000multiplexer slope coefficient	1.0000fibre end	0.00T internal ref (°C)	34.55T ext. ref 1 (°C)	0.65T ext. ref 2 (°C)	29.72length (m)	temperature (°C)	Stokes	anti-Stokes-747.200	-110.706	-0.197	-0.041
-746.185	456.138	-0.088	0.199
-745.171	-148.953	0.388	0.032
-744.156	-200.000	0.009	-0.198
-743.142	-22.965	0.234	0.144
-742.127	23.000	-0.164	-0.137
-741.112	-200.000	-0.002	0.016
-740.098	-46.715	-0.510	-0.255
-739.083	-200.000	0.078	0.475
-738.069	-200.000	-0.039	0.425
-737.054	-33.540	0.172	-0.097
-736.039	359.626	-0.143	0.291
-735.025	408.132	0.038	-0.082
-734.010	70.598	-0.086	0.091
-732.996	-200.000	0.002	-0.169
-731.981	437.190	0.111	0.246
-730.966	-200.000	-0.032	-0.236
-729.952	-112.252	-0.399	0.082
-728.937	126.168	-0.232	0.299
-727.923	-84.496	-0.320	-0.103
-726.908	800.000	-0.081	-0.282
-725.894	-103.329	-0.168	0.040
-724.879	-200.000	0.002	0.300
-723.864	68.415	-0.105	-0.110
-722.850	-89.808	-0.142	-0.042
-721.835	-141.768	-0.390	0.040
-720.821	-101.229	-0.272	-0.068
-719.806	57.869	-0.082	-0.081
-718.791	-64.822	0.085	0.035
-717.777	-200.000	-0.034	-0.416
-716.762	-200.000	0.024	-0.299
-715.748	-53.394	-0.027	-0.012
-714.733	261.724	-0.091	-0.160
-713.718	155.705	-0.017	0.024
-712.704	64.139	-0.274	0.280
-711.689	800.000	-0.060	0.178
-710.675	-90.222	-0.374	-0.111
-709.660	800.000	0.084	-0.360
-708.645	288.944	-0.075	-0.138
-707.631	800.000	-0.068	-0.221
-706.616	-53.732	0.370	0.172
-705.602	-22.886	-0.236	-0.145
-704.587	800.000	-0.070	-0.279
-703.572	-194.233	0.199	0.002
-702.558	800.000	-0.043	-0.178
-701.543	-144.837	0.376	0.035
-700.529	-126.887	-0.407	-0.061
-699.514	-47.423	-0.143	-0.071
-698.499	-200.000	0.006	0.081
-697.485	-124.696	-0.083	-0.013
-696.470	-200.000	0.047	-0.268
-695.456	147.449	0.155	-0.212
-694.441	-32.285	0.096	0.055
-693.426	-132.363	0.224	-0.029
-692.412	331.360	0.070	-0.138
-691.397	126.793	-0.164	0.212
-690.383	126.906	0.042	0.054
-689.368	246.835	-0.092	0.158
-688.354	-200.000	-0.021	-0.205
-687.339	800.000	-0.103	0.296
-686.324	224.983	-0.296	-0.487
-685.310	574.471	-0.104	-0.258
-684.295	-32.507	-0.205	0.116
-683.281	-200.000	0.058	0.287
-682.266	800.000	-0.045	-0.181
-681.251	53.808	-0.088	-0.086
-680.237	-88.318	-0.295	-0.090
-679.222	79.438	0.177	-0.193
-678.208	109.341	-0.094	-0.115
-677.193	-69.512	-0.068	0.027
-676.178	87.482	0.207	0.233
-675.164	-200.000	0.026	0.179
-674.149	800.000	0.058	0.163
-673.135	66.851	-0.193	0.200
-672.120	-200.000	0.017	0.281
-671.105	-200.000	-0.040	-0.295
-670.091	-102.329	-0.295	0.072
-669.076	-200.000	-0.047	0.309
-668.062	-124.415	0.512	-0.081
-667.047	-121.751	-0.205	-0.034
-666.032	-165.275	-0.126	0.006
-665.018	621.211	0.082	-0.211
-664.003	123.413	0.190	0.242
-662.989	145.318	0.190	0.258
-661.974	-200.000	-0.002	0.291
-660.959	-102.108	0.081	0.020
-659.945	-200.000	0.017	-0.221
-658.930	112.124	0.136	0.167
-657.916	-200.000	-0.020	-0.219
-656.901	383.857	-0.219	-0.457
-655.886	-200.000	0.021	0.138
-654.872	-200.000	-0.044	0.204
-653.857	207.353	-0.171	-0.271
-652.843	332.903	-0.019	-0.038
-651.828	-200.000	0.006	0.053
-650.814	-200.000	0.025	-0.238
-649.799	-2.943	-0.161	0.114
-648.784	-162.756	-0.108	0.005
-647.770	281.170	0.207	-0.376
-646.755	-200.000	0.014	0.124
-645.741	-64.347	-0.227	-0.094
-644.726	-16.274	0.214	-0.138
-643.711	-103.408	-0.062	0.015
-642.697	800.000	0.111	-0.317
-641.682	546.470	-0.049	-0.118
-640.668	33.579	-0.054	0.048
-639.653	-200.000	0.050	0.282
-638.638	268.158	0.104	0.185
-637.624	81.201	-0.098	0.108
-636.609	-200.000	0.007	0.237
-635.595	-44.719	-0.258	-0.130
-634.580	-106.068	0.022	0.005
-633.565	33.348	0.122	-0.107
-632.551	-155.563	-0.273	0.018
-631.536	-187.205	-0.290	-0.004
-630.522	800.000	-0.046	0.140
-629.507	48.913	-0.231	-0.220
-628.492	800.000	-0.107	0.383
-627.478	-164.069	-0.306	0.014
-626.463	-122.387	0.375	-0.062
-625.449	-87.566	0.127	0.039
-624.434	-90.666	-0.139	0.041
-623.419	449.734	0.059	-0.132
-622.405	23.016	0.232	0.193
-621.390	54.280	-0.115	-0.112
-620.376	222.852	-0.109	-0.178
-619.361	-189.522	-0.126	0.001
-618.346	-200.000	0.003	-0.028
-617.332	-200.000	0.043	-0.263
-616.317	-162.258	0.587	0.030
-615.303	-39.211	-0.038	-0.020
-614.288	75.384	-0.068	0.073
-613.273	149.987	-0.123	0.169
-612.259	201.996	-0.173	-0.271
-611.244	-90.712	0.307	0.090
-610.230	800.000	-0.098	-0.328
-609.215	58.090	0.165	0.164
-608.201	-119.146	-0.300	-0.053
-607.186	-58.385	0.191	-0.084
-606.171	20.956	-0.193	0.159
-605.157	-200.000	-0.027	0.337
-604.142	11.024	0.117	0.091
-603.128	306.648	0.045	0.085
-602.113	-200.000	-0.004	0.098
-601.098	-14.014	0.058	0.038
-600.084	73.158	0.207	0.219
-599.069	217.023	-0.200	0.323
-598.055	800.000	-0.075	0.268
-597.040	-200.000	-0.021	0.152
-596.025	108.846	0.191	-0.231
-595.011	97.862	0.217	-0.253
-593.996	18.975	-0.223	0.181
-592.982	-92.711	-0.289	0.082
-591.967	527.811	-0.047	-0.111
-590.952	-200.000	0.023	-0.118
-589.938	-200.000	0.003	-0.123
-588.923	-23.380	0.054	0.033
-587.909	-99.557	0.109	0.028
-586.894	800.000	-0.091	0.283
-585.879	-31.895	-0.110	0.063
-584.865	-200.000	-0.092	-0.432
-583.850	-26.431	0.259	-0.154
-582.836	60.554	-0.180	0.180
-581.821	69.094	0.133	-0.139
-580.806	-11.646	-0.092	-0.061
-579.792	-121.802	-0.279	0.047
-578.777	-200.000	0.011	0.189
-577.763	-200.000	0.006	-0.410
-576.748	-1.955	0.099	0.071
-575.733	-101.901	0.081	0.020
-574.719	-128.813	-0.417	-0.059
-573.704	-15.826	0.091	0.059
-572.690	-123.954	0.227	0.036
-571.675	741.564	0.045	-0.123
-570.661	-89.771	0.089	-0.026
-569.646	-200.000	-0.007	0.204
-568.631	101.763	0.138	0.162
-567.617	-46.299	-0.238	0.118
-566.602	175.980	-0.124	-0.183
-565.588	-174.374	-0.498	-0.015
-564.573	36.333	-0.240	0.214
-563.558	321.537	-0.142	0.273
-562.544	4.269	0.140	0.104
-561.529	-68.319	-0.115	-0.045
-560.515	-200.000	0.032	-0.236
-559.500	-60.874	-0.339	0.145
-558.485	312.988	-0.144	-0.273
-557.471	-27.537	-0.397	-0.233
-556.456	42.032	-0.144	-0.132
-555.442	86.999	-0.117	-0.131
-554.427	13.101	-0.325	-0.254
-553.412	279.995	-0.079	-0.143
-552.398	-24.815	-0.133	-0.080
-551.383	156.978	0.137	-0.192
-550.369	800.000	-0.008	-0.028
-549.354	-200.000	0.002	0.209
-548.339	800.000	0.062	-0.175
-547.325	-58.806	-0.221	-0.097
-546.310	20.276	0.041	-0.034
-545.296	83.807	0.225	-0.248
-544.281	307.308	0.145	0.272
-543.266	139.171	-0.054	-0.072
-542.252	-106.746	0.165	-0.037
-541.237	80.650	0.129	-0.140
-540.223	372.055	0.060	-0.124
-539.208	-68.080	-0.135	0.053
-538.193	35.053	0.202	0.179
-537.179	649.651	0.074	0.191
-536.164	800.000	0.066	-0.249
-535.150	-46.634	0.053	-0.026
-534.135	272.350	-0.092	-0.164
-533.121	16.555	-0.071	0.057
-532.106	-119.243	-0.059	0.010
-531.091	333.322	-0.180	-0.352
-530.077	-147.779	0.249	-0.021
-529.062	-200.000	0.007	-0.032
-528.048	-200.000	-0.014	-0.222
-527.033	22.390	0.251	-0.207
-526.018	5.466	0.191	-0.143
-525.004	-62.299	-0.219	-0.092
-523.989	80.030	0.112	0.122
-522.975	-59.184	0.451	-0.196
-521.960	-39.640	-0.191	-0.101
-520.945	-200.000	0.053	-0.261
-519.931	7.529	-0.081	-0.061
-518.916	411.261	-0.024	-0.051
-517.902	755.717	0.102	0.278
-516.887	160.056	0.048	0.068
-515.872	15.886	-0.270	0.215
-514.858	-11.552	0.110	0.073
-513.843	105.261	-0.038	0.046
-512.829	-90.168	0.055	-0.016
-511.814	-200.000	-0.050	-0.420
-510.799	800.000	0.077	0.297
-509.785	-117.884	0.100	0.018
-508.770	83.648	-0.100	-0.110
-507.756	26.000	-0.065	0.055
-506.741	-97.102	0.038	-0.010
-505.726	-65.188	0.092	0.038
-504.712	-39.414	0.166	-0.088
-503.697	-200.000	0.080	0.420
-502.683	800.000	0.094	0.360
-501.668	249.008	0.100	0.170
-500.653	-75.339	0.145	0.052
-499.639	-61.576	0.156	-0.066
-498.624	-19.787	0.097	0.061
-497.610	184.604	0.092	0.138
-496.595	-21.171	-0.200	-0.124
-495.581	21.691	-0.074	-0.060
-494.566	80.792	0.107	-0.117
-493.551	67.899	0.344	-0.355
-492.537	22.095	-0.237	-0.195
-491.522	216.518	-0.004	0.007
-490.508	75.521	0.299	-0.319
-489.493	-133.670	-0.176	0.022
-488.478	-68.498	-0.205	0.080
-487.464	-61.939	-0.130	-0.055
-486.449	-123.891	-0.262	0.042
-485.435	35.074	-0.023	-0.021
-484.420	-13.687	0.074	-0.048
-483.405	461.165	-0.051	0.115
-482.391	647.214	0.066	-0.170
-481.376	-200.000	0.003	-0.201
-480.362	-200.000	-0.005	-0.159
-479.347	377.874	0.221	0.455
-478.332	-3.645	-0.383	0.268
-477.318	-75.437	0.356	-0.128
-476.303	87.512	-0.272	0.304
-475.289	-30.561	-0.096	0.055
-474.274	-78.203	0.329	0.114
-473.259	638.296	-0.062	0.158
-472.245	-143.966	0.257	0.024
-471.230	175.617	-0.269	-0.393
-470.216	800.000	0.039	-0.158
-469.201	1.055	0.462	0.334
-468.186	-48.843	-0.316	-0.153
-467.172	74.924	0.167	-0.177
-466.157	-94.193	0.078	0.021
-465.143	-22.969	0.229	-0.139
-464.128	-200.000	-0.012	0.435
-463.113	-65.832	0.223	0.090
-462.099	-200.000	-0.018	-0.263
-461.084	800.000	0.020	-0.055
-460.070	239.003	0.059	-0.099
-459.055	-109.591	-0.101	0.022
-458.040	93.321	0.075	-0.086
-457.026	38.613	-0.065	0.058
-456.011	800.000	-0.093	0.364
-454.997	-200.000	-0.024	0.194
-453.982	457.742	-0.043	0.096
-452.968	-103.473	-0.213	-0.050
-451.953	-200.000	-0.019	0.128
-450.938	40.914	0.193	0.175
-449.924	-141.890	0.062	0.006
-448.909	42.410	-0.087	-0.080
-447.895	-200.000	-0.000	0.138
-446.880	67.679	0.199	-0.205
-445.865	-200.000	-0.014	-0.103
-444.851	-15.675	0.139	0.090
-443.836	-12.274	0.279	0.184
-442.822	-82.209	-0.118	-0.039
-441.807	359.466	-0.075	-0.151
-440.792	-103.734	-0.240	-0.057
-439.778	-121.575	-0.224	0.037
-438.763	-200.000	0.048	0.307
-437.749	-200.000	-0.016	0.081
-436.734	-200.000	-0.047	0.539
-435.719	-132.939	-0.333	0.043
-434.705	-39.311	0.097	-0.051
-433.690	-146.704	-0.089	0.008
-432.676	-39.012	-0.265	0.141
-431.661	337.112	0.065	0.127
-430.646	-200.000	-0.008	-0.123
-429.632	-157.729	-0.198	-0.012
-428.617	22.253	0.170	0.140
-427.603	-83.121	-0.122	-0.039
-426.588	94.614	0.136	0.156
-425.573	320.824	0.128	0.244
-424.559	-62.616	-0.219	0.092
-423.544	-200.000	-0.025	0.358
-422.530	202.343	0.071	0.111
-421.515	64.053	-0.087	0.089
-420.500	-143.255	0.249	-0.024
-419.486	-122.480	-0.188	-0.031
-418.471	-166.205	0.206	0.009
-417.457	-5.541	0.155	0.107
-416.442	402.321	0.056	-0.119
-415.428	-72.549	0.099	0.037
-414.413	-23.063	-0.210	-0.127
-413.398	-200.000	-0.013	-0.201
-412.384	415.058	0.054	-0.117
-411.369	98.342	0.150	0.174
-410.355	800.000	-0.021	-0.080
-409.340	800.000	0.092	0.275
-408.325	327.667	-0.090	-0.173
-407.311	-200.000	-0.005	-0.225
-406.296	-58.839	0.241	-0.105
-405.282	33.274	0.155	0.135
-404.267	-3.333	0.382	-0.267
-403.252	800.000	0.081	0.229
-402.238	800.000	-0.077	-0.327
-401.223	800.000	-0.026	-0.085
-400.209	85.935	0.134	-0.149
-399.194	533.871	-0.163	0.389
-398.179	-54.778	0.126	0.057
-397.165	-200.000	-0.005	-0.370
-396.150	-101.207	0.219	0.054
-395.136	800.000	0.106	0.323
-394.121	800.000	-0.015	0.042
-393.106	-22.597	0.076	0.046
-392.092	-168.025	0.148	0.006
-391.077	-142.568	-0.140	-0.014
-390.063	-200.000	-0.042	-0.215
-389.048	-94.705	0.144	0.039
-388.033	260.256	-0.109	-0.189
-387.019	800.000	0.066	-0.230
-386.004	225.188	0.039	0.064
-384.990	-147.339	-0.324	-0.028
-383.975	221.780	0.125	-0.201
-382.960	-132.280	-0.353	0.046
-381.946	-107.215	0.331	-0.073
-380.931	34.389	0.194	0.170
-379.917	9.504	-0.304	0.231
-378.902	535.180	0.082	0.195
-377.888	-96.980	0.135	0.036
-376.873	132.563	0.155	0.200
-375.858	128.197	0.146	-0.186
-374.844	-64.812	0.064	-0.026
-373.829	-62.869	0.384	0.160
-372.815	-33.914	-0.166	-0.092
-371.800	-200.000	0.057	0.284
-370.785	98.939	-0.170	-0.197
-369.771	-200.000	0.024	-0.174
-368.756	4.763	-0.133	-0.098
-367.742	800.000	-0.072	0.205
-366.727	800.000	0.017	0.058
-365.712	14.587	-0.099	-0.077
-364.698	63.842	-0.262	-0.264
-363.683	269.553	0.090	0.159
-362.669	-28.128	0.114	0.066
-361.654	71.295	0.286	-0.298
-360.639	-200.000	-0.012	-0.270
-359.625	84.169	-0.231	0.253
-358.610	-57.770	-0.206	0.091
-357.596	167.643	0.066	-0.094
-356.581	165.905	-0.100	0.143
-355.566	800.000	0.068	-0.269
-354.552	-134.081	-0.191	-0.024
-353.537	-200.000	0.001	0.150
-352.523	-200.000	0.030	-0.164
-351.508	-200.000	-0.008	0.099
-350.493	-50.285	-0.201	-0.095
-349.479	109.722	-0.127	-0.153
-348.464	-50.016	0.217	0.103
-347.450	133.438	0.061	-0.079
-346.435	60.188	-0.206	0.204
-345.420	-111.717	0.380	0.077
-344.406	-78.269	0.131	-0.045
-343.391	391.791	0.205	0.428
-342.377	72.057	-0.108	-0.112
-341.362	-43.936	-0.079	0.040
-340.348	-44.723	0.071	-0.036
-339.333	167.603	-0.105	-0.150
-338.318	-154.513	0.339	0.023
-337.304	-74.752	-0.239	-0.086
-336.289	108.576	-0.173	0.207
-335.275	165.351	-0.194	-0.275
-334.260	-157.940	-0.213	-0.013
-333.245	420.013	0.058	0.124
-332.231	-99.801	0.159	0.040
-331.216	800.000	-0.058	-0.176
-330.202	-200.000	0.022	-0.138
-329.187	800.000	-0.157	-0.456
-328.172	-28.602	-0.178	0.103
-327.158	-111.047	0.058	0.012
-326.143	60.704	0.354	0.352
-325.129	-200.000	0.010	-0.103
-324.114	800.000	-0.088	-0.270
-323.099	-155.658	-0.245	-0.016
-322.085	501.197	-0.048	-0.111
-321.070	-95.891	0.289	-0.077
-320.056	-152.584	-0.174	-0.012
-319.041	-200.000	-0.031	-0.208
-318.026	22.381	-0.188	-0.154
-317.012	800.000	0.098	0.273
-315.997	558.760	0.108	0.261
-314.983	-39.455	-0.075	0.040
-313.968	-73.237	-0.384	-0.141
-312.953	64.668	0.129	-0.130
-311.939	122.444	0.076	-0.095
-310.924	-200.000	0.001	-0.077
-309.910	563.215	-0.146	0.354
-308.895	-121.992	-0.169	0.028
-307.880	180.831	-0.283	-0.417
-306.866	19.436	-0.384	0.309
-305.851	800.000	-0.100	-0.294
-304.837	118.651	-0.081	-0.101
-303.822	366.387	0.100	-0.202
-302.807	-200.000	0.016	0.107
-301.793	165.619	-0.122	-0.172
-300.778	-200.000	-0.025	-0.201
-299.764	54.029	-0.237	-0.228
-298.749	-200.000	0.158	0.001
-297.735	-200.000	-0.019	0.156
-296.720	81.991	0.220	-0.239
-295.705	89.621	-0.114	-0.127
-294.691	603.440	-0.078	0.195
-293.676	-82.199	0.280	0.091
-292.662	-73.939	0.107	0.039
-291.647	151.849	-0.090	-0.122
-290.632	683.477	0.054	-0.140
-289.618	-159.166	-0.400	-0.023
-288.603	259.752	-0.169	-0.293
-287.589	-61.449	0.079	0.033
-286.574	378.790	0.117	-0.240
-285.559	80.794	-0.148	0.160
-284.545	-200.000	0.009	0.309
-283.530	386.465	-0.034	-0.069
-282.516	-33.898	-0.223	0.123
-281.501	32.088	-0.064	0.055
-280.486	-22.352	0.215	0.131
-279.472	-200.000	0.004	-0.155
-278.457	177.663	-0.032	0.047
-277.443	-70.357	-0.463	0.176
-276.428	108.702	0.246	0.294
-275.413	319.061	-0.122	-0.231
-274.399	-200.000	0.004	0.090
-273.384	-89.894	0.190	0.056
-272.370	-200.000	0.287	0.001
-271.355	-200.000	-0.001	0.277
-270.340	-200.000	-0.015	-0.233
-269.326	219.733	0.137	0.220
-268.311	2.865	-0.202	0.147
-267.297	-37.604	0.297	-0.158
-266.282	-168.725	-0.329	-0.012
-265.267	112.263	-0.180	-0.218
-264.253	-200.000	0.028	0.133
-263.238	81.323	-0.127	0.137
-262.224	800.000	-0.086	0.277
-261.209	21.314	0.248	0.201
-260.195	239.536	0.177	0.295
-259.180	-26.109	0.105	0.062
-258.165	290.947	-0.193	0.351
-257.151	129.186	-0.013	-0.016
-256.136	26.077	-0.271	0.226
-255.122	-14.542	0.030	-0.020
-254.107	-200.000	0.014	-0.265
-253.092	800.000	0.082	-0.242
-252.078	212.798	-0.147	-0.232
-251.063	-93.593	-0.120	-0.033
-250.049	-49.657	0.333	-0.159
-249.034	-42.939	0.168	-0.085
-248.019	-200.000	-0.030	-0.131
-247.005	-147.393	0.121	0.010
-245.990	215.861	0.070	0.112
-244.976	-200.000	0.013	-0.214
-243.961	-200.000	0.030	-0.156
-242.946	402.310	0.276	-0.580
-241.932	253.576	0.050	0.085
-240.917	-147.401	-0.151	-0.013
-239.903	-95.533	-0.431	0.115
-238.888	266.507	0.121	0.212
-237.873	111.161	0.265	0.319
-236.859	157.179	-0.112	-0.155
-235.844	-71.196	-0.225	-0.084
-234.830	71.182	0.238	-0.247
-233.815	-200.000	0.008	0.082
-232.800	-200.000	-0.041	0.247
-231.786	-159.022	0.236	-0.013
-230.771	-26.438	-0.147	-0.086
-229.757	107.033	0.120	0.142
-228.742	24.500	0.077	-0.064
-227.727	308.916	-0.163	-0.305
-226.713	-121.112	-0.063	0.011
-225.698	25.083	0.030	0.025
-224.684	-104.557	0.259	-0.060
-223.669	15.076	-0.156	-0.122
-222.655	38.845	0.192	-0.172
-221.640	85.973	-0.099	-0.109
-220.625	-48.480	-0.192	-0.092
-219.611	800.000	0.032	0.093
-218.596	75.492	0.137	-0.144
-217.582	3.165	-0.244	0.177
-216.567	800.000	-0.078	0.327
-215.552	-34.845	0.129	-0.070
-214.538	-142.444	0.298	-0.029
-213.523	-66.375	-0.024	0.010
-212.509	-57.814	0.081	0.035
-211.494	-114.595	0.155	0.030
-210.479	-109.589	0.256	-0.054
-209.465	-46.772	-0.361	0.177
-208.450	-83.592	-0.202	-0.064
-207.436	363.256	-0.042	-0.084
-206.421	101.825	-0.147	-0.171
-205.406	80.254	-0.022	0.023
-204.392	-200.000	-0.058	0.310
-203.377	-59.363	0.166	-0.071
-202.363	32.126	0.190	-0.163
-201.348	-165.546	-0.513	0.022
-200.333	244.482	0.247	-0.414
-199.319	677.361	-0.085	0.222
-198.304	-68.637	-0.093	-0.036
-197.290	-132.071	-0.073	-0.010
-196.275	389.634	0.165	-0.340
-195.260	-200.000	-0.004	-0.229
-194.246	800.000	0.026	-0.106
-193.231	-22.747	0.222	-0.134
-192.217	-15.498	0.161	0.103
-191.202	174.489	0.153	0.221
-190.187	-137.127	-0.019	-0.002
-189.173	141.897	0.186	-0.246
-188.158	-200.000	0.025	0.120
-187.144	53.075	-0.089	0.085
-186.129	-12.913	0.236	0.153
-185.114	428.599	0.119	-0.256
-184.100	-187.602	-0.192	0.003
-183.085	262.904	-0.112	-0.194
-182.071	126.407	0.063	0.079
-181.056	-200.000	-0.306	-0.000
-180.042	49.169	0.160	0.150
-179.027	559.075	0.017	0.041
-178.012	-200.000	-0.062	0.319
-176.998	800.000	0.170	0.496
-175.983	-32.286	0.443	-0.247
-174.969	800.000	0.096	0.358
-173.954	-97.516	0.209	0.054
-172.939	-68.072	-0.232	0.090
-171.925	5.103	0.039	0.029
-170.910	-16.650	-0.150	0.095
-169.896	140.879	0.143	0.189
-168.881	189.064	0.097	0.145
-167.866	-20.647	0.182	-0.111
-166.852	-200.000	0.032	0.257
-165.837	-200.000	0.030	0.363
-164.823	-23.306	-0.248	-0.148
-163.808	-200.000	0.029	-0.319
-162.793	-200.000	-0.013	-0.209
-161.779	-90.425	0.138	-0.040
-160.764	60.112	0.084	0.083
-159.750	-200.000	0.006	0.203
-158.735	22.909	-0.234	0.191
-157.720	800.000	0.129	0.504
-156.706	-200.000	0.024	-0.264
-155.691	-56.902	0.300	0.132
-154.677	155.075	0.165	-0.226
-153.662	271.500	0.128	0.225
-152.647	-84.147	-0.405	0.128
-151.633	-86.723	0.215	0.066
-150.618	443.411	-0.087	-0.190
-149.604	-200.000	0.034	-0.183
-148.589	-30.059	-0.118	-0.067
-147.574	-51.670	0.294	0.137
-146.560	-6.840	-0.090	0.061
-145.545	-200.000	-0.014	0.206
-144.531	-108.375	-0.212	-0.045
-143.516	-200.000	0.010	-0.090
-142.502	-200.000	0.016	-0.230
-141.487	461.625	-0.140	-0.310
-140.472	85.926	0.157	-0.171
-139.458	-73.096	0.264	0.096
-138.443	-125.163	0.341	-0.052
-137.429	-18.114	0.144	0.090
-136.414	602.326	-0.089	0.221
-135.399	61.122	-0.072	0.072
-134.385	327.491	0.056	-0.107
-133.370	136.466	-0.118	0.153
-132.356	800.000	0.020	0.069
-131.341	-200.000	0.183	-0.001
-130.326	217.242	-0.104	0.165
-129.312	-200.000	-0.073	-0.442
-128.297	-200.000	-0.023	0.269
-127.283	512.349	-0.163	0.377
-126.268	-103.949	0.176	-0.041
-125.253	580.055	0.082	0.200
-124.239	800.000	-0.010	-0.037
-123.224	-70.497	0.534	0.201
-122.210	-200.000	-0.014	-0.300
-121.195	-200.000	0.023	0.209
-120.180	46.616	0.288	-0.266
-119.166	111.674	-0.216	-0.259
-118.151	-98.699	0.250	-0.063
-117.137	45.830	-0.258	0.237
-116.122	322.300	-0.061	0.115
-115.107	100.559	-0.227	-0.262
-114.093	-88.208	-0.127	-0.038
-113.078	76.539	-0.181	-0.191
-112.064	-200.000	-0.007	0.051
-111.049	154.298	-0.103	0.141
-110.034	156.972	-0.220	0.302
-109.020	-57.658	-0.267	-0.116
-108.005	42.327	0.095	0.086
-106.991	800.000	-0.097	-0.356
-105.976	174.918	0.073	0.105
-104.962	-200.000	0.027	-0.157
-103.947	-200.000	0.025	0.359
-102.932	-186.401	-0.188	0.003
-101.918	-200.000	-0.031	0.527
-100.903	-200.000	0.013	-0.154
-99.889	96.652	0.157	0.179
-98.874	-159.229	0.202	0.011
-97.859	-200.000	0.007	-0.069
-96.845	17.349	0.353	0.279
-95.830	697.121	-0.062	-0.162
-94.816	478.757	-0.079	0.178
-93.801	-111.422	0.308	0.062
-92.786	-200.000	-0.009	-0.157
-91.772	-58.038	0.186	0.081
-90.757	-142.024	-0.176	0.017
-89.743	800.000	-0.050	0.147
-88.728	159.094	0.115	0.159
-87.713	105.675	0.222	-0.261
-86.699	-187.648	-0.327	-0.004
-85.684	231.620	-0.168	-0.274
-84.670	-86.928	0.312	-0.095
-83.655	-70.667	0.208	0.078
-82.640	148.666	-0.093	-0.125
-81.626	119.706	0.079	-0.097
-80.611	-59.378	0.148	0.063
-79.597	-41.489	-0.087	0.044
-78.582	51.908	0.046	0.044
-77.567	-28.533	0.115	0.066
-76.553	-37.366	0.303	-0.161
-75.538	-200.000	-0.035	0.235
-74.524	-85.813	-0.126	-0.039
-73.509	76.873	0.133	0.140
-72.494	725.200	-0.023	-0.060
-71.480	-15.612	-0.188	0.119
-70.465	-200.000	0.013	0.121
-69.451	347.486	0.147	-0.287
-68.436	-128.544	0.357	0.050
-67.422	244.085	-0.143	0.238
-66.407	334.515	0.093	0.179
-65.392	800.000	0.026	-0.097
-64.378	-74.278	0.546	-0.196
-63.363	-154.972	-0.216	-0.014
-62.349	499.264	-0.056	0.127
-61.334	36.121	-0.676	-0.591
-60.319	82.641	0.450	0.485
-59.305	800.000	-0.181	-0.640
-58.290	128.878	0.726	0.919
-57.276	419.070	0.748	1.587
-56.261	-200.000	95.805	544.683
-55.246	498.177	1418.648	3240.718
-54.232	142.813	2650.554	3494.570
-53.217	100.949	2381.215	2747.017
-52.203	40.912	2125.341	1902.620
-51.188	36.194	2036.969	1780.016
-50.173	34.675	2018.901	1750.249
-49.159	47.625	2070.081	1915.224
-48.144	49.996	2089.666	1955.335
-47.130	36.841	2047.725	1795.132
-46.115	34.454	2036.045	1762.793
-45.100	34.416	2032.850	1759.609
-44.086	34.453	2030.090	1757.489
-43.071	34.380	2027.672	1754.654
-42.057	34.353	2025.661	1752.595
-41.042	34.308	2023.978	1750.650
-40.027	34.444	2021.936	1750.062
-39.013	34.444	2019.910	1748.240
-37.998	34.447	2017.806	1746.377
-36.984	34.473	2015.847	1744.853
-35.969	34.488	2014.023	1743.344
-34.954	34.525	2011.844	1741.724
-33.940	34.583	2010.523	1741.041
-32.925	34.485	2009.178	1738.912
-31.911	34.571	2007.243	1737.958
-30.896	34.552	2005.236	1735.978
-29.881	34.577	2003.533	1734.659
-28.867	34.563	2001.961	1733.101
-27.852	34.603	2000.325	1731.979
-26.838	34.537	1998.415	1729.661
-25.823	34.558	1996.307	1727.959
-24.809	34.562	1994.808	1726.629
-23.794	34.566	1993.071	1725.090
-22.779	34.512	1991.287	1722.992
-21.765	34.464	1989.615	1721.038
-20.750	34.558	1987.816	1720.261
-19.736	34.587	1986.523	1719.340
-18.721	34.552	1985.298	1717.896
-17.706	34.514	1983.571	1715.987
-16.692	34.581	1981.653	1714.866
-15.677	34.650	1980.485	1714.405
-14.663	34.570	1978.755	1712.124
-13.648	34.642	1976.949	1711.136
-12.633	34.619	1976.180	1710.199
-11.619	34.558	1974.698	1708.301
-10.604	34.576	1973.050	1706.969
-9.590	34.559	1971.904	1705.756
-8.575	34.588	1970.462	1704.699
-7.560	34.527	1969.229	1703.027
-6.546	34.631	1967.276	1702.195
-5.531	34.615	1966.635	1701.432
-4.517	34.628	1965.237	1700.265
-3.502	34.605	1963.809	1698.760
-2.487	34.611	1963.110	1698.145
-1.473	34.501	1962.646	1696.696
-0.458	34.634	1957.912	1693.711
0.556	33.137	1936.971	1665.457
1.571	28.516	1915.387	1606.389
2.586	23.801	1937.142	1582.612
3.600	22.312	1972.655	1597.965
4.615	21.379	1967.205	1584.959
5.629	16.574	1864.094	1460.367
6.644	6.918	1738.990	1284.125
7.659	1.332	1697.513	1209.000
8.673	0.750	1694.276	1201.957
9.688	0.694	1692.659	1200.264
10.702	0.664	1691.433	1199.047
11.717	0.483	1687.964	1195.049
12.731	1.200	1686.703	1199.726
13.746	7.663	1702.273	1262.152
14.761	15.712	1718.510	1338.385
15.775	17.773	1720.244	1356.022
16.790	17.184	1717.636	1349.168
17.804	16.385	1714.098	1339.932
18.819	15.270	1711.192	1328.709
19.834	14.701	1708.824	1322.247
20.848	14.475	1706.602	1318.630
21.863	14.193	1704.863	1314.935
22.877	13.927	1703.300	1311.513
23.892	13.627	1702.311	1308.274
24.907	13.577	1700.871	1306.652
25.921	13.493	1700.237	1305.389
26.936	13.441	1699.331	1304.170
27.950	13.571	1697.949	1304.013
28.965	13.505	1697.774	1303.244
29.980	13.580	1696.783	1302.962
30.994	13.671	1695.756	1302.772
32.009	13.689	1694.696	1301.981
33.023	13.750	1694.065	1301.865
34.038	13.733	1693.442	1301.134
35.053	13.724	1692.041	1299.871
36.067	13.705	1690.702	1298.582
37.082	13.672	1689.842	1297.549
38.096	13.604	1689.256	1296.452
39.111	13.704	1687.676	1295.900
40.126	13.724	1686.840	1295.304
41.140	13.638	1685.930	1293.822
42.155	13.605	1684.763	1292.548
43.169	13.456	1683.552	1290.350
44.184	13.451	1682.499	1289.384
45.199	13.472	1680.935	1288.235
46.213	13.479	1680.124	1287.560
47.228	13.562	1678.097	1286.534
48.242	13.595	1677.617	1286.310
49.257	13.562	1676.341	1284.964
50.271	13.623	1674.742	1284.096
51.286	13.589	1673.548	1282.801
52.301	13.663	1672.077	1282.136
53.315	13.644	1670.849	1280.933
54.330	13.659	1669.071	1279.568
55.344	13.648	1667.682	1278.306
56.359	13.475	1666.618	1276.042
57.374	13.582	1665.260	1275.714
58.388	13.611	1663.591	1274.551
59.403	13.515	1662.463	1272.834
60.417	13.415	1661.296	1271.062
61.432	13.421	1660.589	1270.449
62.447	13.444	1659.236	1269.479
63.461	13.438	1657.645	1268.101
64.476	13.478	1656.275	1267.249
65.490	13.388	1655.382	1265.768
66.505	13.436	1654.115	1265.053
67.520	13.484	1652.789	1264.292
68.534	13.376	1652.274	1262.965
69.549	13.488	1650.606	1262.431
70.563	13.483	1649.748	1261.621
71.578	13.424	1648.256	1259.923
72.593	13.497	1647.112	1259.492
73.607	13.454	1645.817	1258.061
74.622	13.398	1645.003	1256.908
75.636	13.378	1644.101	1255.954
76.651	13.411	1642.979	1255.231
77.666	13.348	1642.227	1254.072
78.680	13.367	1641.147	1253.279
79.695	13.432	1640.352	1253.056
80.709	13.384	1639.116	1251.638
81.724	13.426	1638.258	1251.185
82.739	13.410	1637.776	1250.585
83.753	13.480	1636.301	1249.881
84.768	13.559	1635.316	1249.609
85.782	13.592	1634.369	1249.028
86.797	13.619	1633.490	1248.448
87.812	13.596	1632.691	1247.552
88.826	13.576	1631.109	1246.087
89.841	13.531	1629.971	1244.763
90.855	13.576	1628.916	1244.185
91.870	13.618	1627.671	1243.441
92.884	13.620	1626.609	1242.533
93.899	13.616	1625.657	1241.666
94.914	13.667	1624.498	1241.058
95.928	13.692	1622.929	1239.937
96.943	13.721	1621.909	1239.262
97.957	13.683	1620.435	1237.744
98.972	13.619	1619.586	1236.506
99.987	13.645	1617.668	1235.126
101.001	13.705	1615.714	1233.972
102.016	13.670	1613.856	1232.182
103.030	13.512	1613.134	1230.347
104.045	13.491	1612.202	1229.374
105.060	13.683	1610.132	1229.112
106.074	13.700	1608.201	1227.654
107.089	13.520	1607.401	1225.599
108.103	13.557	1605.843	1224.582
109.118	13.506	1604.196	1222.834
110.133	13.463	1603.016	1221.511
111.147	13.528	1601.153	1220.462
112.162	13.510	1600.159	1219.466
113.176	13.473	1599.058	1218.246
114.191	13.456	1597.757	1217.022
115.206	13.565	1596.517	1216.773
116.220	13.554	1594.946	1215.385
117.235	13.563	1593.589	1214.309
118.249	13.533	1592.042	1212.806
119.264	13.645	1590.498	1212.339
120.279	13.562	1589.701	1211.021
121.293	13.458	1588.265	1209.055
122.308	13.477	1586.505	1207.753
123.322	13.583	1584.615	1206.974
124.337	13.591	1582.956	1205.667
125.352	13.541	1582.049	1204.502
126.366	13.467	1581.527	1203.462
127.381	13.485	1580.158	1202.441
128.395	13.527	1578.768	1201.584
129.410	13.521	1577.528	1200.491
130.424	13.477	1576.378	1199.188
131.439	13.528	1574.775	1198.233
132.454	13.674	1573.258	1198.028
133.468	13.614	1572.185	1196.675
134.483	13.590	1570.382	1195.021
135.497	13.673	1569.123	1194.558
136.512	13.652	1567.883	1193.358
137.527	13.557	1566.383	1191.425
138.541	13.685	1564.869	1191.084
139.556	13.646	1563.867	1189.936
140.570	13.714	1561.891	1188.816
141.585	13.771	1560.543	1188.096
142.600	13.733	1559.578	1186.983
143.614	13.730	1558.168	1185.784
144.629	13.707	1557.173	1184.760
145.643	13.867	1555.450	1184.481
146.658	13.766	1554.460	1182.903
147.673	13.774	1552.656	1181.483
148.687	13.781	1551.113	1180.253
149.702	13.789	1549.885	1179.275
150.716	13.704	1548.276	1177.339
151.731	13.741	1546.739	1176.330
152.746	13.791	1545.331	1175.509
153.760	13.845	1543.689	1174.541
154.775	13.756	1543.228	1173.455
155.789	13.788	1541.644	1172.374
156.804	13.748	1540.581	1171.181
157.819	13.799	1539.295	1170.455
158.833	13.795	1538.054	1169.384
159.848	13.953	1536.347	1169.093
160.862	13.942	1535.388	1168.182
161.877	14.008	1533.961	1167.459
162.892	13.981	1532.781	1166.266
163.906	13.804	1531.779	1164.158
164.921	13.874	1529.904	1163.121
165.935	13.925	1528.619	1162.399
166.950	13.824	1528.069	1161.173
167.964	13.923	1527.049	1160.984
168.979	13.887	1525.513	1159.462
169.994	13.941	1524.423	1158.909
171.008	13.917	1523.317	1157.795
172.023	13.937	1521.961	1156.806
173.037	13.932	1521.284	1156.154
174.052	13.944	1519.900	1155.085
175.067	13.966	1519.342	1154.711
176.081	14.006	1517.753	1153.677
177.096	13.985	1516.631	1152.576
178.110	13.937	1515.405	1151.212
179.125	13.990	1513.870	1150.308
180.140	13.949	1513.480	1149.628
181.154	14.089	1511.758	1149.183
182.169	14.019	1510.520	1147.658
183.183	14.143	1509.217	1147.424
184.198	14.075	1508.270	1146.128
185.213	14.163	1506.729	1145.463
186.227	14.255	1505.847	1145.326
187.242	14.164	1505.289	1144.176
188.256	14.246	1504.147	1143.766
189.271	14.290	1502.959	1143.065
190.286	14.208	1501.864	1141.567
191.300	14.150	1501.033	1140.439
192.315	14.152	1499.605	1139.266
193.329	14.091	1498.475	1137.888
194.344	14.118	1497.580	1137.298
195.359	14.034	1496.561	1135.849
196.373	14.095	1495.483	1135.342
197.388	14.143	1494.372	1134.730
198.402	14.279	1493.238	1134.694
199.417	14.240	1492.195	1133.534
200.432	14.347	1490.618	1132.967
201.446	14.328	1490.412	1132.580
202.461	14.376	1489.247	1131.919
203.475	14.364	1488.131	1130.892
204.490	14.398	1486.701	1129.934
205.504	14.380	1485.625	1128.896
206.519	14.451	1484.570	1128.475
207.534	14.380	1483.314	1126.934
208.548	14.426	1482.221	1126.320
209.563	14.418	1481.264	1125.439
210.577	14.420	1479.871	1124.291
211.592	14.442	1478.922	1123.624
212.607	14.542	1478.133	1123.596
213.621	14.478	1477.827	1122.833
214.636	14.567	1476.625	1122.415
215.650	14.581	1475.740	1121.741
216.665	14.471	1474.698	1120.113
217.680	14.514	1473.874	1119.672
218.694	14.568	1472.809	1119.127
219.709	14.625	1472.041	1118.831
220.723	14.621	1471.293	1118.132
221.738	14.584	1470.036	1116.830
222.753	14.642	1469.262	1116.534
223.767	14.573	1468.659	1115.517
224.782	14.593	1467.473	1114.648
225.796	14.737	1466.476	1114.752
226.811	14.742	1465.420	1113.887
227.826	14.836	1464.760	1113.914
228.840	14.729	1464.060	1112.568
229.855	14.658	1463.325	1111.438
230.869	14.716	1462.107	1110.801
231.884	14.667	1460.967	1109.509
232.899	14.721	1459.697	1108.808
233.913	14.657	1458.786	1107.594
234.928	14.746	1457.409	1107.038
235.942	14.667	1456.019	1105.360
236.957	14.593	1455.065	1104.050
237.972	14.729	1453.883	1103.952
238.986	14.679	1452.723	1102.649
240.001	14.786	1451.566	1102.373
241.015	14.773	1450.790	1101.606
242.030	14.719	1450.097	1100.626
243.045	14.874	1448.610	1100.421
244.059	14.906	1447.732	1099.867
245.074	14.657	1447.658	1098.070
246.088	14.830	1446.266	1098.059
247.103	14.874	1445.484	1097.654
248.117	14.971	1444.548	1097.486
249.132	14.871	1444.339	1096.571
250.147	14.907	1443.316	1095.933
251.161	15.079	1442.925	1096.669
252.176	15.143	1441.723	1096.073
253.190	15.159	1441.064	1095.584
254.205	15.163	1440.312	1094.942
255.220	15.207	1438.991	1094.128
256.234	15.318	1437.988	1093.994
257.249	15.118	1437.993	1092.594
258.263	15.257	1436.614	1092.356
259.278	15.250	1435.451	1091.330
260.293	15.218	1435.132	1090.778
261.307	15.219	1434.039	1089.856
262.322	15.318	1433.222	1089.785
263.336	15.310	1432.337	1088.961
264.351	15.320	1431.378	1088.203
265.366	15.306	1430.350	1087.233
266.380	15.431	1429.316	1087.162
267.395	15.458	1428.343	1086.498
268.409	15.354	1427.558	1085.132
269.424	15.475	1426.064	1084.684
270.439	15.470	1425.428	1084.073
271.453	15.443	1423.880	1082.623
272.468	15.370	1423.380	1081.679
273.482	15.435	1422.729	1081.504
274.497	15.371	1422.128	1080.541
275.512	15.397	1420.985	1079.747
276.526	15.411	1420.424	1079.317
277.541	15.564	1419.050	1079.155
278.555	15.556	1418.270	1078.417
279.570	15.488	1417.435	1077.252
280.585	15.474	1416.312	1076.213
281.599	15.646	1415.510	1076.612
282.614	15.691	1414.813	1076.275
283.628	15.633	1413.644	1074.915
284.643	15.693	1412.264	1074.153
285.657	15.602	1411.048	1072.557
286.672	15.597	1410.738	1072.190
287.687	15.559	1410.054	1071.337
288.701	15.663	1408.639	1070.831
289.716	15.743	1407.444	1070.334
290.730	15.743	1406.897	1069.821
291.745	15.727	1405.876	1068.849
292.760	15.665	1405.282	1067.911
293.774	15.719	1404.168	1067.314
294.789	15.713	1402.950	1066.255
295.803	15.735	1402.282	1065.790
296.818	15.795	1401.421	1065.424
297.833	15.835	1400.014	1064.509
298.847	15.808	1399.006	1063.480
299.862	15.797	1398.397	1062.856
300.876	15.818	1397.593	1062.280
301.891	15.754	1396.508	1060.958
302.906	15.798	1396.124	1060.850
303.920	15.887	1395.018	1060.475
304.935	15.977	1394.076	1060.233
305.949	15.995	1393.209	1059.596
306.964	15.930	1392.490	1058.545
307.979	16.089	1391.457	1058.665
308.993	16.101	1390.590	1057.988
310.008	16.045	1390.155	1057.210
311.022	15.938	1388.951	1055.529
312.037	16.033	1387.889	1055.226
313.052	16.000	1387.140	1054.355
314.066	16.127	1385.649	1053.920
315.081	16.066	1384.452	1052.541
316.095	16.042	1383.568	1051.621
317.110	16.016	1382.231	1050.354
318.125	15.943	1381.880	1049.538
319.139	15.993	1380.974	1049.067
320.154	16.009	1379.899	1048.260
321.168	16.058	1378.835	1047.658
322.183	16.106	1377.674	1046.986
323.197	16.059	1376.610	1045.794
324.212	16.118	1375.662	1045.347
325.227	16.056	1375.214	1044.526
326.241	16.127	1373.981	1043.939
327.256	16.056	1373.755	1043.234
328.270	16.186	1372.774	1043.199
329.285	16.191	1371.425	1042.112
330.300	16.252	1370.545	1041.728
331.314	16.130	1370.379	1040.758
332.329	16.198	1368.959	1040.009
333.343	16.139	1368.006	1038.832
334.358	16.178	1367.311	1038.451
335.373	16.254	1366.544	1038.243
336.387	16.287	1365.558	1037.602
337.402	16.293	1364.966	1037.098
338.416	16.269	1364.057	1036.169
339.431	16.336	1363.323	1035.931
340.446	16.441	1362.593	1035.931
341.460	16.279	1361.949	1034.352
342.475	16.344	1361.130	1034.037
343.489	16.516	1359.554	1033.802
344.504	16.463	1358.981	1032.949
345.519	16.571	1357.758	1032.587
346.533	16.654	1356.946	1032.385
347.548	16.649	1355.939	1031.501
348.562	16.632	1355.216	1030.752
349.577	16.599	1354.528	1029.938
350.592	16.543	1353.823	1028.971
351.606	16.467	1353.009	1027.796
352.621	16.631	1351.587	1027.624
353.635	16.624	1349.877	1026.190
354.650	16.577	1349.388	1025.441
355.665	16.453	1348.864	1024.201
356.679	16.606	1347.542	1024.031
357.694	16.626	1346.447	1023.234
358.708	16.657	1345.261	1022.428
359.723	16.684	1344.428	1021.865
360.738	16.669	1343.443	1020.939
361.752	16.697	1342.467	1020.271
362.767	16.671	1341.619	1019.386
363.781	16.697	1340.406	1018.529
364.796	16.710	1339.875	1018.113
365.810	16.797	1339.036	1017.906
366.825	16.786	1338.704	1017.502
367.840	16.790	1337.921	1016.837
368.854	16.787	1336.930	1015.977
369.869	16.842	1336.270	1015.712
370.883	16.933	1335.628	1015.684
371.898	16.896	1334.791	1014.736
372.913	16.870	1334.216	1014.054
373.927	16.810	1333.253	1012.871
374.942	16.963	1332.298	1012.970
375.956	16.938	1331.604	1012.201
376.971	17.008	1330.741	1011.877
377.986	17.000	1329.491	1010.787
379.000	17.016	1329.259	1010.614
380.015	17.001	1328.472	1009.838
381.029	16.978	1327.918	1009.191
382.044	17.044	1327.182	1008.937
383.059	17.151	1326.184	1008.724
384.073	17.166	1325.409	1008.134
385.088	17.172	1324.576	1007.447
386.102	17.195	1323.692	1006.820
387.117	17.199	1323.433	1006.561
388.132	17.271	1322.294	1006.027
389.146	17.189	1321.701	1005.008
390.161	17.143	1320.568	1003.783
391.175	17.151	1320.156	1003.429
392.190	17.163	1319.653	1003.030
393.205	17.144	1318.335	1001.827
394.219	17.240	1317.308	1001.521
395.234	17.439	1315.790	1001.448
396.248	17.271	1314.651	999.509
397.263	17.305	1313.609	998.826
398.278	17.284	1312.113	997.475
399.292	17.265	1310.909	996.361
400.307	17.171	1310.173	995.165
401.321	17.221	1309.161	994.599
402.336	17.266	1308.167	994.022
403.350	17.230	1307.273	993.043
404.365	17.293	1306.365	992.633
405.380	17.312	1305.311	991.856
406.394	17.318	1305.020	991.578
407.409	17.422	1303.955	991.288
408.423	17.340	1303.191	990.144
409.438	17.395	1302.608	989.933
410.453	17.513	1301.553	989.728
411.467	17.552	1300.507	989.072
412.482	17.529	1300.253	988.658
413.496	17.559	1299.657	988.291
414.511	17.619	1298.578	987.730
415.526	17.680	1297.651	987.292
416.540	17.614	1297.134	986.433
417.555	17.683	1296.559	986.304
418.569	17.652	1295.872	985.519
419.584	17.703	1295.781	985.657
420.599	17.763	1294.763	985.138
421.613	91.521	1346.565	1446.532
422.628	90.077	1354.088	1446.637
