DTS Sentinel unit serial number:	SN413079Multiplexer serial number:	ORYXHardware model number:	OX4-SRSoftware version number:	ORYX F/W v4.00 Oryx Data Collector v3.7.2.0data status	okinstallation	princeton_trtdifferential loss correction	single-endedforward channel	channel 4reverse channel	N/Adate	2019/09/15time	02:01:35forward acquisition time	60.00reverse acquisition time	0.00gamma	496.2192k internal	0.2308k external	0.2308temperature offset calibration	1.0032default loss term (dB/km)	0.3790temperature slope calibration	1.0000multiplexer offset coefficient	1.0000multiplexer slope coefficient	1.0000fibre end	0.00T internal ref (°C)	31.75T ext. ref 1 (°C)	4.53T ext. ref 2 (°C)	26.46length (m)	temperature (°C)	Stokes	anti-Stokes-747.200	-200.000	-0.016	0.110
-746.185	-59.645	0.176	-0.077
-745.171	800.000	-0.065	0.249
-744.156	34.528	0.105	0.093
-743.142	-26.038	-0.077	0.046
-742.127	-200.000	0.030	0.234
-741.112	800.000	0.023	0.068
-740.098	6.834	0.062	-0.047
-739.083	-22.503	0.107	0.066
-738.069	211.827	-0.257	0.411
-737.054	-15.403	0.062	0.041
-736.039	-179.386	-0.271	-0.006
-735.025	-200.000	0.048	0.227
-734.010	30.401	0.209	-0.181
-732.996	-200.000	0.025	0.148
-731.981	-200.000	0.011	-0.064
-730.966	-25.469	-0.160	-0.096
-729.952	190.039	-0.072	-0.110
-728.937	-200.000	0.029	-0.390
-727.923	-65.090	-0.337	-0.138
-726.908	7.365	-0.121	0.092
-725.894	65.300	0.074	0.076
-724.879	800.000	0.127	0.375
-723.864	-134.123	-0.277	0.035
-722.850	116.678	0.202	-0.252
-721.835	676.175	-0.081	0.214
-720.821	22.713	-0.063	-0.052
-719.806	-61.937	-0.028	0.012
-718.791	-200.000	-0.021	-0.284
-717.777	20.875	0.127	-0.104
-716.762	800.000	0.059	0.244
-715.748	148.210	0.107	-0.147
-714.733	105.183	-0.148	-0.177
-713.718	63.657	0.157	0.160
-712.704	-36.341	-0.027	0.015
-711.689	-91.881	-0.022	0.006
-710.675	800.000	0.086	-0.252
-709.660	775.300	0.072	0.199
-708.645	67.434	0.121	-0.126
-707.631	-200.000	-0.003	0.469
-706.616	-90.592	-0.046	-0.014
-705.602	374.894	0.112	0.231
-704.587	96.850	0.189	-0.220
-703.572	45.667	0.149	-0.140
-702.558	-200.000	-0.001	-0.088
-701.543	-44.105	0.285	-0.145
-700.529	-81.228	0.245	-0.082
-699.514	29.199	0.178	-0.153
-698.499	800.000	0.086	-0.290
-697.485	101.563	0.046	-0.054
-696.470	-142.691	0.286	0.028
-695.456	-59.534	0.155	0.067
-694.441	13.957	0.152	-0.120
-693.426	-57.863	0.293	-0.130
-692.412	-200.000	-0.051	-0.371
-691.397	151.577	-0.086	0.118
-690.383	149.717	-0.088	-0.122
-689.368	-167.633	-0.452	-0.018
-688.354	-92.965	-0.310	-0.088
-687.339	28.327	-0.265	-0.227
-686.324	-69.171	-0.048	-0.019
-685.310	7.639	-0.231	-0.175
-684.295	-97.623	-0.299	0.079
-683.281	-118.745	-0.146	0.026
-682.266	65.349	-0.079	-0.081
-681.251	-22.260	0.159	0.098
-680.237	-78.823	0.018	-0.006
-679.222	-200.000	0.000	-0.127
-678.208	-78.107	0.329	-0.115
-677.193	-10.404	-0.209	-0.140
-676.178	800.000	-0.116	-0.342
-675.164	-200.000	0.056	-0.486
-674.149	-183.587	0.148	0.003
-673.135	265.704	-0.100	-0.177
-672.120	800.000	-0.067	-0.209
-671.105	456.973	-0.082	-0.185
-670.091	-154.968	0.155	-0.010
-669.076	35.955	0.140	-0.125
-668.062	-80.697	-0.077	-0.026
-667.047	162.537	-0.061	-0.087
-666.032	-67.922	-0.031	0.012
-665.018	191.721	0.151	0.231
-664.003	-8.433	-0.050	-0.034
-662.989	800.000	-0.043	0.121
-661.974	388.874	-0.157	-0.329
-660.959	-30.480	0.124	-0.071
-659.945	213.517	-0.196	0.314
-658.930	-61.978	-0.395	0.167
-657.916	-72.565	0.054	-0.020
-656.901	535.938	0.050	-0.119
-655.886	-28.540	-0.092	0.054
-654.872	53.963	0.414	-0.403
-653.857	502.881	-0.104	-0.244
-652.843	-33.799	0.199	0.111
-651.828	655.834	0.036	-0.095
-650.814	94.681	0.090	-0.104
-649.799	277.637	-0.085	0.153
-648.784	-63.862	0.133	0.055
-647.770	800.000	0.036	-0.119
-646.755	800.000	-0.010	-0.031
-645.741	-15.636	-0.406	-0.262
-644.726	-200.000	-0.008	-0.058
-643.711	385.211	-0.096	-0.200
-642.697	-35.191	0.060	0.033
-641.682	-107.483	-0.200	-0.044
-640.668	-200.000	0.027	-0.260
-639.653	-200.000	0.008	-0.134
-638.638	-200.000	0.005	-0.116
-637.624	12.296	0.214	0.167
-636.609	-115.448	-0.336	0.064
-635.595	-47.880	-0.015	0.007
-634.580	52.743	0.111	-0.108
-633.565	46.649	-0.170	-0.160
-632.551	-174.835	-0.109	-0.003
-631.536	-147.604	0.197	0.017
-630.522	-200.000	-0.072	-0.379
-629.507	-200.000	-0.023	0.125
-628.492	186.268	-0.127	0.191
-627.478	-102.676	0.162	-0.039
-626.463	800.000	-0.139	-0.461
-625.449	93.882	-0.086	0.099
-624.434	122.861	-0.150	0.189
-623.419	43.607	-0.128	-0.118
-622.405	-97.074	-0.296	-0.078
-621.390	-111.374	0.372	0.077
-620.376	492.866	-0.164	0.381
-619.361	800.000	-0.102	0.307
-618.346	-33.381	-0.157	-0.088
-617.332	1.459	0.090	0.065
-616.317	-51.724	-0.103	-0.048
-615.303	417.021	-0.083	0.180
-614.288	233.048	0.066	-0.110
-613.273	800.000	-0.040	-0.115
-612.259	-73.609	-0.239	-0.088
-611.244	58.134	0.137	-0.136
-610.230	37.393	-0.182	0.164
-609.215	600.973	-0.035	0.088
-608.201	-140.279	0.335	0.035
-607.186	58.004	-0.185	0.183
-606.171	-146.611	-0.171	0.015
-605.157	-200.000	0.019	-0.119
-604.142	-91.860	-0.255	-0.073
-603.128	-43.601	-0.261	0.133
-602.113	-118.880	0.154	-0.027
-601.098	135.194	-0.123	0.161
-600.084	-168.516	-0.184	-0.007
-599.069	-8.205	0.111	0.075
-598.055	17.788	-0.299	-0.241
-597.040	337.245	0.102	0.201
-596.025	800.000	-0.061	-0.257
-595.011	-90.380	0.210	-0.061
-593.996	-64.978	-0.080	0.032
-592.982	-85.377	0.070	0.022
-591.967	800.000	0.043	-0.165
-590.952	-200.000	0.019	0.163
-589.938	18.529	-0.111	0.090
-588.923	800.000	-0.021	-0.074
-587.909	-170.585	0.161	0.006
-586.894	-171.809	-0.257	0.009
-585.879	335.150	0.137	-0.268
-584.865	418.146	-0.061	-0.132
-583.850	193.194	-0.045	0.069
-582.836	800.000	-0.036	0.151
-581.821	-22.683	0.317	-0.193
-580.806	800.000	-0.028	-0.115
-579.792	-200.000	0.034	0.236
-578.777	52.514	-0.147	-0.141
-577.763	-90.223	-0.162	-0.047
-576.748	-78.595	0.180	-0.062
-575.733	-107.972	0.228	-0.050
-574.719	-91.275	-0.264	0.076
-573.704	524.762	-0.071	-0.170
-572.690	66.063	0.087	-0.090
-571.675	101.018	0.074	0.086
-570.661	643.763	-0.107	-0.277
-569.646	116.353	0.233	-0.288
-568.631	622.442	0.117	-0.297
-567.617	531.184	-0.058	-0.139
-566.602	417.995	0.147	-0.318
-565.588	-3.411	-0.021	0.015
-564.573	141.089	0.224	0.299
-563.558	-200.000	-0.009	0.102
-562.544	127.614	-0.146	0.187
-561.529	-173.962	-0.119	-0.004
-560.515	-123.602	0.176	0.028
-559.500	275.685	0.064	0.114
-558.485	-165.353	-0.239	0.011
-557.471	-76.692	0.135	0.048
-556.456	283.932	-0.104	0.189
-555.442	-200.000	-0.028	-0.174
-554.427	-14.296	-0.165	-0.107
-553.412	-125.730	-0.225	-0.034
-552.398	800.000	-0.011	-0.034
-551.383	-161.619	0.204	0.011
-550.369	204.993	0.059	0.093
-549.354	360.573	-0.199	0.402
-548.339	26.193	-0.173	0.146
-547.325	800.000	-0.073	-0.275
-546.310	48.103	0.100	-0.095
-545.296	800.000	0.084	0.280
-544.281	-62.966	-0.429	0.179
-543.266	349.139	0.029	0.058
-542.252	800.000	-0.060	-0.178
-541.237	-30.331	-0.064	0.037
-540.223	134.463	0.194	0.254
-539.208	-94.663	0.181	-0.050
-538.193	267.602	0.180	0.318
-537.179	-99.519	0.343	0.087
-536.164	-103.041	-0.064	0.015
-535.150	200.331	0.059	0.091
-534.135	-74.806	0.099	0.036
-533.121	-200.000	0.002	0.151
-532.106	370.269	-0.145	0.296
-531.091	311.458	0.151	0.285
-530.077	14.312	0.013	0.010
-529.062	800.000	-0.020	-0.078
-528.048	-25.482	-0.244	0.145
-527.033	-26.574	-0.126	0.074
-526.018	-105.519	-0.166	0.038
-525.004	-10.033	-0.167	-0.112
-523.989	-149.817	0.241	-0.019
-522.975	-91.073	-0.096	0.028
-521.960	-132.270	0.139	0.018
-520.945	207.418	-0.121	0.190
-519.931	-81.639	-0.151	0.050
-518.916	22.150	-0.172	0.141
-517.902	-20.134	0.165	0.102
-516.887	639.558	0.065	0.165
-515.872	0.618	0.174	0.126
-514.858	-42.020	0.218	-0.113
-513.843	-28.502	-0.173	0.100
-512.829	334.433	-0.063	-0.123
-511.814	333.671	-0.101	-0.197
-510.799	-74.317	0.060	0.022
-509.785	-4.912	-0.342	-0.237
-508.770	-200.000	-0.032	-0.369
-507.756	-200.000	0.008	0.265
-506.741	-200.000	-0.002	-0.124
-505.726	-200.000	0.014	0.099
-504.712	191.741	-0.096	0.145
-503.697	324.774	-0.124	0.238
-502.683	151.637	-0.115	0.158
-501.668	66.726	0.014	0.015
-500.653	-96.413	0.592	-0.158
-499.639	-133.100	0.190	0.024
-498.624	467.366	-0.038	0.086
-497.610	-200.000	0.044	-0.283
-496.595	560.287	-0.081	0.198
-495.581	305.037	0.191	-0.357
-494.566	0.534	-0.211	0.152
-493.551	233.917	-0.179	-0.297
-492.537	-200.000	-0.014	-0.563
-491.522	800.000	0.014	-0.061
-490.508	800.000	-0.046	0.200
-489.493	66.653	-0.191	-0.196
-488.478	-57.719	-0.153	0.067
-487.464	-143.431	-0.141	-0.014
-486.449	-115.860	0.340	0.064
-485.435	574.967	-0.180	0.442
-484.420	-74.381	0.298	0.108
-483.405	-200.000	-0.082	0.000
-482.391	280.777	0.136	0.245
-481.376	122.252	0.156	0.196
-480.362	121.197	0.091	0.114
-479.347	21.726	0.157	0.129
-478.332	-200.000	0.002	-0.282
-477.318	-92.771	-0.065	-0.018
-476.303	5.611	0.147	0.110
-475.289	104.492	0.144	-0.171
-474.274	-92.336	-0.254	0.072
-473.259	49.436	0.179	0.169
-472.245	-54.452	-0.130	-0.059
-471.230	-81.327	0.330	-0.109
-470.216	12.947	-0.086	0.067
-469.201	163.497	-0.152	0.215
-468.186	-88.636	0.346	0.103
-467.172	-139.032	-0.356	0.039
-466.157	-24.186	-0.398	0.239
-465.143	382.506	0.025	-0.052
-464.128	134.735	-0.162	-0.211
-463.113	800.000	-0.066	-0.227
-462.099	-111.242	0.081	-0.017
-461.084	373.082	0.021	0.043
-460.070	7.292	-0.032	0.024
-459.055	-63.480	0.232	-0.096
-458.040	65.890	-0.159	0.162
-457.026	-45.641	-0.297	-0.148
-456.011	0.740	0.181	0.130
-454.997	-200.000	-0.020	0.248
-453.982	689.468	-0.118	-0.309
-452.968	-149.991	-0.179	-0.014
-451.953	-200.000	-0.052	0.282
-450.938	0.761	-0.114	0.082
-449.924	-105.557	-0.332	0.076
-448.909	-60.512	-0.588	-0.251
-447.895	349.593	0.151	0.300
-446.880	100.871	-0.105	0.123
-445.865	-52.259	0.203	0.095
-444.851	-200.000	-0.032	0.159
-443.836	119.131	0.019	0.024
-442.822	145.390	0.111	-0.150
-441.807	800.000	0.029	-0.120
-440.792	58.226	0.101	-0.100
-439.778	-23.767	-0.051	-0.031
-438.763	-200.000	0.102	0.462
-437.749	189.999	-0.195	0.294
-436.734	5.265	-0.212	0.157
-435.719	87.483	0.039	-0.044
-434.705	-156.842	0.114	-0.007
-433.690	57.458	-0.159	0.156
-432.676	94.438	0.203	0.231
-431.661	-165.815	-0.223	-0.010
-430.646	-159.613	-0.447	-0.025
-429.632	-55.603	-0.208	0.093
-428.617	85.357	0.146	-0.161
-427.603	33.216	-0.104	0.090
-426.588	181.966	-0.285	-0.421
-425.573	-107.932	0.168	-0.037
-424.559	-153.429	0.201	0.014
-423.544	55.161	0.087	-0.085
-422.530	-200.000	-0.090	-0.437
-421.515	-54.344	0.127	0.058
-420.500	74.985	-0.167	0.176
-419.486	-200.000	0.003	0.030
-418.471	-41.268	-0.073	-0.038
-417.457	-120.477	0.195	0.033
-416.442	0.534	-0.112	-0.080
-415.428	87.488	0.105	0.117
-414.413	-200.000	0.012	-0.224
-413.398	-200.000	-0.096	-0.468
-412.384	-200.000	-0.000	-0.055
-411.369	-55.693	0.256	-0.115
-410.355	99.206	-0.201	0.233
-409.340	-200.000	0.042	-0.339
-408.325	205.016	-0.156	0.243
-407.311	-114.689	-0.204	-0.039
-406.296	-143.605	0.117	0.011
-405.282	-8.138	0.136	-0.092
-404.267	-102.111	0.240	-0.058
-403.252	-141.024	0.320	-0.033
-402.238	800.000	-0.009	-0.028
-401.223	113.040	0.112	-0.137
-400.209	56.985	0.162	-0.158
-399.194	262.678	0.095	-0.166
-398.179	319.064	-0.020	0.038
-397.165	-31.078	0.131	0.074
-396.150	-200.000	0.048	0.252
-395.136	-37.404	0.156	0.084
-394.121	-200.000	0.003	-0.147
-393.106	-200.000	-0.035	0.195
-392.092	-200.000	-0.011	0.367
-391.077	-168.298	0.196	0.008
-390.063	-200.000	0.028	0.193
-389.048	585.707	0.129	0.317
-388.033	91.523	0.057	-0.064
-387.019	-175.430	-0.531	0.015
-386.004	0.782	0.121	-0.087
-384.990	94.231	-0.177	0.201
-383.975	800.000	-0.070	0.296
-382.960	-74.078	0.235	0.085
-381.946	64.200	-0.282	0.284
-380.931	290.334	0.077	-0.141
-379.917	-4.485	0.209	-0.145
-378.902	-93.889	0.247	0.068
-377.888	800.000	0.053	-0.165
-376.873	-58.551	-0.197	0.086
-375.858	800.000	-0.027	0.108
-374.844	-121.309	-0.332	0.055
-373.829	-136.374	0.146	-0.017
-372.815	10.042	0.108	-0.082
-371.800	78.863	0.163	0.175
-370.785	-200.000	-0.003	-0.255
-369.771	468.073	-0.078	-0.175
-368.756	800.000	-0.069	-0.241
-367.742	-200.000	-0.003	0.299
-366.727	-200.000	-0.043	0.364
-365.712	681.051	-0.066	-0.173
-364.698	-41.825	-0.056	-0.029
-363.683	-200.000	0.043	0.230
-362.669	-200.000	-0.009	-0.157
-361.654	674.166	0.074	-0.193
-360.639	-50.769	0.184	-0.087
-359.625	-200.000	0.022	-0.111
-358.610	64.088	-0.191	-0.192
-357.596	-107.974	0.126	-0.028
-356.581	479.727	0.200	-0.455
-355.566	800.000	-0.017	0.060
-354.552	34.837	-0.206	0.180
-353.537	-97.294	-0.047	0.012
-352.523	-92.707	-0.162	0.045
-351.508	-48.048	-0.349	0.169
-350.493	167.142	0.117	-0.166
-349.479	-174.449	0.281	0.008
-348.464	-119.374	-0.144	0.025
-347.450	800.000	0.072	-0.233
-346.435	29.134	0.227	-0.193
-345.420	94.977	-0.068	0.077
-344.406	7.735	-0.236	-0.177
-343.391	100.802	-0.050	-0.058
-342.377	152.459	-0.076	0.104
-341.362	-200.000	-0.044	-0.281
-340.348	60.870	0.261	0.259
-339.333	-106.918	0.243	0.054
-338.318	-200.000	-0.055	-0.335
-337.304	-23.628	0.147	0.088
-336.289	631.215	0.119	0.302
-335.275	492.957	-0.114	0.261
-334.260	-200.000	-0.020	0.138
-333.245	-63.476	0.082	-0.034
-332.231	-200.000	0.006	-0.105
-331.216	126.671	0.071	0.090
-330.202	59.438	0.368	-0.362
-329.187	260.102	-0.157	-0.272
-328.172	45.057	0.206	0.190
-327.158	-66.717	-0.216	-0.085
-326.143	-1.473	0.082	0.058
-325.129	-141.212	0.244	0.025
-324.114	-200.000	0.033	0.278
-323.099	-55.633	0.264	-0.118
-322.085	-120.159	0.343	0.059
-321.070	-91.279	0.424	0.121
-320.056	-192.103	-0.339	-0.003
-319.041	162.125	-0.143	-0.200
-318.026	537.796	-0.076	-0.181
-317.012	-134.333	0.113	-0.014
-315.997	671.654	-0.055	0.143
-314.983	-117.782	-0.221	0.040
-313.968	-71.328	-0.223	-0.083
-312.953	-109.876	-0.207	0.043
-311.939	59.361	-0.122	-0.120
-310.924	-22.447	0.236	0.143
-309.910	-32.073	-0.123	0.069
-308.895	78.542	-0.086	-0.092
-307.880	306.107	-0.014	0.026
-306.866	-43.946	-0.153	0.077
-305.851	-38.334	0.350	-0.185
-304.837	-136.492	0.054	0.006
-303.822	757.970	-0.109	0.295
-302.807	460.443	0.105	0.234
-301.793	-123.058	-0.040	-0.006
-300.778	-50.968	0.379	-0.178
-299.764	-24.402	0.237	-0.141
-298.749	-18.467	-0.279	-0.174
-297.735	-193.926	0.179	0.001
-296.720	-85.234	0.113	-0.035
-295.705	-36.629	-0.161	-0.086
-294.691	383.074	0.091	0.186
-293.676	199.118	0.151	-0.231
-292.662	207.447	0.100	-0.156
-291.647	-49.629	0.243	0.116
-290.632	-193.408	0.332	0.003
-289.618	-37.726	-0.114	0.060
-288.603	-50.041	0.249	-0.118
-287.589	-200.000	0.033	-0.235
-286.574	-73.378	0.248	-0.091
-285.559	94.943	0.042	0.048
-284.545	452.718	0.106	0.235
-283.530	87.195	-0.158	0.174
-282.516	-2.537	0.212	0.148
-281.501	-200.000	0.009	0.206
-280.486	-11.448	-0.329	-0.216
-279.472	800.000	0.079	-0.333
-278.457	-81.547	0.424	-0.139
-277.443	800.000	-0.088	-0.362
-276.428	-116.729	-0.161	0.029
-275.413	-165.267	0.105	0.005
-274.399	41.877	-0.236	-0.214
-273.384	253.718	-0.190	0.325
-272.370	-180.438	0.268	0.006
-271.355	128.597	-0.061	0.078
-270.340	229.333	0.220	-0.359
-269.326	33.036	-0.204	-0.177
-268.311	-150.507	-0.301	0.023
-267.297	369.199	-0.062	0.125
-266.282	71.698	-0.155	0.161
-265.267	96.002	-0.122	-0.139
-264.253	146.172	-0.167	0.224
-263.238	577.536	-0.071	-0.172
-262.224	-200.000	-0.013	0.111
-261.209	-69.870	0.198	-0.075
-260.195	-123.150	-0.325	0.052
-259.180	-200.000	0.019	0.125
-258.165	-200.000	-0.014	-0.191
-257.151	225.170	0.089	-0.144
-256.136	-12.609	-0.158	0.103
-255.122	-200.000	-0.016	0.294
-254.107	-78.879	0.281	0.096
-253.092	-200.000	0.045	0.285
-252.078	585.648	0.135	-0.331
-251.063	800.000	0.104	0.436
-250.049	-78.875	0.018	0.006
-249.034	-72.410	-0.441	0.163
-248.019	-200.000	-0.016	-0.152
-247.005	-200.000	-0.012	-0.187
-245.990	-28.458	0.520	0.299
-244.976	54.573	-0.123	0.118
-243.961	800.000	-0.056	-0.162
-242.946	166.244	-0.135	0.190
-241.932	-46.982	-0.225	0.109
-240.917	704.193	0.046	0.120
-239.903	-35.863	0.154	-0.083
-238.888	62.357	0.045	-0.044
-237.873	-81.815	0.464	0.152
-236.859	-200.000	0.032	0.156
-235.844	800.000	0.062	-0.214
-234.830	-163.664	0.095	-0.004
-233.815	-76.620	-0.483	0.169
-232.800	-200.000	0.008	0.114
-231.786	-150.133	0.333	-0.026
-230.771	-43.138	0.135	0.068
-229.757	-200.000	-0.020	0.196
-228.742	-83.640	0.024	0.008
-227.727	168.559	0.198	0.281
-226.713	-76.711	0.185	0.064
-225.698	800.000	0.087	0.365
-224.684	800.000	0.061	-0.262
-223.669	-65.465	0.199	0.080
-222.655	-141.239	0.439	0.044
-221.640	-180.328	0.153	0.003
-220.625	-200.000	0.047	-0.246
-219.611	-200.000	0.008	-0.058
-218.596	56.106	0.046	0.045
-217.582	-124.612	-0.316	-0.049
-216.567	-35.301	0.042	0.023
-215.552	-27.990	-0.163	-0.094
-214.538	-200.000	0.025	-0.304
-213.523	71.698	0.272	-0.281
-212.509	-200.000	-0.009	-0.377
-211.494	-159.051	-0.309	-0.017
-210.479	-65.876	0.131	0.052
-209.465	-122.333	0.043	0.007
-208.450	-133.787	-0.179	-0.022
-207.436	-114.650	-0.115	0.022
-206.421	109.723	-0.091	-0.108
-205.406	58.577	-0.145	-0.141
-204.392	-200.000	0.025	-0.270
-203.377	-105.663	-0.159	-0.036
-202.363	-49.842	-0.248	-0.117
-201.348	-200.000	-0.004	0.124
-200.333	170.490	-0.182	0.259
-199.319	800.000	0.093	-0.401
-198.304	800.000	0.013	-0.051
-197.290	-72.801	-0.079	0.029
-196.275	37.874	0.227	-0.201
-195.260	96.496	0.197	-0.225
-194.246	143.258	-0.084	0.111
-193.231	298.136	0.046	-0.085
-192.217	-1.079	-0.181	0.128
-191.202	255.689	-0.115	-0.196
-190.187	-181.612	-0.354	0.007
-189.173	-6.503	0.268	-0.182
-188.158	132.189	0.115	0.148
-187.144	18.641	-0.219	0.175
-186.129	-12.940	0.065	0.042
-185.114	6.933	-0.277	-0.205
-184.100	64.791	0.154	0.154
-183.085	-157.351	0.231	-0.014
-182.071	800.000	0.069	0.263
-181.056	-111.249	0.409	0.083
-180.042	454.830	0.164	0.361
-179.027	-43.062	-0.090	0.046
-178.012	-180.026	0.273	-0.006
-176.998	800.000	-0.084	-0.278
-175.983	-118.548	0.132	-0.023
-174.969	800.000	-0.092	-0.260
-173.954	800.000	0.016	-0.062
-172.939	11.810	-0.238	0.182
-171.925	248.521	-0.039	0.066
-170.910	800.000	-0.090	0.254
-169.896	288.613	-0.117	0.211
-168.881	800.000	-0.025	0.071
-167.866	133.698	0.103	0.132
-166.852	-161.098	0.355	-0.018
-165.837	239.468	-0.054	-0.089
-164.823	800.000	0.074	-0.235
-163.808	-53.005	-0.122	-0.056
-162.793	92.123	-0.257	-0.288
-161.779	20.576	-0.293	-0.235
-160.764	305.725	0.070	-0.128
-159.750	447.693	0.110	0.241
-158.735	84.465	0.050	0.054
-157.720	-55.034	0.212	-0.095
-156.706	128.566	0.104	-0.132
-155.691	-200.000	-0.048	-0.436
-154.677	343.111	-0.066	-0.128
-153.662	800.000	0.041	-0.114
-152.647	-9.631	0.233	0.154
-151.633	800.000	0.038	0.157
-150.618	-81.116	0.198	0.065
-149.604	245.691	-0.136	-0.227
-148.589	-72.692	-0.069	0.025
-147.574	29.369	-0.179	0.151
-146.560	-17.680	0.314	-0.196
-145.545	800.000	0.028	0.090
-144.531	152.270	0.111	0.151
-143.516	800.000	-0.148	0.512
-142.502	64.115	0.088	0.088
-141.487	-63.725	-0.260	0.106
-140.472	204.523	-0.147	0.227
-139.458	-200.000	-0.046	-0.518
-138.443	203.624	-0.115	0.177
-137.429	800.000	-0.066	0.210
-136.414	-200.000	0.022	0.188
-135.399	140.015	0.179	-0.235
-134.385	-200.000	-0.034	-0.258
-133.370	-101.072	-0.054	-0.013
-132.356	-168.311	-0.273	-0.010
-131.341	-163.910	-0.432	-0.020
-130.326	-98.994	-0.260	0.065
-129.312	-140.829	0.264	-0.027
-128.297	129.100	-0.072	-0.091
-127.283	251.828	-0.194	0.327
-126.268	-41.082	-0.097	-0.050
-125.253	-3.770	-0.261	-0.180
-124.239	67.425	0.240	0.243
-123.224	-21.882	0.103	-0.062
-122.210	800.000	0.114	-0.406
-121.195	-19.256	-0.056	0.035
-120.180	-200.000	0.010	0.117
-119.166	-90.711	-0.152	-0.044
-118.151	-200.000	0.016	-0.168
-117.137	-200.000	-0.017	0.245
-116.122	-200.000	0.024	0.226
-115.107	135.110	-0.044	0.057
-114.093	80.031	0.166	0.178
-113.078	-18.348	-0.292	0.181
-112.064	800.000	-0.072	-0.242
-111.049	-100.847	0.248	-0.060
-110.034	-9.578	0.131	-0.087
-109.020	-40.771	-0.238	-0.122
-108.005	544.640	0.086	0.204
-106.991	800.000	0.076	0.220
-105.976	-200.000	-0.009	0.129
-104.962	-91.723	-0.174	0.049
-103.947	-45.642	0.243	0.119
-102.932	687.766	0.043	-0.110
-101.918	66.330	0.200	0.201
-100.903	800.000	-0.012	-0.047
-99.889	-21.273	0.204	-0.123
-98.874	-200.000	0.009	-0.116
-97.859	-153.228	-0.236	0.016
-96.845	6.659	0.255	-0.188
-95.830	-200.000	-0.047	-0.206
-94.816	-200.000	-0.012	0.104
-93.801	-200.000	0.021	0.237
-92.786	110.147	0.076	0.090
-91.772	13.475	0.207	0.159
-90.757	800.000	-0.027	0.080
-89.743	-200.000	-0.012	-0.540
-88.728	176.066	-0.147	0.212
-87.713	800.000	0.077	0.235
-86.699	800.000	-0.066	0.218
-85.684	-102.127	-0.073	-0.017
-84.670	386.981	0.105	0.215
-83.655	-116.283	0.204	-0.037
-82.640	-159.776	0.364	0.020
-81.626	72.797	-0.151	-0.156
-80.611	-65.999	-0.189	0.075
-79.597	-56.794	-0.392	0.171
-78.582	-200.000	-0.024	0.288
-77.567	61.100	0.208	-0.205
-76.553	83.966	0.182	-0.196
-75.538	-48.019	-0.020	-0.010
-74.524	146.702	-0.019	0.025
-73.509	-64.966	0.322	0.129
-72.494	800.000	-0.015	-0.051
-71.480	-200.000	-0.010	-0.051
-70.465	-107.844	0.611	-0.132
-69.451	-200.000	-0.011	-0.212
-68.436	-141.075	-0.113	-0.011
-67.422	-4.987	-0.095	-0.065
-66.407	12.324	-0.027	-0.020
-65.392	-190.068	-0.113	0.001
-64.378	800.000	0.024	-0.091
-63.363	-150.204	-0.187	0.014
-62.349	-15.132	0.259	0.164
-61.334	85.680	-0.830	-0.903
-60.319	598.339	0.239	0.586
-59.305	800.000	-0.452	-1.356
-58.290	114.115	0.685	0.825
-57.276	335.960	0.769	1.475
-56.261	-200.000	96.615	601.744
-55.246	636.642	1377.007	3460.107
-54.232	193.850	2564.631	3842.086
-53.217	110.073	2302.700	2734.516
-52.203	38.548	2064.673	1821.520
-51.188	33.502	1979.796	1701.413
-50.173	32.003	1961.966	1672.671
-49.159	46.879	2011.207	1849.214
-48.144	48.339	2029.424	1879.072
-47.130	34.131	1991.255	1716.663
-46.115	31.733	1981.212	1686.381
-45.100	31.728	1977.836	1683.397
-44.086	31.604	1975.781	1680.470
-43.071	31.573	1973.131	1677.872
-42.057	31.541	1971.258	1675.928
-41.042	31.605	1968.792	1674.335
-40.027	31.667	1966.892	1673.203
-39.013	31.679	1965.081	1671.706
-37.998	31.710	1963.463	1670.542
-36.984	31.643	1961.769	1668.438
-35.969	31.705	1959.428	1666.926
-34.954	31.718	1957.735	1665.535
-33.940	31.782	1956.432	1664.931
-32.925	31.684	1955.305	1663.042
-31.911	31.742	1952.842	1661.392
-30.896	31.787	1951.069	1660.214
-29.881	31.811	1949.316	1658.868
-28.867	31.731	1948.762	1657.624
-27.852	31.833	1946.276	1656.343
-26.838	31.837	1944.690	1654.967
-25.823	31.785	1942.639	1652.698
-24.809	31.722	1941.055	1650.732
-23.794	31.760	1939.287	1649.496
-22.779	31.796	1937.538	1648.259
-21.765	31.752	1935.681	1646.227
-20.750	31.684	1933.967	1644.103
-19.736	31.780	1932.312	1643.478
-18.721	31.748	1931.097	1642.096
-17.706	31.756	1929.504	1640.750
-16.692	31.753	1927.871	1639.270
-15.677	31.862	1925.998	1638.561
-14.663	31.778	1924.862	1636.792
-13.648	31.811	1923.798	1636.113
-12.633	31.785	1922.904	1635.061
-11.619	31.835	1921.069	1633.873
-10.604	31.673	1920.332	1631.769
-9.590	31.819	1918.421	1631.350
-8.575	31.672	1917.494	1629.219
-7.560	31.784	1915.741	1628.643
-6.546	31.767	1914.676	1627.526
-5.531	31.765	1913.068	1626.070
-4.517	31.892	1911.469	1625.747
-3.502	31.739	1910.781	1623.775
-2.487	31.739	1910.072	1623.109
-1.473	31.747	1909.011	1622.209
-0.458	31.767	1903.959	1618.025
0.556	30.898	1883.891	1590.901
1.571	26.687	1865.701	1539.702
2.586	22.823	1887.717	1524.438
3.600	21.757	1923.410	1543.740
4.615	21.138	1917.956	1533.792
5.629	16.449	1817.623	1414.281
6.644	8.445	1701.887	1261.171
7.659	4.835	1666.855	1207.155
8.673	4.619	1663.836	1203.189
9.688	4.544	1662.477	1201.524
10.702	4.516	1661.360	1200.392
11.717	4.461	1658.017	1197.441
12.731	4.967	1657.242	1200.681
13.746	10.117	1669.489	1249.322
14.761	17.137	1684.557	1315.025
15.775	19.256	1686.820	1333.087
16.790	18.533	1683.975	1325.140
17.804	17.413	1680.192	1313.400
18.819	16.331	1677.393	1302.757
19.834	15.805	1674.593	1296.418
20.848	15.476	1673.318	1292.782
21.863	15.342	1671.496	1290.228
22.877	14.989	1670.833	1286.891
23.892	14.875	1668.855	1284.372
24.907	14.786	1667.598	1282.609
25.921	14.670	1666.610	1280.846
26.936	14.666	1665.662	1279.971
27.950	14.744	1664.825	1279.818
28.965	14.804	1664.447	1279.873
29.980	14.850	1663.707	1279.537
30.994	14.891	1662.415	1278.745
32.009	15.075	1661.530	1279.362
33.023	15.014	1660.650	1278.101
34.038	15.051	1659.624	1277.486
35.053	14.921	1658.657	1275.633
36.067	14.919	1657.313	1274.473
37.082	15.020	1655.607	1273.814
38.096	14.970	1655.280	1273.072
39.111	14.871	1654.554	1271.648
40.126	14.957	1654.098	1271.840
41.140	14.937	1652.633	1270.446
42.155	14.814	1650.924	1268.091
43.169	14.753	1649.555	1266.465
44.184	14.685	1648.613	1265.112
45.199	14.576	1647.775	1263.533
46.213	14.632	1646.676	1263.001
47.228	14.652	1644.983	1261.742
48.242	14.742	1644.324	1261.807
49.257	14.873	1642.970	1261.641
50.271	14.895	1641.835	1260.821
51.286	14.808	1640.509	1259.043
52.301	14.870	1639.400	1258.540
53.315	14.932	1637.580	1257.502
54.330	14.833	1636.520	1255.833
55.344	14.764	1634.724	1253.827
56.359	14.766	1633.063	1252.453
57.374	14.801	1632.160	1251.918
58.388	14.756	1631.236	1250.759
59.403	14.660	1629.955	1248.943
60.417	14.570	1628.304	1246.899
61.432	14.632	1627.201	1246.402
62.447	14.575	1626.420	1245.272
63.461	14.566	1625.206	1244.168
64.476	14.544	1623.850	1242.850
65.490	14.547	1622.312	1241.589
66.505	14.552	1621.513	1240.904
67.520	14.521	1621.144	1240.280
68.534	14.483	1619.871	1238.913
69.549	14.524	1618.919	1238.383
70.563	14.641	1617.273	1237.879
71.578	14.631	1616.383	1237.014
72.593	14.580	1614.891	1235.387
73.607	14.458	1614.325	1233.943
74.622	14.365	1613.308	1232.365
75.636	14.454	1611.832	1231.786
76.651	14.395	1611.721	1231.159
77.666	14.502	1610.322	1230.771
78.680	14.434	1609.394	1229.448
79.695	14.410	1608.552	1228.522
80.709	14.548	1607.499	1228.629
81.724	14.573	1607.452	1228.667
82.739	14.617	1605.951	1227.735
83.753	14.611	1605.566	1227.286
84.768	14.680	1604.634	1226.976
85.782	14.791	1603.797	1227.040
86.797	14.960	1603.044	1227.592
87.812	14.935	1602.396	1226.806
88.826	14.896	1600.424	1224.904
89.841	14.777	1599.862	1223.493
90.855	14.854	1598.462	1222.874
91.870	14.851	1597.162	1221.752
92.884	14.886	1596.606	1221.477
93.899	14.980	1595.229	1220.998
94.914	14.992	1594.563	1220.469
95.928	14.941	1593.257	1218.988
96.943	14.993	1591.723	1218.087
97.957	15.040	1590.367	1217.283
98.972	14.901	1589.019	1215.137
99.987	14.870	1587.600	1213.719
101.001	15.026	1585.192	1212.896
102.016	14.935	1584.033	1211.249
103.030	14.864	1583.077	1209.894
104.045	14.882	1581.782	1208.928
105.060	14.936	1579.992	1207.842
106.074	14.847	1579.340	1206.593
107.089	14.858	1577.617	1205.251
108.103	14.688	1575.956	1202.653
109.118	14.582	1575.032	1201.077
110.133	14.496	1573.646	1199.292
111.147	14.670	1571.439	1198.754
112.162	14.652	1570.513	1197.813
113.176	14.599	1569.158	1196.294
114.191	14.709	1567.509	1195.720
115.206	14.662	1566.684	1194.645
116.220	14.782	1565.063	1194.162
117.235	14.740	1563.905	1192.874
118.249	14.637	1563.006	1191.346
119.264	14.724	1561.480	1190.701
120.279	14.589	1560.174	1188.638
121.293	14.696	1558.046	1187.669
122.308	14.668	1557.097	1186.642
123.322	14.667	1555.189	1185.080
124.337	14.551	1553.817	1183.104
125.352	14.513	1552.960	1182.082
126.366	14.606	1551.738	1181.702
127.381	14.539	1550.551	1180.221
128.395	14.448	1549.975	1179.031
129.410	14.564	1548.383	1178.537
130.424	14.576	1547.218	1177.629
131.439	14.641	1545.478	1176.658
132.454	14.617	1544.543	1175.676
133.468	14.654	1543.050	1174.693
134.483	14.645	1541.729	1173.521
135.497	14.761	1540.253	1173.108
136.512	14.742	1538.816	1171.777
137.527	14.710	1537.759	1170.643
138.541	14.755	1536.360	1169.794
139.556	14.815	1534.694	1168.837
140.570	14.759	1533.334	1167.308
141.585	14.780	1532.405	1166.643
142.600	14.907	1531.273	1166.564
143.614	15.009	1530.307	1166.437
144.629	15.118	1528.851	1165.984
145.643	15.122	1527.940	1165.214
146.658	14.987	1526.724	1163.245
147.673	15.013	1525.071	1162.066
148.687	14.935	1523.564	1160.270
149.702	14.980	1522.152	1159.405
150.716	14.940	1520.230	1157.566
151.731	14.854	1519.369	1156.210
152.746	14.869	1518.066	1155.223
153.760	14.762	1516.858	1153.457
154.775	14.882	1515.330	1153.021
155.789	14.987	1514.350	1152.902
156.804	15.027	1512.879	1151.950
157.819	15.013	1511.638	1150.808
158.833	15.105	1510.566	1150.520
159.848	15.163	1509.332	1149.878
160.862	15.161	1508.380	1149.037
161.877	15.134	1507.274	1147.908
162.892	15.119	1506.036	1146.760
163.906	14.968	1504.661	1144.579
164.921	14.873	1503.419	1142.888
165.935	14.928	1502.477	1142.447
166.950	14.919	1501.403	1141.464
167.964	14.993	1500.227	1140.973
168.979	15.035	1499.648	1140.721
169.994	15.066	1498.204	1139.732
171.008	15.062	1497.689	1139.211
172.023	15.055	1496.499	1138.156
173.037	15.140	1494.981	1137.481
174.052	15.115	1494.441	1136.800
175.067	15.192	1493.207	1136.279
176.081	15.191	1491.889	1135.174
177.096	15.058	1490.207	1132.890
178.110	15.022	1489.481	1131.997
179.125	15.075	1487.983	1131.116
180.140	15.075	1487.232	1130.446
181.154	15.115	1485.995	1129.672
182.169	15.195	1485.114	1129.446
183.183	15.191	1483.526	1128.110
184.198	15.186	1483.037	1127.604
185.213	15.273	1481.473	1126.898
186.227	15.369	1480.424	1126.645
187.242	15.329	1479.603	1125.654
188.256	15.262	1478.581	1124.329
189.271	15.420	1477.086	1124.149
190.286	15.457	1476.280	1123.686
191.300	15.376	1475.314	1122.307
192.315	15.302	1473.459	1120.304
193.329	15.069	1472.153	1117.656
194.344	15.085	1471.295	1117.015
195.359	15.056	1470.218	1115.906
196.373	15.141	1469.566	1115.874
197.388	15.263	1468.143	1115.510
198.402	15.350	1467.504	1115.499
199.417	15.350	1466.558	1114.686
200.432	15.506	1465.755	1115.009
201.446	15.538	1464.633	1114.269
202.461	15.688	1463.268	1114.125
203.475	15.747	1462.342	1113.717
204.490	15.680	1461.794	1112.756
205.504	15.660	1460.566	1111.588
206.519	15.594	1459.481	1110.229
207.534	15.608	1457.745	1108.903
208.548	15.525	1456.822	1107.559
209.563	15.487	1456.039	1106.611
210.577	15.578	1454.868	1106.224
211.592	15.533	1453.930	1105.115
212.607	15.576	1453.246	1104.782
213.621	15.752	1452.735	1105.450
214.636	15.781	1452.039	1105.012
215.650	15.708	1450.385	1103.178
216.665	15.780	1449.524	1102.901
217.680	15.884	1449.117	1103.175
218.694	15.790	1448.200	1101.762
219.709	15.788	1447.538	1101.146
220.723	15.870	1446.500	1100.794
221.738	15.829	1445.629	1099.766
222.753	15.782	1444.988	1098.876
223.767	15.804	1444.074	1098.230
224.782	15.767	1442.812	1096.931
225.796	15.932	1441.536	1096.938
226.811	15.962	1441.323	1096.876
227.826	15.893	1441.059	1096.126
228.840	15.914	1439.596	1095.051
229.855	15.890	1438.292	1093.810
230.869	15.820	1437.391	1092.574
231.884	15.918	1436.145	1092.163
232.899	15.900	1435.456	1091.425
233.913	15.774	1433.850	1089.293
234.928	15.850	1432.668	1088.790
235.942	15.714	1431.750	1087.116
236.957	15.666	1430.676	1085.898
237.972	15.728	1429.109	1085.010
238.986	15.797	1428.316	1084.758
240.001	15.798	1427.521	1084.065
241.015	15.843	1426.449	1083.443
242.030	15.838	1425.023	1082.232
243.045	15.856	1424.535	1081.880
244.059	15.978	1423.356	1081.678
245.074	15.962	1422.832	1081.080
246.088	16.057	1421.711	1080.739
247.103	16.010	1421.398	1080.101
248.117	16.083	1420.763	1079.996
249.132	16.031	1419.546	1078.643
250.147	16.174	1419.187	1079.187
251.161	16.323	1418.518	1079.534
252.176	16.473	1417.716	1079.789
253.190	16.444	1416.935	1078.913
254.205	16.458	1416.374	1078.479
255.220	16.454	1415.568	1077.744
256.234	16.557	1414.944	1077.831
257.249	16.525	1414.041	1076.843
258.263	16.536	1412.681	1075.785
259.278	16.519	1411.992	1075.054
260.293	16.468	1411.209	1074.040
261.307	16.488	1410.443	1073.487
262.322	16.536	1409.643	1073.087
263.336	16.651	1408.858	1073.127
264.351	16.519	1407.921	1071.483
265.366	16.679	1407.083	1071.759
266.380	16.683	1405.874	1070.772
267.395	16.730	1405.050	1070.346
268.409	16.723	1404.039	1069.436
269.424	16.614	1402.981	1067.847
270.439	16.625	1401.758	1066.890
271.453	16.617	1400.994	1066.164
272.468	16.543	1400.348	1065.114
273.482	16.653	1399.483	1065.053
274.497	16.566	1398.660	1063.783
275.512	16.597	1397.480	1062.991
276.526	16.589	1396.950	1062.445
277.541	16.559	1395.837	1061.314
278.555	16.565	1394.881	1060.532
279.570	16.650	1394.285	1060.517
280.585	16.755	1393.334	1060.357
281.599	16.823	1392.277	1059.883
282.614	16.827	1391.731	1059.401
283.628	16.849	1390.331	1058.376
284.643	16.679	1389.707	1056.744
285.657	16.711	1388.223	1055.721
286.672	16.750	1387.332	1055.196
287.687	16.753	1386.718	1054.657
288.701	16.705	1385.752	1053.526
289.716	16.799	1384.576	1053.126
290.730	16.896	1384.146	1053.308
291.745	16.798	1383.387	1052.025
292.760	16.811	1382.441	1051.298
293.774	16.858	1381.250	1050.589
294.789	16.916	1380.136	1050.011
295.803	17.034	1379.343	1050.040
296.818	17.000	1379.238	1049.656
297.833	16.978	1377.586	1048.172
298.847	16.860	1376.461	1046.496
299.862	16.856	1375.539	1045.677
300.876	16.965	1374.374	1045.368
301.891	16.947	1374.012	1044.893
302.906	16.958	1373.229	1044.275
303.920	17.054	1372.681	1044.352
304.935	16.950	1372.279	1043.318
305.949	17.183	1371.177	1043.817
306.964	17.134	1370.737	1043.088
307.979	17.248	1369.252	1042.565
308.993	17.221	1368.233	1041.531
310.008	17.176	1367.457	1040.575
311.022	17.092	1366.548	1039.278
312.037	17.176	1365.517	1038.912
313.052	17.291	1364.621	1038.846
314.066	17.236	1363.367	1037.463
315.081	17.231	1362.470	1036.657
316.095	17.116	1361.254	1034.937
317.110	17.061	1360.361	1033.832
318.125	17.050	1359.278	1032.848
319.139	17.069	1358.386	1032.199
320.154	17.125	1357.429	1031.719
321.168	17.137	1356.154	1030.735
322.183	17.022	1355.754	1029.640
323.197	17.142	1354.830	1029.573
324.212	17.160	1353.762	1028.782
325.227	17.218	1352.951	1028.424
326.241	17.197	1352.280	1027.694
327.256	17.286	1351.244	1027.357
328.270	17.196	1349.892	1025.694
329.285	17.204	1349.445	1025.312
330.300	17.148	1348.712	1024.323
331.314	17.215	1347.839	1023.978
332.329	17.206	1347.117	1023.284
333.343	17.299	1345.860	1022.793
334.358	17.135	1345.424	1021.386
335.373	17.273	1344.708	1021.583
336.387	17.388	1343.414	1021.198
337.402	17.381	1342.566	1020.426
338.416	17.453	1342.133	1020.439
339.431	17.385	1341.721	1019.626
340.446	17.486	1340.698	1019.359
341.460	17.487	1339.879	1018.654
342.475	17.617	1338.924	1018.614
343.489	17.570	1338.508	1017.926
344.504	17.670	1337.180	1017.426
345.519	17.811	1335.807	1017.132
346.533	17.767	1335.069	1016.217
347.548	17.762	1334.697	1015.817
348.562	17.794	1333.889	1015.299
349.577	17.754	1333.217	1014.463
350.592	17.741	1332.645	1013.858
351.606	17.764	1330.757	1012.468
352.621	17.625	1329.842	1010.858
353.635	17.650	1328.690	1010.044
354.650	17.536	1328.287	1008.973
355.665	17.491	1327.750	1008.208
356.679	17.656	1325.902	1007.691
357.694	17.702	1324.859	1007.078
358.708	17.637	1324.306	1006.187
359.723	17.719	1323.438	1005.924
360.738	17.712	1322.114	1004.785
361.752	17.758	1321.153	1004.234
362.767	17.823	1319.861	1003.549
363.781	17.749	1319.235	1002.548
364.796	17.806	1318.561	1002.283
365.810	17.883	1317.612	1001.924
366.825	17.894	1317.089	1001.505
367.840	18.070	1316.050	1001.657
368.854	18.123	1315.465	1001.435
369.869	18.146	1315.133	1001.224
370.883	18.247	1314.086	1000.930
371.898	18.032	1314.023	999.534
372.913	18.143	1312.397	998.862
373.927	17.988	1312.121	997.655
374.942	18.033	1311.372	997.261
375.956	18.081	1310.177	996.545
376.971	18.121	1309.653	996.291
377.986	18.023	1308.679	994.892
379.000	18.091	1307.957	994.650
380.015	18.234	1306.963	994.637
381.029	18.277	1306.322	994.309
382.044	18.173	1306.017	993.386
383.059	18.236	1305.227	993.062
384.073	18.219	1304.479	992.307
385.088	18.389	1303.879	992.749
386.102	18.348	1303.144	991.861
387.117	18.386	1301.944	991.081
388.132	18.295	1301.427	990.076
389.146	18.251	1300.629	989.127
390.161	18.238	1299.677	988.240
391.175	18.178	1298.682	987.049
392.190	18.159	1298.218	986.501
393.205	18.297	1297.598	986.737
394.219	18.334	1296.425	985.968
395.234	18.510	1294.974	985.791
396.248	18.385	1293.900	984.170
397.263	18.295	1292.466	982.476
398.278	18.356	1291.165	981.746
399.292	18.190	1289.816	979.688
400.307	18.219	1289.025	979.162
401.321	18.284	1288.138	978.776
402.336	18.260	1287.157	977.806
403.350	18.346	1285.862	977.229
404.365	18.279	1284.715	975.886
405.380	18.165	1284.575	975.046
406.394	18.347	1283.396	975.098
407.409	18.448	1282.360	974.799
408.423	18.444	1282.178	974.555
409.438	18.425	1281.781	974.057
410.453	18.627	1280.836	974.399
411.467	18.569	1280.270	973.557
412.482	18.727	1279.447	973.739
413.496	18.614	1279.098	972.747
414.511	18.624	1278.167	972.010
415.526	18.680	1277.814	971.973
416.540	18.727	1277.032	971.555
417.555	18.844	1275.745	971.150
418.569	18.798	1275.579	970.681
419.584	18.783	1274.904	969.996
420.599	18.754	1274.332	969.310
421.613	140.248	1431.737	1794.641
422.628	134.909	1454.615	1794.745
