DTS Sentinel unit serial number:	SN413079Multiplexer serial number:	ORYXHardware model number:	OX4-SRSoftware version number:	ORYX F/W v4.00 Oryx Data Collector v3.7.2.0data status	okinstallation	princeton_trtdifferential loss correction	single-endedforward channel	channel 4reverse channel	N/Adate	2019/09/15time	07:41:35forward acquisition time	60.00reverse acquisition time	0.00gamma	496.2192k internal	0.2311k external	0.2311temperature offset calibration	1.0037default loss term (dB/km)	0.3790temperature slope calibration	1.0000multiplexer offset coefficient	1.0000multiplexer slope coefficient	1.0000fibre end	0.00T internal ref (°C)	30.62T ext. ref 1 (°C)	4.98T ext. ref 2 (°C)	25.63length (m)	temperature (°C)	Stokes	anti-Stokes-747.200	-59.765	0.193	0.084
-746.185	279.289	-0.180	0.326
-745.171	68.666	0.136	0.141
-744.156	367.033	0.023	0.047
-743.142	768.295	-0.056	0.155
-742.127	189.307	-0.066	0.100
-741.112	77.208	0.180	0.195
-740.098	800.000	-0.070	0.306
-739.083	-200.000	0.445	0.001
-738.069	198.734	0.061	0.094
-737.054	-200.000	0.005	-0.276
-736.039	-161.223	-0.318	0.017
-735.025	800.000	-0.062	0.200
-734.010	737.746	-0.091	-0.249
-732.996	800.000	-0.057	-0.213
-731.981	-190.627	0.270	-0.003
-730.966	114.041	0.117	0.145
-729.952	-38.139	-0.105	0.057
-728.937	-200.000	0.017	-0.395
-727.923	-200.000	0.035	0.196
-726.908	95.941	-0.155	-0.179
-725.894	153.825	-0.078	-0.109
-724.879	-191.479	-0.158	0.002
-723.864	420.078	-0.068	-0.148
-722.850	244.607	-0.176	-0.300
-721.835	-200.000	-0.012	-0.292
-720.821	-118.001	-0.228	-0.041
-719.806	156.014	-0.121	0.170
-718.791	-13.473	-0.183	-0.120
-717.777	195.428	0.145	-0.223
-716.762	88.590	0.005	0.005
-715.748	281.520	0.170	-0.309
-714.733	-71.620	0.054	-0.020
-713.718	-37.461	-0.242	0.131
-712.704	64.539	0.149	0.152
-711.689	20.489	-0.134	-0.110
-710.675	800.000	-0.049	-0.200
-709.660	7.587	-0.408	-0.310
-708.645	221.493	0.164	-0.267
-707.631	-115.388	0.341	0.065
-706.616	800.000	-0.114	-0.363
-705.602	800.000	-0.129	-0.428
-704.587	-200.000	-0.017	0.201
-703.572	-192.072	-0.291	0.003
-702.558	67.364	-0.216	-0.224
-701.543	-25.321	0.290	0.174
-700.529	152.695	-0.108	-0.149
-699.514	3.012	0.257	-0.190
-698.499	-105.448	-0.294	-0.068
-697.485	22.865	-0.250	-0.207
-696.470	381.628	-0.029	-0.059
-695.456	641.051	0.117	-0.303
-694.441	-95.728	-0.194	-0.053
-693.426	800.000	-0.094	0.304
-692.412	196.904	-0.163	-0.252
-691.397	-200.000	0.063	-0.315
-690.383	643.230	0.065	-0.168
-689.368	-122.154	-0.327	0.054
-688.354	146.889	-0.156	-0.212
-687.339	146.871	0.099	0.135
-686.324	550.853	-0.215	-0.523
-685.310	-24.713	-0.264	-0.159
-684.295	40.406	0.104	0.095
-683.281	144.403	-0.227	-0.307
-682.266	267.693	-0.049	0.088
-681.251	102.646	0.067	-0.080
-680.237	-159.306	0.418	-0.024
-679.222	-200.000	-0.022	0.108
-678.208	97.745	-0.062	-0.072
-677.193	9.194	-0.255	-0.195
-676.178	-122.477	0.126	-0.021
-675.164	-107.602	-0.354	0.078
-674.149	800.000	0.116	0.341
-673.135	265.017	0.199	0.352
-672.120	40.329	0.176	-0.160
-671.105	-137.479	-0.076	-0.009
-670.091	800.000	0.054	0.169
-669.076	-76.757	-0.393	0.139
-668.062	-126.257	-0.113	0.017
-667.047	-139.125	-0.101	-0.011
-666.032	-124.867	-0.055	-0.009
-665.018	-127.015	-0.120	-0.018
-664.003	-200.000	-0.004	-0.119
-662.989	-30.708	-0.152	-0.087
-661.974	-17.887	-0.155	-0.098
-660.959	325.305	0.133	0.258
-659.945	319.727	-0.144	0.276
-658.930	110.049	0.046	-0.056
-657.916	370.514	0.104	0.212
-656.901	392.096	-0.121	0.254
-655.886	-68.085	-0.051	-0.020
-654.872	-107.659	-0.192	-0.042
-653.857	-200.000	-0.025	-0.375
-652.843	-36.904	-0.136	0.074
-651.828	148.720	-0.079	-0.109
-650.814	-61.272	0.112	0.048
-649.799	-123.410	0.144	-0.023
-648.784	800.000	-0.060	-0.253
-647.770	-144.630	0.051	0.005
-646.755	56.649	0.137	0.135
-645.741	-200.000	0.032	0.330
-644.726	-89.686	-0.124	-0.037
-643.711	327.663	-0.076	0.147
-642.697	800.000	-0.049	-0.165
-641.682	800.000	0.096	-0.326
-640.668	-200.000	-0.023	-0.217
-639.653	-200.000	-0.019	-0.211
-638.638	-187.581	0.109	-0.001
-637.624	-70.724	-0.320	-0.122
-636.609	-200.000	-0.041	-0.263
-635.595	28.718	0.020	0.017
-634.580	71.376	-0.168	-0.176
-633.565	-200.000	-0.038	-0.185
-632.551	800.000	-0.158	-0.485
-631.536	-6.917	-0.368	-0.253
-630.522	139.445	-0.151	0.201
-629.507	199.620	0.131	0.203
-628.492	-1.174	-0.127	-0.091
-627.478	674.889	-0.088	-0.231
-626.463	-185.160	-0.272	-0.004
-625.449	800.000	0.116	0.396
-624.434	-98.090	-0.325	0.085
-623.419	28.824	-0.071	-0.061
-622.405	-99.993	0.104	0.026
-621.390	-200.000	-0.004	-0.225
-620.376	-200.000	-0.075	-0.424
-619.361	-3.720	-0.267	-0.187
-618.346	-200.000	0.010	-0.162
-617.332	-167.751	0.185	0.007
-616.317	264.389	-0.030	-0.053
-615.303	800.000	0.024	-0.067
-614.288	-67.631	-0.106	-0.042
-613.273	800.000	0.035	0.118
-612.259	-92.944	0.302	-0.085
-611.244	80.538	0.211	0.229
-610.230	-200.000	0.060	0.511
-609.215	-77.247	0.330	0.116
-608.201	-23.906	0.255	-0.154
-607.186	115.943	0.137	0.169
-606.171	83.515	0.255	-0.281
-605.157	580.766	-0.064	-0.158
-604.142	800.000	0.102	0.357
-603.128	-39.479	-0.238	0.126
-602.113	-146.580	0.178	0.016
-601.098	-200.000	0.014	-0.081
-600.084	495.708	0.011	0.025
-599.069	-108.275	-0.125	-0.027
-598.055	-63.429	-0.155	-0.064
-597.040	-50.567	-0.100	0.048
-596.025	-71.173	0.151	0.057
-595.011	151.850	0.109	0.150
-593.996	-16.692	-0.184	0.117
-592.982	-62.024	-0.378	0.159
-591.967	800.000	0.094	0.284
-590.952	102.764	-0.219	0.259
-589.938	34.728	0.136	-0.120
-588.923	-31.110	0.090	-0.051
-587.909	-166.763	0.104	0.004
-586.894	23.572	0.116	0.096
-585.879	472.341	-0.031	0.071
-584.865	-20.952	-0.181	0.112
-583.850	-103.678	0.113	0.027
-582.836	800.000	-0.062	0.232
-581.821	800.000	0.044	-0.186
-580.806	-200.000	-0.039	-0.200
-579.792	-15.930	-0.375	0.241
-578.777	233.931	0.052	0.087
-577.763	800.000	0.031	-0.097
-576.748	657.881	-0.117	-0.304
-575.733	2.310	0.079	0.057
-574.719	-71.339	0.387	-0.146
-573.704	62.094	0.114	0.115
-572.690	-170.610	-0.021	0.001
-571.675	198.383	0.112	0.172
-570.661	460.600	-0.078	-0.175
-569.646	-200.000	-0.049	-0.235
-568.631	800.000	0.125	0.368
-567.617	-36.769	-0.142	-0.077
-566.602	800.000	-0.081	-0.270
-565.588	-200.000	-0.074	-0.406
-564.573	-200.000	0.060	-0.305
-563.558	-29.266	0.286	-0.165
-562.544	287.618	0.109	0.199
-561.529	-58.744	0.439	0.192
-560.515	-78.783	0.216	-0.074
-559.500	128.508	-0.023	-0.030
-558.485	590.749	-0.088	-0.219
-557.471	-115.619	0.140	0.027
-556.456	29.558	-0.124	-0.106
-555.442	-55.840	0.071	-0.032
-554.427	800.000	-0.052	0.194
-553.412	-168.537	0.340	0.013
-552.398	127.224	0.013	-0.017
-551.383	800.000	0.050	0.177
-550.369	-68.321	0.073	-0.028
-549.354	58.097	-0.159	0.157
-548.339	147.268	-0.256	-0.347
-547.325	800.000	-0.105	0.308
-546.310	-70.671	0.250	-0.095
-545.296	206.635	-0.102	-0.160
-544.281	-200.000	-0.030	0.177
-543.266	17.827	-0.157	-0.126
-542.252	69.672	0.366	-0.380
-541.237	207.450	0.092	0.145
-540.223	-38.637	-0.186	-0.099
-539.208	100.815	0.016	-0.018
-538.193	-6.124	-0.048	-0.033
-537.179	-200.000	0.060	-0.379
-536.164	611.554	0.065	-0.163
-535.150	-45.687	-0.385	-0.191
-534.135	-200.000	-0.019	-0.091
-533.121	-132.677	-0.194	-0.025
-532.106	-176.299	-0.283	-0.007
-531.091	-200.000	-0.074	0.400
-530.077	-174.285	-0.341	-0.010
-529.062	-78.418	-0.196	0.067
-528.048	-82.906	-0.397	-0.129
-527.033	-47.182	-0.126	0.062
-526.018	342.324	-0.051	-0.100
-525.004	294.219	-0.036	-0.067
-523.989	-200.000	-0.020	-0.172
-522.975	-69.881	-0.145	0.056
-521.960	181.093	-0.207	-0.307
-520.945	-16.913	0.215	-0.137
-519.931	-18.155	0.380	0.239
-518.916	-26.299	-0.279	0.165
-517.902	37.442	-0.007	0.007
-516.887	143.541	0.127	0.170
-515.872	-2.860	-0.307	-0.216
-514.858	800.000	0.034	0.141
-513.843	-169.853	-0.410	0.015
-512.829	76.979	0.133	0.142
-511.814	800.000	0.058	-0.195
-510.799	-186.092	-0.434	0.006
-509.785	11.742	0.209	0.161
-508.770	-56.390	0.203	0.091
-507.756	800.000	-0.124	-0.446
-506.741	-145.598	0.226	0.020
-505.726	129.006	0.020	-0.026
-504.712	36.069	-0.117	-0.104
-503.697	207.643	-0.125	0.196
-502.683	136.673	0.045	-0.059
-501.668	800.000	0.035	0.155
-500.653	282.159	0.001	-0.002
-499.639	-200.000	0.010	0.179
-498.624	-200.000	0.002	0.075
-497.610	-139.755	-0.274	-0.029
-496.595	505.513	-0.145	-0.337
-495.581	-200.000	-0.008	0.186
-494.566	142.116	-0.226	-0.301
-493.551	-200.000	0.025	0.190
-492.537	-200.000	-0.018	-0.099
-491.522	-25.527	-0.115	-0.068
-490.508	128.533	-0.077	-0.099
-489.493	800.000	-0.044	0.178
-488.478	33.737	-0.225	-0.197
-487.464	11.154	0.206	0.158
-486.449	26.758	0.314	0.264
-485.435	-67.770	-0.103	-0.040
-484.420	467.691	-0.182	0.411
-483.405	-97.652	0.123	0.032
-482.391	-200.000	0.007	-0.058
-481.376	-120.247	0.169	-0.029
-480.362	240.414	0.096	-0.160
-479.347	-57.458	-0.249	0.110
-478.332	-55.109	0.165	0.075
-477.318	-35.979	0.152	-0.082
-476.303	90.694	0.147	-0.165
-475.289	99.663	0.231	0.269
-474.274	240.688	-0.161	-0.270
-473.259	202.585	0.045	-0.070
-472.245	8.147	-0.141	-0.106
-471.230	800.000	-0.084	-0.326
-470.216	-200.000	0.043	0.256
-469.201	53.155	-0.161	0.154
-468.186	146.665	0.075	-0.101
-467.172	390.546	0.129	0.268
-466.157	-152.756	-0.390	-0.028
-465.143	739.779	0.127	-0.342
-464.128	70.815	0.147	0.153
-463.113	58.890	-0.166	0.164
-462.099	717.188	-0.096	-0.255
-461.084	61.431	0.074	0.074
-460.070	-94.088	0.304	0.084
-459.055	-21.071	-0.018	-0.011
-458.040	-141.708	0.218	0.022
-457.026	17.948	0.228	0.182
-456.011	-200.000	-0.015	0.118
-454.997	-147.200	-0.324	-0.028
-453.982	201.411	0.021	0.032
-452.968	-12.514	-0.027	-0.018
-451.953	196.586	-0.097	-0.148
-450.938	-51.588	0.048	-0.022
-449.924	-200.000	0.040	-0.200
-448.909	-51.933	0.389	0.181
-447.895	-102.475	-0.105	-0.025
-446.880	-178.835	0.259	0.006
-445.865	225.699	0.060	0.098
-444.851	-56.237	0.194	-0.086
-443.836	400.264	0.113	0.239
-442.822	-51.537	0.267	0.125
-441.807	83.305	-0.010	0.010
-440.792	49.711	0.089	0.084
-439.778	111.279	0.328	-0.396
-438.763	-120.914	-0.340	-0.057
-437.749	-63.262	0.321	-0.133
-436.734	384.420	-0.097	0.199
-435.719	-200.000	0.016	0.115
-434.705	-42.156	-0.075	-0.038
-433.690	-56.129	-0.191	-0.085
-432.676	108.918	0.155	0.186
-431.661	-200.000	-0.005	0.100
-430.646	-200.000	-0.038	0.266
-429.632	90.991	0.096	0.107
-428.617	-200.000	0.027	-0.216
-427.603	-24.817	-0.269	-0.160
-426.588	730.764	-0.117	0.313
-425.573	-83.369	0.449	0.144
-424.559	-200.000	-0.034	0.162
-423.544	680.800	0.063	0.164
-422.530	-139.719	0.163	0.017
-421.515	-25.920	-0.042	0.025
-420.500	190.600	-0.208	-0.314
-419.486	116.303	-0.095	0.116
-418.471	-38.590	0.111	0.059
-417.457	24.973	-0.026	0.021
-416.442	484.169	0.138	0.315
-415.428	84.868	-0.094	0.103
-414.413	216.676	0.070	-0.111
-413.398	-77.183	-0.086	0.030
-412.384	234.408	-0.296	-0.488
-411.369	-200.000	0.018	-0.156
-410.355	-108.697	0.192	-0.041
-409.340	800.000	-0.105	0.322
-408.325	496.214	0.045	0.104
-407.311	-200.000	0.008	-0.161
-406.296	468.345	-0.077	-0.174
-405.282	37.164	0.177	-0.157
-404.267	-96.583	-0.171	0.045
-403.252	-154.782	-0.409	-0.027
-402.238	210.018	-0.082	-0.129
-401.223	22.558	-0.120	-0.099
-400.209	18.320	-0.358	0.286
-399.194	33.292	0.298	-0.259
-398.179	-161.754	-0.337	-0.017
-397.165	-181.319	0.114	0.002
-396.150	-50.160	0.106	0.050
-395.136	800.000	-0.019	0.060
-394.121	613.223	0.079	0.199
-393.106	-145.196	-0.205	-0.019
-392.092	800.000	-0.021	-0.060
-391.077	-96.003	0.236	0.063
-390.063	77.858	-0.169	0.181
-389.048	5.658	0.158	-0.117
-388.033	-32.106	0.097	0.054
-387.019	72.911	0.060	0.062
-386.004	183.906	0.045	0.066
-384.990	-61.840	0.059	-0.025
-383.975	-120.627	-0.175	0.030
-382.960	23.421	-0.234	-0.193
-381.946	63.464	0.227	-0.228
-380.931	800.000	-0.063	-0.259
-379.917	15.994	0.195	-0.154
-378.902	800.000	-0.028	0.087
-377.888	63.404	0.243	0.244
-376.873	-88.480	0.130	-0.039
-375.858	-81.709	0.264	0.087
-374.844	318.231	-0.125	0.238
-373.829	-69.382	-0.159	0.061
-372.815	51.025	-0.176	0.167
-371.800	-16.559	-0.349	0.221
-370.785	3.699	-0.096	-0.070
-369.771	732.582	0.049	-0.132
-368.756	-200.000	0.001	-0.107
-367.742	16.960	-0.112	0.089
-366.727	148.325	-0.173	-0.233
-365.712	49.302	-0.173	0.163
-364.698	-200.000	-0.023	-0.231
-363.683	800.000	-0.040	0.156
-362.669	232.064	-0.295	0.484
-361.654	103.067	-0.409	0.479
-360.639	-7.191	-0.176	-0.119
-359.625	-200.000	0.003	0.251
-358.610	-200.000	-0.021	0.247
-357.596	93.430	0.201	0.227
-356.581	800.000	0.059	0.225
-355.566	17.073	-0.157	-0.125
-354.552	515.254	-0.151	0.353
-353.537	-194.796	0.093	0.001
-352.523	-200.000	-0.017	0.084
-351.508	-200.000	-0.043	-0.221
-350.493	-137.723	-0.350	0.039
-349.479	-200.000	-0.053	-0.317
-348.464	-50.407	-0.340	-0.161
-347.450	328.111	0.090	-0.173
-346.435	334.681	-0.250	0.484
-345.420	800.000	0.147	-0.438
-344.406	34.886	0.032	-0.028
-343.391	-153.090	0.268	-0.019
-342.377	2.819	0.074	0.054
-341.362	111.323	-0.111	-0.133
-340.348	-200.000	0.011	-0.163
-339.333	800.000	0.002	0.008
-338.318	46.747	0.111	-0.103
-337.304	-85.290	-0.200	0.063
-336.289	11.315	0.156	0.119
-335.275	21.223	-0.087	0.071
-334.260	370.435	-0.280	0.567
-333.245	76.337	0.125	0.132
-332.231	145.981	-0.137	0.183
-331.216	800.000	-0.072	0.295
-330.202	-200.000	0.030	0.369
-329.187	-65.813	-0.191	-0.076
-328.172	-163.795	0.072	-0.003
-327.158	-200.000	0.071	-0.322
-326.143	-45.456	0.155	0.077
-325.129	364.127	-0.194	0.390
-324.114	-200.000	0.002	0.042
-323.099	-54.589	-0.342	-0.154
-322.085	370.742	-0.089	0.180
-321.070	-79.742	0.393	-0.132
-320.056	733.237	-0.044	0.118
-319.041	-200.000	-0.001	0.206
-318.026	-200.000	-0.005	-0.268
-317.012	116.961	0.084	-0.102
-315.997	55.372	0.117	-0.113
-314.983	-82.861	-0.117	-0.038
-313.968	158.614	0.239	-0.331
-312.953	800.000	0.037	0.119
-311.939	-74.397	0.029	0.010
-310.924	-200.000	0.005	0.245
-309.910	354.669	0.025	-0.050
-308.895	223.874	0.120	-0.193
-307.880	311.960	0.082	0.153
-306.866	-117.984	-0.227	-0.040
-305.851	19.674	0.143	-0.115
-304.837	800.000	0.016	0.069
-303.822	-200.000	-0.020	0.318
-302.807	347.873	0.085	-0.167
-301.793	-37.535	-0.183	0.097
-300.778	124.433	0.355	-0.445
-299.764	-106.484	-0.121	0.027
-298.749	800.000	0.145	-0.418
-297.735	-109.837	0.028	0.006
-296.720	-94.265	-0.088	-0.024
-295.705	-200.000	-0.080	0.438
-294.691	14.444	-0.178	0.139
-293.676	570.467	0.034	-0.082
-292.662	149.775	-0.038	-0.051
-291.647	455.322	-0.120	-0.264
-290.632	-29.424	-0.167	-0.095
-289.618	-47.748	0.056	0.027
-288.603	-118.635	0.134	-0.024
-287.589	350.986	0.145	0.287
-286.574	-62.641	0.448	0.185
-285.559	-174.425	0.227	-0.006
-284.545	-173.712	0.358	0.011
-283.530	263.828	0.159	-0.276
-282.516	-200.000	0.039	0.173
-281.501	7.405	0.262	-0.195
-280.486	67.690	-0.086	-0.088
-279.472	334.724	0.070	-0.136
-278.457	348.892	-0.169	-0.332
-277.443	38.222	-0.228	-0.203
-276.428	-170.496	0.204	0.007
-275.413	-89.918	0.167	0.048
-274.399	495.094	-0.112	0.257
-273.384	-200.000	0.001	0.055
-272.370	96.913	0.174	-0.199
-271.355	-200.000	-0.012	-0.092
-270.340	-200.000	0.065	-0.408
-269.326	-62.349	-0.085	0.035
-268.311	114.174	0.051	-0.061
-267.297	-73.811	-0.163	0.059
-266.282	-27.354	0.139	-0.081
-265.267	155.816	0.058	0.079
-264.253	94.170	-0.103	0.116
-263.238	-3.542	-0.378	0.262
-262.224	800.000	0.072	-0.239
-261.209	-200.000	-0.001	-0.013
-260.195	62.215	0.338	0.336
-259.180	-49.783	-0.200	0.094
-258.165	-120.489	0.399	-0.067
-257.151	468.067	0.020	0.045
-256.136	-109.794	0.118	0.025
-255.122	36.314	-0.026	-0.023
-254.107	98.979	-0.186	0.214
-253.092	-158.372	-0.262	0.015
-252.078	63.551	0.236	0.236
-251.063	800.000	0.106	0.299
-250.049	249.673	0.171	-0.289
-249.034	175.903	0.071	0.103
-248.019	800.000	0.028	-0.101
-247.005	44.796	-0.154	0.141
-245.990	179.584	-0.139	0.203
-244.976	-14.397	0.277	-0.178
-243.961	-200.000	-0.221	-0.001
-242.946	-14.912	0.522	-0.333
-241.932	-88.986	0.261	0.077
-240.917	-200.000	-0.060	-0.310
-239.903	-200.000	-0.027	-0.134
-238.888	710.407	0.094	0.248
-237.873	-200.000	-0.013	0.100
-236.859	-64.270	0.261	0.106
-235.844	483.619	-0.104	0.236
-234.830	-136.968	0.161	0.018
-233.815	0.373	-0.181	-0.129
-232.800	-26.061	-0.358	-0.209
-231.786	-56.920	-0.228	0.100
-230.771	6.292	-0.233	-0.172
-229.757	-90.968	0.080	-0.023
-228.742	-58.683	0.222	-0.096
-227.727	760.370	0.050	-0.135
-226.713	-38.917	-0.173	0.091
-225.698	-161.921	0.218	-0.011
-224.684	27.526	-0.106	0.089
-223.669	100.050	0.097	-0.112
-222.655	-200.000	-0.003	0.015
-221.640	800.000	0.024	-0.078
-220.625	159.439	0.085	-0.118
-219.611	-30.953	0.247	-0.139
-218.596	-124.007	-0.167	0.026
-217.582	-147.647	0.295	-0.025
-216.567	-200.000	-0.043	-0.197
-215.552	800.000	-0.106	0.413
-214.538	800.000	0.045	-0.138
-213.523	-59.956	-0.157	-0.067
-212.509	-94.228	-0.173	-0.047
-211.494	60.706	0.151	0.149
-210.479	-200.000	0.001	-0.062
-209.465	279.129	-0.099	-0.176
-208.450	-7.851	0.179	-0.120
-207.436	-107.985	-0.106	0.023
-206.421	-200.000	0.396	0.002
-205.406	-124.659	0.197	0.030
-204.392	181.457	0.044	-0.065
-203.377	-90.649	0.108	-0.031
-202.363	524.960	-0.113	-0.264
-201.348	-84.214	0.179	-0.056
-200.333	196.881	-0.072	0.109
-199.319	176.084	-0.119	0.172
-198.304	-119.050	-0.145	0.025
-197.290	-200.000	-0.006	0.093
-196.275	-81.230	0.219	0.072
-195.260	-86.238	0.234	0.072
-194.246	65.152	0.119	0.120
-193.231	-91.587	-0.195	0.055
-192.217	187.276	-0.032	-0.048
-191.202	503.433	-0.027	-0.062
-190.187	693.305	-0.067	0.175
-189.173	800.000	0.123	0.347
-188.158	-200.000	-0.007	0.114
-187.144	-200.000	0.031	0.183
-186.129	443.289	-0.141	0.307
-185.114	-126.138	0.205	-0.031
-184.100	-65.388	0.405	-0.162
-183.085	800.000	-0.208	-0.572
-182.071	111.981	-0.139	0.166
-181.056	88.856	-0.029	0.032
-180.042	219.301	0.060	0.096
-179.027	113.074	-0.181	-0.218
-178.012	800.000	0.044	0.132
-176.998	-200.000	-0.013	0.224
-175.983	800.000	-0.055	-0.233
-174.969	-185.654	-0.207	0.003
-173.954	149.165	-0.043	-0.057
-172.939	272.988	0.072	-0.126
-171.925	-84.993	0.063	-0.020
-170.910	7.789	0.189	-0.141
-169.896	-200.000	-0.005	-0.064
-168.881	6.962	-0.127	0.094
-167.866	10.531	0.294	0.223
-166.852	190.885	0.195	0.292
-165.837	189.544	-0.057	0.085
-164.823	-200.000	-0.045	-0.388
-163.808	-38.485	-0.127	-0.067
-162.793	53.628	0.021	0.020
-161.779	800.000	0.064	-0.272
-160.764	-32.900	-0.144	0.079
-159.750	-91.618	0.159	-0.045
-158.735	-200.000	-0.012	0.282
-157.720	-14.874	-0.023	0.015
-156.706	-55.219	-0.085	-0.038
-155.691	163.388	0.139	-0.193
-154.677	-200.000	0.010	0.215
-153.662	-11.508	0.287	0.187
-152.647	-67.102	-0.291	-0.114
-151.633	-163.097	0.109	0.005
-150.618	209.474	0.055	-0.085
-149.604	-44.162	-0.093	0.046
-148.589	-129.816	0.138	0.019
-147.574	-18.928	-0.191	0.118
-146.560	69.064	-0.074	0.075
-145.545	-200.000	-0.020	-0.099
-144.531	-35.575	-0.059	0.032
-143.516	-28.404	-0.208	0.119
-142.502	-137.632	-0.247	0.028
-141.487	800.000	-0.086	-0.256
-140.472	-200.000	0.066	-0.336
-139.458	250.306	0.066	-0.112
-138.443	160.592	-0.072	0.100
-137.429	-81.661	0.089	-0.029
-136.414	117.092	0.172	0.210
-135.399	69.952	-0.157	0.160
-134.385	28.994	-0.211	0.178
-133.370	310.845	0.164	0.305
-132.356	-192.466	-0.210	-0.002
-131.341	-48.156	0.216	0.103
-130.326	-75.624	0.105	0.037
-129.312	-200.000	-0.002	-0.166
-128.297	91.943	0.233	-0.260
-127.283	5.984	-0.206	-0.151
-126.268	-200.000	-0.023	0.235
-125.253	440.136	0.139	0.300
-124.239	800.000	0.009	-0.024
-123.224	19.845	0.169	0.135
-122.210	177.045	-0.080	-0.115
-121.195	-57.882	0.151	-0.065
-120.180	-104.313	-0.252	0.058
-119.166	217.363	-0.175	-0.276
-118.151	671.530	-0.067	0.171
-117.137	-200.000	0.009	0.053
-116.122	5.823	-0.390	0.286
-115.107	-104.134	0.273	-0.063
-114.093	-200.000	-0.019	-0.299
-113.078	35.857	0.098	-0.085
-112.064	-64.992	0.350	0.140
-111.049	800.000	-0.060	-0.170
-110.034	98.930	-0.246	0.281
-109.020	-113.307	-0.094	-0.018
-108.005	-20.533	0.112	0.068
-106.991	-37.940	0.149	0.078
-105.976	-97.573	-0.208	0.053
-104.962	1.488	0.268	0.191
-103.947	596.658	-0.068	-0.168
-102.932	-69.020	-0.057	-0.022
-101.918	-200.000	0.013	0.132
-100.903	-68.991	-0.259	-0.099
-99.889	-196.418	0.091	-0.001
-98.874	-49.015	-0.221	0.105
-97.859	-45.495	0.313	-0.153
-96.845	-20.584	-0.150	-0.091
-95.830	-200.000	-0.067	0.322
-94.816	-200.000	-0.035	-0.165
-93.801	800.000	-0.051	0.201
-92.786	800.000	-0.088	-0.258
-91.772	-131.806	0.369	-0.048
-90.757	800.000	0.054	-0.177
-89.743	-89.459	-0.512	-0.149
-88.728	-87.605	-0.264	0.079
-87.713	0.604	0.106	0.075
-86.699	53.841	0.241	0.229
-85.684	-23.607	-0.234	0.139
-84.670	-24.893	-0.232	0.136
-83.655	6.760	-0.106	-0.078
-82.640	166.056	-0.109	-0.153
-81.626	-200.000	-0.009	-0.146
-80.611	-3.436	0.113	0.078
-79.597	-51.505	0.310	0.143
-78.582	-32.771	0.149	0.082
-77.567	-109.554	0.316	-0.066
-76.553	353.782	0.130	-0.255
-75.538	-92.441	-0.186	0.052
-74.524	-107.067	-0.176	-0.038
-73.509	-112.374	0.353	0.070
-72.494	112.139	-0.132	0.158
-71.480	369.232	-0.172	0.345
-70.465	615.124	0.175	0.433
-69.451	-200.000	0.003	-0.123
-68.436	-127.243	0.245	0.035
-67.422	-132.363	0.136	-0.017
-66.407	-200.000	-0.171	0.001
-65.392	-21.080	-0.113	-0.068
-64.378	-20.735	-0.184	-0.112
-63.363	-200.000	0.047	0.242
-62.349	-200.000	0.079	0.366
-61.334	63.807	-1.042	-1.035
-60.319	35.329	0.547	0.475
-59.305	740.426	-0.260	-0.690
-58.290	146.664	0.836	1.111
-57.276	533.930	0.611	1.430
-56.261	-200.000	102.691	593.578
-55.246	546.025	1434.452	3389.095
-54.232	183.025	2633.659	3842.363
-53.217	106.422	2317.359	2714.404
-52.203	37.244	2069.020	1810.885
-51.188	32.269	1982.746	1690.703
-50.173	30.784	1964.378	1661.724
-49.159	46.370	2018.743	1849.204
-48.144	47.392	2036.001	1874.203
-47.130	33.018	1995.365	1707.970
-46.115	30.623	1984.891	1677.362
-45.100	30.491	1982.501	1674.087
-44.086	30.492	1980.022	1671.937
-43.071	30.350	1978.236	1669.086
-42.057	30.446	1975.725	1667.759
-41.042	30.485	1973.468	1666.139
-40.027	30.474	1971.940	1664.687
-39.013	30.544	1969.541	1663.224
-37.998	30.536	1967.293	1661.187
-36.984	30.638	1965.131	1660.207
-35.969	30.571	1963.104	1657.825
-34.954	30.569	1962.016	1656.821
-33.940	30.609	1960.345	1655.708
-32.925	30.635	1958.651	1654.439
-31.911	30.565	1957.269	1652.583
-30.896	30.617	1955.446	1651.440
-29.881	30.646	1953.980	1650.396
-28.867	30.744	1952.362	1649.829
-27.852	30.681	1951.038	1648.089
-26.838	30.705	1949.348	1646.806
-25.823	30.690	1947.105	1644.716
-24.809	30.629	1945.396	1642.667
-23.794	30.663	1944.236	1641.923
-22.779	30.555	1942.478	1639.423
-21.765	30.691	1940.142	1638.581
-20.750	30.669	1938.553	1636.983
-19.736	30.637	1937.093	1635.407
-18.721	30.632	1935.678	1634.095
-17.706	30.649	1934.253	1632.983
-16.692	30.603	1932.450	1630.991
-15.677	30.662	1930.591	1629.877
-14.663	30.633	1929.151	1628.336
-13.648	30.666	1927.747	1627.375
-12.633	30.693	1926.580	1626.565
-11.619	30.635	1925.644	1625.201
-10.604	30.581	1924.355	1623.579
-9.590	30.618	1922.739	1622.473
-8.575	30.598	1921.145	1620.887
-7.560	30.637	1919.568	1619.837
-6.546	30.624	1918.691	1618.918
-5.531	30.672	1917.443	1618.216
-4.517	30.605	1916.164	1616.494
-3.502	30.628	1915.375	1615.960
-2.487	30.685	1913.480	1614.795
-1.473	30.685	1913.041	1614.360
-0.458	30.710	1907.775	1610.063
0.556	29.890	1888.589	1583.428
1.571	25.832	1870.154	1533.373
2.586	21.941	1892.832	1518.242
3.600	20.993	1929.216	1538.921
4.615	20.432	1923.667	1529.421
5.629	15.984	1824.427	1413.169
6.644	8.590	1709.944	1266.045
7.659	5.328	1675.460	1215.072
8.673	5.114	1672.365	1211.060
9.688	5.004	1670.604	1208.826
10.702	4.960	1669.887	1207.861
11.717	4.833	1666.307	1204.179
12.731	5.395	1665.145	1207.581
13.746	10.311	1676.971	1254.202
14.761	17.072	1690.950	1317.181
15.775	19.140	1693.839	1335.374
16.790	18.483	1691.135	1328.033
17.804	17.378	1688.057	1316.946
18.819	16.434	1684.771	1306.968
19.834	15.766	1681.876	1299.450
20.848	15.429	1680.396	1295.593
21.863	15.235	1678.598	1292.598
22.877	14.969	1677.234	1289.378
23.892	14.786	1676.106	1286.989
24.907	14.607	1674.972	1284.624
25.921	14.672	1674.145	1284.382
26.936	14.581	1673.305	1282.925
27.950	14.776	1671.816	1283.161
28.965	14.822	1671.539	1283.190
29.980	14.862	1670.455	1282.549
30.994	14.855	1669.814	1281.891
32.009	14.968	1668.862	1281.916
33.023	14.926	1668.208	1280.980
34.038	15.024	1666.792	1280.529
35.053	15.081	1665.407	1279.782
36.067	14.934	1664.053	1277.508
37.082	14.899	1663.109	1276.402
38.096	14.882	1662.054	1275.350
39.111	14.932	1661.237	1274.993
40.126	14.969	1660.656	1274.715
41.140	14.920	1659.387	1273.255
42.155	14.816	1658.357	1271.559
43.169	14.707	1656.490	1269.192
44.184	14.599	1655.736	1267.681
45.199	14.678	1654.439	1267.176
46.213	14.572	1653.453	1265.499
47.228	14.611	1651.949	1264.532
48.242	14.773	1650.480	1264.521
49.257	14.766	1650.091	1264.064
50.271	14.802	1648.245	1262.810
51.286	14.759	1647.335	1261.673
52.301	14.920	1645.573	1261.424
53.315	14.745	1645.049	1259.595
54.330	14.752	1643.295	1258.190
55.344	14.754	1641.391	1256.639
56.359	14.688	1639.814	1254.825
57.374	14.762	1638.834	1254.517
58.388	14.662	1638.206	1253.178
59.403	14.634	1636.524	1251.569
60.417	14.703	1634.537	1250.452
61.432	14.618	1633.936	1249.247
62.447	14.600	1633.038	1248.315
63.461	14.602	1631.609	1247.129
64.476	14.481	1630.498	1245.264
65.490	14.542	1629.467	1244.824
66.505	14.480	1628.407	1243.443
67.520	14.444	1627.881	1242.664
68.534	14.581	1626.478	1242.500
69.549	14.538	1625.547	1241.362
70.563	14.596	1624.061	1240.542
71.578	14.597	1622.784	1239.469
72.593	14.511	1622.022	1238.135
73.607	14.473	1620.661	1236.703
74.622	14.456	1619.587	1235.649
75.636	14.474	1618.930	1235.176
76.651	14.392	1618.438	1234.085
77.666	14.487	1616.992	1233.571
78.680	14.449	1616.131	1232.528
79.695	14.481	1615.119	1231.884
80.709	14.524	1614.703	1231.770
81.724	14.565	1613.938	1231.382
82.739	14.556	1612.710	1230.268
83.753	14.651	1611.747	1230.126
84.768	14.677	1611.083	1229.705
85.782	14.778	1610.422	1229.832
86.797	14.859	1609.342	1229.495
87.812	14.806	1608.539	1228.387
88.826	14.840	1607.425	1227.677
89.841	14.748	1605.974	1225.782
90.855	14.772	1605.013	1225.121
91.870	14.810	1603.581	1224.193
92.884	14.769	1603.383	1223.636
93.899	14.887	1601.595	1223.025
94.914	14.846	1600.983	1222.151
95.928	14.952	1599.014	1221.313
96.943	14.990	1598.020	1220.719
97.957	14.980	1596.134	1219.097
98.972	14.890	1594.933	1217.419
99.987	14.868	1593.669	1216.187
101.001	14.823	1592.335	1214.736
102.016	14.809	1590.887	1213.417
103.030	14.718	1589.717	1211.758
104.045	14.801	1588.203	1211.103
105.060	14.862	1586.489	1210.128
106.074	14.853	1585.298	1209.051
107.089	14.692	1583.684	1206.547
108.103	14.720	1581.626	1205.075
109.118	14.593	1580.263	1203.014
110.133	14.528	1578.959	1201.445
111.147	14.585	1577.378	1200.545
112.162	14.530	1576.505	1199.380
113.176	14.530	1574.731	1197.923
114.191	14.588	1573.344	1197.182
115.206	14.725	1571.926	1196.974
116.220	14.620	1571.363	1195.693
117.235	14.681	1569.544	1194.639
118.249	14.671	1568.604	1193.743
119.264	14.603	1567.070	1191.988
120.279	14.591	1565.723	1190.768
121.293	14.614	1563.807	1189.373
122.308	14.633	1562.608	1188.491
123.322	14.645	1560.767	1187.070
124.337	14.581	1559.546	1185.578
125.352	14.540	1558.306	1184.245
126.366	14.457	1557.394	1182.855
127.381	14.502	1555.751	1181.824
128.395	14.486	1555.078	1181.096
129.410	14.521	1553.526	1180.060
130.424	14.499	1552.413	1178.950
131.439	14.588	1550.972	1178.385
132.454	14.613	1549.520	1177.351
133.468	14.579	1548.246	1176.037
134.483	14.720	1546.346	1175.483
135.497	14.682	1545.496	1174.466
136.512	14.657	1544.559	1173.476
137.527	14.670	1542.786	1172.117
138.541	14.757	1541.349	1171.532
139.556	14.737	1540.042	1170.296
140.570	14.798	1538.802	1169.673
141.585	14.887	1537.102	1168.901
142.600	14.819	1536.438	1167.817
143.614	14.906	1534.995	1167.222
144.629	14.941	1534.316	1166.848
145.643	14.986	1532.735	1165.860
146.658	15.083	1531.351	1165.379
147.673	14.981	1530.135	1163.637
148.687	14.869	1528.636	1161.617
149.702	14.961	1526.851	1160.796
150.716	14.802	1525.180	1158.322
151.731	14.792	1524.139	1157.358
152.746	14.870	1522.407	1156.481
153.760	14.815	1521.142	1155.036
154.775	14.739	1520.605	1154.003
155.789	14.911	1518.371	1153.395
156.804	14.818	1517.788	1152.210
157.819	14.951	1516.643	1152.153
158.833	14.987	1515.393	1151.347
159.848	15.027	1514.439	1150.799
160.862	15.141	1512.914	1150.321
161.877	15.132	1511.559	1149.126
162.892	15.135	1510.674	1148.368
163.906	14.850	1509.882	1145.712
164.921	14.882	1508.199	1144.557
165.935	14.908	1507.277	1143.933
166.950	14.965	1506.159	1143.374
167.964	14.925	1505.473	1142.478
168.979	15.010	1504.144	1141.946
169.994	15.015	1503.119	1141.099
171.008	14.991	1501.881	1139.899
172.023	15.006	1500.627	1138.944
173.037	15.082	1499.813	1138.743
174.052	15.020	1499.133	1137.705
175.067	15.204	1497.258	1137.432
176.081	15.077	1496.295	1135.741
177.096	15.042	1495.000	1134.420
178.110	14.931	1494.073	1132.861
179.125	14.996	1492.546	1132.043
180.140	15.015	1491.607	1131.360
181.154	15.098	1490.356	1130.868
182.169	15.093	1489.355	1129.976
183.183	15.152	1488.183	1129.388
184.198	15.200	1487.085	1128.779
185.213	15.279	1486.461	1128.736
186.227	15.329	1484.695	1127.631
187.242	15.183	1484.498	1126.401
188.256	15.263	1482.909	1125.632
189.271	15.303	1482.010	1125.118
190.286	15.365	1480.967	1124.642
191.300	15.324	1480.279	1123.744
192.315	15.174	1478.069	1120.967
193.329	15.053	1476.876	1119.150
194.344	15.062	1475.754	1118.261
195.359	15.072	1475.005	1117.660
196.373	15.074	1474.240	1116.998
197.388	15.215	1472.913	1116.833
198.402	15.321	1472.101	1116.826
199.417	15.413	1470.878	1116.413
200.432	15.473	1469.928	1115.989
201.446	15.556	1469.109	1115.821
202.461	15.714	1467.911	1115.860
203.475	15.630	1466.941	1114.465
204.490	15.699	1465.595	1113.805
205.504	15.615	1464.763	1112.513
206.519	15.502	1463.973	1111.071
207.534	15.456	1462.465	1109.522
208.548	15.440	1461.420	1108.525
209.563	15.422	1460.266	1107.434
210.577	15.523	1459.283	1107.258
211.592	15.583	1458.274	1106.788
212.607	15.531	1457.793	1105.981
213.621	15.497	1457.287	1105.275
214.636	15.625	1456.388	1105.342
215.650	15.628	1455.172	1104.338
216.665	15.674	1454.304	1103.887
217.680	15.708	1453.164	1103.143
218.694	15.687	1452.774	1102.611
219.709	15.734	1452.007	1102.243
220.723	15.678	1451.025	1101.028
221.738	15.739	1450.034	1100.579
222.753	15.801	1449.093	1100.178
223.767	15.744	1448.239	1099.060
224.782	15.798	1447.101	1098.451
225.796	15.840	1446.428	1098.116
226.811	15.842	1445.386	1097.241
227.826	15.867	1444.596	1096.707
228.840	15.804	1444.092	1095.818
229.855	15.736	1442.658	1094.188
230.869	15.735	1441.624	1093.298
231.884	15.852	1440.659	1093.230
232.899	15.854	1439.076	1091.948
233.913	15.777	1437.999	1090.533
234.928	15.744	1437.147	1089.576
235.942	15.746	1435.622	1088.335
236.957	15.773	1434.694	1087.712
237.972	15.674	1433.960	1086.423
238.986	15.761	1432.544	1085.811
240.001	15.751	1431.991	1085.231
241.015	15.713	1430.828	1084.011
242.030	15.895	1429.395	1084.004
243.045	15.770	1428.548	1082.457
244.059	15.760	1427.934	1081.831
245.074	15.911	1427.486	1082.369
246.088	15.869	1426.635	1081.359
247.103	15.923	1425.916	1081.062
248.117	16.035	1424.719	1080.779
249.132	15.997	1424.147	1080.008
250.147	15.999	1423.718	1079.596
251.161	16.192	1422.952	1080.157
252.176	16.267	1422.420	1080.140
253.190	16.314	1421.520	1079.657
254.205	16.307	1421.144	1079.235
255.220	16.419	1419.576	1078.664
256.234	16.453	1418.936	1078.300
257.249	16.451	1418.163	1077.604
258.263	16.424	1417.138	1076.558
259.278	16.496	1416.024	1076.070
260.293	16.430	1415.311	1075.013
261.307	16.503	1414.195	1074.536
262.322	16.516	1413.850	1074.260
263.336	16.532	1413.045	1073.660
264.351	16.702	1411.973	1073.825
265.366	16.549	1411.202	1072.178
266.380	16.554	1410.452	1071.540
267.395	16.593	1409.399	1070.893
268.409	16.651	1408.470	1070.458
269.424	16.701	1406.796	1069.410
270.439	16.559	1406.540	1068.225
271.453	16.526	1405.434	1067.078
272.468	16.559	1404.705	1066.642
273.482	16.488	1404.242	1065.744
274.497	16.416	1402.983	1064.246
275.512	16.479	1402.123	1063.894
276.526	16.492	1401.242	1063.213
277.541	16.533	1400.068	1062.488
278.555	16.590	1399.030	1061.962
279.570	16.564	1398.541	1061.331
280.585	16.631	1397.190	1060.634
281.599	16.755	1396.628	1060.890
282.614	16.669	1396.175	1059.913
283.628	16.801	1394.269	1059.199
284.643	16.725	1393.484	1058.036
285.657	16.646	1392.339	1056.579
286.672	16.724	1391.856	1056.605
287.687	16.769	1390.621	1055.852
288.701	16.676	1389.850	1054.598
289.716	16.709	1389.299	1054.291
290.730	16.791	1388.277	1053.932
291.745	16.778	1386.903	1052.714
292.760	16.707	1386.654	1051.989
293.774	16.876	1384.945	1051.652
294.789	16.888	1384.534	1051.319
295.803	16.852	1383.925	1050.538
296.818	16.914	1382.842	1050.010
297.833	16.951	1381.678	1049.263
298.847	16.871	1380.858	1048.048
299.862	16.899	1379.792	1047.323
300.876	16.816	1378.406	1045.664
301.891	16.866	1378.096	1045.648
302.906	16.832	1377.118	1044.603
303.920	16.969	1376.496	1044.879
304.935	16.997	1375.839	1044.461
305.949	17.010	1375.222	1043.984
306.964	17.157	1374.521	1044.258
307.979	17.150	1373.461	1043.319
308.993	17.125	1372.632	1042.442
310.008	17.105	1371.758	1041.568
311.022	17.190	1370.157	1040.780
312.037	17.080	1369.709	1039.671
313.052	17.196	1368.350	1039.260
314.066	17.166	1367.370	1038.238
315.081	17.044	1366.540	1036.774
316.095	17.117	1364.569	1035.629
317.110	16.974	1363.910	1034.168
318.125	17.059	1362.992	1033.900
319.139	17.029	1362.295	1033.097
320.154	17.096	1361.359	1032.700
321.168	17.048	1360.295	1031.512
322.183	17.124	1359.131	1030.997
323.197	17.137	1358.049	1030.162
324.212	17.108	1357.515	1029.493
325.227	17.170	1356.937	1029.339
326.241	17.145	1356.515	1028.775
327.256	17.181	1355.234	1027.933
328.270	17.164	1354.277	1027.009
329.285	17.238	1352.829	1026.273
330.300	17.178	1352.496	1025.565
331.314	17.278	1351.185	1025.085
332.329	17.214	1350.992	1024.458
333.343	17.108	1349.889	1022.892
334.358	17.240	1349.182	1023.062
335.373	17.289	1348.203	1022.524
336.387	17.297	1347.267	1021.775
337.402	17.367	1346.645	1021.632
338.416	17.399	1345.551	1020.903
339.431	17.445	1345.076	1020.728
340.446	17.449	1344.511	1020.231
341.460	17.433	1343.517	1019.290
342.475	17.513	1342.716	1019.073
343.489	17.539	1342.084	1018.658
344.504	17.589	1341.245	1018.228
345.519	17.644	1339.781	1017.355
346.533	17.719	1339.380	1017.408
347.548	17.754	1338.056	1016.524
348.562	17.710	1337.376	1015.653
349.577	17.762	1336.603	1015.290
350.592	17.768	1335.909	1014.705
351.606	17.672	1335.074	1013.411
352.621	17.591	1333.847	1011.906
353.635	17.542	1333.009	1010.894
354.650	17.622	1331.624	1010.229
355.665	17.518	1331.263	1009.245
356.679	17.579	1330.212	1008.724
357.694	17.585	1328.954	1007.715
358.708	17.633	1327.793	1007.027
359.723	17.634	1327.128	1006.441
360.738	17.688	1325.792	1005.656
361.752	17.727	1324.687	1004.963
362.767	17.729	1323.813	1004.223
363.781	17.744	1322.716	1003.390
364.796	17.716	1322.540	1003.003
365.810	17.819	1321.315	1002.587
366.825	17.902	1320.706	1002.527
367.840	17.909	1320.263	1002.141
368.854	17.915	1319.350	1001.393
369.869	17.977	1318.994	1001.401
370.883	18.136	1318.221	1001.656
371.898	18.129	1317.110	1000.684
372.913	17.978	1316.401	999.171
373.927	17.990	1315.466	998.442
374.942	18.017	1314.614	997.868
375.956	17.981	1314.314	997.341
376.971	18.180	1312.766	997.236
377.986	18.048	1312.666	996.304
379.000	18.097	1311.603	995.697
380.015	18.123	1310.341	994.801
381.029	18.241	1309.810	994.991
382.044	18.213	1309.630	994.609
383.059	18.242	1309.019	994.221
384.073	18.366	1307.980	994.064
385.088	18.298	1307.275	993.048
386.102	18.316	1306.772	992.682
387.117	18.215	1305.770	991.250
388.132	18.313	1304.994	991.141
389.146	18.198	1304.178	989.763
390.161	18.144	1303.579	988.912
391.175	18.187	1302.635	988.356
392.190	18.221	1301.633	987.705
393.205	18.215	1300.979	987.086
394.219	18.298	1299.935	986.684
395.234	18.369	1298.574	985.973
396.248	18.359	1297.074	984.691
397.263	18.265	1296.126	983.342
398.278	18.220	1294.749	981.951
399.292	18.178	1294.175	981.188
400.307	18.192	1292.627	980.010
401.321	18.231	1291.710	979.451
402.336	18.189	1290.412	978.143
403.350	18.193	1289.451	977.349
404.365	18.229	1288.465	976.721
405.380	18.198	1287.786	975.942
406.394	18.350	1286.771	975.953
407.409	18.330	1286.686	975.687
408.423	18.389	1285.818	975.280
409.438	18.465	1285.159	975.127
410.453	18.592	1284.148	974.996
411.467	18.596	1283.368	974.341
412.482	18.652	1283.267	974.493
413.496	18.599	1282.306	973.378
414.511	18.651	1281.789	973.195
415.526	18.692	1280.613	972.446
416.540	18.791	1280.007	972.460
417.555	18.829	1279.492	972.200
418.569	18.838	1279.024	971.805
419.584	18.794	1278.573	971.130
420.599	18.709	1277.646	969.859
421.613	140.860	1432.082	1795.086
422.628	135.598	1454.559	1795.182
