DTS Sentinel unit serial number:	SN413079Multiplexer serial number:	ORYXHardware model number:	OX4-SRSoftware version number:	ORYX F/W v4.00 Oryx Data Collector v3.7.2.0data status	okinstallation	princeton_trtdifferential loss correction	single-endedforward channel	channel 4reverse channel	N/Adate	2019/09/16time	08:33:35forward acquisition time	60.00reverse acquisition time	0.00gamma	496.2192k internal	0.2312k external	0.2312temperature offset calibration	0.9979default loss term (dB/km)	0.3790temperature slope calibration	1.0000multiplexer offset coefficient	1.0000multiplexer slope coefficient	1.0000fibre end	0.00T internal ref (°C)	29.41T ext. ref 1 (°C)	11.92T ext. ref 2 (°C)	26.02length (m)	temperature (°C)	Stokes	anti-Stokes-747.200	-88.468	-0.143	0.043
-746.185	779.171	0.115	0.319
-745.171	137.848	-0.150	0.199
-744.156	219.580	-0.026	0.043
-743.142	48.668	-0.092	0.087
-742.127	-54.088	-0.194	0.090
-741.112	8.430	0.183	0.139
-740.098	-78.579	-0.103	0.036
-739.083	-65.861	0.126	0.051
-738.069	-40.303	-0.135	0.071
-737.054	410.263	0.041	-0.088
-736.039	-200.000	-0.017	-0.127
-735.025	-70.689	0.262	0.100
-734.010	308.252	-0.172	-0.325
-732.996	-96.984	-0.317	-0.084
-731.981	800.000	0.009	0.031
-730.966	-75.678	-0.059	0.021
-729.952	-46.030	-0.191	-0.096
-728.937	56.367	-0.248	-0.245
-727.923	540.897	-0.127	0.306
-726.908	314.585	-0.256	-0.489
-725.894	-184.554	0.279	-0.005
-724.879	-200.000	0.008	0.059
-723.864	-71.498	-0.152	0.058
-722.850	-53.529	0.128	-0.059
-721.835	19.542	-0.059	-0.048
-720.821	-175.166	0.071	0.002
-719.806	381.874	0.102	-0.213
-718.791	-200.000	0.009	-0.122
-717.777	-128.905	-0.088	-0.013
-716.762	89.688	0.306	-0.346
-715.748	-200.000	0.088	-0.422
-714.733	179.811	-0.057	-0.085
-713.718	800.000	-0.042	-0.183
-712.704	-200.000	-0.010	-0.052
-711.689	-96.737	-0.352	-0.094
-710.675	-32.908	0.045	0.026
-709.660	-128.821	-0.475	-0.068
-708.645	-200.000	-0.025	-0.146
-707.631	800.000	0.034	-0.098
-706.616	-64.195	-0.155	0.064
-705.602	-200.000	0.064	-0.563
-704.587	-200.000	-0.013	-0.280
-703.572	-200.000	0.011	-0.062
-702.558	-200.000	0.006	-0.412
-701.543	-57.753	0.378	-0.168
-700.529	-30.199	0.359	0.207
-699.514	11.099	0.072	-0.056
-698.499	-200.000	0.015	-0.091
-697.485	227.069	0.142	-0.234
-696.470	51.628	-0.088	-0.085
-695.456	-93.328	0.242	-0.068
-694.441	-87.262	0.080	-0.025
-693.426	-200.000	0.050	0.427
-692.412	373.684	-0.087	-0.179
-691.397	4.031	-0.298	-0.221
-690.383	-157.102	-0.114	0.007
-689.368	-200.000	-0.050	-0.497
-688.354	-200.000	-0.008	-0.268
-687.339	800.000	0.066	0.209
-686.324	-40.301	0.375	0.197
-685.310	-40.782	-0.158	-0.083
-684.295	71.765	-0.161	0.169
-683.281	-200.000	0.005	-0.149
-682.266	260.298	-0.122	0.213
-681.251	-61.820	-0.243	-0.103
-680.237	-20.897	-0.122	0.076
-679.222	-138.497	0.277	-0.031
-678.208	-103.791	0.221	0.052
-677.193	800.000	-0.093	-0.297
-676.178	-200.000	0.002	-0.085
-675.164	-74.165	0.292	-0.107
-674.149	-31.689	-0.322	-0.183
-673.135	773.135	0.063	-0.173
-672.120	800.000	-0.066	0.277
-671.105	568.224	-0.121	-0.297
-670.091	800.000	0.079	-0.341
-669.076	-200.000	0.034	-0.275
-668.062	-88.282	-0.477	-0.144
-667.047	800.000	0.117	0.403
-666.032	800.000	-0.042	-0.157
-665.018	-200.000	0.023	-0.148
-664.003	-145.577	-0.284	0.026
-662.989	-200.000	0.292	0.001
-661.974	-80.588	0.027	0.009
-660.959	-51.301	0.030	0.014
-659.945	-200.000	-0.022	-0.355
-658.930	-10.997	0.139	0.093
-657.916	-162.951	0.415	-0.020
-656.901	800.000	0.070	-0.233
-655.886	-74.498	-0.127	0.046
-654.872	78.645	-0.044	-0.047
-653.857	-85.688	-0.262	-0.082
-652.843	-147.059	-0.308	0.027
-651.828	2.093	0.261	0.191
-650.814	19.170	0.096	-0.078
-649.799	-33.269	0.165	-0.092
-648.784	-200.000	-0.001	0.164
-647.770	-21.898	0.230	-0.141
-646.755	-52.572	0.208	0.097
-645.741	800.000	-0.064	-0.217
-644.726	800.000	0.042	0.135
-643.711	-200.000	-0.006	0.091
-642.697	164.842	0.131	0.188
-641.682	-61.438	-0.389	-0.166
-640.668	-200.000	-0.003	-0.151
-639.653	136.972	0.146	-0.193
-638.638	-200.000	-0.017	0.204
-637.624	-41.032	-0.159	-0.083
-636.609	-28.946	0.231	0.134
-635.595	-26.566	-0.385	0.228
-634.580	417.012	0.062	0.133
-633.565	-200.000	-0.013	-0.103
-632.551	-146.367	-0.374	0.033
-631.536	-139.605	0.357	0.038
-630.522	-200.000	0.018	-0.192
-629.507	47.470	0.248	-0.234
-628.492	-93.552	-0.248	0.069
-627.478	800.000	0.095	0.298
-626.463	-103.844	0.175	0.041
-625.449	-55.285	-0.196	-0.089
-624.434	-114.687	-0.277	-0.053
-623.419	-93.180	-0.344	0.097
-622.405	77.755	-0.121	-0.130
-621.390	47.652	0.159	-0.149
-620.376	228.714	-0.158	-0.259
-619.361	177.793	0.083	-0.122
-618.346	91.443	-0.138	0.157
-617.332	-200.000	-0.017	-0.152
-616.317	2.450	-0.083	0.060
-615.303	-200.000	0.024	0.238
-614.288	151.275	-0.186	-0.256
-613.273	-68.850	0.241	0.094
-612.259	-39.683	-0.232	-0.122
-611.244	9.152	0.231	-0.176
-610.230	-44.292	-0.324	-0.164
-609.215	-200.000	-0.025	-0.431
-608.201	-200.000	-0.001	-0.047
-607.186	136.106	0.147	0.194
-606.171	-1.093	-0.207	-0.147
-605.157	210.724	-0.027	-0.043
-604.142	-200.000	-0.038	0.224
-603.128	591.615	-0.131	-0.325
-602.113	271.343	0.094	0.168
-601.098	800.000	0.081	0.286
-600.084	-122.593	-0.158	-0.026
-599.069	-151.196	-0.354	0.027
-598.055	-50.465	-0.125	-0.060
-597.040	233.577	-0.028	0.046
-596.025	50.272	0.351	-0.335
-595.011	-21.773	-0.166	-0.102
-593.996	800.000	-0.061	-0.258
-592.982	174.972	0.073	-0.107
-591.967	-83.684	0.121	0.039
-590.952	-200.000	-0.081	-0.440
-589.938	-52.659	0.354	0.165
-588.923	-123.417	-0.403	0.065
-587.909	-138.526	-0.114	-0.013
-586.894	-200.000	-0.007	0.045
-585.879	-90.960	0.251	0.073
-584.865	171.967	0.044	-0.064
-583.850	-118.277	-0.035	-0.006
-582.836	-15.312	-0.099	0.064
-581.821	-200.000	0.008	0.260
-580.806	682.483	-0.027	-0.072
-579.792	-166.248	-0.194	-0.008
-578.777	-167.410	-0.229	-0.009
-577.763	107.973	-0.129	-0.155
-576.748	177.579	-0.117	0.171
-575.733	800.000	0.062	0.175
-574.719	-19.065	-0.347	-0.217
-573.704	-54.891	-0.273	-0.124
-572.690	172.029	0.135	0.195
-571.675	99.337	0.202	0.235
-570.661	-9.933	0.102	0.068
-569.646	187.997	-0.204	0.307
-568.631	-200.000	-0.070	0.323
-567.617	-74.286	0.398	0.145
-566.602	-200.000	-0.031	-0.342
-565.588	136.690	-0.219	0.288
-564.573	-23.610	-0.220	0.133
-563.558	-200.000	-0.053	0.236
-562.544	176.462	0.160	0.234
-561.529	27.505	-0.270	0.229
-560.515	-62.452	-0.225	0.094
-559.500	42.741	0.139	-0.127
-558.485	-48.020	0.311	-0.151
-557.471	4.993	-0.250	-0.185
-556.456	800.000	-0.042	-0.138
-555.442	-72.077	-0.105	0.039
-554.427	320.849	0.075	0.143
-553.412	38.786	0.233	-0.209
-552.398	-200.000	-0.003	0.216
-551.383	-64.604	-0.379	-0.155
-550.369	-200.000	-0.013	0.140
-549.354	-119.388	0.134	-0.023
-548.339	-54.385	-0.092	0.042
-547.325	-11.058	0.155	-0.103
-546.310	-200.000	0.011	-0.139
-545.296	-200.000	0.011	-0.093
-544.281	-41.593	0.167	0.087
-543.266	151.062	0.113	0.154
-542.252	800.000	-0.048	0.202
-541.237	-200.000	0.012	-0.060
-540.223	-200.000	-0.013	-0.335
-539.208	-200.000	0.011	0.146
-538.193	130.899	0.088	-0.113
-537.179	-126.040	0.265	-0.040
-536.164	-157.347	0.174	0.011
-535.150	55.630	0.036	-0.035
-534.135	-95.890	0.530	-0.142
-533.121	-66.593	0.075	0.030
-532.106	-145.912	0.265	0.024
-531.091	800.000	-0.097	0.305
-530.077	371.642	-0.022	-0.046
-529.062	-200.000	0.050	-0.222
-528.048	-18.400	0.126	-0.079
-527.033	-200.000	0.004	-0.082
-526.018	767.841	-0.053	0.144
-525.004	-79.166	0.217	-0.074
-523.989	68.536	0.146	-0.151
-522.975	-62.921	-0.263	-0.110
-521.960	-0.033	0.062	0.045
-520.945	-138.272	0.188	-0.021
-519.931	-110.223	0.252	0.053
-518.916	-148.168	0.167	-0.014
-517.902	-34.367	0.104	-0.058
-516.887	-174.477	0.087	-0.003
-515.872	-143.046	-0.260	0.025
-514.858	-140.023	0.477	-0.051
-513.843	800.000	0.035	-0.136
-512.829	118.750	-0.129	-0.160
-511.814	388.607	-0.035	0.073
-510.799	115.035	-0.178	0.219
-509.785	-19.929	-0.089	0.055
-508.770	-180.188	-0.209	-0.004
-507.756	400.345	0.088	-0.186
-506.741	-122.158	-0.104	0.017
-505.726	441.607	-0.177	0.390
-504.712	-150.863	0.267	0.020
-503.697	-74.403	0.098	-0.036
-502.683	191.185	0.191	-0.289
-501.668	213.318	-0.228	-0.361
-500.653	-200.000	-0.009	-0.142
-499.639	280.679	-0.183	-0.329
-498.624	-116.598	-0.154	-0.028
-497.610	-10.515	-0.074	-0.049
-496.595	716.714	0.144	0.383
-495.581	47.375	0.300	0.281
-494.566	-182.066	0.118	0.002
-493.551	196.055	0.277	0.424
-492.537	139.111	0.180	-0.238
-491.522	-200.000	-0.015	-0.175
-490.508	800.000	-0.123	0.371
-489.493	-200.000	-0.002	0.323
-488.478	-137.829	-0.326	0.037
-487.464	-156.991	-0.465	-0.029
-486.449	253.999	0.217	-0.373
-485.435	-200.000	-0.015	-0.255
-484.420	-200.000	-0.050	-0.367
-483.405	-12.910	-0.098	-0.064
-482.391	-66.527	-0.242	0.096
-481.376	195.655	0.044	-0.067
-480.362	-42.075	-0.031	-0.016
-479.347	800.000	0.145	0.427
-478.332	-200.000	-0.028	-0.362
-477.318	-200.000	-0.044	0.420
-476.303	396.005	0.040	0.085
-475.289	42.924	0.131	-0.120
-474.274	800.000	-0.098	0.340
-473.259	133.954	0.163	0.212
-472.245	-200.000	0.044	-0.327
-471.230	298.447	-0.160	0.295
-470.216	130.646	0.346	0.445
-469.201	-53.063	-0.178	-0.082
-468.186	-51.395	-0.119	-0.056
-467.172	649.858	-0.069	0.176
-466.157	-139.515	0.217	-0.023
-465.143	-200.000	0.036	-0.377
-464.128	274.457	0.070	0.124
-463.113	-200.000	-0.011	0.277
-462.099	323.653	-0.073	0.139
-461.084	-50.550	-0.015	-0.007
-460.070	800.000	0.115	0.385
-459.055	209.454	-0.027	-0.042
-458.040	800.000	0.013	-0.043
-457.026	-112.520	0.274	0.055
-456.011	615.973	0.074	-0.186
-454.997	800.000	0.053	0.216
-453.982	-200.000	-0.026	0.258
-452.968	251.219	-0.150	0.256
-451.953	-200.000	-0.068	-0.359
-450.938	800.000	-0.143	0.399
-449.924	541.491	0.074	-0.176
-448.909	-200.000	-0.034	-0.389
-447.895	69.398	0.133	-0.137
-446.880	-198.674	-0.146	-0.001
-445.865	-200.000	-0.022	0.137
-444.851	-54.898	0.191	0.086
-443.836	-200.000	-0.005	0.156
-442.822	-39.294	0.269	-0.141
-441.807	81.095	-0.032	0.035
-440.792	751.411	-0.038	0.102
-439.778	-134.818	0.109	0.013
-438.763	293.820	0.182	-0.333
-437.749	-80.690	0.277	-0.092
-436.734	143.064	-0.118	-0.158
-435.719	-150.493	0.284	0.022
-434.705	107.387	-0.129	0.153
-433.690	344.932	0.106	0.208
-432.676	800.000	0.076	-0.258
-431.661	800.000	-0.066	-0.232
-430.646	64.519	0.132	-0.133
-429.632	-138.840	0.143	0.016
-428.617	44.374	-0.158	0.146
-427.603	-123.093	0.228	-0.037
-426.588	243.877	0.130	-0.218
-425.573	70.717	0.303	-0.314
-424.559	-105.729	-0.159	-0.036
-423.544	260.096	-0.174	0.302
-422.530	230.347	0.074	0.121
-421.515	344.566	-0.080	-0.157
-420.500	-200.000	0.063	0.371
-419.486	-84.064	-0.162	-0.051
-418.471	227.339	-0.063	-0.103
-417.457	772.923	-0.116	-0.317
-416.442	-13.823	-0.312	-0.202
-415.428	800.000	-0.195	-0.652
-414.413	-200.000	-0.015	-0.087
-413.398	737.896	-0.062	0.168
-412.384	685.406	-0.100	0.262
-411.369	-45.985	-0.235	-0.116
-410.355	-115.319	-0.567	-0.107
-409.340	-70.111	-0.080	-0.031
-408.325	-200.000	-0.002	-0.146
-407.311	588.302	-0.056	-0.139
-406.296	800.000	0.107	0.453
-405.282	-125.792	-0.061	-0.009
-404.267	366.984	0.111	0.224
-403.252	800.000	0.019	-0.078
-402.238	267.288	-0.102	-0.178
-401.223	-118.517	-0.174	-0.031
-400.209	-145.395	-0.205	-0.018
-399.194	800.000	-0.013	-0.048
-398.179	-16.630	0.278	0.176
-397.165	73.338	0.034	-0.036
-396.150	34.445	0.250	0.219
-395.136	-96.166	-0.237	0.063
-394.121	-200.000	-0.005	-0.335
-393.106	-35.073	-0.258	-0.141
-392.092	800.000	0.053	-0.222
-391.077	12.375	0.020	-0.016
-390.063	-81.270	0.129	0.042
-389.048	102.650	-0.051	0.060
-388.033	139.336	-0.136	0.179
-387.019	459.226	0.135	-0.301
-386.004	-101.007	0.348	0.085
-384.990	33.018	-0.127	0.110
-383.975	800.000	-0.023	-0.095
-382.960	-200.000	-0.032	-0.150
-381.946	-200.000	0.000	-0.040
-380.931	-200.000	0.007	0.199
-379.917	-200.000	0.006	0.152
-378.902	-96.744	-0.213	-0.056
-377.888	800.000	-0.129	0.434
-376.873	30.510	0.050	-0.043
-375.858	-33.736	0.280	-0.154
-374.844	-200.000	0.068	0.304
-373.829	210.590	0.143	-0.224
-372.815	-200.000	-0.005	0.174
-371.800	-143.596	0.121	0.011
-370.785	-44.147	-0.250	0.125
-369.771	-49.873	-0.433	0.205
-368.756	-55.418	0.125	0.056
-367.742	19.758	-0.224	-0.181
-366.727	-50.349	-0.191	-0.090
-365.712	800.000	0.103	-0.347
-364.698	71.839	-0.075	0.078
-363.683	298.540	-0.174	-0.319
-362.669	285.268	0.140	0.252
-361.654	100.580	-0.258	-0.299
-360.639	-76.070	0.335	0.118
-359.625	800.000	-0.025	0.107
-358.610	32.897	-0.137	-0.118
-357.596	-200.000	0.063	0.312
-356.581	343.831	0.033	-0.065
-355.566	94.629	0.076	-0.087
-354.552	-200.000	-0.017	-0.197
-353.537	106.190	0.092	-0.109
-352.523	800.000	0.174	0.509
-351.508	-197.511	-0.252	-0.002
-350.493	-76.388	0.139	0.049
-349.479	-200.000	0.018	-0.210
-348.464	240.038	0.103	-0.171
-347.450	82.195	0.157	0.170
-346.435	-78.229	0.322	-0.111
-345.420	82.228	-0.158	0.171
-344.406	180.032	-0.228	0.334
-343.391	127.519	0.202	0.256
-342.377	375.998	-0.058	-0.118
-341.362	-4.192	-0.104	-0.072
-340.348	800.000	-0.038	0.134
-339.333	-127.707	0.020	-0.003
-338.318	800.000	-0.135	-0.380
-337.304	412.936	-0.134	0.285
-336.289	800.000	0.020	-0.068
-335.275	21.765	0.296	0.241
-334.260	-200.000	0.017	-0.114
-333.245	-32.342	0.164	0.091
-332.231	-188.962	-0.112	0.001
-331.216	-88.266	-0.435	0.130
-330.202	-200.000	0.011	0.220
-329.187	164.774	0.131	0.184
-328.172	-164.362	-0.249	-0.011
-327.158	598.514	0.075	-0.187
-326.143	800.000	0.020	0.070
-325.129	23.916	0.068	0.056
-324.114	-4.947	0.155	-0.107
-323.099	114.663	-0.181	-0.221
-322.085	414.203	0.026	-0.055
-321.070	27.580	-0.152	0.128
-320.056	-118.386	0.079	-0.014
-319.041	-108.309	-0.059	0.013
-318.026	-200.000	0.001	0.018
-317.012	-200.000	0.037	-0.401
-315.997	-145.947	0.094	-0.008
-314.983	150.509	-0.070	0.095
-313.968	669.755	-0.154	-0.399
-312.953	-200.000	-0.043	0.272
-311.939	-43.941	-0.254	-0.128
-310.924	82.648	-0.060	-0.065
-309.910	800.000	-0.028	0.104
-308.895	-35.719	0.364	0.197
-307.880	400.625	0.111	0.231
-306.866	73.626	-0.320	-0.334
-305.851	197.819	-0.188	-0.287
-304.837	-200.000	0.000	-0.166
-303.822	800.000	-0.067	0.275
-302.807	-200.000	-0.019	-0.115
-301.793	-200.000	0.015	-0.235
-300.778	-15.912	0.026	0.016
-299.764	-126.988	-0.205	0.030
-298.749	-200.000	0.005	0.120
-297.735	-51.056	-0.245	-0.114
-296.720	324.249	-0.055	-0.105
-295.705	-200.000	0.014	-0.229
-294.691	189.461	-0.052	0.077
-293.676	-106.411	0.058	-0.013
-292.662	0.589	0.198	0.141
-291.647	-51.668	-0.186	-0.086
-290.632	27.098	0.172	0.144
-289.618	-65.076	-0.108	-0.043
-288.603	73.145	0.106	0.110
-287.589	-98.104	0.283	-0.072
-286.574	-91.429	0.071	0.020
-285.559	-200.000	-0.030	-0.420
-284.545	800.000	0.030	-0.116
-283.530	-84.117	-0.156	0.049
-282.516	-126.845	0.352	0.052
-281.501	800.000	-0.070	-0.250
-280.486	-9.856	-0.249	0.165
-279.472	116.379	0.268	0.327
-278.457	67.506	0.069	0.070
-277.443	188.542	-0.144	0.214
-276.428	-200.000	-0.043	0.422
-275.413	440.603	-0.066	0.143
-274.399	606.555	-0.084	0.209
-273.384	800.000	0.037	0.111
-272.370	-85.106	-0.092	0.029
-271.355	76.799	0.065	-0.068
-270.340	45.904	-0.134	0.124
-269.326	-85.927	0.321	-0.099
-268.311	-22.482	0.112	-0.067
-267.297	-8.447	-0.305	0.204
-266.282	-16.552	0.157	-0.099
-265.267	-60.429	0.196	-0.083
-264.253	-100.295	-0.037	0.009
-263.238	500.213	0.063	0.145
-262.224	-32.501	-0.057	-0.032
-261.209	-65.091	0.213	0.085
-260.195	17.270	0.391	-0.309
-259.180	265.780	-0.159	-0.276
-258.165	-166.046	-0.159	-0.007
-257.151	61.829	-0.140	0.139
-256.136	116.174	-0.126	-0.153
-255.122	-23.031	-0.151	-0.091
-254.107	-89.954	0.345	0.100
-253.092	800.000	0.036	-0.105
-252.078	-156.128	0.086	0.005
-251.063	-119.551	0.150	0.026
-250.049	-92.009	-0.269	-0.076
-249.034	-200.000	-0.063	-0.282
-248.019	45.627	0.226	-0.208
-247.005	75.657	0.220	0.232
-245.990	-121.968	-0.215	0.035
-244.976	800.000	-0.074	-0.241
-243.961	128.075	-0.332	-0.420
-242.946	-56.495	0.254	-0.112
-241.932	-0.040	-0.150	0.106
-240.917	103.043	0.218	0.255
-239.903	-16.478	0.045	0.028
-238.888	-80.529	-0.293	-0.097
-237.873	-200.000	0.051	0.291
-236.859	-129.124	0.188	0.026
-235.844	298.762	-0.099	-0.182
-234.830	124.963	0.054	-0.068
-233.815	380.058	-0.074	-0.151
-232.800	420.273	-0.121	-0.258
-231.786	-200.000	-0.050	0.227
-230.771	367.034	0.125	0.251
-229.757	-135.401	0.096	-0.011
-228.742	-200.000	0.045	0.279
-227.727	36.403	-0.315	0.276
-226.713	90.655	-0.113	-0.126
-225.698	-51.085	-0.179	-0.084
-224.684	-36.302	-0.095	0.051
-223.669	149.407	-0.089	-0.120
-222.655	111.151	-0.236	0.283
-221.640	363.307	0.137	-0.273
-220.625	-129.932	-0.231	-0.031
-219.611	1.772	-0.362	-0.259
-218.596	556.661	-0.127	0.305
-217.582	-37.075	-0.244	-0.130
-216.567	-200.000	-0.002	0.116
-215.552	-15.115	-0.077	0.049
-214.538	145.898	-0.049	0.065
-213.523	194.188	0.144	0.218
-212.509	-57.929	0.038	0.016
-211.494	800.000	-0.017	0.053
-210.479	-200.000	-0.032	0.166
-209.465	49.406	0.132	0.123
-208.450	163.325	0.113	0.157
-207.436	800.000	-0.022	0.065
-206.421	800.000	-0.068	0.268
-205.406	-18.063	-0.111	0.069
-204.392	-44.449	0.189	-0.094
-203.377	-200.000	-0.034	-0.442
-202.363	-8.396	0.309	0.207
-201.348	800.000	-0.055	-0.170
-200.333	-200.000	-0.025	-0.190
-199.319	-7.824	0.396	-0.266
-198.304	143.777	0.074	-0.098
-197.290	800.000	0.002	0.006
-196.275	-172.271	0.364	0.012
-195.260	-34.793	0.276	-0.150
-194.246	602.349	-0.058	-0.143
-193.231	-96.740	-0.278	0.073
-192.217	-100.920	0.414	0.101
-191.202	300.047	0.146	0.267
-190.187	-90.455	0.200	0.058
-189.173	800.000	-0.042	-0.171
-188.158	322.302	-0.045	0.084
-187.144	99.618	0.257	-0.295
-186.129	151.942	0.142	0.192
-185.114	800.000	-0.024	0.105
-184.100	79.433	0.043	-0.046
-183.085	239.801	-0.107	-0.177
-182.071	800.000	0.071	0.251
-181.056	34.725	0.073	0.063
-180.042	-200.000	-0.004	0.238
-179.027	206.352	-0.125	0.194
-178.012	191.120	0.232	0.346
-176.998	-14.578	0.411	0.262
-175.983	-49.111	0.138	-0.066
-174.969	-117.266	0.109	-0.020
-173.954	37.492	0.084	0.074
-172.939	-9.499	0.268	-0.178
-171.925	252.149	-0.181	0.307
-170.910	398.231	0.138	0.286
-169.896	674.321	-0.100	0.258
-168.881	-200.000	-0.005	0.196
-167.866	-200.000	-0.027	-0.161
-166.852	800.000	-0.029	0.123
-165.837	-140.222	-0.100	-0.010
-164.823	-0.462	-0.032	0.022
-163.808	-200.000	0.012	0.180
-162.793	800.000	-0.039	0.166
-161.779	544.304	-0.060	-0.142
-160.764	-200.000	0.043	-0.429
-159.750	-49.012	0.393	-0.186
-158.735	-89.065	0.281	-0.082
-157.720	-105.872	-0.067	0.015
-156.706	98.016	0.027	0.031
-155.691	76.982	-0.159	0.168
-154.677	-59.966	-0.120	0.051
-153.662	-200.000	-0.039	-0.510
-152.647	62.505	0.155	-0.153
-151.633	221.367	-0.373	-0.595
-150.618	-113.065	0.081	-0.016
-149.604	110.550	-0.129	0.154
-148.589	800.000	0.074	0.234
-147.574	693.572	0.025	-0.065
-146.560	-7.370	-0.169	0.114
-145.545	84.032	0.323	0.350
-144.531	535.949	0.105	0.246
-143.516	800.000	-0.050	-0.148
-142.502	-143.956	-0.180	0.017
-141.487	183.122	0.167	-0.245
-140.472	241.875	0.174	0.289
-139.458	162.687	0.186	0.258
-138.443	-80.002	0.120	-0.040
-137.429	-56.740	0.119	0.052
-136.414	9.262	0.045	-0.034
-135.399	13.290	0.323	-0.248
-134.385	-148.146	0.379	0.031
-133.370	-67.719	-0.275	0.106
-132.356	308.878	0.121	-0.225
-131.341	152.386	-0.192	0.259
-130.326	91.978	-0.161	0.179
-129.312	258.647	-0.060	-0.103
-128.297	212.946	-0.052	-0.081
-127.283	800.000	0.053	-0.222
-126.268	800.000	0.092	-0.330
-125.253	232.919	-0.069	-0.113
-124.239	105.392	-0.071	-0.083
-123.224	-200.000	-0.041	-0.388
-122.210	-200.000	-0.043	-0.493
-121.195	-200.000	0.029	-0.246
-120.180	-119.509	0.110	0.019
-119.166	-51.124	0.172	-0.080
-118.151	-85.845	-0.412	-0.127
-117.137	-141.736	-0.307	-0.031
-116.122	-25.877	0.216	0.126
-115.107	-126.274	0.276	0.041
-114.093	-200.000	0.012	-0.069
-113.078	-103.837	0.081	0.019
-112.064	-52.190	-0.210	0.096
-111.049	-144.447	-0.163	-0.015
-110.034	97.153	-0.077	0.088
-109.020	334.889	-0.135	0.258
-108.005	-200.000	-0.006	-0.200
-106.991	-38.364	0.102	-0.053
-105.976	800.000	-0.022	0.070
-104.962	163.084	-0.072	-0.101
-103.947	-179.453	0.167	0.004
-102.932	-177.669	0.308	-0.007
-101.918	317.472	0.071	0.132
-100.903	678.432	0.032	-0.082
-99.889	438.207	-0.052	0.112
-98.874	-172.381	-0.325	0.010
-97.859	-14.302	0.204	0.130
-96.845	-200.000	-0.043	0.202
-95.830	458.612	-0.045	-0.098
-94.816	93.868	0.266	0.299
-93.801	-200.000	-0.002	0.076
-92.786	623.905	-0.156	-0.388
-91.772	-200.000	-0.000	-0.455
-90.757	-197.515	0.142	-0.001
-89.743	50.729	0.088	-0.083
-88.728	-100.884	-0.192	0.047
-87.713	-173.643	0.053	-0.002
-86.699	-70.241	0.065	0.024
-85.684	273.184	0.039	0.069
-84.670	-40.898	-0.323	0.165
-83.655	-88.939	-0.064	0.019
-82.640	-105.908	-0.168	0.037
-81.626	-68.591	-0.234	0.089
-80.611	142.388	0.076	-0.100
-79.597	-126.945	-0.341	0.050
-78.582	178.532	-0.102	0.147
-77.567	116.936	0.241	-0.293
-76.553	-29.436	0.204	-0.115
-75.538	800.000	0.070	0.237
-74.524	-136.342	-0.483	0.056
-73.509	144.563	-0.227	0.299
-72.494	338.920	-0.214	0.412
-71.480	-110.626	-0.282	-0.058
-70.465	65.738	0.228	0.228
-69.451	331.291	0.099	-0.189
-68.436	494.145	0.095	-0.214
-67.422	-56.762	0.133	-0.058
-66.407	40.237	0.133	-0.119
-65.392	21.011	0.254	0.203
-64.378	-25.493	0.271	0.158
-63.363	61.707	-0.046	0.046
-62.349	-6.936	0.124	0.083
-61.334	37.737	-1.058	-0.928
-60.319	-4.281	0.563	0.385
-59.305	-200.000	-0.207	-0.958
-58.290	205.096	0.663	1.017
-57.276	642.928	0.601	1.514
-56.261	-200.000	104.782	569.452
-55.246	441.921	1464.682	3166.893
-54.232	144.054	2670.292	3517.719
-53.217	96.666	2339.923	2646.651
-52.203	35.683	2089.363	1813.101
-51.188	31.049	2004.321	1697.182
-50.173	29.584	1987.546	1669.682
-49.159	45.344	2042.386	1860.636
-48.144	45.675	2059.618	1879.295
-47.130	31.728	2018.524	1715.160
-46.115	29.475	2007.744	1685.385
-45.100	29.358	2004.652	1681.655
-44.086	29.284	2002.889	1679.433
-43.071	29.272	2000.133	1676.946
-42.057	29.184	1998.117	1674.394
-41.042	29.287	1996.138	1673.605
-40.027	29.255	1994.716	1672.052
-39.013	29.360	1991.795	1670.486
-37.998	29.297	1990.633	1668.877
-36.984	29.398	1987.984	1667.508
-35.969	29.324	1986.204	1665.274
-34.954	29.336	1984.503	1663.895
-33.940	29.400	1983.151	1663.268
-32.925	29.361	1981.147	1661.173
-31.911	29.453	1979.471	1660.529
-30.896	29.416	1978.314	1659.164
-29.881	29.461	1976.139	1657.674
-28.867	29.409	1975.005	1656.190
-27.852	29.498	1972.912	1655.168
-26.838	29.406	1971.302	1652.928
-25.823	29.447	1969.208	1651.472
-24.809	29.421	1967.621	1649.845
-23.794	29.393	1965.740	1647.953
-22.779	29.421	1964.287	1646.915
-21.765	29.355	1962.449	1644.722
-20.750	29.416	1961.099	1644.068
-19.736	29.411	1959.748	1642.830
-18.721	29.438	1957.676	1641.264
-17.706	29.456	1955.600	1639.624
-16.692	29.386	1954.190	1637.753
-15.677	29.471	1952.065	1636.662
-14.663	29.448	1950.720	1635.265
-13.648	29.481	1949.420	1634.397
-12.633	29.425	1948.699	1633.234
-11.619	29.482	1947.058	1632.296
-10.604	29.395	1945.815	1630.427
-9.590	29.328	1944.849	1628.956
-8.575	29.386	1943.071	1627.919
-7.560	29.488	1941.725	1627.620
-6.546	29.433	1940.492	1626.036
-5.531	29.452	1939.204	1625.062
-4.517	29.354	1938.322	1623.393
-3.502	29.404	1937.222	1622.848
-2.487	29.384	1935.878	1621.483
-1.473	29.445	1934.629	1620.906
-0.458	29.606	1929.706	1618.136
0.556	27.893	1911.239	1593.563
1.571	24.325	1893.647	1547.849
2.586	20.828	1917.251	1536.212
3.600	20.045	1953.732	1558.266
4.615	19.871	1949.548	1553.232
5.629	18.050	1855.390	1462.511
6.644	14.372	1747.880	1347.936
7.659	12.249	1715.069	1305.652
8.673	11.977	1712.204	1301.191
9.688	11.982	1710.298	1299.669
10.702	11.882	1709.580	1298.217
11.717	11.829	1705.963	1294.936
12.731	12.130	1704.282	1295.921
13.746	14.689	1710.174	1320.554
14.761	17.615	1715.876	1348.021
15.775	18.159	1714.583	1351.183
16.790	17.381	1711.512	1342.510
17.804	16.376	1708.160	1331.841
18.819	15.298	1704.940	1320.728
19.834	14.651	1702.182	1313.386
20.848	14.249	1700.662	1308.933
21.863	14.027	1698.905	1305.724
22.877	13.735	1697.539	1302.265
23.892	13.515	1696.059	1299.287
24.907	13.412	1694.885	1297.463
25.921	13.548	1693.104	1297.053
26.936	13.462	1692.591	1295.874
27.950	13.469	1692.420	1295.683
28.965	13.479	1691.602	1295.017
29.980	13.545	1690.937	1294.914
30.994	13.658	1689.533	1294.604
32.009	13.660	1688.457	1293.681
33.023	13.693	1687.490	1293.079
34.038	13.766	1686.225	1292.569
35.053	13.706	1685.376	1291.333
36.067	13.706	1683.651	1289.897
37.082	13.585	1682.836	1288.221
38.096	13.619	1681.972	1287.710
39.111	13.681	1681.083	1287.395
40.126	13.703	1680.194	1286.774
41.140	13.629	1679.224	1285.343
42.155	13.604	1677.698	1283.862
43.169	13.420	1676.573	1281.466
44.184	13.367	1675.214	1279.907
45.199	13.334	1674.392	1278.906
46.213	13.416	1672.781	1278.199
47.228	13.405	1671.545	1277.053
48.242	13.540	1670.204	1276.961
49.257	13.478	1669.472	1275.810
50.271	13.554	1668.532	1275.560
51.286	13.569	1666.423	1273.952
52.301	13.618	1665.182	1273.270
53.315	13.485	1664.332	1271.485
54.330	13.625	1662.213	1270.824
55.344	13.446	1661.087	1268.477
56.359	13.437	1659.281	1266.919
57.374	13.521	1658.324	1266.723
58.388	13.492	1657.104	1265.455
59.403	13.442	1655.592	1263.809
60.417	13.325	1654.924	1262.291
61.432	13.312	1653.528	1261.018
62.447	13.364	1652.007	1260.143
63.461	13.328	1651.179	1259.126
64.476	13.348	1650.272	1258.471
65.490	13.238	1648.570	1256.226
66.505	13.265	1647.848	1255.768
67.520	13.279	1647.118	1255.211
68.534	13.374	1645.645	1254.698
69.549	13.427	1644.340	1253.995
70.563	13.406	1642.932	1252.650
71.578	13.407	1642.252	1252.028
72.593	13.347	1640.773	1250.332
73.607	13.309	1640.092	1249.420
74.622	13.148	1639.282	1247.473
75.636	13.220	1638.001	1246.929
76.651	13.214	1637.364	1246.292
77.666	13.275	1636.342	1245.861
78.680	13.309	1635.149	1245.102
79.695	13.278	1634.554	1244.304
80.709	13.265	1633.712	1243.454
81.724	13.356	1632.508	1243.112
82.739	13.286	1632.256	1242.284
83.753	13.377	1631.163	1242.031
84.768	13.406	1630.546	1241.667
85.782	13.475	1629.558	1241.322
86.797	13.530	1628.776	1241.026
87.812	13.546	1627.493	1240.060
88.826	13.493	1626.242	1238.602
89.841	13.444	1625.186	1237.321
90.855	13.469	1624.251	1236.684
91.870	13.543	1622.718	1235.959
92.884	13.569	1622.229	1235.672
93.899	13.563	1620.847	1234.465
94.914	13.559	1619.862	1233.576
95.928	13.562	1618.406	1232.381
96.943	13.677	1616.757	1231.869
97.957	13.727	1615.134	1230.898
98.972	13.648	1614.036	1229.364
99.987	13.666	1612.307	1228.073
101.001	13.601	1610.964	1226.456
102.016	13.492	1609.650	1224.547
103.030	13.551	1608.189	1223.763
104.045	13.590	1606.689	1222.800
105.060	13.597	1605.568	1221.887
106.074	13.598	1603.778	1220.430
107.089	13.444	1602.159	1217.955
108.103	13.441	1600.403	1216.485
109.118	13.404	1599.303	1215.271
110.133	13.379	1597.822	1213.853
111.147	13.351	1596.715	1212.701
112.162	13.397	1595.331	1211.878
113.176	13.439	1593.342	1210.571
114.191	13.452	1592.308	1209.772
115.206	13.479	1591.084	1208.932
116.220	13.569	1589.642	1208.386
117.235	13.372	1588.647	1206.090
118.249	13.437	1587.084	1205.269
119.264	13.379	1585.752	1203.727
120.279	13.393	1584.142	1202.503
121.293	13.400	1582.971	1201.558
122.308	13.368	1581.459	1200.070
123.322	13.399	1579.720	1198.867
124.337	13.436	1578.160	1197.849
125.352	13.350	1577.125	1196.331
126.366	13.290	1576.297	1195.167
127.381	13.263	1575.247	1194.069
128.395	13.332	1574.029	1193.542
129.410	13.358	1572.627	1192.557
130.424	13.423	1570.607	1191.390
131.439	13.333	1569.628	1189.891
132.454	13.412	1568.322	1189.368
133.468	13.438	1566.955	1188.409
134.483	13.510	1565.480	1187.700
135.497	13.472	1564.497	1186.577
136.512	13.505	1562.787	1185.412
137.527	13.509	1561.472	1184.341
138.541	13.496	1560.222	1183.196
139.556	13.506	1558.800	1182.081
140.570	13.531	1556.998	1180.786
141.585	13.580	1555.900	1180.203
142.600	13.586	1554.746	1179.266
143.614	13.593	1553.698	1178.412
144.629	13.639	1552.896	1178.030
145.643	13.691	1551.176	1176.988
146.658	13.797	1549.626	1176.457
147.673	13.801	1547.957	1175.120
148.687	13.748	1546.206	1173.309
149.702	13.650	1545.448	1171.938
150.716	13.629	1543.810	1170.446
151.731	13.646	1542.316	1169.324
152.746	13.594	1541.179	1167.993
153.760	13.622	1539.148	1166.553
154.775	13.735	1537.994	1166.364
155.789	13.658	1536.869	1164.871
156.804	13.707	1535.663	1164.194
157.819	13.703	1534.613	1163.266
158.833	13.810	1532.969	1162.669
159.848	13.830	1531.940	1161.928
160.862	13.857	1530.888	1161.213
161.877	13.905	1529.621	1160.487
162.892	13.825	1528.758	1159.167
163.906	13.905	1527.078	1158.348
164.921	13.711	1526.032	1156.100
165.935	13.754	1524.957	1155.488
166.950	13.710	1523.990	1154.349
167.964	13.765	1522.538	1153.525
168.979	13.848	1521.460	1153.184
169.994	13.771	1520.757	1152.013
171.008	13.750	1519.883	1151.106
172.023	13.788	1518.829	1150.469
173.037	13.873	1517.435	1149.900
174.052	13.910	1516.388	1149.263
175.067	13.989	1514.950	1148.611
176.081	13.904	1514.140	1147.314
177.096	13.877	1512.653	1145.898
178.110	13.877	1511.052	1144.584
179.125	13.867	1509.907	1143.542
180.140	13.973	1508.863	1143.379
181.154	13.824	1508.212	1141.766
182.169	13.821	1506.944	1140.682
183.183	13.933	1505.513	1140.265
184.198	14.020	1504.208	1139.777
185.213	14.019	1503.483	1139.119
186.227	14.132	1502.118	1138.755
187.242	14.062	1501.431	1137.655
188.256	14.098	1500.258	1136.912
189.271	14.118	1499.489	1136.369
190.286	14.180	1498.056	1135.600
191.300	14.033	1497.541	1134.109
192.315	13.937	1495.622	1131.901
193.329	13.898	1494.255	1130.497
194.344	13.880	1493.301	1129.558
195.359	13.921	1492.264	1128.948
196.373	14.024	1491.147	1128.703
197.388	14.009	1490.423	1127.955
198.402	14.102	1489.298	1127.634
199.417	14.054	1488.318	1126.465
200.432	14.218	1487.171	1126.612
201.446	14.353	1486.098	1126.612
202.461	14.254	1485.355	1125.277
203.475	14.371	1483.988	1124.935
204.490	14.401	1482.675	1124.038
205.504	14.323	1481.977	1122.885
206.519	14.328	1480.680	1121.837
207.534	14.301	1479.813	1120.898
208.548	14.302	1478.531	1119.834
209.563	14.277	1477.421	1118.728
210.577	14.271	1476.470	1117.871
211.592	14.345	1475.286	1117.373
212.607	14.364	1474.820	1117.044
213.621	14.423	1474.070	1116.773
214.636	14.377	1473.069	1115.612
215.650	14.491	1471.898	1115.387
216.665	14.372	1471.586	1114.256
217.680	14.465	1470.181	1113.711
218.694	14.445	1469.783	1113.179
219.709	14.531	1468.406	1112.610
220.723	14.497	1467.782	1111.816
221.738	14.613	1466.164	1111.262
222.753	14.607	1465.168	1110.370
223.767	14.596	1464.220	1109.482
224.782	14.565	1463.603	1108.708
225.796	14.570	1462.442	1107.765
226.811	14.556	1461.749	1107.048
227.826	14.615	1461.159	1106.897
228.840	14.762	1459.858	1106.783
229.855	14.630	1459.110	1105.244
230.869	14.671	1457.875	1104.484
231.884	14.597	1457.234	1103.410
232.899	14.584	1455.908	1102.226
233.913	14.619	1454.856	1101.564
234.928	14.502	1453.658	1099.788
235.942	14.467	1452.511	1098.588
236.957	14.592	1450.620	1097.884
237.972	14.594	1449.397	1096.878
238.986	14.556	1448.587	1095.915
240.001	14.573	1448.105	1095.566
241.015	14.650	1447.069	1095.192
242.030	14.643	1445.630	1093.961
243.045	14.648	1444.284	1092.874
244.059	14.709	1443.553	1092.628
245.074	14.746	1442.680	1092.109
246.088	14.662	1441.778	1090.778
247.103	14.751	1441.112	1090.763
248.117	14.861	1440.562	1090.967
249.132	14.887	1439.666	1090.363
250.147	14.887	1438.819	1089.622
251.161	15.084	1437.959	1090.156
252.176	14.996	1437.432	1089.089
253.190	15.086	1436.704	1089.026
254.205	15.189	1435.444	1088.647
255.220	15.180	1434.968	1088.126
256.234	15.082	1434.555	1087.086
257.249	15.165	1433.466	1086.698
258.263	15.148	1432.755	1085.957
259.278	15.187	1431.920	1085.481
260.293	15.227	1430.623	1084.658
261.307	15.208	1429.943	1083.922
262.322	15.209	1429.482	1083.488
263.336	15.369	1428.278	1083.511
264.351	15.272	1427.530	1082.219
265.366	15.292	1426.449	1081.432
266.380	15.363	1425.550	1081.115
267.395	15.349	1424.607	1080.216
268.409	15.300	1423.756	1079.160
269.424	15.377	1422.564	1078.654
270.439	15.383	1421.486	1077.783
271.453	15.364	1420.137	1076.537
272.468	15.353	1420.101	1076.347
273.482	15.327	1419.281	1075.460
274.497	15.335	1417.586	1074.132
275.512	15.263	1417.336	1073.389
276.526	15.297	1416.316	1072.741
277.541	15.410	1415.198	1072.519
278.555	15.322	1414.875	1071.619
279.570	15.358	1414.063	1071.138
280.585	15.444	1412.213	1070.192
281.599	15.394	1411.876	1069.523
282.614	15.470	1410.710	1069.030
283.628	15.495	1409.451	1068.140
284.643	15.392	1408.900	1066.968
285.657	15.463	1407.625	1066.359
286.672	15.416	1406.996	1065.490
287.687	15.507	1405.591	1064.909
288.701	15.568	1404.878	1064.661
289.716	15.549	1404.168	1063.913
290.730	15.551	1403.139	1063.048
291.745	15.583	1401.875	1062.202
292.760	15.490	1401.119	1060.943
293.774	15.565	1400.340	1060.734
294.789	15.522	1399.294	1059.578
295.803	15.680	1398.025	1059.522
296.818	15.721	1397.514	1059.294
297.833	15.667	1396.011	1057.721
298.847	15.718	1395.281	1057.398
299.862	15.688	1394.083	1056.208
300.876	15.617	1393.906	1055.538
301.891	15.648	1392.710	1054.730
302.906	15.768	1391.726	1054.643
303.920	15.832	1391.035	1054.428
304.935	15.792	1390.357	1053.571
305.949	15.832	1389.363	1052.975
306.964	15.944	1388.560	1052.973
307.979	15.920	1388.035	1052.334
308.993	15.837	1387.567	1051.366
310.008	15.829	1385.947	1049.996
311.022	15.912	1384.885	1049.616
312.037	15.856	1384.082	1048.566
313.052	15.987	1383.196	1048.613
314.066	15.990	1381.740	1047.438
315.081	15.944	1381.050	1046.534
316.095	15.854	1379.787	1044.925
317.110	15.891	1378.809	1044.321
318.125	15.970	1377.110	1043.436
319.139	15.917	1376.697	1042.700
320.154	15.818	1376.208	1041.626
321.168	15.813	1374.980	1040.574
322.183	15.877	1373.816	1039.998
323.197	15.963	1372.908	1039.747
324.212	15.975	1372.174	1039.173
325.227	15.972	1371.435	1038.502
326.241	16.019	1370.249	1037.800
327.256	15.925	1369.799	1036.793
328.270	15.888	1369.229	1036.041
329.285	15.988	1368.156	1035.750
330.300	16.003	1366.962	1034.847
331.314	15.998	1366.353	1034.268
332.329	16.000	1365.049	1033.201
333.343	15.981	1364.426	1032.516
334.358	16.074	1363.276	1032.129
335.373	16.045	1362.761	1031.470
336.387	16.121	1361.657	1031.006
337.402	16.165	1360.912	1030.621
338.416	16.211	1360.107	1030.201
339.431	16.237	1359.888	1030.104
340.446	16.225	1359.050	1029.303
341.460	16.236	1357.727	1028.276
342.475	16.210	1357.364	1027.752
343.489	16.299	1356.440	1027.500
344.504	16.468	1355.208	1027.506
345.519	16.340	1354.548	1026.136
346.533	16.397	1353.492	1025.591
347.548	16.465	1352.359	1025.056
348.562	16.482	1351.502	1024.417
349.577	16.505	1351.038	1024.114
350.592	16.506	1349.796	1023.089
351.606	16.520	1349.137	1022.585
352.621	16.326	1348.103	1020.538
353.635	16.372	1346.954	1019.856
354.650	16.369	1346.133	1019.126
355.665	16.224	1345.750	1017.870
356.679	16.593	1343.809	1018.534
357.694	16.448	1342.965	1016.934
358.708	16.398	1342.370	1016.089
359.723	16.460	1341.182	1015.474
360.738	16.503	1339.971	1014.723
361.752	16.596	1338.553	1014.118
362.767	16.551	1337.934	1013.293
363.781	16.532	1337.344	1012.642
364.796	16.616	1336.339	1012.295
365.810	16.614	1335.449	1011.518
366.825	16.655	1334.922	1011.273
367.840	16.663	1334.399	1010.835
368.854	16.791	1333.487	1010.818
369.869	16.696	1333.187	1009.933
370.883	16.815	1332.065	1009.708
371.898	16.832	1331.113	1008.994
372.913	16.775	1330.152	1007.836
373.927	16.713	1329.423	1006.828
374.942	16.811	1328.636	1006.725
375.956	16.868	1328.100	1006.570
376.971	16.792	1327.217	1005.360
377.986	16.869	1326.138	1004.912
379.000	16.894	1325.229	1004.283
380.015	16.939	1324.660	1004.026
381.029	16.918	1323.845	1003.196
382.044	17.039	1323.251	1003.370
383.059	16.993	1322.345	1002.323
384.073	16.987	1322.060	1001.985
385.088	16.974	1321.544	1001.427
386.102	17.072	1320.652	1001.239
387.117	17.115	1319.598	1000.605
388.132	16.949	1319.087	999.150
389.146	16.952	1318.138	998.365
390.161	16.948	1317.418	997.707
391.175	16.962	1316.657	997.126
392.190	16.974	1315.592	996.299
393.205	16.967	1314.960	995.692
394.219	17.134	1313.847	995.742
395.234	17.059	1312.772	994.398
396.248	17.108	1311.279	993.464
397.263	17.159	1309.718	992.496
398.278	17.009	1308.898	990.907
399.292	17.008	1307.735	989.933
400.307	17.030	1306.696	989.191
401.321	17.134	1305.095	988.497
402.336	17.034	1304.684	987.515
403.350	16.989	1303.707	986.423
404.365	16.990	1302.686	985.569
405.380	17.120	1301.417	985.280
406.394	17.148	1300.759	984.853
407.409	17.175	1300.120	984.443
408.423	17.226	1299.404	984.105
409.438	17.199	1298.867	983.458
410.453	17.325	1298.274	983.648
411.467	17.403	1297.328	983.294
412.482	17.483	1296.775	983.250
413.496	17.399	1296.436	982.423
414.511	17.539	1295.190	982.201
415.526	17.360	1294.623	980.654
416.540	17.565	1293.553	980.937
417.555	17.495	1293.177	980.162
418.569	17.561	1292.440	979.894
419.584	17.542	1292.079	979.426
420.599	17.623	1291.518	979.378
421.613	95.100	1353.712	1469.839
422.628	93.336	1362.720	1469.924
