DTS Sentinel unit serial number:	SN413079Multiplexer serial number:	ORYXHardware model number:	OX4-SRSoftware version number:	ORYX F/W v4.00 Oryx Data Collector v3.7.2.0data status	okinstallation	princeton_trtdifferential loss correction	single-endedforward channel	channel 4reverse channel	N/Adate	2019/09/16time	01:33:35forward acquisition time	60.00reverse acquisition time	0.00gamma	496.2192k internal	0.2323k external	0.2323temperature offset calibration	0.9968default loss term (dB/km)	0.3790temperature slope calibration	1.0000multiplexer offset coefficient	1.0000multiplexer slope coefficient	1.0000fibre end	0.00T internal ref (°C)	27.31T ext. ref 1 (°C)	9.93T ext. ref 2 (°C)	22.12length (m)	temperature (°C)	Stokes	anti-Stokes-747.200	-131.008	0.230	-0.031
-746.185	-200.000	-0.028	0.240
-745.171	368.466	-0.070	-0.142
-744.156	153.560	0.345	0.477
-743.142	-200.000	-0.019	0.325
-742.127	800.000	-0.080	0.293
-741.112	800.000	-0.054	-0.237
-740.098	377.652	-0.285	0.589
-739.083	-200.000	0.025	-0.192
-738.069	-200.000	-0.054	0.253
-737.054	303.169	-0.165	0.308
-736.039	20.729	0.260	0.213
-735.025	-200.000	0.019	0.140
-734.010	-15.220	-0.270	-0.174
-732.996	-182.911	-0.237	-0.004
-731.981	47.162	-0.093	-0.087
-730.966	-2.227	0.243	-0.172
-729.952	103.184	-0.162	0.192
-728.937	-153.353	-0.110	0.008
-727.923	-53.323	0.330	0.153
-726.908	-90.822	-0.227	0.066
-725.894	-200.000	0.002	0.116
-724.879	-2.357	-0.281	0.199
-723.864	-58.929	-0.195	0.085
-722.850	800.000	-0.093	-0.310
-721.835	164.257	0.023	-0.032
-720.821	700.084	-0.082	-0.217
-719.806	37.075	-0.234	0.209
-718.791	-200.000	-0.038	-0.185
-717.777	-65.745	0.098	-0.040
-716.762	-147.406	-0.227	0.019
-715.748	-155.481	0.129	0.008
-714.733	356.102	0.098	0.196
-713.718	-130.720	-0.097	0.013
-712.704	38.983	0.136	-0.122
-711.689	-91.307	-0.242	-0.070
-710.675	96.044	-0.109	0.125
-709.660	-84.119	0.231	-0.074
-708.645	-24.795	-0.205	0.123
-707.631	-158.042	-0.298	-0.018
-706.616	398.882	-0.026	-0.056
-705.602	49.957	-0.141	0.134
-704.587	-200.000	0.024	-0.262
-703.572	55.103	0.401	-0.391
-702.558	-117.763	-0.153	-0.028
-701.543	123.790	-0.289	-0.366
-700.529	30.370	0.007	0.006
-699.514	127.926	0.189	0.242
-698.499	291.453	0.048	0.089
-697.485	-24.313	-0.287	0.173
-696.470	-200.000	-0.135	-0.000
-695.456	177.272	0.143	0.210
-694.441	-2.880	-0.061	0.043
-693.426	85.153	-0.191	-0.211
-692.412	91.800	-0.236	0.267
-691.397	449.068	0.119	-0.264
-690.383	-200.000	-0.011	-0.219
-689.368	-22.717	0.313	0.190
-688.354	-173.585	-0.255	-0.008
-687.339	90.031	-0.203	-0.229
-686.324	-77.487	-0.170	0.060
-685.310	-200.000	-0.020	-0.113
-684.295	109.680	0.173	-0.209
-683.281	-200.000	-0.036	0.216
-682.266	93.237	-0.173	0.197
-681.251	-200.000	0.065	0.503
-680.237	56.748	-0.311	0.306
-679.222	23.805	-0.122	-0.101
-678.208	23.179	-0.225	-0.186
-677.193	-141.633	-0.130	-0.013
-676.178	164.842	0.073	0.103
-675.164	-81.760	0.090	-0.030
-674.149	328.116	-0.150	-0.290
-673.135	-33.069	-0.249	0.139
-672.120	-200.000	0.001	0.089
-671.105	-200.000	-0.023	0.398
-670.091	800.000	-0.076	-0.220
-669.076	-200.000	0.000	-0.294
-668.062	97.767	-0.135	-0.156
-667.047	-58.029	0.152	-0.067
-666.032	-200.000	0.013	0.085
-665.018	38.803	-0.233	-0.210
-664.003	-162.363	0.077	0.004
-662.989	-31.834	-0.257	-0.145
-661.974	-200.000	-0.063	-0.328
-660.959	394.193	0.119	-0.249
-659.945	-200.000	-0.008	-0.096
-658.930	-200.000	0.004	-0.454
-657.916	181.763	-0.201	-0.298
-656.901	-200.000	-0.007	-0.200
-655.886	-7.976	-0.330	-0.224
-654.872	-200.000	0.049	0.242
-653.857	-86.712	-0.146	0.045
-652.843	-36.042	-0.145	0.079
-651.828	644.317	0.088	-0.227
-650.814	149.889	-0.122	-0.166
-649.799	-73.986	-0.075	0.027
-648.784	-200.000	-0.007	0.149
-647.770	-26.340	-0.197	-0.116
-646.755	625.476	-0.013	-0.034
-645.741	-2.351	-0.231	-0.163
-644.726	-200.000	0.020	-0.124
-643.711	-200.000	-0.002	0.120
-642.697	-200.000	-0.005	0.052
-641.682	170.589	-0.141	0.204
-640.668	-60.738	-0.299	-0.128
-639.653	-200.000	-0.025	0.164
-638.638	-109.853	-0.251	-0.053
-637.624	382.871	0.142	-0.294
-636.609	-154.659	-0.362	-0.024
-635.595	10.620	0.256	-0.197
-634.580	296.099	-0.131	0.242
-633.565	159.878	0.095	0.133
-632.551	204.774	-0.141	-0.220
-631.536	800.000	-0.061	0.178
-630.522	800.000	0.015	0.048
-629.507	18.204	-0.228	0.183
-628.492	374.906	0.066	0.135
-627.478	-45.877	0.329	-0.163
-626.463	148.226	-0.259	0.352
-625.449	99.759	0.155	0.181
-624.434	285.739	0.005	0.009
-623.419	206.429	-0.184	-0.288
-622.405	-109.018	-0.482	-0.103
-621.390	800.000	-0.022	-0.072
-620.376	-104.207	0.098	0.023
-619.361	-152.508	-0.224	-0.016
-618.346	347.552	0.045	-0.089
-617.332	192.739	0.205	-0.311
-616.317	-54.988	0.179	-0.081
-615.303	-200.000	0.028	0.446
-614.288	-200.000	0.066	-0.369
-613.273	-134.758	0.300	-0.037
-612.259	-3.027	0.167	0.117
-611.244	18.349	-0.245	-0.196
-610.230	800.000	-0.039	0.167
-609.215	-200.000	-0.019	-0.102
-608.201	488.015	-0.119	0.272
-607.186	445.016	0.058	-0.127
-606.171	35.502	-0.175	0.154
-605.157	-28.170	0.259	0.150
-604.142	-60.162	0.341	0.146
-603.128	-200.000	-0.074	-0.544
-602.113	-200.000	0.007	0.422
-601.098	-110.587	-0.316	0.066
-600.084	297.196	0.118	0.218
-599.069	-1.633	-0.184	-0.130
-598.055	179.523	0.118	-0.173
-597.040	-95.535	-0.351	0.094
-596.025	10.274	0.016	0.012
-595.011	-200.000	-0.002	-0.167
-593.996	-56.561	0.380	0.169
-592.982	4.943	0.206	0.153
-591.967	391.957	-0.155	-0.323
-590.952	244.245	-0.040	-0.068
-589.938	188.100	0.104	0.156
-588.923	-99.643	-0.299	-0.075
-587.909	96.264	0.077	0.088
-586.894	-66.937	-0.304	0.120
-585.879	-80.762	-0.145	0.048
-584.865	-35.888	0.133	-0.072
-583.850	49.220	0.093	0.087
-582.836	-3.260	0.107	-0.075
-581.821	-129.761	0.221	0.031
-580.806	274.260	-0.032	-0.057
-579.792	-4.657	0.133	0.092
-578.777	-108.438	-0.331	0.071
-577.763	98.918	0.231	0.268
-576.748	-200.000	-0.009	0.079
-575.733	-200.000	-0.010	0.141
-574.719	414.036	-0.066	-0.140
-573.704	-200.000	0.019	-0.118
-572.690	-82.234	0.271	0.089
-571.675	-200.000	-0.011	-0.125
-570.661	8.230	-0.054	0.041
-569.646	225.250	0.144	-0.235
-568.631	201.474	0.164	-0.253
-567.617	-200.000	0.010	-0.247
-566.602	-80.721	0.080	0.027
-565.588	188.939	-0.198	-0.297
-564.573	-52.405	-0.307	-0.142
-563.558	-200.000	-0.001	0.203
-562.544	-200.000	0.029	-0.304
-561.529	-145.481	-0.291	0.026
-560.515	-83.187	-0.379	0.122
-559.500	97.843	-0.056	-0.065
-558.485	800.000	-0.072	-0.228
-557.471	-200.000	0.010	-0.228
-556.456	514.146	0.048	-0.111
-555.442	-26.721	-0.107	-0.063
-554.427	-70.129	-0.374	-0.142
-553.412	385.810	0.101	-0.209
-552.398	-200.000	0.033	-0.567
-551.383	-52.648	0.057	0.026
-550.369	800.000	0.047	-0.178
-549.354	-129.094	-0.214	0.030
-548.339	-200.000	0.003	0.232
-547.325	141.537	-0.165	-0.219
-546.310	-200.000	0.008	0.453
-545.296	-100.060	-0.219	-0.055
-544.281	-200.000	0.010	0.280
-543.266	202.756	0.212	0.329
-542.252	379.118	0.194	-0.397
-541.237	-200.000	-0.007	0.057
-540.223	-161.745	-0.261	-0.013
-539.208	203.451	0.162	0.251
-538.193	-104.742	0.193	-0.045
-537.179	-129.619	-0.161	0.022
-536.164	-108.197	-0.081	-0.017
-535.150	228.818	0.130	-0.212
-534.135	-200.000	0.104	-0.509
-533.121	24.298	0.122	-0.101
-532.106	800.000	-0.061	-0.196
-531.091	447.865	0.184	-0.406
-530.077	-62.567	-0.049	0.020
-529.062	712.319	0.043	0.115
-528.048	20.225	-0.157	-0.127
-527.033	629.319	0.036	-0.092
-526.018	90.851	0.084	-0.095
-525.004	-200.000	-0.042	-0.571
-523.989	-200.000	0.005	0.447
-522.975	784.128	0.157	-0.430
-521.960	-90.949	0.086	-0.025
-520.945	-139.612	0.286	-0.031
-519.931	-60.272	-0.094	0.040
-518.916	800.000	-0.056	-0.159
-517.902	4.127	0.357	-0.261
-516.887	-110.118	-0.233	0.049
-515.872	522.409	0.051	0.120
-514.858	249.340	-0.226	0.383
-513.843	-200.000	0.025	0.292
-512.829	-174.098	-0.072	-0.002
-511.814	-146.773	-0.293	-0.025
-510.799	-89.455	-0.177	0.052
-509.785	-32.193	-0.314	-0.175
-508.770	-200.000	-0.023	0.166
-507.756	256.182	0.065	-0.112
-506.741	480.200	0.094	0.214
-505.726	81.225	-0.090	0.097
-504.712	177.131	0.076	0.111
-503.697	-38.320	-0.116	-0.062
-502.683	-76.056	0.152	-0.054
-501.668	800.000	0.065	0.198
-500.653	-200.000	0.024	-0.131
-499.639	-37.007	-0.236	-0.126
-498.624	-152.579	-0.091	0.006
-497.610	-200.000	0.013	-0.094
-496.595	196.268	-0.215	-0.327
-495.581	-5.864	0.132	0.090
-494.566	-71.202	-0.037	0.014
-493.551	-200.000	0.046	0.269
-492.537	-60.394	0.189	-0.080
-491.522	25.549	-0.075	-0.063
-490.508	113.463	-0.194	0.236
-489.493	-86.692	-0.145	0.044
-488.478	503.575	0.062	0.143
-487.464	259.771	-0.067	0.115
-486.449	-200.000	-0.036	-0.183
-485.435	-21.898	0.237	-0.144
-484.420	-28.608	-0.365	-0.210
-483.405	800.000	-0.028	-0.110
-482.391	-0.919	0.242	0.171
-481.376	800.000	-0.037	-0.145
-480.362	-66.185	0.233	0.093
-479.347	-25.308	0.351	-0.208
-478.332	6.230	-0.162	-0.120
-477.318	-43.472	0.119	-0.060
-476.303	372.110	0.122	0.248
-475.289	540.053	0.055	-0.130
-474.274	448.286	-0.022	-0.048
-473.259	112.535	-0.162	0.196
-472.245	800.000	0.079	0.334
-471.230	-47.795	0.282	0.136
-470.216	326.302	-0.249	0.476
-469.201	-86.019	-0.354	0.109
-468.186	-36.830	-0.085	0.046
-467.172	-200.000	0.008	-0.068
-466.157	800.000	-0.097	-0.317
-465.143	143.055	-0.046	-0.062
-464.128	398.008	-0.266	-0.555
-463.113	-41.074	0.296	-0.153
-462.099	377.294	-0.106	-0.216
-461.084	729.522	0.103	-0.275
-460.070	-13.399	0.226	0.146
-459.055	-200.000	0.049	0.261
-458.040	-62.291	-0.347	0.144
-457.026	-132.199	0.512	0.066
-456.011	50.956	-0.097	0.092
-454.997	-110.388	-0.216	-0.045
-453.982	99.829	-0.162	0.187
-452.968	800.000	-0.040	-0.157
-451.953	219.485	0.106	-0.169
-450.938	800.000	-0.027	0.087
-449.924	73.452	0.330	0.345
-448.909	138.863	-0.157	0.206
-447.895	224.190	-0.073	0.117
-446.880	-78.531	-0.084	0.029
-445.865	-35.622	-0.283	-0.153
-444.851	-200.000	0.038	0.213
-443.836	800.000	-0.059	0.172
-442.822	-104.529	0.375	-0.086
-441.807	-108.410	-0.200	0.043
-440.792	800.000	-0.014	-0.049
-439.778	-90.608	-0.112	0.032
-438.763	-19.547	0.208	-0.128
-437.749	75.237	0.174	0.183
-436.734	-200.000	0.028	-0.266
-435.719	-200.000	0.072	0.000
-434.705	-200.000	-0.021	-0.095
-433.690	800.000	0.024	0.083
-432.676	-142.178	-0.093	-0.009
-431.661	94.220	0.193	-0.219
-430.646	120.200	-0.191	0.237
-429.632	-138.877	-0.190	0.021
-428.617	585.998	-0.096	-0.236
-427.603	210.793	0.191	-0.300
-426.588	226.830	-0.130	0.210
-425.573	-71.094	0.193	-0.072
-424.559	800.000	-0.011	0.047
-423.544	338.488	-0.117	0.227
-422.530	246.048	0.058	0.097
-421.515	800.000	0.130	-0.397
-420.500	104.737	0.117	-0.137
-419.486	-200.000	0.035	0.325
-418.471	-200.000	0.015	0.181
-417.457	-200.000	-0.025	0.194
-416.442	-84.414	0.155	0.049
-415.428	-112.332	-0.260	0.052
-414.413	-42.542	-0.082	-0.041
-413.398	-200.000	0.029	-0.155
-412.384	-200.000	0.032	-0.177
-411.369	384.935	0.093	0.191
-410.355	-61.419	-0.086	-0.036
-409.340	-40.780	0.339	0.175
-408.325	-200.000	0.080	0.625
-407.311	-121.196	0.279	-0.047
-406.296	-38.688	0.170	-0.089
-405.282	56.595	0.222	0.216
-404.267	151.894	0.058	0.079
-403.252	227.154	0.131	0.212
-402.238	-200.000	0.010	0.154
-401.223	20.852	0.162	-0.131
-400.209	369.569	0.091	-0.185
-399.194	-7.641	-0.033	-0.022
-398.179	-0.637	0.104	0.073
-397.165	49.838	-0.048	-0.045
-396.150	-120.183	0.267	0.046
-395.136	406.234	-0.071	-0.149
-394.121	320.978	-0.075	-0.143
-393.106	-153.482	-0.090	0.006
-392.092	-200.000	-0.023	0.288
-391.077	32.133	-0.339	0.291
-390.063	70.596	0.073	0.075
-389.048	800.000	-0.049	0.205
-388.033	38.643	0.138	0.123
-387.019	73.119	0.158	-0.165
-386.004	-200.000	-0.006	-0.221
-384.990	-56.194	0.534	0.237
-383.975	-75.404	-0.098	-0.035
-382.960	800.000	0.021	-0.087
-381.946	258.239	-0.114	-0.196
-380.931	-22.582	-0.220	0.132
-379.917	61.034	0.436	-0.431
-378.902	111.204	0.112	-0.134
-377.888	578.742	-0.113	0.276
-376.873	-42.089	0.209	0.106
-375.858	220.190	-0.071	0.113
-374.844	34.948	-0.187	0.163
-373.829	-38.300	0.290	-0.153
-372.815	-124.973	0.061	0.009
-371.800	-200.000	0.054	0.380
-370.785	800.000	0.192	-0.537
-369.771	800.000	-0.022	0.066
-368.756	-35.606	0.076	-0.041
-367.742	39.599	-0.260	0.232
-366.727	800.000	-0.083	-0.259
-365.712	800.000	0.094	0.260
-364.698	298.052	-0.011	-0.020
-363.683	-60.220	-0.515	0.219
-362.669	-136.283	-0.222	0.026
-361.654	-79.183	-0.209	0.071
-360.639	-200.000	-0.031	0.318
-359.625	-45.157	-0.066	0.033
-358.610	-107.499	-0.142	0.031
-357.596	-19.428	0.159	0.098
-356.581	-6.595	-0.181	-0.122
-355.566	-32.708	0.269	-0.149
-354.552	393.454	-0.139	0.287
-353.537	31.341	0.234	0.200
-352.523	42.750	-0.092	0.083
-351.508	9.708	-0.411	-0.310
-350.493	211.742	0.017	-0.026
-349.479	-184.367	-0.246	0.004
-348.464	-69.878	-0.089	0.034
-347.450	-9.157	0.190	0.127
-346.435	339.769	0.157	0.305
-345.420	268.904	0.075	-0.132
-344.406	377.999	0.122	0.248
-343.391	-43.347	0.101	-0.051
-342.377	41.346	-0.224	0.201
-341.362	-65.728	-0.265	-0.105
-340.348	-200.000	0.000	-0.108
-339.333	-119.643	-0.173	0.030
-338.318	-77.545	0.185	0.064
-337.304	-200.000	-0.009	0.397
-336.289	158.049	-0.165	0.228
-335.275	431.257	-0.112	-0.241
-334.260	634.728	0.109	-0.276
-333.245	-200.000	0.005	0.119
-332.231	606.604	0.090	-0.224
-331.216	42.310	0.242	-0.219
-330.202	-200.000	-0.069	0.619
-329.187	120.546	-0.125	0.154
-328.172	-120.571	0.205	0.035
-327.158	-161.346	-0.182	0.009
-326.143	-92.708	-0.184	0.051
-325.129	343.433	-0.092	0.179
-324.114	19.489	-0.243	-0.194
-323.099	-169.143	0.217	-0.008
-322.085	447.533	0.179	0.392
-321.070	243.560	-0.025	-0.041
-320.056	66.546	-0.194	-0.196
-319.041	-45.634	-0.367	0.180
-318.026	-200.000	0.021	-0.170
-317.012	-200.000	-0.022	0.306
-315.997	68.907	-0.112	-0.114
-314.983	553.565	0.044	0.104
-313.968	-46.737	0.213	0.103
-312.953	-200.000	-0.015	-0.106
-311.939	-69.675	0.284	0.108
-310.924	-160.694	-0.214	0.011
-309.910	-145.785	0.094	-0.008
-308.895	-96.852	0.140	-0.037
-307.880	84.902	-0.227	-0.247
-306.866	242.877	0.183	0.304
-305.851	-200.000	-0.045	-0.218
-304.837	-9.694	-0.108	-0.071
-303.822	129.800	0.154	-0.196
-302.807	-54.378	0.082	0.037
-301.793	103.089	-0.215	-0.251
-300.778	-154.367	0.036	0.002
-299.764	7.598	0.448	-0.333
-298.749	291.822	-0.098	-0.178
-297.735	-200.000	0.011	-0.235
-296.720	-153.960	0.138	-0.009
-295.705	625.535	0.123	0.308
-294.691	-32.130	-0.272	-0.151
-293.676	236.286	-0.177	0.290
-292.662	195.283	0.090	0.135
-291.647	5.144	-0.254	-0.186
-290.632	-200.000	-0.049	-0.224
-289.618	-143.488	0.083	0.008
-288.603	-86.517	-0.188	0.057
-287.589	-117.932	-0.345	-0.061
-286.574	800.000	0.080	0.224
-285.559	-155.135	0.258	0.017
-284.545	717.342	-0.044	-0.116
-283.530	-200.000	-0.012	0.207
-282.516	800.000	0.128	-0.374
-281.501	-200.000	-0.013	-0.066
-280.486	207.276	-0.078	-0.121
-279.472	161.193	-0.093	0.129
-278.457	4.499	0.194	-0.141
-277.443	-48.139	-0.143	-0.069
-276.428	55.462	-0.222	0.213
-275.413	-25.023	0.284	0.167
-274.399	800.000	-0.102	0.398
-273.384	-41.336	-0.329	-0.168
-272.370	107.596	0.068	-0.080
-271.355	-200.000	-0.037	-0.180
-270.340	-76.957	-0.088	0.031
-269.326	-101.590	0.356	0.086
-268.311	800.000	-0.044	-0.190
-267.297	800.000	0.085	-0.244
-266.282	-162.473	0.257	-0.013
-265.267	-91.520	-0.084	0.024
-264.253	216.855	-0.075	-0.119
-263.238	800.000	0.056	-0.196
-262.224	48.280	-0.172	-0.160
-261.209	58.426	0.279	-0.271
-260.195	673.877	-0.052	0.133
-259.180	147.077	-0.077	0.103
-258.165	259.184	-0.176	0.301
-257.151	800.000	-0.098	0.347
-256.136	315.661	0.042	-0.079
-255.122	271.538	0.158	-0.276
-254.107	79.189	-0.129	-0.137
-253.092	283.761	-0.031	0.055
-252.078	-35.194	0.066	0.036
-251.063	-200.000	-0.012	-0.161
-250.049	-107.341	0.275	0.060
-249.034	-200.000	0.039	0.212
-248.019	-200.000	-0.039	0.298
-247.005	-129.848	0.059	-0.008
-245.990	411.856	0.119	0.250
-244.976	-157.575	0.185	-0.011
-243.961	-200.000	0.068	-0.604
-242.946	43.987	-0.099	-0.090
-241.932	-10.313	0.312	-0.205
-240.917	-99.657	0.238	0.059
-239.903	294.733	-0.071	0.128
-238.888	0.375	0.123	-0.087
-237.873	-200.000	-0.025	0.385
-236.859	486.079	0.030	-0.068
-235.844	24.974	0.222	-0.183
-234.830	422.669	0.039	0.084
-233.815	173.984	0.148	0.212
-232.800	229.240	0.065	0.105
-231.786	-86.947	-0.200	-0.060
-230.771	199.937	-0.068	0.103
-229.757	-175.373	0.268	0.007
-228.742	-200.000	-0.090	-0.523
-227.727	-1.161	-0.234	0.164
-226.713	800.000	0.083	0.235
-225.698	-195.332	0.300	-0.002
-224.684	-200.000	-0.039	-0.225
-223.669	-129.426	-0.101	-0.014
-222.655	-164.553	0.075	0.003
-221.640	-200.000	-0.016	-0.084
-220.625	-200.000	-0.000	-0.214
-219.611	193.430	-0.173	-0.259
-218.596	-200.000	-0.036	0.262
-217.582	17.515	-0.082	0.064
-216.567	-3.720	0.223	-0.153
-215.552	272.791	0.105	0.184
-214.538	-78.493	-0.324	0.110
-213.523	-200.000	-0.019	0.142
-212.509	-200.000	-0.010	0.110
-211.494	800.000	-0.075	-0.239
-210.479	-200.000	-0.026	-0.285
-209.465	-200.000	-0.001	-0.384
-208.450	-46.994	0.190	0.092
-207.436	800.000	0.091	0.249
-206.421	-28.146	-0.404	-0.231
-205.406	-200.000	-0.032	-0.155
-204.392	800.000	0.098	-0.339
-203.377	20.402	0.174	-0.139
-202.363	-200.000	-0.015	0.112
-201.348	800.000	-0.078	-0.272
-200.333	800.000	0.034	0.111
-199.319	-43.190	0.392	-0.196
-198.304	689.812	0.101	-0.262
-197.290	-200.000	-0.044	0.209
-196.275	800.000	0.034	-0.129
-195.260	-78.274	-0.074	0.025
-194.246	-200.000	-0.006	0.527
-193.231	-200.000	0.076	0.354
-192.217	-200.000	0.011	0.184
-191.202	-200.000	0.027	-0.128
-190.187	162.119	0.123	-0.171
-189.173	-123.974	0.317	-0.049
-188.158	-88.520	0.244	-0.072
-187.144	-200.000	0.021	0.097
-186.129	232.313	0.037	-0.060
-185.114	-150.299	0.206	0.016
-184.100	-70.222	0.242	0.091
-183.085	120.896	0.066	-0.081
-182.071	-0.164	0.094	0.066
-181.056	111.301	0.021	-0.025
-180.042	340.066	0.072	-0.138
-179.027	-79.380	-0.085	-0.028
-178.012	-200.000	-0.024	0.163
-176.998	-11.069	-0.440	0.287
-175.983	194.393	-0.095	0.142
-174.969	-95.425	0.132	-0.035
-173.954	-186.294	-0.137	-0.002
-172.939	190.765	0.129	0.191
-171.925	-45.081	-0.432	-0.212
-170.910	180.901	-0.047	-0.068
-169.896	30.877	-0.251	0.213
-168.881	-16.786	-0.166	-0.104
-167.866	-163.242	0.129	-0.006
-166.852	13.724	0.202	0.155
-165.837	427.464	-0.122	-0.259
-164.823	144.472	-0.204	0.269
-163.808	-200.000	-0.048	-0.247
-162.793	-53.904	0.121	0.055
-161.779	66.362	-0.108	-0.108
-160.764	800.000	-0.074	0.255
-159.750	800.000	-0.095	0.342
-158.735	110.061	0.318	0.376
-157.720	-24.313	-0.168	0.099
-156.706	-41.271	0.193	0.098
-155.691	143.271	0.073	0.095
-154.677	251.765	0.164	-0.275
-153.662	149.329	0.191	-0.255
-152.647	-200.000	-0.029	0.197
-151.633	161.846	0.161	-0.223
-150.618	-200.000	0.001	0.154
-149.604	146.893	0.023	-0.030
-148.589	316.276	0.054	0.101
-147.574	800.000	-0.122	-0.451
-146.560	82.073	0.103	0.110
-145.545	171.349	0.070	-0.098
-144.531	-146.715	0.260	-0.022
-143.516	129.923	0.233	0.294
-142.502	-30.953	-0.295	0.164
-141.487	800.000	-0.030	-0.091
-140.472	62.487	0.093	-0.092
-139.458	184.735	-0.026	0.037
-138.443	646.908	-0.070	0.175
-137.429	121.904	0.118	0.145
-136.414	-43.351	-0.167	0.083
-135.399	-47.491	0.167	0.080
-134.385	-27.811	-0.200	-0.114
-133.370	-200.000	-0.017	0.202
-132.356	-2.431	-0.240	-0.166
-131.341	-38.016	-0.020	-0.011
-130.326	-151.028	0.311	-0.023
-129.312	-41.776	0.317	0.160
-128.297	244.033	0.094	0.155
-127.283	76.710	0.070	0.073
-126.268	410.216	-0.054	-0.113
-125.253	-9.591	-0.023	-0.015
-124.239	-43.649	-0.508	0.253
-123.224	4.657	0.055	0.040
-122.210	-200.000	0.008	-0.168
-121.195	777.902	0.125	0.336
-120.180	-53.495	-0.109	-0.049
-119.166	185.443	0.289	0.423
-118.151	427.653	0.149	-0.317
-117.137	52.231	-0.159	-0.150
-116.122	-200.000	0.019	0.143
-115.107	-144.749	0.267	0.024
-114.093	22.411	-0.337	0.272
-113.078	-57.736	0.218	-0.094
-112.064	119.731	0.089	0.109
-111.049	-116.336	0.217	0.040
-110.034	800.000	-0.015	0.048
-109.020	107.576	-0.065	0.076
-108.005	-144.752	-0.241	-0.022
-106.991	149.864	0.269	0.359
-105.976	279.234	0.131	0.230
-104.962	800.000	-0.066	0.270
-103.947	-90.911	0.168	0.048
-102.932	412.380	0.039	0.082
-101.918	110.577	0.027	-0.032
-100.903	-81.436	0.146	-0.047
-99.889	800.000	-0.072	-0.243
-98.874	-117.289	-0.143	-0.026
-97.859	159.117	-0.065	0.089
-96.845	293.480	0.069	0.124
-95.830	-200.000	0.038	-0.265
-94.816	143.805	-0.242	-0.318
-93.801	-16.170	0.212	0.133
-92.786	122.712	-0.153	0.188
-91.772	127.758	0.036	0.045
-90.757	-200.000	-0.001	-0.119
-89.743	-20.569	0.071	-0.043
-88.728	118.904	0.086	-0.104
-87.713	-200.000	0.078	-0.393
-86.699	-111.841	0.413	0.082
-85.684	-18.994	0.211	-0.129
-84.670	-57.701	-0.268	-0.116
-83.655	-200.000	-0.024	0.243
-82.640	-200.000	0.006	0.250
-81.626	-116.736	-0.094	-0.017
-80.611	800.000	0.088	-0.357
-79.597	-141.980	0.322	-0.032
-78.582	296.363	0.269	0.485
-77.567	-35.559	0.354	-0.189
-76.553	-121.541	0.106	-0.017
-75.538	-171.166	-0.219	0.007
-74.524	-141.932	-0.122	0.012
-73.509	800.000	0.058	0.161
-72.494	307.330	-0.079	0.145
-71.480	800.000	0.072	0.256
-70.465	-98.993	0.355	-0.089
-69.451	800.000	-0.109	0.369
-68.436	800.000	0.050	0.153
-67.422	-21.900	-0.118	0.071
-66.407	800.000	0.178	0.512
-65.392	800.000	-0.022	-0.090
-64.378	35.556	0.046	0.040
-63.363	-61.200	0.133	-0.055
-62.349	-200.000	-0.010	-0.289
-61.334	14.909	-1.134	-0.872
-60.319	-43.091	0.991	0.494
-59.305	593.717	-0.496	-1.207
-58.290	308.371	0.794	1.458
-57.276	800.000	0.439	1.744
-56.261	-200.000	113.537	640.623
-55.246	470.778	1499.538	3315.616
-54.232	145.827	2673.609	3523.813
-53.217	93.518	2315.461	2577.245
-52.203	33.577	2064.654	1763.974
-51.188	28.996	1978.769	1649.568
-50.173	27.647	1961.912	1623.445
-49.159	45.617	2019.528	1833.920
-48.144	44.781	2036.054	1841.302
-47.130	29.653	1995.739	1669.386
-46.115	27.390	1984.832	1639.837
-45.100	27.190	1982.673	1636.193
-44.086	27.276	1979.891	1634.605
-43.071	27.095	1978.026	1631.374
-42.057	27.133	1975.292	1629.390
-41.042	27.095	1973.816	1627.769
-40.027	27.272	1971.242	1627.163
-39.013	27.276	1969.293	1625.531
-37.998	27.184	1968.098	1623.660
-36.984	27.216	1966.637	1622.675
-35.969	27.175	1964.523	1620.494
-34.954	27.211	1962.630	1619.192
-33.940	27.253	1961.051	1618.195
-32.925	27.280	1959.619	1617.192
-31.911	27.335	1958.003	1616.285
-30.896	27.310	1956.263	1614.559
-29.881	27.336	1954.584	1613.341
-28.867	27.372	1953.500	1612.705
-27.852	27.325	1951.639	1610.690
-26.838	27.338	1949.505	1608.973
-25.823	27.337	1947.900	1607.578
-24.809	27.336	1945.876	1605.836
-23.794	27.384	1944.404	1604.982
-22.779	27.338	1942.574	1603.005
-21.765	27.402	1940.842	1602.075
-20.750	27.430	1938.621	1600.417
-19.736	27.303	1937.772	1598.539
-18.721	27.328	1936.048	1597.275
-17.706	27.362	1934.268	1596.039
-16.692	27.271	1932.678	1593.867
-15.677	27.435	1930.810	1593.698
-14.663	27.384	1929.555	1592.152
-13.648	27.342	1928.258	1590.654
-12.633	27.377	1927.065	1589.916
-11.619	27.338	1925.743	1588.423
-10.604	27.282	1924.929	1587.198
-9.590	27.247	1923.638	1585.766
-8.575	27.268	1921.817	1584.379
-7.560	27.377	1920.246	1583.970
-6.546	27.393	1919.324	1583.289
-5.531	27.308	1918.191	1581.550
-4.517	27.240	1916.838	1579.785
-3.502	27.231	1916.151	1579.074
-2.487	27.323	1914.411	1578.375
-1.473	27.253	1914.064	1577.422
-0.458	27.428	1908.257	1574.085
0.556	25.308	1889.204	1547.391
1.571	21.359	1871.162	1498.699
2.586	17.719	1893.978	1485.190
3.600	16.865	1929.165	1505.068
4.615	16.805	1923.871	1500.269
5.629	15.247	1831.161	1414.704
6.644	12.038	1726.488	1308.150
7.659	10.165	1695.433	1269.812
8.673	10.043	1692.244	1266.356
9.688	9.883	1691.657	1264.556
10.702	9.894	1690.039	1263.321
11.717	9.879	1686.171	1260.200
12.731	10.087	1684.291	1260.304
13.746	12.448	1689.907	1282.842
14.761	15.913	1696.719	1315.001
15.775	17.420	1698.397	1327.957
16.790	17.164	1696.167	1324.099
17.804	16.150	1692.508	1313.235
18.819	15.115	1689.808	1302.971
19.834	14.386	1687.487	1295.400
20.848	14.109	1685.061	1291.272
21.863	13.783	1683.758	1287.632
22.877	13.610	1682.251	1285.023
23.892	13.376	1680.814	1281.999
24.907	13.207	1680.126	1280.054
25.921	13.262	1678.505	1279.133
26.936	13.291	1677.858	1278.752
27.950	13.393	1676.356	1278.277
28.965	13.348	1676.489	1277.922
29.980	13.281	1675.527	1276.554
30.994	13.413	1674.281	1276.509
32.009	13.482	1673.241	1276.139
33.023	13.539	1672.197	1275.667
34.038	13.568	1671.213	1275.024
35.053	13.484	1670.322	1273.592
36.067	13.440	1669.236	1272.310
37.082	13.487	1668.209	1271.775
38.096	13.495	1666.385	1270.335
39.111	13.437	1666.318	1269.721
40.126	13.582	1665.426	1270.043
41.140	13.476	1664.431	1268.364
42.155	13.363	1662.809	1266.147
43.169	13.275	1661.744	1264.554
44.184	13.241	1659.869	1262.758
45.199	13.204	1659.350	1261.968
46.213	13.209	1657.766	1260.687
47.228	13.224	1656.608	1259.811
48.242	13.360	1655.092	1259.578
49.257	13.307	1654.384	1258.528
50.271	13.344	1653.058	1257.689
51.286	13.350	1651.781	1256.648
52.301	13.396	1650.403	1255.843
53.315	13.334	1649.221	1254.358
54.330	13.371	1647.188	1252.983
55.344	13.301	1645.884	1251.350
56.359	13.241	1644.148	1249.468
57.374	13.181	1643.614	1248.499
58.388	13.232	1642.364	1247.823
59.403	13.246	1641.133	1246.884
60.417	13.222	1639.106	1245.049
61.432	13.152	1638.481	1243.940
62.447	13.273	1637.267	1243.814
63.461	13.179	1635.990	1242.027
64.476	13.002	1635.507	1240.226
65.490	13.071	1633.897	1239.411
66.505	13.097	1633.021	1238.834
67.520	13.075	1632.104	1237.865
68.534	13.174	1630.787	1237.495
69.549	13.191	1629.495	1236.530
70.563	13.148	1628.247	1235.157
71.578	13.119	1627.264	1234.085
72.593	13.102	1626.129	1232.986
73.607	13.136	1625.056	1232.319
74.622	13.004	1624.105	1230.503
75.636	13.008	1623.228	1229.756
76.651	13.014	1622.493	1229.140
77.666	13.016	1621.597	1228.368
78.680	13.060	1620.608	1227.831
79.695	13.060	1619.796	1227.111
80.709	13.074	1618.928	1226.446
81.724	13.104	1618.456	1226.203
82.739	13.113	1617.175	1225.190
83.753	13.148	1616.259	1224.647
84.768	13.338	1614.950	1224.955
85.782	13.360	1614.197	1224.443
86.797	13.345	1613.568	1223.743
87.812	13.387	1612.709	1223.297
88.826	13.314	1611.467	1221.704
89.841	13.352	1609.927	1220.711
90.855	13.336	1609.413	1220.094
91.870	13.354	1608.283	1219.263
92.884	13.389	1606.934	1218.389
93.899	13.422	1605.976	1217.796
94.914	13.354	1604.943	1216.410
95.928	13.490	1603.826	1216.449
96.943	13.502	1602.458	1215.392
97.957	13.309	1601.278	1212.976
98.972	13.403	1599.355	1212.102
99.987	13.384	1597.675	1210.579
101.001	13.405	1596.091	1209.429
102.016	13.409	1594.672	1208.274
103.030	13.417	1593.515	1207.351
104.045	13.354	1592.401	1205.941
105.060	13.433	1590.713	1205.133
106.074	13.397	1589.133	1203.564
107.089	13.352	1587.345	1201.776
108.103	13.230	1586.054	1199.805
109.118	13.132	1584.551	1197.856
110.133	13.091	1583.361	1196.550
111.147	13.108	1582.124	1195.631
112.162	13.192	1580.550	1194.948
113.176	13.130	1578.978	1193.200
114.191	13.166	1577.890	1192.539
115.206	13.253	1576.403	1191.930
116.220	13.296	1574.995	1191.076
117.235	13.302	1573.591	1189.949
118.249	13.258	1572.470	1188.682
119.264	13.292	1571.142	1187.818
120.279	13.208	1569.990	1186.236
121.293	13.206	1568.631	1185.089
122.308	13.126	1567.195	1183.330
123.322	13.223	1564.829	1182.131
124.337	13.220	1563.362	1180.896
125.352	13.121	1562.387	1179.344
126.366	13.122	1561.691	1178.724
127.381	13.115	1559.961	1177.267
128.395	13.103	1559.119	1176.439
129.410	13.068	1557.882	1175.155
130.424	13.120	1556.414	1174.311
131.439	13.164	1554.767	1173.281
132.454	13.242	1553.475	1172.753
133.468	13.203	1551.894	1171.176
134.483	13.333	1550.434	1170.894
135.497	13.311	1549.251	1169.741
136.512	13.301	1547.885	1168.537
137.527	13.238	1546.627	1167.040
138.541	13.275	1545.382	1166.257
139.556	13.326	1543.634	1165.196
140.570	13.387	1542.236	1164.461
141.585	13.293	1541.218	1162.929
142.600	13.398	1539.871	1162.553
143.614	13.466	1538.863	1162.162
144.629	13.481	1537.060	1160.805
145.643	13.600	1535.719	1160.520
146.658	13.590	1534.677	1159.565
147.673	13.563	1533.217	1158.169
148.687	13.403	1531.631	1155.748
149.702	13.490	1530.211	1155.180
150.716	13.431	1528.150	1153.115
151.731	13.382	1527.033	1151.826
152.746	13.346	1526.124	1150.791
153.760	13.433	1524.715	1150.227
154.775	13.495	1523.195	1149.412
155.789	13.466	1522.311	1148.440
156.804	13.442	1521.097	1147.261
157.819	13.498	1520.015	1146.730
158.833	13.597	1518.609	1146.252
159.848	13.630	1517.770	1145.744
160.862	13.706	1515.973	1144.814
161.877	13.704	1515.049	1143.999
162.892	13.665	1514.160	1142.956
163.906	13.652	1512.717	1141.677
164.921	13.492	1511.655	1139.671
165.935	13.420	1511.039	1138.616
166.950	13.599	1509.275	1138.412
167.964	13.554	1508.749	1137.607
168.979	13.626	1507.261	1136.879
169.994	13.643	1506.106	1136.021
171.008	13.667	1505.313	1135.485
172.023	13.679	1504.121	1134.569
173.037	13.641	1503.058	1133.409
174.052	13.733	1501.886	1133.052
175.067	13.746	1501.207	1132.532
176.081	13.725	1499.799	1131.227
177.096	13.555	1498.609	1129.068
178.110	13.572	1497.168	1127.998
179.125	13.649	1495.991	1127.532
180.140	13.638	1495.261	1126.809
181.154	13.669	1493.863	1125.866
182.169	13.698	1492.505	1124.939
183.183	13.724	1491.768	1124.460
184.198	13.741	1490.414	1123.461
185.213	13.822	1489.606	1123.298
186.227	13.836	1488.266	1122.281
187.242	13.867	1487.667	1121.938
188.256	13.853	1486.432	1120.815
189.271	13.872	1485.108	1119.844
190.286	13.899	1484.010	1119.103
191.300	13.771	1483.728	1117.927
192.315	13.830	1481.382	1116.460
193.329	13.675	1480.025	1114.292
194.344	13.637	1478.859	1113.065
195.359	13.639	1478.231	1112.508
196.373	13.682	1477.380	1112.052
197.388	13.725	1476.211	1111.363
198.402	13.945	1474.972	1111.809
199.417	13.929	1474.007	1110.875
200.432	14.012	1473.233	1110.743
201.446	14.125	1472.297	1110.700
202.461	14.037	1471.502	1109.414
203.475	14.118	1470.151	1108.837
204.490	14.203	1468.811	1108.295
205.504	14.118	1467.963	1106.991
206.519	14.029	1466.547	1105.233
207.534	13.988	1465.911	1104.380
208.548	13.993	1464.696	1103.405
209.563	14.013	1463.665	1102.660
210.577	14.075	1462.255	1101.913
211.592	14.057	1461.817	1101.364
212.607	14.139	1460.936	1101.144
213.621	14.186	1460.653	1101.148
214.636	14.222	1458.966	1100.018
215.650	14.274	1457.782	1099.371
216.665	14.202	1457.537	1098.611
217.680	14.282	1456.303	1098.112
218.694	14.291	1455.605	1097.546
219.709	14.319	1454.841	1097.056
220.723	14.385	1453.556	1096.428
221.738	14.307	1452.582	1095.081
222.753	14.376	1451.775	1094.829
223.767	14.301	1450.581	1093.341
224.782	14.321	1450.195	1093.082
225.796	14.376	1449.341	1092.705
226.811	14.437	1448.113	1092.082
227.826	14.441	1447.587	1091.617
228.840	14.469	1446.563	1090.930
229.855	14.361	1446.149	1089.813
230.869	14.431	1444.707	1089.091
231.884	14.409	1443.709	1088.096
232.899	14.330	1442.623	1086.665
233.913	14.288	1441.649	1085.565
234.928	14.383	1439.890	1084.761
235.942	14.330	1439.376	1083.932
236.957	14.387	1437.883	1083.081
237.972	14.253	1437.429	1081.773
238.986	14.237	1436.172	1080.625
240.001	14.330	1434.838	1080.132
241.015	14.371	1433.741	1079.476
242.030	14.413	1432.806	1078.946
243.045	14.355	1431.950	1077.832
244.059	14.512	1430.547	1077.697
245.074	14.543	1429.878	1077.297
246.088	14.492	1429.118	1076.303
247.103	14.596	1428.361	1076.306
248.117	14.576	1427.501	1075.436
249.132	14.580	1427.104	1075.063
250.147	14.703	1426.445	1075.266
251.161	14.751	1425.873	1075.046
252.176	14.877	1425.080	1075.166
253.190	14.895	1424.049	1074.410
254.205	14.906	1423.157	1073.711
255.220	14.876	1422.502	1072.931
256.234	14.982	1421.497	1072.754
257.249	14.925	1421.135	1072.021
258.263	14.985	1420.359	1071.726
259.278	14.979	1419.202	1070.719
260.293	15.002	1417.715	1069.651
261.307	15.019	1417.428	1069.449
262.322	15.095	1416.634	1069.239
263.336	15.165	1415.791	1068.959
264.351	15.165	1414.710	1068.044
265.366	15.167	1413.231	1066.847
266.380	15.142	1412.755	1066.236
267.395	15.243	1411.852	1066.099
268.409	15.129	1411.117	1064.728
269.424	15.172	1410.122	1064.152
270.439	15.155	1409.055	1063.145
271.453	15.054	1407.975	1061.601
272.468	15.111	1406.919	1061.072
273.482	15.085	1406.303	1060.349
274.497	15.079	1405.486	1059.597
275.512	15.066	1404.825	1058.926
276.526	15.065	1404.010	1058.206
277.541	15.070	1402.810	1057.240
278.555	15.177	1401.716	1056.999
279.570	15.140	1400.846	1056.016
280.585	15.135	1400.211	1055.415
281.599	15.266	1399.265	1055.434
282.614	15.296	1398.135	1054.676
283.628	15.247	1397.278	1053.625
284.643	15.169	1396.116	1052.170
285.657	15.097	1395.516	1051.167
286.672	15.216	1394.291	1050.904
287.687	15.223	1393.298	1050.106
288.701	15.221	1392.226	1049.191
289.716	15.346	1391.342	1049.212
290.730	15.375	1390.608	1048.746
291.745	15.311	1389.614	1047.507
292.760	15.363	1388.348	1046.786
293.774	15.353	1387.968	1046.345
294.789	15.418	1386.456	1045.515
295.803	15.434	1385.868	1045.078
296.818	15.496	1384.822	1044.581
297.833	15.423	1384.135	1043.516
298.847	15.431	1382.985	1042.606
299.862	15.434	1381.883	1041.703
300.876	15.380	1381.036	1040.639
301.891	15.469	1379.993	1040.309
302.906	15.487	1379.401	1039.888
303.920	15.570	1379.065	1040.052
304.935	15.685	1377.676	1039.625
305.949	15.599	1377.179	1038.628
306.964	15.738	1376.311	1038.737
307.979	15.771	1375.562	1038.283
308.993	15.661	1374.816	1036.951
310.008	15.582	1373.840	1035.636
311.022	15.734	1372.532	1035.494
312.037	15.711	1371.542	1034.518
313.052	15.633	1371.002	1033.534
314.066	15.672	1369.785	1032.770
315.081	15.671	1368.660	1031.820
316.095	15.628	1367.563	1030.637
317.110	15.658	1366.213	1029.716
318.125	15.613	1365.638	1028.915
319.139	15.615	1364.938	1028.311
320.154	15.557	1363.831	1027.032
321.168	15.612	1362.747	1026.455
322.183	15.714	1361.292	1025.893
323.197	15.702	1360.638	1025.234
324.212	15.799	1359.801	1025.107
325.227	15.787	1359.169	1024.464
326.241	15.822	1357.950	1023.667
327.256	15.796	1357.011	1022.712
328.270	15.884	1356.013	1022.402
329.285	15.817	1355.265	1021.343
330.300	15.770	1354.527	1020.413
331.314	15.768	1353.542	1019.568
332.329	15.723	1352.973	1018.776
333.343	15.714	1352.139	1018.006
334.358	15.860	1350.973	1017.922
335.373	15.891	1350.306	1017.512
336.387	15.916	1349.400	1016.894
337.402	15.934	1348.511	1016.239
338.416	15.966	1347.929	1015.903
339.431	15.984	1347.487	1015.591
340.446	16.011	1346.805	1015.152
341.460	16.063	1345.774	1014.594
342.475	16.111	1344.893	1014.129
343.489	16.129	1344.200	1013.625
344.504	16.176	1342.954	1012.880
345.519	16.150	1342.523	1012.310
346.533	16.270	1341.420	1012.105
347.548	16.291	1340.327	1011.316
348.562	16.241	1339.496	1010.303
349.577	16.325	1338.838	1010.220
350.592	16.271	1338.040	1009.205
351.606	16.317	1337.033	1008.628
352.621	16.190	1335.703	1006.778
353.635	16.140	1334.829	1005.737
354.650	16.166	1333.789	1005.013
355.665	16.263	1332.711	1004.691
356.679	16.093	1332.717	1003.593
357.694	16.106	1331.614	1002.755
358.708	16.113	1330.323	1001.733
359.723	16.349	1329.025	1002.067
360.738	16.301	1327.942	1000.879
361.752	16.223	1326.865	999.518
362.767	16.362	1325.664	999.348
363.781	16.322	1324.586	998.210
364.796	16.353	1324.333	998.116
365.810	16.395	1323.414	997.580
366.825	16.458	1322.632	997.275
367.840	16.398	1322.254	996.544
368.854	16.485	1321.737	996.584
369.869	16.594	1320.971	996.557
370.883	16.548	1320.445	995.802
371.898	16.601	1319.365	995.214
372.913	16.518	1318.871	994.264
373.927	16.679	1317.388	994.002
374.942	16.658	1316.588	993.189
375.956	16.620	1315.712	992.214
376.971	16.600	1315.521	991.870
377.986	16.711	1314.344	991.542
379.000	16.586	1313.987	990.454
380.015	16.681	1313.042	990.209
381.029	16.672	1312.379	989.568
382.044	16.710	1311.342	988.922
383.059	16.767	1310.893	988.829
384.073	16.819	1310.149	988.482
385.088	16.782	1309.726	987.863
386.102	16.813	1308.705	987.186
387.117	16.757	1308.048	986.274
388.132	16.837	1307.107	985.942
389.146	16.740	1306.404	984.759
390.161	16.759	1305.525	984.120
391.175	16.769	1304.506	983.325
392.190	16.787	1303.888	982.874
393.205	16.801	1302.913	982.134
394.219	16.860	1302.169	981.831
395.234	16.871	1300.892	980.844
396.248	16.893	1299.592	979.904
397.263	16.932	1298.418	979.154
398.278	16.847	1297.228	977.685
399.292	16.877	1295.644	976.575
400.307	16.861	1294.629	975.630
401.321	16.717	1293.751	974.058
402.336	16.779	1292.832	973.636
403.350	16.850	1291.892	973.249
404.365	16.850	1291.140	972.595
405.380	16.863	1290.277	971.936
406.394	16.888	1289.595	971.476
407.409	16.948	1288.538	970.938
408.423	17.003	1288.384	971.049
409.438	17.063	1287.206	970.421
410.453	17.145	1286.662	970.394
411.467	17.075	1286.285	969.623
412.482	17.130	1285.541	969.291
413.496	17.212	1284.829	969.137
414.511	17.283	1283.870	968.731
415.526	17.199	1282.814	967.368
416.540	17.240	1282.648	967.391
417.555	17.284	1281.634	966.792
418.569	17.297	1281.226	966.474
419.584	17.357	1280.181	965.938
420.599	17.370	1279.817	965.653
421.613	96.816	1355.765	1476.085
422.628	94.641	1366.793	1476.202
