DTS Sentinel unit serial number:	SN413079Multiplexer serial number:	ORYXHardware model number:	OX4-SRSoftware version number:	ORYX F/W v4.00 Oryx Data Collector v3.7.2.0data status	okinstallation	princeton_trtdifferential loss correction	single-endedforward channel	channel 4reverse channel	N/Adate	2019/09/17time	07:13:35forward acquisition time	60.00reverse acquisition time	0.00gamma	496.2192k internal	0.2320k external	0.2320temperature offset calibration	0.9982default loss term (dB/km)	0.3790temperature slope calibration	1.0000multiplexer offset coefficient	1.0000multiplexer slope coefficient	1.0000fibre end	0.00T internal ref (°C)	27.31T ext. ref 1 (°C)	0.10T ext. ref 2 (°C)	21.25length (m)	temperature (°C)	Stokes	anti-Stokes-747.200	61.564	0.065	0.065
-746.185	-8.100	0.069	-0.047
-745.171	-140.028	0.098	-0.010
-744.156	-200.000	0.064	0.518
-743.142	-116.473	-0.150	-0.028
-742.127	-20.225	-0.166	-0.104
-741.112	-200.000	0.011	0.059
-740.098	278.813	-0.202	0.365
-739.083	-30.845	-0.280	0.160
-738.069	-80.316	-0.093	0.031
-737.054	-200.000	-0.010	0.197
-736.039	-60.653	-0.493	0.211
-735.025	-32.515	0.146	0.082
-734.010	800.000	-0.080	-0.251
-732.996	-200.000	0.010	0.125
-731.981	-200.000	-0.004	0.219
-730.966	231.307	-0.141	0.233
-729.952	-86.519	0.217	0.067
-728.937	-200.000	-0.009	-0.199
-727.923	-108.897	-0.321	-0.069
-726.908	210.093	0.067	-0.106
-725.894	157.834	-0.185	-0.259
-724.879	-123.743	-0.213	-0.034
-723.864	-7.723	0.144	-0.098
-722.850	281.312	-0.124	-0.224
-721.835	-200.000	-0.031	0.216
-720.821	11.618	0.050	0.039
-719.806	-200.000	-0.033	-0.154
-718.791	-85.607	-0.352	0.111
-717.777	-5.694	0.142	0.098
-716.762	-28.056	-0.006	0.003
-715.748	145.860	0.138	-0.187
-714.733	529.665	-0.112	0.267
-713.718	-56.957	-0.261	-0.116
-712.704	210.859	0.195	0.309
-711.689	484.642	0.078	-0.179
-710.675	-135.996	-0.403	0.048
-709.660	-122.027	0.099	0.016
-708.645	287.276	-0.052	0.095
-707.631	-200.000	0.009	0.093
-706.616	-200.000	0.042	0.217
-705.602	800.000	0.050	-0.151
-704.587	141.582	0.033	-0.044
-703.572	-32.435	0.278	0.157
-702.558	332.005	0.057	-0.111
-701.543	17.286	-0.169	-0.136
-700.529	-200.000	0.025	-0.416
-699.514	0.767	-0.098	0.071
-698.499	-200.000	-0.047	-0.296
-697.485	90.225	0.099	0.112
-696.470	-21.570	0.312	0.192
-695.456	333.468	0.049	-0.096
-694.441	257.717	0.125	-0.217
-693.426	-85.692	-0.265	0.083
-692.412	-100.280	0.369	-0.093
-691.397	-81.932	0.118	0.039
-690.383	695.028	0.026	-0.069
-689.368	126.968	0.143	-0.183
-688.354	800.000	-0.032	0.102
-687.339	-30.851	-0.142	0.081
-686.324	-11.227	0.237	0.158
-685.310	253.949	-0.078	0.135
-684.295	-148.952	-0.155	-0.013
-683.281	-148.255	-0.124	-0.010
-682.266	-70.459	-0.310	-0.118
-681.251	77.245	0.128	-0.137
-680.237	202.167	0.060	-0.093
-679.222	126.868	0.091	-0.117
-678.208	-30.124	-0.244	-0.140
-677.193	266.741	0.188	-0.332
-676.178	-200.000	0.034	0.203
-675.164	632.834	0.036	-0.093
-674.149	-80.040	-0.093	0.031
-673.135	-148.242	0.326	0.027
-672.120	-200.000	0.037	0.225
-671.105	-106.971	-0.078	-0.017
-670.091	-43.369	0.270	0.138
-669.076	-200.000	-0.026	-0.224
-668.062	100.816	0.118	0.138
-667.047	-200.000	-0.049	-0.351
-666.032	-47.066	-0.235	0.115
-665.018	-84.118	0.047	-0.015
-664.003	-200.000	-0.004	0.407
-662.989	-113.936	0.217	0.042
-661.974	-144.512	-0.339	-0.032
-660.959	684.310	0.041	0.107
-659.945	184.000	-0.073	-0.109
-658.930	203.166	0.151	-0.236
-657.916	20.319	-0.148	-0.121
-656.901	-200.000	0.013	-0.237
-655.886	-116.556	-0.128	-0.024
-654.872	-46.896	-0.220	0.108
-653.857	-160.180	-0.203	0.011
-652.843	-157.877	0.697	-0.042
-651.828	-200.000	-0.019	-0.348
-650.814	-81.807	-0.153	-0.051
-649.799	43.242	0.124	-0.114
-648.784	800.000	0.036	-0.119
-647.770	-97.348	-0.427	-0.112
-646.755	-118.471	0.023	0.004
-645.741	-200.000	0.062	-0.286
-644.726	200.437	0.146	0.225
-643.711	-110.548	-0.188	0.039
-642.697	179.447	0.035	0.051
-641.682	177.028	0.109	-0.160
-640.668	-154.149	0.388	-0.026
-639.653	-35.877	-0.241	-0.131
-638.638	-14.398	-0.172	0.111
-637.624	-40.656	0.206	-0.108
-636.609	144.466	0.027	-0.036
-635.595	-2.774	0.346	0.243
-634.580	135.807	-0.118	-0.154
-633.565	-93.045	-0.055	-0.015
-632.551	-85.039	-0.199	-0.063
-631.536	-87.974	0.120	0.036
-630.522	50.385	-0.116	-0.110
-629.507	-200.000	0.030	-0.241
-628.492	2.948	-0.183	0.134
-627.478	-97.787	0.139	-0.036
-626.463	61.727	-0.025	0.025
-625.449	-200.000	-0.002	-0.010
-624.434	503.295	-0.042	0.097
-623.419	743.637	0.074	0.199
-622.405	305.535	0.022	-0.041
-621.390	327.480	0.074	-0.143
-620.376	800.000	0.033	-0.101
-619.361	-119.492	-0.134	-0.023
-618.346	-141.611	0.537	0.054
-617.332	289.344	-0.026	-0.047
-616.317	-200.000	0.007	-0.156
-615.303	-200.000	0.004	-0.284
-614.288	-143.025	0.135	0.013
-613.273	191.504	-0.150	0.228
-612.259	-200.000	0.002	-0.179
-611.244	-108.313	0.275	-0.060
-610.230	35.742	-0.047	0.041
-609.215	-200.000	0.001	-0.091
-608.201	33.370	-0.148	-0.129
-607.186	-84.787	0.250	-0.079
-606.171	-46.173	0.309	0.153
-605.157	414.613	-0.114	0.244
-604.142	132.767	0.077	-0.101
-603.128	50.036	-0.050	0.047
-602.113	53.471	0.256	-0.246
-601.098	256.679	-0.080	-0.138
-600.084	677.126	-0.147	0.385
-599.069	-144.811	-0.295	-0.027
-598.055	-200.000	0.002	-0.194
-597.040	116.337	0.100	-0.124
-596.025	680.410	-0.019	0.051
-595.011	140.012	-0.187	-0.248
-593.996	-200.000	-0.016	0.076
-592.982	156.987	-0.173	0.241
-591.967	-58.575	0.388	-0.169
-590.952	-109.790	-0.079	0.017
-589.938	-200.000	-0.024	-0.116
-588.923	228.607	0.053	-0.086
-587.909	-108.196	-0.163	-0.035
-586.894	-2.650	0.055	-0.039
-585.879	-106.470	0.181	-0.041
-584.865	800.000	0.043	0.142
-583.850	-26.275	-0.371	0.219
-582.836	-6.645	0.485	-0.332
-581.821	800.000	-0.029	0.082
-580.806	800.000	0.026	0.075
-579.792	76.363	-0.053	-0.057
-578.777	-90.925	0.391	0.113
-577.763	309.457	0.142	0.267
-576.748	502.659	0.173	0.403
-575.733	117.814	0.058	0.072
-574.719	-73.347	-0.475	0.174
-573.704	-200.000	0.008	-0.188
-572.690	235.491	-0.094	0.157
-571.675	231.715	0.032	0.053
-570.661	-96.242	-0.266	-0.071
-569.646	-50.651	0.229	-0.108
-568.631	800.000	-0.042	-0.117
-567.617	-3.386	-0.262	-0.183
-566.602	-63.802	-0.347	0.143
-565.588	-74.121	0.216	0.078
-564.573	-29.083	-0.257	-0.148
-563.558	96.863	-0.187	-0.215
-562.544	157.669	-0.188	-0.262
-561.529	-111.684	0.126	-0.026
-560.515	-200.000	-0.003	-0.118
-559.500	-200.000	-0.014	-0.165
-558.485	-28.676	-0.177	0.102
-557.471	84.166	0.150	0.164
-556.456	341.516	-0.098	0.192
-555.442	800.000	-0.138	-0.468
-554.427	97.480	-0.099	-0.114
-553.412	-152.048	0.265	0.019
-552.398	33.076	-0.105	-0.091
-551.383	-200.000	-0.026	-0.130
-550.369	800.000	0.062	0.186
-549.354	-154.849	0.361	0.024
-548.339	800.000	0.112	0.426
-547.325	-20.844	0.099	-0.061
-546.310	81.989	0.011	0.012
-545.296	-125.088	0.095	-0.015
-544.281	-97.246	-0.195	-0.051
-543.266	-91.244	0.308	-0.088
-542.252	338.414	-0.167	0.326
-541.237	190.509	0.025	-0.038
-540.223	11.344	-0.250	-0.192
-539.208	-17.279	0.206	-0.130
-538.193	114.474	-0.107	0.131
-537.179	-200.000	-0.002	-0.157
-536.164	-99.250	-0.345	-0.087
-535.150	-169.833	-0.462	-0.017
-534.135	240.238	0.165	-0.275
-533.121	-145.090	-0.311	-0.028
-532.106	735.177	0.058	0.155
-531.091	-76.539	-0.238	-0.084
-530.077	61.214	0.260	-0.259
-529.062	-163.155	0.112	0.005
-528.048	800.000	-0.085	0.241
-527.033	800.000	-0.076	-0.296
-526.018	-200.000	0.009	-0.092
-525.004	94.222	-0.445	-0.506
-523.989	-17.237	0.264	0.167
-522.975	14.176	0.031	-0.025
-521.960	800.000	0.092	0.302
-520.945	-128.191	0.111	-0.016
-519.931	-200.000	0.024	0.154
-518.916	800.000	0.029	-0.110
-517.902	44.012	-0.083	-0.077
-516.887	111.614	0.069	0.084
-515.872	800.000	0.069	-0.285
-514.858	503.091	0.105	0.243
-513.843	170.270	-0.067	-0.096
-512.829	-100.131	0.086	0.021
-511.814	-5.988	-0.224	0.153
-510.799	-62.435	0.270	0.112
-509.785	657.354	0.047	0.122
-508.770	-142.530	-0.290	0.029
-507.756	-200.000	0.026	-0.162
-506.741	-28.534	-0.106	-0.061
-505.726	281.121	-0.058	-0.104
-504.712	286.454	-0.108	-0.195
-503.697	-25.451	-0.127	0.075
-502.683	7.516	-0.053	0.040
-501.668	109.555	0.157	-0.189
-500.653	98.107	-0.252	-0.290
-499.639	-30.873	0.400	-0.227
-498.624	800.000	0.112	-0.413
-497.610	800.000	0.095	-0.336
-496.595	115.292	0.095	-0.117
-495.581	379.842	-0.122	0.250
-494.566	800.000	-0.145	-0.478
-493.551	2.877	0.137	-0.099
-492.537	71.336	0.182	0.189
-491.522	-173.925	0.034	0.001
-490.508	-200.000	0.010	0.084
-489.493	-112.515	-0.156	0.031
-488.478	800.000	-0.067	-0.220
-487.464	-200.000	0.015	-0.097
-486.449	-126.875	-0.251	0.037
-485.435	-20.757	0.135	-0.083
-484.420	80.725	-0.214	0.231
-483.405	231.281	-0.054	0.089
-482.391	800.000	-0.034	0.120
-481.376	22.318	0.273	0.223
-480.362	79.523	-0.181	0.195
-479.347	-51.208	-0.265	0.124
-478.332	-105.597	-0.210	0.048
-477.318	62.295	0.103	-0.103
-476.303	83.489	-0.051	0.056
-475.289	-112.129	0.122	0.025
-474.274	-69.169	-0.026	0.010
-473.259	-200.000	0.010	0.055
-472.245	-71.789	-0.132	0.049
-471.230	310.378	0.256	0.479
-470.216	800.000	-0.020	-0.062
-469.201	-37.014	-0.225	-0.121
-468.186	-10.572	0.075	0.050
-467.172	-111.606	-0.193	-0.039
-466.157	154.725	-0.158	0.217
-465.143	-200.000	-0.007	0.326
-464.128	-34.072	0.183	-0.100
-463.113	427.482	-0.186	-0.401
-462.099	-200.000	-0.037	0.177
-461.084	367.355	-0.191	0.386
-460.070	494.584	-0.063	0.145
-459.055	800.000	0.011	-0.032
-458.040	274.282	-0.072	0.128
-457.026	-200.000	-0.004	0.155
-456.011	-110.398	0.143	-0.030
-454.997	22.764	-0.128	0.105
-453.982	111.269	0.192	0.232
-452.968	314.202	-0.175	0.329
-451.953	-87.430	-0.107	-0.032
-450.938	44.493	-0.231	0.212
-449.924	800.000	0.052	0.209
-448.909	121.865	0.066	0.082
-447.895	113.708	-0.073	-0.088
-446.880	-2.982	0.053	0.037
-445.865	800.000	0.033	-0.139
-444.851	-200.000	0.010	-0.140
-443.836	800.000	-0.043	-0.160
-442.822	-170.393	0.079	0.003
-441.807	88.248	-0.281	0.312
-440.792	42.278	-0.091	0.082
-439.778	-173.269	0.172	-0.005
-438.763	800.000	-0.028	-0.105
-437.749	168.073	0.069	0.098
-436.734	-56.240	0.185	-0.082
-435.719	-6.689	0.184	0.125
-434.705	62.452	-0.082	0.082
-433.690	-200.000	-0.047	-0.460
-432.676	210.478	-0.025	0.040
-431.661	-200.000	0.090	0.443
-430.646	584.183	0.086	0.210
-429.632	-200.000	0.065	0.293
-428.617	97.979	-0.081	0.093
-427.603	-200.000	0.020	0.230
-426.588	-24.117	-0.238	0.142
-425.573	-178.948	0.121	-0.003
-424.559	91.900	-0.247	-0.278
-423.544	268.739	0.104	-0.182
-422.530	800.000	-0.021	-0.074
-421.515	-40.549	0.230	0.119
-420.500	38.915	0.039	0.035
-419.486	463.111	-0.137	0.305
-418.471	800.000	-0.045	0.187
-417.457	800.000	0.041	0.167
-416.442	5.807	-0.145	0.107
-415.428	-200.000	0.003	0.014
-414.413	-46.487	0.209	-0.103
-413.398	24.360	0.210	-0.174
-412.384	-12.120	0.127	0.083
-411.369	234.104	-0.086	-0.142
-410.355	800.000	0.028	-0.087
-409.340	167.172	0.040	-0.056
-408.325	-200.000	-0.047	-0.484
-407.311	26.290	0.086	-0.072
-406.296	-16.694	-0.278	0.176
-405.282	-200.000	-0.015	-0.244
-404.267	60.621	0.108	0.107
-403.252	112.974	0.046	-0.055
-402.238	392.750	0.075	-0.156
-401.223	59.762	-0.076	-0.075
-400.209	800.000	0.091	-0.327
-399.194	800.000	-0.045	-0.192
-398.179	40.974	-0.314	0.282
-397.165	-148.300	0.165	-0.014
-396.150	-30.687	0.294	0.166
-395.136	69.949	-0.057	-0.058
-394.121	135.857	-0.136	0.177
-393.106	106.251	0.075	0.089
-392.092	753.965	0.145	-0.391
-391.077	-109.659	0.202	0.042
-390.063	-74.504	0.283	0.102
-389.048	533.927	-0.038	-0.089
-388.033	-60.743	0.124	-0.052
-387.019	-16.989	-0.169	0.107
-386.004	131.435	-0.057	0.073
-384.990	-21.708	0.107	-0.065
-383.975	640.040	-0.041	0.105
-382.960	160.266	-0.161	0.224
-381.946	116.289	-0.159	0.194
-380.931	800.000	0.077	0.262
-379.917	27.692	-0.192	-0.161
-378.902	800.000	-0.087	0.264
-377.888	390.066	0.056	-0.115
-376.873	-54.038	-0.205	-0.093
-375.858	-47.976	-0.164	-0.079
-374.844	-81.918	-0.143	-0.047
-373.829	134.041	-0.191	0.246
-372.815	283.363	-0.093	-0.166
-371.800	-101.287	-0.261	-0.064
-370.785	800.000	-0.049	0.139
-369.771	-200.000	0.127	-0.000
-368.756	22.974	-0.091	0.075
-367.742	485.195	0.170	0.386
-366.727	-200.000	-0.041	-0.328
-365.712	-132.224	0.291	0.038
-364.698	303.083	-0.128	-0.237
-363.683	362.811	-0.096	-0.193
-362.669	373.109	-0.024	0.048
-361.654	-88.655	0.193	-0.057
-360.639	4.088	-0.226	-0.165
-359.625	-200.000	0.085	-0.420
-358.610	18.144	-0.156	0.124
-357.596	108.655	-0.119	0.141
-356.581	-74.559	0.137	0.049
-355.566	200.539	-0.052	-0.080
-354.552	-200.000	-0.020	-0.099
-353.537	132.972	-0.159	-0.205
-352.523	99.212	0.124	0.142
-351.508	247.118	-0.266	0.448
-350.493	800.000	-0.015	0.044
-349.479	-164.937	0.251	-0.011
-348.464	-74.931	0.258	0.092
-347.450	231.492	-0.134	-0.218
-346.435	800.000	-0.056	0.199
-345.420	-105.778	0.210	-0.047
-344.406	-123.138	-0.102	-0.016
-343.391	258.675	0.090	-0.155
-342.377	47.301	0.017	-0.016
-341.362	-24.381	-0.227	-0.135
-340.348	-90.245	-0.258	0.075
-339.333	476.578	-0.106	0.239
-338.318	-135.458	-0.207	0.025
-337.304	-119.314	-0.051	0.009
-336.289	-106.976	0.133	0.029
-335.275	-112.301	-0.137	-0.027
-334.260	-200.000	0.008	-0.260
-333.245	-66.326	-0.205	-0.081
-332.231	-200.000	0.004	-0.287
-331.216	799.427	-0.040	0.109
-330.202	-200.000	0.010	-0.084
-329.187	47.292	-0.286	-0.265
-328.172	-111.637	0.147	0.030
-327.158	-137.495	-0.153	0.017
-326.143	-194.378	0.345	0.003
-325.129	-36.528	0.182	0.097
-324.114	-0.989	-0.309	-0.217
-323.099	-129.615	0.141	-0.019
-322.085	-187.579	0.319	-0.004
-321.070	-182.912	0.206	0.004
-320.056	-90.295	0.193	0.056
-319.041	646.405	-0.022	0.055
-318.026	800.000	-0.045	-0.138
-317.012	800.000	-0.040	0.142
-315.997	800.000	0.079	0.237
-314.983	83.040	0.241	-0.261
-313.968	-180.661	-0.410	-0.008
-312.953	-200.000	0.018	0.232
-311.939	404.398	0.049	0.102
-310.924	-35.239	-0.019	-0.010
-309.910	-6.798	-0.186	0.126
-308.895	-76.907	-0.076	-0.026
-307.880	28.772	0.122	-0.103
-306.866	119.057	0.006	0.007
-305.851	-105.078	-0.206	-0.047
-304.837	104.557	0.270	-0.316
-303.822	-200.000	0.090	-0.409
-302.807	-125.601	0.311	-0.047
-301.793	57.834	0.126	-0.122
-300.778	124.044	0.150	-0.187
-299.764	-56.404	-0.150	0.066
-298.749	224.766	-0.076	-0.122
-297.735	800.000	-0.016	-0.058
-296.720	800.000	0.101	-0.289
-295.705	53.203	0.041	-0.039
-294.691	325.223	0.203	0.386
-293.676	720.489	-0.022	0.059
-292.662	-92.978	-0.302	-0.084
-291.647	655.300	0.026	-0.067
-290.632	-200.000	-0.016	-0.224
-289.618	18.855	-0.232	0.185
-288.603	800.000	0.021	-0.090
-287.589	-118.267	-0.160	-0.028
-286.574	68.121	-0.131	0.133
-285.559	93.866	0.088	0.099
-284.545	-200.000	-0.024	-0.110
-283.530	45.756	-0.208	-0.191
-282.516	-200.000	-0.011	-0.341
-281.501	-200.000	0.062	-0.423
-280.486	-186.883	-0.206	-0.003
-279.472	185.385	0.030	-0.045
-278.457	800.000	-0.056	-0.205
-277.443	-200.000	0.024	-0.263
-276.428	612.654	-0.040	-0.098
-275.413	34.673	0.178	-0.154
-274.399	127.171	0.043	0.054
-273.384	333.814	0.158	0.304
-272.370	189.772	0.086	-0.128
-271.355	-167.549	-0.175	0.007
-270.340	89.923	0.227	0.252
-269.326	34.427	-0.125	-0.109
-268.311	-200.000	0.020	0.245
-267.297	488.386	-0.123	0.279
-266.282	32.900	0.085	0.073
-265.267	-200.000	-0.011	0.230
-264.253	2.192	-0.099	0.071
-263.238	10.321	0.273	0.206
-262.224	-200.000	-0.002	-0.103
-261.209	656.041	-0.052	-0.133
-260.195	12.857	0.131	0.101
-259.180	546.730	-0.095	0.225
-258.165	800.000	-0.061	0.242
-257.151	800.000	0.119	0.380
-256.136	-100.807	-0.089	-0.022
-255.122	404.075	-0.076	-0.160
-254.107	-64.662	0.279	-0.112
-253.092	-168.488	0.323	0.012
-252.078	-200.000	-0.092	-0.484
-251.063	-48.412	-0.288	-0.137
-250.049	3.953	0.242	0.176
-249.034	-200.000	0.057	0.267
-248.019	66.839	-0.166	0.167
-247.005	420.593	0.066	-0.141
-245.990	2.839	0.160	0.115
-244.976	108.595	0.133	-0.158
-243.961	410.151	0.222	-0.466
-242.946	80.617	0.184	0.196
-241.932	61.161	-0.162	-0.160
-240.917	-200.000	-0.020	-0.118
-239.903	-81.144	0.479	-0.157
-238.888	394.459	-0.230	0.475
-237.873	379.735	-0.030	-0.061
-236.859	307.229	-0.191	0.353
-235.844	-200.000	-0.008	0.085
-234.830	800.000	-0.177	0.544
-233.815	-0.163	-0.210	0.148
-232.800	-111.201	0.321	0.065
-231.786	-4.934	0.160	0.109
-230.771	-200.000	0.022	0.344
-229.757	-200.000	0.009	-0.168
-228.742	332.049	0.129	-0.247
-227.727	-42.874	-0.080	0.040
-226.713	178.857	0.081	-0.118
-225.698	-200.000	0.001	0.067
-224.684	-141.406	-0.159	-0.016
-223.669	-200.000	-0.012	-0.146
-222.655	397.409	0.102	0.212
-221.640	150.372	0.160	0.215
-220.625	800.000	-0.107	-0.300
-219.611	12.844	0.227	-0.174
-218.596	365.799	-0.089	-0.178
-217.582	800.000	-0.069	-0.227
-216.567	-200.000	-0.009	-0.406
-215.552	-11.956	0.181	0.118
-214.538	-38.690	-0.163	0.085
-213.523	-29.934	0.157	0.088
-212.509	800.000	0.065	0.226
-211.494	-155.315	-0.189	-0.012
-210.479	-200.000	0.036	0.215
-209.465	-200.000	0.038	-0.282
-208.450	-135.494	0.282	-0.033
-207.436	190.029	0.111	-0.165
-206.421	479.228	-0.049	0.111
-205.406	-107.133	0.164	0.036
-204.392	800.000	0.069	0.287
-203.377	800.000	0.017	-0.053
-202.363	95.913	-0.093	0.106
-201.348	285.615	-0.137	0.245
-200.333	19.296	-0.152	-0.121
-199.319	-153.771	0.366	0.025
-198.304	-74.176	-0.061	-0.022
-197.290	81.747	0.102	-0.109
-196.275	-16.856	-0.173	-0.108
-195.260	-58.065	-0.113	-0.049
-194.246	-44.377	-0.092	-0.046
-193.231	-200.000	-0.015	0.320
-192.217	36.350	-0.188	0.164
-191.202	-17.534	0.249	-0.155
-190.187	344.655	-0.128	-0.249
-189.173	75.576	-0.193	-0.201
-188.158	-200.000	0.001	0.508
-187.144	-141.032	-0.310	-0.031
-186.129	-84.939	0.349	0.108
-185.114	800.000	0.034	-0.100
-184.100	218.968	-0.066	-0.104
-183.085	720.792	0.078	0.204
-182.071	-159.811	0.124	0.007
-181.056	800.000	0.059	0.171
-180.042	520.015	0.053	-0.123
-179.027	170.260	0.251	0.355
-178.012	-57.743	-0.346	-0.150
-176.998	98.962	0.217	0.248
-175.983	39.106	0.237	0.210
-174.969	-9.873	-0.118	0.078
-173.954	800.000	-0.072	0.299
-172.939	65.496	-0.298	0.299
-171.925	47.101	-0.057	-0.053
-170.910	-72.395	-0.389	-0.142
-169.896	-169.396	0.140	-0.005
-168.881	-48.838	-0.243	-0.115
-167.866	-14.960	0.049	-0.031
-166.852	-144.015	0.128	-0.012
-165.837	354.541	0.030	-0.059
-164.823	214.515	0.049	0.077
-163.808	-67.569	0.242	0.094
-162.793	22.914	0.247	0.200
-161.779	359.597	0.065	-0.128
-160.764	97.161	0.198	0.224
-159.750	80.681	-0.134	-0.143
-158.735	265.607	0.224	0.385
-157.720	128.026	-0.038	0.048
-156.706	117.933	0.214	-0.261
-155.691	574.719	0.129	0.310
-154.677	468.795	0.166	-0.368
-153.662	47.388	0.167	0.153
-152.647	78.840	-0.215	0.227
-151.633	100.636	-0.110	-0.127
-150.618	800.000	0.096	-0.299
-149.604	302.525	-0.091	0.167
-148.589	800.000	-0.019	0.070
-147.574	-43.862	0.192	0.095
-146.560	0.876	0.246	0.174
-145.545	-130.697	-0.260	-0.035
-144.531	-51.345	-0.186	0.086
-143.516	-38.283	0.238	0.124
-142.502	553.123	-0.130	0.310
-141.487	-126.741	0.088	-0.013
-140.472	-49.688	-0.114	-0.053
-139.458	-123.104	-0.300	0.048
-138.443	-200.000	-0.049	-0.240
-137.429	-100.152	-0.145	-0.036
-136.414	-154.681	0.355	-0.023
-135.399	50.381	-0.266	-0.249
-134.385	-200.000	0.033	0.195
-133.370	-158.287	0.635	0.037
-132.356	44.368	0.042	0.038
-131.341	77.227	0.185	-0.194
-130.326	800.000	-0.062	-0.215
-129.312	-60.618	-0.155	0.065
-128.297	270.832	0.186	0.323
-127.283	800.000	-0.045	0.188
-126.268	-21.842	0.051	0.030
-125.253	-200.000	0.026	-0.293
-124.239	-78.759	0.306	0.103
-123.224	302.456	-0.108	-0.196
-122.210	-4.158	-0.143	-0.098
-121.195	-200.000	-0.009	-0.080
-120.180	-200.000	0.052	-0.428
-119.166	71.436	0.072	0.074
-118.151	50.806	0.169	-0.158
-117.137	222.556	0.204	0.324
-116.122	626.495	-0.056	-0.139
-115.107	110.916	-0.133	-0.158
-114.093	11.847	-0.151	-0.114
-113.078	753.708	0.161	-0.428
-112.064	669.973	0.101	0.257
-111.049	94.021	0.210	-0.235
-110.034	-172.424	0.313	-0.010
-109.020	800.000	0.144	-0.562
-108.005	-36.347	-0.105	0.056
-106.991	-42.241	-0.322	0.162
-105.976	107.684	0.170	-0.200
-104.962	279.663	0.088	-0.155
-103.947	326.681	0.071	0.135
-102.932	-57.717	-0.037	0.016
-101.918	103.741	-0.116	0.134
-100.903	132.945	0.136	-0.173
-99.889	27.697	0.109	0.090
-98.874	-200.000	-0.003	0.255
-97.859	-73.950	0.203	0.072
-96.845	-18.441	0.137	0.085
-95.830	800.000	-0.118	-0.404
-94.816	38.462	-0.215	-0.189
-93.801	-200.000	-0.028	0.221
-92.786	-139.754	0.124	-0.013
-91.772	-200.000	0.015	0.246
-90.757	151.550	-0.095	0.128
-89.743	-52.779	0.332	0.151
-88.728	-77.661	0.197	0.067
-87.713	-200.000	-0.035	0.214
-86.699	-200.000	0.020	0.089
-85.684	-137.284	0.302	0.034
-84.670	-92.551	-0.354	0.098
-83.655	-124.523	0.249	-0.038
-82.640	-91.285	-0.224	0.063
-81.626	20.012	0.191	0.152
-80.611	-200.000	0.008	-0.338
-79.597	24.022	-0.100	-0.082
-78.582	371.206	0.011	-0.021
-77.567	800.000	0.083	0.263
-76.553	725.625	0.019	-0.051
-75.538	202.563	0.278	-0.423
-74.524	226.884	-0.117	-0.187
-73.509	62.653	-0.274	0.269
-72.494	-33.791	-0.181	-0.098
-71.480	-200.000	-0.050	0.292
-70.465	-200.000	-0.020	-0.184
-69.451	-111.172	-0.150	-0.030
-68.436	-200.000	0.055	-0.317
-67.422	-93.972	0.139	-0.038
-66.407	98.294	-0.155	0.176
-65.392	-161.851	0.490	-0.024
-64.378	267.850	-0.155	0.268
-63.363	800.000	0.105	-0.305
-62.349	-200.000	-0.026	-0.226
-61.334	66.745	-0.949	-0.951
-60.319	61.518	0.724	0.709
-59.305	221.739	-0.594	-0.940
-58.290	245.212	0.814	1.347
-57.276	532.536	0.615	1.433
-56.261	-200.000	114.914	647.550
-55.246	463.706	1509.069	3318.998
-54.232	145.002	2678.703	3526.108
-53.217	93.059	2319.027	2579.634
-52.203	33.582	2068.280	1769.036
-51.188	28.984	1982.912	1654.705
-50.173	27.629	1966.364	1628.735
-49.159	45.817	2023.620	1841.425
-48.144	44.662	2039.426	1845.274
-47.130	29.568	1999.051	1673.199
-46.115	27.423	1988.639	1645.062
-45.100	27.262	1985.506	1640.959
-44.086	27.221	1983.521	1638.880
-43.071	27.111	1981.529	1636.181
-42.057	27.098	1979.411	1634.248
-41.042	27.166	1976.827	1632.661
-40.027	27.179	1974.794	1631.035
-39.013	27.217	1972.767	1629.634
-37.998	27.245	1970.985	1628.353
-36.984	27.189	1969.838	1626.839
-35.969	27.258	1967.684	1625.606
-34.954	27.268	1966.119	1624.338
-33.940	27.316	1964.408	1623.287
-32.925	27.265	1962.672	1621.342
-31.911	27.300	1961.207	1620.375
-30.896	27.311	1959.852	1619.287
-29.881	27.284	1957.999	1617.452
-28.867	27.389	1956.001	1616.673
-27.852	27.383	1954.612	1615.403
-26.838	27.301	1953.180	1613.431
-25.823	27.414	1950.841	1612.438
-24.809	27.305	1949.579	1610.365
-23.794	27.341	1947.400	1608.821
-22.779	27.365	1945.801	1607.643
-21.765	27.380	1943.702	1605.978
-20.750	27.369	1942.224	1604.598
-19.736	27.401	1940.874	1603.697
-18.721	27.373	1939.023	1601.865
-17.706	27.397	1937.420	1600.683
-16.692	27.352	1935.352	1598.513
-15.677	27.310	1934.490	1597.376
-14.663	27.422	1932.966	1597.031
-13.648	27.252	1932.174	1594.824
-12.633	27.274	1931.066	1594.044
-11.619	27.280	1929.668	1592.879
-10.604	27.340	1928.108	1592.052
-9.590	27.363	1926.077	1590.510
-8.575	27.238	1925.351	1588.758
-7.560	27.323	1923.976	1588.297
-6.546	27.338	1922.655	1587.277
-5.531	27.288	1921.582	1585.891
-4.517	27.367	1919.896	1585.124
-3.502	27.300	1919.107	1583.833
-2.487	27.335	1917.788	1582.982
-1.473	27.304	1917.358	1582.291
-0.458	27.404	1911.639	1578.379
0.556	25.272	1891.866	1548.909
1.571	20.904	1871.905	1495.038
2.586	16.798	1893.583	1476.516
3.600	15.661	1927.482	1492.721
4.615	15.601	1921.622	1487.519
5.629	12.176	1822.891	1382.159
6.644	4.762	1707.258	1235.689
7.659	0.552	1671.654	1177.036
8.673	0.208	1668.312	1171.902
9.688	0.122	1667.156	1170.315
10.702	0.075	1665.285	1168.537
11.717	0.016	1662.052	1165.705
12.731	0.542	1661.249	1169.114
13.746	6.264	1673.029	1221.838
14.761	13.923	1688.634	1292.953
15.775	17.117	1693.300	1321.308
16.790	16.871	1691.122	1317.576
17.804	15.932	1688.192	1307.892
18.819	14.906	1685.076	1297.407
19.834	14.387	1682.355	1291.174
20.848	14.019	1681.270	1287.379
21.863	13.814	1679.699	1284.472
22.877	13.577	1677.936	1281.183
23.892	13.323	1676.106	1277.703
24.907	13.265	1675.122	1276.394
25.921	13.204	1674.456	1275.305
26.936	13.212	1673.126	1274.238
27.950	13.264	1672.270	1273.873
28.965	13.400	1671.668	1274.350
29.980	13.323	1671.312	1273.377
30.994	13.473	1670.245	1273.602
32.009	13.450	1669.593	1272.813
33.023	13.472	1668.767	1272.240
34.038	13.501	1668.274	1271.975
35.053	13.487	1667.152	1270.904
36.067	13.402	1665.892	1269.178
37.082	13.446	1664.382	1268.252
38.096	13.320	1663.842	1266.764
39.111	13.364	1663.147	1266.458
40.126	13.472	1662.134	1266.400
41.140	13.391	1661.425	1265.126
42.155	13.337	1659.642	1263.250
43.169	13.235	1658.396	1261.408
44.184	13.258	1657.411	1260.721
45.199	13.232	1656.088	1259.408
46.213	13.219	1655.259	1258.566
47.228	13.214	1653.523	1257.099
48.242	13.202	1652.678	1256.250
49.257	13.237	1651.695	1255.663
50.271	13.345	1649.948	1255.041
51.286	13.386	1648.852	1254.405
52.301	13.373	1647.392	1253.084
53.315	13.350	1646.195	1251.895
54.330	13.319	1644.542	1250.289
55.344	13.272	1643.120	1248.738
56.359	13.307	1641.239	1247.463
57.374	13.338	1639.932	1246.595
58.388	13.245	1639.385	1245.366
59.403	13.193	1637.514	1243.447
60.417	13.220	1636.417	1242.703
61.432	13.225	1635.036	1241.589
62.447	13.253	1633.458	1240.486
63.461	13.128	1633.169	1239.220
64.476	13.089	1631.654	1237.668
65.490	13.108	1630.213	1236.605
66.505	13.124	1628.748	1235.509
67.520	13.149	1627.960	1234.989
68.534	13.154	1627.541	1234.600
69.549	13.208	1626.212	1233.886
70.563	13.206	1624.879	1232.751
71.578	13.149	1623.687	1231.312
72.593	13.128	1622.337	1230.019
73.607	13.092	1621.479	1228.996
74.622	13.115	1620.030	1227.958
75.636	13.021	1619.290	1226.588
76.651	13.045	1618.362	1225.955
77.666	13.127	1617.457	1225.772
78.680	13.117	1616.460	1224.833
79.695	13.076	1615.266	1223.517
80.709	13.213	1614.223	1223.632
81.724	13.129	1613.422	1222.296
82.739	13.163	1612.782	1221.953
83.753	13.221	1611.605	1221.379
84.768	13.322	1610.683	1221.319
85.782	13.347	1609.593	1220.570
86.797	13.332	1609.159	1220.024
87.812	13.257	1608.493	1218.857
88.826	13.260	1606.733	1217.440
89.841	13.294	1605.510	1216.657
90.855	13.285	1604.508	1215.718
91.870	13.279	1603.690	1214.950
92.884	13.317	1602.751	1214.408
93.899	13.337	1601.686	1213.638
94.914	13.371	1600.196	1212.658
95.928	13.358	1598.992	1211.542
96.943	13.383	1597.617	1210.574
97.957	13.370	1596.213	1209.304
98.972	13.441	1594.382	1208.334
99.987	13.420	1593.205	1207.181
101.001	13.407	1591.796	1205.912
102.016	13.343	1590.445	1204.311
103.030	13.426	1588.661	1203.463
104.045	13.338	1587.799	1202.059
105.060	13.359	1586.479	1201.111
106.074	13.303	1584.815	1199.337
107.089	13.248	1583.328	1197.707
108.103	13.213	1581.628	1196.063
109.118	13.227	1580.319	1195.065
110.133	13.127	1579.616	1193.709
111.147	13.167	1577.979	1192.649
112.162	13.216	1576.355	1191.670
113.176	13.179	1575.217	1190.440
114.191	13.202	1574.171	1189.712
115.206	13.223	1572.688	1188.635
116.220	13.280	1571.540	1188.075
117.235	13.245	1570.253	1186.745
118.249	13.286	1569.352	1186.253
119.264	13.224	1567.385	1184.215
120.279	13.229	1566.189	1183.241
121.293	13.138	1565.029	1181.609
122.308	13.157	1563.195	1180.256
123.322	13.254	1561.669	1179.689
124.337	13.202	1560.290	1178.175
125.352	13.181	1559.176	1177.078
126.366	13.191	1557.847	1176.045
127.381	13.208	1556.907	1175.352
128.395	13.264	1555.657	1174.702
129.410	13.188	1554.103	1172.883
130.424	13.133	1553.409	1171.867
131.439	13.172	1551.838	1170.855
132.454	13.335	1550.044	1170.550
133.468	13.292	1549.058	1169.403
134.483	13.306	1547.363	1168.118
135.497	13.235	1546.449	1166.820
136.512	13.288	1544.882	1165.905
137.527	13.276	1543.600	1164.752
138.541	13.252	1542.094	1163.348
139.556	13.337	1540.966	1162.990
140.570	13.334	1539.268	1161.583
141.585	13.306	1538.068	1160.378
142.600	13.444	1536.869	1160.337
143.614	13.450	1535.639	1159.346
144.629	13.447	1534.427	1158.315
145.643	13.537	1532.794	1157.605
146.658	13.502	1531.503	1156.284
147.673	13.517	1530.011	1155.157
148.687	13.528	1528.781	1154.206
149.702	13.420	1527.302	1152.235
150.716	13.434	1525.499	1150.870
151.731	13.443	1524.028	1149.720
152.746	13.388	1522.498	1148.080
153.760	13.435	1521.324	1147.420
154.775	13.372	1520.396	1146.187
155.789	13.524	1518.784	1145.916
156.804	13.518	1517.745	1144.991
157.819	13.560	1516.160	1143.985
158.833	13.550	1515.336	1143.196
159.848	13.571	1514.143	1142.339
160.862	13.654	1512.977	1141.931
161.877	13.679	1511.644	1140.995
162.892	13.660	1510.401	1139.823
163.906	13.616	1508.795	1138.208
164.921	13.365	1508.114	1135.869
165.935	13.474	1507.088	1135.745
166.950	13.467	1505.965	1134.754
167.964	13.549	1504.554	1134.147
168.979	13.610	1503.537	1133.696
169.994	13.556	1502.771	1132.654
171.008	13.627	1501.549	1132.115
172.023	13.557	1500.441	1130.702
173.037	13.648	1499.313	1130.371
174.052	13.774	1497.983	1130.126
175.067	13.692	1497.395	1129.026
176.081	13.659	1495.813	1127.510
177.096	13.646	1494.531	1126.355
178.110	13.635	1493.056	1125.067
179.125	13.649	1492.369	1124.550
180.140	13.577	1491.233	1123.104
181.154	13.647	1489.766	1122.375
182.169	13.714	1488.906	1122.080
183.183	13.752	1487.801	1121.401
184.198	13.796	1486.259	1120.439
185.213	13.793	1485.158	1119.494
186.227	13.800	1484.195	1118.711
187.242	13.854	1483.437	1118.403
188.256	13.931	1482.243	1117.923
189.271	13.910	1480.882	1116.661
190.286	13.998	1479.413	1116.042
191.300	13.865	1478.675	1114.495
192.315	13.803	1477.459	1113.064
193.329	13.674	1475.996	1110.995
194.344	13.644	1475.146	1110.062
195.359	13.694	1474.003	1109.439
196.373	13.831	1472.769	1109.328
197.388	13.832	1471.628	1108.372
198.402	13.949	1470.999	1108.583
199.417	13.907	1470.018	1107.464
200.432	14.042	1469.025	1107.516
201.446	14.103	1467.698	1106.824
202.461	14.089	1466.922	1106.049
203.475	14.241	1465.431	1105.839
204.490	14.090	1464.827	1104.280
205.504	14.176	1463.555	1103.792
206.519	14.080	1462.294	1102.108
207.534	14.025	1461.050	1100.714
208.548	14.052	1460.437	1100.332
209.563	14.026	1459.158	1099.097
210.577	14.112	1457.676	1098.451
211.592	14.143	1456.904	1097.976
212.607	14.140	1456.318	1097.416
213.621	14.247	1455.498	1097.413
214.636	14.136	1454.582	1095.892
215.650	14.206	1453.491	1095.432
216.665	14.221	1452.646	1094.796
217.680	14.182	1452.062	1094.002
218.694	14.250	1451.088	1093.622
219.709	14.365	1449.852	1093.349
220.723	14.360	1448.897	1092.500
221.738	14.287	1448.376	1091.532
222.753	14.333	1447.409	1091.003
223.767	14.306	1446.462	1090.016
224.782	14.421	1445.103	1089.653
225.796	14.307	1444.355	1088.247
226.811	14.422	1443.627	1088.350
227.826	14.406	1443.095	1087.751
228.840	14.441	1441.603	1086.753
229.855	14.434	1440.913	1086.097
230.869	14.367	1440.164	1084.996
231.884	14.492	1438.968	1084.815
232.899	14.391	1437.753	1083.148
233.913	14.369	1436.642	1082.068
234.928	14.277	1435.910	1080.828
235.942	14.251	1434.711	1079.655
236.957	14.422	1433.271	1079.590
237.972	14.378	1432.015	1078.258
238.986	14.335	1431.170	1077.248
240.001	14.314	1429.774	1075.966
241.015	14.412	1428.602	1075.621
242.030	14.386	1427.549	1074.571
243.045	14.445	1426.876	1074.349
244.059	14.481	1425.913	1073.756
245.074	14.574	1424.947	1073.539
246.088	14.554	1424.186	1072.738
247.103	14.637	1423.528	1072.680
248.117	14.607	1422.575	1071.677
249.132	14.705	1421.780	1071.608
250.147	14.658	1421.651	1071.118
251.161	14.760	1420.674	1070.940
252.176	14.733	1420.300	1070.387
253.190	14.931	1418.897	1070.506
254.205	14.819	1418.549	1069.430
255.220	14.999	1417.274	1069.529
256.234	14.912	1416.647	1068.401
257.249	14.874	1415.772	1067.407
258.263	14.902	1415.508	1067.293
259.278	15.081	1414.000	1067.199
260.293	15.009	1413.105	1065.974
261.307	14.950	1412.570	1065.102
262.322	15.023	1411.795	1064.884
263.336	15.114	1410.985	1064.756
264.351	14.971	1410.284	1063.227
265.366	15.107	1408.787	1062.866
266.380	15.037	1408.156	1061.849
267.395	15.143	1406.940	1061.514
268.409	15.098	1406.304	1060.655
269.424	15.072	1405.176	1059.542
270.439	15.108	1404.091	1058.860
271.453	15.113	1403.137	1058.081
272.468	15.022	1402.791	1057.149
273.482	15.136	1401.465	1056.778
274.497	15.129	1400.714	1056.074
275.512	15.126	1399.779	1055.256
276.526	15.227	1398.712	1054.996
277.541	15.171	1398.156	1054.127
278.555	15.174	1397.134	1053.283
279.570	15.041	1396.935	1052.202
280.585	15.218	1395.253	1051.954
281.599	15.268	1394.464	1051.581
282.614	15.353	1393.604	1051.376
283.628	15.273	1392.771	1050.147
284.643	15.351	1391.495	1049.581
285.657	15.270	1390.787	1048.449
286.672	15.229	1389.786	1047.345
287.687	15.224	1388.912	1046.565
288.701	15.381	1387.632	1046.488
289.716	15.261	1387.230	1045.342
290.730	15.336	1386.164	1044.916
291.745	15.343	1384.875	1043.891
292.760	15.337	1384.056	1043.143
293.774	15.426	1382.779	1042.644
294.789	15.384	1381.926	1041.650
295.803	15.551	1380.964	1041.867
296.818	15.548	1380.146	1041.138
297.833	15.434	1379.291	1039.697
298.847	15.398	1378.140	1038.512
299.862	15.367	1377.220	1037.539
300.876	15.566	1375.876	1037.659
301.891	15.418	1375.395	1036.291
302.906	15.489	1374.737	1036.144
303.920	15.523	1374.076	1035.760
304.935	15.555	1373.137	1035.158
305.949	15.640	1372.254	1034.926
306.964	15.631	1371.840	1034.470
307.979	15.737	1370.608	1034.096
308.993	15.688	1370.088	1033.314
310.008	15.677	1369.095	1032.403
311.022	15.700	1367.958	1031.598
312.037	15.747	1366.757	1030.891
313.052	15.689	1366.110	1029.954
314.066	15.781	1364.950	1029.550
315.081	15.646	1363.904	1027.847
316.095	15.636	1362.969	1026.991
317.110	15.706	1362.030	1026.622
318.125	15.649	1360.667	1025.156
319.139	15.749	1359.919	1025.111
320.154	15.640	1359.194	1023.805
321.168	15.679	1357.867	1022.957
322.183	15.742	1356.923	1022.536
323.197	15.787	1355.606	1021.729
324.212	15.772	1355.483	1021.449
325.227	15.796	1354.755	1020.961
326.241	15.757	1353.701	1019.839
327.256	15.847	1352.912	1019.696
328.270	15.787	1351.975	1018.539
329.285	15.780	1351.110	1017.754
330.300	15.909	1349.653	1017.344
331.314	15.786	1349.046	1016.055
332.329	15.875	1347.851	1015.604
333.343	15.910	1347.006	1015.090
334.358	15.900	1346.376	1014.460
335.373	15.815	1345.946	1013.536
336.387	15.976	1344.673	1013.458
337.402	15.973	1343.718	1012.629
338.416	15.978	1343.491	1012.399
339.431	15.988	1343.369	1012.280
340.446	15.930	1342.455	1011.148
341.460	16.059	1341.112	1010.824
342.475	16.062	1340.273	1010.118
343.489	16.142	1339.087	1009.614
344.504	16.065	1338.839	1008.881
345.519	16.210	1337.366	1008.546
346.533	16.209	1336.614	1007.883
347.548	16.272	1335.264	1007.150
348.562	16.310	1334.702	1006.865
349.577	16.255	1334.033	1005.941
350.592	16.320	1332.949	1005.427
351.606	16.253	1332.088	1004.290
352.621	16.143	1331.441	1003.058
353.635	16.128	1330.135	1001.894
354.650	16.146	1329.494	1001.434
355.665	16.217	1328.412	1000.950
356.679	16.232	1327.001	999.885
357.694	16.218	1326.696	999.483
358.708	16.304	1325.257	998.822
359.723	16.261	1324.097	997.601
360.738	16.296	1323.496	997.267
361.752	16.296	1322.426	996.376
362.767	16.331	1321.073	995.474
363.781	16.349	1320.276	994.892
364.796	16.272	1319.840	994.024
365.810	16.405	1319.139	994.188
366.825	16.515	1318.202	994.042
367.840	16.412	1317.373	992.724
368.854	16.506	1316.788	992.747
369.869	16.614	1316.370	992.974
370.883	16.589	1315.389	992.001
371.898	16.520	1315.053	991.255
372.913	16.610	1314.066	990.951
373.927	16.570	1312.851	989.713
374.942	16.582	1312.348	989.315
375.956	16.619	1311.245	988.615
376.971	16.607	1310.825	988.141
377.986	16.609	1310.094	987.510
379.000	16.671	1308.984	986.948
380.015	16.664	1308.145	986.192
381.029	16.772	1307.255	986.063
382.044	16.863	1306.614	986.019
383.059	16.690	1306.205	984.618
384.073	16.845	1305.361	984.792
385.088	16.793	1304.930	984.083
386.102	16.787	1304.455	983.603
387.117	16.837	1303.452	983.048
388.132	16.861	1302.638	982.482
389.146	16.796	1301.884	981.450
390.161	16.852	1300.859	980.918
391.175	16.818	1299.990	979.981
392.190	16.845	1299.052	979.343
393.205	16.910	1298.589	979.283
394.219	16.929	1297.494	978.476
395.234	16.922	1296.558	977.646
396.248	16.879	1295.507	976.517
397.263	16.871	1294.012	975.257
398.278	16.881	1292.788	974.310
399.292	16.924	1291.567	973.550
400.307	16.925	1290.487	972.656
401.321	16.835	1289.591	971.375
402.336	16.827	1288.599	970.498
403.350	16.912	1287.190	969.835
404.365	16.859	1286.582	968.989
405.380	16.887	1285.385	968.160
406.394	17.012	1284.530	968.148
407.409	17.085	1283.942	968.036
408.423	17.085	1283.525	967.635
409.438	17.130	1282.847	967.294
410.453	17.151	1281.789	966.531
411.467	17.234	1281.238	966.498
412.482	17.208	1280.826	965.959
413.496	17.156	1280.366	965.226
414.511	17.183	1279.643	964.751
415.526	17.320	1278.492	964.574
416.540	17.269	1277.895	963.751
417.555	17.260	1277.308	963.170
418.569	17.304	1276.651	962.840
419.584	17.396	1276.004	962.789
420.599	17.454	1275.239	962.451
421.613	97.315	1355.764	1478.409
422.628	94.995	1367.448	1478.486
