DTS Sentinel unit serial number:	SN413079Multiplexer serial number:	ORYXHardware model number:	OX4-SRSoftware version number:	ORYX F/W v4.00 Oryx Data Collector v3.7.2.0data status	okinstallation	princeton_trtdifferential loss correction	single-endedforward channel	channel 4reverse channel	N/Adate	2019/09/19time	14:01:35forward acquisition time	60.00reverse acquisition time	0.00gamma	496.2192k internal	0.2308k external	0.2308temperature offset calibration	1.0017default loss term (dB/km)	0.3790temperature slope calibration	1.0000multiplexer offset coefficient	1.0000multiplexer slope coefficient	1.0000fibre end	0.00T internal ref (°C)	31.17T ext. ref 1 (°C)	1.02T ext. ref 2 (°C)	28.41length (m)	temperature (°C)	Stokes	anti-Stokes-747.200	-200.000	-0.013	0.148
-746.185	-82.256	-0.346	0.114
-745.171	27.389	0.070	-0.060
-744.156	-200.000	0.002	-0.021
-743.142	-105.749	0.189	0.043
-742.127	-68.660	-0.292	-0.115
-741.112	-200.000	0.030	-0.210
-740.098	591.159	-0.047	-0.118
-739.083	339.596	0.156	0.308
-738.069	800.000	0.099	0.420
-737.054	-85.314	0.287	0.091
-736.039	-43.509	-0.073	-0.038
-735.025	-200.000	-0.078	-0.371
-734.010	800.000	-0.076	-0.283
-732.996	81.448	0.146	0.160
-731.981	800.000	0.065	-0.199
-730.966	-200.000	-0.017	0.098
-729.952	105.504	-0.140	-0.168
-728.937	29.946	0.268	-0.232
-727.923	401.812	-0.207	-0.442
-726.908	-54.434	-0.287	0.132
-725.894	-200.000	-0.028	-0.227
-724.879	-156.663	-0.177	-0.011
-723.864	148.054	0.166	-0.228
-722.850	800.000	0.077	-0.299
-721.835	-46.767	-0.326	-0.162
-720.821	-78.153	-0.364	-0.127
-719.806	-125.241	-0.332	-0.051
-718.791	525.491	0.021	0.050
-717.777	-125.953	-0.109	-0.017
-716.762	33.387	-0.077	0.068
-715.748	-149.737	-0.121	-0.010
-714.733	-200.000	0.030	0.562
-713.718	-200.000	-0.052	0.387
-712.704	291.562	-0.047	0.086
-711.689	-59.840	-0.197	0.086
-710.675	-200.000	0.058	-0.289
-709.660	266.016	0.065	0.116
-708.645	162.700	-0.254	-0.362
-707.631	566.065	-0.069	0.170
-706.616	295.709	0.059	-0.110
-705.602	800.000	0.057	-0.166
-704.587	-59.957	-0.338	0.147
-703.572	-200.000	0.006	0.316
-702.558	86.665	0.106	0.119
-701.543	733.603	0.076	-0.207
-700.529	125.233	-0.153	0.195
-699.514	-80.411	-0.156	-0.053
-698.499	210.945	-0.183	-0.292
-697.485	800.000	0.028	0.100
-696.470	-171.097	-0.478	-0.016
-695.456	-200.000	0.020	0.107
-694.441	800.000	0.037	0.106
-693.426	29.067	0.252	0.217
-692.412	-200.000	0.019	-0.141
-691.397	-112.398	-0.073	-0.015
-690.383	-200.000	0.041	-0.220
-689.368	-135.409	0.336	-0.041
-688.354	-53.542	0.035	0.016
-687.339	-29.658	-0.251	-0.145
-686.324	565.341	-0.115	-0.282
-685.310	-82.262	-0.100	0.033
-684.295	74.708	-0.039	0.042
-683.281	376.479	0.046	0.094
-682.266	-200.000	0.012	0.056
-681.251	-12.509	0.184	0.122
-680.237	-200.000	0.017	0.116
-679.222	-83.986	-0.235	-0.076
-678.208	-132.171	0.268	-0.035
-677.193	800.000	-0.043	-0.123
-676.178	-69.960	-0.375	0.145
-675.164	800.000	0.068	-0.300
-674.149	-147.163	-0.264	-0.023
-673.135	-200.000	-0.007	-0.502
-672.120	-62.589	0.121	-0.051
-671.105	-21.102	-0.104	-0.065
-670.091	-52.088	0.224	-0.105
-669.076	-81.811	0.169	-0.056
-668.062	-10.513	-0.092	0.062
-667.047	-192.284	0.341	-0.003
-666.032	-190.697	-0.341	-0.004
-665.018	-49.577	-0.313	-0.151
-664.003	7.424	0.040	-0.030
-662.989	-77.773	0.506	-0.177
-661.974	-200.000	-0.005	-0.131
-660.959	-138.227	-0.333	-0.037
-659.945	-60.201	-0.123	0.053
-658.930	-47.141	0.320	0.158
-657.916	-41.279	-0.321	0.167
-656.901	-200.000	-0.017	-0.158
-655.886	-200.000	0.033	0.161
-654.872	-18.737	0.105	-0.066
-653.857	117.831	-0.095	0.119
-652.843	-199.528	-0.253	0.001
-651.828	163.506	-0.012	-0.017
-650.814	-86.834	-0.009	0.003
-649.799	74.633	0.187	-0.200
-648.784	39.064	-0.123	-0.111
-647.770	491.673	0.089	0.206
-646.755	-83.842	0.288	-0.093
-645.741	-102.323	-0.179	-0.044
-644.726	49.824	0.100	0.096
-643.711	-200.000	-0.005	-0.376
-642.697	-200.000	0.005	-0.147
-641.682	-40.276	0.128	-0.068
-640.668	800.000	0.047	-0.201
-639.653	104.649	-0.249	-0.297
-638.638	-97.989	-0.129	-0.034
-637.624	14.510	-0.251	0.199
-636.609	-200.000	0.013	0.305
-635.595	196.367	-0.097	-0.150
-634.580	-108.302	0.170	-0.037
-633.565	-200.000	-0.040	-0.311
-632.551	442.899	-0.127	0.281
-631.536	-129.289	-0.194	0.027
-630.522	-160.351	0.144	0.008
-629.507	276.495	-0.101	-0.182
-628.492	726.506	0.037	0.099
-627.478	-84.524	0.321	-0.103
-626.463	115.834	0.219	-0.271
-625.449	-200.000	-0.063	0.481
-624.434	31.576	0.093	0.081
-623.419	800.000	-0.076	-0.246
-622.405	-22.153	0.325	0.200
-621.390	-200.000	0.029	-0.136
-620.376	498.092	-0.169	0.394
-619.361	-58.283	0.109	0.048
-618.346	26.418	0.088	0.075
-617.332	457.001	0.064	-0.143
-616.317	-139.043	0.202	0.022
-615.303	-72.852	0.249	-0.093
-614.288	-97.201	-0.271	0.072
-613.273	-25.905	0.259	0.154
-612.259	-200.000	0.015	0.118
-611.244	465.947	0.025	0.056
-610.230	-55.394	-0.281	0.127
-609.215	-180.222	0.169	0.004
-608.201	-84.761	-0.121	0.038
-607.186	3.260	-0.111	0.082
-606.171	-134.168	0.129	-0.016
-605.157	-3.263	-0.301	-0.212
-604.142	-200.000	-0.011	0.137
-603.128	38.932	0.289	0.261
-602.113	-200.000	0.051	0.355
-601.098	147.436	-0.083	0.113
-600.084	-68.935	-0.092	-0.036
-599.069	32.975	0.158	-0.138
-598.055	121.832	0.067	-0.085
-597.040	-130.643	0.150	-0.020
-596.025	-40.171	0.058	-0.030
-595.011	-151.578	-0.247	0.018
-593.996	384.460	0.079	0.164
-592.982	145.110	-0.041	-0.056
-591.967	-200.000	-0.012	0.094
-590.952	-200.000	-0.025	-0.170
-589.938	458.730	-0.236	0.530
-588.923	-170.057	0.257	0.009
-587.909	-32.998	-0.199	-0.112
-586.894	28.002	-0.225	0.192
-585.879	44.423	0.295	-0.274
-584.865	59.664	0.097	0.097
-583.850	250.322	0.114	0.196
-582.836	219.487	-0.199	-0.322
-581.821	90.683	0.135	-0.152
-580.806	-72.478	-0.119	0.044
-579.792	-75.816	0.215	0.077
-578.777	-125.252	0.139	0.021
-577.763	-143.265	-0.225	0.022
-576.748	800.000	0.031	-0.108
-575.733	-185.768	0.343	0.005
-574.719	167.746	0.097	-0.139
-573.704	612.099	0.114	-0.288
-572.690	145.026	-0.059	-0.080
-571.675	-88.251	0.412	0.125
-570.661	-61.821	-0.125	-0.053
-569.646	449.622	-0.086	-0.191
-568.631	10.474	-0.207	-0.159
-567.617	-71.261	-0.247	0.094
-566.602	-66.094	0.101	0.041
-565.588	-55.791	-0.137	0.062
-564.573	800.000	-0.045	-0.171
-563.558	166.510	-0.069	-0.099
-562.544	122.260	-0.117	-0.148
-561.529	186.448	0.021	0.032
-560.515	-9.546	-0.089	-0.060
-559.500	-161.556	-0.212	0.011
-558.485	-77.465	0.147	0.052
-557.471	620.281	-0.054	-0.137
-556.456	120.515	-0.211	0.264
-555.442	-40.999	-0.135	-0.070
-554.427	-40.196	-0.144	-0.076
-553.412	-85.361	0.039	-0.012
-552.398	139.813	-0.186	-0.248
-551.383	515.279	-0.052	-0.123
-550.369	170.789	0.023	0.034
-549.354	-200.000	0.008	0.060
-548.339	-60.716	0.206	-0.088
-547.325	22.441	-0.179	0.147
-546.310	648.136	-0.117	0.303
-545.296	106.164	-0.133	0.158
-544.281	-5.207	-0.208	0.144
-543.266	-200.000	0.028	0.128
-542.252	-74.786	-0.062	-0.022
-541.237	-200.000	-0.036	0.243
-540.223	-110.567	-0.288	0.060
-539.208	-157.408	-0.156	0.009
-538.193	198.720	-0.079	-0.121
-537.179	109.010	-0.330	0.398
-536.164	800.000	-0.037	0.112
-535.150	-200.000	0.018	0.225
-534.135	800.000	0.037	0.146
-533.121	800.000	-0.052	-0.200
-532.106	-60.257	0.100	0.043
-531.091	-73.508	-0.111	0.041
-530.077	-50.947	-0.285	0.135
-529.062	800.000	0.049	-0.146
-528.048	-168.151	-0.212	-0.008
-527.033	83.235	-0.222	-0.244
-526.018	778.203	0.060	-0.166
-525.004	-181.287	-0.142	-0.003
-523.989	84.548	-0.049	0.054
-522.975	-107.034	0.192	-0.043
-521.960	800.000	0.076	0.316
-520.945	800.000	0.060	0.182
-519.931	545.187	-0.185	-0.445
-518.916	-197.353	0.046	0.000
-517.902	-110.829	0.171	-0.035
-516.887	-114.518	0.232	0.045
-515.872	800.000	0.108	-0.339
-514.858	18.776	-0.479	-0.387
-513.843	-70.875	-0.220	-0.084
-512.829	-116.058	-0.237	-0.044
-511.814	800.000	0.079	0.281
-510.799	-86.026	0.150	0.047
-509.785	-200.000	-0.000	-0.089
-508.770	577.760	-0.050	0.124
-507.756	96.407	-0.183	-0.210
-506.741	800.000	-0.064	-0.200
-505.726	-22.065	-0.209	-0.128
-504.712	105.277	0.159	-0.189
-503.697	-186.355	0.203	-0.003
-502.683	31.682	0.107	0.093
-501.668	286.894	0.074	0.134
-500.653	1.702	-0.090	0.065
-499.639	-22.456	0.146	0.089
-498.624	199.412	-0.204	-0.315
-497.610	149.330	-0.160	-0.219
-496.595	-42.595	-0.123	-0.063
-495.581	700.352	0.060	-0.160
-494.566	800.000	-0.128	-0.449
-493.551	-200.000	-0.029	-0.155
-492.537	419.830	-0.063	-0.135
-491.522	800.000	-0.023	0.080
-490.508	-200.000	-0.086	0.435
-489.493	46.003	-0.044	0.041
-488.478	-200.000	0.008	0.065
-487.464	19.643	0.374	0.303
-486.449	-4.419	-0.225	-0.156
-485.435	474.996	0.156	-0.354
-484.420	87.419	0.227	0.253
-483.405	763.115	-0.083	0.228
-482.391	-38.223	0.313	0.167
-481.376	459.444	-0.061	0.136
-480.362	-200.000	0.024	-0.116
-479.347	-200.000	-0.013	0.131
-478.332	152.823	-0.183	0.252
-477.318	-143.295	0.213	-0.021
-476.303	-200.000	-0.042	-0.222
-475.289	-35.092	0.254	0.139
-474.274	-48.993	0.249	-0.120
-473.259	62.752	-0.135	-0.136
-472.245	-200.000	-0.024	-0.135
-471.230	60.085	-0.228	0.227
-470.216	-52.364	-0.216	0.101
-469.201	393.978	-0.055	0.116
-468.186	-200.000	-0.026	-0.520
-467.172	800.000	0.144	-0.411
-466.157	102.786	-0.208	-0.245
-465.143	-200.000	-0.004	-0.101
-464.128	-77.723	0.169	0.059
-463.113	340.728	0.190	0.374
-462.099	-200.000	-0.016	0.134
-461.084	-109.513	-0.139	0.029
-460.070	-95.262	0.290	-0.079
-459.055	45.837	0.156	0.145
-458.040	-10.239	0.176	0.117
-457.026	-200.000	0.023	0.494
-456.011	-0.942	0.353	0.251
-454.997	75.178	0.236	0.250
-453.982	-145.857	0.120	0.011
-452.968	-8.099	-0.252	0.171
-451.953	299.737	0.048	0.088
-450.938	291.948	-0.144	-0.263
-449.924	-5.548	-0.192	-0.132
-448.909	40.802	-0.164	0.148
-447.895	800.000	0.079	0.237
-446.880	800.000	-0.064	0.267
-445.865	800.000	0.075	-0.267
-444.851	442.940	-0.060	-0.131
-443.836	-200.000	0.034	-0.270
-442.822	-39.172	-0.362	0.191
-441.807	532.106	-0.162	0.384
-440.792	308.776	0.104	0.195
-439.778	-150.749	-0.173	-0.013
-438.763	-200.000	0.011	0.262
-437.749	371.765	-0.086	0.176
-436.734	234.493	-0.125	-0.208
-435.719	9.031	-0.121	-0.092
-434.705	119.044	-0.087	0.108
-433.690	-58.350	0.069	0.030
-432.676	-70.514	0.128	-0.049
-431.661	-104.280	-0.222	-0.052
-430.646	-3.202	0.206	-0.144
-429.632	720.633	-0.014	0.038
-428.617	154.202	-0.239	0.329
-427.603	23.915	0.156	-0.129
-426.588	88.444	-0.051	0.057
-425.573	61.721	0.174	-0.174
-424.559	167.595	-0.211	-0.301
-423.544	421.237	-0.133	0.286
-422.530	-200.000	0.010	-0.135
-421.515	400.353	-0.104	-0.219
-420.500	-200.000	0.009	-0.146
-419.486	186.003	0.220	-0.329
-418.471	-115.139	-0.019	-0.004
-417.457	-71.666	-0.098	0.037
-416.442	105.265	-0.134	-0.159
-415.428	-200.000	-0.027	-0.271
-414.413	-141.577	0.213	0.022
-413.398	304.057	0.094	0.176
-412.384	700.105	0.144	0.381
-411.369	-64.156	0.145	-0.059
-410.355	-91.174	-0.235	-0.067
-409.340	160.928	0.087	-0.122
-408.325	147.864	-0.123	0.166
-407.311	342.760	0.022	-0.044
-406.296	-200.000	-0.022	-0.313
-405.282	800.000	0.028	0.114
-404.267	127.049	0.133	0.169
-403.252	-124.784	-0.197	-0.031
-402.238	468.365	-0.062	-0.140
-401.223	-200.000	0.033	-0.299
-400.209	-73.021	-0.251	-0.093
-399.194	103.619	-0.192	0.226
-398.179	-32.701	-0.112	-0.062
-397.165	138.899	0.157	-0.207
-396.150	16.522	-0.077	0.061
-395.136	129.512	0.188	0.240
-394.121	384.602	-0.099	-0.204
-393.106	800.000	0.066	0.223
-392.092	691.789	-0.059	-0.154
-391.077	114.794	-0.126	-0.154
-390.063	217.058	0.059	-0.094
-389.048	-9.965	0.145	-0.097
-388.033	-200.000	-0.020	-0.364
-387.019	-77.603	-0.063	0.022
-386.004	152.091	0.135	0.185
-384.990	-103.168	-0.157	-0.037
-383.975	-15.765	-0.245	0.156
-382.960	369.564	-0.060	-0.121
-381.946	-63.196	0.149	0.061
-380.931	-15.336	0.439	0.281
-379.917	127.357	-0.155	0.197
-378.902	-75.770	0.190	-0.067
-377.888	-200.000	-0.026	0.251
-376.873	-118.657	0.068	0.012
-375.858	102.542	-0.090	0.106
-374.844	800.000	0.027	0.093
-373.829	-121.057	0.435	0.073
-372.815	82.005	0.254	-0.276
-371.800	93.721	0.034	0.038
-370.785	-200.000	-0.025	0.239
-369.771	-79.253	0.382	0.130
-368.756	-112.930	0.293	0.058
-367.742	49.981	0.305	0.288
-366.727	-200.000	-0.002	0.033
-365.712	-200.000	-0.391	-0.001
-364.698	36.635	0.238	0.211
-363.683	31.307	0.286	-0.246
-362.669	-200.000	0.040	0.223
-361.654	31.216	0.140	0.120
-360.639	800.000	-0.087	-0.279
-359.625	-23.818	-0.364	-0.219
-358.610	-200.000	0.033	-0.265
-357.596	101.081	-0.144	-0.168
-356.581	48.731	-0.149	0.140
-355.566	648.992	-0.011	-0.028
-354.552	800.000	0.058	-0.201
-353.537	93.878	-0.146	0.166
-352.523	-133.522	-0.234	-0.029
-351.508	152.629	-0.012	-0.017
-350.493	-87.585	-0.380	-0.115
-349.479	-134.034	0.287	-0.036
-348.464	-61.668	0.112	0.047
-347.450	800.000	0.042	-0.154
-346.435	23.707	-0.117	0.096
-345.420	-29.755	0.168	0.096
-344.406	678.600	0.067	0.174
-343.391	-200.000	-0.036	0.171
-342.377	800.000	-0.072	-0.305
-341.362	-200.000	0.000	-0.139
-340.348	210.544	-0.084	0.132
-339.333	-64.696	-0.150	0.061
-338.318	-186.944	0.225	-0.003
-337.304	0.302	-0.127	-0.091
-336.289	768.418	0.031	-0.083
-335.275	-27.783	-0.055	0.032
-334.260	323.527	-0.209	-0.398
-333.245	25.829	0.218	-0.182
-332.231	-74.142	0.196	0.071
-331.216	-110.368	0.084	0.018
-330.202	-169.069	-0.347	-0.013
-329.187	33.693	-0.145	0.126
-328.172	-200.000	0.026	-0.199
-327.158	-42.614	0.137	0.070
-326.143	-200.000	-0.055	0.243
-325.129	726.751	-0.134	-0.356
-324.114	-67.989	-0.205	0.080
-323.099	-62.937	-0.119	0.049
-322.085	86.899	-0.063	-0.069
-321.070	-171.970	0.200	-0.007
-320.056	213.405	0.108	-0.170
-319.041	-10.709	0.193	0.128
-318.026	-200.000	-0.002	0.171
-317.012	-200.000	-0.008	0.063
-315.997	-200.000	0.047	-0.549
-314.983	-101.018	-0.284	-0.070
-313.968	-65.516	0.186	0.074
-312.953	-66.187	0.166	0.066
-311.939	-67.589	-0.178	0.070
-310.924	85.107	0.072	0.079
-309.910	60.746	-0.336	0.333
-308.895	190.080	0.187	0.280
-307.880	-83.822	-0.150	-0.048
-306.866	515.241	-0.020	-0.047
-305.851	4.086	0.276	0.202
-304.837	123.775	0.337	0.422
-303.822	800.000	-0.103	0.365
-302.807	-51.021	-0.150	0.071
-301.793	59.137	0.131	0.128
-300.778	10.128	0.171	-0.130
-299.764	800.000	0.033	0.122
-298.749	-81.764	0.217	0.071
-297.735	115.207	0.055	0.067
-296.720	-200.000	0.020	0.156
-295.705	43.872	0.287	-0.262
-294.691	246.361	0.211	-0.355
-293.676	-82.849	-0.427	-0.138
-292.662	-200.000	0.007	-0.162
-291.647	-86.413	0.046	-0.014
-290.632	800.000	-0.010	0.044
-289.618	-132.771	-0.245	-0.031
-288.603	-200.000	0.009	-0.260
-287.589	-22.082	0.229	0.139
-286.574	153.353	-0.143	-0.196
-285.559	65.438	0.090	0.091
-284.545	-200.000	0.007	-0.074
-283.530	800.000	0.048	-0.137
-282.516	147.986	-0.185	-0.249
-281.501	-200.000	0.018	0.313
-280.486	-200.000	0.025	-0.176
-279.472	81.028	-0.136	-0.146
-278.457	440.379	-0.282	0.615
-277.443	-49.364	-0.100	-0.048
-276.428	371.632	0.017	-0.034
-275.413	-200.000	0.042	-0.192
-274.399	-36.131	0.334	0.180
-273.384	-74.608	-0.176	0.063
-272.370	298.062	-0.156	-0.286
-271.355	-43.501	0.378	-0.191
-270.340	78.316	0.172	0.183
-269.326	800.000	-0.017	-0.061
-268.311	-30.064	-0.139	0.079
-267.297	473.560	0.151	0.340
-266.282	-136.263	-0.307	0.036
-265.267	-200.000	-0.015	0.178
-264.253	416.408	0.066	-0.140
-263.238	111.181	-0.172	-0.207
-262.224	38.039	0.153	-0.136
-261.209	-28.786	-0.046	0.026
-260.195	800.000	-0.025	0.099
-259.180	-111.896	0.063	0.013
-258.165	-200.000	0.023	-0.200
-257.151	31.509	0.091	0.078
-256.136	-109.730	0.196	0.041
-255.122	606.803	-0.158	-0.393
-254.107	-86.779	-0.059	0.018
-253.092	784.854	-0.079	0.215
-252.078	246.921	-0.084	0.141
-251.063	364.951	0.135	-0.270
-250.049	259.129	-0.104	0.178
-249.034	746.933	-0.073	0.197
-248.019	613.453	-0.056	0.141
-247.005	-14.830	-0.111	0.071
-245.990	-59.418	0.311	0.133
-244.976	-56.904	-0.126	0.055
-243.961	800.000	0.108	0.329
-242.946	240.539	0.065	0.108
-241.932	-81.781	-0.332	-0.108
-240.917	69.937	-0.178	0.183
-239.903	203.142	-0.092	-0.141
-238.888	-20.546	0.141	0.086
-237.873	150.673	0.090	0.122
-236.859	-117.006	0.131	-0.024
-235.844	82.042	-0.197	0.212
-234.830	800.000	0.079	0.253
-233.815	47.141	0.052	-0.048
-232.800	-200.000	-0.021	-0.275
-231.786	-120.500	-0.185	-0.031
-230.771	-200.000	0.008	0.055
-229.757	45.391	0.071	-0.065
-228.742	-103.836	-0.552	-0.129
-227.727	-200.000	0.011	-0.130
-226.713	-52.311	0.132	-0.061
-225.698	86.960	0.226	-0.248
-224.684	-165.952	0.279	-0.012
-223.669	76.091	0.260	-0.274
-222.655	-74.042	0.246	-0.089
-221.640	800.000	0.118	0.395
-220.625	77.493	-0.188	0.199
-219.611	132.291	0.065	0.084
-218.596	-148.727	0.130	-0.011
-217.582	112.781	0.130	-0.157
-216.567	457.622	-0.037	0.081
-215.552	-200.000	0.007	0.122
-214.538	800.000	0.017	-0.056
-213.523	178.136	-0.162	0.235
-212.509	-200.000	0.013	0.239
-211.494	276.172	-0.044	-0.078
-210.479	16.404	0.084	-0.066
-209.465	51.107	0.198	-0.187
-208.450	19.629	0.340	-0.272
-207.436	461.286	-0.115	-0.255
-206.421	307.686	0.088	-0.163
-205.406	800.000	-0.055	0.179
-204.392	-28.414	-0.206	0.118
-203.377	-200.000	0.022	0.097
-202.363	153.915	0.173	0.236
-201.348	-181.545	-0.167	-0.003
-200.333	88.520	-0.119	0.132
-199.319	-200.000	-0.002	0.146
-198.304	-26.669	0.130	-0.076
-197.290	1.944	-0.172	0.123
-196.275	-145.021	-0.103	0.009
-195.260	-73.018	0.223	-0.082
-194.246	19.053	-0.252	-0.201
-193.231	115.383	0.156	-0.190
-192.217	-0.258	-0.093	0.066
-191.202	-200.000	-0.015	-0.363
-190.187	-10.040	-0.268	0.177
-189.173	-115.032	0.130	0.025
-188.158	-200.000	0.055	-0.241
-187.144	-71.363	-0.077	-0.029
-186.129	-200.000	0.006	-0.399
-185.114	163.212	0.075	0.105
-184.100	-124.863	0.194	0.030
-183.085	-56.968	-0.319	-0.140
-182.071	800.000	-0.081	0.252
-181.056	5.853	-0.073	-0.054
-180.042	187.735	-0.111	-0.165
-179.027	-109.516	0.136	-0.029
-178.012	800.000	0.019	-0.081
-176.998	72.006	0.158	0.164
-175.983	-61.626	0.164	0.068
-174.969	-136.111	0.140	-0.016
-173.954	-21.148	-0.269	-0.163
-172.939	-127.825	0.314	0.045
-171.925	-91.290	0.101	-0.029
-170.910	-18.448	0.221	-0.137
-169.896	-109.718	-0.150	-0.031
-168.881	-47.224	0.168	-0.082
-167.866	-70.678	0.221	-0.083
-166.852	-200.000	-0.009	0.176
-165.837	800.000	-0.030	-0.089
-164.823	34.309	0.404	0.350
-163.808	-113.458	-0.109	0.021
-162.793	-32.175	0.355	-0.197
-161.779	-64.506	-0.223	-0.090
-160.764	268.452	0.082	-0.142
-159.750	192.730	0.181	-0.271
-158.735	152.203	-0.175	-0.237
-157.720	-172.225	-0.280	-0.009
-156.706	567.474	-0.074	0.179
-155.691	-200.000	0.020	-0.334
-154.677	-181.476	-0.368	0.007
-153.662	-28.592	0.277	0.158
-152.647	243.997	-0.156	0.261
-151.633	196.389	0.268	0.405
-150.618	-200.000	-0.017	-0.076
-149.604	-165.232	0.237	-0.010
-148.589	10.228	0.140	-0.106
-147.574	708.815	0.136	0.357
-146.560	19.017	-0.218	0.174
-145.545	194.102	0.032	-0.048
-144.531	282.125	0.137	0.243
-143.516	-123.171	-0.195	-0.031
-142.502	-34.206	0.320	-0.175
-141.487	626.563	0.157	0.394
-140.472	220.919	-0.143	-0.227
-139.458	800.000	0.022	-0.070
-138.443	255.064	0.103	-0.175
-137.429	-50.313	0.066	-0.031
-136.414	800.000	0.032	0.124
-135.399	-200.000	0.041	0.191
-134.385	29.642	-0.143	0.120
-133.370	-97.380	-0.150	-0.039
-132.356	-200.000	0.021	0.129
-131.341	-200.000	-0.056	0.434
-130.326	-60.980	0.221	-0.093
-129.312	-58.878	0.335	0.144
-128.297	-27.427	-0.227	0.131
-127.283	451.153	0.066	0.145
-126.268	96.696	-0.276	0.314
-125.253	800.000	0.017	0.069
-124.239	800.000	-0.051	0.213
-123.224	-45.513	-0.536	-0.264
-122.210	-27.760	0.181	0.104
-121.195	569.007	-0.087	-0.209
-120.180	800.000	0.096	-0.409
-119.166	-60.668	-0.165	0.069
-118.151	800.000	0.155	0.466
-117.137	176.308	-0.081	0.117
-116.122	74.479	0.233	0.242
-115.107	21.492	0.214	0.172
-114.093	-43.409	-0.336	-0.169
-113.078	-55.966	0.073	-0.032
-112.064	129.417	0.172	-0.218
-111.049	-22.434	-0.284	0.171
-110.034	800.000	0.055	0.240
-109.020	181.772	0.218	0.319
-108.005	352.217	-0.037	0.073
-106.991	-85.927	-0.322	-0.099
-105.976	-182.064	0.094	-0.002
-104.962	-63.463	-0.188	0.077
-103.947	111.785	-0.188	0.225
-102.932	-200.000	0.000	0.016
-101.918	-181.606	0.068	-0.001
-100.903	377.270	0.246	-0.498
-99.889	196.504	0.078	-0.118
-98.874	46.905	-0.010	0.009
-97.859	119.644	-0.082	-0.100
-96.845	259.851	0.051	-0.088
-95.830	-200.000	0.063	-0.324
-94.816	119.489	0.291	-0.357
-93.801	8.823	0.022	0.017
-92.786	-35.863	-0.079	-0.043
-91.772	-200.000	0.029	-0.190
-90.757	136.169	0.163	-0.211
-89.743	-88.409	-0.245	0.073
-88.728	-134.363	-0.494	-0.060
-87.713	282.351	0.102	0.181
-86.699	-134.512	-0.420	-0.051
-85.684	478.051	0.221	-0.496
-84.670	-111.029	0.326	-0.066
-83.655	-4.201	-0.102	0.070
-82.640	-60.896	0.254	0.107
-81.626	-200.000	0.010	0.241
-80.611	-200.000	0.011	0.300
-79.597	-118.247	0.231	-0.041
-78.582	800.000	-0.026	0.112
-77.567	-52.008	0.375	-0.173
-76.553	324.543	-0.081	-0.154
-75.538	191.648	0.079	-0.117
-74.524	-125.962	0.055	0.008
-73.509	-63.774	0.193	0.078
-72.494	-15.635	0.152	0.096
-71.480	31.724	-0.219	0.186
-70.465	-57.430	-0.161	0.070
-69.451	-51.983	0.172	-0.079
-68.436	-70.325	-0.218	-0.082
-67.422	639.782	0.065	-0.164
-66.407	-200.000	-0.025	0.227
-65.392	45.054	0.284	-0.259
-64.378	-6.461	0.120	0.081
-63.363	-24.913	-0.037	0.022
-62.349	-128.562	0.192	-0.027
-61.334	21.134	-0.919	-0.738
-60.319	98.937	0.462	0.528
-59.305	535.976	-0.469	-1.101
-58.290	116.145	0.852	1.032
-57.276	467.705	0.679	1.507
-56.261	-200.000	95.649	569.571
-55.246	488.217	1411.225	3188.121
-54.232	147.995	2632.703	3512.859
-53.217	99.288	2364.830	2704.713
-52.203	37.762	2121.044	1863.579
-51.188	32.838	2034.659	1742.287
-50.173	31.288	2016.016	1712.052
-49.159	46.349	2065.295	1893.900
-48.144	47.142	2083.707	1918.076
-47.130	33.525	2045.509	1757.669
-46.115	31.196	2035.220	1727.237
-45.100	31.139	2031.735	1723.688
-44.086	31.080	2029.447	1721.131
-43.071	30.964	2027.310	1718.180
-42.057	30.922	2024.819	1715.619
-41.042	31.094	2022.092	1714.818
-40.027	30.976	2021.236	1712.937
-39.013	31.103	2018.736	1711.916
-37.998	31.137	2016.783	1710.510
-36.984	31.074	2015.787	1709.015
-35.969	31.147	2012.609	1706.927
-34.954	31.145	2010.992	1705.470
-33.940	31.117	2010.357	1704.607
-32.925	31.163	2008.485	1703.367
-31.911	31.188	2006.566	1701.901
-30.896	31.198	2004.969	1700.568
-29.881	31.170	2003.357	1698.885
-28.867	31.227	2001.856	1698.056
-27.852	31.244	1999.658	1696.280
-26.838	31.333	1997.780	1695.427
-25.823	31.241	1995.547	1692.629
-24.809	31.177	1994.321	1690.946
-23.794	31.175	1992.728	1689.506
-22.779	31.166	1990.686	1687.633
-21.765	31.169	1988.911	1686.088
-20.750	31.056	1987.276	1683.609
-19.736	31.185	1985.745	1683.412
-18.721	31.178	1983.640	1681.494
-17.706	31.275	1981.915	1680.839
-16.692	31.193	1980.499	1678.835
-15.677	31.161	1979.486	1677.628
-14.663	31.205	1977.607	1676.357
-13.648	31.194	1976.363	1675.142
-12.633	31.183	1975.341	1674.112
-11.619	31.202	1974.190	1673.237
-10.604	31.223	1972.236	1671.701
-9.590	31.089	1970.640	1669.089
-8.575	31.177	1968.884	1668.316
-7.560	31.233	1967.673	1667.727
-6.546	31.151	1966.784	1666.174
-5.531	31.199	1965.351	1665.325
-4.517	31.232	1963.958	1664.367
-3.502	31.125	1963.269	1662.767
-2.487	31.185	1961.779	1661.972
-1.473	31.224	1960.800	1661.424
-0.458	31.327	1956.396	1658.545
0.556	30.529	1937.522	1635.134
1.571	26.596	1918.598	1584.671
2.586	22.261	1941.423	1564.901
3.600	20.679	1976.778	1578.918
4.615	19.623	1969.714	1563.582
5.629	14.979	1865.695	1440.973
6.644	6.288	1744.298	1276.835
7.659	1.477	1705.560	1210.130
8.673	1.049	1702.859	1204.704
9.688	1.118	1700.844	1203.723
10.702	1.021	1699.826	1202.123
11.717	0.892	1696.204	1198.432
12.731	1.370	1695.319	1201.487
13.746	7.106	1707.929	1255.927
14.761	14.384	1723.195	1325.119
15.775	17.191	1726.319	1349.742
16.790	17.381	1725.603	1350.570
17.804	16.575	1721.967	1341.214
18.819	15.550	1719.275	1330.878
19.834	14.917	1717.026	1324.015
20.848	14.626	1714.882	1319.942
21.863	14.456	1713.332	1317.291
22.877	14.099	1711.683	1313.084
23.892	13.847	1710.472	1310.049
24.907	13.727	1709.541	1308.277
25.921	13.697	1708.073	1306.799
26.936	13.675	1707.230	1305.864
27.950	13.811	1705.742	1305.683
28.965	13.823	1705.672	1305.610
29.980	13.896	1704.736	1305.347
30.994	13.977	1704.161	1305.431
32.009	13.892	1703.158	1303.879
33.023	13.919	1701.834	1302.959
34.038	13.987	1701.171	1302.874
35.053	13.977	1700.104	1301.858
36.067	13.881	1698.855	1300.037
37.082	13.876	1698.227	1299.407
38.096	13.900	1696.974	1298.514
39.111	13.830	1696.572	1297.549
40.126	13.989	1695.095	1297.548
41.140	13.910	1694.105	1296.055
42.155	13.775	1693.043	1294.074
43.169	13.823	1691.500	1293.159
44.184	13.753	1690.818	1291.973
45.199	13.725	1689.655	1290.751
46.213	13.713	1688.071	1289.338
47.228	13.711	1687.124	1288.487
48.242	13.759	1686.069	1287.936
49.257	13.829	1684.432	1287.115
50.271	13.720	1683.316	1285.300
51.286	13.804	1682.044	1284.870
52.301	13.832	1680.670	1283.926
53.315	13.772	1679.557	1282.498
54.330	13.811	1677.635	1281.213
55.344	13.839	1676.249	1280.262
56.359	13.799	1674.727	1278.674
57.374	13.759	1673.432	1277.268
58.388	13.852	1671.653	1276.513
59.403	13.792	1670.350	1274.941
60.417	13.637	1669.775	1273.200
61.432	13.763	1668.062	1272.743
62.447	13.735	1666.893	1271.528
63.461	13.700	1666.101	1270.543
64.476	13.615	1665.185	1269.078
65.490	13.613	1663.611	1267.755
66.505	13.626	1662.640	1266.998
67.520	13.609	1661.344	1265.772
68.534	13.642	1660.259	1265.085
69.549	13.735	1658.826	1264.588
70.563	13.693	1657.874	1263.428
71.578	13.729	1656.545	1262.584
72.593	13.700	1655.190	1261.215
73.607	13.580	1654.549	1259.707
74.622	13.657	1653.124	1259.092
75.636	13.609	1652.290	1257.980
76.651	13.602	1651.068	1256.886
77.666	13.546	1651.032	1256.324
78.680	13.634	1649.602	1255.792
79.695	13.704	1648.232	1255.169
80.709	13.690	1647.361	1254.287
81.724	13.614	1646.879	1253.234
82.739	13.664	1645.736	1252.627
83.753	13.714	1644.637	1252.060
84.768	13.720	1643.478	1251.113
85.782	13.706	1642.729	1250.327
86.797	13.803	1642.097	1250.470
87.812	13.799	1640.691	1249.253
88.826	13.709	1639.748	1247.752
89.841	13.727	1638.413	1246.759
90.855	13.770	1637.425	1246.220
91.870	13.795	1636.448	1245.552
92.884	13.810	1635.223	1244.620
93.899	13.811	1634.411	1243.905
94.914	13.837	1633.256	1243.109
95.928	13.961	1631.360	1242.483
96.943	13.903	1630.309	1241.135
97.957	13.933	1628.344	1239.756
98.972	13.850	1627.468	1238.358
99.987	13.843	1625.646	1236.810
101.001	13.830	1623.986	1235.340
102.016	13.787	1622.646	1233.896
103.030	13.936	1620.957	1233.605
104.045	13.825	1619.707	1231.725
105.060	13.828	1618.123	1230.429
106.074	13.754	1617.268	1229.126
107.089	13.689	1615.953	1227.536
108.103	13.749	1614.078	1226.446
109.118	13.684	1612.584	1224.725
110.133	13.711	1611.018	1223.622
111.147	13.667	1609.703	1222.193
112.162	13.716	1608.284	1221.368
113.176	13.665	1606.702	1219.682
114.191	13.773	1605.564	1219.510
115.206	13.739	1604.585	1218.403
116.220	13.777	1602.636	1217.099
117.235	13.756	1601.611	1216.059
118.249	13.767	1600.164	1214.933
119.264	13.772	1598.676	1213.732
120.279	13.769	1597.328	1212.578
121.293	13.667	1596.051	1210.759
122.308	13.774	1593.920	1209.812
123.322	13.782	1592.770	1208.891
124.337	13.647	1591.553	1206.875
125.352	13.681	1590.349	1206.102
126.366	13.708	1588.856	1205.061
127.381	13.803	1587.346	1204.502
128.395	13.764	1586.380	1203.380
129.410	13.741	1585.258	1202.255
130.424	13.721	1583.876	1200.956
131.439	13.867	1582.171	1200.609
132.454	13.834	1580.832	1199.249
133.468	13.781	1579.482	1197.737
134.483	13.938	1577.570	1197.316
135.497	13.874	1577.048	1196.348
136.512	13.839	1575.468	1194.793
137.527	13.884	1573.768	1193.721
138.541	13.844	1572.544	1192.401
139.556	13.825	1571.125	1191.084
140.570	13.815	1569.280	1189.504
141.585	13.780	1568.665	1188.681
142.600	13.864	1567.232	1188.091
143.614	13.998	1565.829	1187.883
144.629	13.972	1564.593	1186.652
145.643	13.993	1563.221	1185.661
146.658	13.984	1561.752	1184.374
147.673	13.982	1560.382	1183.219
148.687	14.019	1558.551	1181.989
149.702	13.926	1557.176	1180.177
150.716	13.908	1555.380	1178.590
151.731	13.940	1554.266	1177.864
152.746	14.002	1552.921	1177.179
153.760	13.960	1550.902	1175.249
154.775	13.909	1550.142	1174.208
155.789	13.979	1548.881	1173.646
156.804	14.020	1547.360	1172.677
157.819	14.056	1546.284	1172.015
158.833	14.113	1544.986	1171.327
159.848	14.030	1543.653	1169.628
160.862	14.034	1542.882	1168.970
161.877	14.253	1541.171	1169.106
162.892	14.118	1540.429	1167.494
163.906	14.065	1539.288	1166.156
164.921	14.066	1537.865	1164.979
165.935	14.010	1536.776	1163.656
166.950	14.128	1535.793	1163.636
167.964	13.994	1534.742	1161.803
168.979	14.199	1533.282	1162.027
169.994	14.141	1532.425	1160.869
171.008	14.098	1531.612	1159.850
172.023	14.180	1529.834	1158.974
173.037	14.160	1528.567	1157.769
174.052	14.291	1527.562	1157.814
175.067	14.286	1526.708	1157.032
176.081	14.241	1525.268	1155.526
177.096	14.172	1524.087	1154.052
178.110	14.166	1522.462	1152.676
179.125	14.163	1521.875	1152.108
180.140	14.189	1520.527	1151.169
181.154	14.211	1519.540	1150.473
182.169	14.190	1518.583	1149.498
183.183	14.334	1517.147	1149.307
184.198	14.375	1515.669	1148.362
185.213	14.308	1514.852	1147.183
186.227	14.287	1513.839	1146.168
187.242	14.414	1512.483	1145.914
188.256	14.464	1511.456	1145.381
189.271	14.477	1510.348	1144.527
190.286	14.588	1509.075	1144.223
191.300	14.380	1508.235	1142.060
192.315	14.326	1506.800	1140.500
193.329	14.293	1505.718	1139.354
194.344	14.391	1504.441	1138.961
195.359	14.306	1503.481	1137.553
196.373	14.343	1502.226	1136.750
197.388	14.460	1501.119	1136.613
198.402	14.382	1500.558	1135.555
199.417	14.428	1498.967	1134.565
200.432	14.433	1498.345	1134.028
201.446	14.606	1496.825	1133.951
202.461	14.520	1495.766	1132.465
203.475	14.592	1494.824	1132.137
204.490	14.623	1493.488	1131.238
205.504	14.658	1492.408	1130.554
206.519	14.572	1491.268	1129.013
207.534	14.549	1489.889	1127.711
208.548	14.603	1488.992	1127.298
209.563	14.635	1487.698	1126.437
210.577	14.642	1486.711	1125.632
211.592	14.650	1485.881	1124.958
212.607	14.631	1485.096	1124.141
213.621	14.697	1484.290	1123.875
214.636	14.821	1482.971	1123.608
215.650	14.756	1482.544	1122.752
216.665	14.705	1481.438	1121.474
217.680	14.735	1480.625	1120.956
218.694	14.737	1480.312	1120.637
219.709	14.831	1478.842	1120.050
220.723	14.766	1477.646	1118.613
221.738	14.830	1476.492	1118.068
222.753	14.802	1475.734	1117.205
223.767	14.906	1474.361	1116.764
224.782	14.835	1473.956	1115.882
225.796	14.939	1473.196	1115.906
226.811	14.982	1472.061	1115.229
227.826	14.972	1471.309	1114.498
228.840	14.937	1470.555	1113.598
229.855	14.928	1469.513	1112.647
230.869	14.973	1468.323	1111.949
231.884	14.963	1467.275	1110.992
232.899	14.956	1466.401	1110.182
233.913	14.996	1465.268	1109.489
234.928	14.961	1463.959	1108.171
235.942	14.920	1462.680	1106.835
236.957	14.930	1461.350	1105.794
237.972	14.869	1460.202	1104.428
238.986	14.904	1459.071	1103.700
240.001	15.024	1458.327	1103.831
241.015	15.038	1457.399	1103.123
242.030	14.948	1456.090	1101.443
243.045	14.958	1455.410	1100.898
244.059	15.053	1453.935	1100.311
245.074	15.063	1453.506	1099.952
246.088	15.046	1452.950	1099.327
247.103	15.127	1452.018	1099.055
248.117	15.169	1451.052	1098.503
249.132	15.192	1450.137	1097.858
250.147	15.221	1449.318	1097.334
251.161	15.253	1448.871	1097.106
252.176	15.355	1448.173	1097.149
253.190	15.329	1447.388	1096.290
254.205	15.361	1446.119	1095.441
255.220	15.397	1445.295	1094.952
256.234	15.394	1444.671	1094.365
257.249	15.378	1444.165	1093.781
258.263	15.406	1443.181	1093.119
259.278	15.413	1442.201	1092.325
260.293	15.444	1441.220	1091.688
261.307	15.410	1440.399	1090.748
262.322	15.474	1439.275	1090.219
263.336	15.506	1438.468	1089.719
264.351	15.495	1438.000	1089.191
265.366	15.607	1436.928	1089.012
266.380	15.626	1435.765	1088.155
267.395	15.666	1434.717	1087.523
268.409	15.660	1433.645	1086.575
269.424	15.669	1432.922	1085.991
270.439	15.552	1431.908	1084.374
271.453	15.560	1430.769	1083.467
272.468	15.603	1430.090	1083.130
273.482	15.551	1429.814	1082.489
274.497	15.654	1428.470	1082.041
275.512	15.603	1427.343	1080.767
276.526	15.664	1426.513	1080.431
277.541	15.638	1425.730	1079.574
278.555	15.670	1424.826	1079.004
279.570	15.786	1423.449	1078.610
280.585	15.704	1422.960	1077.616
281.599	15.859	1421.899	1077.707
282.614	15.852	1420.793	1076.732
283.628	15.822	1420.174	1075.977
284.643	15.707	1419.351	1074.519
285.657	15.888	1417.891	1074.476
286.672	15.818	1416.747	1073.070
287.687	15.705	1416.181	1071.824
288.701	15.739	1414.923	1070.995
289.716	15.831	1414.389	1071.078
290.730	15.784	1413.364	1069.910
291.745	15.842	1412.255	1069.344
292.760	15.855	1411.272	1068.590
293.774	15.969	1410.124	1068.344
294.789	15.912	1409.211	1067.199
295.803	15.902	1408.673	1066.633
296.818	15.995	1407.756	1066.435
297.833	16.026	1407.076	1066.019
298.847	15.966	1406.047	1064.766
299.862	15.977	1404.782	1063.783
300.876	15.982	1403.522	1062.768
301.891	16.103	1402.546	1062.697
302.906	16.101	1402.065	1062.228
303.920	16.063	1401.293	1061.307
304.935	16.171	1400.288	1061.133
305.949	16.139	1399.783	1060.453
306.964	16.233	1398.603	1060.058
307.979	16.208	1397.925	1059.294
308.993	16.193	1396.635	1058.127
310.008	16.103	1396.121	1057.084
311.022	16.199	1395.040	1056.770
312.037	16.304	1393.381	1056.078
313.052	16.248	1393.244	1055.529
314.066	16.228	1392.349	1054.630
315.081	16.284	1391.152	1053.980
316.095	16.347	1389.686	1053.169
317.110	16.314	1388.452	1051.936
318.125	16.314	1387.775	1051.332
319.139	16.293	1386.727	1050.311
320.154	16.273	1385.923	1049.488
321.168	16.270	1384.876	1048.584
322.183	16.316	1383.672	1047.863
323.197	16.364	1382.881	1047.471
324.212	16.364	1382.074	1046.767
325.227	16.376	1381.255	1046.126
326.241	16.400	1380.425	1045.558
327.256	16.310	1379.982	1044.570
328.270	16.363	1379.231	1044.239
329.285	16.385	1377.970	1043.324
330.300	16.478	1376.976	1043.053
331.314	16.436	1376.109	1042.045
332.329	16.319	1375.256	1040.588
333.343	16.421	1373.982	1040.162
334.358	16.453	1373.527	1039.920
335.373	16.488	1372.570	1039.320
336.387	16.441	1371.693	1038.275
337.402	16.494	1370.875	1037.888
338.416	16.523	1370.458	1037.657
339.431	16.588	1369.814	1037.480
340.446	16.537	1369.067	1036.508
341.460	16.568	1368.023	1035.817
342.475	16.697	1366.639	1035.462
343.489	16.696	1366.020	1034.898
344.504	16.715	1365.065	1034.201
345.519	16.704	1363.990	1033.224
346.533	16.730	1363.168	1032.672
347.548	16.766	1362.079	1031.974
348.562	16.844	1361.236	1031.720
349.577	16.779	1360.345	1030.558
350.592	16.793	1359.852	1030.177
351.606	16.756	1358.981	1029.199
352.621	16.744	1358.095	1028.365
353.635	16.690	1356.848	1027.004
354.650	16.845	1355.892	1027.125
355.665	16.861	1354.886	1026.372
356.679	16.864	1353.500	1025.252
357.694	16.856	1352.719	1024.517
358.708	16.842	1351.701	1023.575
359.723	16.870	1350.558	1022.787
360.738	16.912	1349.455	1022.115
361.752	16.975	1348.269	1021.506
362.767	16.976	1347.124	1020.554
363.781	16.947	1346.453	1019.778
364.796	16.977	1345.597	1019.219
365.810	16.934	1345.433	1018.745
366.825	16.941	1344.462	1017.965
367.840	17.038	1343.896	1018.026
368.854	17.142	1342.707	1017.660
369.869	17.121	1342.109	1016.989
370.883	17.138	1341.404	1016.467
371.898	17.070	1340.684	1015.425
372.913	17.142	1339.899	1015.174
373.927	17.056	1339.419	1014.205
374.942	17.199	1338.359	1014.167
375.956	17.208	1337.370	1013.383
376.971	17.093	1336.777	1012.156
377.986	17.204	1335.930	1012.086
379.000	17.166	1335.190	1011.213
380.015	17.226	1334.243	1010.758
381.029	17.264	1333.572	1010.386
382.044	17.238	1332.858	1009.605
383.059	17.405	1332.006	1009.858
384.073	17.285	1331.846	1008.938
385.088	17.265	1331.072	1008.141
386.102	17.406	1329.891	1007.996
387.117	17.300	1329.460	1006.953
388.132	17.419	1328.643	1006.946
389.146	17.473	1327.709	1006.472
390.161	17.353	1327.050	1005.170
391.175	17.355	1326.380	1004.589
392.190	17.296	1325.573	1003.537
393.205	17.332	1324.743	1003.036
394.219	17.484	1323.322	1002.763
395.234	17.497	1322.156	1001.869
396.248	17.481	1320.764	1000.634
397.263	17.476	1319.371	999.457
398.278	17.537	1318.168	998.815
399.292	17.502	1317.020	997.653
400.307	17.529	1315.844	996.831
401.321	17.420	1315.513	995.858
402.336	17.473	1314.200	995.085
403.350	17.467	1313.034	994.074
404.365	17.485	1312.232	993.488
405.380	17.500	1311.230	992.729
406.394	17.641	1310.480	992.896
407.409	17.587	1309.834	992.002
408.423	17.634	1309.147	991.668
409.438	17.710	1308.222	991.323
410.453	17.733	1307.890	991.117
411.467	17.654	1307.030	989.916
412.482	17.675	1306.204	989.327
413.496	17.716	1305.673	989.073
414.511	17.677	1305.164	988.377
415.526	17.751	1304.464	988.188
416.540	17.864	1303.051	987.684
417.555	17.851	1302.556	987.147
418.569	17.827	1302.048	986.532
419.584	17.837	1301.516	986.099
420.599	17.885	1301.080	985.958
421.613	94.784	1353.687	1464.863
422.628	93.301	1361.313	1464.966
