DTS Sentinel unit serial number:	SN413079Multiplexer serial number:	ORYXHardware model number:	OX4-SRSoftware version number:	ORYX F/W v4.00 Oryx Data Collector v3.7.2.0data status	okinstallation	princeton_trtdifferential loss correction	single-endedforward channel	channel 4reverse channel	N/Adate	2019/09/10time	18:27:11forward acquisition time	60.00reverse acquisition time	0.00gamma	496.2192k internal	0.2300k external	0.2300temperature offset calibration	0.9940default loss term (dB/km)	0.3790temperature slope calibration	1.0000multiplexer offset coefficient	1.0000multiplexer slope coefficient	1.0000fibre end	0.00T internal ref (°C)	36.00T ext. ref 1 (°C)	-0.41T ext. ref 2 (°C)	28.01length (m)	temperature (°C)	Stokes	anti-Stokes-747.200	361.106	0.155	-0.317
-746.185	111.311	0.102	0.125
-745.171	-21.842	-0.072	-0.045
-744.156	-130.175	0.048	-0.007
-743.142	800.000	-0.052	-0.184
-742.127	-110.389	0.129	0.027
-741.112	-15.324	-0.313	0.204
-740.098	92.599	0.077	-0.088
-739.083	-114.768	0.350	-0.068
-738.069	800.000	-0.070	0.263
-737.054	-200.000	-0.048	-0.350
-736.039	-22.093	-0.033	0.020
-735.025	-65.478	-0.109	0.045
-734.010	-112.877	-0.121	0.025
-732.996	-145.588	-0.326	0.030
-731.981	-43.307	-0.144	-0.074
-730.966	-44.977	-0.235	0.119
-729.952	-110.809	-0.397	0.083
-728.937	-200.000	-0.004	0.162
-727.923	-46.929	0.089	-0.044
-726.908	117.946	0.151	-0.189
-725.894	62.233	0.262	-0.267
-724.879	-83.975	0.169	0.055
-723.864	-193.198	-0.177	-0.002
-722.850	-63.073	-0.284	-0.119
-721.835	163.707	-0.213	0.305
-720.821	545.208	-0.040	-0.098
-719.806	-64.009	-0.207	0.086
-718.791	-68.053	-0.083	0.033
-717.777	-63.754	-0.248	0.103
-716.762	800.000	-0.060	-0.176
-715.748	245.135	0.119	-0.203
-714.733	-200.000	0.020	-0.177
-713.718	-172.089	0.256	-0.008
-712.704	-110.571	0.183	0.039
-711.689	800.000	0.086	0.345
-710.675	800.000	-0.040	0.171
-709.660	-37.844	0.181	-0.098
-708.645	27.177	-0.270	-0.231
-707.631	-137.112	-0.026	-0.003
-706.616	516.443	-0.015	0.035
-705.602	-106.608	-0.158	0.036
-704.587	489.686	-0.130	-0.302
-703.572	-82.582	0.177	-0.058
-702.558	-6.340	-0.210	-0.146
-701.543	270.425	-0.088	-0.158
-700.529	31.069	-0.208	0.181
-699.514	42.581	-0.274	-0.253
-698.499	-128.208	-0.260	0.038
-697.485	56.462	-0.226	-0.223
-696.470	-200.000	-0.013	0.063
-695.456	29.649	0.253	-0.219
-694.441	148.990	-0.158	0.217
-693.426	-28.642	0.266	0.156
-692.412	-67.601	-0.250	-0.100
-691.397	800.000	0.075	0.238
-690.383	-3.837	-0.211	-0.149
-689.368	516.224	-0.127	-0.302
-688.354	776.713	0.095	-0.264
-687.339	-51.428	-0.130	-0.062
-686.324	92.179	0.024	0.027
-685.310	-55.231	-0.386	-0.176
-684.295	-8.487	0.167	0.114
-683.281	658.271	-0.051	0.134
-682.266	-101.012	-0.193	0.048
-681.251	-141.642	0.137	-0.014
-680.237	-200.000	0.008	0.166
-679.222	127.124	0.150	0.193
-678.208	800.000	-0.076	0.268
-677.193	800.000	-0.056	0.245
-676.178	-166.663	-0.280	0.012
-675.164	739.978	-0.058	-0.159
-674.149	-200.000	0.003	0.204
-673.135	17.379	0.122	0.099
-672.120	-34.274	0.204	0.114
-671.105	-6.772	0.188	0.130
-670.091	17.178	-0.172	0.139
-669.076	78.412	-0.158	-0.171
-668.062	0.592	-0.153	-0.111
-667.047	548.310	-0.130	-0.316
-666.032	-54.922	-0.239	-0.110
-665.018	183.898	0.038	0.058
-664.003	-48.611	-0.126	0.062
-662.989	4.426	0.245	0.183
-661.974	-26.854	0.328	0.195
-660.959	112.927	-0.175	0.216
-659.945	13.679	-0.100	0.079
-658.930	93.979	-0.091	0.105
-657.916	73.724	-0.331	-0.353
-656.901	-169.327	0.013	0.000
-655.886	435.127	-0.124	-0.274
-654.872	-68.829	0.264	0.104
-653.857	800.000	-0.102	-0.390
-652.843	-200.000	-0.019	0.187
-651.828	167.012	-0.147	0.211
-650.814	100.677	-0.091	0.108
-649.799	46.624	0.171	-0.161
-648.784	-54.623	-0.158	-0.072
-647.770	-37.025	0.218	-0.119
-646.755	-183.912	-0.466	-0.008
-645.741	117.228	0.289	-0.360
-644.726	66.559	-0.245	-0.253
-643.711	47.044	0.103	-0.098
-642.697	19.824	-0.055	-0.045
-641.682	36.874	-0.305	0.274
-640.668	800.000	0.037	0.161
-639.653	110.342	-0.244	-0.298
-638.638	-56.791	-0.587	-0.264
-637.624	-200.000	-0.009	0.046
-636.609	-34.897	-0.078	-0.043
-635.595	-139.400	-0.157	0.017
-634.580	-200.000	0.012	0.137
-633.565	291.718	0.064	0.118
-632.551	-78.682	-0.279	-0.097
-631.536	-69.731	-0.164	-0.064
-630.522	800.000	-0.096	-0.291
-629.507	219.138	0.139	0.226
-628.492	32.732	-0.130	-0.114
-627.478	333.971	0.109	-0.215
-626.463	-34.396	0.405	-0.225
-625.449	-76.853	-0.181	-0.064
-624.434	-104.738	-0.109	0.025
-623.419	-169.684	-0.196	-0.007
-622.405	-200.000	0.026	0.458
-621.390	70.066	-0.148	0.155
-620.376	152.650	0.230	0.319
-619.361	-47.113	0.266	-0.132
-618.346	-200.000	-0.029	0.244
-617.332	-43.704	0.177	-0.090
-616.317	502.987	-0.085	-0.200
-615.303	697.530	-0.226	0.602
-614.288	183.802	0.101	0.151
-613.273	800.000	0.083	-0.290
-612.259	492.680	-0.008	-0.018
-611.244	-125.306	0.254	0.039
-610.230	437.246	-0.154	0.339
-609.215	166.973	-0.161	0.232
-608.201	24.810	-0.040	0.034
-607.186	-164.712	-0.219	0.010
-606.171	649.769	-0.136	0.354
-605.157	85.216	0.073	-0.081
-604.142	66.826	-0.199	-0.205
-603.128	-132.680	0.169	-0.022
-602.113	-62.844	-0.129	-0.054
-601.098	157.834	-0.159	-0.223
-600.084	800.000	-0.066	-0.200
-599.069	-200.000	-0.029	-0.137
-598.055	-133.434	-0.188	-0.024
-597.040	22.875	-0.109	0.090
-596.025	800.000	0.013	0.053
-595.011	187.744	0.197	-0.298
-593.996	-200.000	0.027	-0.271
-592.982	-23.697	-0.241	-0.147
-591.967	29.307	-0.164	0.142
-590.952	-28.332	0.262	-0.154
-589.938	-16.188	-0.219	-0.141
-588.923	800.000	0.083	-0.338
-587.909	-200.000	0.032	0.179
-586.894	-131.344	-0.251	-0.034
-585.879	-41.144	-0.123	-0.064
-584.865	-124.113	0.067	-0.011
-583.850	-21.223	0.307	0.190
-582.836	44.126	-0.142	-0.132
-581.821	140.416	0.152	-0.203
-580.806	-87.302	-0.271	-0.083
-579.792	-8.414	-0.238	0.162
-578.777	-52.528	0.176	0.082
-577.763	353.709	0.193	-0.388
-576.748	57.372	0.034	0.034
-575.733	-57.643	0.303	0.135
-574.719	-200.000	-0.009	-0.302
-573.704	269.815	-0.036	-0.063
-572.690	-93.834	-0.199	0.055
-571.675	800.000	-0.028	0.081
-570.661	432.816	-0.132	0.291
-569.646	60.808	-0.173	0.174
-568.631	-200.000	-0.004	-0.148
-567.617	-200.000	-0.023	0.248
-566.602	698.813	0.098	-0.262
-565.588	-55.396	-0.091	0.041
-564.573	501.687	0.057	-0.134
-563.558	800.000	0.103	0.337
-562.544	45.923	-0.197	0.184
-561.529	178.573	0.141	0.209
-560.515	25.112	0.042	0.036
-559.500	800.000	0.078	0.230
-558.485	-73.168	-0.464	-0.172
-557.471	-71.905	-0.181	0.068
-556.456	-169.861	0.178	-0.006
-555.442	236.780	-0.108	0.181
-554.427	-181.498	0.124	0.002
-553.412	-56.703	-0.105	-0.047
-552.398	-200.000	0.005	0.173
-551.383	70.101	-0.179	0.187
-550.369	142.275	-0.159	-0.213
-549.354	436.824	-0.068	-0.151
-548.339	107.243	-0.108	-0.130
-547.325	800.000	0.024	-0.091
-546.310	46.648	0.102	0.096
-545.296	-97.435	0.262	0.069
-544.281	-153.485	-0.052	-0.004
-543.266	118.804	0.124	0.155
-542.252	27.713	-0.106	-0.090
-541.237	79.726	-0.092	-0.100
-540.223	800.000	-0.085	-0.291
-539.208	800.000	0.058	-0.216
-538.193	206.272	0.028	0.044
-537.179	79.967	-0.215	-0.234
-536.164	-57.934	-0.148	0.066
-535.150	-62.427	-0.173	-0.073
-534.135	-200.000	-0.066	-0.368
-533.121	152.456	-0.152	0.210
-532.106	31.141	-0.124	-0.108
-531.091	-200.000	0.000	0.082
-530.077	-147.898	0.244	0.021
-529.062	800.000	-0.082	-0.234
-528.048	-200.000	0.057	-0.407
-527.033	-95.939	-0.220	0.059
-526.018	768.402	0.031	-0.086
-525.004	-72.188	0.180	-0.067
-523.989	41.743	0.162	0.149
-522.975	-122.349	0.122	-0.020
-521.960	-200.000	0.068	0.304
-520.945	98.001	-0.179	0.208
-519.931	157.815	-0.171	-0.240
-518.916	92.067	-0.208	-0.236
-517.902	304.089	0.060	-0.112
-516.887	272.407	-0.199	-0.354
-515.872	-160.882	0.160	0.009
-514.858	49.957	0.190	0.181
-513.843	-128.704	-0.100	0.014
-512.829	290.390	0.162	0.298
-511.814	-43.221	0.179	0.092
-510.799	-0.529	-0.190	0.136
-509.785	104.887	-0.068	0.081
-508.770	206.827	-0.046	-0.072
-507.756	93.598	0.127	-0.146
-506.741	-83.378	-0.212	-0.069
-505.726	32.790	0.024	0.021
-504.712	77.650	-0.071	-0.077
-503.697	-200.000	-0.033	0.253
-502.683	-200.000	0.018	-0.084
-501.668	737.387	0.084	-0.227
-500.653	248.276	-0.195	0.334
-499.639	-16.102	0.158	0.102
-498.624	-92.944	0.304	0.086
-497.610	267.663	-0.208	0.368
-496.595	-133.636	-0.369	0.047
-495.581	-126.712	-0.290	0.043
-494.566	-18.444	-0.294	0.185
-493.551	21.518	-0.098	-0.080
-492.537	243.398	0.146	0.247
-491.522	-178.761	-0.042	-0.001
-490.508	-110.195	0.098	-0.021
-489.493	800.000	0.054	0.170
-488.478	-145.303	0.416	-0.038
-487.464	-200.000	0.005	0.066
-486.449	-200.000	0.014	-0.082
-485.435	-200.000	0.014	0.063
-484.420	-158.228	0.268	0.016
-483.405	229.906	-0.091	-0.151
-482.391	13.166	-0.182	-0.142
-481.376	521.040	-0.077	0.183
-480.362	-200.000	-0.019	-0.151
-479.347	267.457	-0.141	0.249
-478.332	111.210	0.199	0.242
-477.318	52.905	-0.126	-0.122
-476.303	20.865	0.334	0.273
-475.289	-21.516	-0.172	-0.106
-474.274	34.645	0.358	-0.316
-473.259	-17.548	0.133	-0.084
-472.245	-200.000	0.043	0.234
-471.230	-30.076	0.197	-0.113
-470.216	27.115	-0.140	-0.119
-469.201	342.003	0.035	-0.069
-468.186	95.757	0.242	-0.278
-467.172	122.912	-0.165	-0.208
-466.157	15.142	0.153	0.121
-465.143	10.747	-0.171	0.131
-464.128	100.535	-0.099	-0.116
-463.113	573.157	-0.098	-0.241
-462.099	371.728	0.107	-0.219
-461.084	-188.907	-0.503	0.006
-460.070	-54.886	0.429	0.195
-459.055	-128.449	-0.278	-0.040
-458.040	-135.689	0.099	-0.012
-457.026	-68.641	0.156	0.061
-456.011	620.795	0.032	-0.080
-454.997	800.000	0.157	0.443
-453.982	371.202	-0.075	0.153
-452.968	-200.000	0.051	-0.302
-451.953	544.101	-0.104	0.251
-450.938	-69.084	0.358	0.139
-449.924	-72.095	-0.083	-0.031
-448.909	-124.806	0.404	0.063
-447.895	-200.000	-0.038	-0.199
-446.880	-87.873	0.123	-0.037
-445.865	580.860	0.136	0.336
-444.851	800.000	-0.038	-0.132
-443.836	145.610	-0.124	-0.167
-442.822	-200.000	0.065	-0.299
-441.807	800.000	0.065	-0.277
-440.792	-102.362	-0.414	0.100
-439.778	-200.000	-0.053	0.247
-438.763	418.251	0.057	-0.122
-437.749	-200.000	-0.015	-0.401
-436.734	-106.972	0.394	-0.088
-435.719	-173.669	-0.401	0.012
-434.705	-200.000	-0.053	0.337
-433.690	-114.202	0.110	-0.021
-432.676	800.000	-0.145	0.512
-431.661	195.390	0.073	0.112
-430.646	-200.000	0.072	-0.432
-429.632	137.112	0.057	-0.075
-428.617	34.845	-0.327	0.288
-427.603	-43.549	0.130	-0.066
-426.588	-200.000	0.040	-0.388
-425.573	-31.752	-0.196	-0.111
-424.559	509.972	0.182	0.426
-423.544	403.654	-0.104	0.220
-422.530	526.310	-0.116	-0.276
-421.515	800.000	-0.125	0.397
-420.500	6.622	0.309	0.232
-419.486	-200.000	-0.072	0.336
-418.471	800.000	0.026	0.112
-417.457	-37.541	-0.111	0.060
-416.442	-113.422	-0.211	-0.042
-415.428	81.164	0.267	-0.290
-414.413	800.000	-0.120	-0.341
-413.398	-100.481	-0.058	-0.015
-412.384	113.368	0.288	0.352
-411.369	33.646	0.268	0.235
-410.355	-57.863	0.167	-0.073
-409.340	-113.720	-0.234	0.046
-408.325	47.577	-0.081	-0.076
-407.311	83.483	-0.049	0.054
-406.296	-22.575	0.081	0.049
-405.282	74.206	0.161	0.170
-404.267	-176.828	-0.125	-0.003
-403.252	70.657	0.229	0.238
-402.238	-57.156	0.289	0.128
-401.223	-25.537	-0.251	0.149
-400.209	-40.763	-0.200	-0.104
-399.194	-200.000	-0.033	0.231
-398.179	12.988	0.190	0.148
-397.165	-48.507	-0.209	-0.101
-396.150	-78.339	-0.173	0.060
-395.136	-29.568	-0.166	0.095
-394.121	774.178	-0.041	0.111
-393.106	-8.050	0.254	-0.172
-392.092	135.252	-0.165	-0.216
-391.077	-98.759	-0.408	0.104
-390.063	-107.450	-0.182	0.040
-389.048	156.229	0.157	0.218
-388.033	-84.440	0.418	0.133
-387.019	130.538	0.012	0.015
-386.004	800.000	0.007	-0.022
-384.990	-200.000	-0.022	0.247
-383.975	-97.360	0.229	-0.060
-382.960	123.239	-0.093	-0.117
-381.946	-82.182	0.347	-0.114
-380.931	340.527	0.206	-0.403
-379.917	800.000	0.063	0.243
-378.902	123.366	-0.127	0.160
-377.888	696.322	-0.026	-0.069
-376.873	-200.000	0.033	0.263
-375.858	-16.126	-0.272	0.174
-374.844	480.746	-0.033	0.076
-373.829	-12.519	0.128	-0.084
-372.815	-103.723	-0.301	0.071
-371.800	800.000	-0.112	0.448
-370.785	800.000	-0.056	0.193
-369.771	-200.000	-0.006	-0.050
-368.756	187.963	0.141	0.212
-367.742	55.953	0.357	0.348
-366.727	-92.099	0.177	0.050
-365.712	-31.222	0.409	0.232
-364.698	113.839	0.023	0.028
-363.683	-196.343	0.206	-0.001
-362.669	-163.219	0.222	0.011
-361.654	136.420	-0.133	0.174
-360.639	362.329	0.075	-0.150
-359.625	800.000	0.099	-0.321
-358.610	-96.438	-0.420	-0.112
-357.596	188.324	0.092	0.138
-356.581	-90.387	-0.243	-0.071
-355.566	602.345	0.088	0.220
-354.552	366.498	0.046	-0.094
-353.537	154.058	-0.141	-0.194
-352.523	110.469	0.272	-0.328
-351.508	-200.000	0.043	-0.205
-350.493	598.445	0.064	-0.160
-349.479	-72.649	-0.246	0.091
-348.464	-200.000	-0.075	-0.362
-347.450	-101.574	-0.141	-0.035
-346.435	-6.435	0.262	-0.179
-345.420	-114.953	0.098	0.019
-344.406	-11.424	-0.158	-0.104
-343.391	267.158	0.262	0.459
-342.377	-154.336	-0.115	0.008
-341.362	-131.512	0.407	-0.054
-340.348	-129.301	0.487	-0.068
-339.333	205.647	-0.226	0.353
-338.318	255.794	0.041	-0.070
-337.304	43.595	-0.155	0.142
-336.289	-200.000	-0.023	0.235
-335.275	-108.922	0.108	-0.023
-334.260	305.799	0.079	-0.147
-333.245	20.554	0.101	-0.082
-332.231	-55.316	0.375	0.169
-331.216	-178.757	-0.178	0.004
-330.202	-183.193	0.459	-0.008
-329.187	-11.113	0.105	0.070
-328.172	-42.072	0.274	-0.141
-327.158	102.777	0.078	0.092
-326.143	15.231	-0.280	-0.220
-325.129	308.915	0.154	-0.288
-324.114	-68.638	-0.153	0.060
-323.099	-144.652	-0.149	-0.014
-322.085	-71.496	0.267	-0.100
-321.070	-200.000	0.027	-0.251
-320.056	-65.689	0.212	-0.085
-319.041	-178.130	-0.147	0.003
-318.026	-200.000	-0.001	-0.520
-317.012	-100.261	-0.391	0.097
-315.997	-129.847	0.194	-0.027
-314.983	-103.907	0.496	-0.116
-313.968	-78.901	-0.151	-0.051
-312.953	800.000	-0.028	0.100
-311.939	582.205	0.097	-0.238
-310.924	-38.156	0.115	-0.061
-309.910	264.314	-0.027	-0.046
-308.895	211.857	-0.172	-0.272
-307.880	1.826	-0.050	0.036
-306.866	-73.767	-0.398	-0.145
-305.851	179.187	-0.105	-0.153
-304.837	172.136	-0.234	0.337
-303.822	-33.405	0.226	-0.125
-302.807	-108.402	-0.086	-0.019
-301.793	-139.415	0.199	0.021
-300.778	15.889	0.144	-0.114
-299.764	511.964	0.035	-0.082
-298.749	-200.000	-0.001	-0.102
-297.735	-22.394	-0.201	-0.122
-296.720	-121.507	-0.057	0.010
-295.705	-200.000	-0.088	-0.509
-294.691	-37.693	0.122	-0.065
-293.676	461.255	0.051	-0.115
-292.662	-86.567	-0.132	-0.040
-291.647	-82.613	-0.242	0.078
-290.632	-51.499	-0.162	-0.076
-289.618	-52.120	-0.118	0.055
-288.603	441.528	0.151	0.331
-287.589	800.000	0.058	0.197
-286.574	20.031	-0.134	-0.108
-285.559	-200.000	0.059	0.295
-284.545	104.251	0.405	0.477
-283.530	-200.000	0.004	0.116
-282.516	12.640	-0.080	-0.062
-281.501	278.743	-0.092	-0.164
-280.486	-72.026	0.095	-0.035
-279.472	-167.666	-0.117	0.005
-278.457	-140.979	-0.327	-0.034
-277.443	800.000	0.082	-0.261
-276.428	-34.398	-0.105	-0.057
-275.413	-200.000	-0.071	-0.431
-274.399	122.283	0.194	0.242
-273.384	55.825	-0.078	-0.076
-272.370	-115.895	0.285	-0.053
-271.355	800.000	0.056	-0.179
-270.340	145.441	-0.085	-0.114
-269.326	133.468	-0.204	0.264
-268.311	70.309	-0.115	-0.119
-267.297	-59.058	0.272	0.117
-266.282	-200.000	0.026	0.312
-265.267	-79.765	0.261	-0.088
-264.253	21.654	0.144	-0.117
-263.238	652.484	-0.020	0.051
-262.224	624.701	-0.110	0.279
-261.209	77.575	0.038	-0.041
-260.195	-200.000	0.082	-0.384
-259.180	-82.466	0.209	-0.068
-258.165	106.758	0.279	0.331
-257.151	-66.324	-0.226	0.090
-256.136	800.000	-0.123	-0.478
-255.122	-200.000	-0.007	-0.032
-254.107	2.834	0.170	0.124
-253.092	120.458	0.178	0.221
-252.078	-175.351	-0.046	0.001
-251.063	621.068	-0.097	-0.244
-250.049	-200.000	0.047	-0.338
-249.034	-22.471	0.181	0.109
-248.019	40.396	0.309	-0.278
-247.005	-79.874	0.287	0.096
-245.990	-78.114	-0.171	0.059
-244.976	176.706	-0.243	-0.354
-243.961	631.116	0.086	0.218
-242.946	433.894	0.122	-0.265
-241.932	-116.597	0.332	0.061
-240.917	-200.000	0.028	-0.251
-239.903	-131.655	0.231	-0.030
-238.888	800.000	0.106	-0.337
-237.873	65.019	-0.276	-0.279
-236.859	43.361	-0.059	-0.054
-235.844	-190.544	0.118	-0.001
-234.830	-16.724	0.326	0.206
-233.815	-200.000	0.043	0.281
-232.800	-38.557	-0.079	-0.042
-231.786	-29.589	0.193	-0.110
-230.771	-140.772	0.270	-0.028
-229.757	800.000	0.007	0.028
-228.742	-112.497	0.317	-0.063
-227.727	-81.026	-0.232	-0.077
-226.713	-117.445	-0.035	-0.006
-225.698	800.000	0.058	-0.193
-224.684	-30.687	0.135	0.077
-223.669	-200.000	-0.006	0.101
-222.655	-69.408	0.232	0.089
-221.640	56.036	0.139	-0.135
-220.625	-157.745	-0.320	0.019
-219.611	693.092	0.056	-0.147
-218.596	183.671	-0.266	-0.393
-217.582	800.000	-0.026	0.094
-216.567	37.589	-0.288	0.255
-215.552	-18.645	0.054	-0.034
-214.538	800.000	-0.051	-0.191
-213.523	800.000	-0.112	0.322
-212.509	-12.025	0.203	-0.133
-211.494	-189.359	0.058	-0.001
-210.479	57.744	-0.189	-0.184
-209.465	78.647	0.010	0.011
-208.450	-138.820	0.140	-0.015
-207.436	800.000	0.049	-0.209
-206.421	260.903	0.049	0.085
-205.406	81.876	0.118	-0.127
-204.392	-118.056	-0.150	-0.027
-203.377	-200.000	0.045	0.282
-202.363	-85.822	-0.017	-0.005
-201.348	-80.098	-0.304	0.102
-200.333	-70.494	0.288	0.109
-199.319	59.770	-0.057	0.056
-198.304	800.000	0.086	-0.362
-197.290	-138.530	-0.171	-0.019
-196.275	-200.000	-0.009	0.175
-195.260	-68.674	-0.168	0.065
-194.246	70.890	-0.203	0.209
-193.231	32.235	-0.163	-0.141
-192.217	69.696	-0.235	0.242
-191.202	-12.750	0.080	0.052
-190.187	162.147	0.144	0.201
-189.173	-142.922	-0.268	-0.026
-188.158	320.019	0.098	-0.186
-187.144	130.523	-0.328	0.420
-186.129	800.000	-0.043	-0.185
-185.114	-28.803	-0.237	-0.136
-184.100	245.023	-0.053	0.088
-183.085	-200.000	-0.028	0.242
-182.071	-40.635	-0.199	0.103
-181.056	-200.000	-0.033	-0.154
-180.042	170.034	0.239	0.340
-179.027	-200.000	-0.024	0.294
-178.012	-76.405	-0.304	-0.107
-176.998	800.000	-0.125	-0.441
-175.983	-41.015	0.201	-0.103
-174.969	-36.338	0.351	0.189
-173.954	-200.000	0.029	0.371
-172.939	47.347	-0.334	0.310
-171.925	235.347	0.127	0.209
-170.910	800.000	-0.118	0.395
-169.896	-200.000	0.005	0.042
-168.881	-169.675	-0.113	0.004
-167.866	-110.717	-0.198	0.041
-166.852	133.272	0.155	-0.199
-165.837	-200.000	-0.013	0.060
-164.823	242.659	0.170	0.284
-163.808	-200.000	-0.024	0.104
-162.793	-28.926	0.110	-0.063
-161.779	800.000	0.026	0.083
-160.764	-200.000	-0.028	-0.317
-159.750	216.655	0.142	0.225
-158.735	-200.000	-0.020	0.107
-157.720	-42.637	0.148	-0.075
-156.706	-163.640	0.441	-0.021
-155.691	-53.656	-0.169	-0.077
-154.677	800.000	-0.054	0.229
-153.662	46.836	-0.150	0.139
-152.647	-50.998	-0.155	0.072
-151.633	-99.655	0.385	-0.096
-150.618	-149.919	0.260	-0.020
-149.604	-200.000	0.021	-0.146
-148.589	-135.276	-0.107	0.013
-147.574	-165.143	0.354	0.016
-146.560	-193.066	-0.276	-0.002
-145.545	800.000	-0.027	0.109
-144.531	-125.378	0.140	-0.021
-143.516	800.000	-0.043	-0.144
-142.502	162.605	-0.084	-0.118
-141.487	331.896	-0.056	-0.108
-140.472	168.392	-0.076	-0.107
-139.458	80.251	0.036	0.039
-138.443	-60.696	-0.282	0.119
-137.429	390.867	0.170	0.352
-136.414	56.556	-0.017	-0.016
-135.399	-151.368	-0.174	-0.013
-134.385	60.447	-0.246	-0.243
-133.370	-36.320	0.445	-0.239
-132.356	-64.162	-0.376	-0.153
-131.341	109.682	-0.108	-0.129
-130.326	220.636	0.098	0.157
-129.312	6.582	-0.303	0.224
-128.297	-115.775	-0.169	0.032
-127.283	108.690	-0.221	0.263
-126.268	81.983	0.215	0.231
-125.253	-132.284	-0.459	0.059
-124.239	-200.000	-0.017	-0.417
-123.224	-21.075	0.216	-0.132
-122.210	800.000	0.092	0.315
-121.195	-30.176	0.195	0.110
-120.180	703.562	-0.076	-0.199
-119.166	465.704	0.118	0.264
-118.151	688.995	-0.089	0.233
-117.137	7.392	0.159	-0.118
-116.122	-121.154	0.205	-0.034
-115.107	-190.071	0.271	0.003
-114.093	-163.506	-0.448	-0.021
-113.078	544.080	-0.047	-0.111
-112.064	-200.000	-0.014	0.212
-111.049	-34.418	-0.051	-0.028
-110.034	465.922	-0.049	0.109
-109.020	-8.255	0.481	-0.322
-108.005	75.802	0.247	-0.260
-106.991	-200.000	-0.004	0.052
-105.976	-76.743	-0.257	0.090
-104.962	49.902	0.212	0.199
-103.947	-8.619	0.208	0.139
-102.932	214.255	0.080	0.126
-101.918	-72.561	-0.101	0.037
-100.903	62.080	-0.070	0.069
-99.889	-200.000	0.057	0.317
-98.874	-4.102	0.219	-0.151
-97.859	107.394	-0.186	0.219
-96.845	800.000	-0.027	0.087
-95.830	-98.397	-0.070	0.018
-94.816	0.649	-0.147	-0.105
-93.801	103.664	-0.155	0.181
-92.786	-34.246	-0.116	0.063
-91.772	22.321	-0.082	0.067
-90.757	-200.000	-0.036	0.176
-89.743	100.428	-0.179	-0.206
-88.728	-142.154	-0.064	-0.006
-87.713	-61.032	-0.436	-0.183
-86.699	42.059	0.047	-0.043
-85.684	800.000	-0.045	0.155
-84.670	19.032	0.177	0.141
-83.655	-138.687	0.225	0.024
-82.640	283.143	-0.062	-0.110
-81.626	42.326	-0.105	-0.095
-80.611	800.000	-0.060	0.175
-79.597	-163.045	0.178	0.009
-78.582	-200.000	0.056	-0.326
-77.567	-200.000	0.009	0.065
-76.553	33.859	-0.067	0.058
-75.538	-200.000	-0.013	0.114
-74.524	800.000	-0.005	-0.023
-73.509	-88.881	0.108	0.032
-72.494	291.122	-0.054	-0.098
-71.480	327.877	-0.055	0.105
-70.465	-58.274	0.066	0.029
-69.451	111.826	0.029	-0.035
-68.436	-200.000	0.046	-0.312
-67.422	-200.000	0.029	0.162
-66.407	501.831	-0.091	0.208
-65.392	134.198	0.230	0.296
-64.378	67.506	0.272	0.276
-63.363	-200.000	-0.043	0.266
-62.349	93.441	-0.186	0.209
-61.334	167.798	-0.720	-1.017
-60.319	31.735	0.308	0.263
-59.305	-200.000	0.059	-1.150
-58.290	297.839	0.579	1.056
-57.276	320.613	0.745	1.405
-56.261	-200.000	94.425	532.081
-55.246	569.551	1379.860	3330.842
-54.232	180.906	2630.810	3836.193
-53.217	109.461	2361.739	2808.009
-52.203	42.551	2107.997	1903.901
-51.188	37.916	2018.608	1780.893
-50.173	36.308	1999.737	1749.615
-49.159	49.353	2050.693	1914.345
-48.144	52.286	2070.361	1959.614
-47.130	38.413	2027.180	1792.732
-46.115	36.026	2015.385	1760.445
-45.100	36.000	2012.341	1757.479
-44.086	35.967	2010.017	1755.079
-43.071	35.907	2007.627	1752.375
-42.057	35.776	2006.458	1750.090
-41.042	35.896	2003.811	1748.805
-40.027	35.790	2002.291	1746.451
-39.013	35.923	1999.953	1745.546
-37.998	35.925	1998.480	1744.213
-36.984	35.956	1996.639	1742.816
-35.969	36.008	1994.768	1741.582
-34.954	35.918	1992.907	1739.074
-33.940	35.925	1991.480	1737.826
-32.925	36.042	1989.273	1736.880
-31.911	35.994	1987.761	1735.061
-30.896	36.022	1985.903	1733.621
-29.881	36.007	1984.989	1732.623
-28.867	36.048	1983.290	1731.438
-27.852	36.023	1981.438	1729.532
-26.838	36.070	1979.519	1728.203
-25.823	36.040	1977.650	1726.234
-24.809	36.020	1975.218	1723.871
-23.794	36.022	1974.286	1723.000
-22.779	36.047	1971.978	1721.141
-21.765	35.996	1970.538	1719.359
-20.750	36.060	1968.897	1718.431
-19.736	36.035	1967.722	1717.122
-18.721	36.035	1966.115	1715.643
-17.706	36.073	1964.987	1714.932
-16.692	35.948	1962.809	1711.856
-15.677	35.967	1961.047	1710.416
-14.663	36.099	1958.869	1709.625
-13.648	35.993	1958.194	1708.028
-12.633	36.039	1956.882	1707.219
-11.619	36.036	1955.501	1705.922
-10.604	36.016	1953.960	1704.331
-9.590	36.025	1952.555	1703.121
-8.575	36.035	1951.324	1702.064
-7.560	35.926	1950.510	1700.324
-6.546	35.987	1948.600	1699.132
-5.531	35.995	1947.494	1698.167
-4.517	35.999	1946.120	1696.938
-3.502	36.012	1944.677	1695.730
-2.487	35.922	1943.884	1694.178
-1.473	35.872	1943.278	1693.143
-0.458	35.939	1937.827	1688.911
0.556	32.902	1917.065	1656.878
1.571	27.944	1895.322	1594.791
2.586	23.316	1915.773	1570.909
3.600	22.068	1951.273	1588.601
4.615	21.647	1948.561	1582.448
5.629	16.622	1847.333	1456.956
6.644	6.212	1722.459	1274.377
7.659	0.167	1681.395	1195.965
8.673	-0.316	1676.968	1188.883
9.688	-0.400	1675.504	1187.073
10.702	-0.396	1673.647	1185.690
11.717	-0.528	1671.078	1182.720
12.731	-0.196	1670.174	1184.594
13.746	6.381	1686.307	1248.197
14.761	15.371	1707.021	1335.270
15.775	18.416	1710.336	1361.988
16.790	18.113	1709.115	1358.487
17.804	18.130	1708.186	1357.762
18.819	18.268	1707.164	1357.931
19.834	18.329	1706.640	1357.874
20.848	18.426	1706.205	1358.176
21.863	18.344	1705.623	1356.941
22.877	18.359	1704.713	1356.219
23.892	18.357	1703.502	1355.121
24.907	18.388	1702.761	1354.652
25.921	18.418	1701.308	1353.618
26.936	18.437	1700.410	1352.931
27.950	18.446	1699.167	1351.897
28.965	18.568	1698.392	1352.120
29.980	18.448	1697.733	1350.533
30.994	18.424	1696.794	1349.477
32.009	18.500	1694.842	1348.404
33.023	18.386	1694.265	1346.927
34.038	18.454	1692.999	1346.338
35.053	18.481	1691.928	1345.577
36.067	18.392	1690.566	1343.677
37.082	18.453	1689.962	1343.553
38.096	18.422	1689.135	1342.539
39.111	18.480	1687.911	1341.899
40.126	18.422	1687.487	1340.985
41.140	18.409	1686.595	1340.059
42.155	18.390	1685.525	1338.943
43.169	18.457	1683.884	1338.040
44.184	18.402	1683.256	1336.996
45.199	18.406	1682.115	1336.004
46.213	18.459	1680.682	1335.160
47.228	18.430	1679.621	1333.976
48.242	18.438	1677.691	1332.385
49.257	18.409	1677.360	1331.781
50.271	18.382	1676.134	1330.480
51.286	18.444	1674.645	1329.659
52.301	18.425	1673.204	1328.248
53.315	18.410	1671.789	1326.892
54.330	18.419	1670.116	1325.519
55.344	18.480	1668.619	1324.682
56.359	18.547	1667.136	1323.907
57.374	18.439	1666.636	1322.559
58.388	18.386	1665.796	1321.362
59.403	18.448	1664.360	1320.589
60.417	18.502	1662.937	1319.755
61.432	18.414	1661.598	1317.902
62.447	18.450	1660.680	1317.333
63.461	18.428	1660.000	1316.507
64.476	18.377	1658.911	1315.137
65.490	18.456	1657.507	1314.514
66.505	18.508	1656.102	1313.676
67.520	18.497	1655.108	1312.690
68.534	18.509	1654.084	1311.856
69.549	18.518	1652.802	1310.787
70.563	18.490	1651.703	1309.586
71.578	18.490	1650.710	1308.683
72.593	18.494	1649.765	1307.848
73.607	18.456	1648.933	1306.785
74.622	18.451	1647.541	1305.533
75.636	18.444	1646.715	1304.703
76.651	18.418	1646.020	1303.841
77.666	18.552	1644.654	1303.666
78.680	18.477	1643.810	1302.311
79.695	18.526	1642.664	1301.656
80.709	18.539	1641.985	1301.105
81.724	18.537	1640.880	1300.100
82.739	18.593	1640.046	1299.747
83.753	18.535	1638.611	1298.056
84.768	18.526	1638.356	1297.667
85.782	18.443	1637.544	1296.284
86.797	18.425	1635.961	1294.781
87.812	18.452	1635.017	1294.125
88.826	18.506	1634.148	1293.731
89.841	18.502	1633.345	1292.944
90.855	18.487	1632.255	1291.860
91.870	18.544	1630.503	1290.786
92.884	18.522	1629.656	1289.833
93.899	18.444	1628.959	1288.581
94.914	18.470	1627.606	1287.592
95.928	18.512	1626.067	1286.580
96.943	18.519	1624.067	1284.932
97.957	18.500	1623.186	1283.978
98.972	18.557	1622.038	1283.382
99.987	18.536	1620.720	1282.072
101.001	18.497	1619.196	1280.465
102.016	18.525	1617.006	1278.822
103.030	18.440	1615.615	1276.979
104.045	18.461	1614.341	1276.017
105.060	18.551	1612.919	1275.446
106.074	18.444	1612.015	1273.823
107.089	18.623	1609.560	1273.101
108.103	18.581	1609.002	1272.232
109.118	18.489	1608.111	1270.732
110.133	18.540	1606.536	1269.760
111.147	18.567	1605.023	1268.649
112.162	18.618	1603.646	1267.823
113.176	18.579	1602.243	1266.313
114.191	18.614	1601.140	1265.587
115.206	18.599	1599.751	1264.272
116.220	18.597	1598.688	1263.306
117.235	18.660	1596.704	1262.083
118.249	18.562	1595.856	1260.582
119.264	18.662	1594.341	1260.009
120.279	18.570	1593.152	1258.280
121.293	18.528	1592.132	1257.061
122.308	18.623	1590.594	1256.430
123.322	18.616	1589.119	1255.102
124.337	18.675	1587.527	1254.164
125.352	18.622	1586.522	1252.872
126.366	18.673	1584.777	1251.758
127.381	18.696	1584.174	1251.339
128.395	18.692	1583.268	1250.480
129.410	18.661	1581.874	1249.044
130.424	18.701	1580.570	1248.193
131.439	18.668	1578.755	1246.408
132.454	18.612	1578.273	1245.512
133.468	18.641	1576.039	1243.848
134.483	18.621	1574.853	1242.662
135.497	18.701	1573.569	1242.118
136.512	18.654	1572.433	1240.772
137.527	18.613	1571.077	1239.293
138.541	18.714	1569.566	1238.724
139.556	18.667	1568.059	1237.084
140.570	18.698	1566.719	1236.143
141.585	18.654	1565.196	1234.514
142.600	18.680	1564.090	1233.721
143.614	18.658	1562.845	1232.471
144.629	18.764	1561.380	1231.966
145.643	18.693	1560.627	1230.755
146.658	18.641	1559.279	1229.210
147.673	18.624	1557.514	1227.589
148.687	18.637	1556.175	1226.516
149.702	18.634	1555.399	1225.771
150.716	18.635	1553.983	1224.557
151.731	18.687	1552.360	1223.540
152.746	18.650	1551.874	1222.784
153.760	18.573	1550.698	1221.199
154.775	18.668	1548.960	1220.398
155.789	18.756	1547.927	1220.106
156.804	18.753	1546.795	1219.083
157.819	18.689	1545.210	1217.268
158.833	18.692	1544.241	1216.419
159.848	18.747	1543.476	1216.102
160.862	18.776	1542.390	1215.343
161.877	18.850	1540.739	1214.454
162.892	18.791	1539.969	1213.329
163.906	18.773	1539.055	1212.374
164.921	18.838	1537.534	1211.527
165.935	18.786	1537.268	1210.839
166.950	18.798	1535.413	1209.359
167.964	18.761	1535.008	1208.671
168.979	18.715	1533.591	1207.124
169.994	18.706	1533.119	1206.584
171.008	18.774	1532.053	1206.116
172.023	18.768	1530.898	1205.054
173.037	18.750	1529.770	1203.934
174.052	18.786	1528.626	1203.179
175.067	18.782	1527.912	1202.487
176.081	18.824	1526.582	1201.622
177.096	18.832	1525.405	1200.648
178.110	18.780	1524.684	1199.610
179.125	18.676	1523.434	1197.795
180.140	18.805	1522.489	1197.845
181.154	18.814	1521.811	1197.272
182.169	18.757	1521.164	1196.259
183.183	18.767	1519.701	1195.069
184.198	18.822	1518.859	1194.689
185.213	18.810	1517.979	1193.807
186.227	18.835	1516.738	1192.895
187.242	18.789	1516.241	1192.080
188.256	18.853	1515.141	1191.554
189.271	18.823	1514.184	1190.490
190.286	18.924	1512.756	1189.963
191.300	18.937	1512.217	1189.521
192.315	18.889	1511.562	1188.572
193.329	18.861	1510.637	1187.544
194.344	18.832	1509.711	1186.508
195.359	18.912	1509.029	1186.420
196.373	18.834	1507.902	1184.889
197.388	18.799	1507.013	1183.847
198.402	18.820	1505.821	1182.953
199.417	18.784	1504.436	1181.508
200.432	18.828	1503.918	1181.301
201.446	18.812	1503.533	1180.787
202.461	18.891	1502.135	1180.123
203.475	18.855	1501.270	1179.092
204.490	18.811	1500.300	1177.924
205.504	18.827	1499.512	1177.310
206.519	18.866	1498.230	1176.470
207.534	18.838	1497.905	1175.916
208.548	18.971	1496.497	1175.617
209.563	18.919	1495.796	1174.606
210.577	18.912	1494.574	1173.494
211.592	18.915	1493.762	1172.775
212.607	18.791	1493.201	1171.386
213.621	18.873	1492.678	1171.428
214.636	18.962	1491.443	1170.964
215.650	18.967	1490.992	1170.541
216.665	19.074	1489.749	1170.188
217.680	18.932	1489.554	1168.964
218.694	18.879	1488.493	1167.669
219.709	18.953	1487.686	1167.438
220.723	19.022	1486.691	1167.021
221.738	18.992	1485.937	1166.124
222.753	18.986	1484.959	1165.207
223.767	18.945	1484.233	1164.258
224.782	18.916	1482.967	1162.968
225.796	19.015	1482.397	1163.088
226.811	18.955	1481.693	1162.028
227.826	19.045	1480.850	1161.867
228.840	19.054	1480.322	1161.412
229.855	19.025	1479.458	1160.436
230.869	18.961	1478.597	1159.224
231.884	19.068	1477.492	1158.978
232.899	19.023	1476.173	1157.539
233.913	19.060	1474.866	1156.663
234.928	18.932	1474.258	1155.225
235.942	19.073	1473.017	1155.094
236.957	19.147	1472.012	1154.699
237.972	19.158	1470.882	1153.783
238.986	18.994	1470.076	1151.952
240.001	19.102	1468.794	1151.571
241.015	19.102	1468.011	1150.851
242.030	19.116	1467.221	1150.222
243.045	19.235	1465.804	1149.807
244.059	19.154	1465.407	1148.852
245.074	19.131	1464.850	1148.162
246.088	19.162	1464.024	1147.617
247.103	19.191	1463.032	1146.936
248.117	19.193	1462.539	1146.460
249.132	19.341	1461.176	1146.274
250.147	19.194	1461.082	1145.117
251.161	19.269	1460.300	1144.905
252.176	19.330	1459.338	1144.455
253.190	19.281	1458.240	1143.165
254.205	19.200	1458.034	1142.366
255.220	19.260	1456.965	1141.827
256.234	19.196	1456.603	1141.019
257.249	19.204	1455.487	1140.094
258.263	19.242	1454.916	1139.799
259.278	19.269	1453.831	1139.025
260.293	19.254	1453.342	1138.441
261.307	19.388	1451.835	1138.048
262.322	19.247	1451.723	1136.925
263.336	19.404	1450.687	1137.049
264.351	19.390	1449.707	1136.090
265.366	19.320	1448.722	1134.755
266.380	19.376	1447.972	1134.438
267.395	19.438	1446.834	1133.853
268.409	19.356	1445.926	1132.504
269.424	19.386	1445.285	1132.097
270.439	19.450	1444.289	1131.635
271.453	19.444	1443.176	1130.621
272.468	19.360	1442.903	1129.757
273.482	19.426	1441.759	1129.197
274.497	19.322	1441.412	1128.142
275.512	19.560	1439.875	1128.396
276.526	19.373	1439.688	1126.930
277.541	19.413	1438.817	1126.407
278.555	19.418	1437.452	1125.269
279.570	19.378	1436.832	1124.423
280.585	19.405	1435.953	1123.813
281.599	19.462	1434.956	1123.303
282.614	19.435	1434.184	1122.428
283.628	19.510	1432.706	1121.661
284.643	19.413	1432.312	1120.620
285.657	19.505	1431.673	1120.617
286.672	19.474	1430.817	1119.645
287.687	19.467	1429.830	1118.732
288.701	19.419	1428.916	1117.606
289.716	19.530	1427.855	1117.398
290.730	19.596	1426.868	1116.949
291.745	19.538	1426.281	1116.017
292.760	19.558	1425.340	1115.314
293.774	19.564	1424.350	1114.479
294.789	19.483	1423.383	1113.102
295.803	19.591	1422.515	1113.022
296.818	19.612	1421.812	1112.502
297.833	19.554	1421.151	1111.514
298.847	19.705	1419.749	1111.289
299.862	19.638	1419.399	1110.489
300.876	19.638	1418.563	1109.736
301.891	19.629	1417.393	1108.665
302.906	19.635	1416.686	1108.054
303.920	19.678	1416.363	1107.979
304.935	19.688	1415.519	1107.285
305.949	19.809	1414.179	1106.912
306.964	19.762	1413.611	1106.067
307.979	19.752	1412.849	1105.309
308.993	19.770	1411.786	1104.496
310.008	19.779	1411.173	1103.980
311.022	19.757	1410.373	1103.113
312.037	19.783	1409.414	1102.429
313.052	19.817	1408.418	1101.774
314.066	19.671	1407.581	1100.087
315.081	19.797	1406.384	1099.856
316.095	19.758	1405.544	1098.854
317.110	19.872	1404.134	1098.379
318.125	19.843	1403.346	1097.483
319.139	19.845	1402.900	1097.049
320.154	19.773	1402.240	1095.981
321.168	19.790	1401.198	1095.179
322.183	19.891	1400.101	1094.863
323.197	19.783	1399.290	1093.448
324.212	19.926	1398.077	1093.306
325.227	19.872	1397.875	1092.707
326.241	19.837	1397.008	1091.714
327.256	19.947	1396.029	1091.545
328.270	19.866	1395.537	1090.555
329.285	19.978	1394.302	1090.196
330.300	19.875	1393.910	1089.149
331.314	19.952	1392.682	1088.576
332.329	19.958	1391.870	1087.884
333.343	20.006	1390.559	1087.063
334.358	19.949	1390.252	1086.367
335.373	19.872	1389.859	1085.483
336.387	20.012	1388.597	1085.277
337.402	20.019	1387.977	1084.743
338.416	19.970	1388.002	1084.356
339.431	20.002	1386.993	1083.671
340.446	19.977	1386.373	1082.938
341.460	20.063	1385.257	1082.508
342.475	20.075	1384.842	1082.159
343.489	20.121	1383.327	1081.171
344.504	20.059	1382.828	1080.295
345.519	20.040	1381.689	1079.190
346.533	20.038	1380.796	1078.386
347.548	20.063	1379.512	1077.445
348.562	20.057	1378.974	1076.893
349.577	20.079	1378.298	1076.404
350.592	20.135	1377.456	1076.004
351.606	20.131	1376.618	1075.226
352.621	20.108	1375.873	1074.408
353.635	20.090	1374.651	1073.246
354.650	20.174	1373.705	1072.934
355.665	20.177	1372.959	1072.274
356.679	20.240	1371.932	1071.765
357.694	20.183	1370.762	1070.406
358.708	20.217	1369.858	1069.815
359.723	20.239	1368.487	1068.783
360.738	20.165	1367.812	1067.707
361.752	20.189	1366.392	1066.650
362.767	20.293	1365.250	1066.303
363.781	20.285	1364.145	1065.300
364.796	20.332	1363.660	1065.110
365.810	20.236	1363.183	1064.060
366.825	20.238	1362.644	1063.555
367.840	20.286	1361.801	1063.099
368.854	20.359	1360.758	1062.632
369.869	20.347	1360.534	1062.295
370.883	20.324	1359.916	1061.573
371.898	20.336	1358.929	1060.783
372.913	20.365	1358.078	1060.203
373.927	20.300	1357.796	1059.490
374.942	20.331	1356.664	1058.706
375.956	20.375	1355.813	1058.212
376.971	20.423	1355.214	1057.947
377.986	20.425	1354.422	1057.248
379.000	20.335	1353.627	1055.986
380.015	20.389	1353.021	1055.744
381.029	20.374	1351.931	1054.710
382.044	20.456	1351.235	1054.572
383.059	20.384	1351.091	1053.930
384.073	20.448	1350.436	1053.712
385.088	20.454	1349.855	1053.207
386.102	20.472	1348.887	1052.464
387.117	20.532	1348.368	1052.333
388.132	20.497	1347.617	1051.440
389.146	20.605	1346.252	1050.932
390.161	20.476	1346.040	1049.899
391.175	20.589	1345.544	1050.098
392.190	20.514	1344.644	1048.852
393.205	20.633	1343.832	1048.845
394.219	20.501	1342.462	1046.885
395.234	20.549	1341.624	1046.426
396.248	20.697	1340.410	1046.279
397.263	20.718	1338.865	1045.107
398.278	20.577	1338.170	1043.622
399.292	20.637	1337.222	1043.152
400.307	20.695	1336.150	1042.572
401.321	20.619	1335.468	1041.495
402.336	20.615	1334.624	1040.715
403.350	20.612	1333.618	1039.821
404.365	20.635	1332.666	1039.129
405.380	20.707	1331.548	1038.590
406.394	20.750	1330.618	1038.032
407.409	20.736	1330.177	1037.512
408.423	20.696	1329.510	1036.661
409.438	20.823	1329.033	1036.956
410.453	20.758	1327.957	1035.637
411.467	20.774	1327.093	1034.969
412.482	20.791	1326.895	1034.820
413.496	20.764	1326.064	1033.921
414.511	20.721	1325.350	1033.020
415.526	20.906	1323.860	1032.859
416.540	20.832	1323.569	1032.103
417.555	20.793	1322.927	1031.285
418.569	20.803	1322.544	1030.951
419.584	20.826	1321.763	1030.385
420.599	20.885	1321.224	1030.223
421.613	136.171	1426.448	1788.965
422.628	132.639	1441.788	1789.069
