DTS Sentinel unit serial number:	SN413079Multiplexer serial number:	ORYXHardware model number:	OX4-SRSoftware version number:	ORYX F/W v4.00 Oryx Data Collector v3.7.2.0data status	okinstallation	princeton_trtdifferential loss correction	single-endedforward channel	channel 4reverse channel	N/Adate	2019/09/14time	17:21:35forward acquisition time	60.00reverse acquisition time	0.00gamma	496.2192k internal	0.2294k external	0.2294temperature offset calibration	1.0119default loss term (dB/km)	0.3790temperature slope calibration	1.0000multiplexer offset coefficient	1.0000multiplexer slope coefficient	1.0000fibre end	0.00T internal ref (°C)	37.84T ext. ref 1 (°C)	5.05T ext. ref 2 (°C)	32.64length (m)	temperature (°C)	Stokes	anti-Stokes-747.200	-95.357	-0.285	-0.078
-746.185	151.283	-0.196	0.273
-745.171	-61.765	0.308	-0.132
-744.156	-137.821	0.207	-0.024
-743.142	-1.129	0.091	0.066
-742.127	-36.699	0.124	-0.068
-741.112	-103.851	-0.237	-0.057
-740.098	112.694	-0.224	0.277
-739.083	-200.000	-0.005	0.302
-738.069	-71.917	0.207	0.079
-737.054	13.584	-0.143	0.113
-736.039	-27.322	-0.388	-0.231
-735.025	-96.529	0.085	0.023
-734.010	-65.155	-0.198	0.082
-732.996	130.665	-0.030	-0.039
-731.981	55.012	-0.202	-0.199
-730.966	100.153	-0.187	0.222
-729.952	-200.000	-0.013	-0.297
-728.937	-29.937	-0.251	-0.146
-727.923	-165.744	-0.115	-0.005
-726.908	-17.898	0.093	0.060
-725.894	800.000	0.091	0.373
-724.879	-58.326	-0.304	-0.135
-723.864	-69.179	0.147	-0.058
-722.850	70.461	-0.039	0.041
-721.835	800.000	-0.144	-0.426
-720.821	456.250	-0.124	-0.281
-719.806	-86.462	-0.187	0.059
-718.791	-200.000	0.028	-0.260
-717.777	71.635	-0.072	-0.076
-716.762	-200.000	-0.076	-0.511
-715.748	33.194	0.177	-0.157
-714.733	93.931	-0.116	-0.135
-713.718	-200.000	0.015	0.101
-712.704	-200.000	0.055	-0.464
-711.689	-42.863	-0.171	0.089
-710.675	-139.235	0.202	-0.022
-709.660	-183.051	-0.138	0.002
-708.645	83.904	-0.103	-0.115
-707.631	159.374	0.145	-0.206
-706.616	-200.000	-0.077	-0.349
-705.602	-96.906	0.175	-0.047
-704.587	800.000	-0.024	-0.082
-703.572	-55.893	-0.067	0.030
-702.558	574.952	-0.028	-0.069
-701.543	494.882	-0.113	-0.266
-700.529	-25.145	0.110	0.067
-699.514	-200.000	0.007	-0.253
-698.499	-200.000	0.083	-0.379
-697.485	-200.000	0.065	-0.318
-696.470	-41.571	-0.106	-0.056
-695.456	-81.785	-0.131	-0.044
-694.441	-18.975	-0.175	-0.111
-693.426	-193.944	0.363	0.003
-692.412	23.644	-0.168	0.141
-691.397	-135.000	0.273	0.034
-690.383	104.061	0.074	-0.088
-689.368	-112.555	0.108	0.022
-688.354	149.377	0.038	-0.053
-687.339	110.717	-0.085	0.104
-686.324	162.333	-0.115	-0.165
-685.310	237.102	0.168	0.284
-684.295	800.000	0.092	-0.288
-683.281	-183.453	-0.250	0.004
-682.266	126.835	-0.064	-0.083
-681.251	-93.108	0.234	-0.066
-680.237	61.747	-0.170	-0.172
-679.222	243.278	-0.024	-0.042
-678.208	800.000	-0.073	0.242
-677.193	684.493	0.081	-0.215
-676.178	114.821	-0.141	-0.176
-675.164	28.801	-0.177	-0.153
-674.149	-200.000	0.025	0.337
-673.135	-65.580	-0.256	0.105
-672.120	-178.966	-0.190	0.004
-671.105	-4.577	0.130	-0.091
-670.091	-28.575	-0.328	-0.193
-669.076	800.000	-0.148	-0.552
-668.062	-42.661	-0.193	0.100
-667.047	-27.952	0.298	0.176
-666.032	-200.000	0.002	-0.102
-665.018	29.486	-0.313	0.271
-664.003	-23.505	-0.186	0.114
-662.989	-44.700	0.148	-0.075
-661.974	800.000	0.056	-0.163
-660.959	792.092	0.101	0.283
-659.945	172.206	0.140	-0.206
-658.930	-27.700	-0.229	0.135
-657.916	-63.560	-0.048	0.020
-656.901	-69.462	0.240	-0.094
-655.886	-120.093	-0.195	0.034
-654.872	-200.000	-0.018	0.103
-653.857	99.385	-0.320	0.377
-652.843	-200.000	-0.018	0.138
-651.828	198.552	0.306	0.478
-650.814	-113.412	0.234	0.047
-649.799	39.360	-0.054	-0.049
-648.784	-47.599	0.224	-0.111
-647.770	-200.000	0.002	-0.023
-646.755	-200.000	0.033	-0.207
-645.741	248.389	0.201	-0.346
-644.726	292.973	-0.103	0.192
-643.711	800.000	0.039	0.170
-642.697	70.018	0.086	-0.090
-641.682	73.744	-0.031	-0.033
-640.668	260.101	-0.169	-0.297
-639.653	-40.829	0.040	0.021
-638.638	5.022	-0.256	-0.192
-637.624	-63.235	-0.016	0.007
-636.609	800.000	-0.065	0.255
-635.595	15.600	0.280	-0.224
-634.580	206.433	-0.241	-0.382
-633.565	-200.000	0.020	-0.152
-632.551	84.360	0.199	0.222
-631.536	296.243	0.042	0.079
-630.522	-200.000	-0.056	0.345
-629.507	-200.000	0.008	0.188
-628.492	-57.909	0.250	0.111
-627.478	149.268	0.265	-0.365
-626.463	-200.000	0.036	-0.167
-625.449	-23.387	-0.242	-0.148
-624.434	8.766	-0.189	-0.145
-623.419	33.775	0.101	0.089
-622.405	-18.881	-0.217	-0.137
-621.390	800.000	-0.039	-0.133
-620.376	-200.000	0.018	0.158
-619.361	19.318	-0.081	-0.066
-618.346	-177.065	-0.123	-0.003
-617.332	-62.107	-0.298	0.127
-616.317	63.327	-0.135	0.138
-615.303	-63.058	-0.156	-0.065
-614.288	573.168	-0.104	0.257
-613.273	126.071	0.155	0.199
-612.259	-56.628	-0.189	0.085
-611.244	-81.409	-0.172	-0.058
-610.230	-124.603	-0.218	0.034
-609.215	481.193	0.037	0.085
-608.201	345.484	0.181	-0.362
-607.186	-200.000	0.009	-0.119
-606.171	30.131	0.166	0.144
-605.157	264.419	0.052	-0.092
-604.142	7.447	-0.188	0.143
-603.128	774.154	0.026	-0.072
-602.113	-200.000	-0.015	0.104
-601.098	172.876	-0.203	-0.298
-600.084	780.526	0.090	-0.249
-599.069	-200.000	-0.000	-0.199
-598.055	48.880	0.164	0.157
-597.040	201.023	-0.133	0.209
-596.025	-200.000	-0.010	0.238
-595.011	-108.777	0.265	-0.058
-593.996	-130.982	0.332	-0.045
-592.982	-108.241	0.044	-0.010
-591.967	-165.787	0.065	-0.003
-590.952	569.683	-0.054	0.133
-589.938	-200.000	-0.035	-0.271
-588.923	-110.724	-0.193	-0.041
-587.909	-200.000	0.001	0.024
-586.894	-200.000	-0.007	-0.063
-585.879	-200.000	-0.009	0.104
-584.865	-67.952	-0.134	0.053
-583.850	-114.521	-0.472	0.092
-582.836	-143.965	0.046	-0.004
-581.821	560.704	0.133	-0.326
-580.806	47.085	0.046	0.044
-579.792	-200.000	-0.045	0.410
-578.777	800.000	0.126	0.392
-577.763	-200.000	-0.029	0.232
-576.748	-96.453	-0.342	0.092
-575.733	800.000	-0.075	-0.276
-574.719	800.000	0.052	0.159
-573.704	559.718	-0.072	-0.178
-572.690	-63.217	-0.324	0.136
-571.675	74.002	0.190	0.203
-570.661	124.083	-0.178	-0.227
-569.646	244.250	0.112	0.190
-568.631	15.949	0.064	-0.051
-567.617	-117.009	0.205	-0.038
-566.602	800.000	0.079	0.230
-565.588	-200.000	0.018	0.190
-564.573	-41.851	0.084	0.044
-563.558	538.434	-0.037	-0.089
-562.544	-104.924	0.419	-0.098
-561.529	50.407	-0.197	-0.189
-560.515	-34.462	0.245	0.137
-559.500	-103.155	0.589	0.141
-558.485	167.854	0.246	-0.355
-557.471	62.763	-0.123	-0.125
-556.456	800.000	-0.117	-0.354
-555.442	-125.079	-0.278	0.043
-554.427	-79.885	0.090	-0.031
-553.412	11.326	0.384	-0.298
-552.398	187.125	-0.120	-0.182
-551.383	-113.714	0.066	-0.013
-550.369	-125.187	0.041	0.006
-549.354	77.028	0.347	0.374
-548.339	-200.000	-0.043	0.314
-547.325	-147.475	-0.372	0.032
-546.310	-151.365	-0.077	0.006
-545.296	-45.286	-0.064	0.032
-544.281	-104.829	0.074	0.017
-543.266	298.626	-0.059	0.110
-542.252	-142.593	0.452	0.045
-541.237	800.000	-0.027	-0.084
-540.223	-68.040	0.291	0.115
-539.208	-45.105	-0.152	0.077
-538.193	-111.684	0.166	0.034
-537.179	-200.000	-0.025	0.140
-536.164	-200.000	-0.004	0.207
-535.150	-196.879	0.182	-0.001
-534.135	-154.140	0.316	0.022
-533.121	24.740	-0.193	-0.162
-532.106	-66.017	0.347	-0.141
-531.091	-43.670	-0.032	-0.016
-530.077	-130.338	-0.136	0.019
-529.062	-200.000	0.012	-0.153
-528.048	25.134	0.142	-0.120
-527.033	90.632	-0.164	-0.186
-526.018	-139.289	-0.225	0.025
-525.004	-166.957	-0.186	-0.008
-523.989	71.197	0.098	0.103
-522.975	-200.000	0.057	0.333
-521.960	224.890	0.132	-0.217
-520.945	-100.798	0.159	-0.040
-519.931	-200.000	-0.014	0.157
-518.916	-90.433	0.248	0.073
-517.902	101.412	0.126	0.149
-516.887	-78.856	-0.168	0.058
-515.872	800.000	0.051	-0.173
-514.858	149.036	0.062	-0.085
-513.843	-3.396	-0.261	0.184
-512.829	7.719	0.099	0.075
-511.814	124.735	-0.219	-0.279
-510.799	-159.314	0.203	0.012
-509.785	-200.000	-0.014	0.222
-508.770	-164.990	-0.242	0.011
-507.756	14.291	-0.261	0.206
-506.741	241.769	0.018	-0.030
-505.726	-82.023	0.220	-0.073
-504.712	800.000	-0.086	-0.274
-503.697	-200.000	-0.016	-0.092
-502.683	-73.534	0.157	-0.058
-501.668	95.185	-0.150	-0.174
-500.653	-177.948	0.136	-0.003
-499.639	-159.626	0.160	0.009
-498.624	-36.651	-0.179	0.097
-497.610	-200.000	0.015	0.124
-496.595	-110.381	-0.303	0.064
-495.581	91.854	-0.188	-0.214
-494.566	-84.356	0.057	0.018
-493.551	-100.100	-0.186	0.047
-492.537	-117.067	-0.163	0.030
-491.522	-130.103	0.170	-0.024
-490.508	-116.154	0.200	0.038
-489.493	-72.171	-0.142	-0.053
-488.478	67.372	0.167	0.173
-487.464	-200.000	0.006	-0.217
-486.449	170.324	-0.246	0.356
-485.435	-118.108	-0.225	0.041
-484.420	-119.203	-0.259	0.046
-483.405	800.000	-0.024	-0.077
-482.391	-26.612	0.353	-0.209
-481.376	-200.000	-0.035	0.244
-480.362	-40.564	-0.174	-0.091
-479.347	-42.943	0.225	0.115
-478.332	584.798	-0.059	0.148
-477.318	800.000	0.029	-0.104
-476.303	568.366	-0.146	0.360
-475.289	4.805	-0.240	0.179
-474.274	345.734	0.108	0.214
-473.259	-189.318	0.092	0.001
-472.245	343.008	-0.086	-0.169
-471.230	-46.790	-0.147	0.073
-470.216	602.370	-0.119	-0.299
-469.201	800.000	0.041	0.118
-468.186	-100.439	-0.266	0.067
-467.172	-79.256	0.113	0.039
-466.157	28.743	-0.306	0.262
-465.143	-200.000	0.001	-0.095
-464.128	8.788	-0.193	0.147
-463.113	-200.000	0.026	0.425
-462.099	-154.379	-0.297	0.020
-461.084	-89.976	0.389	-0.115
-460.070	-37.867	0.188	-0.101
-459.055	-115.067	0.208	0.040
-458.040	-200.000	-0.034	0.186
-457.026	-200.000	0.005	-0.130
-456.011	-24.869	0.216	-0.130
-454.997	-6.644	0.129	0.089
-453.982	-8.650	-0.407	0.276
-452.968	115.445	-0.172	0.212
-451.953	477.839	-0.118	0.270
-450.938	63.578	0.303	-0.308
-449.924	-200.000	-0.019	0.267
-448.909	46.487	-0.205	-0.193
-447.895	-146.334	-0.130	0.012
-446.880	222.620	-0.055	-0.090
-445.865	-29.287	0.314	-0.182
-444.851	100.586	0.064	-0.075
-443.836	269.587	0.008	0.014
-442.822	800.000	-0.017	0.060
-441.807	-143.481	-0.045	-0.004
-440.792	76.651	0.238	0.255
-439.778	129.636	0.058	-0.075
-438.763	-54.961	0.289	0.132
-437.749	-200.000	0.069	0.323
-436.734	7.655	-0.115	-0.087
-435.719	107.885	0.083	-0.100
-434.705	-24.787	-0.293	0.176
-433.690	-200.000	0.052	0.241
-432.676	800.000	0.056	0.169
-431.661	800.000	0.095	-0.312
-430.646	66.029	-0.119	-0.122
-429.632	195.996	0.090	0.139
-428.617	800.000	0.068	-0.295
-427.603	-200.000	-0.078	-0.391
-426.588	496.956	-0.048	-0.111
-425.573	93.799	-0.028	0.032
-424.559	82.195	-0.165	0.181
-423.544	800.000	-0.042	-0.181
-422.530	91.969	-0.148	0.169
-421.515	17.276	-0.153	-0.122
-420.500	354.356	-0.050	0.101
-419.486	-141.373	-0.068	-0.007
-418.471	92.195	-0.178	0.202
-417.457	-200.000	0.013	0.134
-416.442	359.681	0.029	-0.059
-415.428	-46.739	-0.216	0.107
-414.413	-19.725	0.267	0.166
-413.398	-151.485	0.285	0.021
-412.384	-200.000	0.013	-0.346
-411.369	356.381	-0.100	-0.201
-410.355	-200.000	-0.025	-0.187
-409.340	-75.073	-0.192	0.069
-408.325	-9.577	-0.235	0.158
-407.311	165.511	0.179	-0.255
-406.296	363.100	-0.029	-0.059
-405.282	185.399	-0.091	-0.136
-404.267	443.485	0.031	-0.068
-403.252	-158.811	-0.219	-0.013
-402.238	-200.000	-0.005	-0.041
-401.223	-116.592	0.191	0.035
-400.209	-31.446	-0.303	-0.172
-399.194	60.503	-0.202	-0.202
-398.179	-92.918	0.251	0.071
-397.165	-40.994	-0.216	0.112
-396.150	-200.000	0.042	0.223
-395.136	-58.466	-0.259	0.113
-394.121	800.000	0.074	-0.217
-393.106	-165.102	-0.345	-0.015
-392.092	309.533	-0.113	-0.213
-391.077	109.779	0.214	0.259
-390.063	-200.000	0.036	-0.438
-389.048	443.085	-0.125	-0.277
-388.033	95.528	0.171	0.197
-387.019	-59.070	-0.100	-0.043
-386.004	118.053	-0.156	0.194
-384.990	68.230	-0.144	-0.149
-383.975	-117.251	-0.123	0.022
-382.960	-181.114	0.220	0.004
-381.946	-63.889	-0.395	-0.163
-380.931	224.208	0.131	-0.214
-379.917	14.424	-0.141	0.111
-378.902	800.000	0.029	0.087
-377.888	-99.584	-0.382	0.097
-376.873	-129.144	0.324	-0.046
-375.858	-76.473	0.204	-0.072
-374.844	491.054	0.059	0.137
-373.829	-42.644	0.117	0.060
-372.815	-200.000	0.049	0.399
-371.800	-200.000	0.004	0.067
-370.785	800.000	0.047	0.131
-369.771	-131.028	-0.115	-0.016
-368.756	6.290	0.238	0.178
-367.742	-41.558	-0.346	-0.179
-366.727	-140.110	0.115	-0.012
-365.712	210.710	-0.083	-0.132
-364.698	-30.796	-0.386	-0.220
-363.683	-200.000	0.004	0.089
-362.669	657.539	-0.032	0.082
-361.654	733.029	0.181	0.488
-360.639	-200.000	0.008	0.040
-359.625	-26.078	-0.034	0.020
-358.610	-137.064	0.438	-0.050
-357.596	262.721	-0.267	-0.468
-356.581	85.947	-0.160	-0.177
-355.566	800.000	-0.041	0.155
-354.552	-94.645	-0.493	-0.135
-353.537	-102.329	0.239	-0.058
-352.523	176.324	0.074	0.108
-351.508	76.632	-0.087	-0.093
-350.493	120.283	0.221	-0.276
-349.479	106.262	-0.274	0.327
-348.464	277.593	0.045	-0.080
-347.450	84.568	0.141	-0.156
-346.435	-200.000	0.049	-0.225
-345.420	800.000	0.079	0.278
-344.406	227.952	-0.139	-0.228
-343.391	-138.883	-0.232	-0.025
-342.377	800.000	-0.107	0.425
-341.362	132.412	0.101	0.131
-340.348	-38.817	0.283	0.150
-339.333	207.356	0.112	0.175
-338.318	-193.306	0.322	-0.003
-337.304	800.000	0.033	0.110
-336.289	1.491	0.031	-0.023
-335.275	155.907	-0.114	0.158
-334.260	-6.539	-0.137	-0.094
-333.245	-34.584	-0.031	-0.017
-332.231	250.711	-0.051	0.087
-331.216	359.777	-0.038	-0.076
-330.202	134.946	0.052	0.068
-329.187	189.629	0.119	-0.179
-328.172	87.439	0.058	-0.065
-327.158	15.739	0.201	-0.159
-326.143	-140.145	-0.018	0.002
-325.129	306.460	-0.044	0.082
-324.114	-27.985	-0.065	-0.038
-323.099	-92.154	-0.097	-0.028
-322.085	-52.681	-0.166	-0.077
-321.070	140.862	0.170	-0.226
-320.056	-200.000	-0.040	-0.231
-319.041	-48.146	0.039	0.019
-318.026	800.000	-0.078	-0.290
-317.012	-103.097	-0.200	0.048
-315.997	159.933	0.053	-0.074
-314.983	-100.603	0.151	0.038
-313.968	-67.677	0.087	-0.034
-312.953	-82.301	-0.035	0.011
-311.939	167.408	-0.062	0.088
-310.924	103.869	0.094	0.111
-309.910	39.553	-0.111	-0.100
-308.895	800.000	0.088	-0.253
-307.880	47.681	0.123	-0.115
-306.866	-36.189	0.169	-0.091
-305.851	-200.000	0.034	-0.208
-304.837	94.580	0.105	-0.120
-303.822	-200.000	-0.052	-0.274
-302.807	-200.000	0.034	0.219
-301.793	360.534	0.127	0.255
-300.778	138.992	0.158	0.209
-299.764	800.000	-0.114	0.364
-298.749	250.972	-0.122	0.209
-297.735	-70.283	0.137	-0.052
-296.720	800.000	-0.008	-0.024
-295.705	189.898	0.218	-0.328
-294.691	60.793	-0.082	-0.081
-293.676	-93.902	-0.217	0.060
-292.662	2.164	0.327	-0.237
-291.647	52.355	-0.206	0.197
-290.632	50.444	-0.021	0.020
-289.618	641.352	0.073	-0.187
-288.603	-157.915	0.064	0.004
-287.589	792.220	0.080	0.222
-286.574	468.337	0.165	0.372
-285.559	20.539	-0.214	0.174
-284.545	353.164	-0.201	0.401
-283.530	474.988	-0.083	0.189
-282.516	581.257	-0.070	-0.173
-281.501	-37.025	0.181	-0.097
-280.486	800.000	0.095	-0.403
-279.472	31.159	0.308	-0.265
-278.457	-200.000	-0.046	0.456
-277.443	-79.237	0.118	0.040
-276.428	167.344	-0.046	-0.066
-275.413	-96.907	-0.185	0.049
-274.399	58.657	-0.022	-0.021
-273.384	307.187	-0.027	-0.051
-272.370	-73.251	-0.209	-0.077
-271.355	-200.000	-0.016	0.188
-270.340	289.612	0.091	0.165
-269.326	583.766	-0.092	0.227
-268.311	-200.000	-0.004	0.076
-267.297	-47.218	-0.264	0.129
-266.282	-106.869	-0.203	0.045
-265.267	-31.987	-0.266	-0.150
-264.253	-110.915	-0.241	0.050
-263.238	82.360	0.239	0.260
-262.224	-200.000	0.000	0.170
-261.209	-75.522	0.282	-0.101
-260.195	115.968	0.157	0.193
-259.180	-141.020	-0.231	0.024
-258.165	-19.205	0.194	-0.121
-257.151	800.000	0.072	-0.275
-256.136	800.000	0.072	0.202
-255.122	58.924	0.085	0.083
-254.107	1.725	0.065	-0.047
-253.092	13.523	0.105	0.082
-252.078	-87.635	-0.129	0.039
-251.063	20.067	0.032	0.026
-250.049	149.374	0.083	-0.112
-249.034	-113.355	-0.189	-0.037
-248.019	-200.000	0.010	0.193
-247.005	-8.579	0.306	0.206
-245.990	-48.060	-0.230	-0.112
-244.976	-16.221	0.452	-0.288
-243.961	274.281	-0.076	0.136
-242.946	-7.148	-0.079	0.054
-241.932	762.562	-0.110	-0.299
-240.917	688.129	-0.101	-0.264
-239.903	-188.157	0.190	0.002
-238.888	209.597	-0.032	-0.050
-237.873	-200.000	0.005	0.128
-236.859	315.900	0.079	-0.150
-235.844	-159.577	0.263	-0.015
-234.830	40.970	0.204	0.185
-233.815	-92.233	0.056	-0.016
-232.800	-200.000	-0.056	0.518
-231.786	64.725	0.054	0.055
-230.771	-171.030	-0.065	0.002
-229.757	-200.000	0.000	-0.139
-228.742	-52.981	0.381	0.176
-227.727	800.000	0.031	-0.132
-226.713	-200.000	0.076	-0.456
-225.698	-114.099	-0.013	-0.003
-224.684	27.590	-0.357	0.301
-223.669	-200.000	0.005	-0.110
-222.655	-152.120	0.078	-0.006
-221.640	-140.704	-0.085	0.009
-220.625	-181.822	-0.215	0.004
-219.611	-70.303	0.076	-0.029
-218.596	-200.000	0.050	0.231
-217.582	6.926	-0.149	-0.111
-216.567	24.060	-0.100	0.082
-215.552	-118.277	0.161	-0.029
-214.538	-84.420	0.233	0.074
-213.523	433.786	0.145	-0.315
-212.509	800.000	0.088	-0.325
-211.494	50.534	-0.127	-0.120
-210.479	800.000	0.143	-0.488
-209.465	-184.200	-0.363	-0.006
-208.450	-200.000	0.040	-0.215
-207.436	125.803	-0.114	0.144
-206.421	-111.002	0.302	0.062
-205.406	-102.920	0.145	0.034
-204.392	-200.000	0.010	-0.061
-203.377	-163.065	0.299	0.014
-202.363	38.558	0.063	-0.056
-201.348	-127.646	-0.140	-0.020
-200.333	800.000	0.075	-0.262
-199.319	170.879	-0.097	0.138
-198.304	-186.456	-0.105	-0.002
-197.290	29.882	0.111	-0.094
-196.275	-83.362	-0.056	-0.018
-195.260	-95.413	-0.329	0.088
-194.246	800.000	-0.028	-0.099
-193.231	237.050	0.035	-0.058
-192.217	-200.000	-0.032	0.196
-191.202	-200.000	0.017	-0.276
-190.187	13.515	0.099	-0.077
-189.173	-200.000	-0.006	-0.272
-188.158	101.229	0.107	-0.124
-187.144	-109.430	0.144	-0.030
-186.129	-127.259	0.056	-0.008
-185.114	-133.399	-0.174	0.022
-184.100	235.477	0.158	0.260
-183.085	800.000	0.062	-0.250
-182.071	12.158	-0.249	0.192
-181.056	270.618	-0.138	0.242
-180.042	167.672	-0.299	-0.426
-179.027	-200.000	0.011	0.107
-178.012	239.700	-0.067	0.111
-176.998	-54.505	0.108	-0.049
-175.983	-76.714	0.243	-0.085
-174.969	-129.079	-0.285	-0.040
-173.954	-133.423	0.366	-0.046
-172.939	-200.000	0.012	0.349
-171.925	273.784	0.212	0.374
-170.910	23.205	-0.046	0.038
-169.896	71.183	-0.031	-0.032
-168.881	-27.905	-0.424	0.245
-167.866	800.000	-0.088	-0.280
-166.852	-200.000	0.012	0.201
-165.837	571.660	-0.104	-0.254
-164.823	-20.379	-0.246	-0.151
-163.808	-126.314	-0.178	0.027
-162.793	412.572	-0.139	-0.295
-161.779	27.485	0.149	-0.126
-160.764	-200.000	0.051	0.338
-159.750	-128.345	0.289	0.041
-158.735	28.042	0.191	-0.161
-157.720	-133.655	0.135	0.017
-156.706	-39.752	0.128	-0.067
-155.691	-68.865	0.249	0.096
-154.677	-110.701	0.322	-0.066
-153.662	96.603	0.045	-0.051
-152.647	34.995	0.128	-0.112
-151.633	-200.000	-0.007	0.083
-150.618	-21.765	0.329	0.200
-149.604	139.814	0.151	-0.199
-148.589	142.382	0.123	-0.163
-147.574	-61.032	0.282	-0.119
-146.560	-130.102	-0.204	-0.028
-145.545	-119.438	-0.152	-0.026
-144.531	-179.178	-0.190	-0.004
-143.516	76.348	-0.287	0.304
-142.502	439.520	-0.085	-0.184
-141.487	583.140	-0.083	0.205
-140.472	-75.217	0.239	0.085
-139.458	-60.292	-0.137	0.058
-138.443	-200.000	-0.064	-0.286
-137.429	-144.944	-0.203	0.019
-136.414	-92.957	-0.139	0.039
-135.399	-18.372	0.220	-0.137
-134.385	-74.540	0.126	0.045
-133.370	306.986	-0.072	-0.133
-132.356	800.000	-0.068	0.195
-131.341	-48.666	-0.163	0.078
-130.326	-89.187	-0.091	-0.027
-129.312	-107.701	0.284	0.062
-128.297	-2.618	-0.114	0.080
-127.283	-3.881	0.273	0.189
-126.268	-29.492	0.042	0.024
-125.253	487.997	0.027	-0.061
-124.239	-61.204	-0.181	-0.076
-123.224	105.017	0.090	-0.106
-122.210	-200.000	-0.028	0.144
-121.195	-200.000	-0.044	-0.350
-120.180	98.394	0.277	0.318
-119.166	-11.848	-0.293	-0.192
-118.151	83.316	-0.224	-0.243
-117.137	-200.000	0.055	-0.374
-116.122	-80.882	-0.315	-0.104
-115.107	92.852	0.253	0.285
-114.093	-92.812	-0.267	-0.074
-113.078	-18.140	-0.297	-0.186
-112.064	-149.430	0.186	0.015
-111.049	720.251	-0.101	-0.269
-110.034	-44.866	-0.333	-0.166
-109.020	94.972	0.180	0.204
-108.005	46.932	0.194	0.180
-106.991	800.000	0.061	-0.247
-105.976	800.000	-0.094	0.389
-104.962	-200.000	-0.015	-0.098
-103.947	-192.172	0.256	0.002
-102.932	-77.072	0.423	-0.147
-101.918	214.619	-0.081	0.128
-100.903	-24.476	0.176	0.105
-99.889	55.126	-0.262	0.253
-98.874	111.348	0.102	0.123
-97.859	-200.000	0.008	0.089
-96.845	17.738	0.279	0.221
-95.830	74.173	-0.250	-0.262
-94.816	-72.107	-0.371	-0.137
-93.801	303.612	0.088	-0.162
-92.786	50.020	-0.099	0.093
-91.772	-63.508	0.561	0.230
-90.757	-5.723	-0.275	0.188
-89.743	-200.000	-0.031	0.233
-88.728	-115.433	-0.143	-0.027
-87.713	-44.124	0.194	-0.097
-86.699	-200.000	0.053	0.256
-85.684	800.000	-0.075	-0.241
-84.670	34.560	-0.035	0.031
-83.655	-168.951	-0.153	-0.006
-82.640	364.851	-0.247	0.496
-81.626	46.067	0.191	-0.176
-80.611	328.727	0.089	0.170
-79.597	32.407	0.180	0.155
-78.582	21.683	0.249	-0.202
-77.567	-200.000	-0.009	-0.278
-76.553	-91.688	0.320	-0.091
-75.538	-56.512	0.114	-0.050
-74.524	-148.578	0.359	0.029
-73.509	800.000	-0.018	-0.061
-72.494	74.683	0.129	-0.135
-71.480	236.969	0.130	-0.215
-70.465	-21.657	-0.192	-0.116
-69.451	83.404	0.154	-0.167
-68.436	90.905	0.191	0.213
-67.422	69.660	-0.142	-0.145
-66.407	188.723	0.222	-0.330
-65.392	173.975	-0.035	-0.050
-64.378	-200.000	0.011	0.183
-63.363	115.972	-0.137	0.168
-62.349	4.324	0.100	-0.073
-61.334	139.147	-0.521	-0.682
-60.319	800.000	0.163	0.524
-59.305	-200.000	-0.097	-0.909
-58.290	127.156	0.606	0.766
-57.276	800.000	0.449	1.575
-56.261	-200.000	87.255	495.539
-55.246	525.098	1385.974	3246.554
-54.232	182.104	2609.012	3825.833
-53.217	110.848	2364.978	2832.816
-52.203	44.140	2104.733	1921.234
-51.188	39.559	2014.874	1797.481
-50.173	37.994	1995.662	1766.116
-49.159	50.726	2041.361	1923.369
-48.144	54.201	2061.379	1973.999
-47.130	40.458	2020.918	1810.801
-46.115	37.882	2009.694	1777.230
-45.100	37.845	2006.349	1773.863
-44.086	37.843	2004.139	1771.824
-43.071	37.800	2001.533	1769.054
-42.057	37.650	1999.878	1766.166
-41.042	37.762	1997.728	1765.206
-40.027	37.747	1995.790	1763.292
-39.013	37.819	1993.553	1761.899
-37.998	37.822	1991.692	1760.211
-36.984	37.778	1990.417	1758.619
-35.969	37.852	1987.944	1757.027
-34.954	37.816	1986.369	1755.236
-33.940	37.799	1985.100	1753.892
-32.925	37.853	1983.103	1752.549
-31.911	37.935	1981.489	1751.792
-30.896	37.783	1979.923	1748.967
-29.881	37.880	1978.268	1748.313
-28.867	37.874	1977.091	1747.148
-27.852	37.940	1974.334	1745.233
-26.838	37.975	1972.595	1743.941
-25.823	37.834	1971.113	1741.301
-24.809	37.876	1969.101	1739.827
-23.794	37.883	1967.123	1738.070
-22.779	37.917	1965.199	1736.607
-21.765	37.877	1963.634	1734.801
-20.750	37.856	1961.862	1732.977
-19.736	37.821	1960.675	1731.552
-18.721	37.830	1959.487	1730.508
-17.706	37.834	1957.467	1728.696
-16.692	37.811	1955.838	1726.979
-15.677	37.789	1954.378	1725.427
-14.663	37.905	1952.592	1724.812
-13.648	37.917	1951.480	1723.869
-12.633	37.917	1950.195	1722.667
-11.619	37.852	1948.769	1720.759
-10.604	37.864	1947.225	1719.436
-9.590	37.807	1946.100	1717.870
-8.575	37.760	1944.890	1716.317
-7.560	37.739	1943.816	1715.120
-6.546	37.879	1941.943	1714.633
-5.531	37.838	1940.582	1712.999
-4.517	37.903	1939.403	1712.464
-3.502	37.836	1938.019	1710.586
-2.487	37.866	1936.028	1709.025
-1.473	37.759	1936.270	1708.229
-0.458	37.841	1932.143	1705.235
0.556	38.657	1912.018	1677.065
1.571	33.975	1892.145	1619.713
2.586	29.492	1912.578	1598.341
3.600	28.121	1948.293	1615.945
4.615	26.906	1943.347	1600.982
5.629	20.497	1839.748	1461.777
6.644	10.292	1715.975	1282.840
7.659	5.454	1676.463	1215.661
8.673	5.026	1673.014	1209.741
9.688	4.991	1671.473	1208.242
10.702	5.092	1669.803	1207.708
11.717	5.071	1666.882	1205.334
12.731	5.544	1667.093	1209.033
13.746	11.934	1681.751	1269.210
14.761	19.933	1699.450	1344.844
15.775	21.486	1700.000	1357.220
16.790	20.182	1695.982	1343.791
17.804	19.044	1692.372	1332.013
18.819	18.029	1689.230	1321.571
19.834	17.380	1686.877	1314.598
20.848	17.199	1685.055	1311.667
21.863	16.892	1683.733	1308.158
22.877	16.698	1682.400	1305.507
23.892	16.530	1680.452	1302.584
24.907	16.375	1679.427	1300.487
25.921	16.293	1678.427	1298.961
26.936	16.295	1677.846	1298.411
27.950	16.363	1677.060	1298.214
28.965	16.433	1676.181	1297.956
29.980	16.448	1675.307	1297.281
30.994	16.522	1674.781	1297.322
32.009	16.734	1673.072	1297.509
33.023	16.745	1672.213	1296.811
34.038	16.778	1671.060	1296.054
35.053	16.712	1670.335	1294.876
36.067	16.570	1668.737	1292.436
37.082	16.564	1667.802	1291.556
38.096	16.561	1666.361	1290.302
39.111	16.633	1665.695	1290.217
40.126	16.630	1665.315	1289.790
41.140	16.574	1664.380	1288.521
42.155	16.485	1662.398	1286.200
43.169	16.270	1661.224	1283.545
44.184	16.288	1660.220	1282.787
45.199	16.187	1658.665	1280.708
46.213	16.247	1657.587	1280.215
47.228	16.339	1656.420	1279.898
48.242	16.391	1655.129	1279.179
49.257	16.433	1654.280	1278.728
50.271	16.503	1653.197	1278.313
51.286	16.454	1651.963	1276.872
52.301	16.454	1650.551	1275.670
53.315	16.408	1649.328	1274.261
54.330	16.461	1647.095	1272.820
55.344	16.334	1645.529	1270.545
56.359	16.382	1644.215	1269.780
57.374	16.353	1643.552	1268.934
58.388	16.319	1642.028	1267.391
59.403	16.399	1640.082	1266.376
60.417	16.192	1639.537	1264.292
61.432	16.208	1638.464	1263.477
62.447	16.228	1636.766	1262.205
63.461	16.148	1635.562	1260.565
64.476	16.185	1634.715	1260.079
65.490	16.139	1633.549	1258.727
66.505	16.108	1632.477	1257.556
67.520	16.054	1631.758	1256.486
68.534	16.054	1630.672	1255.542
69.549	16.123	1629.646	1255.152
70.563	16.198	1627.982	1254.314
71.578	16.045	1627.139	1252.418
72.593	16.126	1625.513	1251.662
73.607	16.051	1624.736	1250.394
74.622	15.999	1623.340	1248.827
75.636	16.171	1621.963	1248.928
76.651	16.049	1621.605	1247.641
77.666	15.984	1620.870	1246.482
78.680	16.061	1619.943	1246.227
79.695	16.062	1619.437	1245.732
80.709	16.015	1618.515	1244.568
81.724	16.264	1617.055	1245.170
82.739	16.332	1616.446	1245.095
83.753	16.361	1615.103	1244.166
84.768	16.299	1615.121	1243.614
85.782	16.405	1614.211	1243.578
86.797	16.453	1613.857	1243.552
87.812	16.548	1611.952	1242.672
88.826	16.539	1610.844	1241.638
89.841	16.419	1609.578	1239.673
90.855	16.448	1608.956	1239.297
91.870	16.511	1607.887	1238.826
92.884	16.528	1606.897	1238.079
93.899	16.560	1605.585	1237.192
94.914	16.619	1604.626	1236.774
95.928	16.608	1603.212	1235.496
96.943	16.610	1602.344	1234.729
97.957	16.578	1601.074	1233.414
98.972	16.574	1599.282	1231.896
99.987	16.553	1597.898	1230.567
101.001	16.437	1596.357	1228.427
102.016	16.565	1594.475	1227.797
103.030	16.460	1593.611	1226.264
104.045	16.515	1592.228	1225.492
105.060	16.475	1591.075	1224.200
106.074	16.505	1589.413	1223.035
107.089	16.353	1587.649	1220.467
108.103	16.287	1586.082	1218.683
109.118	16.196	1584.421	1216.642
110.133	16.214	1582.753	1215.383
111.147	16.096	1581.759	1213.663
112.162	16.203	1580.506	1213.359
113.176	16.084	1579.733	1211.808
114.191	16.307	1577.705	1211.744
115.206	16.297	1577.089	1211.092
116.220	16.167	1576.264	1209.421
117.235	16.228	1574.417	1208.332
118.249	16.168	1573.920	1207.416
119.264	16.209	1572.042	1206.161
120.279	16.143	1570.776	1204.610
121.293	16.207	1568.723	1203.382
122.308	16.180	1567.599	1202.224
123.322	16.105	1565.889	1200.274
124.337	16.095	1564.407	1198.956
125.352	16.169	1563.189	1198.447
126.366	16.053	1562.163	1196.730
127.381	16.065	1561.282	1196.034
128.395	16.102	1559.754	1195.019
129.410	16.162	1558.509	1194.386
130.424	16.133	1557.694	1193.451
131.439	16.085	1556.434	1192.037
132.454	16.250	1554.542	1191.650
133.468	16.259	1553.871	1191.091
134.483	16.315	1552.246	1190.136
135.497	16.339	1550.316	1188.722
136.512	16.330	1549.538	1187.958
137.527	16.336	1548.254	1186.910
138.541	16.328	1547.037	1185.816
139.556	16.228	1546.037	1184.243
140.570	16.431	1544.174	1184.135
141.585	16.483	1542.914	1183.429
142.600	16.491	1542.308	1182.911
143.614	16.606	1541.273	1182.814
144.629	16.603	1539.727	1181.507
145.643	16.650	1538.299	1180.636
146.658	16.696	1536.994	1179.845
147.673	16.588	1535.657	1177.962
148.687	16.537	1534.058	1176.280
149.702	16.522	1532.373	1174.781
150.716	16.379	1530.911	1172.565
151.731	16.365	1529.634	1171.386
152.746	16.376	1528.085	1170.173
153.760	16.453	1526.461	1169.357
154.775	16.460	1525.335	1168.438
155.789	16.519	1524.239	1167.903
156.804	16.481	1523.252	1166.777
157.819	16.597	1521.665	1166.262
158.833	16.563	1520.905	1165.341
159.848	16.689	1519.829	1165.284
160.862	16.706	1518.238	1164.076
161.877	16.779	1517.177	1163.657
162.892	16.710	1515.674	1161.933
163.906	16.529	1514.993	1160.067
164.921	16.544	1512.898	1158.457
165.935	16.456	1512.469	1157.425
166.950	16.449	1511.445	1156.493
167.964	16.495	1510.023	1155.618
168.979	16.711	1508.926	1156.151
169.994	16.637	1507.605	1154.529
171.008	16.544	1506.673	1153.080
172.023	16.545	1505.645	1152.202
173.037	16.581	1504.579	1151.523
174.052	16.702	1503.491	1151.417
175.067	16.788	1502.412	1151.068
176.081	16.735	1501.005	1149.533
177.096	16.514	1500.034	1147.188
178.110	16.488	1498.355	1145.624
179.125	16.612	1497.178	1145.461
180.140	16.657	1496.422	1145.086
181.154	16.600	1495.522	1143.910
182.169	16.674	1494.272	1143.352
183.183	16.705	1492.888	1142.404
184.198	16.794	1491.845	1142.107
185.213	16.830	1490.849	1141.486
186.227	16.867	1489.975	1140.964
187.242	16.941	1489.140	1140.721
188.256	16.954	1487.730	1139.625
189.271	16.931	1487.411	1139.128
190.286	17.018	1485.795	1138.373
191.300	16.929	1485.315	1137.307
192.315	16.751	1483.400	1134.545
193.329	16.499	1482.214	1131.853
194.344	16.539	1480.851	1130.977
195.359	16.621	1479.988	1130.769
196.373	16.670	1478.819	1130.100
197.388	16.762	1478.193	1130.134
198.402	16.846	1477.296	1129.912
199.417	16.988	1476.023	1129.783
200.432	17.092	1475.153	1129.713
201.446	17.103	1474.181	1128.938
202.461	17.118	1473.553	1128.458
203.475	17.228	1472.454	1128.248
204.490	17.351	1471.167	1127.976
205.504	17.160	1470.264	1125.919
206.519	17.135	1468.455	1124.269
207.534	16.993	1467.492	1122.492
208.548	17.042	1466.499	1121.955
209.563	17.021	1465.365	1120.850
210.577	17.129	1464.064	1120.467
211.592	16.994	1463.852	1119.317
212.607	17.056	1462.940	1118.934
213.621	17.101	1462.693	1118.938
214.636	17.253	1461.291	1118.766
215.650	17.158	1460.498	1117.439
216.665	17.154	1459.627	1116.648
217.680	17.218	1458.984	1116.473
218.694	17.303	1457.971	1116.162
219.709	17.309	1457.273	1115.562
220.723	17.403	1456.399	1115.417
221.738	17.413	1454.658	1114.049
222.753	17.294	1454.338	1112.923
223.767	17.292	1453.261	1111.992
224.782	17.237	1452.359	1110.838
225.796	17.392	1451.366	1110.998
226.811	17.325	1450.908	1110.106
227.826	17.369	1449.973	1109.584
228.840	17.476	1448.624	1109.148
229.855	17.359	1447.438	1107.383
230.869	17.386	1446.801	1106.971
231.884	17.340	1445.913	1105.892
232.899	17.318	1444.471	1104.550
233.913	17.310	1443.303	1103.507
234.928	17.291	1442.306	1102.525
235.942	17.241	1441.048	1101.146
236.957	17.322	1439.300	1100.233
237.972	17.257	1438.436	1099.053
238.986	17.232	1437.524	1098.097
240.001	17.228	1436.882	1097.485
241.015	17.286	1435.423	1096.651
242.030	17.337	1434.408	1096.107
243.045	17.439	1433.426	1095.917
244.059	17.502	1432.548	1095.552
245.074	17.458	1431.833	1094.628
246.088	17.411	1431.518	1093.989
247.103	17.519	1430.466	1093.777
248.117	17.554	1429.560	1093.215
249.132	17.663	1428.751	1093.196
250.147	17.736	1428.400	1093.302
251.161	17.855	1427.849	1093.542
252.176	17.876	1427.358	1093.208
253.190	17.950	1426.818	1093.169
254.205	18.038	1425.403	1092.553
255.220	17.986	1424.883	1091.727
256.234	17.976	1424.211	1091.051
257.249	18.098	1422.685	1090.564
258.263	18.049	1422.331	1089.881
259.278	18.048	1421.290	1088.983
260.293	18.051	1420.038	1087.943
261.307	18.192	1419.541	1088.363
262.322	18.110	1419.187	1087.476
263.336	18.183	1418.122	1087.027
264.351	18.185	1417.276	1086.293
265.366	18.298	1415.578	1085.616
266.380	18.284	1414.799	1084.833
267.395	18.269	1413.829	1083.895
268.409	18.191	1413.271	1082.882
269.424	18.228	1412.055	1082.084
270.439	18.163	1411.075	1080.829
271.453	18.170	1409.970	1079.933
272.468	18.280	1408.985	1079.777
273.482	18.057	1408.796	1078.124
274.497	17.963	1407.897	1076.754
275.512	18.046	1406.872	1076.394
276.526	18.147	1405.972	1076.245
277.541	18.169	1404.873	1075.450
278.555	18.098	1404.027	1074.259
279.570	18.103	1403.591	1073.864
280.585	18.149	1402.309	1073.074
281.599	18.249	1402.104	1073.448
282.614	18.325	1401.058	1073.031
283.628	18.194	1400.135	1071.409
284.643	18.305	1398.417	1070.693
285.657	18.229	1396.902	1068.966
286.672	18.236	1396.280	1068.438
287.687	18.363	1395.599	1068.615
288.701	18.229	1394.588	1066.912
289.716	18.246	1393.745	1066.279
290.730	18.257	1393.184	1065.824
291.745	18.265	1392.112	1064.957
292.760	18.314	1390.983	1064.302
293.774	18.266	1390.028	1063.181
294.789	18.441	1389.108	1063.471
295.803	18.485	1388.466	1063.155
296.818	18.448	1387.650	1062.206
297.833	18.314	1387.121	1060.879
298.847	18.373	1386.144	1060.403
299.862	18.355	1384.517	1058.953
300.876	18.454	1383.547	1058.728
301.891	18.431	1382.425	1057.637
302.906	18.506	1382.139	1057.787
303.920	18.591	1381.250	1057.539
304.935	18.591	1381.080	1057.312
305.949	18.697	1380.161	1057.170
306.964	18.717	1379.258	1056.507
307.979	18.743	1378.298	1055.838
308.993	18.746	1377.000	1054.767
310.008	18.649	1376.641	1053.802
311.022	18.708	1375.210	1052.978
312.037	18.765	1374.286	1052.528
313.052	18.731	1373.206	1051.396
314.066	18.766	1372.138	1050.702
315.081	18.621	1371.251	1049.040
316.095	18.611	1369.964	1047.903
317.110	18.562	1369.012	1046.783
318.125	18.592	1367.857	1045.992
319.139	18.500	1367.083	1044.744
320.154	18.497	1366.224	1043.980
321.168	18.581	1365.413	1043.775
322.183	18.673	1364.060	1043.210
323.197	18.676	1363.176	1042.458
324.212	18.654	1362.402	1041.641
325.227	18.644	1361.895	1041.103
326.241	18.706	1360.735	1040.497
327.256	18.728	1360.452	1040.321
328.270	18.707	1359.379	1039.281
329.285	18.633	1358.536	1038.100
330.300	18.690	1357.151	1037.296
331.314	18.734	1356.433	1036.917
332.329	18.734	1355.265	1035.933
333.343	18.711	1354.538	1035.147
334.358	18.700	1354.104	1034.660
335.373	18.786	1353.057	1034.285
336.387	18.950	1351.773	1034.200
337.402	18.851	1351.809	1033.542
338.416	18.907	1350.881	1033.075
339.431	18.926	1350.369	1032.705
340.446	18.965	1349.697	1032.333
341.460	19.016	1348.547	1031.669
342.475	19.168	1347.428	1031.635
343.489	19.324	1346.735	1031.944
344.504	19.250	1345.594	1030.538
345.519	19.232	1344.897	1029.802
346.533	19.229	1343.902	1028.936
347.548	19.262	1343.329	1028.603
348.562	19.308	1342.985	1028.519
349.577	19.320	1341.674	1027.498
350.592	19.247	1340.762	1026.272
351.606	19.197	1339.910	1025.235
352.621	19.206	1338.179	1023.871
353.635	19.072	1337.296	1022.310
354.650	19.115	1336.335	1021.736
355.665	19.086	1335.397	1020.759
356.679	19.095	1334.690	1020.182
357.694	19.168	1333.619	1019.708
358.708	19.232	1332.691	1019.283
359.723	19.294	1331.219	1018.433
360.738	19.353	1330.529	1018.167
361.752	19.186	1329.719	1016.472
362.767	19.232	1328.420	1015.656
363.781	19.252	1327.444	1014.941
364.796	19.389	1326.490	1014.925
365.810	19.366	1326.061	1014.373
366.825	19.599	1325.300	1015.072
367.840	19.448	1324.918	1013.800
368.854	19.644	1324.027	1014.178
369.869	19.639	1323.745	1013.846
370.883	19.672	1322.737	1013.176
371.898	19.576	1322.217	1012.125
372.913	19.596	1321.033	1011.247
373.927	19.580	1320.140	1010.382
374.942	19.527	1320.135	1009.976
375.956	19.618	1318.810	1009.408
376.971	19.717	1317.867	1009.175
377.986	19.716	1316.905	1008.342
379.000	19.660	1316.662	1007.737
380.015	19.741	1315.523	1007.248
381.029	19.741	1315.164	1006.887
382.044	19.868	1314.130	1006.747
383.059	19.830	1313.381	1005.863
384.073	19.796	1312.910	1005.215
385.088	19.838	1312.161	1004.796
386.102	19.767	1311.304	1003.639
387.117	19.870	1311.099	1003.989
388.132	19.824	1310.290	1003.017
389.146	19.690	1308.892	1001.079
390.161	19.744	1307.761	1000.440
391.175	19.864	1306.788	1000.298
392.190	19.740	1306.599	999.349
393.205	19.756	1305.827	998.761
394.219	19.707	1305.259	997.956
395.234	19.879	1303.418	997.453
396.248	19.845	1302.317	996.327
397.263	19.858	1300.805	995.156
398.278	19.904	1299.061	993.997
399.292	19.802	1297.955	992.481
400.307	19.823	1297.055	991.823
401.321	19.672	1296.416	990.381
402.336	19.710	1295.125	989.529
403.350	19.795	1294.114	989.155
404.365	19.729	1293.667	988.346
405.380	19.682	1292.644	987.210
406.394	19.855	1292.136	987.718
407.409	19.806	1291.068	986.538
408.423	19.933	1290.707	986.899
409.438	20.037	1290.219	987.030
410.453	20.097	1289.300	986.581
411.467	20.111	1289.007	986.350
412.482	20.075	1288.516	985.681
413.496	20.196	1287.500	985.504
414.511	20.230	1286.872	985.128
415.526	20.236	1285.797	984.256
416.540	20.405	1284.899	984.439
417.555	20.491	1284.285	984.365
418.569	20.399	1283.901	983.465
419.584	20.399	1283.233	982.867
420.599	20.343	1282.669	982.030
421.613	138.901	1428.273	1778.503
422.628	133.966	1449.514	1778.638
