DTS Sentinel unit serial number:	SN413079Multiplexer serial number:	ORYXHardware model number:	OX4-SRSoftware version number:	ORYX F/W v4.00 Oryx Data Collector v3.7.2.0data status	okinstallation	princeton_trtdifferential loss correction	single-endedforward channel	channel 4reverse channel	N/Adate	2019/09/14time	06:09:35forward acquisition time	60.00reverse acquisition time	0.00gamma	496.2192k internal	0.2322k external	0.2322temperature offset calibration	1.0138default loss term (dB/km)	0.3790temperature slope calibration	1.0000multiplexer offset coefficient	1.0000multiplexer slope coefficient	1.0000fibre end	0.00T internal ref (°C)	26.75T ext. ref 1 (°C)	3.41T ext. ref 2 (°C)	20.88length (m)	temperature (°C)	Stokes	anti-Stokes-747.200	-200.000	0.058	0.289
-746.185	66.143	0.167	0.172
-745.171	-57.884	-0.234	-0.103
-744.156	62.423	0.195	0.197
-743.142	-200.000	0.011	-0.233
-742.127	78.494	0.156	0.169
-741.112	-200.000	0.001	-0.264
-740.098	-65.943	-0.302	0.122
-739.083	-15.777	0.275	0.177
-738.069	800.000	-0.050	0.142
-737.054	-200.000	-0.001	0.091
-736.039	356.535	0.084	-0.168
-735.025	-106.593	0.301	0.068
-734.010	-55.085	-0.294	-0.134
-732.996	170.934	-0.056	-0.082
-731.981	800.000	-0.047	-0.149
-730.966	800.000	0.041	0.165
-729.952	474.977	-0.079	-0.180
-728.937	-80.511	-0.049	-0.017
-727.923	-200.000	-0.016	-0.126
-726.908	31.661	-0.138	0.120
-725.894	69.892	-0.065	-0.068
-724.879	196.679	-0.261	0.401
-723.864	-137.306	-0.066	-0.008
-722.850	800.000	0.102	-0.344
-721.835	-200.000	-0.016	-0.153
-720.821	800.000	0.047	-0.173
-719.806	49.042	-0.142	-0.135
-718.791	-39.951	0.229	-0.121
-717.777	-47.414	-0.180	0.088
-716.762	800.000	-0.090	-0.279
-715.748	-98.846	-0.182	0.047
-714.733	-200.000	-0.022	-0.109
-713.718	103.630	0.204	0.241
-712.704	-38.086	0.310	-0.166
-711.689	-200.000	-0.025	-0.208
-710.675	224.519	0.022	0.036
-709.660	-141.744	0.267	-0.027
-708.645	-29.371	0.321	0.186
-707.631	800.000	-0.129	0.398
-706.616	-4.689	0.101	-0.070
-705.602	74.398	0.076	0.081
-704.587	-200.000	-0.018	0.297
-703.572	59.879	-0.072	-0.072
-702.558	-91.427	0.202	0.058
-701.543	-200.000	0.046	0.323
-700.529	40.147	-0.452	0.410
-699.514	-93.898	0.369	0.102
-698.499	51.236	-0.109	-0.105
-697.485	-200.000	0.013	-0.108
-696.470	-59.495	0.332	-0.144
-695.456	-200.000	-0.017	0.116
-694.441	-200.000	0.025	-0.225
-693.426	-200.000	-0.008	0.212
-692.412	40.977	-0.151	-0.138
-691.397	-129.712	-0.349	0.049
-690.383	-54.111	0.152	0.070
-689.368	-103.427	0.274	-0.065
-688.354	800.000	0.122	0.369
-687.339	-18.504	0.053	0.033
-686.324	-120.491	-0.359	0.062
-685.310	352.840	-0.169	0.338
-684.295	11.656	-0.282	-0.218
-683.281	187.125	-0.129	0.194
-682.266	-91.037	-0.100	0.029
-681.251	-138.376	0.329	-0.037
-680.237	-9.289	0.155	-0.104
-679.222	-22.596	0.102	0.062
-678.208	110.054	-0.217	0.262
-677.193	800.000	0.086	-0.336
-676.178	-24.600	0.109	-0.065
-675.164	549.853	0.106	0.256
-674.149	121.253	-0.127	-0.159
-673.135	-44.581	0.191	0.096
-672.120	-72.044	-0.216	0.081
-671.105	277.484	0.233	0.417
-670.091	800.000	-0.031	-0.116
-669.076	800.000	-0.016	-0.057
-668.062	9.324	-0.212	-0.162
-667.047	183.982	0.099	0.148
-666.032	-134.633	0.361	0.044
-665.018	-146.823	-0.292	0.025
-664.003	-121.255	0.085	-0.014
-662.989	38.765	0.232	-0.208
-661.974	171.118	-0.118	0.170
-660.959	256.933	0.226	0.390
-659.945	-200.000	0.032	-0.260
-658.930	800.000	-0.077	0.259
-657.916	-200.000	0.002	0.054
-656.901	-200.000	0.211	-0.000
-655.886	60.419	-0.247	0.247
-654.872	68.301	0.339	0.350
-653.857	-77.055	-0.200	-0.070
-652.843	17.941	0.290	-0.232
-651.828	95.596	-0.288	-0.331
-650.814	-46.199	0.352	0.174
-649.799	-200.000	-0.054	0.242
-648.784	135.942	-0.048	-0.063
-647.770	158.530	-0.213	-0.297
-646.755	0.763	-0.074	-0.053
-645.741	88.094	-0.126	-0.141
-644.726	800.000	-0.028	-0.096
-643.711	61.057	-0.088	0.088
-642.697	800.000	0.057	0.175
-641.682	-200.000	-0.001	0.198
-640.668	-45.937	0.101	0.050
-639.653	800.000	-0.057	0.172
-638.638	320.862	0.072	0.137
-637.624	-143.243	0.511	0.049
-636.609	129.315	0.119	0.152
-635.595	18.391	-0.044	-0.035
-634.580	-59.485	-0.186	-0.080
-633.565	742.934	-0.025	-0.066
-632.551	-118.515	0.217	-0.039
-631.536	-200.000	-0.008	0.134
-630.522	-91.729	0.180	0.051
-629.507	-39.989	-0.112	-0.059
-628.492	800.000	0.053	0.228
-627.478	-82.499	0.132	-0.043
-626.463	-37.140	0.103	-0.055
-625.449	-200.000	-0.048	0.259
-624.434	-53.312	0.146	0.067
-623.419	-200.000	-0.030	-0.171
-622.405	133.856	-0.028	0.036
-621.390	212.925	-0.068	-0.108
-620.376	-28.684	-0.036	0.021
-619.361	200.792	-0.066	0.102
-618.346	-10.496	0.293	0.195
-617.332	56.856	0.117	0.115
-616.317	-34.398	-0.300	-0.165
-615.303	66.735	-0.125	-0.128
-614.288	800.000	-0.019	-0.080
-613.273	73.918	0.100	-0.105
-612.259	240.840	-0.014	-0.024
-611.244	-200.000	0.002	-0.235
-610.230	-175.892	-0.328	0.009
-609.215	493.069	0.109	-0.251
-608.201	-36.516	-0.319	0.173
-607.186	705.261	-0.151	-0.402
-606.171	-44.587	0.071	-0.036
-605.157	-15.921	0.184	-0.118
-604.142	-125.440	-0.234	0.036
-603.128	-84.904	-0.153	0.048
-602.113	78.446	-0.222	-0.239
-601.098	85.806	0.120	0.132
-600.084	260.591	0.025	0.044
-599.069	-200.000	-0.025	0.289
-598.055	800.000	-0.024	-0.075
-597.040	96.930	-0.064	0.074
-596.025	-200.000	-0.018	-0.159
-595.011	-200.000	0.073	-0.326
-593.996	-77.211	0.042	-0.015
-592.982	800.000	-0.073	0.228
-591.967	753.091	0.046	-0.124
-590.952	-200.000	-0.000	0.011
-589.938	-109.904	0.203	-0.043
-588.923	-12.032	0.157	-0.103
-587.909	78.817	-0.083	0.089
-586.894	-200.000	0.027	0.291
-585.879	449.423	-0.034	-0.074
-584.865	-122.292	-0.264	0.043
-583.850	-43.309	0.161	0.082
-582.836	-65.043	0.186	0.075
-581.821	-83.521	-0.200	0.064
-580.806	186.225	0.127	-0.190
-579.792	-49.950	-0.134	0.064
-578.777	475.462	-0.148	-0.336
-577.763	800.000	-0.079	-0.263
-576.748	535.069	-0.121	-0.287
-575.733	800.000	-0.069	0.272
-574.719	-88.489	0.272	0.082
-573.704	-48.707	-0.251	0.121
-572.690	-200.000	0.067	0.317
-571.675	-12.704	0.062	-0.040
-570.661	-165.608	-0.075	0.003
-569.646	-197.501	0.494	-0.003
-568.631	-200.000	0.002	-0.083
-567.617	-116.226	-0.376	-0.070
-566.602	468.688	0.008	-0.019
-565.588	-84.347	-0.178	-0.057
-564.573	324.936	0.093	-0.178
-563.558	-108.813	0.390	-0.084
-562.544	800.000	0.088	0.365
-561.529	419.231	-0.110	0.237
-560.515	-200.000	-0.005	0.054
-559.500	405.476	0.090	-0.190
-558.485	-200.000	-0.007	-0.102
-557.471	-25.322	-0.160	0.095
-556.456	116.035	0.228	0.280
-555.442	-200.000	0.014	-0.256
-554.427	-155.922	-0.191	-0.012
-553.412	-108.103	-0.130	-0.028
-552.398	-200.000	0.019	0.280
-551.383	-200.000	0.009	-0.052
-550.369	442.815	0.162	0.356
-549.354	800.000	0.048	-0.211
-548.339	-200.000	-0.031	0.322
-547.325	-71.677	-0.139	-0.052
-546.310	-15.603	0.205	0.131
-545.296	406.942	-0.069	0.147
-544.281	-191.517	0.251	0.003
-543.266	-96.808	0.381	-0.100
-542.252	-98.306	-0.199	-0.051
-541.237	-200.000	-0.016	0.263
-540.223	-3.029	-0.306	0.214
-539.208	-39.452	-0.020	0.011
-538.193	36.865	0.269	-0.238
-537.179	372.634	-0.144	-0.294
-536.164	-200.000	0.044	-0.219
-535.150	800.000	0.054	-0.183
-534.135	7.726	-0.206	-0.154
-533.121	-124.637	0.041	0.006
-532.106	800.000	-0.011	-0.031
-531.091	49.732	0.079	-0.074
-530.077	-165.142	-0.294	0.013
-529.062	-79.667	-0.269	0.091
-528.048	154.968	0.032	0.044
-527.033	332.886	-0.056	-0.109
-526.018	39.150	0.142	-0.127
-525.004	-148.426	-0.460	-0.038
-523.989	-101.826	-0.164	-0.040
-522.975	-155.419	0.252	0.016
-521.960	-134.215	-0.220	0.027
-520.945	19.231	0.420	-0.338
-519.931	93.643	0.029	0.033
-518.916	118.504	-0.096	0.118
-517.902	233.922	0.059	0.097
-516.887	11.934	0.279	0.215
-515.872	-43.302	-0.343	-0.174
-514.858	-116.508	0.247	-0.046
-513.843	99.591	-0.057	0.066
-512.829	52.420	-0.384	0.367
-511.814	-56.107	-0.371	0.165
-510.799	310.586	-0.133	-0.250
-509.785	86.643	-0.113	-0.124
-508.770	-200.000	-0.022	0.204
-507.756	-79.630	0.212	-0.071
-506.741	800.000	0.030	-0.126
-505.726	-27.911	-0.094	-0.055
-504.712	-200.000	-0.011	-0.450
-503.697	224.445	-0.154	0.249
-502.683	800.000	0.069	0.242
-501.668	-74.739	-0.161	0.058
-500.653	263.133	-0.017	0.030
-499.639	622.754	-0.048	-0.120
-498.624	61.194	-0.144	-0.143
-497.610	-159.555	0.048	-0.003
-496.595	-127.023	-0.219	0.032
-495.581	-20.041	-0.363	-0.224
-494.566	-94.663	-0.114	-0.031
-493.551	-68.066	-0.216	0.084
-492.537	-48.273	-0.149	0.072
-491.522	-13.710	-0.385	-0.249
-490.508	-200.000	0.010	-0.412
-489.493	-16.133	-0.066	0.042
-488.478	-93.814	0.109	-0.030
-487.464	719.641	0.125	-0.332
-486.449	119.758	-0.176	-0.219
-485.435	394.335	-0.063	-0.132
-484.420	-59.892	0.195	-0.083
-483.405	-154.492	0.210	-0.014
-482.391	-5.522	0.102	0.070
-481.376	-106.064	-0.114	0.026
-480.362	-151.192	0.171	0.013
-479.347	14.964	-0.183	0.143
-478.332	-177.490	0.214	0.005
-477.318	-93.004	-0.077	0.021
-476.303	-200.000	0.030	0.231
-475.289	31.314	0.089	-0.077
-474.274	122.759	0.196	0.245
-473.259	324.272	0.144	0.275
-472.245	-111.601	-0.347	-0.071
-471.230	0.913	-0.324	-0.232
-470.216	619.310	-0.034	0.085
-469.201	-60.236	0.147	0.063
-468.186	790.015	0.085	-0.235
-467.172	-33.486	-0.094	-0.052
-466.157	19.559	0.081	-0.065
-465.143	457.113	-0.200	0.443
-464.128	-77.819	0.337	-0.116
-463.113	-200.000	0.013	0.208
-462.099	-200.000	-0.002	-0.127
-461.084	-200.000	0.017	-0.199
-460.070	800.000	0.098	0.352
-459.055	86.986	-0.119	-0.131
-458.040	413.842	0.036	0.076
-457.026	-53.525	0.211	0.097
-456.011	1.952	0.329	0.237
-454.997	59.767	0.247	0.243
-453.982	11.889	-0.150	0.115
-452.968	-200.000	0.018	-0.152
-451.953	-84.908	0.310	-0.097
-450.938	52.962	-0.085	0.082
-449.924	800.000	0.062	0.194
-448.909	22.003	-0.037	-0.030
-447.895	701.341	-0.116	0.304
-446.880	-200.000	0.025	-0.192
-445.865	162.155	-0.120	0.168
-444.851	-200.000	-0.002	-0.275
-443.836	-33.421	-0.421	-0.232
-442.822	-58.337	-0.312	-0.135
-441.807	583.022	0.026	-0.064
-440.792	-105.583	0.158	-0.036
-439.778	-128.734	-0.290	0.041
-438.763	-120.135	0.482	0.082
-437.749	-200.000	-0.010	-0.124
-436.734	-50.248	-0.241	0.114
-435.719	255.592	0.042	-0.071
-434.705	17.497	0.273	-0.216
-433.690	-200.000	0.024	0.216
-432.676	208.973	-0.033	-0.052
-431.661	132.619	0.235	-0.303
-430.646	-200.000	0.026	0.186
-429.632	95.675	0.193	-0.219
-428.617	-15.808	-0.047	0.030
-427.603	232.461	0.071	0.116
-426.588	-96.119	-0.416	-0.110
-425.573	-40.194	-0.095	0.049
-424.559	62.383	0.174	0.174
-423.544	-200.000	-0.001	-0.315
-422.530	-51.736	0.159	-0.074
-421.515	31.145	-0.083	0.071
-420.500	50.594	0.122	0.116
-419.486	-64.078	-0.082	0.034
-418.471	75.341	-0.213	-0.224
-417.457	-142.505	-0.261	-0.026
-416.442	13.862	0.143	0.111
-415.428	800.000	-0.081	0.330
-414.413	-200.000	0.001	0.288
-413.398	-107.007	0.127	0.028
-412.384	-141.567	-0.097	-0.010
-411.369	-59.458	-0.379	0.162
-410.355	211.890	-0.139	-0.219
-409.340	211.151	-0.109	0.171
-408.325	535.361	-0.069	-0.164
-407.311	132.403	-0.206	-0.265
-406.296	800.000	0.041	-0.133
-405.282	47.504	-0.069	-0.064
-404.267	-200.000	-0.048	-0.329
-403.252	318.523	0.076	-0.143
-402.238	791.352	-0.109	0.299
-401.223	800.000	-0.102	0.323
-400.209	258.089	-0.040	0.068
-399.194	800.000	-0.020	0.054
-398.179	715.755	0.081	0.215
-397.165	562.480	-0.086	0.208
-396.150	-29.169	0.323	0.184
-395.136	68.203	0.114	0.117
-394.121	-200.000	-0.039	-0.417
-393.106	-200.000	-0.010	0.070
-392.092	-43.703	-0.145	-0.073
-391.077	-31.925	0.225	-0.125
-390.063	-44.998	-0.141	0.070
-389.048	800.000	-0.052	-0.223
-388.033	245.992	0.100	-0.168
-387.019	432.740	0.180	0.388
-386.004	158.351	-0.372	0.515
-384.990	428.994	0.097	0.209
-383.975	-111.105	0.259	0.053
-382.960	-52.601	-0.180	-0.083
-381.946	-38.802	-0.465	-0.244
-380.931	308.972	0.132	-0.246
-379.917	-200.000	-0.005	-0.321
-378.902	553.916	0.047	-0.112
-377.888	304.164	0.139	-0.256
-376.873	-121.318	-0.242	0.040
-375.858	-26.766	0.037	-0.022
-374.844	-52.133	0.041	0.019
-373.829	-200.000	-0.017	0.147
-372.815	104.691	-0.115	-0.135
-371.800	-200.000	0.030	-0.228
-370.785	-95.429	-0.127	0.034
-369.771	34.367	-0.147	-0.127
-368.756	-185.852	0.143	0.002
-367.742	317.829	0.131	0.247
-366.727	-137.892	-0.108	-0.012
-365.712	-113.000	-0.146	-0.029
-364.698	800.000	-0.025	-0.097
-363.683	411.214	0.128	-0.271
-362.669	31.633	-0.188	0.161
-361.654	512.465	-0.073	0.169
-360.639	-20.322	-0.090	0.055
-359.625	-44.810	-0.193	0.096
-358.610	-200.000	0.008	-0.216
-357.596	-200.000	0.001	0.365
-356.581	-96.347	-0.217	0.057
-355.566	-36.858	0.231	0.123
-354.552	-200.000	0.009	-0.136
-353.537	209.891	0.195	0.305
-352.523	-86.152	0.276	0.085
-351.508	-90.461	-0.083	0.024
-350.493	800.000	-0.035	0.125
-349.479	-151.626	0.204	0.015
-348.464	26.022	-0.410	-0.341
-347.450	-71.132	0.133	0.050
-346.435	182.463	-0.092	-0.135
-345.420	83.193	0.318	-0.344
-344.406	-134.170	0.106	-0.013
-343.391	-200.000	-0.010	0.166
-342.377	243.014	-0.055	0.091
-341.362	-200.000	-0.128	-0.655
-340.348	277.797	-0.095	-0.169
-339.333	-18.718	0.004	-0.003
-338.318	-13.856	0.157	0.101
-337.304	60.675	0.166	0.164
-336.289	-200.000	-0.009	0.126
-335.275	-200.000	0.056	0.290
-334.260	95.357	0.141	-0.159
-333.245	-34.553	-0.266	0.145
-332.231	-167.986	0.294	0.011
-331.216	800.000	-0.022	0.074
-330.202	64.800	-0.098	-0.099
-329.187	-78.478	0.283	0.097
-328.172	-178.314	-0.228	-0.005
-327.158	-26.692	0.295	-0.171
-326.143	-147.898	0.066	-0.005
-325.129	-200.000	0.073	0.582
-324.114	800.000	0.043	0.153
-323.099	104.334	0.055	0.064
-322.085	13.797	0.138	0.107
-321.070	48.504	-0.195	-0.181
-320.056	-200.000	0.048	-0.307
-319.041	439.205	-0.045	0.098
-318.026	800.000	0.057	0.193
-317.012	-200.000	0.053	0.233
-315.997	41.975	0.213	-0.192
-314.983	-139.044	0.400	0.043
-313.968	296.689	0.081	0.148
-312.953	47.489	-0.110	-0.102
-311.939	-38.162	-0.132	0.070
-310.924	-150.426	0.309	0.024
-309.910	800.000	0.054	0.179
-308.895	100.064	-0.263	-0.303
-307.880	97.444	0.194	-0.222
-306.866	-52.328	-0.192	-0.088
-305.851	466.489	-0.063	0.139
-304.837	138.159	0.123	0.160
-303.822	-200.000	0.007	0.406
-302.807	15.897	-0.038	0.030
-301.793	125.583	0.141	0.177
-300.778	800.000	-0.119	-0.444
-299.764	-200.000	-0.009	0.039
-298.749	-35.738	0.184	-0.099
-297.735	167.477	-0.269	0.380
-296.720	-24.451	-0.107	0.063
-295.705	449.417	-0.111	0.244
-294.691	10.903	-0.033	0.025
-293.676	77.859	-0.103	-0.108
-292.662	482.253	-0.032	-0.072
-291.647	32.857	0.102	0.088
-290.632	-22.563	0.183	0.110
-289.618	2.177	-0.055	0.040
-288.603	800.000	-0.062	0.225
-287.589	-180.584	-0.466	0.010
-286.574	65.854	0.039	-0.039
-285.559	-200.000	0.007	-0.054
-284.545	-109.492	0.150	0.031
-283.530	-90.801	0.155	-0.044
-282.516	800.000	0.037	-0.113
-281.501	-101.492	0.344	-0.083
-280.486	37.452	-0.109	-0.096
-279.472	-125.102	-0.326	-0.050
-278.457	-86.953	-0.376	0.114
-277.443	632.948	0.073	-0.184
-276.428	156.971	0.175	-0.240
-275.413	-200.000	-0.034	-0.347
-274.399	-62.859	-0.096	0.039
-273.384	132.461	-0.118	0.151
-272.370	-200.000	-0.033	-0.303
-271.355	351.027	0.085	0.167
-270.340	-200.000	-0.059	-0.296
-269.326	-161.505	0.172	0.009
-268.311	-200.000	0.001	-0.265
-267.297	-200.000	0.035	0.216
-266.282	-200.000	-0.013	-0.123
-265.267	523.362	0.109	0.254
-264.253	-87.646	-0.336	-0.100
-263.238	-200.000	-0.073	-0.361
-262.224	18.887	0.276	0.219
-261.209	75.055	-0.025	0.026
-260.195	-41.962	0.479	-0.243
-259.180	-200.000	-0.038	0.211
-258.165	-101.445	0.243	0.059
-257.151	-55.835	0.137	0.061
-256.136	731.845	0.118	-0.314
-255.122	-86.868	-0.268	-0.081
-254.107	-27.840	0.325	0.187
-253.092	62.122	0.156	0.154
-252.078	10.623	0.243	0.184
-251.063	-68.733	0.088	0.034
-250.049	293.393	0.100	0.182
-249.034	-200.000	0.021	0.165
-248.019	-17.062	-0.279	-0.175
-247.005	-200.000	0.047	-0.263
-245.990	-141.236	0.275	0.028
-244.976	-140.426	0.306	0.032
-243.961	319.805	-0.035	-0.066
-242.946	324.208	-0.078	0.147
-241.932	800.000	-0.048	0.181
-240.917	117.078	0.242	0.295
-239.903	-90.688	0.223	0.064
-238.888	21.365	0.154	0.124
-237.873	-52.096	-0.121	-0.056
-236.859	-68.285	0.246	-0.095
-235.844	800.000	-0.093	-0.332
-234.830	-73.835	0.139	-0.050
-233.815	800.000	0.090	0.283
-232.800	-3.603	0.149	0.103
-231.786	151.115	-0.065	-0.088
-230.771	-200.000	0.055	-0.280
-229.757	60.522	-0.073	0.072
-228.742	-200.000	-0.013	0.100
-227.727	-200.000	0.004	-0.035
-226.713	800.000	0.061	-0.194
-225.698	71.545	-0.134	0.137
-224.684	-200.000	-0.016	-0.252
-223.669	-76.867	0.060	0.021
-222.655	-60.189	-0.237	-0.100
-221.640	440.478	-0.106	0.229
-220.625	-99.928	0.366	0.090
-219.611	-200.000	-0.003	0.241
-218.596	-113.599	0.039	-0.008
-217.582	-72.854	0.237	-0.086
-216.567	2.470	0.144	-0.103
-215.552	32.103	-0.075	0.064
-214.538	546.175	0.077	0.181
-213.523	-3.039	0.081	0.056
-212.509	-49.878	0.218	-0.102
-211.494	-0.814	-0.175	0.123
-210.479	-122.077	-0.180	-0.029
-209.465	-200.000	0.013	0.258
-208.450	20.499	0.199	-0.159
-207.436	-84.550	-0.379	0.118
-206.421	188.745	0.184	-0.273
-205.406	-69.059	0.407	-0.155
-204.392	800.000	-0.026	0.102
-203.377	341.343	-0.056	0.108
-202.363	-100.335	0.148	0.036
-201.348	1.578	-0.066	-0.047
-200.333	455.943	0.035	0.076
-199.319	-111.863	-0.269	0.054
-198.304	56.731	-0.053	0.051
-197.290	-200.000	-0.017	-0.083
-196.275	224.073	-0.094	0.150
-195.260	121.978	0.276	-0.340
-194.246	-147.840	-0.228	0.019
-193.231	12.034	0.255	-0.194
-192.217	-2.307	-0.300	-0.208
-191.202	677.547	0.047	-0.122
-190.187	-54.146	0.344	-0.155
-189.173	-200.000	0.002	-0.204
-188.158	-53.518	-0.171	0.077
-187.144	548.229	-0.114	-0.270
-186.129	505.305	-0.059	-0.135
-185.114	-143.575	0.159	-0.015
-184.100	-61.402	-0.057	-0.024
-183.085	-200.000	0.033	0.192
-182.071	279.809	0.008	-0.014
-181.056	201.029	0.028	0.043
-180.042	229.958	-0.071	-0.114
-179.027	-200.000	-0.021	-0.165
-178.012	800.000	0.042	0.140
-176.998	-38.166	0.295	-0.154
-175.983	227.847	0.043	-0.070
-174.969	253.873	0.152	0.256
-173.954	702.032	0.105	0.274
-172.939	355.241	-0.087	0.170
-171.925	125.188	-0.152	-0.189
-170.910	800.000	0.084	-0.266
-169.896	-77.984	0.040	-0.014
-168.881	37.705	0.172	0.151
-167.866	227.441	-0.208	-0.335
-166.852	-200.000	0.033	0.177
-165.837	-170.625	-0.293	-0.010
-164.823	328.607	0.037	0.070
-163.808	-200.000	0.082	0.379
-162.793	800.000	-0.083	0.283
-161.779	229.447	0.050	-0.081
-160.764	-111.320	-0.281	-0.057
-159.750	36.706	0.011	0.009
-158.735	-35.683	-0.150	0.080
-157.720	-77.128	0.338	-0.116
-156.706	-87.458	-0.242	0.072
-155.691	74.513	-0.213	0.221
-154.677	-50.023	0.163	-0.076
-153.662	-153.553	-0.178	-0.012
-152.647	-200.000	-0.057	0.314
-151.633	800.000	0.104	-0.310
-150.618	800.000	0.098	-0.386
-149.604	800.000	0.049	0.204
-148.589	454.072	-0.126	0.275
-147.574	-38.983	0.046	-0.024
-146.560	-200.000	-0.016	-0.084
-145.545	299.720	-0.112	-0.203
-144.531	-137.114	-0.172	-0.019
-143.516	23.626	-0.295	0.240
-142.502	13.216	-0.101	0.077
-141.487	-51.206	0.137	-0.063
-140.472	-76.812	0.296	0.102
-139.458	232.886	-0.205	-0.333
-138.443	-200.000	-0.011	0.139
-137.429	800.000	-0.039	0.156
-136.414	-200.000	0.038	0.200
-135.399	51.859	0.172	-0.161
-134.385	-200.000	0.007	0.084
-133.370	604.600	0.054	-0.133
-132.356	-112.181	-0.320	0.063
-131.341	464.945	0.114	0.253
-130.326	800.000	0.099	-0.376
-129.312	800.000	-0.054	-0.155
-128.297	74.863	0.079	-0.082
-127.283	103.914	-0.064	0.074
-126.268	238.638	0.173	-0.284
-125.253	-56.208	-0.148	0.065
-124.239	-200.000	-0.017	0.169
-123.224	-156.051	0.320	-0.020
-122.210	-163.528	0.149	0.007
-121.195	27.546	0.281	-0.233
-120.180	-16.488	0.059	-0.037
-119.166	-31.937	-0.173	0.096
-118.151	151.923	0.215	-0.289
-117.137	-109.369	-0.054	-0.011
-116.122	54.427	0.107	0.102
-115.107	-124.388	-0.250	-0.039
-114.093	-3.542	0.246	-0.169
-113.078	-171.427	-0.089	-0.003
-112.064	141.801	-0.130	0.170
-111.049	34.850	-0.116	0.100
-110.034	28.468	-0.215	0.179
-109.020	-107.813	-0.114	0.024
-108.005	18.465	-0.102	-0.080
-106.991	-129.560	0.464	-0.063
-105.976	-34.666	0.242	-0.131
-104.962	25.615	0.271	0.223
-103.947	9.991	-0.039	0.029
-102.932	-135.179	-0.085	0.010
-101.918	-200.000	-0.043	0.197
-100.903	-50.804	-0.235	-0.109
-99.889	261.930	-0.087	0.148
-98.874	-79.901	0.124	0.041
-97.859	-115.244	-0.173	-0.032
-96.845	-112.641	0.233	-0.046
-95.830	-163.060	-0.081	-0.004
-94.816	-200.000	0.018	0.303
-93.801	-99.136	-0.280	-0.070
-92.786	-26.100	0.526	0.305
-91.772	-127.338	0.295	0.042
-90.757	268.313	-0.062	-0.107
-89.743	-113.609	-0.181	0.035
-88.728	-44.273	-0.361	-0.178
-87.713	-99.879	0.349	0.086
-86.699	-162.473	0.223	0.011
-85.684	611.429	0.117	-0.288
-84.670	-200.000	-0.007	0.212
-83.655	-24.995	-0.074	-0.043
-82.640	110.734	0.205	-0.243
-81.626	-85.602	-0.269	0.082
-80.611	-90.942	0.046	-0.013
-79.597	-72.349	0.196	-0.072
-78.582	-16.221	-0.076	-0.048
-77.567	18.378	-0.036	-0.028
-76.553	-128.230	0.455	0.064
-75.538	-15.594	-0.342	-0.215
-74.524	800.000	0.114	0.455
-73.509	-200.000	-0.012	0.141
-72.494	-70.513	0.130	-0.048
-71.480	-22.407	0.214	-0.127
-70.465	-200.000	0.085	0.384
-69.451	-100.279	-0.357	0.087
-68.436	-168.951	0.240	-0.009
-67.422	-200.000	0.056	0.458
-66.407	-90.196	0.135	0.039
-65.392	-89.601	-0.138	-0.040
-64.378	15.641	-0.091	0.070
-63.363	303.386	-0.044	0.080
-62.349	-200.000	0.019	0.266
-61.334	1.102	-1.035	-0.731
-60.319	23.204	0.834	0.674
-59.305	475.286	-0.441	-0.979
-58.290	193.159	0.894	1.329
-57.276	800.000	0.399	1.538
-56.261	-200.000	116.518	650.867
-55.246	503.944	1539.199	3502.384
-54.232	171.445	2722.732	3842.874
-53.217	96.575	2337.270	2631.394
-52.203	33.303	2081.359	1776.076
-51.188	28.491	1995.858	1659.620
-50.173	27.155	1979.097	1633.614
-49.159	45.102	2038.875	1847.247
-48.144	43.851	2054.088	1849.543
-47.130	29.027	2012.185	1677.817
-46.115	26.824	2001.604	1648.925
-45.100	26.772	1998.725	1646.012
-44.086	26.749	1996.544	1643.949
-43.071	26.637	1994.117	1640.869
-42.057	26.534	1992.061	1638.181
-41.042	26.601	1990.493	1637.428
-40.027	26.682	1987.799	1635.884
-39.013	26.727	1985.914	1634.666
-37.998	26.660	1984.438	1632.788
-36.984	26.645	1982.867	1631.292
-35.969	26.581	1981.060	1629.164
-34.954	26.657	1978.700	1627.843
-33.940	26.694	1977.313	1626.972
-32.925	26.731	1975.900	1626.076
-31.911	26.831	1973.644	1625.048
-30.896	26.772	1972.214	1623.276
-29.881	26.746	1971.093	1622.060
-28.867	26.761	1969.715	1620.997
-27.852	26.764	1967.852	1619.424
-26.838	26.789	1965.939	1618.007
-25.823	26.799	1964.298	1616.687
-24.809	26.863	1961.979	1615.282
-23.794	26.740	1960.057	1612.544
-22.779	26.713	1958.610	1611.044
-21.765	26.757	1957.206	1610.221
-20.750	26.830	1955.316	1609.243
-19.736	26.755	1953.850	1607.312
-18.721	26.793	1952.230	1606.249
-17.706	26.821	1950.647	1605.135
-16.692	26.810	1949.030	1603.642
-15.677	26.810	1947.732	1602.514
-14.663	26.902	1945.380	1601.321
-13.648	26.742	1944.757	1599.336
-12.633	26.722	1943.419	1597.992
-11.619	26.755	1942.316	1597.311
-10.604	26.810	1940.169	1595.969
-9.590	26.740	1939.045	1594.369
-8.575	26.729	1938.154	1593.473
-7.560	26.729	1936.936	1592.408
-6.546	26.805	1935.135	1591.530
-5.531	26.763	1934.045	1590.201
-4.517	26.770	1933.085	1589.415
-3.502	26.814	1931.142	1588.140
-2.487	26.682	1930.686	1586.544
-1.473	26.787	1929.306	1586.266
-0.458	26.826	1924.371	1582.490
0.556	27.536	1904.700	1553.424
1.571	23.182	1885.493	1500.786
2.586	19.117	1909.183	1484.533
3.600	18.053	1944.794	1502.734
4.615	17.519	1937.201	1492.062
5.629	13.387	1835.847	1379.491
6.644	6.666	1723.070	1241.884
7.659	3.579	1691.082	1194.845
8.673	3.424	1687.664	1191.128
9.688	3.406	1686.471	1190.039
10.702	3.401	1684.671	1188.631
11.717	3.419	1681.717	1186.579
12.731	3.776	1680.562	1188.401
13.746	8.406	1691.190	1231.570
14.761	15.889	1707.565	1301.433
15.775	19.911	1714.812	1338.001
16.790	20.196	1714.397	1339.760
17.804	19.288	1711.447	1330.328
18.819	18.335	1708.161	1320.316
19.834	17.724	1705.494	1313.431
20.848	17.474	1704.088	1310.308
21.863	17.370	1702.553	1308.210
22.877	17.084	1701.183	1304.844
23.892	16.902	1699.854	1302.315
24.907	16.902	1698.620	1301.249
25.921	16.881	1697.707	1300.278
26.936	16.911	1696.681	1299.602
27.950	16.921	1695.688	1298.807
28.965	16.866	1695.514	1298.137
29.980	16.969	1694.317	1297.893
30.994	17.067	1693.859	1298.174
32.009	17.161	1692.251	1297.544
33.023	17.135	1691.779	1296.872
34.038	17.208	1690.704	1296.489
35.053	17.187	1689.675	1295.427
36.067	17.194	1687.750	1293.890
37.082	16.994	1687.050	1291.718
38.096	17.090	1685.708	1291.306
39.111	17.009	1685.357	1290.305
40.126	17.109	1684.761	1290.491
41.140	17.108	1683.851	1289.678
42.155	16.951	1681.896	1286.869
43.169	16.737	1680.258	1283.882
44.184	16.718	1679.205	1282.824
45.199	16.707	1678.316	1281.947
46.213	16.729	1676.962	1280.965
47.228	16.775	1675.430	1280.028
48.242	16.808	1674.576	1279.513
49.257	17.082	1673.427	1280.590
50.271	16.991	1672.242	1278.882
51.286	16.908	1671.411	1277.510
52.301	16.948	1669.988	1276.607
53.315	17.011	1668.129	1275.549
54.330	16.912	1667.151	1273.946
55.344	16.834	1665.338	1271.859
56.359	16.810	1663.687	1270.305
57.374	16.782	1662.220	1268.861
58.388	16.850	1661.383	1268.622
59.403	16.715	1660.417	1266.763
60.417	16.653	1658.767	1264.932
61.432	16.728	1657.495	1264.408
62.447	16.608	1656.661	1262.765
63.461	16.611	1655.369	1261.685
64.476	16.625	1653.947	1260.596
65.490	16.519	1653.054	1259.014
66.505	16.488	1651.622	1257.587
67.520	16.555	1650.796	1257.343
68.534	16.571	1649.753	1256.554
69.549	16.626	1648.243	1255.699
70.563	16.699	1647.162	1255.309
71.578	16.587	1646.534	1253.890
72.593	16.533	1645.084	1252.271
73.607	16.494	1643.863	1250.946
74.622	16.524	1642.712	1250.177
75.636	16.449	1641.911	1248.903
76.651	16.470	1641.063	1248.302
77.666	16.511	1640.488	1248.060
78.680	16.463	1639.598	1246.920
79.695	16.589	1638.405	1246.832
80.709	16.570	1637.702	1246.042
81.724	16.570	1636.863	1245.292
82.739	16.711	1636.311	1245.802
83.753	16.735	1635.106	1244.955
84.768	16.811	1634.608	1245.023
85.782	16.887	1634.168	1245.135
86.797	17.031	1633.004	1245.194
87.812	17.092	1632.171	1244.895
88.826	17.035	1630.533	1243.117
89.841	16.920	1630.008	1241.762
90.855	16.984	1628.612	1241.060
91.870	16.955	1627.955	1240.241
92.884	17.101	1626.794	1240.307
93.899	17.020	1625.693	1238.772
94.914	17.076	1624.404	1238.087
95.928	17.150	1623.549	1237.865
96.943	17.240	1621.654	1236.964
97.957	17.136	1620.491	1235.213
98.972	17.066	1618.950	1233.421
99.987	17.082	1617.376	1232.228
101.001	17.045	1615.599	1230.497
102.016	17.066	1614.582	1229.767
103.030	17.036	1612.517	1227.870
104.045	17.057	1612.270	1227.722
105.060	17.100	1610.201	1226.348
106.074	17.006	1609.215	1224.812
107.089	16.926	1607.046	1222.471
108.103	16.664	1605.932	1219.629
109.118	16.574	1604.078	1217.470
110.133	16.557	1602.603	1216.117
111.147	16.578	1601.188	1215.091
112.162	16.528	1600.269	1213.924
113.176	16.585	1598.585	1212.951
114.191	16.631	1597.679	1212.481
115.206	16.711	1596.237	1211.855
116.220	16.731	1594.711	1210.729
117.235	16.663	1593.912	1209.529
118.249	16.736	1591.829	1208.366
119.264	16.762	1590.586	1207.502
120.279	16.681	1589.532	1206.015
121.293	16.608	1587.983	1204.213
122.308	16.595	1586.000	1202.513
123.322	16.542	1584.393	1200.812
124.337	16.495	1583.019	1199.328
125.352	16.413	1581.925	1197.814
126.366	16.446	1580.759	1197.056
127.381	16.410	1579.873	1196.029
128.395	16.530	1578.703	1195.880
129.410	16.455	1577.111	1194.042
130.424	16.508	1575.657	1193.212
131.439	16.603	1574.557	1192.944
132.454	16.640	1573.604	1192.374
133.468	16.699	1572.124	1191.559
134.483	16.629	1570.726	1189.903
135.497	16.709	1569.464	1189.408
136.512	16.735	1568.170	1188.499
137.527	16.714	1566.922	1187.307
138.541	16.741	1565.683	1186.453
139.556	16.819	1563.823	1185.478
140.570	16.758	1562.692	1184.093
141.585	16.887	1561.644	1184.096
142.600	16.931	1560.234	1183.229
143.614	17.122	1559.185	1183.661
144.629	17.069	1557.838	1182.159
145.643	17.113	1556.872	1181.633
146.658	17.224	1555.032	1180.903
147.673	17.133	1553.594	1179.072
148.687	17.173	1551.779	1177.869
149.702	16.939	1550.794	1175.393
150.716	16.888	1549.025	1173.594
151.731	16.831	1548.067	1172.376
152.746	16.930	1546.517	1171.779
153.760	16.910	1544.871	1170.294
154.775	16.982	1543.746	1169.830
155.789	16.971	1542.589	1168.776
156.804	17.094	1541.813	1168.935
157.819	17.159	1539.979	1167.882
158.833	17.151	1539.134	1167.084
159.848	17.189	1538.384	1166.676
160.862	17.160	1537.381	1165.614
161.877	17.302	1536.362	1165.711
162.892	17.127	1534.811	1163.231
163.906	17.002	1533.384	1161.188
164.921	16.987	1532.122	1160.033
165.935	16.913	1530.703	1158.345
166.950	17.005	1529.822	1158.207
167.964	17.030	1528.906	1157.578
168.979	17.038	1527.656	1156.583
169.994	17.106	1526.054	1155.731
171.008	17.035	1525.718	1154.892
172.023	17.018	1524.616	1153.840
173.037	17.087	1523.369	1153.265
174.052	17.251	1522.070	1153.294
175.067	17.162	1521.531	1152.178
176.081	17.229	1519.317	1150.854
177.096	17.058	1518.376	1148.883
178.110	17.059	1516.935	1147.694
179.125	17.057	1515.839	1146.755
180.140	17.053	1514.630	1145.706
181.154	17.123	1513.791	1145.446
182.169	17.133	1512.889	1144.728
183.183	17.277	1511.463	1144.517
184.198	17.293	1510.526	1143.815
185.213	17.382	1509.516	1143.548
186.227	17.398	1508.255	1142.596
187.242	17.417	1507.439	1142.005
188.256	17.445	1506.344	1141.267
189.271	17.525	1505.384	1140.969
190.286	17.570	1504.162	1140.250
191.300	17.393	1503.572	1138.513
192.315	17.183	1501.921	1135.758
193.329	16.948	1500.453	1132.980
194.344	16.964	1499.168	1132.014
195.359	17.108	1498.065	1132.045
196.373	17.188	1497.164	1131.794
197.388	17.218	1496.442	1131.349
198.402	17.281	1495.670	1131.086
199.417	17.478	1494.170	1131.156
200.432	17.493	1493.549	1130.687
201.446	17.536	1493.139	1130.563
202.461	17.663	1491.741	1130.244
203.475	17.735	1490.374	1129.588
204.490	17.700	1489.780	1128.805
205.504	17.704	1488.321	1127.630
206.519	17.590	1487.016	1125.784
207.534	17.552	1485.726	1124.455
208.548	17.530	1484.428	1123.230
209.563	17.491	1483.292	1122.018
210.577	17.548	1482.929	1122.019
211.592	17.467	1481.743	1120.488
212.607	17.500	1481.730	1120.594
213.621	17.697	1480.749	1121.049
214.636	17.789	1479.818	1120.851
215.650	17.703	1478.911	1119.499
216.665	17.706	1477.990	1118.723
217.680	17.780	1477.349	1118.622
218.694	17.837	1476.532	1118.278
219.709	17.959	1475.191	1117.962
220.723	17.884	1474.589	1116.921
221.738	17.852	1473.543	1115.820
222.753	17.922	1472.126	1115.105
223.767	17.861	1471.301	1113.983
224.782	17.811	1470.425	1112.894
225.796	17.866	1470.065	1112.882
226.811	17.900	1469.364	1112.474
227.826	18.026	1468.761	1112.737
228.840	17.958	1467.385	1111.154
229.855	17.799	1466.345	1109.237
230.869	17.853	1465.273	1108.676
231.884	17.840	1464.163	1107.655
232.899	17.789	1463.193	1106.493
233.913	17.731	1461.796	1104.963
234.928	17.802	1460.221	1104.134
235.942	17.701	1458.902	1102.388
236.957	17.735	1457.952	1101.793
237.972	17.709	1456.774	1100.634
238.986	17.699	1455.711	1099.671
240.001	17.730	1454.764	1099.059
241.015	17.766	1453.540	1098.270
242.030	17.867	1452.577	1098.095
243.045	17.872	1451.631	1097.313
244.059	17.891	1451.235	1097.035
245.074	17.880	1450.200	1096.087
246.088	17.966	1449.354	1095.899
247.103	18.000	1448.762	1095.577
248.117	17.982	1448.223	1094.955
249.132	18.130	1446.962	1094.853
250.147	18.181	1447.157	1095.228
251.161	18.410	1445.695	1095.494
252.176	18.478	1445.739	1095.865
253.190	18.502	1444.644	1095.088
254.205	18.631	1443.915	1095.261
255.220	18.578	1443.274	1094.344
256.234	18.664	1442.452	1094.168
257.249	18.588	1441.803	1093.095
258.263	18.657	1440.690	1092.597
259.278	18.715	1439.349	1091.854
260.293	18.658	1438.392	1090.665
261.307	18.620	1437.739	1089.834
262.322	18.637	1437.380	1089.573
263.336	18.755	1436.493	1089.552
264.351	18.729	1435.009	1088.167
265.366	18.801	1434.293	1087.981
266.380	18.808	1433.771	1087.533
267.395	18.719	1432.956	1086.257
268.409	18.824	1431.474	1085.700
269.424	18.716	1430.453	1084.148
270.439	18.635	1429.359	1082.711
271.453	18.673	1428.401	1082.130
272.468	18.647	1427.544	1081.225
273.482	18.613	1426.689	1080.267
274.497	18.597	1425.600	1079.244
275.512	18.556	1424.821	1078.302
276.526	18.521	1424.128	1077.462
277.541	18.746	1422.361	1077.440
278.555	18.750	1421.696	1076.867
279.570	18.615	1421.358	1075.666
280.585	18.721	1420.397	1075.509
281.599	18.769	1419.534	1075.060
282.614	18.910	1418.602	1075.146
283.628	18.758	1417.496	1073.262
284.643	18.717	1416.717	1072.319
285.657	18.763	1415.182	1071.348
286.672	18.721	1414.498	1070.478
287.687	18.774	1413.327	1069.827
288.701	18.799	1412.354	1069.149
289.716	18.813	1411.356	1068.384
290.730	18.746	1410.786	1067.446
291.745	18.820	1409.832	1067.086
292.760	18.827	1409.055	1066.449
293.774	18.881	1408.045	1065.923
294.789	18.738	1407.321	1064.394
295.803	18.898	1406.669	1064.800
296.818	18.979	1405.576	1064.381
297.833	18.954	1404.422	1063.256
298.847	18.792	1403.488	1061.455
299.862	18.849	1402.083	1060.650
300.876	18.922	1401.130	1060.286
301.891	18.925	1400.618	1059.820
302.906	19.029	1399.544	1059.553
303.920	19.103	1398.773	1059.336
304.935	19.220	1398.028	1059.396
305.949	19.167	1397.450	1058.535
306.964	19.259	1396.810	1058.524
307.979	19.331	1395.974	1058.240
308.993	19.209	1395.076	1056.717
310.008	19.239	1393.596	1055.685
311.022	19.286	1392.509	1055.059
312.037	19.423	1391.595	1055.107
313.052	19.278	1391.039	1053.706
314.066	19.257	1389.729	1052.495
315.081	19.173	1389.003	1051.339
316.095	19.044	1387.680	1049.457
317.110	19.039	1386.182	1048.201
318.125	19.001	1385.704	1047.514
319.139	18.965	1384.748	1046.482
320.154	19.016	1383.226	1045.549
321.168	19.035	1382.540	1045.053
322.183	19.127	1381.430	1044.682
323.197	18.948	1381.279	1043.388
324.212	19.133	1379.881	1043.360
325.227	19.221	1378.966	1043.109
326.241	19.106	1377.895	1041.513
327.256	19.133	1377.114	1040.991
328.270	19.138	1376.234	1040.266
329.285	19.118	1375.599	1039.570
330.300	19.141	1374.164	1038.532
331.314	19.190	1373.198	1038.007
332.329	19.151	1372.467	1037.125
333.343	19.233	1371.277	1036.632
334.358	19.167	1370.814	1035.791
335.373	19.270	1370.447	1036.041
336.387	19.393	1369.202	1035.749
337.402	19.356	1368.720	1035.069
338.416	19.388	1367.885	1034.537
339.431	19.361	1367.846	1034.255
340.446	19.458	1366.889	1034.020
341.460	19.568	1365.824	1033.781
342.475	19.596	1365.027	1033.252
343.489	19.639	1364.246	1032.827
344.504	19.771	1363.136	1032.684
345.519	19.731	1362.267	1031.700
346.533	19.742	1361.507	1031.096
347.548	19.781	1360.846	1030.739
348.562	19.923	1359.559	1030.514
349.577	19.956	1358.859	1030.092
350.592	19.888	1357.838	1028.822
351.606	19.650	1357.120	1026.772
352.621	19.468	1355.841	1024.634
353.635	19.527	1354.449	1023.844
354.650	19.621	1353.256	1023.406
355.665	19.702	1352.141	1022.950
356.679	19.604	1351.578	1021.854
357.694	19.591	1350.687	1021.014
358.708	19.676	1349.340	1020.409
359.723	19.810	1348.078	1020.154
360.738	19.710	1347.852	1019.304
361.752	19.742	1346.901	1018.682
362.767	19.792	1345.109	1017.530
363.781	19.704	1344.908	1016.770
364.796	19.881	1343.847	1016.916
365.810	19.792	1343.329	1015.916
366.825	20.074	1342.697	1017.000
367.840	19.918	1342.433	1015.793
368.854	20.045	1341.614	1015.833
369.869	20.209	1340.818	1016.102
370.883	20.288	1339.781	1015.686
371.898	20.218	1339.252	1014.785
372.913	20.151	1338.496	1013.732
373.927	20.092	1337.141	1012.269
374.942	20.144	1336.391	1011.916
375.956	20.225	1335.472	1011.604
376.971	20.144	1335.089	1010.754
377.986	20.134	1334.288	1009.999
379.000	20.180	1333.630	1009.676
380.015	20.165	1332.762	1008.847
381.029	20.258	1331.944	1008.676
382.044	20.299	1331.457	1008.454
383.059	20.426	1330.341	1008.258
384.073	20.440	1329.772	1007.818
385.088	20.359	1329.196	1006.823
386.102	20.441	1328.525	1006.705
387.117	20.423	1327.916	1006.046
388.132	20.415	1326.655	1004.958
389.146	20.313	1325.907	1003.714
390.161	20.218	1325.068	1002.441
391.175	20.254	1324.098	1001.827
392.190	20.238	1323.315	1001.050
393.205	20.272	1322.457	1000.508
394.219	20.467	1321.407	1000.748
395.234	20.333	1320.814	999.442
396.248	20.280	1319.634	998.154
397.263	20.272	1317.908	996.717
398.278	20.315	1316.126	995.524
399.292	20.147	1315.306	993.855
400.307	20.257	1314.029	993.428
401.321	20.064	1313.193	991.607
402.336	20.098	1312.291	991.031
403.350	20.057	1311.229	989.905
404.365	20.160	1310.097	989.557
405.380	20.064	1309.496	988.464
406.394	20.158	1308.737	988.338
407.409	20.286	1307.716	988.212
408.423	20.404	1307.288	988.473
409.438	20.570	1306.115	988.443
410.453	20.507	1305.993	987.902
411.467	20.665	1305.015	987.971
412.482	20.618	1305.159	987.728
413.496	20.571	1304.244	986.682
414.511	20.699	1303.460	986.726
415.526	20.707	1302.633	986.057
416.540	20.758	1302.168	985.908
417.555	20.869	1301.367	985.840
418.569	20.856	1300.860	985.296
419.584	20.890	1300.074	984.808
420.599	20.681	1299.703	983.258
421.613	145.431	1436.078	1797.001
422.628	140.690	1455.934	1797.117
