DTS Sentinel unit serial number:	SN413079Multiplexer serial number:	ORYXHardware model number:	OX4-SRSoftware version number:	ORYX F/W v4.00 Oryx Data Collector v3.7.2.0data status	okinstallation	princeton_trtdifferential loss correction	single-endedforward channel	channel 4reverse channel	N/Adate	2019/09/13time	11:49:34forward acquisition time	60.00reverse acquisition time	0.00gamma	496.2192k internal	0.2300k external	0.2300temperature offset calibration	1.0207default loss term (dB/km)	0.3790temperature slope calibration	1.0000multiplexer offset coefficient	1.0000multiplexer slope coefficient	1.0000fibre end	0.00T internal ref (°C)	33.31T ext. ref 1 (°C)	4.55T ext. ref 2 (°C)	30.50length (m)	temperature (°C)	Stokes	anti-Stokes-747.200	-57.624	0.315	0.141
-746.185	-200.000	0.014	-0.286
-745.171	107.362	-0.082	-0.100
-744.156	175.096	0.231	0.341
-743.142	-97.609	-0.271	-0.072
-742.127	800.000	0.059	0.223
-741.112	-20.826	-0.098	0.061
-740.098	800.000	0.153	0.469
-739.083	-15.317	-0.104	0.068
-738.069	-124.518	-0.173	0.027
-737.054	-38.467	0.250	-0.135
-736.039	290.996	-0.167	-0.309
-735.025	193.068	0.154	0.238
-734.010	-51.544	-0.465	-0.221
-732.996	5.045	0.467	-0.350
-731.981	-200.000	-0.039	0.201
-730.966	800.000	-0.123	0.419
-729.952	-64.968	-0.074	0.030
-728.937	-198.104	-0.339	-0.002
-727.923	576.444	-0.055	0.137
-726.908	-200.000	-0.034	0.336
-725.894	4.044	-0.170	0.127
-724.879	-22.594	0.046	0.028
-723.864	800.000	-0.040	-0.125
-722.850	14.493	-0.223	-0.178
-721.835	-200.000	-0.010	-0.330
-720.821	103.740	-0.108	-0.130
-719.806	-5.773	0.074	-0.052
-718.791	-36.396	-0.288	-0.158
-717.777	800.000	0.137	0.399
-716.762	800.000	-0.055	-0.228
-715.748	284.771	0.167	-0.307
-714.733	175.393	0.072	-0.107
-713.718	7.965	-0.164	-0.125
-712.704	626.845	0.069	0.178
-711.689	366.966	-0.158	0.325
-710.675	180.709	-0.162	-0.242
-709.660	-200.000	-0.057	-0.283
-708.645	133.464	-0.110	0.144
-707.631	-108.172	-0.129	-0.029
-706.616	-200.000	0.053	-0.250
-705.602	-56.429	0.259	-0.117
-704.587	-200.000	0.018	-0.087
-703.572	414.406	0.031	0.066
-702.558	13.552	-0.271	0.214
-701.543	142.888	-0.101	-0.136
-700.529	117.333	-0.101	-0.126
-699.514	-200.000	-0.029	-0.274
-698.499	220.258	-0.208	-0.340
-697.485	109.644	0.053	-0.065
-696.470	800.000	-0.027	0.104
-695.456	-142.029	0.062	-0.006
-694.441	103.656	0.046	0.055
-693.426	53.572	-0.142	0.139
-692.412	-200.000	0.024	-0.299
-691.397	307.119	0.060	-0.115
-690.383	-122.259	-0.272	-0.045
-689.368	-106.099	-0.228	-0.052
-688.354	-40.045	-0.320	-0.170
-687.339	800.000	-0.035	0.118
-686.324	152.289	-0.157	0.217
-685.310	452.445	0.082	-0.184
-684.295	-200.000	0.068	0.460
-683.281	29.547	-0.188	0.162
-682.266	-132.806	0.084	0.011
-681.251	-193.587	0.110	-0.001
-680.237	-200.000	0.067	-0.488
-679.222	68.140	0.138	0.144
-678.208	69.175	0.046	0.048
-677.193	422.166	-0.144	-0.313
-676.178	270.462	-0.082	0.147
-675.164	-14.217	0.104	0.068
-674.149	-4.484	0.072	0.050
-673.135	-33.118	-0.249	0.140
-672.120	-200.000	0.016	0.072
-671.105	-120.942	0.377	0.064
-670.091	-60.730	0.151	-0.065
-669.076	156.175	-0.183	-0.256
-668.062	-200.000	0.019	-0.214
-667.047	147.183	0.262	0.359
-666.032	-131.460	-0.046	-0.006
-665.018	-200.000	-0.077	0.436
-664.003	754.899	-0.043	-0.118
-662.989	-200.000	-0.045	0.239
-661.974	0.757	-0.187	0.136
-660.959	-200.000	0.012	0.122
-659.945	32.937	-0.112	0.099
-658.930	-200.000	0.022	0.133
-657.916	-93.558	-0.260	0.073
-656.901	325.016	-0.147	-0.285
-655.886	167.012	-0.078	0.113
-654.872	-200.000	-0.035	0.221
-653.857	256.342	-0.194	-0.338
-652.843	91.776	-0.182	-0.208
-651.828	423.016	-0.118	-0.258
-650.814	-92.783	0.335	-0.095
-649.799	-89.392	0.285	0.085
-648.784	-200.000	0.016	-0.105
-647.770	800.000	-0.085	-0.291
-646.755	800.000	0.087	0.361
-645.741	-200.000	-0.019	-0.103
-644.726	156.385	-0.099	-0.138
-643.711	16.871	0.161	-0.129
-642.697	-200.000	-0.050	0.232
-641.682	-39.801	-0.383	0.203
-640.668	59.860	-0.332	0.333
-639.653	-84.516	-0.314	0.101
-638.638	-12.862	-0.192	-0.127
-637.624	108.014	-0.120	0.145
-636.609	-96.191	0.329	-0.089
-635.595	-200.000	-0.005	0.055
-634.580	800.000	-0.077	-0.268
-633.565	-200.000	-0.007	-0.254
-632.551	69.234	-0.360	0.375
-631.536	-42.801	0.117	-0.060
-630.522	-11.902	0.064	0.042
-629.507	24.863	0.080	-0.067
-628.492	-200.000	0.019	-0.097
-627.478	-79.786	0.118	-0.040
-626.463	317.810	-0.136	0.261
-625.449	60.519	0.101	-0.101
-624.434	29.887	-0.193	-0.167
-623.419	-107.852	0.064	-0.014
-622.405	800.000	-0.105	0.301
-621.390	-147.468	0.208	0.018
-620.376	73.545	-0.239	-0.254
-619.361	-66.806	-0.060	-0.024
-618.346	-91.824	0.152	0.044
-617.332	138.420	0.025	0.033
-616.317	19.448	0.274	-0.223
-615.303	-170.640	-0.159	-0.006
-614.288	-200.000	-0.025	-0.337
-613.273	53.594	-0.287	-0.279
-612.259	800.000	0.035	-0.120
-611.244	-93.986	0.106	-0.029
-610.230	-200.000	0.019	0.115
-609.215	-145.488	0.381	0.035
-608.201	-186.383	0.107	0.002
-607.186	-57.909	0.201	-0.089
-606.171	-200.000	-0.012	0.200
-605.157	33.711	-0.237	0.209
-604.142	-1.498	-0.125	-0.090
-603.128	484.328	0.071	0.164
-602.113	-164.025	-0.193	-0.009
-601.098	-58.249	-0.332	-0.147
-600.084	26.323	-0.310	-0.262
-599.069	-200.000	0.010	0.346
-598.055	111.216	-0.150	0.183
-597.040	800.000	0.089	-0.316
-596.025	236.677	-0.167	0.281
-595.011	12.173	-0.287	0.224
-593.996	18.046	0.336	0.271
-592.982	20.025	0.201	-0.164
-591.967	489.500	0.052	0.120
-590.952	123.396	-0.284	-0.361
-589.938	-79.614	-0.036	-0.012
-588.923	193.679	0.115	-0.176
-587.909	-61.592	-0.071	0.030
-586.894	-200.000	-0.038	-0.250
-585.879	-132.186	0.117	0.015
-584.865	-200.000	0.065	-0.499
-583.850	800.000	-0.129	-0.411
-582.836	104.938	0.137	-0.164
-581.821	447.361	0.049	-0.109
-580.806	800.000	-0.049	0.173
-579.792	534.164	0.112	-0.269
-578.777	-89.089	0.218	-0.065
-577.763	-111.012	-0.006	0.001
-576.748	43.427	-0.094	-0.087
-575.733	-200.000	0.048	0.245
-574.719	-200.000	-0.024	0.170
-573.704	800.000	0.102	0.385
-572.690	-9.308	0.200	-0.135
-571.675	363.830	0.173	-0.352
-570.661	402.570	-0.069	-0.146
-569.646	-127.833	0.063	-0.009
-568.631	54.677	0.233	-0.227
-567.617	-154.379	0.528	-0.036
-566.602	-128.233	0.010	0.001
-565.588	15.362	-0.147	0.117
-564.573	-141.450	-0.183	0.019
-563.558	282.869	0.119	0.216
-562.544	0.264	-0.159	-0.115
-561.529	800.000	0.146	-0.436
-560.515	-103.975	-0.395	0.093
-559.500	-132.186	-0.190	-0.025
-558.485	474.061	0.126	-0.287
-557.471	229.928	0.088	-0.146
-556.456	800.000	0.055	-0.240
-555.442	308.089	0.054	-0.102
-554.427	800.000	0.049	-0.194
-553.412	-70.272	0.302	0.116
-552.398	-23.299	-0.144	0.088
-551.383	800.000	0.035	0.119
-550.369	253.771	0.085	-0.146
-549.354	166.857	0.207	0.297
-548.339	96.961	-0.071	-0.083
-547.325	-140.169	-0.520	0.055
-546.310	183.126	0.093	0.139
-545.296	165.976	0.110	-0.158
-544.281	-200.000	0.020	0.455
-543.266	-0.328	-0.084	0.061
-542.252	-49.995	-0.064	-0.030
-541.237	6.707	-0.102	-0.077
-540.223	30.642	-0.141	0.122
-539.208	-200.000	0.001	0.039
-538.193	50.846	0.126	-0.121
-537.179	44.357	-0.199	-0.185
-536.164	-58.071	-0.395	-0.174
-535.150	754.991	-0.045	0.122
-534.135	800.000	-0.072	-0.315
-533.121	36.007	0.072	-0.064
-532.106	-142.196	0.220	-0.022
-531.091	-82.196	-0.190	0.063
-530.077	-50.259	-0.304	0.145
-529.062	-200.000	0.008	0.288
-528.048	-132.951	0.182	-0.023
-527.033	124.952	0.038	0.049
-526.018	-169.294	-0.363	0.014
-525.004	-50.886	0.257	-0.122
-523.989	111.974	0.119	-0.145
-522.975	783.658	-0.062	0.171
-521.960	800.000	-0.068	0.286
-520.945	-79.948	0.115	-0.039
-519.931	-87.627	-0.118	0.036
-518.916	800.000	0.032	0.132
-517.902	206.404	-0.112	-0.176
-516.887	425.929	0.117	-0.255
-515.872	800.000	0.084	-0.243
-514.858	-23.330	-0.420	0.255
-513.843	-114.464	0.150	-0.029
-512.829	25.217	0.268	-0.225
-511.814	-137.844	0.308	0.035
-510.799	254.890	-0.165	-0.286
-509.785	-107.485	0.370	0.082
-508.770	-9.110	0.156	-0.105
-507.756	382.458	-0.010	-0.020
-506.741	102.011	0.314	-0.370
-505.726	-107.199	0.326	-0.073
-504.712	-9.073	-0.294	-0.199
-503.697	-63.054	-0.198	0.083
-502.683	89.367	0.054	0.060
-501.668	800.000	-0.099	-0.283
-500.653	-200.000	0.002	-0.178
-499.639	-125.034	-0.259	-0.040
-498.624	-67.697	0.101	-0.040
-497.610	281.524	-0.194	0.352
-496.595	61.104	0.082	-0.082
-495.581	69.527	0.149	0.155
-494.566	-191.187	0.092	-0.001
-493.551	-110.043	-0.179	0.038
-492.537	-163.813	-0.190	0.009
-491.522	21.390	-0.088	-0.072
-490.508	-98.290	0.042	0.011
-489.493	800.000	-0.055	-0.175
-488.478	-20.903	0.102	-0.063
-487.464	61.577	0.279	-0.281
-486.449	4.170	-0.090	-0.066
-485.435	-64.569	0.246	-0.101
-484.420	109.698	0.110	-0.134
-483.405	75.416	0.190	-0.202
-482.391	-98.874	0.016	-0.004
-481.376	60.816	0.090	-0.090
-480.362	-6.621	-0.238	-0.164
-479.347	58.079	-0.268	0.265
-478.332	-50.182	-0.090	-0.043
-477.318	287.164	-0.093	0.169
-476.303	-73.072	0.086	-0.032
-475.289	145.468	-0.081	0.109
-474.274	-200.000	-0.018	0.176
-473.259	-200.000	-0.002	0.537
-472.245	168.843	0.147	-0.212
-471.230	-63.904	0.146	-0.060
-470.216	45.406	-0.068	-0.063
-469.201	-200.000	0.004	0.236
-468.186	45.313	0.031	0.029
-467.172	63.802	0.213	-0.216
-466.157	-200.000	-0.035	-0.271
-465.143	58.744	-0.217	-0.215
-464.128	-200.000	-0.054	-0.432
-463.113	96.001	-0.123	-0.142
-462.099	-100.178	-0.115	-0.029
-461.084	68.654	-0.157	-0.163
-460.070	13.913	0.200	-0.157
-459.055	-200.000	0.006	-0.234
-458.040	-14.177	0.070	0.046
-457.026	20.583	-0.105	0.086
-456.011	-16.967	0.211	0.134
-454.997	350.279	0.243	0.484
-453.982	800.000	0.014	0.056
-452.968	-154.075	-0.255	-0.017
-451.953	-153.261	-0.279	-0.020
-450.938	800.000	0.079	-0.230
-449.924	-87.695	0.401	-0.122
-448.909	-105.432	-0.122	0.028
-447.895	0.843	-0.222	-0.160
-446.880	3.255	0.294	0.215
-445.865	59.850	-0.175	-0.174
-444.851	93.480	0.180	-0.206
-443.836	99.765	-0.093	-0.108
-442.822	-151.879	0.130	-0.010
-441.807	-111.572	0.366	0.075
-440.792	-39.430	0.132	0.070
-439.778	-161.058	-0.139	-0.007
-438.763	182.631	0.054	0.081
-437.749	182.351	0.029	-0.044
-436.734	-39.299	0.273	0.144
-435.719	-83.564	0.117	0.038
-434.705	-63.193	-0.210	-0.087
-433.690	323.655	-0.072	0.138
-432.676	795.850	-0.037	0.103
-431.661	198.130	-0.164	0.253
-430.646	560.399	0.045	-0.110
-429.632	-200.000	-0.014	0.207
-428.617	-37.781	0.260	0.139
-427.603	178.810	0.050	-0.074
-426.588	-126.104	0.262	0.040
-425.573	456.284	0.099	0.222
-424.559	13.066	0.123	0.096
-423.544	106.408	-0.180	0.215
-422.530	195.483	-0.304	0.466
-421.515	177.109	0.150	0.221
-420.500	800.000	-0.032	0.096
-419.486	-155.367	-0.271	-0.018
-418.471	-29.402	-0.126	-0.073
-417.457	-200.000	0.013	-0.162
-416.442	-82.506	-0.194	0.063
-415.428	-16.459	-0.108	-0.069
-414.413	-200.000	-0.000	-0.047
-413.398	-200.000	0.016	-0.207
-412.384	-82.922	-0.155	-0.050
-411.369	-124.024	0.230	-0.036
-410.355	-110.162	0.069	0.014
-409.340	-159.054	-0.098	0.006
-408.325	-200.000	-0.011	0.097
-407.311	8.573	-0.143	-0.108
-406.296	384.876	-0.139	0.287
-405.282	484.616	-0.069	-0.158
-404.267	-7.949	0.503	-0.341
-403.252	-33.141	-0.421	0.235
-402.238	291.564	0.138	0.253
-401.223	-200.000	-0.046	0.249
-400.209	-108.582	-0.150	-0.032
-399.194	-66.727	-0.081	0.032
-398.179	-200.000	0.013	0.059
-397.165	-75.348	0.095	0.034
-396.150	-77.199	0.055	-0.019
-395.136	234.903	-0.151	-0.250
-394.121	-104.258	0.216	-0.050
-393.106	-5.342	-0.167	-0.115
-392.092	800.000	-0.063	-0.182
-391.077	-38.919	-0.202	0.107
-390.063	-99.593	-0.317	0.080
-389.048	223.501	-0.120	0.194
-388.033	-43.951	-0.271	-0.137
-387.019	71.702	0.193	0.201
-386.004	800.000	0.026	0.086
-384.990	-83.196	-0.174	0.056
-383.975	121.526	-0.177	0.221
-382.960	6.531	-0.182	-0.136
-381.946	377.993	-0.073	0.150
-380.931	78.058	0.149	0.159
-379.917	-200.000	-0.002	0.219
-378.902	-16.431	0.231	-0.147
-377.888	-155.374	-0.206	-0.013
-376.873	78.961	0.009	0.010
-375.858	-60.467	0.406	-0.173
-374.844	12.898	0.157	-0.122
-373.829	-180.150	-0.386	0.008
-372.815	159.900	0.050	0.070
-371.800	42.995	0.237	-0.217
-370.785	-132.026	0.173	0.023
-369.771	-69.570	0.331	0.127
-368.756	-149.687	0.464	0.037
-367.742	202.198	-0.167	0.259
-366.727	-101.603	0.175	-0.043
-365.712	610.794	-0.093	-0.233
-364.698	-60.184	0.224	-0.096
-363.683	-164.568	0.266	-0.012
-362.669	-42.029	-0.197	0.101
-361.654	-200.000	-0.002	-0.019
-360.639	-200.000	0.010	0.379
-359.625	91.418	-0.194	-0.219
-358.610	-87.616	0.293	0.089
-357.596	568.799	-0.156	0.381
-356.581	800.000	-0.038	0.117
-355.566	-200.000	0.005	-0.158
-354.552	-43.757	-0.126	0.064
-353.537	-200.000	-0.003	0.062
-352.523	392.555	-0.214	-0.447
-351.508	259.318	0.136	0.236
-350.493	-200.000	0.055	0.353
-349.479	-100.832	-0.199	0.049
-348.464	407.665	-0.057	0.121
-347.450	131.567	0.110	-0.142
-346.435	-145.507	0.325	0.029
-345.420	-199.545	-0.151	0.001
-344.406	-168.227	-0.242	-0.009
-343.391	-66.239	0.247	0.099
-342.377	193.806	-0.093	0.141
-341.362	109.517	0.138	0.166
-340.348	78.207	0.163	0.175
-339.333	123.945	-0.102	0.128
-338.318	-2.822	-0.258	-0.181
-337.304	-200.000	-0.005	0.064
-336.289	-25.700	0.107	0.064
-335.275	78.259	-0.113	0.121
-334.260	-20.252	-0.157	-0.097
-333.245	24.265	-0.216	0.179
-332.231	-27.952	-0.205	-0.119
-331.216	-159.228	0.227	0.013
-330.202	-200.000	-0.047	-0.392
-329.187	105.064	-0.133	0.158
-328.172	40.198	-0.156	0.140
-327.158	28.470	-0.330	-0.280
-326.143	106.336	-0.068	-0.081
-325.129	-43.460	0.411	0.208
-324.114	39.344	-0.177	-0.159
-323.099	-4.244	0.150	-0.104
-322.085	101.164	-0.342	-0.399
-321.070	-171.778	-0.240	0.008
-320.056	339.923	-0.060	0.117
-319.041	97.520	0.056	0.064
-318.026	683.073	-0.076	0.199
-317.012	24.009	-0.207	0.172
-315.997	-41.781	0.219	-0.113
-314.983	352.605	-0.106	0.210
-313.968	289.470	-0.101	-0.184
-312.953	-125.374	0.174	-0.027
-311.939	-36.210	0.215	-0.116
-310.924	-104.976	-0.341	-0.078
-309.910	800.000	0.064	-0.179
-308.895	-200.000	-0.002	-0.075
-307.880	3.411	-0.055	0.040
-306.866	-41.792	-0.246	-0.127
-305.851	-83.300	0.448	-0.144
-304.837	800.000	0.076	0.235
-303.822	-162.379	0.210	-0.010
-302.807	-136.031	-0.083	0.010
-301.793	-39.450	0.362	-0.190
-300.778	-63.471	-0.330	-0.136
-299.764	129.028	-0.111	0.142
-298.749	598.682	-0.090	-0.223
-297.735	-150.069	-0.161	0.013
-296.720	-53.609	-0.064	-0.029
-295.705	-200.000	-0.054	0.244
-294.691	-200.000	0.047	0.371
-293.676	-200.000	-0.037	0.256
-292.662	-123.169	-0.202	0.033
-291.647	-37.772	-0.071	-0.038
-290.632	-200.000	-0.015	0.312
-289.618	-2.891	0.235	0.164
-288.603	103.167	-0.120	-0.141
-287.589	-78.967	-0.017	0.006
-286.574	284.384	0.161	0.291
-285.559	258.553	0.251	0.433
-284.545	442.544	-0.038	0.083
-283.530	-80.624	-0.196	-0.065
-282.516	-200.000	0.001	0.109
-281.501	-89.259	-0.333	0.098
-280.486	-200.000	0.014	0.074
-279.472	-141.698	-0.213	0.021
-278.457	800.000	0.043	0.162
-277.443	1.439	0.333	0.240
-276.428	113.335	-0.202	0.245
-275.413	-151.800	0.140	-0.010
-274.399	-20.486	0.184	-0.113
-273.384	12.476	0.197	-0.152
-272.370	447.932	-0.071	0.156
-271.355	-200.000	-0.017	-0.209
-270.340	800.000	-0.050	0.162
-269.326	-19.636	0.378	0.234
-268.311	-200.000	-0.032	-0.238
-267.297	15.303	0.031	-0.024
-266.282	-200.000	-0.112	-0.000
-265.267	-2.390	-0.111	-0.078
-264.253	232.058	0.180	0.295
-263.238	90.089	-0.114	-0.128
-262.224	-200.000	-0.043	0.321
-261.209	124.500	0.092	-0.116
-260.195	-122.157	-0.529	-0.087
-259.180	-152.527	-0.280	-0.020
-258.165	-15.674	0.352	0.225
-257.151	-110.384	-0.104	0.022
-256.136	98.040	0.075	-0.086
-255.122	-68.519	0.165	-0.064
-254.107	-78.350	0.105	-0.036
-253.092	-3.670	0.123	0.085
-252.078	147.040	0.143	-0.193
-251.063	-21.769	0.323	0.197
-250.049	-154.122	-0.047	0.003
-249.034	-200.000	0.004	0.029
-248.019	-194.816	-0.243	-0.002
-247.005	-200.000	0.018	-0.198
-245.990	-163.705	-0.383	-0.018
-244.976	-131.412	0.401	-0.053
-243.961	-148.801	0.307	-0.025
-242.946	177.579	0.100	-0.146
-241.932	97.195	0.166	0.191
-240.917	19.695	0.142	0.115
-239.903	792.400	0.139	-0.383
-238.888	82.529	0.114	0.123
-237.873	-8.392	-0.141	0.095
-236.859	120.859	-0.125	-0.156
-235.844	416.938	-0.152	0.325
-234.830	-43.079	0.186	-0.094
-233.815	-180.872	0.236	0.005
-232.800	11.617	0.239	0.183
-231.786	-115.699	-0.323	0.061
-230.771	62.000	0.259	0.258
-229.757	-200.000	-0.021	-0.198
-228.742	76.105	-0.243	0.257
-227.727	-9.946	0.136	0.090
-226.713	-94.765	0.217	-0.059
-225.698	686.450	0.108	0.283
-224.684	800.000	-0.023	-0.099
-223.669	21.514	-0.107	0.087
-222.655	-43.991	-0.034	0.017
-221.640	-200.000	0.043	-0.294
-220.625	-200.000	0.001	-0.082
-219.611	18.993	-0.104	0.083
-218.596	-86.658	0.428	0.131
-217.582	-63.419	0.187	-0.077
-216.567	-155.924	0.150	-0.010
-215.552	-78.824	0.189	0.065
-214.538	-30.814	-0.252	-0.142
-213.523	800.000	-0.068	0.207
-212.509	-200.000	0.029	0.236
-211.494	800.000	-0.005	0.019
-210.479	121.458	-0.156	-0.194
-209.465	800.000	0.068	-0.296
-208.450	57.338	-0.181	-0.176
-207.436	-39.903	0.140	-0.073
-206.421	800.000	-0.041	-0.134
-205.406	215.171	0.243	-0.386
-204.392	-200.000	-0.026	0.181
-203.377	-167.481	0.129	-0.005
-202.363	408.512	-0.122	0.257
-201.348	40.670	-0.150	0.135
-200.333	121.024	-0.153	0.190
-199.319	9.641	0.070	-0.053
-198.304	-141.265	-0.182	-0.018
-197.290	800.000	0.098	-0.300
-196.275	-38.359	-0.151	-0.080
-195.260	800.000	-0.035	-0.142
-194.246	-31.262	-0.116	0.065
-193.231	25.736	-0.189	0.157
-192.217	36.507	0.169	0.149
-191.202	-200.000	-0.049	0.249
-190.187	-200.000	-0.014	-0.182
-189.173	-142.518	0.025	0.002
-188.158	57.618	-0.202	0.197
-187.144	-77.531	0.366	0.127
-186.129	232.770	-0.098	0.160
-185.114	285.695	0.170	-0.306
-184.100	-69.128	0.222	-0.085
-183.085	-127.467	0.218	-0.032
-182.071	353.040	0.214	-0.424
-181.056	-42.605	0.534	-0.271
-180.042	-151.959	-0.062	-0.005
-179.027	277.546	0.165	-0.293
-178.012	800.000	-0.097	-0.387
-176.998	606.350	0.122	0.304
-175.983	12.554	-0.101	0.077
-174.969	180.811	0.198	-0.289
-173.954	800.000	-0.074	0.276
-172.939	800.000	0.020	-0.082
-171.925	-200.000	-0.015	-0.090
-170.910	565.376	0.056	-0.136
-169.896	253.491	0.067	0.114
-168.881	800.000	-0.021	0.061
-167.866	578.608	0.052	-0.128
-166.852	800.000	-0.060	-0.235
-165.837	658.313	-0.064	0.165
-164.823	-108.618	-0.113	0.024
-163.808	258.991	-0.104	0.178
-162.793	-47.984	0.135	0.065
-161.779	-100.995	-0.301	0.074
-160.764	-11.703	-0.100	-0.065
-159.750	25.392	0.104	-0.086
-158.735	-34.989	-0.247	0.135
-157.720	203.456	-0.097	-0.149
-156.706	393.452	-0.110	-0.228
-155.691	129.849	-0.305	0.388
-154.677	-200.000	0.040	0.232
-153.662	-200.000	0.012	0.243
-152.647	228.732	-0.052	0.084
-151.633	-53.388	-0.031	-0.014
-150.618	-67.150	-0.101	0.040
-149.604	-174.880	0.140	-0.004
-148.589	-59.462	0.106	-0.045
-147.574	-200.000	0.012	-0.101
-146.560	-82.246	0.080	0.026
-145.545	-153.146	-0.056	0.004
-144.531	800.000	-0.106	-0.304
-143.516	410.681	-0.193	-0.407
-142.502	-66.288	-0.198	-0.079
-141.487	-64.545	-0.363	-0.147
-140.472	-110.651	-0.209	-0.043
-139.458	-200.000	0.008	0.062
-138.443	-101.843	0.164	-0.040
-137.429	116.402	0.079	0.096
-136.414	-116.394	0.519	-0.096
-135.399	-42.103	0.080	0.041
-134.385	54.799	0.236	-0.227
-133.370	39.696	0.131	-0.117
-132.356	800.000	-0.082	0.255
-131.341	261.451	0.093	-0.161
-130.326	43.834	0.212	-0.194
-129.312	800.000	-0.038	-0.126
-128.297	320.577	0.064	0.121
-127.283	-200.000	0.036	0.334
-126.268	24.391	-0.135	-0.111
-125.253	6.107	-0.085	0.063
-124.239	307.175	-0.057	-0.106
-123.224	-200.000	-0.039	0.261
-122.210	699.954	0.123	0.321
-121.195	-27.239	0.251	0.146
-120.180	-36.206	-0.297	-0.160
-119.166	409.030	0.077	-0.163
-118.151	-14.408	0.040	-0.026
-117.137	41.456	0.066	-0.060
-116.122	-5.550	0.217	-0.148
-115.107	-133.582	-0.104	-0.013
-114.093	-200.000	0.017	0.075
-113.078	-58.397	0.189	-0.082
-112.064	-89.341	-0.220	0.064
-111.049	769.028	-0.090	0.244
-110.034	-200.000	0.012	0.089
-109.020	-49.998	-0.147	-0.069
-108.005	-200.000	0.003	-0.245
-106.991	-200.000	0.050	-0.276
-105.976	224.963	-0.139	-0.224
-104.962	-162.665	-0.147	0.007
-103.947	-200.000	0.023	0.106
-102.932	-137.611	-0.109	-0.012
-101.918	-51.207	0.121	0.056
-100.903	-200.000	-0.012	0.341
-99.889	273.861	0.154	0.271
-98.874	-98.491	0.253	0.064
-97.859	65.865	0.121	-0.122
-96.845	-50.627	0.188	-0.088
-95.830	773.255	0.081	0.220
-94.816	-200.000	-0.002	0.306
-93.801	314.167	-0.083	0.156
-92.786	37.199	-0.112	0.099
-91.772	232.693	0.122	0.200
-90.757	125.692	0.182	0.229
-89.743	-87.935	0.273	0.082
-88.728	506.227	0.121	0.279
-87.713	800.000	-0.086	-0.255
-86.699	100.565	0.236	0.272
-85.684	-10.706	-0.212	0.139
-84.670	-65.869	0.255	0.101
-83.655	550.007	-0.051	-0.122
-82.640	-77.257	-0.233	0.080
-81.626	-60.529	0.154	0.065
-80.611	800.000	0.094	0.408
-79.597	-11.583	0.165	0.108
-78.582	-200.000	0.045	-0.315
-77.567	-108.499	0.222	0.047
-76.553	75.706	0.094	-0.099
-75.538	-69.332	-0.128	0.049
-74.524	-113.670	-0.149	-0.029
-73.509	360.783	0.023	-0.047
-72.494	-21.696	0.226	-0.137
-71.480	-200.000	0.003	-0.160
-70.465	325.420	0.071	0.135
-69.451	800.000	-0.060	-0.199
-68.436	12.509	-0.265	-0.203
-67.422	-97.579	-0.306	-0.079
-66.407	-38.283	0.208	0.109
-65.392	-200.000	0.024	-0.107
-64.378	480.702	-0.092	-0.208
-63.363	65.412	-0.091	-0.091
-62.349	800.000	-0.077	0.249
-61.334	93.372	-0.847	-0.952
-60.319	48.237	0.501	0.466
-59.305	-200.000	-0.000	-1.099
-58.290	87.761	0.698	0.768
-57.276	640.492	0.637	1.609
-56.261	-200.000	98.073	592.815
-55.246	602.478	1431.658	3533.185
-54.232	178.413	2649.363	3839.926
-53.217	109.169	2354.419	2796.487
-52.203	39.840	2099.584	1870.626
-51.188	34.964	2013.001	1748.973
-50.173	33.492	1994.530	1719.514
-49.159	48.706	2046.660	1904.640
-48.144	50.583	2065.399	1939.260
-47.130	35.755	2024.219	1765.706
-46.115	33.372	2012.981	1734.046
-45.100	33.190	2009.826	1729.594
-44.086	33.129	2007.443	1726.914
-43.071	33.022	2005.203	1723.943
-42.057	33.089	2002.465	1722.130
-41.042	33.176	2000.547	1721.208
-40.027	33.102	1998.862	1719.015
-39.013	33.094	1996.376	1716.741
-37.998	33.176	1994.664	1715.944
-36.984	33.278	1992.353	1714.810
-35.969	33.306	1990.724	1713.592
-34.954	33.309	1989.497	1712.494
-33.940	33.314	1987.625	1710.864
-32.925	33.299	1986.124	1709.363
-31.911	33.324	1984.046	1707.734
-30.896	33.355	1982.506	1706.618
-29.881	33.354	1981.355	1705.558
-28.867	33.353	1980.114	1704.409
-27.852	33.318	1978.006	1702.213
-26.838	33.377	1976.172	1701.093
-25.823	33.297	1974.351	1698.745
-24.809	33.400	1971.866	1697.460
-23.794	33.326	1970.619	1695.660
-22.779	33.351	1968.858	1694.304
-21.765	33.302	1967.082	1692.262
-20.750	33.294	1965.613	1690.861
-19.736	33.386	1964.160	1690.367
-18.721	33.317	1962.215	1688.008
-17.706	33.235	1960.822	1686.017
-16.692	33.318	1959.068	1685.181
-15.677	33.419	1957.244	1684.439
-14.663	33.306	1955.984	1682.287
-13.648	33.379	1954.793	1681.839
-12.633	33.387	1953.448	1680.688
-11.619	33.385	1952.007	1679.363
-10.604	33.302	1950.693	1677.434
-9.590	33.246	1950.020	1676.292
-8.575	33.378	1948.107	1675.747
-7.560	33.280	1946.966	1673.834
-6.546	33.338	1945.579	1673.085
-5.531	33.361	1944.606	1672.384
-4.517	33.385	1942.736	1670.924
-3.502	33.365	1941.433	1669.563
-2.487	33.320	1940.676	1668.445
-1.473	33.241	1939.979	1667.086
-0.458	33.449	1935.029	1664.596
0.556	36.086	1915.608	1639.410
1.571	31.775	1896.307	1586.346
2.586	27.611	1918.262	1568.818
3.600	26.483	1954.969	1588.800
4.615	25.133	1947.988	1571.165
5.629	19.231	1844.854	1438.720
6.644	9.650	1723.817	1269.100
7.659	4.808	1686.275	1203.977
8.673	4.558	1682.010	1198.901
9.688	4.541	1681.159	1198.056
10.702	4.549	1679.983	1197.176
11.717	4.571	1676.432	1194.709
12.731	5.175	1676.905	1199.576
13.746	11.774	1692.576	1261.725
14.761	20.151	1710.722	1340.169
15.775	22.864	1714.144	1363.714
16.790	22.570	1711.839	1359.487
17.804	21.565	1709.205	1349.535
18.819	20.685	1706.290	1340.339
19.834	20.047	1703.781	1333.337
20.848	19.775	1702.790	1330.348
21.863	19.671	1701.700	1328.583
22.877	19.583	1699.563	1326.120
23.892	19.489	1697.812	1323.916
24.907	19.392	1697.154	1322.545
25.921	19.269	1696.275	1320.794
26.936	19.258	1695.201	1319.757
27.950	19.341	1693.862	1319.239
28.965	19.330	1693.337	1318.626
29.980	19.352	1692.880	1318.325
30.994	19.361	1692.239	1317.772
32.009	19.589	1691.001	1318.437
33.023	19.729	1689.932	1318.556
34.038	19.731	1689.202	1317.885
35.053	19.616	1688.349	1316.220
36.067	19.644	1686.764	1315.087
37.082	19.542	1685.179	1312.955
38.096	19.483	1684.431	1311.811
39.111	19.534	1683.390	1311.271
40.126	19.569	1683.228	1311.293
41.140	19.606	1681.768	1310.318
42.155	19.381	1680.152	1307.243
43.169	19.113	1678.856	1304.086
44.184	19.049	1677.375	1302.337
45.199	19.037	1676.136	1301.165
46.213	18.983	1675.392	1300.066
47.228	19.087	1674.560	1300.092
48.242	19.291	1673.130	1300.407
49.257	19.458	1672.106	1300.755
50.271	19.446	1671.028	1299.712
51.286	19.385	1669.909	1298.265
52.301	19.410	1668.810	1297.486
53.315	19.360	1667.282	1295.806
54.330	19.366	1665.819	1294.597
55.344	19.203	1664.215	1292.014
56.359	19.174	1662.031	1289.990
57.374	19.091	1661.722	1289.010
58.388	19.100	1660.670	1288.149
59.403	19.091	1658.995	1286.673
60.417	19.000	1657.574	1284.777
61.432	19.034	1656.040	1283.724
62.447	18.971	1655.296	1282.567
63.461	18.884	1653.979	1280.784
64.476	18.784	1653.098	1279.246
65.490	18.841	1651.690	1278.468
66.505	18.752	1650.575	1276.825
67.520	18.845	1649.461	1276.545
68.534	18.868	1648.291	1275.696
69.549	18.972	1646.957	1275.323
70.563	18.962	1645.964	1274.364
71.578	18.848	1645.238	1272.845
72.593	18.710	1643.765	1270.573
73.607	18.676	1642.306	1269.078
74.622	18.617	1641.035	1267.549
75.636	18.510	1640.775	1266.448
76.651	18.688	1639.605	1266.749
77.666	18.727	1639.077	1266.517
78.680	18.663	1638.350	1265.370
79.695	18.760	1637.312	1265.169
80.709	18.855	1636.607	1265.213
81.724	18.981	1635.606	1265.254
82.739	18.970	1635.444	1264.932
83.753	19.072	1634.360	1264.735
84.768	19.280	1633.251	1265.288
85.782	19.360	1633.024	1265.589
86.797	19.569	1632.119	1266.308
87.812	19.558	1631.373	1265.540
88.826	19.468	1630.112	1263.789
89.841	19.432	1629.116	1262.645
90.855	19.463	1627.460	1261.474
91.870	19.413	1627.104	1260.722
92.884	19.546	1626.002	1260.727
93.899	19.639	1625.112	1260.603
94.914	19.610	1623.667	1259.159
95.928	19.662	1622.165	1258.260
96.943	19.667	1621.126	1257.381
97.957	19.618	1620.085	1256.109
98.972	19.651	1617.819	1254.474
99.987	19.556	1616.819	1252.903
101.001	19.491	1614.789	1250.746
102.016	19.576	1613.192	1250.015
103.030	19.560	1612.226	1249.041
104.045	19.525	1611.194	1247.874
105.060	19.559	1609.594	1246.775
106.074	19.381	1608.121	1244.234
107.089	19.258	1605.613	1241.299
108.103	18.946	1603.975	1237.677
109.118	18.853	1602.495	1235.756
110.133	18.790	1601.360	1234.321
111.147	18.778	1599.742	1232.880
112.162	18.778	1598.822	1232.062
113.176	18.863	1597.055	1231.201
114.191	18.861	1595.916	1230.195
115.206	19.016	1594.767	1230.309
116.220	18.988	1593.663	1229.151
117.235	18.997	1591.582	1227.501
118.249	18.952	1590.637	1226.345
119.264	18.900	1589.639	1225.094
120.279	18.825	1588.134	1223.291
121.293	18.823	1586.389	1221.826
122.308	18.840	1584.794	1220.614
123.322	18.740	1583.599	1218.869
124.337	18.668	1581.465	1216.611
125.352	18.526	1580.824	1215.007
126.366	18.641	1579.436	1214.644
127.381	18.589	1578.726	1213.622
128.395	18.599	1577.125	1212.356
129.410	18.622	1575.630	1211.263
130.424	18.634	1574.679	1210.507
131.439	18.674	1573.350	1209.659
132.454	18.804	1572.267	1209.639
133.468	18.869	1571.004	1209.018
134.483	18.965	1569.541	1208.459
135.497	19.028	1567.870	1207.505
136.512	19.038	1566.870	1206.696
137.527	19.042	1565.731	1205.742
138.541	18.961	1565.239	1204.687
139.556	18.957	1563.747	1203.406
140.570	19.235	1561.716	1203.683
141.585	19.204	1560.792	1202.648
142.600	19.290	1559.723	1202.318
143.614	19.322	1558.940	1201.830
144.629	19.414	1558.208	1201.800
145.643	19.580	1556.305	1201.378
146.658	19.695	1554.912	1200.998
147.673	19.560	1553.209	1198.635
148.687	19.452	1551.706	1196.621
149.702	19.324	1550.167	1194.444
150.716	19.183	1549.048	1192.497
151.731	19.080	1547.014	1190.116
152.746	19.084	1546.165	1189.388
153.760	19.084	1544.285	1187.834
154.775	19.046	1543.525	1186.882
155.789	19.285	1542.091	1187.322
156.804	19.343	1541.066	1186.828
157.819	19.450	1539.419	1186.189
158.833	19.360	1539.033	1185.170
159.848	19.437	1537.956	1184.760
160.862	19.553	1536.670	1184.461
161.877	19.658	1535.093	1183.863
162.892	19.498	1534.189	1181.966
163.906	19.255	1532.156	1178.628
164.921	19.152	1530.487	1176.539
165.935	19.183	1529.887	1176.184
166.950	19.118	1529.200	1175.112
167.964	19.181	1528.138	1174.622
168.979	19.358	1527.138	1174.957
169.994	19.210	1526.328	1173.221
171.008	19.265	1524.750	1172.274
172.023	19.224	1523.948	1171.280
173.037	19.213	1522.723	1170.156
174.052	19.464	1522.013	1171.211
175.067	19.530	1520.949	1170.735
176.081	19.370	1519.273	1168.259
177.096	19.166	1517.884	1165.705
178.110	19.103	1516.220	1163.901
179.125	19.151	1515.374	1163.473
180.140	19.198	1514.444	1162.974
181.154	19.301	1513.413	1162.773
182.169	19.364	1512.600	1162.469
183.183	19.445	1511.394	1161.988
184.198	19.576	1510.662	1162.201
185.213	19.629	1509.036	1161.202
186.227	19.730	1508.050	1161.021
187.242	19.579	1507.726	1159.658
188.256	19.724	1506.207	1159.358
189.271	19.806	1505.402	1159.183
190.286	19.825	1504.941	1158.855
191.300	19.806	1503.562	1157.563
192.315	19.480	1501.500	1153.692
193.329	19.056	1500.375	1149.897
194.344	19.092	1498.671	1148.728
195.359	19.189	1498.018	1148.769
196.373	19.278	1496.900	1148.403
197.388	19.346	1496.491	1148.445
198.402	19.443	1495.491	1148.221
199.417	19.624	1494.317	1148.421
200.432	19.848	1493.581	1149.240
201.446	20.013	1493.077	1149.847
202.461	20.029	1492.282	1149.238
203.475	20.105	1491.071	1148.708
204.490	20.141	1490.049	1148.059
205.504	20.104	1488.904	1146.831
206.519	19.863	1487.275	1143.877
207.534	19.742	1485.921	1141.939
208.548	19.655	1484.768	1140.377
209.563	19.624	1483.986	1139.473
210.577	19.722	1482.897	1139.179
211.592	19.679	1482.369	1138.390
212.607	19.724	1481.144	1137.647
213.621	19.834	1481.409	1138.475
214.636	20.038	1480.298	1138.861
215.650	19.928	1479.480	1137.408
216.665	19.972	1477.581	1136.138
217.680	20.029	1477.067	1136.009
218.694	20.054	1476.916	1135.962
219.709	20.195	1476.024	1136.097
220.723	20.194	1474.842	1135.082
221.738	20.090	1473.941	1133.606
222.753	20.158	1472.675	1132.975
223.767	20.118	1471.748	1131.902
224.782	19.936	1470.875	1129.945
225.796	20.066	1470.211	1130.182
226.811	20.252	1469.190	1130.506
227.826	20.291	1468.700	1130.286
228.840	20.233	1467.575	1128.941
229.855	20.026	1466.555	1126.714
230.869	19.950	1465.516	1125.321
231.884	20.013	1464.664	1124.974
232.899	20.013	1463.030	1123.622
233.913	19.898	1462.218	1122.153
234.928	19.779	1460.726	1120.133
235.942	19.772	1459.505	1119.054
236.957	19.774	1457.915	1117.752
237.972	19.780	1456.881	1116.897
238.986	19.774	1455.809	1115.936
240.001	19.791	1454.877	1115.232
241.015	19.780	1453.982	1114.378
242.030	19.868	1452.473	1113.692
243.045	19.906	1451.821	1113.334
244.059	20.055	1451.253	1113.762
245.074	20.089	1450.586	1113.369
246.088	20.028	1449.590	1112.111
247.103	20.187	1448.713	1112.363
248.117	20.234	1448.245	1112.206
249.132	20.368	1447.505	1112.399
250.147	20.433	1447.460	1112.681
251.161	20.662	1446.884	1113.603
252.176	20.899	1446.361	1114.618
253.190	20.922	1445.816	1114.247
254.205	20.855	1445.141	1113.199
255.220	21.061	1444.165	1113.670
256.234	21.025	1443.383	1112.738
257.249	21.071	1442.390	1112.166
258.263	20.892	1442.335	1110.880
259.278	21.051	1440.358	1110.277
260.293	20.898	1440.019	1108.938
261.307	21.002	1438.842	1108.597
262.322	21.019	1438.511	1108.350
263.336	21.052	1438.029	1108.096
264.351	21.133	1436.759	1107.531
265.366	21.193	1435.455	1106.807
266.380	21.248	1434.499	1106.322
267.395	21.206	1433.703	1105.342
268.409	21.164	1432.897	1104.360
269.424	20.999	1431.722	1102.314
270.439	20.948	1430.713	1101.118
271.453	20.966	1429.466	1100.171
272.468	20.921	1428.684	1099.188
273.482	20.810	1427.792	1097.707
274.497	20.817	1427.005	1097.050
275.512	20.731	1425.332	1095.125
276.526	20.779	1425.304	1095.307
277.541	20.777	1423.832	1094.065
278.555	20.801	1423.484	1093.849
279.570	20.861	1422.634	1093.476
280.585	20.887	1421.938	1093.009
281.599	21.172	1420.833	1093.848
282.614	21.136	1420.429	1093.217
283.628	21.067	1418.912	1091.522
284.643	20.952	1417.636	1089.725
285.657	20.957	1416.312	1088.640
286.672	20.982	1415.260	1087.893
287.687	20.906	1414.895	1087.040
288.701	20.915	1413.944	1086.273
289.716	20.916	1413.328	1085.710
290.730	20.997	1412.169	1085.227
291.745	21.070	1410.463	1084.271
292.760	20.966	1410.336	1083.432
293.774	21.017	1409.225	1082.800
294.789	21.115	1407.929	1082.317
295.803	21.166	1407.614	1082.297
296.818	21.289	1406.932	1082.435
297.833	21.219	1405.353	1080.695
298.847	21.024	1404.523	1078.753
299.862	20.984	1403.358	1077.516
300.876	21.000	1403.004	1077.244
301.891	21.024	1401.980	1076.515
302.906	21.179	1400.973	1076.602
303.920	21.259	1400.549	1076.672
304.935	21.238	1399.853	1075.912
305.949	21.456	1399.273	1076.715
306.964	21.566	1398.361	1076.593
307.979	21.537	1397.706	1075.817
308.993	21.502	1396.534	1074.603
310.008	21.429	1395.252	1073.073
311.022	21.395	1394.452	1072.156
312.037	21.537	1393.121	1071.907
313.052	21.620	1392.171	1071.591
314.066	21.498	1391.146	1069.961
315.081	21.318	1389.853	1067.772
316.095	21.197	1388.593	1065.971
317.110	21.083	1387.700	1064.495
318.125	21.047	1386.776	1063.470
319.139	21.104	1385.795	1062.970
320.154	21.102	1384.931	1062.202
321.168	21.024	1384.133	1061.021
322.183	21.084	1382.987	1060.412
323.197	21.046	1382.157	1059.455
324.212	21.127	1381.573	1059.405
325.227	21.193	1380.771	1059.094
326.241	21.231	1379.815	1058.500
327.256	21.305	1379.028	1058.250
328.270	21.234	1378.235	1057.120
329.285	21.293	1376.704	1056.209
330.300	21.264	1376.124	1055.496
331.314	21.250	1375.435	1054.789
332.329	21.255	1374.428	1053.950
333.343	21.201	1373.618	1052.912
334.358	21.182	1373.081	1052.295
335.373	21.278	1372.465	1052.306
336.387	21.441	1371.383	1052.365
337.402	21.515	1370.833	1052.295
338.416	21.557	1370.165	1051.937
339.431	21.576	1369.673	1051.586
340.446	21.704	1368.735	1051.541
341.460	21.730	1367.632	1050.755
342.475	21.874	1366.865	1050.933
343.489	21.941	1366.490	1050.953
344.504	22.074	1365.580	1050.958
345.519	21.915	1364.846	1049.352
346.533	22.096	1363.620	1049.392
347.548	22.092	1362.796	1048.645
348.562	22.213	1361.954	1048.626
349.577	22.178	1361.197	1047.741
350.592	22.097	1360.160	1046.366
351.606	21.782	1359.279	1043.722
352.621	21.742	1357.680	1042.163
353.635	21.584	1356.399	1040.148
354.650	21.575	1355.423	1039.256
355.665	21.550	1354.987	1038.682
356.679	21.664	1353.565	1038.173
357.694	21.681	1352.926	1037.692
358.708	21.747	1351.666	1037.029
359.723	21.797	1350.807	1036.570
360.738	21.975	1349.606	1036.607
361.752	21.870	1348.912	1035.362
362.767	21.924	1347.481	1034.490
363.781	21.953	1346.458	1033.786
364.796	21.930	1346.157	1033.329
365.810	21.981	1345.164	1032.777
366.825	22.089	1344.891	1033.109
367.840	22.301	1343.952	1033.542
368.854	22.342	1343.539	1033.373
369.869	22.429	1343.313	1033.619
370.883	22.527	1342.181	1033.229
371.898	22.378	1341.576	1031.800
372.913	22.347	1340.053	1030.355
373.927	22.272	1339.602	1029.480
374.942	22.252	1338.551	1028.464
375.956	22.353	1338.134	1028.645
376.971	22.419	1337.421	1028.389
377.986	22.346	1336.317	1027.024
379.000	22.372	1335.520	1026.471
380.015	22.496	1334.934	1026.652
381.029	22.578	1334.295	1026.547
382.044	22.627	1333.750	1026.323
383.059	22.605	1333.291	1025.751
384.073	22.589	1332.619	1025.053
385.088	22.655	1331.273	1024.310
386.102	22.619	1330.882	1023.706
387.117	22.580	1330.174	1022.847
388.132	22.511	1329.464	1021.810
389.146	22.283	1328.117	1019.361
390.161	22.294	1327.529	1018.885
391.175	22.196	1326.492	1017.430
392.190	22.232	1325.614	1016.876
393.205	22.304	1324.845	1016.615
394.219	22.474	1324.075	1016.915
395.234	22.507	1323.275	1016.400
396.248	22.492	1321.538	1014.887
397.263	22.311	1319.981	1012.562
398.278	22.338	1319.097	1011.952
399.292	22.315	1317.542	1010.535
400.307	22.207	1316.412	1008.961
401.321	22.112	1315.421	1007.563
402.336	22.018	1314.392	1006.149
403.350	22.168	1313.005	1005.856
404.365	22.096	1312.166	1004.715
405.380	22.154	1311.464	1004.417
406.394	22.184	1310.892	1004.063
407.409	22.305	1310.112	1004.068
408.423	22.431	1309.669	1004.357
409.438	22.593	1308.789	1004.518
410.453	22.756	1307.835	1004.625
411.467	22.833	1307.399	1004.638
412.482	22.903	1307.139	1004.746
413.496	22.880	1306.722	1004.210
414.511	22.909	1306.008	1003.737
415.526	22.985	1305.183	1003.442
416.540	23.051	1304.266	1003.023
417.555	23.101	1303.952	1002.978
418.569	23.172	1303.435	1002.894
419.584	23.002	1302.954	1001.475
420.599	23.054	1301.697	1000.710
421.613	144.529	1432.623	1792.630
422.628	139.981	1451.702	1792.744
