DTS Sentinel unit serial number:	SN413079Multiplexer serial number:	ORYXHardware model number:	OX4-SRSoftware version number:	ORYX F/W v4.00 Oryx Data Collector v3.7.2.0data status	okinstallation	princeton_trtdifferential loss correction	single-endedforward channel	channel 4reverse channel	N/Adate	2019/09/18time	19:13:35forward acquisition time	60.00reverse acquisition time	0.00gamma	496.2192k internal	0.2308k external	0.2308temperature offset calibration	1.0039default loss term (dB/km)	0.3790temperature slope calibration	1.0000multiplexer offset coefficient	1.0000multiplexer slope coefficient	1.0000fibre end	0.00T internal ref (°C)	34.61T ext. ref 1 (°C)	1.17T ext. ref 2 (°C)	23.90length (m)	temperature (°C)	Stokes	anti-Stokes-747.200	99.349	0.103	-0.121
-746.185	-200.000	0.018	0.135
-745.171	52.645	0.326	-0.316
-744.156	-35.553	-0.044	-0.024
-743.142	146.336	-0.055	-0.075
-742.127	-12.569	-0.214	-0.142
-741.112	145.236	-0.115	-0.157
-740.098	438.125	0.108	0.240
-739.083	-116.681	-0.196	0.037
-738.069	403.236	-0.152	0.325
-737.054	72.377	-0.197	0.208
-736.039	-64.496	-0.457	-0.189
-735.025	11.520	-0.159	0.124
-734.010	36.581	-0.043	0.038
-732.996	-200.000	0.003	0.030
-731.981	-11.312	0.075	0.050
-730.966	800.000	0.072	-0.301
-729.952	-56.998	0.088	-0.040
-728.937	-200.000	0.002	-0.149
-727.923	-153.525	-0.073	-0.005
-726.908	26.849	-0.021	0.018
-725.894	-49.395	-0.227	-0.110
-724.879	-43.894	-0.468	-0.239
-723.864	-4.466	0.149	-0.104
-722.850	72.752	-0.277	0.294
-721.835	752.853	-0.043	-0.118
-720.821	71.915	0.207	-0.219
-719.806	25.624	0.044	0.037
-718.791	-82.798	0.211	0.069
-717.777	-128.036	0.299	-0.044
-716.762	800.000	0.103	-0.430
-715.748	800.000	-0.078	0.316
-714.733	-166.625	-0.255	-0.011
-713.718	13.214	-0.215	-0.169
-712.704	564.913	0.166	0.408
-711.689	-109.460	-0.200	0.043
-710.675	306.620	-0.108	0.203
-709.660	800.000	0.065	-0.254
-708.645	-17.708	0.249	-0.159
-707.631	-148.984	0.206	-0.017
-706.616	56.403	-0.217	-0.214
-705.602	-200.000	0.021	-0.105
-704.587	800.000	-0.116	-0.425
-703.572	-138.573	-0.038	0.004
-702.558	4.235	-0.069	0.051
-701.543	345.664	-0.041	0.081
-700.529	-29.775	-0.353	0.204
-699.514	58.107	0.270	0.268
-698.499	-72.401	0.166	0.062
-697.485	-190.293	-0.369	-0.004
-696.470	-200.000	0.048	0.298
-695.456	-153.348	0.192	0.014
-694.441	226.066	-0.211	-0.346
-693.426	124.209	0.029	-0.037
-692.412	-200.000	0.005	0.042
-691.397	-78.135	0.285	-0.099
-690.383	800.000	0.061	0.178
-689.368	-122.186	-0.218	0.036
-688.354	-138.519	-0.166	-0.018
-687.339	800.000	-0.063	0.181
-686.324	800.000	-0.128	-0.434
-685.310	547.843	0.082	0.200
-684.295	-200.000	-0.077	0.382
-683.281	124.584	-0.153	0.195
-682.266	11.036	0.366	-0.283
-681.251	-200.000	0.010	-0.235
-680.237	-200.000	-0.005	0.148
-679.222	214.238	0.053	0.084
-678.208	-200.000	0.022	0.172
-677.193	-128.830	-0.223	-0.032
-676.178	11.023	-0.164	-0.127
-675.164	-162.153	-0.195	-0.010
-674.149	140.572	0.085	-0.114
-673.135	-121.556	-0.100	-0.017
-672.120	-46.472	-0.188	0.094
-671.105	93.585	0.139	-0.160
-670.091	111.130	0.123	-0.150
-669.076	19.182	-0.038	-0.031
-668.062	220.111	-0.131	-0.213
-667.047	-145.412	0.036	0.003
-666.032	103.473	0.059	-0.070
-665.018	-14.819	-0.175	-0.114
-664.003	-94.448	0.078	-0.022
-662.989	-200.000	0.001	0.068
-661.974	-75.514	0.134	-0.048
-660.959	16.972	-0.243	0.195
-659.945	-60.686	0.142	-0.061
-658.930	213.719	-0.088	0.141
-657.916	108.290	0.142	0.171
-656.901	73.266	0.132	0.140
-655.886	-200.000	-0.059	-0.270
-654.872	800.000	0.039	-0.161
-653.857	-200.000	0.016	0.172
-652.843	-17.271	-0.227	-0.145
-651.828	-11.302	0.254	-0.169
-650.814	465.302	-0.087	-0.198
-649.799	800.000	0.036	-0.155
-648.784	-200.000	0.004	0.060
-647.770	800.000	0.027	0.088
-646.755	102.537	0.170	0.201
-645.741	-200.000	0.036	0.205
-644.726	-200.000	0.063	-0.287
-643.711	-82.313	0.192	-0.063
-642.697	-92.958	0.074	0.021
-641.682	-200.000	0.053	-0.338
-640.668	-13.173	-0.205	0.135
-639.653	647.572	0.113	0.294
-638.638	8.129	-0.266	0.202
-637.624	-108.561	-0.480	-0.104
-636.609	716.195	-0.033	-0.088
-635.595	-117.315	0.172	0.032
-634.580	568.016	-0.133	-0.327
-633.565	-200.000	0.058	-0.358
-632.551	495.316	-0.061	-0.142
-631.536	-135.831	-0.248	-0.030
-630.522	-153.609	0.260	0.018
-629.507	800.000	-0.074	0.220
-628.492	-167.336	0.214	-0.009
-627.478	82.379	-0.185	0.203
-626.463	800.000	0.069	-0.240
-625.449	128.993	0.044	0.056
-624.434	9.816	0.048	0.037
-623.419	-182.615	-0.366	-0.007
-622.405	1.649	0.188	0.137
-621.390	589.428	0.097	-0.243
-620.376	216.537	0.198	0.318
-619.361	-200.000	-0.062	0.408
-618.346	-106.950	-0.088	-0.020
-617.332	800.000	-0.075	-0.227
-616.317	-78.553	-0.311	0.108
-615.303	655.998	-0.068	0.176
-614.288	800.000	-0.017	-0.070
-613.273	-200.000	0.038	-0.181
-612.259	-200.000	0.005	0.029
-611.244	-69.557	0.202	0.078
-610.230	259.771	0.119	0.208
-609.215	-106.393	-0.355	0.080
-608.201	53.277	0.168	-0.163
-607.186	-9.872	0.113	-0.076
-606.171	-86.994	0.108	-0.033
-605.157	110.816	0.164	-0.200
-604.142	-120.524	0.337	0.058
-603.128	84.574	0.122	0.135
-602.113	-82.487	0.236	-0.078
-601.098	316.953	-0.057	-0.109
-600.084	-67.113	0.235	-0.094
-599.069	257.060	-0.097	0.169
-598.055	-200.000	0.015	-0.253
-597.040	68.849	-0.056	0.058
-596.025	460.384	0.037	-0.083
-595.011	169.914	0.239	-0.345
-593.996	-162.774	0.229	0.011
-592.982	800.000	0.023	-0.094
-591.967	-45.852	0.320	-0.159
-590.952	33.694	-0.460	-0.404
-589.938	-74.195	-0.178	-0.065
-588.923	-200.000	-0.005	-0.265
-587.909	193.045	0.122	-0.186
-586.894	-200.000	-0.060	0.299
-585.879	-57.431	-0.276	0.122
-584.865	-200.000	-0.033	-0.149
-583.850	-11.697	-0.086	-0.057
-582.836	21.915	-0.135	0.111
-581.821	254.642	-0.167	-0.288
-580.806	-200.000	0.047	0.217
-579.792	-84.845	-0.349	0.111
-578.777	23.094	-0.373	-0.309
-577.763	187.999	-0.202	-0.305
-576.748	79.382	0.169	-0.183
-575.733	1.016	0.102	0.074
-574.719	75.678	-0.121	-0.129
-573.704	-200.000	0.012	-0.181
-572.690	-140.050	0.105	0.011
-571.675	49.878	-0.035	-0.033
-570.661	-12.153	-0.118	0.078
-569.646	-59.194	-0.318	0.138
-568.631	74.897	0.189	0.201
-567.617	229.936	0.067	-0.111
-566.602	261.538	-0.253	0.442
-565.588	-54.345	0.271	0.124
-564.573	-200.000	0.023	0.157
-563.558	-65.390	-0.189	0.077
-562.544	-101.074	-0.244	-0.060
-561.529	-131.829	0.086	-0.011
-560.515	82.202	0.161	-0.177
-559.500	-200.000	0.003	-0.236
-558.485	-95.388	-0.118	-0.032
-557.471	-11.673	-0.154	0.102
-556.456	767.709	0.063	-0.173
-555.442	-118.196	-0.498	-0.090
-554.427	-167.632	0.365	-0.015
-553.412	-47.761	0.342	0.167
-552.398	76.799	0.209	-0.224
-551.383	72.578	-0.065	-0.068
-550.369	-149.581	0.198	0.016
-549.354	-23.304	0.096	0.058
-548.339	-144.242	-0.106	0.010
-547.325	-89.687	-0.189	-0.056
-546.310	-36.025	0.155	-0.084
-545.296	51.235	-0.044	0.042
-544.281	-172.444	-0.298	0.010
-543.266	90.249	-0.229	0.258
-542.252	800.000	-0.040	-0.172
-541.237	14.770	0.361	0.285
-540.223	-34.046	-0.220	0.122
-539.208	39.791	-0.251	0.227
-538.193	-97.178	0.307	0.081
-537.179	-47.973	0.142	0.069
-536.164	-74.059	-0.448	-0.164
-535.150	178.900	-0.160	0.235
-534.135	-72.148	-0.219	-0.082
-533.121	-66.294	-0.188	0.075
-532.106	705.489	0.041	0.110
-531.091	-74.621	0.204	-0.074
-530.077	-33.787	-0.306	-0.170
-529.062	-200.000	0.027	0.155
-528.048	-155.963	-0.325	0.021
-527.033	-200.000	-0.004	-0.076
-526.018	35.784	0.133	0.118
-525.004	-19.435	-0.272	0.170
-523.989	221.783	-0.128	-0.208
-522.975	464.006	-0.070	-0.159
-521.960	-200.000	0.003	-0.024
-520.945	4.796	0.088	-0.065
-519.931	16.388	0.195	-0.155
-518.916	800.000	0.120	-0.386
-517.902	-200.000	-0.012	-0.080
-516.887	-68.640	0.253	0.099
-515.872	38.270	0.162	-0.145
-514.858	800.000	-0.079	0.273
-513.843	3.653	0.171	0.126
-512.829	-50.794	-0.262	0.124
-511.814	126.011	0.187	-0.238
-510.799	-115.626	-0.334	0.063
-509.785	253.394	0.058	-0.099
-508.770	241.846	-0.056	-0.095
-507.756	800.000	0.055	0.199
-506.741	337.190	-0.282	0.552
-505.726	276.023	0.140	0.250
-504.712	18.594	0.345	-0.278
-503.697	-200.000	0.153	0.000
-502.683	438.322	0.131	0.289
-501.668	12.569	-0.169	0.131
-500.653	21.156	-0.253	-0.206
-499.639	114.412	0.187	-0.229
-498.624	74.942	-0.222	0.235
-497.610	6.069	0.189	-0.141
-496.595	190.060	-0.285	-0.431
-495.581	800.000	-0.016	0.062
-494.566	-107.904	-0.082	-0.018
-493.551	-200.000	0.042	-0.291
-492.537	581.654	-0.068	0.167
-491.522	800.000	0.058	0.227
-490.508	-30.108	-0.195	-0.112
-489.493	-200.000	-0.011	-0.077
-488.478	194.843	0.028	0.043
-487.464	-69.395	-0.120	0.046
-486.449	-46.764	-0.342	-0.168
-485.435	-42.939	-0.136	0.069
-484.420	800.000	0.073	-0.256
-483.405	59.771	-0.182	-0.181
-482.391	-46.534	-0.063	-0.031
-481.376	236.283	-0.089	0.148
-480.362	-141.197	-0.364	-0.037
-479.347	705.929	0.028	0.074
-478.332	-108.775	-0.474	0.102
-477.318	98.466	-0.192	0.222
-476.303	-146.359	0.256	-0.023
-475.289	120.010	0.105	0.131
-474.274	249.805	0.103	-0.176
-473.259	-104.038	-0.041	0.010
-472.245	138.468	-0.169	-0.223
-471.230	149.287	0.170	-0.231
-470.216	-200.000	-0.042	-0.345
-469.201	-190.813	-0.145	0.002
-468.186	61.871	0.053	-0.054
-467.172	-200.000	0.020	-0.282
-466.157	-72.410	0.133	0.049
-465.143	-105.398	0.151	-0.035
-464.128	-200.000	-0.043	0.310
-463.113	396.672	0.114	-0.239
-462.099	-1.187	0.080	0.057
-461.084	-200.000	-0.016	-0.078
-460.070	-200.000	-0.045	-0.378
-459.055	-200.000	0.019	0.153
-458.040	-200.000	-0.027	-0.276
-457.026	10.017	-0.045	0.034
-456.011	-141.000	-0.365	-0.038
-454.997	0.661	-0.305	-0.220
-453.982	-112.418	-0.238	0.048
-452.968	-200.000	-0.033	-0.382
-451.953	162.187	0.249	-0.351
-450.938	800.000	0.088	0.280
-449.924	227.388	-0.141	-0.230
-448.909	-76.686	-0.204	-0.072
-447.895	-47.648	0.338	-0.165
-446.880	384.988	0.049	-0.102
-445.865	-67.429	0.424	0.167
-444.851	-11.354	0.299	0.198
-443.836	-5.930	-0.160	0.110
-442.822	800.000	0.068	0.223
-441.807	-45.158	0.067	-0.033
-440.792	800.000	0.117	0.330
-439.778	-21.878	0.133	-0.081
-438.763	126.369	-0.226	-0.288
-437.749	-71.859	-0.263	0.099
-436.734	7.770	0.159	0.120
-435.719	-26.720	0.200	-0.118
-434.705	-81.585	-0.073	0.024
-433.690	-98.305	-0.138	0.035
-432.676	12.248	-0.349	-0.270
-431.661	428.274	-0.068	0.148
-430.646	-130.065	0.206	0.028
-429.632	15.273	0.316	0.249
-428.617	800.000	-0.078	-0.272
-427.603	-47.659	-0.130	-0.063
-426.588	-128.179	0.162	0.023
-425.573	800.000	0.097	-0.323
-424.559	-200.000	-0.010	0.313
-423.544	339.171	-0.069	0.135
-422.530	-145.387	0.237	0.021
-421.515	-200.000	0.035	-0.220
-420.500	-35.988	0.308	-0.167
-419.486	800.000	-0.044	-0.162
-418.471	-181.284	-0.115	0.002
-417.457	179.355	0.239	0.351
-416.442	-156.892	0.276	-0.017
-415.428	-14.094	0.065	-0.042
-414.413	-51.178	-0.134	-0.063
-413.398	-57.371	0.301	0.133
-412.384	-37.389	0.245	-0.131
-411.369	800.000	-0.077	0.332
-410.355	-3.159	0.102	-0.071
-409.340	-200.000	-0.125	0.629
-408.325	-121.712	-0.335	0.056
-407.311	-147.489	0.330	0.028
-406.296	-200.000	-0.029	-0.241
-405.282	405.134	-0.048	0.102
-404.267	-42.966	0.451	0.230
-403.252	164.332	0.102	0.144
-402.238	83.308	0.132	0.145
-401.223	800.000	-0.069	0.194
-400.209	-46.330	-0.108	0.053
-399.194	-71.906	-0.054	-0.020
-398.179	800.000	0.077	0.221
-397.165	13.683	0.264	0.205
-396.150	-116.726	-0.082	0.015
-395.136	-101.383	0.215	-0.052
-394.121	-128.513	-0.242	-0.034
-393.106	-155.103	-0.155	-0.010
-392.092	242.967	-0.076	0.127
-391.077	-200.000	-0.008	0.229
-390.063	800.000	0.081	0.227
-389.048	-200.000	-0.001	0.067
-388.033	800.000	0.037	0.107
-387.019	179.967	-0.114	0.167
-386.004	307.049	-0.020	-0.037
-384.990	8.104	0.030	0.023
-383.975	207.201	-0.058	0.091
-382.960	-53.482	0.405	0.186
-381.946	129.788	0.320	-0.410
-380.931	129.509	-0.106	-0.136
-379.917	623.615	-0.116	-0.293
-378.902	-200.000	0.031	0.308
-377.888	81.011	-0.115	0.125
-376.873	278.275	-0.046	-0.082
-375.858	-78.786	0.348	0.119
-374.844	-67.873	-0.302	-0.118
-373.829	-73.981	-0.064	0.023
-372.815	130.301	0.170	-0.218
-371.800	14.616	0.148	0.116
-370.785	-103.471	0.215	0.051
-369.771	199.576	0.130	0.200
-368.756	-101.475	-0.144	-0.035
-367.742	800.000	-0.050	-0.151
-366.727	319.300	0.143	0.271
-365.712	-200.000	0.027	-0.274
-364.698	661.719	0.073	-0.190
-363.683	58.471	-0.194	0.191
-362.669	126.630	0.195	0.247
-361.654	68.771	-0.177	0.182
-360.639	-73.536	0.171	0.063
-359.625	-200.000	0.017	0.206
-358.610	269.742	0.078	0.137
-357.596	43.040	-0.126	-0.115
-356.581	-200.000	0.035	0.632
-355.566	311.206	-0.163	0.306
-354.552	-84.894	0.190	-0.060
-353.537	127.330	-0.096	0.122
-352.523	-131.365	-0.473	-0.063
-351.508	-40.159	0.390	-0.203
-350.493	124.080	-0.144	0.181
-349.479	-50.028	-0.084	-0.040
-348.464	-76.514	0.148	0.052
-347.450	94.069	0.067	0.076
-346.435	-200.000	-0.033	0.367
-345.420	-168.695	0.147	-0.006
-344.406	497.371	-0.064	0.148
-343.391	800.000	0.025	-0.094
-342.377	141.590	0.196	-0.260
-341.362	-151.340	0.196	-0.015
-340.348	-6.199	0.319	-0.218
-339.333	-200.000	0.279	-0.000
-338.318	287.897	0.148	-0.268
-337.304	115.473	-0.073	-0.089
-336.289	212.013	0.160	0.252
-335.275	18.382	-0.356	0.284
-334.260	-200.000	-0.019	-0.272
-333.245	-160.077	-0.404	0.022
-332.231	-200.000	-0.019	-0.085
-331.216	800.000	-0.055	0.157
-330.202	-148.602	-0.288	0.023
-329.187	251.576	0.133	0.227
-328.172	-151.045	-0.142	0.011
-327.158	263.388	0.079	0.137
-326.143	171.018	0.101	-0.145
-325.129	-112.934	0.056	-0.011
-324.114	-78.277	-0.036	-0.012
-323.099	62.100	-0.192	0.192
-322.085	-200.000	-0.082	0.367
-321.070	-19.473	-0.065	-0.040
-320.056	155.964	-0.160	0.220
-319.041	19.420	0.247	0.199
-318.026	-138.997	0.156	0.017
-317.012	6.538	-0.130	0.096
-315.997	179.867	-0.078	0.115
-314.983	800.000	0.095	-0.264
-313.968	-179.627	-0.118	0.003
-312.953	22.272	0.107	-0.087
-311.939	-60.686	-0.026	0.011
-310.924	356.397	0.037	-0.074
-309.910	-60.499	-0.110	-0.047
-308.895	-114.353	-0.153	0.029
-307.880	8.356	-0.068	0.051
-306.866	-23.222	-0.042	0.025
-305.851	-130.756	-0.331	-0.044
-304.837	-114.321	0.534	0.103
-303.822	-12.015	0.238	-0.156
-302.807	-91.628	0.299	-0.085
-301.793	647.305	-0.036	0.092
-300.778	-7.084	-0.077	-0.052
-299.764	318.233	0.174	-0.329
-298.749	-200.000	-0.041	-0.354
-297.735	-200.000	-0.005	0.358
-296.720	203.631	0.204	0.316
-295.705	-39.077	0.177	-0.093
-294.691	-200.000	0.021	0.136
-293.676	-28.301	-0.179	0.103
-292.662	-53.855	0.127	0.058
-291.647	-18.297	0.046	-0.028
-290.632	800.000	-0.067	-0.198
-289.618	-72.833	0.187	0.069
-288.603	-106.313	-0.107	-0.024
-287.589	-200.000	0.015	-0.099
-286.574	-84.408	0.190	-0.060
-285.559	67.382	0.128	0.130
-284.545	-40.759	0.058	-0.030
-283.530	175.439	-0.063	0.092
-282.516	-36.599	0.147	-0.079
-281.501	-200.000	-0.024	0.160
-280.486	258.855	-0.047	0.081
-279.472	-200.000	-0.030	0.251
-278.457	61.002	0.131	-0.130
-277.443	-83.914	0.140	0.044
-276.428	-200.000	0.006	-0.036
-275.413	-27.892	0.234	-0.135
-274.399	208.942	0.192	0.300
-273.384	-51.608	-0.203	0.095
-272.370	219.316	-0.101	0.162
-271.355	-200.000	0.003	0.175
-270.340	-117.858	-0.439	-0.079
-269.326	-33.312	0.059	-0.032
-268.311	59.554	0.058	-0.057
-267.297	21.296	0.162	0.131
-266.282	286.393	0.058	-0.104
-265.267	-67.685	-0.175	0.068
-264.253	213.328	-0.079	-0.124
-263.238	-64.982	0.349	-0.141
-262.224	113.320	-0.053	-0.064
-261.209	6.001	-0.185	-0.137
-260.195	481.896	-0.183	-0.415
-259.180	407.597	0.109	-0.230
-258.165	-88.690	0.248	-0.074
-257.151	800.000	0.088	-0.286
-256.136	-15.462	0.205	0.130
-255.122	-13.936	-0.242	-0.156
-254.107	2.761	-0.030	-0.022
-253.092	196.656	-0.090	-0.137
-252.078	205.470	0.127	0.196
-251.063	574.131	-0.126	0.307
-250.049	28.574	-0.129	-0.109
-249.034	-91.260	-0.385	0.110
-248.019	-156.635	0.222	0.014
-247.005	399.731	-0.147	0.307
-245.990	484.020	0.113	0.257
-244.976	85.143	0.180	0.197
-243.961	-157.274	-0.329	-0.020
-242.946	-40.745	0.143	0.074
-241.932	46.371	-0.056	0.052
-240.917	-200.000	-0.038	-0.315
-239.903	-101.744	0.276	0.067
-238.888	-165.487	-0.124	0.005
-237.873	650.764	-0.065	-0.167
-236.859	-18.610	-0.335	0.208
-235.844	-49.323	-0.179	-0.085
-234.830	-175.340	-0.460	-0.013
-233.815	228.102	-0.212	0.344
-232.800	92.328	-0.187	-0.210
-231.786	-200.000	0.033	-0.270
-230.771	622.279	-0.054	0.135
-229.757	-200.000	0.035	-0.161
-228.742	-200.000	-0.063	-0.302
-227.727	185.306	0.119	0.176
-226.713	36.777	-0.202	-0.178
-225.698	1.633	-0.100	-0.072
-224.684	576.499	0.135	-0.329
-223.669	110.711	0.164	0.196
-222.655	-111.284	0.114	0.023
-221.640	-142.421	-0.120	-0.012
-220.625	493.666	0.148	-0.339
-219.611	-200.000	0.072	-0.340
-218.596	-25.888	0.135	-0.079
-217.582	220.198	-0.179	0.286
-216.567	54.648	0.318	-0.305
-215.552	-112.895	-0.129	-0.025
-214.538	-200.000	0.023	-0.458
-213.523	-160.926	-0.550	0.029
-212.509	-25.194	0.305	-0.180
-211.494	-200.000	-0.026	-0.233
-210.479	-200.000	0.021	0.134
-209.465	-200.000	0.007	-0.139
-208.450	-200.000	-0.023	-0.202
-207.436	192.553	0.082	0.123
-206.421	307.657	0.065	-0.121
-205.406	61.214	0.112	0.111
-204.392	-135.114	0.412	-0.049
-203.377	-167.637	0.231	-0.009
-202.363	28.666	-0.139	-0.117
-201.348	192.764	0.145	0.218
-200.333	-50.198	-0.289	0.136
-199.319	100.806	0.262	0.303
-198.304	2.000	0.134	-0.097
-197.290	-30.030	-0.340	0.192
-196.275	-200.000	0.049	0.306
-195.260	-200.000	0.042	0.277
-194.246	800.000	0.040	-0.143
-193.231	184.727	-0.138	-0.203
-192.217	-200.000	0.072	-0.412
-191.202	23.916	-0.219	-0.180
-190.187	72.446	-0.144	-0.149
-189.173	-156.112	0.192	0.012
-188.158	-200.000	-0.003	-0.392
-187.144	736.307	0.104	0.276
-186.129	156.493	0.143	0.196
-185.114	48.143	0.097	0.090
-184.100	281.792	0.177	0.316
-183.085	98.938	-0.170	0.196
-182.071	133.448	-0.151	0.194
-181.056	244.429	0.115	0.192
-180.042	-118.216	0.169	-0.030
-179.027	-6.285	-0.161	-0.109
-178.012	40.321	-0.078	-0.070
-176.998	324.826	0.054	-0.102
-175.983	594.483	-0.074	-0.182
-174.969	520.588	0.097	0.226
-173.954	221.314	0.099	0.158
-172.939	800.000	-0.040	-0.110
-171.925	693.710	-0.088	-0.229
-170.910	-50.256	-0.052	-0.024
-169.896	-59.629	0.113	0.048
-168.881	-156.125	-0.070	-0.004
-167.866	-200.000	0.018	-0.203
-166.852	-200.000	-0.039	-0.282
-165.837	-130.522	-0.099	0.013
-164.823	699.110	-0.053	0.137
-163.808	486.994	0.045	-0.103
-162.793	-200.000	-0.011	0.149
-161.779	800.000	0.092	0.258
-160.764	-179.669	-0.244	0.005
-159.750	-200.000	0.003	0.225
-158.735	-44.246	-0.129	0.064
-157.720	-21.922	-0.103	0.062
-156.706	800.000	0.054	-0.226
-155.691	89.505	0.139	0.154
-154.677	53.111	-0.105	0.100
-153.662	-126.372	0.268	0.040
-152.647	-87.239	0.245	-0.074
-151.633	-33.031	-0.281	-0.155
-150.618	142.243	-0.099	0.131
-149.604	-34.541	-0.121	0.066
-148.589	-99.043	-0.251	-0.063
-147.574	69.491	-0.197	-0.201
-146.560	51.498	-0.180	-0.170
-145.545	-17.017	0.196	0.123
-144.531	-200.000	-0.009	-0.225
-143.516	199.162	0.212	-0.322
-142.502	-200.000	-0.025	-0.392
-141.487	317.838	0.106	-0.198
-140.472	-200.000	-0.001	0.137
-139.458	286.650	-0.109	0.196
-138.443	149.877	-0.200	0.270
-137.429	79.562	-0.053	0.057
-136.414	126.688	0.112	0.140
-135.399	-33.921	0.328	0.179
-134.385	800.000	-0.074	0.291
-133.370	21.277	0.063	0.051
-132.356	-23.442	0.181	0.108
-131.341	89.954	0.207	-0.229
-130.326	174.631	0.173	0.248
-129.312	-85.133	0.070	0.022
-128.297	20.558	0.036	0.029
-127.283	-12.557	0.010	-0.007
-126.268	176.628	0.180	-0.260
-125.253	270.581	0.076	-0.133
-124.239	-35.581	0.303	0.163
-123.224	-34.234	-0.177	0.096
-122.210	-123.965	-0.248	-0.039
-121.195	14.853	0.349	0.271
-120.180	-200.000	0.011	0.371
-119.166	-35.219	-0.240	-0.130
-118.151	235.904	0.083	0.137
-117.137	-122.959	-0.086	0.014
-116.122	-80.746	-0.145	0.048
-115.107	-111.000	0.275	0.056
-114.093	6.520	0.078	-0.057
-113.078	-22.873	0.028	-0.017
-112.064	-200.000	0.016	0.151
-111.049	-0.990	0.103	-0.072
-110.034	199.204	0.077	-0.117
-109.020	-57.732	-0.035	0.015
-108.005	-28.455	-0.187	-0.107
-106.991	-200.000	-0.036	0.193
-105.976	16.343	-0.158	-0.124
-104.962	-32.709	0.090	-0.050
-103.947	800.000	0.066	0.232
-102.932	43.773	0.048	0.043
-101.918	167.839	-0.047	0.067
-100.903	-200.000	-0.030	-0.170
-99.889	-167.959	-0.186	-0.007
-98.874	-24.437	0.150	-0.089
-97.859	5.771	0.069	-0.050
-96.845	400.726	0.053	-0.111
-95.830	-8.301	-0.185	-0.123
-94.816	90.058	0.047	0.052
-93.801	-200.000	0.055	-0.430
-92.786	-103.358	0.301	-0.070
-91.772	-82.645	0.144	-0.046
-90.757	-96.373	-0.241	-0.063
-89.743	-110.671	0.418	-0.086
-88.728	-200.000	-0.029	0.187
-87.713	233.958	-0.102	0.166
-86.699	173.809	0.043	-0.062
-85.684	-65.563	0.156	-0.062
-84.670	800.000	0.042	-0.125
-83.655	234.521	0.059	-0.096
-82.640	-165.826	-0.232	-0.010
-81.626	-32.822	0.324	0.179
-80.611	-200.000	0.030	0.142
-79.597	-133.097	0.292	0.037
-78.582	-102.127	-0.336	0.080
-77.567	-77.998	0.310	-0.106
-76.553	-110.495	-0.041	0.008
-75.538	11.232	-0.158	0.120
-74.524	-12.414	0.431	0.279
-73.509	491.202	0.011	0.026
-72.494	800.000	0.020	-0.057
-71.480	-154.220	-0.239	-0.016
-70.465	97.270	0.161	-0.183
-69.451	91.743	0.253	-0.282
-68.436	-98.636	0.030	0.007
-67.422	24.191	0.152	0.124
-66.407	30.401	0.145	-0.122
-65.392	492.293	0.056	0.126
-64.378	-26.759	0.145	0.084
-63.363	-69.743	0.170	-0.064
-62.349	99.070	0.145	0.166
-61.334	68.579	-0.949	-0.963
-60.319	98.764	0.290	0.331
-59.305	537.029	-0.373	-0.878
-58.290	217.857	0.500	0.789
-57.276	244.737	0.691	1.149
-56.261	-200.000	93.053	565.055
-55.246	549.118	1376.882	3264.702
-54.232	155.606	2567.493	3498.617
-53.217	104.208	2320.710	2701.028
-52.203	41.274	2078.446	1859.185
-51.188	36.499	1991.942	1738.902
-50.173	34.856	1973.832	1708.355
-49.159	49.442	2021.806	1882.028
-48.144	51.159	2039.658	1914.094
-47.130	36.997	2002.201	1752.080
-46.115	34.665	1991.959	1722.053
-45.100	34.565	1988.900	1718.435
-44.086	34.530	1986.457	1715.945
-43.071	34.455	1984.220	1713.268
-42.057	34.411	1981.453	1710.417
-41.042	34.439	1979.860	1709.227
-40.027	34.533	1977.683	1708.120
-39.013	34.490	1976.335	1706.503
-37.998	34.543	1974.439	1705.272
-36.984	34.594	1972.448	1703.940
-35.969	34.543	1970.408	1701.655
-34.954	34.578	1968.683	1700.411
-33.940	34.572	1967.405	1699.180
-32.925	34.638	1965.691	1698.221
-31.911	34.642	1964.032	1696.757
-30.896	34.665	1962.279	1695.382
-29.881	34.577	1961.389	1693.760
-28.867	34.659	1959.495	1692.788
-27.852	34.739	1957.014	1691.280
-26.838	34.701	1955.550	1689.619
-25.823	34.641	1953.639	1687.372
-24.809	34.605	1952.334	1685.856
-23.794	34.622	1950.716	1684.542
-22.779	34.553	1948.553	1681.997
-21.765	34.608	1946.999	1681.072
-20.750	34.635	1945.264	1679.744
-19.736	34.709	1943.262	1678.601
-18.721	34.697	1942.240	1677.550
-17.706	34.679	1940.220	1675.578
-16.692	34.650	1938.757	1673.998
-15.677	34.680	1937.150	1672.805
-14.663	34.734	1935.310	1671.621
-13.648	34.669	1934.466	1670.255
-12.633	34.548	1933.442	1668.251
-11.619	34.596	1931.895	1667.270
-10.604	34.638	1930.318	1666.202
-9.590	34.567	1928.955	1664.347
-8.575	34.595	1927.476	1663.243
-7.560	34.547	1926.741	1662.124
-6.546	34.491	1924.993	1660.068
-5.531	34.560	1923.652	1659.444
-4.517	34.571	1922.426	1658.415
-3.502	34.593	1921.156	1657.446
-2.487	34.618	1920.153	1656.732
-1.473	34.500	1920.081	1655.577
-0.458	34.542	1914.290	1650.886
0.556	32.716	1891.597	1611.892
1.571	26.247	1866.953	1535.953
2.586	20.327	1884.430	1499.221
3.600	18.450	1917.287	1508.722
4.615	17.849	1911.807	1498.993
5.629	14.144	1814.830	1391.882
6.644	6.311	1698.129	1240.723
7.659	1.700	1660.114	1177.245
8.673	1.240	1656.947	1171.340
9.688	1.196	1655.425	1169.824
10.702	1.174	1653.973	1168.527
11.717	1.070	1650.725	1165.331
12.731	1.458	1650.404	1167.980
13.746	6.973	1661.656	1218.426
14.761	14.539	1676.592	1287.888
15.775	17.700	1681.441	1315.937
16.790	17.693	1679.870	1314.536
17.804	16.836	1676.498	1305.189
18.819	15.860	1673.339	1295.108
19.834	15.279	1670.733	1288.509
20.848	14.950	1669.631	1285.018
21.863	14.674	1667.929	1281.480
22.877	14.453	1666.617	1278.665
23.892	14.242	1664.823	1275.553
24.907	14.077	1663.940	1273.505
25.921	14.027	1662.703	1272.059
26.936	14.075	1661.292	1271.232
27.950	14.078	1660.686	1270.683
28.965	14.183	1659.923	1270.788
29.980	14.227	1659.403	1270.611
30.994	14.238	1658.310	1269.751
32.009	14.346	1657.358	1269.726
33.023	14.290	1656.875	1268.820
34.038	14.342	1655.652	1268.167
35.053	14.303	1654.979	1267.245
36.067	14.292	1653.871	1266.198
37.082	14.333	1652.269	1265.172
38.096	14.218	1652.108	1264.066
39.111	14.238	1651.103	1263.332
40.126	14.339	1649.917	1263.080
41.140	14.247	1649.347	1261.833
42.155	14.258	1647.574	1260.453
43.169	14.197	1646.536	1259.083
44.184	14.140	1645.329	1257.619
45.199	14.109	1644.031	1256.280
46.213	14.066	1643.225	1255.228
47.228	14.103	1642.029	1254.482
48.242	14.178	1640.803	1254.000
49.257	14.263	1639.341	1253.413
50.271	14.190	1638.468	1252.088
51.286	14.123	1637.236	1250.530
52.301	14.159	1636.103	1249.820
53.315	14.152	1634.558	1248.478
54.330	14.086	1633.199	1246.840
55.344	14.213	1631.183	1246.135
56.359	14.142	1629.857	1244.484
57.374	14.135	1628.771	1243.489
58.388	14.136	1627.728	1242.593
59.403	14.086	1626.307	1241.022
60.417	14.067	1624.865	1239.672
61.432	14.053	1623.922	1238.740
62.447	14.088	1622.313	1237.666
63.461	13.950	1621.778	1236.122
64.476	14.049	1619.966	1235.365
65.490	14.026	1618.779	1234.176
66.505	13.940	1618.365	1233.118
67.520	13.937	1617.281	1232.156
68.534	14.069	1615.946	1232.008
69.549	14.158	1614.385	1231.369
70.563	14.117	1613.112	1229.990
71.578	14.043	1611.752	1228.294
72.593	13.992	1611.553	1227.654
73.607	14.057	1609.605	1226.548
74.622	13.985	1609.061	1225.488
75.636	13.962	1608.044	1224.439
76.651	13.890	1607.467	1223.360
77.666	13.959	1606.479	1223.005
78.680	13.956	1605.340	1222.011
79.695	13.953	1604.146	1220.972
80.709	13.957	1603.761	1220.598
81.724	13.926	1602.770	1219.509
82.739	14.047	1601.100	1219.021
83.753	14.098	1600.102	1218.523
84.768	14.100	1599.379	1217.877
85.782	14.145	1598.760	1217.630
86.797	14.195	1597.674	1217.060
87.812	14.224	1596.319	1216.135
88.826	14.055	1595.710	1214.329
89.841	14.149	1594.467	1213.963
90.855	14.125	1593.422	1212.883
91.870	14.132	1592.288	1211.959
92.884	14.185	1591.508	1211.652
93.899	14.256	1590.367	1211.187
94.914	14.259	1589.127	1210.162
95.928	14.296	1587.847	1209.349
96.943	14.235	1586.748	1207.957
97.957	14.251	1584.858	1206.530
98.972	14.256	1583.583	1205.491
99.987	14.234	1582.347	1204.280
101.001	14.224	1580.729	1202.875
102.016	14.182	1578.805	1200.995
103.030	14.173	1577.940	1200.165
104.045	14.221	1576.429	1199.256
105.060	14.266	1575.069	1198.444
106.074	14.278	1573.561	1197.277
107.089	14.022	1572.891	1194.819
108.103	14.073	1570.739	1193.443
109.118	14.144	1569.306	1192.760
110.133	14.098	1568.227	1191.501
111.147	14.113	1567.079	1190.637
112.162	14.022	1565.893	1188.979
113.176	14.100	1563.879	1187.901
114.191	14.148	1563.020	1187.486
115.206	14.167	1561.649	1186.471
116.220	14.167	1560.774	1185.705
117.235	14.161	1559.186	1184.349
118.249	14.160	1557.907	1183.265
119.264	14.078	1556.719	1181.675
120.279	14.126	1555.447	1180.949
121.293	14.133	1553.830	1179.665
122.308	14.148	1552.110	1178.361
123.322	14.076	1550.854	1176.793
124.337	14.166	1549.117	1176.009
125.352	14.143	1547.713	1174.674
126.366	14.065	1546.867	1173.379
127.381	14.063	1546.251	1172.795
128.395	14.132	1544.646	1171.961
129.410	14.172	1542.947	1170.849
130.424	14.118	1541.995	1169.644
131.439	14.131	1540.646	1168.609
132.454	14.233	1538.888	1167.885
133.468	14.242	1537.483	1166.777
134.483	14.328	1535.845	1166.037
135.497	14.270	1534.820	1164.751
136.512	14.207	1533.679	1163.341
137.527	14.287	1531.736	1162.322
138.541	14.143	1531.141	1160.761
139.556	14.273	1529.679	1160.457
140.570	14.263	1528.210	1159.167
141.585	14.232	1527.070	1157.989
142.600	14.339	1525.106	1157.136
143.614	14.355	1524.230	1156.480
144.629	14.389	1522.834	1155.557
145.643	14.423	1521.896	1154.975
146.658	14.518	1519.532	1153.741
147.673	14.447	1518.674	1152.497
148.687	14.426	1517.147	1151.089
149.702	14.303	1515.982	1149.253
150.716	14.402	1514.175	1148.464
151.731	14.339	1512.939	1146.991
152.746	14.327	1511.718	1145.881
153.760	14.350	1510.046	1144.670
154.775	14.369	1508.623	1143.620
155.789	14.420	1507.551	1143.057
156.804	14.487	1505.844	1142.121
157.819	14.475	1505.168	1141.425
158.833	14.503	1503.741	1140.432
159.848	14.481	1502.822	1139.487
160.862	14.496	1501.245	1138.294
161.877	14.501	1500.276	1137.488
162.892	14.588	1498.857	1136.910
163.906	14.413	1498.169	1135.091
164.921	14.450	1496.663	1134.101
165.935	14.401	1495.612	1132.876
166.950	14.545	1494.289	1132.749
167.964	14.608	1492.894	1132.021
168.979	14.494	1492.324	1130.714
169.994	14.514	1491.101	1129.823
171.008	14.576	1489.910	1129.236
172.023	14.562	1489.064	1128.405
173.037	14.512	1488.473	1127.515
174.052	14.604	1486.851	1126.810
175.067	14.653	1485.872	1126.297
176.081	14.650	1484.450	1125.102
177.096	14.561	1483.403	1123.609
178.110	14.520	1481.733	1121.972
179.125	14.620	1480.807	1121.838
180.140	14.648	1479.732	1121.117
181.154	14.674	1478.773	1120.462
182.169	14.618	1477.733	1119.205
183.183	14.599	1476.362	1117.938
184.198	14.631	1475.547	1117.439
185.213	14.681	1474.332	1116.751
186.227	14.756	1473.207	1116.298
187.242	14.703	1472.143	1115.040
188.256	14.778	1470.879	1114.488
189.271	14.771	1469.800	1113.522
190.286	14.872	1469.253	1113.686
191.300	14.775	1468.319	1112.231
192.315	14.731	1466.804	1110.691
193.329	14.715	1465.187	1109.264
194.344	14.701	1464.084	1108.234
195.359	14.794	1463.023	1107.953
196.373	14.782	1462.182	1107.137
197.388	14.772	1461.139	1106.181
198.402	14.787	1460.246	1105.511
199.417	14.814	1459.085	1104.710
200.432	14.983	1457.793	1104.754
201.446	14.896	1457.139	1103.587
202.461	14.931	1455.539	1102.503
203.475	15.058	1454.500	1102.459
204.490	15.007	1453.619	1101.354
205.504	15.044	1452.162	1100.396
206.519	14.991	1451.341	1099.332
207.534	15.049	1450.121	1098.691
208.548	15.041	1449.021	1097.709
209.563	15.002	1448.116	1096.666
210.577	14.974	1446.878	1095.450
211.592	14.964	1446.407	1094.932
212.607	15.092	1445.274	1094.816
213.621	15.113	1444.758	1094.461
214.636	15.040	1444.172	1093.447
215.650	15.048	1442.840	1092.396
216.665	15.034	1442.197	1091.715
217.680	15.164	1440.959	1091.530
218.694	15.187	1440.751	1091.427
219.709	15.162	1439.655	1090.335
220.723	15.217	1438.580	1089.784
221.738	15.245	1437.378	1088.959
222.753	15.198	1436.910	1088.202
223.767	15.206	1435.773	1087.299
224.782	15.228	1434.810	1086.613
225.796	15.292	1433.887	1086.232
226.811	15.355	1432.596	1085.570
227.826	15.296	1432.311	1084.877
228.840	15.382	1431.235	1084.517
229.855	15.377	1429.949	1083.419
230.869	15.346	1429.464	1082.752
231.884	15.253	1428.640	1081.432
232.899	15.290	1427.276	1080.546
233.913	15.303	1426.287	1079.781
234.928	15.346	1425.116	1079.078
235.942	15.252	1423.632	1077.257
236.957	15.254	1422.597	1076.391
237.972	15.309	1421.756	1076.013
238.986	15.374	1420.011	1075.011
240.001	15.361	1419.803	1074.676
241.015	15.400	1418.295	1073.686
242.030	15.474	1416.800	1072.935
243.045	15.396	1416.736	1072.293
244.059	15.477	1415.227	1071.573
245.074	15.489	1414.518	1071.017
246.088	15.546	1413.715	1070.681
247.103	15.467	1413.324	1069.785
248.117	15.534	1411.803	1068.966
249.132	15.575	1411.171	1068.650
250.147	15.538	1410.945	1068.151
251.161	15.596	1409.930	1067.654
252.176	15.731	1409.109	1067.798
253.190	15.742	1408.901	1067.616
254.205	15.803	1407.486	1066.838
255.220	15.784	1406.862	1066.147
256.234	15.758	1406.317	1065.474
257.249	15.839	1404.974	1064.874
258.263	15.895	1404.717	1064.941
259.278	15.839	1403.694	1063.720
260.293	15.964	1402.765	1063.708
261.307	15.921	1401.734	1062.562
262.322	15.866	1401.190	1061.707
263.336	15.961	1400.351	1061.576
264.351	15.966	1399.132	1060.589
265.366	15.983	1398.235	1059.927
266.380	16.032	1397.157	1059.324
267.395	16.027	1396.343	1058.580
268.409	16.024	1395.441	1057.782
269.424	15.961	1394.772	1056.787
270.439	16.010	1393.650	1056.151
271.453	16.012	1392.990	1055.566
272.468	16.065	1391.851	1054.947
273.482	16.022	1391.265	1054.137
274.497	16.041	1390.098	1053.279
275.512	16.007	1389.466	1052.492
276.526	16.108	1388.670	1052.426
277.541	16.002	1387.869	1051.068
278.555	16.120	1386.671	1050.803
279.570	16.118	1385.955	1050.153
280.585	16.127	1385.168	1049.521
281.599	16.144	1384.498	1049.025
282.614	16.267	1383.175	1048.696
283.628	16.236	1381.471	1047.118
284.643	16.213	1381.116	1046.615
285.657	16.189	1380.331	1045.780
286.672	16.229	1379.060	1044.972
287.687	16.211	1378.334	1044.213
288.701	16.254	1377.008	1043.386
289.716	16.287	1376.696	1043.258
290.730	16.309	1375.809	1042.629
291.745	16.296	1374.166	1041.215
292.760	16.317	1373.711	1040.907
293.774	16.456	1372.635	1040.857
294.789	16.323	1371.649	1039.197
295.803	16.344	1370.895	1038.660
296.818	16.339	1370.578	1038.299
297.833	16.488	1368.894	1037.845
298.847	16.451	1368.142	1036.960
299.862	16.388	1367.209	1035.776
300.876	16.423	1366.405	1035.289
301.891	16.411	1365.280	1034.267
302.906	16.422	1364.947	1033.995
303.920	16.489	1364.014	1033.605
304.935	16.501	1363.079	1032.878
305.949	16.474	1362.642	1032.292
306.964	16.631	1361.650	1032.405
307.979	16.576	1360.803	1031.336
308.993	16.573	1359.887	1030.530
310.008	16.694	1358.595	1030.197
311.022	16.609	1357.786	1028.976
312.037	16.753	1356.699	1028.940
313.052	16.660	1355.952	1027.714
314.066	16.724	1354.989	1027.281
315.081	16.680	1353.920	1026.113
316.095	16.659	1352.810	1025.055
317.110	16.640	1351.944	1024.196
318.125	16.658	1350.957	1023.465
319.139	16.604	1350.550	1022.739
320.154	16.617	1349.361	1021.824
321.168	16.602	1348.347	1020.875
322.183	16.696	1347.147	1020.444
323.197	16.753	1346.010	1019.839
324.212	16.711	1345.561	1019.155
325.227	16.678	1344.427	1018.009
326.241	16.730	1343.988	1017.894
327.256	16.845	1342.932	1017.695
328.270	16.813	1341.694	1016.475
329.285	16.788	1341.151	1015.826
330.300	16.749	1340.500	1015.009
331.314	16.801	1339.715	1014.636
332.329	16.819	1337.930	1013.302
333.343	16.870	1337.500	1013.192
334.358	16.721	1337.172	1011.966
335.373	16.810	1336.267	1011.720
336.387	16.908	1335.027	1011.278
337.402	16.971	1334.457	1011.128
338.416	16.907	1333.968	1010.291
339.431	17.022	1333.232	1010.325
340.446	16.950	1332.521	1009.273
341.460	17.110	1331.407	1009.292
342.475	17.002	1330.625	1007.963
343.489	17.044	1329.522	1007.288
344.504	16.952	1328.701	1006.030
345.519	17.057	1327.791	1005.880
346.533	17.045	1326.965	1005.091
347.548	17.203	1326.213	1005.369
348.562	17.230	1324.904	1004.445
349.577	17.288	1324.413	1004.330
350.592	17.169	1323.644	1002.954
351.606	17.093	1322.549	1001.585
352.621	17.141	1321.954	1001.332
353.635	17.167	1320.652	1000.406
354.650	17.203	1319.678	999.793
355.665	17.235	1318.808	999.237
356.679	17.124	1317.954	997.845
357.694	17.270	1316.633	997.618
358.708	17.191	1315.672	996.333
359.723	17.200	1314.949	995.751
360.738	17.274	1313.668	995.127
361.752	17.288	1312.557	994.279
362.767	17.353	1311.671	993.899
363.781	17.340	1311.026	993.250
364.796	17.240	1310.255	991.990
365.810	17.320	1309.022	991.439
366.825	17.463	1308.196	991.555
367.840	17.416	1308.018	991.061
368.854	17.449	1307.202	990.549
369.869	17.477	1306.304	989.941
370.883	17.536	1306.142	990.078
371.898	17.509	1305.124	989.056
372.913	17.505	1304.684	988.616
373.927	17.553	1303.278	987.743
374.942	17.614	1302.574	987.472
375.956	17.608	1301.725	986.704
376.971	17.626	1301.043	986.207
377.986	17.646	1300.247	985.631
379.000	17.601	1299.638	984.823
380.015	17.706	1298.702	984.635
381.029	17.663	1298.148	983.879
382.044	17.809	1296.764	983.582
383.059	17.761	1296.530	983.041
384.073	17.718	1296.136	982.408
385.088	17.687	1295.650	981.776
386.102	17.656	1295.259	981.216
387.117	17.755	1293.511	980.372
388.132	17.821	1292.773	980.107
389.146	17.760	1292.332	979.336
390.161	17.804	1291.405	978.795
391.175	17.804	1290.424	977.967
392.190	17.748	1289.934	977.190
393.205	17.736	1288.864	976.221
394.219	17.864	1287.810	976.067
395.234	17.890	1286.680	975.273
396.248	17.896	1284.838	973.827
397.263	17.890	1283.988	973.064
398.278	17.760	1282.830	971.358
399.292	17.947	1281.361	971.226
400.307	17.950	1280.437	970.456
401.321	17.952	1279.543	969.701
402.336	17.873	1278.712	968.538
403.350	17.913	1277.653	967.875
404.365	17.801	1277.067	966.714
405.380	17.882	1276.313	966.514
406.394	18.011	1275.206	966.322
407.409	17.916	1274.319	965.026
408.423	17.995	1273.561	964.816
409.438	18.039	1273.249	964.741
410.453	18.172	1272.073	964.516
411.467	18.056	1271.875	963.623
412.482	18.068	1270.866	962.841
413.496	18.205	1270.169	962.999
414.511	18.166	1269.814	962.427
415.526	18.166	1268.903	961.651
416.540	18.264	1268.168	961.559
417.555	18.249	1267.627	960.981
418.569	18.304	1266.714	960.511
419.584	18.345	1266.570	960.546
420.599	18.320	1265.864	959.789
421.613	94.160	1346.267	1450.581
422.628	91.868	1357.951	1450.684
