DTS Sentinel unit serial number:	SN413079Multiplexer serial number:	ORYXHardware model number:	OX4-SRSoftware version number:	ORYX F/W v4.00 Oryx Data Collector v3.7.2.0data status	okinstallation	princeton_trtdifferential loss correction	single-endedforward channel	channel 4reverse channel	N/Adate	2019/09/14time	10:01:34forward acquisition time	60.00reverse acquisition time	0.00gamma	496.2192k internal	0.2301k external	0.2301temperature offset calibration	1.0133default loss term (dB/km)	0.3790temperature slope calibration	1.0000multiplexer offset coefficient	1.0000multiplexer slope coefficient	1.0000fibre end	0.00T internal ref (°C)	33.14T ext. ref 1 (°C)	4.02T ext. ref 2 (°C)	31.87length (m)	temperature (°C)	Stokes	anti-Stokes-747.200	690.463	0.123	0.327
-746.185	91.627	-0.154	0.177
-745.171	187.286	-0.111	0.169
-744.156	499.324	-0.179	0.421
-743.142	-52.918	-0.150	0.070
-742.127	800.000	0.129	0.366
-741.112	-73.691	0.431	-0.160
-740.098	602.275	-0.067	-0.169
-739.083	564.413	0.030	-0.074
-738.069	81.215	-0.218	0.240
-737.054	-94.865	-0.112	-0.031
-736.039	-122.580	-0.313	-0.052
-735.025	800.000	0.081	0.297
-734.010	-9.775	-0.181	-0.123
-732.996	100.300	0.186	0.219
-731.981	84.239	-0.148	0.164
-730.966	354.044	-0.079	0.161
-729.952	221.016	-0.163	-0.267
-728.937	-56.238	0.317	0.144
-727.923	800.000	-0.058	0.231
-726.908	-131.567	-0.341	-0.046
-725.894	80.101	-0.156	0.171
-724.879	-125.950	-0.173	-0.027
-723.864	-200.000	-0.052	0.279
-722.850	800.000	0.032	0.137
-721.835	310.874	0.047	0.090
-720.821	76.095	-0.181	0.195
-719.806	75.802	-0.191	-0.205
-718.791	800.000	0.058	0.231
-717.777	457.653	-0.059	0.133
-716.762	164.430	0.118	0.169
-715.748	-200.000	0.032	-0.231
-714.733	-200.000	0.021	0.163
-713.718	-200.000	-0.029	0.271
-712.704	-200.000	-0.025	-0.121
-711.689	-98.893	0.287	0.074
-710.675	-35.682	0.177	0.098
-709.660	336.720	-0.031	-0.061
-708.645	800.000	0.084	-0.305
-707.631	-98.291	-0.228	0.060
-706.616	-23.754	0.122	0.075
-705.602	472.211	-0.063	0.144
-704.587	7.793	0.132	-0.100
-703.572	33.523	-0.115	-0.101
-702.558	7.882	0.186	-0.142
-701.543	-61.826	-0.165	-0.070
-700.529	242.294	-0.207	-0.353
-699.514	800.000	-0.040	-0.173
-698.499	800.000	-0.083	-0.246
-697.485	54.731	0.131	-0.128
-696.470	-78.754	0.204	0.071
-695.456	-93.129	0.063	0.018
-694.441	-74.199	-0.085	-0.031
-693.426	143.189	-0.173	-0.234
-692.412	-200.000	0.035	-0.310
-691.397	-53.131	0.070	-0.033
-690.383	-123.581	0.147	0.024
-689.368	-93.403	0.472	-0.133
-688.354	-200.000	0.002	-0.037
-687.339	-200.000	-0.019	0.101
-686.324	-41.905	-0.093	-0.049
-685.310	-92.383	-0.239	-0.068
-684.295	-80.908	-0.265	0.089
-683.281	542.870	0.108	-0.262
-682.266	-8.555	-0.238	0.162
-681.251	152.471	-0.155	-0.215
-680.237	-3.154	0.188	0.133
-679.222	-57.767	-0.208	0.092
-678.208	358.605	-0.037	0.075
-677.193	35.673	0.087	0.077
-676.178	-40.322	0.124	0.066
-675.164	158.411	0.232	-0.327
-674.149	100.749	-0.166	-0.197
-673.135	-56.352	-0.331	-0.149
-672.120	-200.000	0.010	-0.248
-671.105	-200.000	0.052	-0.343
-670.091	133.157	-0.181	-0.237
-669.076	-46.788	-0.148	0.073
-668.062	-154.687	-0.380	-0.026
-667.047	800.000	0.101	-0.435
-666.032	-152.498	-0.498	-0.036
-665.018	-200.000	0.063	-0.414
-664.003	-200.000	-0.011	0.061
-662.989	-200.000	0.041	-0.214
-661.974	-70.586	-0.049	0.019
-660.959	-200.000	0.006	0.194
-659.945	800.000	0.087	0.339
-658.930	800.000	0.037	0.105
-657.916	49.806	0.147	-0.141
-656.901	106.812	0.121	0.146
-655.886	-26.913	0.134	0.080
-654.872	171.940	-0.115	-0.168
-653.857	-84.088	-0.203	-0.065
-652.843	-200.000	0.035	0.215
-651.828	46.047	0.076	0.072
-650.814	54.875	0.124	0.122
-649.799	33.484	0.053	0.046
-648.784	-45.700	-0.504	-0.253
-647.770	78.773	-0.120	0.130
-646.755	435.779	-0.055	-0.121
-645.741	15.292	-0.432	0.344
-644.726	104.157	-0.048	-0.058
-643.711	-93.554	0.190	0.053
-642.697	-23.899	-0.308	-0.187
-641.682	-46.183	-0.296	0.148
-640.668	73.338	0.377	0.401
-639.653	-111.529	-0.205	-0.042
-638.638	157.542	-0.134	-0.188
-637.624	107.452	-0.024	0.029
-636.609	800.000	0.116	-0.336
-635.595	-200.000	-0.023	-0.236
-634.580	-51.607	-0.062	-0.029
-633.565	40.584	-0.042	0.038
-632.551	373.815	-0.057	-0.118
-631.536	54.173	0.151	-0.147
-630.522	800.000	-0.055	0.221
-629.507	791.016	-0.071	-0.199
-628.492	-200.000	-0.019	-0.356
-627.478	3.354	-0.180	-0.133
-626.463	-47.364	-0.179	-0.088
-625.449	-200.000	-0.055	0.375
-624.434	800.000	0.067	0.243
-623.419	236.678	-0.066	0.111
-622.405	-142.594	-0.133	0.013
-621.390	800.000	-0.067	-0.228
-620.376	800.000	-0.055	0.191
-619.361	-93.268	0.355	-0.100
-618.346	800.000	-0.044	-0.145
-617.332	53.846	-0.210	-0.205
-616.317	-131.418	0.200	-0.027
-615.303	-107.874	-0.130	-0.029
-614.288	-200.000	0.015	0.405
-613.273	428.679	-0.135	-0.297
-612.259	-89.291	0.257	0.077
-611.244	-142.930	-0.149	-0.015
-610.230	122.032	0.222	0.281
-609.215	381.157	0.044	0.093
-608.201	-151.529	-0.204	0.015
-607.186	-82.632	0.315	-0.103
-606.171	54.421	-0.061	-0.060
-605.157	449.316	0.117	-0.262
-604.142	80.251	-0.023	-0.026
-603.128	67.209	-0.162	0.168
-602.113	800.000	0.023	0.069
-601.098	-52.407	-0.159	-0.075
-600.084	-200.000	-0.046	0.257
-599.069	-200.000	0.008	-0.086
-598.055	597.258	0.051	0.127
-597.040	-200.000	0.022	-0.311
-596.025	-200.000	0.008	-0.069
-595.011	-114.411	0.041	-0.008
-593.996	-155.787	-0.115	0.007
-592.982	-51.534	0.118	-0.056
-591.967	-171.981	-0.124	0.004
-590.952	733.341	0.057	0.156
-589.938	-67.972	0.154	-0.061
-588.923	311.597	-0.047	-0.088
-587.909	223.093	0.272	0.444
-586.894	8.099	-0.232	-0.177
-585.879	655.172	-0.132	-0.344
-584.865	-179.557	0.154	0.003
-583.850	-113.195	-0.448	-0.089
-582.836	-121.137	-0.411	-0.070
-581.821	-67.580	-0.291	-0.116
-580.806	800.000	0.037	-0.107
-579.792	-200.000	0.011	0.320
-578.777	-48.219	0.163	0.080
-577.763	800.000	-0.094	-0.287
-576.748	-94.582	-0.324	-0.089
-575.733	492.081	-0.044	0.102
-574.719	510.052	-0.095	0.223
-573.704	-173.466	0.051	0.002
-572.690	766.775	-0.165	-0.454
-571.675	436.232	0.120	0.265
-570.661	70.217	-0.152	-0.159
-569.646	-37.304	-0.157	-0.085
-568.631	230.408	-0.090	0.149
-567.617	-51.931	-0.051	-0.024
-566.602	-200.000	0.007	-0.126
-565.588	188.733	-0.067	0.101
-564.573	-200.000	0.039	0.255
-563.558	-4.700	0.174	-0.122
-562.544	-200.000	-0.014	0.102
-561.529	95.911	0.181	-0.210
-560.515	72.824	0.314	0.332
-559.500	-200.000	0.039	0.313
-558.485	-112.311	-0.238	0.048
-557.471	-73.055	-0.152	0.057
-556.456	-155.435	-0.312	-0.020
-555.442	95.350	-0.118	-0.136
-554.427	-119.550	-0.257	-0.045
-553.412	-11.873	-0.060	-0.040
-552.398	288.142	-0.107	0.195
-551.383	-137.255	-0.342	-0.039
-550.369	-104.399	0.241	0.056
-549.354	800.000	0.095	0.321
-548.339	206.069	-0.103	0.162
-547.325	725.213	-0.260	0.700
-546.310	580.448	0.059	-0.146
-545.296	-64.344	-0.258	-0.106
-544.281	660.411	0.028	0.072
-543.266	-109.127	-0.154	-0.033
-542.252	-129.278	-0.123	0.017
-541.237	502.003	-0.071	0.166
-540.223	-80.551	0.521	0.176
-539.208	55.775	0.130	0.128
-538.193	160.540	0.145	0.204
-537.179	-149.781	0.191	0.015
-536.164	-200.000	-0.028	-0.387
-535.150	-118.663	-0.084	-0.015
-534.135	169.229	-0.142	0.205
-533.121	-150.663	0.139	0.011
-532.106	21.653	-0.094	0.077
-531.091	-200.000	-0.001	-0.255
-530.077	-103.626	-0.336	0.080
-529.062	74.963	-0.099	0.105
-528.048	72.676	-0.078	-0.082
-527.033	5.006	-0.029	0.021
-526.018	-68.547	0.127	0.050
-525.004	-100.582	-0.124	-0.031
-523.989	456.264	-0.109	0.245
-522.975	-81.102	0.045	-0.015
-521.960	-108.084	0.132	-0.029
-520.945	-200.000	0.007	0.188
-519.931	-76.503	0.274	0.097
-518.916	-95.019	0.232	-0.063
-517.902	-154.637	0.232	0.016
-516.887	90.822	0.156	-0.177
-515.872	64.369	-0.075	0.076
-514.858	290.456	-0.080	-0.147
-513.843	-200.000	-0.001	-0.044
-512.829	-200.000	0.025	0.153
-511.814	-200.000	-0.018	-0.255
-510.799	-105.605	0.216	-0.049
-509.785	89.330	0.071	-0.080
-508.770	48.754	0.139	0.132
-507.756	3.672	-0.132	0.097
-506.741	102.135	-0.175	-0.207
-505.726	73.277	-0.262	-0.277
-504.712	134.819	0.045	0.058
-503.697	331.308	0.061	-0.118
-502.683	156.293	0.164	-0.229
-501.668	181.859	0.176	-0.262
-500.653	164.890	0.207	-0.296
-499.639	-200.000	-0.065	-0.291
-498.624	-29.390	0.080	0.046
-497.610	800.000	-0.027	0.076
-496.595	210.381	0.071	0.112
-495.581	506.868	0.018	-0.043
-494.566	-98.603	0.094	-0.024
-493.551	-176.171	0.341	-0.009
-492.537	-200.000	0.058	-0.427
-491.522	3.934	0.096	-0.071
-490.508	800.000	0.093	0.261
-489.493	66.895	-0.132	-0.136
-488.478	-154.466	0.091	-0.006
-487.464	92.268	-0.125	0.142
-486.449	-200.000	-0.016	-0.073
-485.435	-4.865	-0.170	-0.119
-484.420	-200.000	0.005	0.233
-483.405	-143.542	-0.071	-0.007
-482.391	-200.000	0.009	-0.151
-481.376	-58.945	-0.316	-0.138
-480.362	369.313	0.109	0.222
-479.347	-200.000	-0.017	0.212
-478.332	-200.000	0.009	0.160
-477.318	667.546	-0.082	-0.213
-476.303	-63.920	0.159	-0.066
-475.289	208.937	-0.067	-0.106
-474.274	-185.893	-0.182	0.003
-473.259	777.457	-0.058	-0.160
-472.245	800.000	0.025	0.105
-471.230	-115.598	0.402	-0.076
-470.216	-200.000	0.065	-0.567
-469.201	381.282	-0.168	-0.348
-468.186	-100.341	-0.243	-0.061
-467.172	-100.405	0.215	0.054
-466.157	224.815	0.151	-0.246
-465.143	-200.000	0.079	-0.365
-464.128	558.891	0.100	-0.244
-463.113	55.820	-0.133	-0.130
-462.099	144.071	-0.125	-0.168
-461.084	-93.342	0.281	0.079
-460.070	395.360	-0.103	0.216
-459.055	48.020	0.264	0.248
-458.040	-200.000	0.031	-0.168
-457.026	-182.095	0.148	-0.003
-456.011	720.092	-0.061	-0.164
-454.997	-129.566	-0.306	-0.043
-453.982	134.423	0.184	0.241
-452.968	1.999	0.135	0.098
-451.953	89.437	-0.158	0.178
-450.938	348.517	-0.135	0.269
-449.924	-190.485	-0.644	0.007
-448.909	-200.000	0.041	0.219
-447.895	-15.771	0.145	-0.093
-446.880	147.399	-0.134	0.182
-445.865	-16.409	0.082	-0.053
-444.851	-88.885	-0.062	0.018
-443.836	-200.000	-0.036	0.253
-442.822	268.012	-0.105	0.185
-441.807	-163.070	-0.276	-0.013
-440.792	-200.000	-0.073	0.347
-439.778	2.970	0.382	0.279
-438.763	-23.018	-0.142	0.086
-437.749	92.220	0.312	-0.354
-436.734	-200.000	0.039	0.000
-435.719	-200.000	-0.005	0.223
-434.705	-200.000	-0.052	0.242
-433.690	-65.560	0.363	-0.147
-432.676	-51.784	0.318	-0.149
-431.661	-200.000	0.032	0.220
-430.646	-105.757	-0.287	0.065
-429.632	800.000	-0.076	0.306
-428.617	263.862	0.077	0.134
-427.603	-57.961	0.329	-0.145
-426.588	124.755	0.111	-0.141
-425.573	-200.000	0.013	-0.135
-424.559	-122.199	-0.345	-0.057
-423.544	800.000	-0.013	0.052
-422.530	-200.000	-0.013	0.081
-421.515	-50.092	-0.291	-0.139
-420.500	-109.098	-0.147	-0.032
-419.486	-133.280	0.551	-0.070
-418.471	-200.000	0.040	-0.275
-417.457	-64.875	-0.179	0.073
-416.442	19.353	0.133	0.107
-415.428	122.908	-0.204	-0.257
-414.413	-200.000	-0.031	0.169
-413.398	52.607	0.085	-0.082
-412.384	84.181	0.188	0.206
-411.369	91.180	0.121	0.137
-410.355	491.159	0.033	-0.076
-409.340	134.418	0.108	-0.141
-408.325	-200.000	-0.063	0.284
-407.311	-136.155	0.220	0.026
-406.296	-73.340	0.233	-0.086
-405.282	85.390	0.207	-0.228
-404.267	105.317	-0.127	0.151
-403.252	54.540	0.045	-0.044
-402.238	-200.000	-0.006	-0.080
-401.223	599.623	0.131	0.328
-400.209	-200.000	-0.022	-0.210
-399.194	154.067	-0.139	0.192
-398.179	-115.285	0.060	-0.011
-397.165	684.586	-0.048	0.127
-396.150	800.000	-0.048	-0.165
-395.136	-25.013	-0.201	0.120
-394.121	800.000	-0.037	-0.149
-393.106	-104.338	-0.143	0.033
-392.092	101.529	0.166	-0.194
-391.077	-41.699	-0.123	-0.063
-390.063	136.301	-0.077	0.101
-389.048	-41.003	-0.311	-0.161
-388.033	800.000	-0.089	0.331
-387.019	800.000	0.102	0.364
-386.004	-110.571	0.291	-0.061
-384.990	-139.193	-0.307	0.033
-383.975	-200.000	-0.061	-0.339
-382.960	-118.569	-0.175	-0.031
-381.946	12.677	-0.160	-0.124
-380.931	800.000	-0.038	0.128
-379.917	21.723	0.296	-0.242
-378.902	-67.411	0.278	0.110
-377.888	800.000	0.050	-0.162
-376.873	-75.392	-0.228	0.082
-375.858	-116.816	-0.167	0.031
-374.844	-140.459	-0.094	0.010
-373.829	-113.074	0.287	-0.057
-372.815	-200.000	0.047	-0.236
-371.800	9.957	0.011	0.008
-370.785	-200.000	-0.021	0.168
-369.771	294.434	0.111	0.204
-368.756	334.856	-0.093	-0.181
-367.742	-200.000	0.032	-0.398
-366.727	80.065	0.248	-0.267
-365.712	-200.000	0.002	0.149
-364.698	-19.466	-0.239	0.148
-363.683	315.259	0.090	0.170
-362.669	-67.439	0.065	0.026
-361.654	5.376	-0.123	0.091
-360.639	3.397	0.065	0.048
-359.625	62.489	0.147	-0.147
-358.610	169.234	0.180	-0.258
-357.596	50.910	0.158	-0.151
-356.581	-3.032	0.091	0.064
-355.566	-195.539	0.243	0.002
-354.552	-161.635	-0.267	-0.014
-353.537	-200.000	-0.000	-0.178
-352.523	22.777	-0.139	-0.114
-351.508	800.000	-0.056	0.172
-350.493	-96.774	0.120	0.032
-349.479	54.551	0.154	-0.149
-348.464	23.126	-0.100	0.082
-347.450	-200.000	0.037	0.397
-346.435	-128.009	0.201	-0.029
-345.420	-101.247	-0.434	0.106
-344.406	13.428	-0.215	-0.167
-343.391	-200.000	-0.013	0.088
-342.377	800.000	-0.119	-0.356
-341.362	49.582	0.083	0.078
-340.348	5.560	-0.122	-0.091
-339.333	347.005	-0.091	0.180
-338.318	561.765	-0.088	-0.214
-337.304	-63.839	-0.115	-0.047
-336.289	-111.534	-0.186	0.038
-335.275	-43.786	-0.170	0.086
-334.260	-56.525	-0.324	-0.144
-333.245	247.106	-0.133	-0.225
-332.231	367.287	0.010	0.021
-331.216	73.774	0.249	0.261
-330.202	98.291	0.076	-0.088
-329.187	-13.232	-0.208	-0.135
-328.172	-82.057	0.153	-0.050
-327.158	443.240	-0.092	0.202
-326.143	213.509	0.099	-0.157
-325.129	117.470	-0.045	-0.055
-324.114	-23.308	-0.154	-0.093
-323.099	-20.026	0.360	-0.223
-322.085	-200.000	-0.027	0.175
-321.070	126.369	-0.179	0.227
-320.056	-106.353	-0.377	-0.085
-319.041	-125.558	0.457	-0.070
-318.026	800.000	0.062	-0.208
-317.012	-124.772	0.088	0.014
-315.997	-200.000	0.004	-0.176
-314.983	76.607	-0.172	0.182
-313.968	77.304	-0.205	0.219
-312.953	-40.488	-0.141	0.073
-311.939	-26.045	-0.319	-0.188
-310.924	720.347	-0.064	0.170
-309.910	-152.616	0.276	0.020
-308.895	800.000	-0.023	-0.090
-307.880	697.910	-0.012	0.032
-306.866	18.522	0.201	-0.161
-305.851	800.000	0.104	-0.367
-304.837	-74.512	-0.290	-0.105
-303.822	-26.113	0.257	0.152
-302.807	-175.404	0.287	0.008
-301.793	-16.369	-0.130	-0.083
-300.778	-159.926	-0.062	0.003
-299.764	-200.000	-0.007	-0.120
-298.749	529.040	0.092	-0.217
-297.735	132.918	0.205	0.265
-296.720	100.322	0.107	0.124
-295.705	180.884	0.045	0.067
-294.691	-200.000	-0.007	-0.185
-293.676	40.467	0.195	-0.176
-292.662	-200.000	-0.044	-0.255
-291.647	229.039	-0.198	0.324
-290.632	-28.841	0.302	-0.174
-289.618	-127.159	0.346	-0.051
-288.603	658.304	-0.069	0.178
-287.589	-200.000	0.000	0.094
-286.574	36.002	0.182	-0.161
-285.559	106.405	-0.146	0.173
-284.545	7.073	0.126	0.094
-283.530	214.592	0.031	0.048
-282.516	232.121	0.173	-0.285
-281.501	-110.300	0.089	-0.018
-280.486	-129.878	0.116	-0.016
-279.472	-69.101	0.222	0.086
-278.457	98.717	0.054	0.062
-277.443	-55.207	-0.178	0.080
-276.428	298.329	0.055	0.102
-275.413	44.162	-0.059	0.054
-274.399	-171.074	0.310	0.011
-273.384	537.209	-0.074	-0.176
-272.370	233.414	-0.080	-0.132
-271.355	645.263	-0.114	0.292
-270.340	800.000	0.020	-0.068
-269.326	-151.424	0.075	-0.006
-268.311	-66.862	0.370	0.146
-267.297	216.033	0.230	0.365
-266.282	-81.051	0.084	0.028
-265.267	-200.000	0.032	-0.211
-264.253	651.679	0.083	0.213
-263.238	-132.228	0.059	-0.008
-262.224	48.851	-0.071	-0.066
-261.209	-114.083	-0.193	-0.037
-260.195	-148.324	0.110	0.009
-259.180	16.155	0.109	0.086
-258.165	-141.724	0.182	0.018
-257.151	173.280	0.209	-0.301
-256.136	63.774	-0.119	-0.119
-255.122	50.375	-0.154	0.145
-254.107	99.947	-0.241	0.279
-253.092	-35.649	0.265	-0.144
-252.078	-37.976	-0.104	0.055
-251.063	-200.000	0.055	0.301
-250.049	-200.000	-0.016	0.119
-249.034	3.370	0.302	-0.220
-248.019	-129.410	0.476	-0.066
-247.005	-137.282	-0.118	0.013
-245.990	-112.255	-0.220	-0.044
-244.976	-48.744	0.177	0.085
-243.961	-200.000	-0.056	-0.337
-242.946	-71.903	-0.151	0.056
-241.932	-68.416	0.348	-0.135
-240.917	-200.000	0.071	-0.426
-239.903	800.000	-0.134	0.422
-238.888	-60.467	-0.307	-0.131
-237.873	-200.000	-0.014	-0.160
-236.859	-37.209	0.320	-0.171
-235.844	-70.330	-0.203	-0.077
-234.830	-138.587	0.173	-0.019
-233.815	-200.000	-0.047	0.364
-232.800	-93.105	0.137	-0.038
-231.786	-17.599	0.031	0.020
-230.771	61.516	0.129	0.128
-229.757	360.474	0.129	0.259
-228.742	-61.415	0.062	-0.026
-227.727	-33.031	0.045	-0.025
-226.713	-59.696	-0.303	0.130
-225.698	138.537	-0.295	0.386
-224.684	-70.646	-0.065	-0.025
-223.669	-200.000	0.000	-0.075
-222.655	-73.013	0.244	0.089
-221.640	-130.238	-0.270	0.037
-220.625	319.186	-0.126	0.239
-219.611	-44.970	0.244	-0.121
-218.596	99.665	-0.175	-0.202
-217.582	-200.000	0.034	0.228
-216.567	-153.261	-0.156	0.011
-215.552	331.691	-0.039	-0.075
-214.538	-82.749	-0.161	0.052
-213.523	-77.138	0.233	-0.081
-212.509	128.865	-0.146	0.185
-211.494	722.799	0.067	-0.178
-210.479	800.000	0.150	0.461
-209.465	-200.000	-0.015	0.202
-208.450	20.792	-0.083	-0.067
-207.436	190.916	0.258	0.387
-206.421	-142.170	-0.225	-0.022
-205.406	78.489	0.292	0.312
-204.392	-200.000	-0.007	-0.366
-203.377	-112.910	-0.088	0.017
-202.363	-27.307	0.287	0.167
-201.348	-17.240	-0.082	0.051
-200.333	-34.327	0.047	-0.026
-199.319	7.096	-0.112	0.083
-198.304	567.314	0.110	0.267
-197.290	-200.000	0.048	0.292
-196.275	327.113	-0.080	0.152
-195.260	-2.238	-0.300	0.210
-194.246	-200.000	-0.003	0.035
-193.231	266.343	-0.119	-0.207
-192.217	166.022	-0.199	-0.281
-191.202	-179.588	-0.368	-0.008
-190.187	1.307	0.171	-0.122
-189.173	800.000	-0.047	-0.162
-188.158	-128.423	-0.043	-0.006
-187.144	-200.000	-0.027	-0.158
-186.129	217.322	0.061	-0.097
-185.114	29.252	0.066	0.056
-184.100	147.446	-0.131	0.176
-183.085	669.999	0.120	-0.310
-182.071	-196.103	0.331	-0.002
-181.056	-200.000	-0.003	-0.055
-180.042	799.508	0.065	0.180
-179.027	-110.215	0.178	-0.037
-178.012	684.303	0.090	0.234
-176.998	16.943	-0.162	0.128
-175.983	-98.902	-0.064	0.016
-174.969	-167.806	-0.166	0.007
-173.954	98.437	0.272	-0.313
-172.939	116.919	0.132	-0.161
-171.925	38.548	0.233	-0.207
-170.910	69.344	0.301	-0.309
-169.896	-4.789	-0.123	-0.084
-168.881	224.423	-0.108	0.174
-167.866	-89.948	0.332	0.097
-166.852	604.594	0.134	-0.334
-165.837	70.126	0.137	-0.141
-164.823	428.800	-0.096	0.208
-163.808	-88.224	0.264	0.079
-162.793	279.821	-0.080	0.142
-161.779	47.521	0.316	-0.294
-160.764	-46.032	0.157	0.077
-159.750	-134.711	-0.129	-0.016
-158.735	138.440	-0.169	0.221
-157.720	96.209	0.244	0.278
-156.706	-200.000	0.037	0.267
-155.691	127.315	-0.257	0.325
-154.677	159.855	-0.106	-0.147
-153.662	-134.791	-0.386	-0.047
-152.647	667.243	0.077	-0.198
-151.633	-105.185	-0.280	0.064
-150.618	537.234	-0.094	-0.223
-149.604	-91.345	0.086	-0.024
-148.589	800.000	-0.012	-0.033
-147.574	-106.560	0.147	0.033
-146.560	-124.513	-0.271	-0.042
-145.545	152.043	-0.246	-0.335
-144.531	-68.095	-0.013	0.005
-143.516	270.675	-0.154	0.270
-142.502	-53.444	-0.037	-0.017
-141.487	800.000	-0.018	0.063
-140.472	-0.272	-0.290	0.205
-139.458	-15.161	-0.192	-0.122
-138.443	-28.092	-0.242	-0.139
-137.429	-200.000	-0.041	0.225
-136.414	-82.591	-0.171	0.055
-135.399	-91.450	-0.126	0.036
-134.385	-22.947	0.257	0.154
-133.370	211.839	0.145	0.227
-132.356	-38.568	0.321	-0.169
-131.341	213.808	0.189	0.297
-130.326	-81.378	0.547	0.179
-129.312	436.960	-0.126	0.274
-128.297	-157.569	-0.037	-0.002
-127.283	310.673	0.069	-0.128
-126.268	9.245	-0.207	-0.156
-125.253	-20.897	0.257	-0.157
-124.239	274.089	0.107	0.188
-123.224	-42.885	0.412	-0.208
-122.210	71.704	-0.069	0.072
-121.195	133.905	0.213	-0.274
-120.180	-200.000	-0.009	0.395
-119.166	-20.692	0.328	0.200
-118.151	-200.000	-0.043	0.262
-117.137	-57.714	-0.103	0.045
-116.122	452.755	-0.149	-0.327
-115.107	800.000	0.070	-0.230
-114.093	-95.582	-0.240	-0.064
-113.078	186.074	-0.126	0.186
-112.064	-175.994	0.118	-0.003
-111.049	800.000	0.066	0.259
-110.034	-200.000	-0.047	-0.386
-109.020	-85.202	0.485	0.151
-108.005	800.000	-0.076	-0.233
-106.991	-14.749	0.084	-0.054
-105.976	800.000	-0.057	0.223
-104.962	101.836	0.296	-0.344
-103.947	-158.856	0.259	0.015
-102.932	800.000	-0.020	0.073
-101.918	800.000	-0.055	-0.205
-100.903	-17.981	-0.180	-0.112
-99.889	-49.937	0.172	-0.081
-98.874	-66.006	0.122	-0.048
-97.859	248.731	0.106	0.179
-96.845	800.000	0.036	-0.131
-95.830	-91.615	-0.430	-0.122
-94.816	800.000	0.043	-0.181
-93.801	-31.238	0.291	0.163
-92.786	135.721	-0.169	0.218
-91.772	99.276	-0.148	-0.170
-90.757	-105.950	-0.128	-0.029
-89.743	800.000	-0.080	0.305
-88.728	4.907	-0.244	-0.178
-87.713	671.638	0.036	-0.094
-86.699	-10.034	0.078	-0.051
-85.684	-162.549	-0.100	0.005
-84.670	-93.277	0.227	-0.063
-83.655	-200.000	0.009	-0.257
-82.640	-18.350	0.144	-0.090
-81.626	111.536	-0.218	0.262
-80.611	263.758	-0.025	0.043
-79.597	241.871	-0.144	-0.239
-78.582	240.908	0.117	0.194
-77.567	-200.000	0.051	0.315
-76.553	-62.424	0.154	0.064
-75.538	-200.000	-0.008	0.147
-74.524	400.084	-0.047	0.098
-73.509	-34.260	0.314	-0.171
-72.494	-200.000	0.001	0.371
-71.480	24.658	-0.188	0.154
-70.465	-57.556	-0.063	0.028
-69.451	-200.000	-0.053	-0.365
-68.436	-86.940	-0.100	0.030
-67.422	-131.361	0.266	-0.035
-66.407	639.078	-0.048	0.121
-65.392	-200.000	0.068	0.310
-64.378	-61.234	0.193	-0.081
-63.363	-91.373	-0.242	0.069
-62.349	715.846	-0.043	0.113
-61.334	48.259	-0.946	-0.879
-60.319	60.436	0.469	0.461
-59.305	-200.000	-0.029	-0.712
-58.290	97.715	0.937	1.069
-57.276	242.332	0.873	1.450
-56.261	-200.000	98.957	593.426
-55.246	599.974	1437.893	3541.387
-54.232	176.123	2663.105	3836.747
-53.217	109.567	2367.227	2814.366
-52.203	39.750	2111.515	1879.641
-51.188	34.732	2023.587	1755.339
-50.173	33.208	2005.218	1725.447
-49.159	48.329	2058.211	1911.170
-48.144	50.393	2077.113	1947.727
-47.130	35.520	2034.881	1772.125
-46.115	33.118	2023.244	1739.853
-45.100	33.104	2019.781	1736.677
-44.086	33.003	2017.763	1733.945
-43.071	32.993	2014.841	1731.267
-42.057	32.911	2012.160	1728.147
-41.042	32.989	2010.927	1727.736
-40.027	33.016	2008.769	1726.058
-39.013	33.016	2005.994	1723.607
-37.998	32.969	2004.730	1722.023
-36.984	32.962	2002.924	1720.338
-35.969	33.103	2000.619	1719.570
-34.954	33.101	1999.196	1718.260
-33.940	33.076	1998.075	1717.008
-32.925	33.159	1996.050	1715.947
-31.911	33.129	1994.204	1714.020
-30.896	33.165	1992.713	1713.004
-29.881	33.151	1991.711	1711.939
-28.867	33.112	1989.994	1710.049
-27.852	33.189	1987.923	1708.894
-26.838	33.237	1985.430	1707.120
-25.823	33.184	1983.501	1704.909
-24.809	33.168	1981.929	1703.349
-23.794	33.180	1980.549	1702.202
-22.779	33.174	1978.967	1700.722
-21.765	33.092	1977.099	1698.316
-20.750	33.167	1975.384	1697.450
-19.736	33.114	1973.893	1695.627
-18.721	33.236	1972.573	1695.514
-17.706	33.174	1970.626	1693.223
-16.692	33.178	1969.141	1691.910
-15.677	33.201	1967.287	1690.460
-14.663	33.149	1965.871	1688.710
-13.648	33.190	1964.654	1687.965
-12.633	33.176	1963.699	1686.951
-11.619	33.194	1962.570	1686.076
-10.604	33.223	1960.204	1684.232
-9.590	33.208	1959.413	1683.356
-8.575	33.103	1958.299	1681.393
-7.560	33.126	1956.754	1680.204
-6.546	33.234	1954.672	1679.310
-5.531	33.192	1954.280	1678.535
-4.517	33.231	1952.860	1677.593
-3.502	33.186	1951.696	1676.130
-2.487	33.137	1950.702	1674.774
-1.473	33.135	1949.379	1673.556
-0.458	33.282	1945.504	1671.459
0.556	34.887	1926.280	1649.563
1.571	31.512	1909.062	1605.764
2.586	28.114	1933.365	1596.457
3.600	27.182	1970.816	1618.948
4.615	26.000	1964.218	1602.885
5.629	19.366	1856.453	1458.881
6.644	9.014	1732.426	1279.151
7.659	4.400	1694.412	1214.935
8.673	4.076	1690.581	1209.547
9.688	3.996	1689.477	1208.030
10.702	4.009	1687.489	1206.600
11.717	3.999	1684.858	1204.537
12.731	4.546	1684.452	1208.390
13.746	11.200	1700.682	1272.024
14.761	19.396	1718.835	1349.894
15.775	21.327	1719.443	1365.354
16.790	20.354	1717.477	1356.076
17.804	19.396	1713.371	1345.248
18.819	18.443	1710.214	1335.228
19.834	17.834	1707.560	1328.296
20.848	17.476	1706.483	1324.557
21.863	17.301	1704.763	1321.746
22.877	17.063	1703.686	1318.943
23.892	16.894	1702.209	1316.368
24.907	16.809	1701.363	1314.941
25.921	16.848	1699.659	1313.805
26.936	16.811	1698.973	1312.873
27.950	16.758	1698.541	1312.013
28.965	16.870	1697.449	1311.920
29.980	16.968	1696.352	1311.713
30.994	16.994	1695.586	1311.205
32.009	17.085	1694.802	1311.190
33.023	17.245	1693.252	1311.108
34.038	17.184	1692.634	1310.046
35.053	17.148	1691.445	1308.726
36.067	17.030	1690.200	1306.739
37.082	17.072	1688.725	1305.811
38.096	17.027	1687.780	1304.617
39.111	17.119	1686.982	1304.591
40.126	17.146	1686.104	1304.003
41.140	17.116	1685.224	1302.979
42.155	16.980	1683.978	1300.855
43.169	16.744	1682.534	1297.821
44.184	16.702	1681.170	1296.332
45.199	16.660	1680.252	1295.186
46.213	16.761	1678.305	1294.346
47.228	16.714	1677.767	1293.454
48.242	16.756	1676.640	1292.791
49.257	16.908	1675.591	1293.028
50.271	16.918	1674.415	1292.083
51.286	16.842	1673.181	1290.435
52.301	16.913	1671.539	1289.597
53.315	16.992	1670.393	1289.198
54.330	16.885	1668.727	1286.984
55.344	16.780	1667.176	1284.881
56.359	16.809	1665.475	1283.678
57.374	16.782	1664.404	1282.530
58.388	16.758	1663.467	1281.514
59.403	16.701	1662.341	1280.101
60.417	16.645	1661.102	1278.611
61.432	16.615	1659.685	1277.178
62.447	16.650	1658.119	1276.130
63.461	16.579	1657.214	1274.780
64.476	16.583	1656.104	1273.847
65.490	16.536	1654.687	1272.290
66.505	16.579	1653.494	1271.583
67.520	16.537	1652.901	1270.702
68.534	16.545	1651.820	1269.819
69.549	16.641	1650.497	1269.403
70.563	16.664	1648.997	1268.313
71.578	16.618	1648.004	1267.091
72.593	16.478	1647.163	1265.287
73.607	16.448	1646.116	1264.146
74.622	16.422	1645.123	1263.077
75.636	16.417	1644.009	1262.075
76.651	16.473	1642.961	1261.572
77.666	16.465	1642.218	1260.832
78.680	16.493	1641.535	1260.402
79.695	16.546	1640.002	1259.513
80.709	16.593	1639.511	1259.372
81.724	16.615	1638.956	1258.995
82.739	16.726	1637.811	1258.831
83.753	16.714	1636.953	1257.974
84.768	16.851	1636.028	1258.168
85.782	16.924	1635.340	1258.070
86.797	16.957	1634.806	1257.789
87.812	16.970	1634.230	1257.330
88.826	17.036	1632.323	1256.245
89.841	16.941	1631.225	1254.585
90.855	16.871	1630.762	1253.595
91.870	16.983	1629.585	1253.413
92.884	16.964	1628.880	1252.619
93.899	16.974	1627.648	1251.630
94.914	17.120	1626.100	1251.407
95.928	17.195	1625.211	1251.167
96.943	17.152	1624.218	1249.976
97.957	17.054	1622.381	1247.731
98.972	16.979	1620.939	1245.962
99.987	17.008	1619.245	1244.756
101.001	16.988	1617.563	1243.206
102.016	17.012	1616.220	1242.243
103.030	16.993	1614.873	1240.958
104.045	16.964	1613.716	1239.747
105.060	17.096	1612.242	1239.466
106.074	17.007	1610.919	1237.695
107.089	16.822	1609.094	1234.835
108.103	16.700	1607.699	1232.764
109.118	16.663	1605.757	1230.901
110.133	16.593	1604.603	1229.399
111.147	16.587	1603.072	1228.072
112.162	16.629	1601.675	1227.200
113.176	16.707	1600.042	1226.401
114.191	16.702	1598.943	1225.418
115.206	16.787	1597.770	1225.023
116.220	16.765	1596.394	1223.701
117.235	16.705	1595.205	1222.252
118.249	16.718	1593.690	1221.069
119.264	16.671	1592.653	1219.833
120.279	16.670	1591.376	1218.739
121.293	16.643	1589.495	1216.992
122.308	16.658	1588.053	1215.889
123.322	16.578	1586.733	1214.199
124.337	16.577	1584.794	1212.604
125.352	16.544	1583.760	1211.468
126.366	16.556	1583.164	1210.992
127.381	16.583	1581.633	1209.905
128.395	16.500	1580.451	1208.301
129.410	16.500	1579.407	1207.398
130.424	16.521	1578.147	1206.472
131.439	16.580	1576.931	1205.859
132.454	16.700	1575.137	1205.231
133.468	16.728	1573.576	1204.133
134.483	16.743	1572.757	1203.503
135.497	16.753	1570.994	1202.120
136.512	16.795	1569.886	1201.466
137.527	16.787	1568.227	1200.029
138.541	16.811	1567.413	1199.475
139.556	16.910	1565.493	1198.596
140.570	16.895	1564.688	1197.768
141.585	16.939	1563.021	1196.696
142.600	17.019	1562.022	1196.390
143.614	17.074	1560.551	1195.545
144.629	17.162	1559.796	1195.480
145.643	17.160	1558.455	1194.331
146.658	17.178	1557.055	1193.278
147.673	17.084	1555.617	1191.412
148.687	17.047	1553.852	1189.697
149.702	16.958	1552.163	1187.673
150.716	16.918	1550.506	1186.023
151.731	16.903	1549.064	1184.710
152.746	16.908	1547.864	1183.721
153.760	16.901	1546.620	1182.614
154.775	16.963	1545.286	1181.925
155.789	16.914	1544.443	1180.834
156.804	17.024	1542.623	1180.105
157.819	17.000	1542.030	1179.379
158.833	17.079	1540.748	1178.845
159.848	17.198	1538.959	1178.195
160.862	17.164	1538.289	1177.344
161.877	17.292	1537.077	1177.194
162.892	17.109	1535.838	1174.878
163.906	17.119	1534.011	1173.442
164.921	16.941	1532.703	1171.112
165.935	16.920	1531.917	1170.263
166.950	16.990	1530.590	1169.626
167.964	17.071	1529.426	1169.192
168.979	17.066	1528.532	1168.369
169.994	17.054	1527.235	1167.197
171.008	16.992	1526.057	1165.766
172.023	16.953	1525.546	1165.003
173.037	17.077	1524.604	1165.029
174.052	17.201	1522.789	1164.393
175.067	17.270	1521.698	1163.928
176.081	17.149	1520.379	1161.985
177.096	17.000	1519.676	1160.328
178.110	16.890	1518.134	1158.297
179.125	17.096	1516.304	1158.206
180.140	17.065	1515.961	1157.628
181.154	17.111	1514.709	1156.884
182.169	17.108	1513.898	1156.138
183.183	17.197	1512.762	1155.779
184.198	17.313	1511.414	1155.431
185.213	17.374	1510.950	1155.392
186.227	17.355	1509.638	1154.157
187.242	17.338	1508.543	1153.098
188.256	17.407	1507.385	1152.583
189.271	17.457	1506.537	1152.171
190.286	17.548	1505.276	1151.719
191.300	17.519	1504.125	1150.539
192.315	17.250	1502.963	1147.734
193.329	17.029	1501.432	1144.973
194.344	16.923	1500.108	1143.149
195.359	17.006	1499.372	1143.043
196.373	17.106	1498.055	1142.611
197.388	17.298	1497.370	1143.276
198.402	17.275	1496.612	1142.445
199.417	17.430	1495.318	1142.394
200.432	17.522	1494.399	1142.209
201.446	17.656	1493.731	1142.494
202.461	17.659	1492.771	1141.683
203.475	17.742	1491.353	1141.051
204.490	17.748	1490.426	1140.279
205.504	17.689	1489.299	1138.926
206.519	17.510	1487.819	1136.500
207.534	17.498	1486.722	1135.475
208.548	17.577	1485.423	1134.911
209.563	17.437	1484.588	1133.242
210.577	17.503	1483.454	1132.712
211.592	17.449	1482.457	1131.490
212.607	17.545	1481.954	1131.649
213.621	17.725	1481.399	1132.317
214.636	17.716	1480.437	1131.422
215.650	17.780	1478.823	1130.513
216.665	17.785	1478.050	1129.854
217.680	17.675	1477.550	1128.648
218.694	17.739	1476.959	1128.519
219.709	17.841	1475.874	1128.263
220.723	17.865	1475.197	1127.807
221.738	17.747	1474.232	1126.186
222.753	17.776	1473.105	1125.418
223.767	17.835	1472.240	1125.048
224.782	17.719	1471.795	1123.844
225.796	17.848	1470.039	1123.255
226.811	17.901	1469.663	1123.214
227.826	17.957	1468.572	1122.648
228.840	17.926	1467.655	1121.644
229.855	17.963	1466.344	1120.787
230.869	17.841	1465.651	1119.361
231.884	17.817	1464.603	1118.302
232.899	17.746	1463.558	1116.938
233.913	17.772	1461.645	1115.550
234.928	17.784	1460.634	1114.758
235.942	17.693	1459.594	1113.273
236.957	17.607	1458.158	1111.519
237.972	17.791	1457.007	1111.739
238.986	17.540	1456.333	1109.492
240.001	17.719	1455.334	1109.801
241.015	17.774	1454.251	1109.236
242.030	17.770	1452.977	1108.140
243.045	17.811	1451.896	1107.484
244.059	17.853	1451.323	1107.216
245.074	17.976	1450.084	1106.969
246.088	17.918	1449.485	1106.044
247.103	17.943	1449.121	1105.828
248.117	18.046	1448.433	1105.871
249.132	18.076	1447.475	1105.234
250.147	18.141	1447.095	1105.268
251.161	18.361	1446.392	1106.051
252.176	18.399	1446.016	1105.913
253.190	18.381	1445.199	1105.077
254.205	18.555	1444.144	1105.290
255.220	18.546	1443.232	1104.436
256.234	18.609	1442.280	1104.015
257.249	18.685	1441.276	1103.643
258.263	18.525	1440.918	1102.238
259.278	18.601	1439.820	1101.789
260.293	18.587	1439.276	1101.190
261.307	18.554	1438.466	1100.256
262.322	18.694	1437.648	1100.436
263.336	18.730	1436.425	1099.631
264.351	18.728	1435.542	1098.846
265.366	18.754	1434.498	1098.112
266.380	18.795	1433.164	1097.257
267.395	18.786	1432.496	1096.591
268.409	18.793	1431.793	1096.002
269.424	18.702	1430.325	1094.198
270.439	18.595	1429.449	1092.754
271.453	18.527	1428.462	1091.469
272.468	18.621	1427.477	1091.218
273.482	18.560	1427.088	1090.435
274.497	18.624	1425.964	1089.883
275.512	18.613	1424.967	1088.960
276.526	18.591	1424.014	1087.996
277.541	18.622	1423.003	1087.320
278.555	18.605	1422.101	1086.428
279.570	18.764	1421.273	1086.705
280.585	18.789	1420.677	1086.314
281.599	18.836	1419.797	1085.839
282.614	18.754	1419.521	1085.016
283.628	18.787	1417.774	1083.790
284.643	18.834	1416.068	1082.685
285.657	18.669	1415.203	1080.892
286.672	18.750	1414.336	1080.643
287.687	18.833	1413.550	1080.467
288.701	18.832	1412.222	1079.350
289.716	18.839	1412.086	1079.199
290.730	18.794	1411.127	1078.083
291.745	18.841	1409.989	1077.418
292.760	18.862	1408.851	1076.584
293.774	18.842	1408.170	1075.842
294.789	18.851	1407.326	1075.157
295.803	18.929	1406.511	1074.927
296.818	19.039	1405.554	1074.789
297.833	18.890	1404.772	1073.166
298.847	18.901	1403.348	1072.051
299.862	18.869	1402.109	1070.811
300.876	18.854	1401.271	1069.981
301.891	18.859	1401.016	1069.724
302.906	18.933	1399.772	1069.142
303.920	19.111	1398.928	1069.507
304.935	19.088	1398.648	1069.052
305.949	19.101	1397.587	1068.230
306.964	19.218	1396.832	1068.285
307.979	19.266	1395.983	1067.840
308.993	19.199	1395.022	1066.595
310.008	19.147	1393.844	1065.276
311.022	19.146	1393.111	1064.615
312.037	19.306	1391.766	1064.483
313.052	19.335	1390.679	1063.735
314.066	19.201	1389.887	1062.212
315.081	19.121	1388.523	1060.580
316.095	19.091	1387.474	1059.500
317.110	18.983	1386.515	1058.011
318.125	19.043	1385.440	1057.466
319.139	19.011	1384.636	1056.562
320.154	19.010	1383.558	1055.638
321.168	19.077	1382.590	1055.215
322.183	19.082	1381.527	1054.343
323.197	19.123	1380.865	1053.996
324.212	19.213	1379.670	1053.542
325.227	19.180	1378.927	1052.677
326.241	19.128	1378.024	1051.578
327.256	19.247	1376.849	1051.314
328.270	19.286	1376.580	1051.254
329.285	19.166	1375.403	1049.534
330.300	19.247	1374.496	1049.241
331.314	19.010	1373.972	1047.304
332.329	19.142	1373.018	1047.286
333.343	19.178	1371.888	1046.551
334.358	19.190	1371.393	1046.155
335.373	19.293	1370.329	1045.876
336.387	19.357	1369.720	1045.705
337.402	19.386	1368.763	1045.056
338.416	19.333	1368.631	1044.546
339.431	19.443	1367.666	1044.379
340.446	19.476	1366.886	1043.893
341.460	19.600	1365.646	1043.605
342.475	19.648	1364.764	1043.126
343.489	19.696	1363.903	1042.665
344.504	19.728	1363.127	1042.171
345.519	19.698	1362.391	1041.334
346.533	19.829	1361.198	1041.119
347.548	19.808	1360.786	1040.586
348.562	19.831	1359.781	1039.864
349.577	19.963	1359.017	1039.986
350.592	19.874	1357.879	1038.484
351.606	19.742	1356.740	1036.730
352.621	19.567	1355.401	1034.566
353.635	19.449	1354.956	1033.430
354.650	19.533	1353.819	1032.972
355.665	19.602	1352.674	1032.421
356.679	19.683	1351.377	1031.825
357.694	19.666	1350.789	1031.180
358.708	19.598	1350.044	1030.117
359.723	19.709	1348.540	1029.538
360.738	19.837	1347.398	1029.337
361.752	19.819	1346.454	1028.417
362.767	19.742	1345.409	1027.070
363.781	19.703	1344.734	1026.235
364.796	19.726	1343.799	1025.564
365.810	19.853	1343.134	1025.723
366.825	19.983	1342.462	1025.889
367.840	19.968	1342.032	1025.378
368.854	20.034	1341.274	1025.100
369.869	20.103	1340.750	1025.015
370.883	20.192	1339.913	1024.810
371.898	20.118	1339.153	1023.705
372.913	20.054	1338.293	1022.580
373.927	20.076	1337.512	1022.020
374.942	20.099	1336.731	1021.466
375.956	20.093	1335.974	1020.762
376.971	20.103	1335.203	1020.140
377.986	20.198	1334.015	1019.703
379.000	20.143	1333.809	1019.131
380.015	20.116	1332.884	1018.178
381.029	20.193	1332.290	1018.085
382.044	20.290	1331.211	1017.739
383.059	20.389	1330.543	1017.718
384.073	20.300	1329.693	1016.455
385.088	20.401	1329.171	1016.559
386.102	20.362	1328.583	1015.790
387.117	20.381	1327.757	1015.181
388.132	20.388	1326.684	1014.310
389.146	20.374	1325.535	1013.262
390.161	20.098	1325.549	1011.575
391.175	20.191	1324.016	1010.854
392.190	20.289	1322.836	1010.435
393.205	20.264	1322.413	1009.881
394.219	20.354	1321.420	1009.555
395.234	20.485	1320.066	1009.189
396.248	20.483	1318.652	1008.010
397.263	20.316	1317.524	1006.088
398.278	20.301	1316.063	1004.797
399.292	20.369	1314.734	1004.086
400.307	20.173	1314.009	1002.315
401.321	20.020	1313.191	1000.717
402.336	20.126	1311.839	1000.211
403.350	20.075	1311.101	999.264
404.365	20.138	1309.937	998.650
405.380	20.182	1309.007	998.109
406.394	20.238	1308.549	997.993
407.409	20.183	1308.081	997.228
408.423	20.409	1306.847	997.501
409.438	20.467	1306.520	997.492
410.453	20.610	1305.538	997.475
411.467	20.627	1304.962	997.044
412.482	20.643	1304.591	996.763
413.496	20.648	1303.929	996.199
414.511	20.790	1302.830	996.087
415.526	20.828	1302.254	995.776
416.540	20.813	1301.738	995.203
417.555	20.918	1300.882	995.064
418.569	20.935	1300.042	994.430
419.584	20.818	1300.005	993.647
420.599	20.827	1299.143	992.948
421.613	141.166	1433.870	1789.219
422.628	136.569	1453.495	1789.335
