DTS Sentinel unit serial number:	SN413079Multiplexer serial number:	ORYXHardware model number:	OX4-SRSoftware version number:	ORYX F/W v4.00 Oryx Data Collector v3.7.2.0data status	okinstallation	princeton_trtdifferential loss correction	single-endedforward channel	channel 4reverse channel	N/Adate	2019/09/14time	21:45:35forward acquisition time	60.00reverse acquisition time	0.00gamma	496.2192k internal	0.2306k external	0.2306temperature offset calibration	1.0071default loss term (dB/km)	0.3790temperature slope calibration	1.0000multiplexer offset coefficient	1.0000multiplexer slope coefficient	1.0000fibre end	0.00T internal ref (°C)	32.77T ext. ref 1 (°C)	4.74T ext. ref 2 (°C)	27.71length (m)	temperature (°C)	Stokes	anti-Stokes-747.200	44.154	-0.151	0.141
-746.185	31.907	0.174	0.152
-745.171	-109.160	0.420	-0.091
-744.156	242.580	0.182	0.309
-743.142	95.056	-0.206	-0.239
-742.127	165.215	-0.305	0.439
-741.112	-42.969	-0.118	-0.061
-740.098	800.000	-0.091	0.347
-739.083	-30.395	0.300	-0.173
-738.069	14.599	0.017	-0.014
-737.054	-2.593	0.280	0.200
-736.039	-170.397	-0.262	0.009
-735.025	518.585	-0.021	-0.050
-734.010	-200.000	0.028	-0.324
-732.996	312.751	0.068	-0.130
-731.981	-45.645	-0.370	-0.186
-730.966	-142.647	-0.356	-0.035
-729.952	248.102	0.135	-0.232
-728.937	25.121	-0.180	-0.152
-727.923	59.936	0.175	0.176
-726.908	191.021	0.088	0.135
-725.894	-75.059	-0.189	-0.069
-724.879	226.251	-0.132	-0.217
-723.864	233.908	-0.111	0.185
-722.850	-89.832	-0.319	-0.095
-721.835	-62.579	0.128	0.054
-720.821	35.400	-0.102	-0.091
-719.806	-111.734	-0.200	-0.041
-718.791	-200.000	-0.171	-0.001
-717.777	121.117	0.076	-0.096
-716.762	-197.845	-0.353	-0.002
-715.748	370.250	0.086	0.177
-714.733	-162.275	0.247	0.013
-713.718	198.342	0.093	-0.145
-712.704	-125.692	-0.349	0.054
-711.689	-1.142	0.238	0.171
-710.675	-200.000	-0.057	-0.370
-709.660	800.000	-0.018	-0.067
-708.645	-106.125	0.371	-0.085
-707.631	192.161	0.163	-0.250
-706.616	84.500	-0.133	-0.148
-705.602	-79.575	0.135	-0.046
-704.587	-81.820	-0.298	-0.099
-703.572	272.102	0.079	0.141
-702.558	-121.942	-0.157	-0.026
-701.543	272.339	0.156	-0.279
-700.529	295.914	-0.205	-0.382
-699.514	800.000	0.065	-0.213
-698.499	-52.802	-0.233	0.109
-697.485	-144.671	0.068	-0.006
-696.470	-90.122	0.266	0.079
-695.456	141.595	-0.132	-0.177
-694.441	224.548	-0.050	-0.082
-693.426	102.395	0.128	0.152
-692.412	-62.234	-0.124	-0.052
-691.397	800.000	-0.065	0.269
-690.383	-47.982	0.138	-0.068
-689.368	-28.763	0.114	0.067
-688.354	-115.367	-0.364	-0.070
-687.339	-172.200	-0.286	0.009
-686.324	199.393	-0.032	-0.050
-685.310	97.203	0.311	-0.363
-684.295	329.330	0.013	0.025
-683.281	-200.000	-0.032	-0.167
-682.266	-29.851	-0.154	0.089
-681.251	-46.499	0.297	-0.148
-680.237	-82.602	0.108	0.035
-679.222	23.833	0.394	-0.330
-678.208	-2.522	0.271	-0.193
-677.193	70.517	-0.092	-0.097
-676.178	666.763	0.041	-0.108
-675.164	-200.000	0.011	0.131
-674.149	6.647	0.063	-0.048
-673.135	800.000	-0.061	-0.171
-672.120	0.533	-0.342	-0.248
-671.105	-200.000	-0.010	0.173
-670.091	58.265	-0.269	0.268
-669.076	-66.069	0.194	0.079
-668.062	-200.000	-0.008	-0.304
-667.047	-200.000	-0.024	-0.181
-666.032	151.448	-0.099	-0.137
-665.018	-116.882	-0.251	-0.047
-664.003	-200.000	0.012	0.057
-662.989	178.191	0.215	-0.318
-661.974	15.542	-0.016	-0.013
-660.959	233.272	0.072	-0.120
-659.945	800.000	-0.051	-0.179
-658.930	-63.494	0.309	0.129
-657.916	79.055	-0.043	0.047
-656.901	224.948	0.107	0.175
-655.886	-2.184	-0.210	-0.149
-654.872	-77.585	0.207	-0.073
-653.857	-87.257	-0.146	-0.045
-652.843	-78.888	-0.303	-0.105
-651.828	800.000	-0.084	-0.339
-650.814	-5.847	-0.157	-0.109
-649.799	-122.456	-0.293	0.048
-648.784	800.000	0.064	-0.235
-647.770	56.138	0.096	-0.094
-646.755	800.000	0.045	-0.137
-645.741	166.723	-0.145	-0.208
-644.726	46.442	-0.208	-0.196
-643.711	-131.341	-0.199	0.027
-642.697	2.593	0.178	-0.131
-641.682	57.541	-0.027	0.027
-640.668	-37.408	-0.086	-0.047
-639.653	261.524	-0.122	0.215
-638.638	238.300	0.114	-0.192
-637.624	-200.000	0.002	0.189
-636.609	800.000	-0.003	-0.014
-635.595	128.486	0.291	-0.376
-634.580	800.000	0.090	0.315
-633.565	677.189	0.028	-0.073
-632.551	-200.000	0.001	0.106
-631.536	-66.068	0.293	0.118
-630.522	-200.000	-0.024	-0.149
-629.507	309.811	0.100	-0.190
-628.492	703.355	-0.051	-0.135
-627.478	-200.000	0.001	-0.069
-626.463	-140.239	0.352	0.037
-625.449	131.146	-0.158	-0.206
-624.434	-102.228	0.285	0.069
-623.419	800.000	0.063	0.231
-622.405	25.930	0.123	0.104
-621.390	239.805	-0.240	-0.405
-620.376	-13.907	-0.221	-0.145
-619.361	-200.000	0.018	-0.267
-618.346	-200.000	0.030	0.210
-617.332	-60.362	0.379	0.163
-616.317	198.803	0.138	0.214
-615.303	-200.000	-0.018	0.160
-614.288	306.819	-0.145	0.274
-613.273	-33.404	0.326	0.182
-612.259	-76.301	0.060	0.021
-611.244	320.655	0.041	0.079
-610.230	39.504	-0.279	-0.253
-609.215	-10.378	-0.219	-0.147
-608.201	369.495	-0.114	-0.234
-607.186	-16.154	0.053	0.034
-606.171	-55.627	-0.168	0.076
-605.157	-79.374	0.277	0.095
-604.142	63.041	-0.042	0.043
-603.128	-200.000	-0.032	-0.319
-602.113	-53.106	-0.172	-0.080
-601.098	289.440	0.155	-0.284
-600.084	466.580	0.175	0.396
-599.069	-155.562	-0.238	-0.016
-598.055	-48.516	-0.097	0.047
-597.040	-200.000	-0.007	0.134
-596.025	-101.452	0.159	-0.039
-595.011	0.038	-0.328	-0.237
-593.996	-200.000	-0.032	-0.201
-592.982	-130.808	-0.190	-0.026
-591.967	-63.478	0.199	-0.083
-590.952	-108.546	0.162	0.035
-589.938	7.094	-0.149	0.112
-588.923	-7.793	0.240	-0.164
-587.909	-47.450	0.230	-0.113
-586.894	-79.559	0.098	-0.033
-585.879	21.690	0.116	-0.095
-584.865	229.107	-0.066	0.109
-583.850	-63.295	-0.138	-0.058
-582.836	-71.972	0.178	0.067
-581.821	-125.278	-0.259	-0.040
-580.806	329.752	0.057	0.112
-579.792	124.709	0.018	-0.023
-578.777	-200.000	-0.062	-0.382
-577.763	115.404	-0.172	0.212
-576.748	-88.094	0.195	0.059
-575.733	-200.000	-0.006	0.083
-574.719	-163.148	-0.239	-0.012
-573.704	-32.863	-0.156	-0.088
-572.690	800.000	-0.057	0.174
-571.675	102.784	-0.037	0.044
-570.661	-72.936	-0.102	-0.038
-569.646	-200.000	-0.028	0.288
-568.631	-8.111	-0.277	0.189
-567.617	467.394	0.155	0.351
-566.602	361.273	-0.018	0.036
-565.588	-200.000	0.009	-0.165
-564.573	-103.646	-0.042	0.010
-563.558	96.984	0.284	0.329
-562.544	128.998	-0.123	0.158
-561.529	375.494	-0.063	-0.131
-560.515	179.371	-0.039	-0.058
-559.500	-38.608	-0.183	-0.098
-558.485	800.000	-0.135	-0.416
-557.471	-91.329	0.070	-0.020
-556.456	-35.572	0.103	0.057
-555.442	41.601	-0.183	-0.167
-554.427	800.000	-0.020	-0.066
-553.412	800.000	0.067	-0.208
-552.398	-132.143	0.413	-0.054
-551.383	800.000	0.100	-0.304
-550.369	800.000	0.038	-0.123
-549.354	225.605	-0.117	-0.192
-548.339	-1.949	0.205	0.146
-547.325	-93.450	0.068	-0.019
-546.310	-200.000	0.034	-0.393
-545.296	235.883	0.111	-0.186
-544.281	424.486	-0.061	-0.131
-543.266	-200.000	0.051	-0.288
-542.252	-200.000	-0.005	-0.184
-541.237	-98.980	-0.054	-0.014
-540.223	35.469	0.012	-0.011
-539.208	-20.273	0.107	-0.066
-538.193	-200.000	-0.155	-0.000
-537.179	-158.078	-0.155	-0.009
-536.164	74.785	0.114	-0.121
-535.150	-55.209	0.179	-0.081
-534.135	800.000	-0.086	-0.330
-533.121	391.817	-0.090	-0.189
-532.106	800.000	-0.006	-0.024
-531.091	704.326	0.058	0.155
-530.077	-138.205	0.312	-0.035
-529.062	-200.000	0.019	0.191
-528.048	-54.832	-0.152	0.069
-527.033	22.219	-0.073	0.060
-526.018	35.335	-0.148	-0.131
-525.004	-200.000	0.010	-0.355
-523.989	93.352	0.152	0.173
-522.975	-67.364	0.205	-0.081
-521.960	111.873	-0.070	-0.086
-520.945	-200.000	0.007	0.113
-519.931	152.776	-0.031	-0.042
-518.916	670.150	-0.078	0.205
-517.902	106.382	0.147	-0.176
-516.887	800.000	-0.031	0.094
-515.872	-122.047	-0.158	0.026
-514.858	-180.558	0.364	0.008
-513.843	-49.526	-0.349	0.167
-512.829	-200.000	-0.000	-0.109
-511.814	236.842	-0.061	-0.103
-510.799	650.930	0.097	-0.251
-509.785	-2.507	0.157	-0.111
-508.770	20.896	0.091	0.075
-507.756	-25.112	0.075	0.045
-506.741	-200.000	0.001	0.070
-505.726	-153.448	-0.319	0.022
-504.712	-143.282	0.552	-0.053
-503.697	678.446	-0.055	-0.144
-502.683	169.417	0.199	-0.287
-501.668	380.141	0.222	-0.458
-500.653	11.098	-0.096	-0.074
-499.639	-39.609	-0.248	-0.131
-498.624	783.279	0.102	0.281
-497.610	-39.805	-0.027	0.014
-496.595	-120.101	0.152	0.026
-495.581	-28.570	0.249	-0.144
-494.566	-2.963	-0.156	-0.110
-493.551	351.065	0.124	0.247
-492.537	800.000	0.110	0.386
-491.522	17.790	-0.200	0.160
-490.508	-73.862	0.085	-0.031
-489.493	157.218	0.144	0.200
-488.478	70.648	-0.231	-0.240
-487.464	-103.724	0.349	0.082
-486.449	12.239	-0.128	0.099
-485.435	-94.043	-0.157	-0.044
-484.420	800.000	-0.022	0.076
-483.405	800.000	-0.108	0.453
-482.391	-200.000	-0.037	-0.238
-481.376	800.000	0.065	-0.252
-480.362	-8.440	-0.209	0.141
-479.347	800.000	-0.015	-0.052
-478.332	-161.701	-0.098	0.005
-477.318	-46.100	-0.148	-0.073
-476.303	75.753	0.037	0.040
-475.289	534.308	0.014	0.035
-474.274	28.319	0.236	-0.201
-473.259	139.023	0.161	0.213
-472.245	-200.000	0.000	-0.023
-471.230	228.273	-0.092	-0.150
-470.216	62.376	-0.052	0.052
-469.201	-93.201	-0.199	-0.056
-468.186	-200.000	0.011	0.056
-467.172	22.593	0.137	-0.113
-466.157	-200.000	0.020	-0.162
-465.143	-95.797	0.171	-0.046
-464.128	29.816	-0.234	-0.200
-463.113	800.000	-0.066	0.194
-462.099	78.835	0.170	0.183
-461.084	94.055	0.278	0.318
-460.070	459.716	-0.109	0.244
-459.055	221.407	0.111	-0.179
-458.040	-200.000	0.016	-0.285
-457.026	349.718	-0.092	-0.183
-456.011	-200.000	0.027	-0.158
-454.997	-123.061	-0.106	0.017
-453.982	-200.000	0.098	0.561
-452.968	119.584	-0.148	0.185
-451.953	-112.918	0.171	-0.034
-450.938	-116.404	-0.339	-0.063
-449.924	110.719	-0.059	-0.072
-448.909	-65.251	-0.102	-0.041
-447.895	-109.980	0.191	-0.040
-446.880	57.552	0.098	0.097
-445.865	372.706	0.110	-0.224
-444.851	-109.172	-0.136	-0.029
-443.836	-128.257	0.074	0.011
-442.822	-200.000	-0.021	-0.200
-441.807	-30.438	0.195	-0.111
-440.792	800.000	-0.053	-0.167
-439.778	-118.416	0.309	0.055
-438.763	-109.992	-0.309	0.065
-437.749	172.003	-0.211	0.305
-436.734	-126.139	0.050	-0.007
-435.719	800.000	-0.060	0.186
-434.705	415.625	-0.044	-0.094
-433.690	-79.749	-0.074	-0.025
-432.676	83.468	-0.090	0.099
-431.661	454.947	-0.121	-0.271
-430.646	15.657	-0.240	-0.190
-429.632	27.432	0.167	-0.141
-428.617	-200.000	-0.016	0.338
-427.603	-200.000	-0.057	0.382
-426.588	-33.471	0.232	-0.129
-425.573	-13.959	-0.325	0.211
-424.559	-31.122	-0.238	-0.135
-423.544	-200.000	-0.009	-0.133
-422.530	800.000	-0.081	0.350
-421.515	-113.694	0.095	0.019
-420.500	-6.917	0.116	0.079
-419.486	-148.058	0.354	-0.029
-418.471	-200.000	-0.026	-0.266
-417.457	-39.124	-0.228	0.121
-416.442	-200.000	-0.038	0.169
-415.428	121.004	0.169	0.212
-414.413	185.650	-0.032	-0.048
-413.398	-79.820	0.130	0.044
-412.384	109.102	0.095	-0.115
-411.369	123.635	0.070	-0.088
-410.355	-200.000	0.010	-0.061
-409.340	-0.495	0.133	0.095
-408.325	-200.000	-0.009	-0.067
-407.311	800.000	-0.048	-0.134
-406.296	-70.747	-0.211	-0.080
-405.282	-97.921	-0.319	-0.083
-404.267	-19.387	-0.278	-0.173
-403.252	16.907	0.013	-0.010
-402.238	-1.437	0.047	0.033
-401.223	-51.318	0.017	0.008
-400.209	540.085	-0.172	0.411
-399.194	26.989	0.298	-0.251
-398.179	-185.301	0.195	0.003
-397.165	-100.346	0.319	-0.079
-396.150	800.000	0.025	-0.092
-395.136	-19.120	0.145	0.091
-394.121	255.100	-0.068	-0.117
-393.106	184.032	0.174	0.259
-392.092	195.832	-0.078	-0.118
-391.077	512.684	-0.083	-0.194
-390.063	-200.000	-0.008	-0.035
-389.048	85.360	-0.220	0.242
-388.033	-117.736	0.287	0.052
-387.019	93.807	-0.073	0.083
-386.004	295.746	0.037	0.068
-384.990	-200.000	-0.027	0.169
-383.975	373.187	-0.100	0.204
-382.960	-26.323	0.336	0.198
-381.946	119.285	-0.066	-0.082
-380.931	165.891	0.372	0.529
-379.917	-26.874	-0.296	-0.174
-378.902	800.000	0.079	-0.245
-377.888	31.556	0.199	0.171
-376.873	52.593	0.112	0.107
-375.858	494.247	0.042	0.096
-374.844	-133.281	0.026	0.003
-373.829	-31.963	0.073	-0.041
-372.815	171.522	-0.176	-0.253
-371.800	-26.900	-0.221	-0.130
-370.785	10.016	-0.230	0.175
-369.771	326.129	0.135	-0.258
-368.756	-57.752	-0.166	-0.073
-367.742	-49.120	-0.225	-0.108
-366.727	59.363	-0.256	-0.253
-365.712	96.257	0.102	0.117
-364.698	189.875	0.135	0.203
-363.683	122.223	0.204	0.256
-362.669	-141.516	-0.274	0.028
-361.654	-10.473	0.230	-0.153
-360.639	-200.000	-0.019	0.118
-359.625	23.933	0.153	-0.127
-358.610	-200.000	-0.075	-0.430
-357.596	-200.000	0.002	-0.217
-356.581	-107.966	-0.225	-0.049
-355.566	-61.504	-0.187	-0.079
-354.552	-15.698	0.204	-0.131
-353.537	-84.466	0.301	0.095
-352.523	780.415	-0.061	0.167
-351.508	191.358	-0.132	0.200
-350.493	-109.501	0.604	0.128
-349.479	476.561	0.109	0.247
-348.464	-104.896	0.159	0.036
-347.450	-200.000	-0.081	0.403
-346.435	-1.379	-0.176	0.124
-345.420	-50.660	-0.145	-0.068
-344.406	800.000	0.024	-0.103
-343.391	407.489	-0.091	0.193
-342.377	91.797	0.091	0.103
-341.362	242.428	0.284	0.477
-340.348	-5.748	-0.152	-0.104
-339.333	19.447	-0.302	0.243
-338.318	32.620	0.193	0.167
-337.304	-117.327	0.252	-0.046
-336.289	705.380	0.088	-0.234
-335.275	-200.000	-0.011	0.130
-334.260	-200.000	-0.127	-0.001
-333.245	-200.000	0.042	0.190
-332.231	-135.616	0.148	-0.018
-331.216	-200.000	0.017	0.231
-330.202	-200.000	0.030	-0.162
-329.187	-127.777	0.107	0.015
-328.172	118.436	0.214	-0.264
-327.158	-127.367	-0.193	-0.028
-326.143	-25.622	-0.311	-0.184
-325.129	121.411	0.205	-0.255
-324.114	-178.522	-0.365	0.008
-323.099	-200.000	0.060	-0.277
-322.085	139.820	-0.043	-0.057
-321.070	-200.000	-0.078	0.425
-320.056	557.658	-0.047	-0.113
-319.041	436.601	0.164	0.358
-318.026	272.102	0.099	0.174
-317.012	-200.000	0.005	0.219
-315.997	-29.530	-0.101	0.058
-314.983	-8.337	-0.272	-0.183
-313.968	-200.000	0.025	-0.309
-312.953	-200.000	-0.038	0.181
-311.939	-51.209	-0.234	0.110
-310.924	-200.000	-0.094	-0.428
-309.910	800.000	-0.104	0.437
-308.895	581.310	-0.126	0.309
-307.880	92.870	-0.146	-0.165
-306.866	52.104	-0.227	-0.216
-305.851	192.990	-0.080	-0.121
-304.837	272.799	0.112	0.197
-303.822	703.102	-0.123	-0.325
-302.807	193.913	0.275	-0.417
-301.793	87.121	0.113	-0.125
-300.778	-169.018	-0.407	-0.015
-299.764	-200.000	-0.013	-0.302
-298.749	25.706	0.141	-0.117
-297.735	197.600	-0.112	-0.170
-296.720	19.521	0.148	-0.119
-295.705	-14.429	0.273	-0.176
-294.691	-181.862	0.339	-0.006
-293.676	151.672	-0.100	-0.136
-292.662	-153.364	0.246	0.017
-291.647	-200.000	0.018	-0.184
-290.632	-129.497	-0.079	0.011
-289.618	800.000	-0.041	0.130
-288.603	132.087	-0.179	0.231
-287.589	193.783	0.173	-0.261
-286.574	-200.000	-0.023	0.145
-285.559	-106.338	-0.080	-0.018
-284.545	-151.517	-0.215	0.016
-283.530	57.425	-0.192	-0.188
-282.516	-19.048	0.152	-0.094
-281.501	161.407	-0.317	0.443
-280.486	-52.767	0.228	0.105
-279.472	800.000	-0.154	0.547
-278.457	800.000	-0.045	0.153
-277.443	-200.000	0.012	0.092
-276.428	-200.000	0.034	0.174
-275.413	50.305	-0.141	0.133
-274.399	-91.404	-0.101	0.029
-273.384	75.408	-0.090	-0.095
-272.370	80.740	0.238	-0.257
-271.355	-8.641	-0.163	-0.109
-270.340	663.817	-0.066	0.171
-269.326	53.907	-0.159	-0.153
-268.311	-166.543	0.368	0.015
-267.297	349.122	-0.090	-0.177
-266.282	-200.000	0.008	-0.091
-265.267	-9.349	0.230	-0.153
-264.253	218.259	-0.061	0.097
-263.238	-200.000	-0.010	0.108
-262.224	-82.656	-0.146	-0.047
-261.209	488.934	-0.129	-0.295
-260.195	-200.000	0.000	-0.130
-259.180	-113.161	-0.423	0.083
-258.165	-200.000	-0.038	-0.204
-257.151	448.126	0.129	0.283
-256.136	324.240	0.104	0.199
-255.122	-75.929	0.154	-0.054
-254.107	-82.676	-0.340	0.110
-253.092	800.000	-0.027	0.093
-252.078	-164.344	0.355	-0.016
-251.063	-53.916	-0.125	-0.057
-250.049	-13.106	0.174	0.113
-249.034	-53.169	-0.036	0.016
-248.019	-70.666	0.146	-0.055
-247.005	-86.312	0.020	-0.006
-245.990	-200.000	0.004	-0.223
-244.976	219.509	-0.034	0.054
-243.961	-146.610	0.283	-0.025
-242.946	-40.761	0.262	-0.135
-241.932	60.843	-0.292	0.289
-240.917	-72.571	0.184	0.068
-239.903	-27.067	-0.291	0.169
-238.888	-200.000	0.048	-0.333
-237.873	-200.000	-0.003	-0.415
-236.859	-200.000	-0.017	0.223
-235.844	365.063	0.070	-0.140
-234.830	-137.270	-0.458	-0.052
-233.815	0.885	-0.198	-0.142
-232.800	76.675	0.175	0.185
-231.786	-3.356	-0.260	0.181
-230.771	-200.000	-0.066	0.336
-229.757	-200.000	0.020	0.247
-228.742	526.955	-0.052	-0.123
-227.727	327.228	-0.052	0.100
-226.713	-49.545	-0.083	0.040
-225.698	-200.000	-0.002	-0.160
-224.684	-21.171	-0.338	0.206
-223.669	800.000	-0.127	0.479
-222.655	-200.000	0.008	0.273
-221.640	-64.193	-0.355	0.144
-220.625	228.682	0.090	-0.146
-219.611	-200.000	-0.012	0.055
-218.596	-45.300	0.097	0.048
-217.582	102.128	0.114	-0.132
-216.567	41.301	0.341	0.307
-215.552	-75.920	0.123	0.043
-214.538	-56.266	0.251	-0.111
-213.523	-161.780	-0.247	-0.013
-212.509	-191.859	-0.152	0.001
-211.494	-200.000	-0.039	0.260
-210.479	51.300	-0.179	0.169
-209.465	241.054	-0.070	0.116
-208.450	69.430	-0.195	0.200
-207.436	-26.046	0.065	0.038
-206.421	-43.871	0.240	-0.120
-205.406	-200.000	-0.014	0.095
-204.392	157.457	0.053	0.073
-203.377	-162.109	0.316	-0.016
-202.363	88.912	0.045	0.050
-201.348	-63.990	0.238	0.097
-200.333	-38.542	-0.255	-0.134
-199.319	-200.000	-0.062	-0.386
-198.304	-159.222	-0.405	0.023
-197.290	58.065	0.292	-0.285
-196.275	144.400	-0.038	0.051
-195.260	615.554	0.049	0.123
-194.246	-200.000	-0.031	0.167
-193.231	46.927	0.092	-0.085
-192.217	-60.205	-0.231	-0.098
-191.202	-200.000	0.115	-0.000
-190.187	-200.000	-0.016	0.115
-189.173	228.531	0.137	-0.222
-188.158	22.990	0.085	-0.070
-187.144	82.347	0.238	0.257
-186.129	-24.531	0.218	-0.129
-185.114	119.148	-0.298	0.367
-184.100	356.125	-0.138	0.274
-183.085	703.022	0.104	0.274
-182.071	75.847	0.188	0.198
-181.056	459.013	-0.045	-0.100
-180.042	-45.933	-0.440	-0.216
-179.027	-200.000	-0.036	-0.250
-178.012	55.402	0.091	-0.088
-176.998	34.324	0.334	-0.290
-175.983	213.929	0.145	-0.229
-174.969	-5.466	0.079	-0.054
-173.954	-61.010	0.292	-0.123
-172.939	-200.000	0.054	0.243
-171.925	-13.731	-0.083	0.053
-170.910	-88.656	0.301	-0.089
-169.896	2.864	-0.188	-0.136
-168.881	-68.496	0.064	-0.025
-167.866	-200.000	0.059	0.478
-166.852	61.322	-0.206	0.204
-165.837	-200.000	0.039	0.179
-164.823	-21.403	0.318	0.193
-163.808	-140.644	-0.206	-0.021
-162.793	227.187	0.091	-0.147
-161.779	-10.693	0.116	-0.076
-160.764	-68.196	0.033	0.013
-159.750	-80.993	0.199	0.066
-158.735	-89.043	-0.263	-0.077
-157.720	-200.000	0.101	0.455
-156.706	122.278	-0.339	0.421
-155.691	341.229	0.090	0.174
-154.677	382.399	-0.164	-0.334
-153.662	-94.364	-0.484	-0.131
-152.647	464.917	-0.111	0.247
-151.633	-200.000	0.027	0.119
-150.618	22.429	0.268	0.218
-149.604	-129.113	-0.273	0.038
-148.589	133.490	-0.217	0.278
-147.574	-41.831	0.145	0.074
-146.560	-104.731	0.070	0.016
-145.545	679.945	-0.044	-0.114
-144.531	-45.170	0.172	0.085
-143.516	214.523	0.055	0.086
-142.502	47.687	0.148	0.137
-141.487	-102.068	0.264	0.063
-140.472	-200.000	-0.015	0.172
-139.458	-200.000	0.011	0.106
-138.443	94.288	-0.065	-0.074
-137.429	-120.144	0.331	-0.056
-136.414	-42.262	0.344	0.175
-135.399	29.418	-0.095	0.081
-134.385	-78.969	-0.283	0.096
-133.370	-7.655	-0.077	-0.052
-132.356	800.000	-0.055	0.206
-131.341	475.375	0.109	0.244
-130.326	-61.802	-0.192	-0.080
-129.312	-125.805	0.184	0.028
-128.297	-146.581	0.355	-0.031
-127.283	-130.015	0.075	0.010
-126.268	-112.899	-0.065	-0.013
-125.253	-73.131	0.390	0.142
-124.239	-162.840	-0.118	-0.006
-123.224	26.396	0.103	0.085
-122.210	146.372	0.023	0.031
-121.195	800.000	-0.046	0.131
-120.180	-41.247	-0.331	0.169
-119.166	-11.855	0.256	0.167
-118.151	186.969	-0.138	0.204
-117.137	-200.000	0.046	0.276
-116.122	-82.512	-0.203	0.065
-115.107	-200.000	0.021	0.477
-114.093	-74.008	0.195	0.070
-113.078	-51.046	0.220	-0.103
-112.064	-200.000	-0.014	-0.102
-111.049	-200.000	-0.123	-0.551
-110.034	-62.259	-0.157	-0.065
-109.020	-165.840	0.184	0.008
-108.005	652.388	-0.017	0.042
-106.991	-200.000	-0.006	0.107
-105.976	-49.387	0.100	0.047
-104.962	36.363	0.171	-0.149
-103.947	322.738	0.113	0.214
-102.932	21.201	-0.206	0.166
-101.918	-75.908	-0.033	0.012
-100.903	778.688	-0.111	0.300
-99.889	299.870	-0.182	-0.333
-98.874	-153.599	0.561	0.038
-97.859	135.920	0.192	-0.248
-96.845	18.421	0.101	-0.080
-95.830	129.368	-0.194	0.246
-94.816	-154.872	-0.145	0.009
-93.801	-200.000	0.044	0.245
-92.786	406.787	-0.098	-0.205
-91.772	-78.095	-0.049	0.017
-90.757	-38.288	-0.154	0.081
-89.743	11.366	-0.284	-0.216
-88.728	-185.949	-0.161	0.002
-87.713	-46.201	0.208	-0.101
-86.699	140.694	0.167	0.219
-85.684	42.269	0.152	-0.137
-84.670	-181.369	0.114	0.002
-83.655	787.272	0.100	0.272
-82.640	-23.959	-0.028	0.017
-81.626	45.822	-0.088	-0.081
-80.611	-200.000	0.028	-0.139
-79.597	-57.183	0.222	0.097
-78.582	11.494	0.253	0.192
-77.567	-147.925	0.076	-0.006
-76.553	236.053	-0.116	-0.191
-75.538	285.751	-0.049	-0.087
-74.524	-200.000	-0.011	-0.168
-73.509	-183.927	0.121	-0.002
-72.494	800.000	0.034	0.126
-71.480	-161.372	0.313	0.016
-70.465	-66.600	-0.145	-0.057
-69.451	169.476	0.193	-0.274
-68.436	-200.000	0.017	-0.147
-67.422	-90.611	-0.164	-0.047
-66.407	-43.692	-0.401	-0.200
-65.392	-49.507	-0.142	0.067
-64.378	-127.935	-0.394	-0.056
-63.363	800.000	0.095	-0.320
-62.349	53.856	0.181	0.172
-61.334	21.175	-1.075	-0.864
-60.319	141.960	0.424	0.557
-59.305	496.209	0.251	-0.572
-58.290	800.000	0.294	0.959
-57.276	222.704	0.693	1.106
-56.261	-200.000	95.554	573.514
-55.246	638.893	1376.278	3466.406
-54.232	194.786	2555.970	3841.100
-53.217	109.080	2301.565	2726.718
-52.203	39.311	2061.930	1828.022
-51.188	34.539	1977.041	1710.046
-50.173	32.993	1958.982	1680.618
-49.159	47.612	2007.006	1853.754
-48.144	48.978	2025.423	1883.003
-47.130	35.088	1988.058	1724.247
-46.115	32.792	1977.466	1694.403
-45.100	32.687	1974.889	1691.181
-44.086	32.655	1972.205	1688.535
-43.071	32.554	1970.148	1685.802
-42.057	32.532	1967.342	1683.132
-41.042	32.567	1965.935	1682.172
-40.027	32.534	1963.787	1679.980
-39.013	32.624	1961.548	1678.797
-37.998	32.672	1960.045	1677.875
-36.984	32.649	1958.532	1676.308
-35.969	32.680	1956.175	1674.498
-34.954	32.766	1954.340	1673.624
-33.940	32.769	1953.012	1672.450
-32.925	32.790	1951.551	1671.318
-31.911	32.816	1949.634	1669.837
-30.896	32.790	1947.796	1667.964
-29.881	32.737	1947.109	1666.843
-28.867	32.764	1945.474	1665.617
-27.852	32.844	1943.068	1664.195
-26.838	32.860	1941.004	1662.501
-25.823	32.741	1939.641	1660.226
-24.809	32.762	1937.676	1658.658
-23.794	32.774	1936.209	1657.445
-22.779	32.856	1934.031	1656.230
-21.765	32.733	1932.748	1653.990
-20.750	32.741	1931.426	1652.865
-19.736	32.862	1929.306	1652.042
-18.721	32.754	1928.329	1650.196
-17.706	32.810	1926.081	1648.695
-16.692	32.879	1924.369	1647.770
-15.677	32.786	1922.916	1645.648
-14.663	32.753	1921.797	1644.336
-13.648	32.760	1920.250	1643.004
-12.633	32.844	1919.002	1642.601
-11.619	32.780	1918.043	1641.158
-10.604	32.773	1916.254	1639.505
-9.590	32.752	1915.556	1638.662
-8.575	32.714	1913.991	1636.927
-7.560	32.812	1912.078	1636.072
-6.546	32.795	1911.533	1635.400
-5.531	32.836	1910.328	1634.652
-4.517	32.765	1908.693	1632.577
-3.502	32.797	1907.637	1631.886
-2.487	32.850	1905.551	1630.494
-1.473	32.839	1905.618	1630.395
-0.458	32.854	1900.944	1626.456
0.556	32.646	1881.059	1598.789
1.571	28.514	1861.766	1547.475
2.586	24.518	1883.783	1531.440
3.600	23.424	1919.510	1550.777
4.615	22.839	1914.050	1541.127
5.629	17.671	1813.961	1417.544
6.644	9.172	1695.360	1258.419
7.659	5.066	1659.683	1200.284
8.673	4.779	1656.968	1196.010
9.688	4.748	1655.397	1194.528
10.702	4.721	1653.715	1193.006
11.717	4.732	1650.570	1190.710
12.731	5.180	1650.375	1193.896
13.746	10.796	1663.778	1246.677
14.761	18.146	1679.426	1315.019
15.775	20.107	1680.767	1331.023
16.790	19.180	1677.914	1321.538
17.804	18.088	1674.806	1310.605
18.819	17.099	1671.039	1299.975
19.834	16.363	1669.241	1292.830
20.848	16.122	1667.282	1289.354
21.863	15.980	1665.627	1286.874
22.877	15.734	1664.120	1283.719
23.892	15.480	1662.942	1280.758
24.907	15.395	1662.179	1279.415
25.921	15.454	1660.582	1278.523
26.936	15.458	1659.728	1277.782
27.950	15.561	1658.800	1277.738
28.965	15.472	1658.418	1276.648
29.980	15.534	1657.763	1276.505
30.994	15.644	1656.685	1276.394
32.009	15.698	1655.441	1275.739
33.023	15.746	1654.637	1275.369
34.038	15.777	1653.668	1274.740
35.053	15.697	1652.733	1273.303
36.067	15.627	1651.172	1271.460
37.082	15.581	1650.389	1270.392
38.096	15.637	1648.822	1269.498
39.111	15.622	1648.260	1268.843
40.126	15.719	1647.710	1269.035
41.140	15.608	1647.190	1267.684
42.155	15.468	1645.437	1265.169
43.169	15.452	1643.539	1263.478
44.184	15.355	1642.522	1261.859
45.199	15.385	1641.404	1261.109
46.213	15.320	1640.395	1259.734
47.228	15.375	1639.340	1259.224
48.242	15.464	1638.325	1259.002
49.257	15.504	1637.016	1258.189
50.271	15.516	1636.083	1257.446
51.286	15.592	1634.343	1256.571
52.301	15.538	1633.004	1255.023
53.315	15.515	1632.253	1254.163
54.330	15.593	1629.909	1252.830
55.344	15.407	1628.822	1250.498
56.359	15.410	1627.712	1249.562
57.374	15.418	1626.355	1248.469
58.388	15.469	1625.219	1247.866
59.403	15.372	1623.712	1245.878
60.417	15.340	1622.572	1244.652
61.432	15.332	1621.715	1243.825
62.447	15.203	1620.950	1242.172
63.461	15.276	1619.296	1241.338
64.476	15.160	1618.371	1239.659
65.490	15.276	1616.970	1239.338
66.505	15.234	1615.887	1238.085
67.520	15.248	1614.949	1237.357
68.534	15.272	1613.868	1236.602
69.549	15.221	1612.802	1235.294
70.563	15.345	1611.608	1235.184
71.578	15.285	1610.405	1233.714
72.593	15.147	1609.636	1231.997
73.607	15.145	1608.214	1230.788
74.622	15.088	1607.574	1229.773
75.636	15.026	1606.560	1228.432
76.651	15.148	1605.509	1228.413
77.666	15.127	1604.980	1227.745
78.680	15.113	1604.148	1226.901
79.695	15.169	1602.831	1226.192
80.709	15.227	1601.716	1225.656
81.724	15.262	1601.253	1225.447
82.739	15.231	1600.195	1224.302
83.753	15.366	1599.862	1224.923
84.768	15.379	1599.166	1224.382
85.782	15.452	1597.976	1223.894
86.797	15.638	1597.412	1224.707
87.812	15.653	1596.575	1224.068
88.826	15.523	1595.265	1222.006
89.841	15.534	1593.959	1220.981
90.855	15.487	1593.105	1219.877
91.870	15.598	1591.897	1219.648
92.884	15.539	1591.226	1218.595
93.899	15.581	1590.408	1218.165
94.914	15.658	1588.861	1217.432
95.928	15.745	1587.494	1216.906
96.943	15.630	1586.746	1215.396
97.957	15.656	1585.119	1214.230
98.972	15.575	1583.597	1212.375
99.987	15.557	1582.018	1210.929
101.001	15.649	1580.257	1210.136
102.016	15.651	1578.340	1208.576
103.030	15.643	1577.550	1207.803
104.045	15.633	1576.740	1207.005
105.060	15.626	1574.939	1205.468
106.074	15.531	1573.781	1203.793
107.089	15.448	1572.551	1202.153
108.103	15.332	1570.996	1200.029
109.118	15.242	1569.445	1198.091
110.133	15.308	1567.627	1197.074
111.147	15.264	1566.533	1195.815
112.162	15.256	1565.459	1194.836
113.176	15.323	1563.639	1193.818
114.191	15.239	1562.896	1192.546
115.206	15.352	1561.673	1192.313
116.220	15.394	1559.927	1191.168
117.235	15.324	1558.545	1189.511
118.249	15.311	1557.589	1188.582
119.264	15.393	1555.862	1187.741
120.279	15.265	1554.953	1186.040
121.293	15.230	1553.226	1184.367
122.308	15.282	1551.423	1183.257
123.322	15.171	1550.504	1181.669
124.337	15.297	1548.206	1180.697
125.352	15.159	1547.236	1178.880
126.366	15.200	1546.318	1178.368
127.381	15.162	1545.719	1177.537
128.395	15.155	1544.440	1176.416
129.410	15.265	1542.372	1175.508
130.424	15.281	1541.294	1174.688
131.439	15.358	1539.501	1173.763
132.454	15.258	1538.946	1172.536
133.468	15.427	1537.096	1172.199
134.483	15.348	1536.098	1170.781
135.497	15.377	1534.813	1169.901
136.512	15.404	1533.579	1169.046
137.527	15.440	1532.007	1167.998
138.541	15.425	1530.696	1166.786
139.556	15.393	1529.512	1165.560
140.570	15.535	1528.338	1165.546
141.585	15.570	1526.876	1164.575
142.600	15.587	1525.761	1163.737
143.614	15.591	1525.065	1163.134
144.629	15.760	1523.532	1163.026
145.643	15.768	1521.875	1161.716
146.658	15.723	1520.967	1160.610
147.673	15.743	1519.401	1159.446
148.687	15.587	1518.322	1157.450
149.702	15.587	1516.143	1155.688
150.716	15.553	1514.694	1154.246
151.731	15.454	1513.442	1152.511
152.746	15.521	1512.363	1152.046
153.760	15.473	1510.776	1150.404
154.775	15.537	1510.261	1150.353
155.789	15.629	1508.246	1149.342
156.804	15.694	1507.040	1148.763
157.819	15.644	1505.827	1147.396
158.833	15.800	1504.772	1147.560
159.848	15.768	1503.566	1146.321
160.862	15.822	1502.574	1145.826
161.877	15.807	1501.657	1144.927
162.892	15.712	1500.627	1143.393
163.906	15.664	1498.918	1141.664
164.921	15.578	1497.870	1140.177
165.935	15.606	1496.621	1139.318
166.950	15.645	1495.252	1138.443
167.964	15.618	1494.703	1137.735
168.979	15.610	1494.035	1137.073
169.994	15.670	1492.771	1136.417
171.008	15.651	1491.454	1135.188
172.023	15.698	1490.263	1134.500
173.037	15.701	1489.526	1133.853
174.052	15.745	1488.457	1133.237
175.067	15.800	1487.721	1132.949
176.081	15.845	1485.866	1131.734
177.096	15.749	1484.413	1129.886
178.110	15.730	1483.237	1128.762
179.125	15.627	1482.520	1127.428
180.140	15.688	1481.364	1126.859
181.154	15.791	1480.023	1126.424
182.169	15.860	1478.717	1125.796
183.183	15.882	1478.007	1125.301
184.198	15.929	1476.915	1124.684
185.213	15.931	1476.244	1124.085
186.227	15.967	1475.420	1123.599
187.242	16.094	1473.855	1123.156
188.256	16.081	1472.785	1122.152
189.271	16.019	1472.419	1121.364
190.286	16.122	1470.797	1120.715
191.300	16.047	1470.242	1119.693
192.315	15.808	1468.739	1116.863
193.329	15.729	1467.271	1115.124
194.344	15.653	1466.465	1113.907
195.359	15.732	1465.420	1113.538
196.373	15.773	1464.327	1112.881
197.388	15.942	1463.321	1113.137
198.402	15.969	1462.715	1112.755
199.417	15.976	1461.558	1111.822
200.432	16.197	1460.160	1112.120
201.446	16.259	1459.420	1111.863
202.461	16.290	1458.872	1111.551
203.475	16.270	1457.576	1110.335
204.490	16.435	1456.127	1110.220
205.504	16.367	1455.556	1109.237
206.519	16.259	1454.307	1107.478
207.534	16.262	1453.040	1106.438
208.548	16.090	1451.945	1104.374
209.563	16.096	1450.665	1103.342
210.577	16.185	1449.838	1103.198
211.592	16.199	1448.809	1102.409
212.607	16.249	1448.234	1102.203
213.621	16.315	1447.818	1102.222
214.636	16.302	1447.104	1101.493
215.650	16.260	1446.367	1100.561
216.665	16.391	1444.699	1100.044
217.680	16.406	1443.833	1099.390
218.694	16.452	1443.280	1099.166
219.709	16.482	1442.857	1098.946
220.723	16.557	1441.215	1098.084
221.738	16.512	1440.769	1097.356
222.753	16.542	1439.924	1096.808
223.767	16.469	1438.783	1095.369
224.782	16.474	1438.017	1094.722
225.796	16.502	1436.698	1093.805
226.811	16.633	1435.726	1093.810
227.826	16.575	1435.263	1092.989
228.840	16.646	1434.256	1092.584
229.855	16.562	1433.459	1091.335
230.869	16.570	1432.325	1090.429
231.884	16.554	1431.360	1089.491
232.899	16.409	1430.490	1087.806
233.913	16.416	1429.284	1086.834
234.928	16.474	1427.894	1086.053
235.942	16.460	1426.441	1084.764
236.957	16.359	1425.230	1083.099
237.972	16.403	1423.920	1082.287
238.986	16.446	1423.100	1081.847
240.001	16.430	1422.341	1081.072
241.015	16.481	1421.365	1080.556
242.030	16.418	1420.203	1079.177
243.045	16.493	1419.009	1078.656
244.059	16.596	1418.291	1078.667
245.074	16.652	1417.619	1078.415
246.088	16.607	1416.799	1077.413
247.103	16.619	1416.230	1076.958
248.117	16.773	1415.600	1077.369
249.132	16.790	1414.812	1076.780
250.147	16.818	1414.028	1076.265
251.161	16.930	1413.423	1076.419
252.176	17.088	1412.929	1076.951
253.190	17.055	1411.724	1075.726
254.205	17.185	1410.912	1075.837
255.220	17.159	1410.407	1075.195
256.234	17.224	1409.682	1074.957
257.249	17.162	1408.937	1073.899
258.263	17.277	1407.902	1073.746
259.278	17.129	1407.352	1072.294
260.293	17.178	1406.079	1071.537
261.307	17.205	1405.423	1071.111
262.322	17.284	1405.079	1071.253
263.336	17.280	1404.117	1070.405
264.351	17.311	1402.918	1069.586
265.366	17.352	1401.819	1068.910
266.380	17.297	1401.263	1068.047
267.395	17.351	1400.126	1067.428
268.409	17.355	1399.060	1066.547
269.424	17.297	1398.320	1065.523
270.439	17.295	1396.884	1064.321
271.453	17.377	1396.308	1064.304
272.468	17.269	1395.409	1062.848
273.482	17.269	1394.461	1062.034
274.497	17.197	1393.664	1060.882
275.512	17.236	1392.453	1060.108
276.526	17.322	1391.714	1059.989
277.541	17.328	1390.604	1059.083
278.555	17.314	1389.978	1058.431
279.570	17.241	1389.666	1057.640
280.585	17.358	1388.304	1057.241
281.599	17.433	1387.670	1057.130
282.614	17.517	1386.773	1056.873
283.628	17.512	1385.503	1055.781
284.643	17.417	1384.199	1054.108
285.657	17.378	1383.442	1053.196
286.672	17.339	1382.839	1052.401
287.687	17.415	1381.777	1051.972
288.701	17.447	1380.653	1051.218
289.716	17.454	1379.880	1050.579
290.730	17.467	1379.121	1049.989
291.745	17.425	1378.051	1048.821
292.760	17.454	1377.755	1048.684
293.774	17.462	1376.298	1047.531
294.789	17.565	1374.853	1046.970
295.803	17.603	1374.693	1046.994
296.818	17.609	1373.798	1046.255
297.833	17.579	1372.773	1045.196
298.847	17.520	1372.012	1044.161
299.862	17.562	1370.755	1043.373
300.876	17.606	1369.461	1042.563
301.891	17.607	1368.867	1042.028
302.906	17.581	1368.212	1041.274
303.920	17.682	1367.430	1041.206
304.935	17.804	1366.583	1041.210
305.949	17.828	1366.162	1040.945
306.964	17.769	1365.532	1040.013
307.979	17.945	1364.561	1040.253
308.993	17.845	1363.484	1038.736
310.008	17.901	1362.255	1038.044
311.022	17.934	1361.225	1037.368
312.037	17.821	1360.378	1035.947
313.052	17.891	1359.751	1035.798
314.066	17.846	1358.520	1034.500
315.081	17.759	1357.667	1033.231
316.095	17.726	1356.364	1031.950
317.110	17.712	1355.021	1030.751
318.125	17.763	1353.991	1030.183
319.139	17.638	1353.588	1029.033
320.154	17.690	1352.511	1028.436
321.168	17.782	1351.621	1028.221
322.183	17.757	1350.421	1027.071
323.197	17.827	1349.383	1026.607
324.212	17.801	1349.082	1026.135
325.227	17.841	1347.826	1025.329
326.241	17.793	1347.138	1024.423
327.256	17.845	1346.280	1023.995
328.270	17.905	1345.399	1023.595
329.285	17.817	1344.650	1022.402
330.300	17.848	1343.616	1021.716
331.314	17.876	1342.444	1020.898
332.329	17.944	1341.573	1020.551
333.343	17.945	1340.762	1019.852
334.358	17.936	1340.125	1019.225
335.373	17.950	1339.608	1018.821
336.387	18.086	1338.485	1018.689
337.402	18.080	1337.994	1018.191
338.416	18.016	1337.293	1017.187
339.431	18.117	1336.384	1017.008
340.446	18.196	1335.715	1016.876
341.460	18.202	1334.662	1016.021
342.475	18.271	1333.954	1015.802
343.489	18.386	1333.315	1015.903
344.504	18.339	1332.251	1014.729
345.519	18.395	1331.195	1014.166
346.533	18.309	1330.559	1013.083
347.548	18.405	1329.340	1012.632
348.562	18.508	1328.792	1012.733
349.577	18.528	1327.956	1012.121
350.592	18.441	1327.065	1010.845
351.606	18.438	1325.976	1009.902
352.621	18.385	1324.886	1008.673
353.635	18.315	1324.034	1007.525
354.650	18.249	1323.086	1006.326
355.665	18.218	1321.925	1005.168
356.679	18.210	1321.137	1004.434
357.694	18.317	1320.061	1004.158
358.708	18.347	1319.157	1003.558
359.723	18.282	1318.310	1002.443
360.738	18.397	1317.076	1002.086
361.752	18.412	1316.393	1001.567
362.767	18.346	1315.351	1000.297
363.781	18.392	1314.489	999.822
364.796	18.403	1313.623	999.143
365.810	18.418	1313.265	998.866
366.825	18.549	1312.344	998.842
367.840	18.696	1311.674	999.100
368.854	18.608	1310.873	997.887
369.869	18.790	1310.325	998.440
370.883	18.771	1309.953	997.961
371.898	18.770	1308.975	997.120
372.913	18.736	1307.993	996.084
373.927	18.629	1307.343	994.882
374.942	18.691	1306.508	994.521
375.956	18.805	1305.914	994.638
376.971	18.840	1305.188	994.204
377.986	18.812	1304.057	993.087
379.000	18.816	1303.259	992.415
380.015	18.843	1302.571	991.960
381.029	18.736	1301.926	990.768
382.044	18.940	1301.273	991.359
383.059	18.944	1300.460	990.673
384.073	18.961	1299.525	989.970
385.088	18.895	1299.501	989.485
386.102	18.900	1298.754	988.855
387.117	18.999	1297.897	988.684
388.132	18.971	1297.033	987.778
389.146	18.904	1296.106	986.601
390.161	18.821	1295.257	985.393
391.175	18.851	1294.245	984.708
392.190	18.817	1293.837	984.112
393.205	18.935	1292.653	983.805
394.219	18.953	1291.388	982.855
395.234	19.045	1290.629	982.714
396.248	19.000	1289.263	981.333
397.263	18.965	1287.927	980.029
398.278	19.006	1286.574	979.148
399.292	18.956	1285.325	977.825
400.307	18.938	1284.445	976.965
401.321	18.897	1283.438	975.884
402.336	18.807	1282.633	974.673
403.350	18.924	1281.674	974.524
404.365	18.845	1280.466	973.070
405.380	18.921	1279.574	972.733
406.394	18.943	1278.774	972.163
407.409	18.987	1278.353	972.008
408.423	18.980	1277.681	971.372
409.438	19.157	1277.123	971.860
410.453	19.155	1276.270	971.113
411.467	19.284	1275.366	971.069
412.482	19.256	1275.541	970.957
413.496	19.278	1274.779	970.417
414.511	19.356	1273.872	970.077
415.526	19.400	1272.766	969.394
416.540	19.446	1272.049	969.020
417.555	19.506	1271.349	968.741
418.569	19.616	1271.002	969.008
419.584	19.560	1269.963	967.813
420.599	19.414	1269.803	966.790
421.613	141.069	1431.985	1794.054
422.628	135.542	1455.592	1794.167
