DTS Sentinel unit serial number:	SN413079Multiplexer serial number:	ORYXHardware model number:	OX4-SRSoftware version number:	ORYX F/W v4.00 Oryx Data Collector v3.7.2.0data status	okinstallation	princeton_trtdifferential loss correction	single-endedforward channel	channel 4reverse channel	N/Adate	2019/09/17time	08:37:35forward acquisition time	60.00reverse acquisition time	0.00gamma	496.2192k internal	0.2317k external	0.2317temperature offset calibration	0.9980default loss term (dB/km)	0.3790temperature slope calibration	1.0000multiplexer offset coefficient	1.0000multiplexer slope coefficient	1.0000fibre end	0.00T internal ref (°C)	27.67T ext. ref 1 (°C)	0.13T ext. ref 2 (°C)	23.20length (m)	temperature (°C)	Stokes	anti-Stokes-747.200	199.003	-0.104	0.162
-746.185	-95.396	0.128	0.035
-745.171	718.826	-0.055	0.147
-744.156	396.447	-0.135	0.285
-743.142	-119.470	0.229	0.040
-742.127	81.338	0.149	0.163
-741.112	-104.078	0.065	-0.015
-740.098	-93.911	0.008	-0.002
-739.083	505.648	0.140	0.329
-738.069	-127.063	-0.243	-0.036
-737.054	800.000	-0.090	0.331
-736.039	-193.465	-0.154	0.001
-735.025	13.171	0.210	0.165
-734.010	-25.866	-0.272	-0.162
-732.996	439.077	0.124	-0.274
-731.981	-147.782	-0.135	0.011
-730.966	390.632	-0.055	0.116
-729.952	-54.488	0.356	-0.163
-728.937	-200.000	0.013	0.097
-727.923	-10.105	-0.021	0.014
-726.908	-12.361	-0.550	-0.364
-725.894	-129.684	-0.331	-0.046
-724.879	64.255	0.189	0.192
-723.864	-200.000	-0.023	0.211
-722.850	34.872	-0.115	-0.101
-721.835	-200.000	0.002	0.122
-720.821	-75.163	-0.075	-0.027
-719.806	-93.493	0.021	-0.006
-718.791	10.261	-0.197	-0.151
-717.777	-17.172	-0.154	0.098
-716.762	64.630	0.091	-0.092
-715.748	-29.162	-0.190	-0.110
-714.733	222.433	-0.062	0.101
-713.718	-200.000	-0.002	-0.288
-712.704	800.000	-0.073	-0.273
-711.689	252.809	0.134	-0.231
-710.675	-52.115	-0.129	0.061
-709.660	-74.914	0.225	0.082
-708.645	-196.834	-0.240	0.002
-707.631	-200.000	-0.067	-0.397
-706.616	-36.123	0.110	0.060
-705.602	-200.000	0.009	-0.146
-704.587	247.820	-0.052	0.090
-703.572	19.097	0.243	0.197
-702.558	304.841	0.086	-0.161
-701.543	148.001	-0.119	0.162
-700.529	800.000	0.080	0.242
-699.514	-8.258	-0.327	0.222
-698.499	-80.906	-0.294	-0.099
-697.485	77.031	0.235	0.252
-696.470	-48.008	0.496	0.242
-695.456	-200.000	-0.025	-0.295
-694.441	274.097	0.191	-0.342
-693.426	-153.671	0.262	0.018
-692.412	-37.407	-0.067	-0.036
-691.397	402.401	-0.080	-0.170
-690.383	-159.107	0.381	0.022
-689.368	800.000	0.047	-0.134
-688.354	800.000	0.042	-0.168
-687.339	201.729	0.115	-0.179
-686.324	112.091	0.041	0.051
-685.310	124.763	0.173	-0.220
-684.295	-200.000	0.038	-0.208
-683.281	800.000	0.091	-0.265
-682.266	-98.236	-0.397	-0.103
-681.251	26.407	-0.263	-0.222
-680.237	74.758	-0.176	0.187
-679.222	-35.844	0.226	-0.123
-678.208	-4.441	-0.076	0.053
-677.193	800.000	-0.124	-0.404
-676.178	-72.525	-0.247	-0.092
-675.164	-200.000	-0.011	0.053
-674.149	-77.945	-0.397	0.138
-673.135	-200.000	-0.013	0.180
-672.120	-23.732	-0.275	-0.166
-671.105	-15.400	0.156	0.100
-670.091	-200.000	-0.018	-0.254
-669.076	52.771	-0.062	-0.060
-668.062	25.308	-0.108	-0.091
-667.047	367.880	0.123	-0.252
-666.032	-21.647	-0.558	0.343
-665.018	83.383	-0.191	-0.210
-664.003	-98.828	0.154	0.040
-662.989	-200.000	-0.001	0.046
-661.974	-5.546	-0.176	0.122
-660.959	-137.212	0.203	-0.023
-659.945	-200.000	-0.042	-0.188
-658.930	31.159	0.127	0.110
-657.916	314.316	-0.044	-0.083
-656.901	-169.058	0.189	-0.007
-655.886	-200.000	-0.027	-0.196
-654.872	120.752	0.190	-0.238
-653.857	-200.000	0.020	-0.195
-652.843	-14.399	0.223	-0.145
-651.828	158.713	-0.116	-0.162
-650.814	-183.463	-0.256	0.004
-649.799	91.317	-0.246	0.278
-648.784	-128.320	-0.313	0.045
-647.770	-200.000	-0.019	0.266
-646.755	800.000	-0.030	0.085
-645.741	-178.282	-0.127	-0.003
-644.726	-8.191	-0.285	0.194
-643.711	-167.271	0.198	-0.008
-642.697	-112.289	-0.194	-0.039
-641.682	576.728	0.023	-0.057
-640.668	-128.221	0.051	-0.007
-639.653	12.697	0.125	-0.097
-638.638	164.615	-0.118	0.167
-637.624	189.743	-0.101	0.152
-636.609	-200.000	0.009	-0.156
-635.595	98.967	0.117	0.136
-634.580	223.868	-0.200	0.325
-633.565	-143.523	-0.240	0.023
-632.551	-95.338	0.223	-0.061
-631.536	119.584	-0.084	-0.105
-630.522	484.288	0.083	0.190
-629.507	-35.475	-0.179	0.098
-628.492	-200.000	-0.000	0.013
-627.478	-76.826	0.342	-0.121
-626.463	374.770	0.167	-0.343
-625.449	-200.000	0.005	-0.062
-624.434	-80.376	-0.134	0.045
-623.419	116.649	0.134	0.166
-622.405	-87.134	0.138	-0.042
-621.390	181.047	0.269	0.398
-620.376	-1.832	-0.278	-0.197
-619.361	398.541	0.060	-0.126
-618.346	-200.000	0.013	-0.180
-617.332	198.181	-0.273	0.420
-616.317	153.063	-0.108	0.149
-615.303	-63.784	-0.171	-0.071
-614.288	-7.747	-0.115	0.078
-613.273	327.800	-0.058	0.111
-612.259	-157.465	-0.289	0.018
-611.244	-71.935	0.096	-0.036
-610.230	112.914	0.138	-0.169
-609.215	800.000	-0.096	0.326
-608.201	-199.922	-0.085	-0.000
-607.186	800.000	-0.019	-0.062
-606.171	498.034	-0.078	-0.180
-605.157	169.405	0.087	0.125
-604.142	-2.827	0.127	-0.090
-603.128	800.000	0.077	-0.306
-602.113	10.303	-0.108	-0.082
-601.098	800.000	0.114	0.338
-600.084	-144.937	0.290	-0.027
-599.069	-200.000	-0.003	-0.113
-598.055	-125.542	0.121	-0.019
-597.040	-55.742	0.219	-0.099
-596.025	-200.000	0.062	0.296
-595.011	-200.000	0.013	0.333
-593.996	90.647	0.193	0.217
-592.982	-120.624	0.207	-0.035
-591.967	272.959	0.127	0.225
-590.952	-103.057	-0.019	-0.004
-589.938	-14.253	-0.252	0.163
-588.923	240.798	0.156	-0.262
-587.909	102.506	-0.093	0.109
-586.894	-72.456	0.418	-0.155
-585.879	191.887	0.123	0.186
-584.865	-88.129	0.237	0.072
-583.850	717.324	0.027	0.072
-582.836	154.358	-0.232	0.320
-581.821	-92.483	-0.403	-0.114
-580.806	100.615	-0.117	-0.137
-579.792	-146.087	-0.146	0.013
-578.777	12.029	0.136	0.105
-577.763	80.377	-0.119	0.129
-576.748	-200.000	-0.076	-0.360
-575.733	-64.638	0.252	0.103
-574.719	-43.438	0.212	0.108
-573.704	92.765	0.042	-0.048
-572.690	200.788	0.097	-0.150
-571.675	-177.953	0.284	-0.007
-570.661	68.047	0.169	-0.174
-569.646	223.073	-0.119	0.193
-568.631	-110.312	-0.009	0.002
-567.617	-15.601	-0.131	-0.084
-566.602	-200.000	-0.001	-0.285
-565.588	-200.000	0.046	-0.311
-564.573	-198.466	0.149	0.001
-563.558	-92.276	-0.285	0.081
-562.544	-81.882	-0.472	-0.155
-561.529	-30.257	-0.017	0.010
-560.515	80.142	-0.151	0.164
-559.500	-122.247	-0.045	-0.007
-558.485	425.980	0.118	-0.256
-557.471	-167.172	0.036	-0.001
-556.456	286.786	0.122	-0.222
-555.442	-102.022	-0.156	0.038
-554.427	-200.000	-0.019	0.311
-553.412	290.899	0.172	0.315
-552.398	143.577	0.155	-0.207
-551.383	-130.405	-0.165	-0.023
-550.369	127.868	0.030	0.039
-549.354	102.009	0.024	-0.028
-548.339	-66.958	-0.518	-0.206
-547.325	-34.833	-0.114	0.062
-546.310	1.916	-0.304	-0.220
-545.296	192.983	0.213	-0.324
-544.281	214.810	0.207	-0.330
-543.266	-200.000	0.017	-0.079
-542.252	-131.283	0.106	-0.014
-541.237	370.030	0.052	0.105
-540.223	-69.810	-0.071	-0.027
-539.208	-120.097	0.400	0.069
-538.193	-64.638	0.205	-0.084
-537.179	-36.291	-0.357	-0.193
-536.164	49.470	-0.103	0.098
-535.150	-41.884	0.147	-0.076
-534.135	87.349	0.315	0.350
-533.121	-200.000	-0.052	0.303
-532.106	-145.276	0.134	0.012
-531.091	506.012	-0.080	-0.187
-530.077	-200.000	0.002	0.311
-529.062	512.926	-0.086	0.201
-528.048	300.811	-0.075	0.139
-527.033	-200.000	-0.002	0.079
-526.018	192.070	0.081	-0.123
-525.004	-84.259	-0.145	-0.046
-523.989	122.500	0.064	0.080
-522.975	377.852	-0.036	-0.075
-521.960	-50.072	-0.104	0.050
-520.945	61.979	-0.124	-0.124
-519.931	-115.386	0.136	-0.026
-518.916	-200.000	0.022	0.203
-517.902	-200.000	0.039	-0.207
-516.887	-21.405	-0.083	-0.051
-515.872	-200.000	-0.003	-0.273
-514.858	14.353	-0.411	-0.322
-513.843	52.601	0.162	0.155
-512.829	259.524	0.176	-0.305
-511.814	75.254	-0.131	-0.139
-510.799	4.454	0.034	0.025
-509.785	78.011	0.080	0.085
-508.770	225.064	0.159	-0.259
-507.756	-74.914	-0.223	-0.080
-506.741	-112.024	-0.302	0.061
-505.726	197.955	-0.126	-0.193
-504.712	-200.000	-0.003	-0.040
-503.697	800.000	0.057	0.232
-502.683	81.473	-0.073	-0.079
-501.668	-31.126	0.048	0.027
-500.653	-161.477	-0.331	0.017
-499.639	-62.368	-0.201	-0.084
-498.624	205.633	-0.094	-0.146
-497.610	58.536	0.173	0.171
-496.595	107.414	0.345	-0.412
-495.581	-200.000	-0.057	-0.379
-494.566	-200.000	-0.002	-0.310
-493.551	800.000	0.048	-0.168
-492.537	-23.773	-0.092	-0.055
-491.522	800.000	0.068	0.198
-490.508	-97.013	-0.378	0.099
-489.493	-200.000	-0.030	-0.262
-488.478	-107.648	-0.131	-0.029
-487.464	50.425	0.232	-0.220
-486.449	-67.454	-0.145	-0.057
-485.435	120.465	-0.171	0.213
-484.420	-200.000	0.003	-0.052
-483.405	-123.079	-0.143	-0.023
-482.391	779.432	-0.032	-0.089
-481.376	91.528	-0.060	0.067
-480.362	-15.406	0.262	0.168
-479.347	562.563	0.108	0.263
-478.332	-20.330	0.298	0.184
-477.318	-60.749	0.204	0.087
-476.303	138.084	0.175	-0.230
-475.289	464.289	-0.081	0.181
-474.274	212.745	-0.144	0.228
-473.259	800.000	-0.062	-0.224
-472.245	93.912	-0.187	0.213
-471.230	-179.822	0.115	0.002
-470.216	-169.690	0.081	-0.003
-469.201	755.731	0.064	-0.174
-468.186	-136.969	0.182	-0.021
-467.172	80.608	-0.237	0.256
-466.157	176.041	0.107	-0.156
-465.143	13.726	-0.307	0.239
-464.128	342.680	-0.008	-0.016
-463.113	336.619	-0.054	0.104
-462.099	679.092	0.116	0.303
-461.084	61.339	-0.161	0.161
-460.070	306.580	0.201	-0.375
-459.055	-78.917	-0.168	-0.057
-458.040	-34.731	0.162	-0.089
-457.026	35.590	-0.162	0.143
-456.011	164.580	-0.186	0.263
-454.997	-57.041	-0.155	0.068
-453.982	-200.000	-0.030	-0.434
-452.968	107.438	0.039	0.046
-451.953	102.486	-0.121	-0.142
-450.938	-9.917	-0.236	-0.157
-449.924	-200.000	-0.057	-0.401
-448.909	396.008	-0.100	0.209
-447.895	107.826	-0.044	-0.053
-446.880	-200.000	0.007	-0.337
-445.865	800.000	0.069	-0.243
-444.851	229.782	0.073	0.120
-443.836	-200.000	0.034	-0.151
-442.822	-115.640	0.206	-0.039
-441.807	117.118	0.135	-0.166
-440.792	120.994	-0.024	-0.030
-439.778	781.344	0.171	0.469
-438.763	338.225	-0.088	-0.172
-437.749	-155.377	0.256	0.017
-436.734	-31.342	-0.059	0.033
-435.719	-200.000	0.039	0.263
-434.705	317.083	0.066	0.125
-433.690	-137.149	-0.159	-0.018
-432.676	-199.196	0.104	0.001
-431.661	281.705	0.098	0.176
-430.646	-82.366	0.369	0.120
-429.632	50.253	-0.162	0.153
-428.617	-55.845	-0.249	0.111
-427.603	800.000	0.135	0.428
-426.588	-42.348	-0.268	-0.137
-425.573	-92.959	0.249	-0.070
-424.559	237.289	0.187	0.310
-423.544	-102.028	0.346	0.084
-422.530	511.058	-0.030	0.071
-421.515	123.969	0.138	-0.174
-420.500	-200.000	0.000	0.003
-419.486	0.771	0.106	0.076
-418.471	135.842	0.196	-0.255
-417.457	-200.000	-0.015	0.133
-416.442	225.908	0.104	-0.168
-415.428	90.181	-0.123	-0.137
-414.413	39.949	-0.028	-0.026
-413.398	281.826	0.207	-0.371
-412.384	800.000	-0.039	-0.161
-411.369	33.116	-0.347	0.301
-410.355	209.366	0.069	-0.108
-409.340	-200.000	-0.004	-0.027
-408.325	-81.247	0.147	-0.049
-407.311	310.926	-0.057	-0.107
-406.296	240.891	-0.021	-0.035
-405.282	-200.000	-0.007	0.067
-404.267	-200.000	0.006	0.296
-403.252	-47.153	-0.183	-0.089
-402.238	279.853	0.110	0.196
-401.223	292.142	-0.107	-0.195
-400.209	-105.900	0.229	-0.052
-399.194	-33.309	-0.096	0.053
-398.179	545.929	-0.089	0.214
-397.165	-200.000	-0.082	0.466
-396.150	-93.970	-0.170	-0.047
-395.136	-154.115	-0.442	-0.030
-394.121	-143.903	-0.349	0.033
-393.106	-85.157	0.314	-0.098
-392.092	-200.000	-0.004	0.139
-391.077	-200.000	-0.026	-0.302
-390.063	-50.228	-0.125	0.059
-389.048	-13.053	0.246	-0.159
-388.033	-86.149	0.117	0.036
-387.019	800.000	-0.086	-0.254
-386.004	-31.976	0.296	0.166
-384.990	161.421	0.098	0.137
-383.975	-131.498	0.194	-0.026
-382.960	800.000	0.071	-0.197
-381.946	-101.879	0.124	-0.030
-380.931	-28.959	-0.060	-0.034
-379.917	-200.000	0.047	-0.241
-378.902	177.993	0.070	-0.102
-377.888	-200.000	-0.005	0.050
-376.873	-27.529	0.212	-0.123
-375.858	-121.307	-0.086	0.014
-374.844	800.000	0.048	-0.190
-373.829	271.329	-0.129	0.227
-372.815	396.525	-0.058	-0.121
-371.800	72.458	0.078	-0.081
-370.785	-57.967	0.166	-0.072
-369.771	-20.106	0.158	-0.097
-368.756	-173.316	0.092	-0.003
-367.742	-162.074	-0.228	-0.011
-366.727	-200.000	0.012	-0.229
-365.712	-161.593	0.085	-0.004
-364.698	-200.000	-0.073	0.348
-363.683	385.888	-0.095	-0.195
-362.669	153.099	0.180	0.246
-361.654	-72.806	0.445	-0.164
-360.639	250.671	-0.164	-0.278
-359.625	229.166	-0.186	0.303
-358.610	-24.720	0.071	0.042
-357.596	-183.513	-0.166	-0.003
-356.581	-200.000	0.030	0.181
-355.566	37.245	-0.141	0.125
-354.552	287.283	0.134	0.241
-353.537	-123.105	0.291	-0.047
-352.523	-86.312	0.211	0.065
-351.508	800.000	0.129	-0.401
-350.493	-120.177	0.183	-0.031
-349.479	-79.729	0.355	0.119
-348.464	308.506	-0.119	0.221
-347.450	-200.000	-0.004	0.311
-346.435	711.654	-0.003	-0.007
-345.420	-200.000	-0.012	0.117
-344.406	171.067	0.014	-0.020
-343.391	-105.050	-0.249	-0.057
-342.377	-75.575	0.411	0.146
-341.362	298.138	-0.194	0.356
-340.348	-79.930	0.171	-0.057
-339.333	70.473	-0.131	0.135
-338.318	-24.210	0.070	-0.042
-337.304	275.686	0.085	0.151
-336.289	56.376	-0.120	0.116
-335.275	166.578	-0.129	0.182
-334.260	351.887	0.017	-0.034
-333.245	-72.432	0.052	-0.019
-332.231	28.229	-0.093	0.078
-331.216	157.678	-0.102	-0.141
-330.202	-187.933	0.033	-0.000
-329.187	126.600	-0.151	-0.190
-328.172	103.816	-0.149	-0.175
-327.158	-200.000	0.014	0.242
-326.143	-11.104	-0.375	0.246
-325.129	623.285	-0.123	0.309
-324.114	284.704	0.216	-0.387
-323.099	20.219	0.079	-0.064
-322.085	-65.016	-0.115	0.046
-321.070	18.650	-0.228	-0.182
-320.056	800.000	0.032	-0.102
-319.041	-148.410	-0.217	-0.018
-318.026	43.430	0.156	-0.142
-317.012	800.000	0.095	-0.393
-315.997	-14.429	-0.078	-0.050
-314.983	-43.611	0.080	0.040
-313.968	-89.951	0.336	-0.098
-312.953	-190.583	0.287	0.003
-311.939	-3.332	-0.134	0.093
-310.924	-141.845	-0.052	-0.005
-309.910	408.087	0.158	0.333
-308.895	-200.000	-0.032	-0.259
-307.880	18.204	-0.111	-0.089
-306.866	-39.168	0.123	-0.065
-305.851	75.176	0.195	0.204
-304.837	-21.549	-0.244	-0.148
-303.822	0.060	-0.165	0.117
-302.807	153.193	0.193	-0.263
-301.793	63.323	0.239	-0.238
-300.778	-36.402	0.484	-0.259
-299.764	-66.375	-0.193	-0.076
-298.749	-194.425	0.154	-0.001
-297.735	626.655	0.070	0.175
-296.720	598.077	-0.044	-0.109
-295.705	332.745	0.091	0.175
-294.691	-200.000	-0.050	0.379
-293.676	53.644	-0.084	-0.080
-292.662	-200.000	0.020	-0.139
-291.647	-12.495	-0.203	0.132
-290.632	-78.613	-0.312	0.106
-289.618	104.149	0.049	0.058
-288.603	-200.000	0.018	0.199
-287.589	-62.257	0.286	-0.118
-286.574	-121.527	0.174	-0.029
-285.559	116.224	0.095	-0.115
-284.545	-97.987	0.051	0.013
-283.530	-4.189	-0.371	0.255
-282.516	-200.000	0.050	0.305
-281.501	-200.000	-0.037	0.387
-280.486	609.234	-0.043	0.106
-279.472	-77.622	-0.167	-0.058
-278.457	-34.039	-0.326	0.178
-277.443	-45.390	-0.260	0.128
-276.428	-94.537	-0.032	-0.009
-275.413	714.653	0.095	0.250
-274.399	-200.000	-0.032	0.238
-273.384	-125.287	0.196	-0.030
-272.370	-53.589	0.203	0.092
-271.355	53.328	0.064	0.061
-270.340	99.450	0.231	-0.266
-269.326	130.847	-0.121	0.154
-268.311	479.066	-0.212	0.477
-267.297	-200.000	0.002	0.159
-266.282	-25.907	0.178	-0.104
-265.267	534.199	-0.074	-0.173
-264.253	138.590	0.072	-0.093
-263.238	162.299	-0.060	0.083
-262.224	588.268	0.086	0.210
-261.209	-200.000	-0.011	0.110
-260.195	800.000	0.073	-0.273
-259.180	-63.895	0.175	0.071
-258.165	-27.273	-0.047	0.027
-257.151	-103.700	0.261	-0.061
-256.136	-38.022	0.142	-0.075
-255.122	-200.000	-0.001	0.184
-254.107	-104.527	-0.243	-0.056
-253.092	-200.000	-0.029	0.162
-252.078	-120.761	-0.135	0.023
-251.063	662.906	-0.009	-0.022
-250.049	560.518	-0.026	-0.062
-249.034	-200.000	0.028	-0.229
-248.019	505.097	0.137	-0.315
-247.005	-164.435	0.099	0.004
-245.990	309.479	0.169	-0.315
-244.976	-200.000	0.017	-0.161
-243.961	303.895	-0.143	-0.264
-242.946	-85.613	0.301	-0.093
-241.932	-200.000	-0.055	0.253
-240.917	-200.000	0.030	-0.236
-239.903	20.623	-0.037	0.030
-238.888	-173.827	0.226	-0.007
-237.873	122.565	0.082	-0.102
-236.859	-200.000	0.014	0.113
-235.844	800.000	0.080	-0.301
-234.830	-152.071	-0.374	0.027
-233.815	-40.408	0.223	0.115
-232.800	800.000	0.067	-0.211
-231.786	396.060	0.042	-0.086
-230.771	59.463	0.070	0.069
-229.757	193.229	-0.156	-0.235
-228.742	-14.060	-0.315	0.201
-227.727	111.167	0.060	-0.072
-226.713	-4.375	0.349	-0.240
-225.698	285.531	-0.336	-0.601
-224.684	-200.000	-0.008	0.112
-223.669	197.817	0.086	0.130
-222.655	-129.760	-0.197	0.027
-221.640	6.789	-0.371	-0.274
-220.625	55.483	0.047	-0.045
-219.611	-88.694	-0.121	-0.036
-218.596	444.963	0.073	0.158
-217.582	136.446	-0.092	0.119
-216.567	-200.000	0.052	-0.248
-215.552	232.003	0.098	0.160
-214.538	478.768	-0.059	0.133
-213.523	800.000	-0.030	0.085
-212.509	800.000	0.064	-0.215
-211.494	434.095	0.024	0.051
-210.479	-69.663	-0.282	0.107
-209.465	-41.183	-0.177	0.090
-208.450	59.721	-0.161	0.157
-207.436	800.000	0.055	0.226
-206.421	-52.939	-0.043	0.020
-205.406	-200.000	-0.027	0.198
-204.392	-80.799	-0.155	-0.051
-203.377	55.723	0.327	-0.314
-202.363	-14.918	0.165	-0.105
-201.348	29.670	-0.154	0.130
-200.333	800.000	-0.054	0.164
-199.319	23.709	0.098	-0.080
-198.304	-123.888	-0.105	0.016
-197.290	-151.127	-0.461	-0.034
-196.275	353.475	-0.153	0.300
-195.260	-59.388	0.254	0.108
-194.246	-200.000	0.000	-0.097
-193.231	67.964	-0.080	-0.081
-192.217	-28.883	0.203	-0.116
-191.202	65.452	-0.129	-0.130
-190.187	-200.000	-0.041	-0.300
-189.173	-108.216	-0.088	-0.019
-188.158	-200.000	0.052	-0.249
-187.144	310.920	0.091	-0.168
-186.129	543.534	0.137	0.323
-185.114	-181.393	0.216	-0.004
-184.100	-133.874	-0.284	-0.035
-183.085	-200.000	0.014	-0.169
-182.071	-54.505	-0.151	-0.068
-181.056	-200.000	-0.008	-0.145
-180.042	800.000	0.050	0.167
-179.027	-11.107	-0.225	0.147
-178.012	-53.283	-0.093	0.042
-176.998	800.000	0.050	-0.216
-175.983	707.746	0.156	0.409
-174.969	590.368	-0.090	0.220
-173.954	800.000	-0.029	-0.097
-172.939	-200.000	0.033	0.152
-171.925	421.108	0.139	-0.295
-170.910	-200.000	-0.056	0.271
-169.896	454.146	-0.154	-0.337
-168.881	-189.423	0.253	0.003
-167.866	-19.329	0.290	0.178
-166.852	-11.703	-0.110	-0.072
-165.837	214.653	0.256	0.402
-164.823	148.715	0.221	-0.296
-163.808	1.422	0.119	0.085
-162.793	93.619	-0.146	0.163
-161.779	-200.000	0.022	-0.457
-160.764	-28.061	-0.311	0.178
-159.750	-128.917	0.217	0.030
-158.735	149.559	-0.112	-0.150
-157.720	0.360	0.044	-0.031
-156.706	262.096	-0.258	-0.443
-155.691	-115.515	-0.268	-0.050
-154.677	-31.678	-0.129	0.072
-153.662	247.073	-0.126	0.210
-152.647	797.276	0.088	0.241
-151.633	-135.766	-0.243	-0.028
-150.618	-121.106	-0.436	0.072
-149.604	-200.000	-0.057	0.275
-148.589	760.898	-0.073	0.197
-147.574	256.171	0.286	-0.486
-146.560	-13.332	0.306	-0.196
-145.545	2.259	0.178	-0.128
-144.531	216.732	0.033	-0.053
-143.516	-200.000	-0.009	-0.249
-142.502	-36.583	0.292	-0.155
-141.487	-28.763	0.241	-0.137
-140.472	483.386	0.105	-0.236
-139.458	-53.505	0.220	-0.099
-138.443	-200.000	0.007	-0.098
-137.429	758.068	0.143	0.383
-136.414	282.021	0.099	0.175
-135.399	-101.185	-0.417	-0.101
-134.385	12.485	-0.046	0.035
-133.370	-7.468	-0.467	0.313
-132.356	800.000	-0.067	0.211
-131.341	132.105	-0.085	0.108
-130.326	-85.227	0.254	-0.078
-129.312	800.000	-0.055	-0.162
-128.297	-80.265	0.259	-0.085
-127.283	280.682	-0.171	-0.302
-126.268	-42.332	-0.290	-0.146
-125.253	156.893	-0.142	-0.195
-124.239	-200.000	-0.035	-0.280
-123.224	-200.000	0.053	-0.238
-122.210	6.874	0.141	-0.104
-121.195	800.000	-0.036	0.135
-120.180	131.647	0.031	-0.040
-119.166	-116.138	0.074	-0.014
-118.151	-73.330	-0.191	-0.069
-117.137	-69.732	0.056	-0.021
-116.122	141.658	0.127	0.166
-115.107	-104.158	-0.146	0.034
-114.093	-113.619	-0.060	0.012
-113.078	2.132	0.098	-0.070
-112.064	385.922	-0.019	0.039
-111.049	20.142	-0.229	-0.182
-110.034	800.000	0.031	-0.128
-109.020	233.815	-0.086	0.139
-108.005	135.984	0.193	0.249
-106.991	-95.238	0.160	-0.043
-105.976	-35.912	-0.213	0.114
-104.962	63.604	-0.058	0.058
-103.947	504.158	-0.106	0.241
-102.932	800.000	-0.084	-0.338
-101.918	-54.235	0.240	-0.107
-100.903	214.210	-0.203	-0.318
-99.889	-7.875	0.218	-0.145
-98.874	-57.278	0.180	0.078
-97.859	-200.000	0.051	-0.433
-96.845	-28.836	0.095	-0.054
-95.830	283.766	0.119	-0.211
-94.816	800.000	-0.113	0.355
-93.801	-200.000	0.012	-0.093
-92.786	11.309	0.117	0.088
-91.772	800.000	-0.026	-0.100
-90.757	800.000	-0.089	-0.317
-89.743	-95.960	0.133	-0.035
-88.728	-129.928	-0.425	-0.058
-87.713	-18.798	-0.218	-0.134
-86.699	-115.992	-0.337	0.062
-85.684	800.000	0.030	0.129
-84.670	-141.081	-0.168	0.017
-83.655	-27.558	0.176	0.101
-82.640	32.932	-0.224	-0.191
-81.626	-110.364	0.200	-0.041
-80.611	-200.000	0.006	-0.028
-79.597	800.000	-0.108	0.364
-78.582	800.000	-0.130	0.412
-77.567	-200.000	0.000	0.204
-76.553	-95.938	-0.267	-0.070
-75.538	800.000	0.065	-0.254
-74.524	148.705	0.373	-0.497
-73.509	20.730	-0.207	0.165
-72.494	45.170	-0.089	0.081
-71.480	-184.799	0.130	0.002
-70.465	202.074	0.140	-0.212
-69.451	-200.000	0.025	-0.205
-68.436	-35.303	0.280	-0.150
-67.422	685.806	0.056	-0.145
-66.407	59.024	0.136	-0.132
-65.392	-200.000	0.001	0.048
-64.378	800.000	0.042	0.162
-63.363	-106.822	-0.033	0.007
-62.349	-0.556	0.251	0.176
-61.334	45.727	-1.282	-1.168
-60.319	157.111	0.426	0.580
-59.305	377.250	-0.452	-0.910
-58.290	104.576	1.050	1.219
-57.276	749.880	0.482	1.282
-56.261	-200.000	111.447	634.533
-55.246	466.680	1502.321	3317.379
-54.232	144.574	2677.329	3524.553
-53.217	95.107	2326.642	2611.041
-52.203	34.101	2075.054	1781.981
-51.188	29.380	1989.077	1665.567
-50.173	27.977	1971.688	1638.371
-49.159	45.695	2029.611	1848.153
-48.144	45.215	2045.049	1857.771
-47.130	29.959	2004.749	1683.691
-46.115	27.674	1994.258	1654.115
-45.100	27.606	1991.436	1651.094
-44.086	27.552	1989.391	1648.844
-43.071	27.595	1986.609	1646.861
-42.057	27.488	1984.363	1643.963
-41.042	27.498	1983.506	1643.284
-40.027	27.507	1981.601	1641.716
-39.013	27.531	1979.267	1639.938
-37.998	27.522	1976.971	1637.886
-36.984	27.529	1975.608	1636.761
-35.969	27.618	1973.116	1635.429
-34.954	27.536	1971.430	1633.228
-33.940	27.612	1970.183	1632.812
-32.925	27.643	1968.630	1631.737
-31.911	27.754	1966.480	1630.881
-30.896	27.732	1965.035	1629.418
-29.881	27.682	1963.416	1627.566
-28.867	27.689	1962.589	1626.882
-27.852	27.705	1960.574	1625.293
-26.838	27.657	1959.136	1623.602
-25.823	27.675	1957.022	1621.950
-24.809	27.716	1955.157	1620.705
-23.794	27.782	1953.094	1619.512
-22.779	27.715	1951.329	1617.397
-21.765	27.684	1949.746	1615.746
-20.750	27.649	1948.291	1614.166
-19.736	27.711	1946.894	1613.491
-18.721	27.727	1945.164	1612.130
-17.706	27.831	1943.151	1611.323
-16.692	27.713	1941.648	1608.972
-15.677	27.586	1940.971	1607.225
-14.663	27.644	1939.102	1606.121
-13.648	27.720	1937.979	1605.793
-12.633	27.758	1936.588	1604.920
-11.619	27.666	1935.581	1603.207
-10.604	27.679	1933.769	1601.760
-9.590	27.677	1932.422	1600.558
-8.575	27.717	1931.444	1600.038
-7.560	27.812	1929.870	1599.505
-6.546	27.680	1928.794	1597.393
-5.531	27.725	1927.090	1596.313
-4.517	27.650	1926.465	1595.079
-3.502	27.629	1925.288	1593.854
-2.487	27.657	1923.696	1592.720
-1.473	27.808	1922.557	1593.027
-0.458	27.804	1917.801	1588.987
0.556	25.944	1898.506	1562.475
1.571	21.955	1880.336	1513.062
2.586	18.135	1903.622	1498.262
3.600	17.210	1939.021	1517.725
4.615	16.931	1933.059	1510.446
5.629	13.331	1832.490	1401.291
6.644	5.308	1714.220	1246.921
7.659	0.620	1677.807	1183.652
8.673	0.221	1674.814	1178.312
9.688	0.153	1673.568	1176.798
10.702	0.139	1671.925	1175.431
11.717	0.008	1668.230	1171.712
12.731	0.551	1667.960	1175.645
13.746	6.518	1680.835	1231.336
14.761	14.372	1696.305	1304.267
15.775	17.259	1700.266	1329.820
16.790	16.875	1698.577	1325.377
17.804	15.853	1694.985	1314.479
18.819	14.979	1691.322	1304.712
19.834	14.327	1689.167	1297.855
20.848	14.022	1687.625	1294.180
21.863	13.796	1686.008	1291.064
22.877	13.578	1684.469	1288.080
23.892	13.397	1682.753	1285.249
24.907	13.196	1682.019	1283.016
25.921	13.239	1680.874	1282.362
26.936	13.221	1679.914	1281.371
27.950	13.244	1679.208	1280.901
28.965	13.305	1678.409	1280.647
29.980	13.329	1678.244	1280.600
30.994	13.338	1676.916	1279.543
32.009	13.395	1675.928	1279.111
33.023	13.564	1674.805	1279.449
34.038	13.455	1674.584	1278.325
35.053	13.445	1673.409	1277.239
36.067	13.404	1672.009	1275.742
37.082	13.369	1671.246	1274.771
38.096	13.388	1669.999	1273.858
39.111	13.407	1669.442	1273.465
40.126	13.333	1668.788	1272.284
41.140	13.389	1667.329	1271.488
42.155	13.352	1665.808	1269.933
43.169	13.253	1664.503	1268.065
44.184	13.204	1663.590	1266.881
45.199	13.129	1662.858	1265.639
46.213	13.212	1661.115	1264.839
47.228	13.187	1660.146	1263.795
48.242	13.239	1659.018	1263.220
49.257	13.255	1657.544	1262.113
50.271	13.348	1656.130	1261.630
51.286	13.371	1654.981	1260.821
52.301	13.313	1653.896	1259.436
53.315	13.324	1652.332	1258.225
54.330	13.327	1650.596	1256.811
55.344	13.298	1649.098	1255.341
56.359	13.243	1647.698	1253.748
57.374	13.334	1646.491	1253.401
58.388	13.292	1644.945	1251.803
59.403	13.266	1643.318	1250.255
60.417	13.277	1642.161	1249.346
61.432	13.182	1641.428	1247.959
62.447	13.113	1640.280	1246.459
63.461	13.164	1638.955	1245.722
64.476	13.114	1637.802	1244.358
65.490	13.179	1636.261	1243.570
66.505	13.069	1635.338	1241.931
67.520	13.188	1634.395	1241.998
68.534	13.219	1633.371	1241.342
69.549	13.254	1632.183	1240.591
70.563	13.114	1631.655	1239.030
71.578	13.064	1630.093	1237.362
72.593	13.163	1628.733	1236.961
73.607	13.086	1628.008	1235.726
74.622	13.063	1627.010	1234.686
75.636	12.996	1625.865	1233.208
76.651	13.008	1625.018	1232.543
77.666	13.004	1623.810	1231.490
78.680	13.098	1622.935	1231.418
79.695	13.150	1621.844	1230.870
80.709	13.087	1621.059	1229.693
81.724	13.149	1619.980	1229.232
82.739	13.187	1619.228	1228.831
83.753	13.227	1618.305	1228.323
84.768	13.179	1617.666	1227.373
85.782	13.281	1616.750	1227.322
86.797	13.331	1615.467	1226.613
87.812	13.336	1614.522	1225.821
88.826	13.266	1613.306	1224.272
89.841	13.295	1611.846	1223.273
90.855	13.240	1611.628	1222.592
91.870	13.226	1610.472	1221.504
92.884	13.304	1609.194	1221.002
93.899	13.398	1607.961	1220.651
94.914	13.336	1606.997	1219.352
95.928	13.427	1605.851	1219.050
96.943	13.500	1604.212	1218.229
97.957	13.372	1603.231	1216.441
98.972	13.367	1601.598	1215.052
99.987	13.370	1600.147	1213.871
101.001	13.336	1598.385	1212.174
102.016	13.348	1596.767	1210.927
103.030	13.291	1595.653	1209.557
104.045	13.304	1594.311	1208.530
105.060	13.490	1592.462	1208.377
106.074	13.376	1591.244	1206.519
107.089	13.375	1589.419	1205.017
108.103	13.231	1588.072	1202.842
109.118	13.083	1587.268	1201.050
110.133	13.090	1586.112	1200.119
111.147	13.243	1584.040	1199.559
112.162	13.125	1583.355	1198.074
113.176	13.137	1581.988	1197.021
114.191	13.279	1580.356	1196.711
115.206	13.204	1579.407	1195.345
116.220	13.232	1577.785	1194.213
117.235	13.262	1575.832	1192.843
118.249	13.296	1575.013	1192.368
119.264	13.245	1574.013	1191.137
120.279	13.216	1572.705	1189.833
121.293	13.262	1570.943	1188.720
122.308	13.302	1569.636	1187.915
123.322	13.206	1568.036	1185.909
124.337	13.123	1566.784	1184.267
125.352	13.309	1565.501	1184.523
126.366	13.212	1564.014	1182.598
127.381	13.109	1563.230	1181.166
128.395	13.192	1561.316	1180.208
129.410	13.211	1560.484	1179.609
130.424	13.132	1559.122	1177.911
131.439	13.188	1557.737	1177.158
132.454	13.248	1556.415	1176.481
133.468	13.261	1554.687	1175.168
134.483	13.308	1553.576	1174.559
135.497	13.264	1552.445	1173.282
136.512	13.210	1550.889	1171.621
137.527	13.256	1549.411	1170.725
138.541	13.294	1548.181	1169.966
139.556	13.389	1546.270	1169.086
140.570	13.282	1545.304	1167.501
141.585	13.310	1544.170	1166.737
142.600	13.413	1542.895	1166.396
143.614	13.541	1541.328	1166.008
144.629	13.501	1540.077	1164.679
145.643	13.482	1538.770	1163.450
146.658	13.451	1538.250	1162.741
147.673	13.538	1536.130	1161.645
148.687	13.430	1534.847	1159.812
149.702	13.401	1532.982	1158.101
150.716	13.448	1531.824	1157.452
151.731	13.393	1529.960	1155.559
152.746	13.388	1529.023	1154.712
153.760	13.349	1527.345	1153.071
154.775	13.443	1526.444	1152.943
155.789	13.552	1524.382	1152.038
156.804	13.585	1523.482	1151.485
157.819	13.570	1521.788	1150.004
158.833	13.572	1521.077	1149.379
159.848	13.617	1519.783	1148.606
160.862	13.648	1518.443	1147.709
161.877	13.682	1517.260	1146.947
162.892	13.729	1516.290	1146.442
163.906	13.615	1514.866	1144.475
164.921	13.554	1513.532	1142.941
165.935	13.520	1512.733	1142.002
166.950	13.556	1511.896	1141.520
167.964	13.601	1510.386	1140.590
168.979	13.587	1509.371	1139.624
169.994	13.559	1508.428	1138.618
171.008	13.617	1507.381	1138.124
172.023	13.699	1505.730	1137.340
173.037	13.595	1505.005	1135.982
174.052	13.609	1504.148	1135.331
175.067	13.745	1503.170	1135.422
176.081	13.737	1501.604	1134.085
177.096	13.647	1500.491	1132.526
178.110	13.619	1499.263	1131.310
179.125	13.630	1497.966	1130.307
180.140	13.637	1497.033	1129.550
181.154	13.743	1495.743	1129.200
182.169	13.724	1494.337	1127.909
183.183	13.653	1493.826	1126.943
184.198	13.775	1492.463	1126.642
185.213	13.871	1491.144	1126.196
186.227	13.846	1489.885	1124.976
187.242	13.862	1489.120	1124.408
188.256	13.834	1488.636	1123.750
189.271	13.988	1487.059	1123.506
190.286	13.956	1485.729	1122.187
191.300	13.984	1484.850	1121.610
192.315	13.793	1483.392	1119.124
193.329	13.682	1482.494	1117.595
194.344	13.664	1481.465	1116.598
195.359	13.727	1480.141	1115.926
196.373	13.807	1478.717	1115.294
197.388	13.840	1478.227	1115.049
198.402	13.925	1477.202	1114.742
199.417	14.010	1475.852	1114.201
200.432	13.965	1474.732	1112.950
201.446	14.104	1473.352	1112.743
202.461	14.189	1472.069	1112.242
203.475	14.146	1471.674	1111.558
204.490	14.210	1470.542	1111.033
205.504	14.022	1469.678	1109.029
206.519	14.065	1468.767	1108.530
207.534	14.128	1466.584	1107.204
208.548	14.060	1465.834	1106.087
209.563	14.069	1465.223	1105.585
210.577	14.056	1463.977	1104.463
211.592	14.108	1463.233	1104.147
212.607	14.198	1462.223	1103.885
213.621	14.247	1461.145	1103.300
214.636	14.275	1460.477	1102.884
215.650	14.256	1459.632	1102.020
216.665	14.224	1458.635	1100.960
217.680	14.322	1457.315	1100.512
218.694	14.242	1457.073	1099.707
219.709	14.346	1456.180	1099.622
220.723	14.289	1455.464	1098.606
221.738	14.202	1454.850	1097.471
222.753	14.359	1453.513	1097.402
223.767	14.269	1452.769	1096.148
224.782	14.369	1451.594	1095.821
225.796	14.260	1450.997	1094.556
226.811	14.501	1449.700	1095.069
227.826	14.375	1449.342	1093.873
228.840	14.364	1448.350	1092.952
229.855	14.334	1447.118	1091.728
230.869	14.315	1446.411	1090.978
231.884	14.355	1445.403	1090.380
232.899	14.381	1443.794	1089.242
233.913	14.469	1442.057	1088.407
234.928	14.371	1441.222	1087.042
235.942	14.377	1440.150	1086.180
236.957	14.283	1439.265	1084.804
237.972	14.367	1438.124	1084.391
238.986	14.348	1437.197	1083.477
240.001	14.414	1436.422	1083.222
241.015	14.434	1434.824	1082.053
242.030	14.497	1433.533	1081.389
243.045	14.473	1433.037	1080.763
244.059	14.543	1432.142	1080.447
245.074	14.462	1431.609	1079.423
246.088	14.570	1430.592	1079.262
247.103	14.543	1429.936	1078.500
248.117	14.626	1429.008	1078.236
249.132	14.719	1427.607	1077.686
250.147	14.688	1427.466	1077.282
251.161	14.764	1427.226	1077.500
252.176	14.765	1426.468	1076.840
253.190	14.814	1425.541	1076.354
254.205	14.799	1425.041	1075.789
255.220	14.913	1423.485	1075.249
256.234	14.901	1422.887	1074.630
257.249	14.906	1421.984	1073.881
258.263	14.922	1421.187	1073.287
259.278	14.823	1420.778	1072.250
260.293	14.998	1419.333	1072.187
261.307	14.934	1418.848	1071.311
262.322	15.019	1418.340	1071.383
263.336	15.080	1417.324	1070.909
264.351	15.099	1415.254	1069.373
265.366	15.034	1414.870	1068.571
266.380	15.203	1413.452	1068.480
267.395	15.182	1413.011	1067.921
268.409	15.112	1412.238	1066.799
269.424	15.126	1411.254	1066.047
270.439	15.149	1409.994	1065.145
271.453	15.135	1409.325	1064.460
272.468	15.052	1408.297	1063.061
273.482	15.163	1407.440	1063.022
274.497	15.122	1406.603	1062.040
275.512	15.103	1405.760	1061.186
276.526	15.100	1405.030	1060.522
277.541	15.204	1403.671	1060.064
278.555	14.994	1403.284	1058.345
279.570	15.144	1402.437	1058.563
280.585	15.191	1401.466	1058.031
281.599	15.283	1400.342	1057.671
282.614	15.304	1399.448	1057.034
283.628	15.247	1398.307	1055.724
284.643	15.194	1397.886	1054.976
285.657	15.213	1396.730	1054.133
286.672	15.223	1395.573	1053.226
287.687	15.270	1394.655	1052.735
288.701	15.289	1393.674	1052.023
289.716	15.352	1392.536	1051.467
290.730	15.375	1391.770	1050.935
291.745	15.357	1390.868	1050.050
292.760	15.348	1390.254	1049.440
293.774	15.325	1389.086	1048.318
294.789	15.467	1387.888	1048.208
295.803	15.472	1386.985	1047.463
296.818	15.468	1386.560	1047.028
297.833	15.579	1385.267	1046.651
298.847	15.385	1384.498	1044.770
299.862	15.411	1383.435	1044.034
300.876	15.481	1382.713	1043.835
301.891	15.517	1381.203	1042.823
302.906	15.441	1381.004	1042.107
303.920	15.638	1379.967	1042.458
304.935	15.630	1379.544	1041.998
305.949	15.518	1378.816	1040.658
306.964	15.646	1378.118	1040.833
307.979	15.608	1377.046	1039.698
308.993	15.745	1375.698	1039.436
310.008	15.709	1374.810	1038.448
311.022	15.778	1373.365	1037.690
312.037	15.722	1372.640	1036.707
313.052	15.789	1371.879	1036.451
314.066	15.731	1370.835	1035.216
315.081	15.710	1370.059	1034.405
316.095	15.593	1368.838	1032.672
317.110	15.707	1367.669	1032.405
318.125	15.778	1366.790	1032.083
319.139	15.711	1365.730	1030.779
320.154	15.735	1365.089	1030.354
321.168	15.644	1363.891	1028.797
322.183	15.797	1362.565	1028.643
323.197	15.795	1361.995	1028.109
324.212	15.742	1361.234	1027.122
325.227	15.813	1360.390	1026.826
326.241	15.806	1359.371	1025.926
327.256	15.820	1358.533	1025.284
328.270	15.817	1357.801	1024.622
329.285	15.841	1356.823	1023.943
330.300	15.802	1355.967	1022.969
331.314	15.808	1355.027	1022.208
332.329	15.782	1354.283	1021.394
333.343	15.830	1353.585	1021.072
334.358	15.788	1352.325	1019.776
335.373	15.879	1351.533	1019.641
336.387	15.952	1350.901	1019.513
337.402	15.963	1350.084	1018.876
338.416	15.994	1349.207	1018.311
339.431	16.015	1348.861	1018.082
340.446	16.037	1347.936	1017.427
341.460	15.988	1347.290	1016.556
342.475	16.054	1346.084	1015.951
343.489	16.076	1345.144	1015.285
344.504	16.211	1344.150	1015.260
345.519	16.193	1343.230	1014.365
346.533	16.301	1342.477	1014.359
347.548	16.231	1341.509	1013.117
348.562	16.223	1340.644	1012.326
349.577	16.295	1340.019	1012.193
350.592	16.284	1338.902	1011.197
351.606	16.201	1338.372	1010.211
352.621	16.247	1337.211	1009.517
353.635	16.164	1336.328	1008.268
354.650	16.296	1335.115	1008.049
355.665	16.213	1334.306	1006.852
356.679	16.196	1332.987	1005.671
357.694	16.198	1332.446	1005.186
358.708	16.228	1331.454	1004.523
359.723	16.381	1329.700	1004.020
360.738	16.407	1328.819	1003.424
361.752	16.335	1327.916	1002.227
362.767	16.319	1327.235	1001.525
363.781	16.319	1326.287	1000.722
364.796	16.280	1325.345	999.695
365.810	16.413	1324.500	999.754
366.825	16.466	1323.823	999.467
367.840	16.505	1323.284	999.205
368.854	16.511	1322.347	998.442
369.869	16.554	1321.984	998.333
370.883	16.532	1321.333	997.626
371.898	16.554	1320.463	997.007
372.913	16.624	1319.602	996.681
373.927	16.545	1318.637	995.399
374.942	16.632	1317.449	994.926
375.956	16.616	1317.002	994.409
376.971	16.647	1316.018	993.757
377.986	16.635	1315.458	993.178
379.000	16.618	1314.646	992.379
380.015	16.712	1313.674	992.105
381.029	16.665	1313.083	991.295
382.044	16.746	1312.370	991.144
383.059	16.869	1311.226	990.914
384.073	16.721	1310.661	989.533
385.088	16.755	1310.653	989.638
386.102	16.850	1309.836	989.488
387.117	16.885	1308.872	988.873
388.132	16.834	1308.249	988.020
389.146	16.819	1306.846	986.785
390.161	16.764	1306.606	986.199
391.175	16.845	1305.729	985.920
392.190	16.868	1305.118	985.507
393.205	16.882	1303.948	984.616
394.219	16.849	1303.112	983.705
395.234	16.932	1301.827	983.129
396.248	16.936	1300.661	982.183
397.263	16.892	1299.346	980.852
398.278	16.929	1298.032	979.983
399.292	16.894	1296.803	978.772
400.307	16.966	1295.454	978.078
401.321	16.920	1294.647	977.119
402.336	16.950	1293.668	976.466
403.350	16.896	1292.740	975.371
404.365	16.840	1292.253	974.593
405.380	16.879	1291.074	973.844
406.394	16.893	1290.131	973.122
407.409	16.991	1289.726	973.293
408.423	17.132	1288.667	973.218
409.438	17.077	1288.259	972.508
410.453	17.188	1287.662	972.610
411.467	17.236	1286.883	972.205
412.482	17.230	1286.076	971.479
413.496	17.218	1285.724	971.058
414.511	17.287	1285.111	970.903
415.526	17.354	1283.791	970.204
416.540	17.375	1283.193	969.783
417.555	17.349	1282.713	969.184
418.569	17.390	1281.874	968.698
419.584	17.397	1281.327	968.243
420.599	17.345	1280.834	967.488
421.613	96.722	1355.089	1476.690
422.628	94.599	1365.854	1476.804
