DTS Sentinel unit serial number:	SN413079Multiplexer serial number:	ORYXHardware model number:	OX4-SRSoftware version number:	ORYX F/W v4.00 Oryx Data Collector v3.7.2.0data status	okinstallation	princeton_trtdifferential loss correction	single-endedforward channel	channel 4reverse channel	N/Adate	2019/09/12time	23:33:35forward acquisition time	60.00reverse acquisition time	0.00gamma	496.2192k internal	0.2316k external	0.2316temperature offset calibration	1.0178default loss term (dB/km)	0.3790temperature slope calibration	1.0000multiplexer offset coefficient	1.0000multiplexer slope coefficient	1.0000fibre end	0.00T internal ref (°C)	28.94T ext. ref 1 (°C)	3.76T ext. ref 2 (°C)	23.61length (m)	temperature (°C)	Stokes	anti-Stokes-747.200	197.805	-0.132	-0.204
-746.185	-27.057	-0.088	0.052
-745.171	82.855	0.099	-0.109
-744.156	800.000	-0.048	0.147
-743.142	98.089	0.032	-0.037
-742.127	-142.611	0.264	-0.026
-741.112	-35.763	-0.357	0.196
-740.098	111.286	-0.086	0.104
-739.083	-135.897	-0.202	0.024
-738.069	800.000	0.059	-0.222
-737.054	-171.821	0.287	0.009
-736.039	80.904	-0.143	0.156
-735.025	26.319	0.162	-0.137
-734.010	-24.365	-0.374	0.225
-732.996	-200.000	0.063	-0.446
-731.981	-65.187	-0.184	0.075
-730.966	-130.504	-0.338	-0.046
-729.952	-109.821	-0.464	-0.099
-728.937	-200.000	-0.048	0.258
-727.923	85.517	-0.168	-0.187
-726.908	68.892	-0.053	-0.055
-725.894	52.370	0.061	-0.059
-724.879	-35.660	-0.352	-0.193
-723.864	78.288	0.208	0.225
-722.850	250.998	0.168	-0.290
-721.835	-74.876	0.349	-0.127
-720.821	-200.000	-0.006	0.226
-719.806	139.205	-0.102	-0.136
-718.791	-126.945	0.191	0.028
-717.777	-183.403	0.285	-0.005
-716.762	-103.636	-0.258	-0.061
-715.748	-57.060	-0.175	-0.078
-714.733	-53.194	0.051	-0.024
-713.718	-200.000	-0.037	-0.213
-712.704	-62.223	-0.317	-0.134
-711.689	480.149	-0.115	-0.263
-710.675	263.759	0.057	0.100
-709.660	-109.528	-0.366	-0.078
-708.645	-200.000	-0.004	-0.167
-707.631	-200.000	-0.004	0.350
-706.616	-98.479	-0.160	0.041
-705.602	-179.219	-0.218	0.005
-704.587	9.636	0.137	0.105
-703.572	149.080	-0.120	-0.164
-702.558	-143.710	0.295	-0.028
-701.543	-19.331	0.081	-0.051
-700.529	161.502	-0.045	-0.064
-699.514	736.453	-0.006	-0.016
-698.499	-200.000	0.013	0.085
-697.485	56.101	-0.182	0.178
-696.470	-53.849	-0.169	-0.078
-695.456	-63.887	0.174	0.072
-694.441	503.268	0.041	0.095
-693.426	-159.235	0.144	0.008
-692.412	-103.460	-0.406	-0.096
-691.397	800.000	-0.080	0.293
-690.383	-41.946	0.137	0.071
-689.368	-78.669	-0.134	0.046
-688.354	75.243	0.315	-0.336
-687.339	29.335	0.231	0.198
-686.324	423.131	0.058	-0.127
-685.310	-6.496	0.251	-0.173
-684.295	27.122	-0.143	-0.122
-683.281	26.603	-0.015	-0.013
-682.266	-199.372	0.225	0.001
-681.251	51.136	-0.192	0.184
-680.237	-121.442	-0.188	-0.032
-679.222	-200.000	-0.010	-0.187
-678.208	470.625	0.039	-0.089
-677.193	-200.000	-0.074	-0.348
-676.178	-57.425	0.279	0.124
-675.164	377.599	0.053	0.109
-674.149	-100.719	0.384	-0.096
-673.135	-111.583	0.244	0.050
-672.120	-200.000	-0.028	0.143
-671.105	800.000	0.056	0.200
-670.091	33.709	-0.227	0.200
-669.076	-81.803	-0.151	0.050
-668.062	37.168	-0.098	-0.087
-667.047	-88.744	-0.097	0.029
-666.032	756.613	-0.097	-0.266
-665.018	-62.402	0.078	0.033
-664.003	-98.871	-0.070	0.018
-662.989	40.852	-0.126	0.115
-661.974	-200.000	0.013	0.099
-660.959	-200.000	0.015	-0.188
-659.945	48.967	0.015	0.014
-658.930	-200.000	0.022	-0.402
-657.916	9.105	0.134	-0.102
-656.901	-200.000	0.019	0.108
-655.886	82.291	0.090	0.099
-654.872	800.000	0.113	-0.445
-653.857	29.317	0.209	0.179
-652.843	394.111	-0.133	0.279
-651.828	43.405	-0.137	0.126
-650.814	13.056	-0.045	0.035
-649.799	326.963	-0.123	-0.237
-648.784	-145.585	0.153	0.014
-647.770	-103.673	-0.506	0.120
-646.755	-76.403	-0.369	0.131
-645.741	32.503	0.078	0.068
-644.726	16.942	0.190	0.152
-643.711	-51.654	-0.271	-0.127
-642.697	-200.000	0.184	-0.001
-641.682	31.054	0.197	0.170
-640.668	63.979	-0.137	0.138
-639.653	-35.939	-0.217	0.118
-638.638	-171.394	-0.203	0.007
-637.624	-200.000	-0.031	-0.182
-636.609	33.105	-0.094	0.082
-635.595	800.000	-0.040	0.126
-634.580	-134.269	0.196	-0.024
-633.565	-30.312	-0.078	0.045
-632.551	-200.000	-0.067	0.341
-631.536	118.633	-0.084	-0.104
-630.522	326.304	-0.098	0.189
-629.507	384.364	0.083	-0.173
-628.492	101.173	0.076	0.089
-627.478	-186.428	0.348	-0.005
-626.463	-66.635	0.216	-0.086
-625.449	-39.246	0.216	0.114
-624.434	61.865	-0.007	0.007
-623.419	-200.000	-0.003	-0.357
-622.405	180.653	0.149	-0.221
-621.390	633.520	0.137	0.350
-620.376	-91.609	0.046	-0.013
-619.361	-200.000	-0.017	0.480
-618.346	170.930	0.156	-0.225
-617.332	689.111	-0.016	0.043
-616.317	534.452	0.038	-0.092
-615.303	-106.427	-0.279	0.063
-614.288	800.000	0.048	-0.137
-613.273	19.207	0.077	-0.062
-612.259	-96.170	0.160	-0.043
-611.244	275.346	-0.083	0.148
-610.230	-129.976	0.043	-0.006
-609.215	631.689	-0.037	0.094
-608.201	9.767	-0.181	0.138
-607.186	-200.000	-0.018	0.320
-606.171	-115.775	0.476	0.090
-605.157	68.469	-0.205	-0.211
-604.142	139.173	-0.069	-0.092
-603.128	155.192	0.111	0.153
-602.113	800.000	-0.072	-0.251
-601.098	-14.018	-0.355	-0.231
-600.084	186.989	0.146	0.219
-599.069	42.228	0.185	0.169
-598.055	-12.711	-0.229	-0.150
-597.040	-47.765	0.163	0.079
-596.025	503.560	-0.036	0.084
-595.011	761.682	-0.085	-0.233
-593.996	182.939	0.152	0.226
-592.982	242.585	0.195	-0.329
-591.967	53.060	-0.254	-0.244
-590.952	-44.457	-0.277	-0.139
-589.938	-4.344	0.137	0.095
-588.923	-49.284	0.262	0.126
-587.909	61.226	0.092	0.092
-586.894	-200.000	0.018	-0.299
-585.879	125.765	0.144	0.183
-584.865	65.864	-0.074	-0.075
-583.850	-72.862	0.266	0.098
-582.836	-8.480	-0.196	0.133
-581.821	137.090	-0.167	-0.219
-580.806	-164.867	0.470	-0.021
-579.792	107.679	-0.096	-0.116
-578.777	-200.000	0.015	0.187
-577.763	5.207	-0.036	-0.027
-576.748	-200.000	0.021	-0.140
-575.733	181.258	0.115	0.170
-574.719	-200.000	0.068	-0.465
-573.704	75.540	0.022	0.023
-572.690	-200.000	-0.064	-0.370
-571.675	-100.517	0.178	0.044
-570.661	3.713	-0.346	0.254
-569.646	-167.384	-0.308	-0.012
-568.631	-150.645	0.125	-0.010
-567.617	-158.604	0.146	-0.008
-566.602	-61.005	0.303	-0.129
-565.588	-42.011	0.060	0.031
-564.573	262.534	0.090	-0.158
-563.558	-102.838	-0.506	-0.121
-562.544	247.907	0.103	-0.174
-561.529	316.030	0.079	0.149
-560.515	800.000	-0.059	0.207
-559.500	-200.000	0.016	0.156
-558.485	800.000	0.112	-0.469
-557.471	-112.794	-0.309	-0.062
-556.456	-26.730	-0.162	0.095
-555.442	-20.921	0.338	-0.208
-554.427	-120.866	0.123	-0.021
-553.412	-200.000	-0.040	-0.529
-552.398	800.000	-0.039	0.126
-551.383	84.918	0.181	0.199
-550.369	-88.025	0.112	0.034
-549.354	135.055	-0.199	0.260
-548.339	-163.243	-0.139	0.007
-547.325	-44.680	-0.173	0.087
-546.310	-200.000	-0.074	-0.342
-545.296	154.255	-0.064	-0.088
-544.281	-48.678	0.186	-0.090
-543.266	-135.063	-0.099	0.012
-542.252	5.708	0.162	-0.120
-541.237	-200.000	-0.066	-0.362
-540.223	19.343	-0.034	0.028
-539.208	-200.000	-0.004	0.143
-538.193	-43.205	-0.163	-0.083
-537.179	313.352	0.117	-0.220
-536.164	-119.257	-0.072	0.013
-535.150	121.776	-0.012	-0.015
-534.135	-51.560	0.225	-0.105
-533.121	331.587	-0.062	-0.119
-532.106	-122.798	0.279	-0.045
-531.091	800.000	0.068	-0.189
-530.077	-141.481	-0.251	0.026
-529.062	126.670	0.203	-0.258
-528.048	-139.651	-0.251	0.027
-527.033	42.618	0.041	0.038
-526.018	-97.058	0.074	-0.019
-525.004	-200.000	-0.008	0.070
-523.989	-32.734	-0.053	-0.030
-522.975	-5.781	-0.185	-0.127
-521.960	3.857	-0.302	0.221
-520.945	-200.000	0.016	-0.122
-519.931	46.715	0.104	-0.097
-518.916	56.469	-0.335	0.327
-517.902	230.318	0.066	-0.108
-516.887	-80.485	0.315	0.106
-515.872	-1.437	0.225	-0.159
-514.858	-61.477	-0.289	-0.122
-513.843	-16.878	-0.201	0.127
-512.829	-147.458	-0.094	-0.008
-511.814	-168.418	-0.215	-0.008
-510.799	-103.527	-0.395	-0.093
-509.785	-147.919	-0.321	-0.027
-508.770	182.901	0.079	0.117
-507.756	119.006	-0.185	-0.229
-506.741	54.370	0.123	0.119
-505.726	29.547	-0.179	0.153
-504.712	374.381	0.075	-0.152
-503.697	37.364	0.243	-0.216
-502.683	137.947	0.066	-0.087
-501.668	555.976	0.004	0.011
-500.653	61.114	-0.069	0.069
-499.639	98.718	-0.227	-0.263
-498.624	-137.112	0.111	0.013
-497.610	38.004	-0.116	-0.104
-496.595	-200.000	-0.052	0.309
-495.581	800.000	-0.043	0.162
-494.566	-200.000	0.027	0.178
-493.551	20.349	0.239	0.194
-492.537	19.136	-0.190	-0.153
-491.522	471.549	0.093	0.209
-490.508	-112.678	-0.310	0.062
-489.493	-200.000	-0.034	0.197
-488.478	-48.460	-0.318	-0.154
-487.464	-6.480	0.176	0.120
-486.449	716.533	-0.111	-0.295
-485.435	755.462	0.087	-0.237
-484.420	-105.939	0.253	-0.057
-483.405	244.348	0.062	-0.105
-482.391	115.499	0.081	-0.099
-481.376	707.546	-0.180	0.477
-480.362	800.000	0.027	-0.114
-479.347	-75.650	0.204	-0.072
-478.332	-200.000	-0.050	0.263
-477.318	-132.561	-0.265	0.034
-476.303	378.772	-0.026	-0.053
-475.289	46.987	-0.294	0.274
-474.274	46.304	0.304	0.283
-473.259	-22.139	-0.136	-0.083
-472.245	-192.976	0.492	-0.004
-471.230	657.740	0.064	-0.164
-470.216	227.175	-0.206	-0.335
-469.201	-130.767	0.357	-0.048
-468.186	-39.631	-0.199	0.104
-467.172	800.000	-0.045	0.128
-466.157	346.064	0.095	-0.187
-465.143	-74.184	-0.115	-0.042
-464.128	14.303	-0.137	0.107
-463.113	20.638	-0.196	-0.159
-462.099	-138.671	0.112	-0.012
-461.084	75.158	-0.091	0.096
-460.070	-70.981	-0.138	0.052
-459.055	-107.040	-0.196	0.043
-458.040	-200.000	0.034	-0.151
-457.026	-3.404	0.108	0.075
-456.011	40.403	0.372	0.335
-454.997	16.005	0.101	-0.080
-453.982	-200.000	-0.023	0.287
-452.968	-200.000	-0.034	-0.165
-451.953	-32.469	0.115	0.064
-450.938	-21.101	0.167	-0.102
-449.924	170.040	0.008	-0.012
-448.909	-83.756	0.097	-0.031
-447.895	371.895	-0.037	-0.074
-446.880	-15.008	0.143	0.092
-445.865	59.582	-0.114	0.112
-444.851	-200.000	0.001	0.160
-443.836	708.616	-0.090	-0.237
-442.822	-162.462	0.341	-0.017
-441.807	3.262	0.043	0.031
-440.792	507.937	-0.151	-0.352
-439.778	-200.000	-0.056	-0.472
-438.763	-175.673	-0.088	-0.002
-437.749	-57.766	-0.290	0.127
-436.734	-118.983	-0.411	0.072
-435.719	-15.968	-0.257	0.164
-434.705	-33.675	0.165	0.091
-433.690	-5.736	-0.271	0.186
-432.676	-64.048	-0.304	0.124
-431.661	27.075	0.190	-0.159
-430.646	413.626	-0.116	0.247
-429.632	635.101	0.040	0.102
-428.617	-101.461	-0.127	-0.031
-427.603	-15.446	-0.099	0.063
-426.588	-200.000	0.002	0.068
-425.573	33.500	-0.105	-0.091
-424.559	-102.378	0.100	-0.024
-423.544	212.420	-0.098	-0.154
-422.530	-174.654	0.036	-0.001
-421.515	578.905	0.109	-0.266
-420.500	800.000	0.100	-0.324
-419.486	69.183	-0.168	0.173
-418.471	-200.000	-0.027	0.402
-417.457	200.631	-0.159	-0.244
-416.442	-145.424	-0.170	0.015
-415.428	190.658	-0.225	-0.338
-414.413	533.555	0.094	-0.222
-413.398	-200.000	0.018	-0.122
-412.384	54.587	-0.412	0.397
-411.369	-10.090	-0.169	0.113
-410.355	395.603	-0.070	0.146
-409.340	50.379	0.044	-0.041
-408.325	-91.943	-0.198	-0.056
-407.311	800.000	-0.048	-0.186
-406.296	117.635	-0.116	-0.143
-405.282	-200.000	0.036	0.253
-404.267	358.410	0.204	0.408
-403.252	-1.287	-0.112	0.079
-402.238	21.375	0.130	0.105
-401.223	182.206	0.108	0.159
-400.209	414.468	0.130	-0.278
-399.194	154.258	0.073	0.100
-398.179	-160.954	-0.232	0.012
-397.165	-130.420	-0.120	-0.016
-396.150	1.452	-0.226	-0.162
-395.136	86.041	0.134	0.147
-394.121	280.525	-0.184	0.328
-393.106	674.995	-0.101	-0.263
-392.092	800.000	-0.014	-0.045
-391.077	317.953	0.072	-0.137
-390.063	800.000	-0.138	0.456
-389.048	-15.937	0.140	0.089
-388.033	-106.249	0.093	-0.021
-387.019	-200.000	0.004	0.107
-386.004	-19.278	0.271	0.168
-384.990	-4.751	0.094	-0.065
-383.975	-137.553	0.205	-0.023
-382.960	-184.382	-0.298	-0.005
-381.946	-176.487	0.219	0.006
-380.931	-200.000	0.006	0.182
-379.917	164.618	-0.179	-0.252
-378.902	88.573	0.298	-0.331
-377.888	70.032	0.058	0.059
-376.873	-12.795	0.246	0.160
-375.858	-93.957	-0.497	-0.136
-374.844	-36.430	-0.099	0.053
-373.829	765.168	0.030	-0.082
-372.815	-200.000	0.069	0.329
-371.800	-200.000	-0.028	0.227
-370.785	800.000	0.055	0.236
-369.771	147.436	-0.132	-0.178
-368.756	-47.584	0.127	-0.061
-367.742	-200.000	0.024	-0.116
-366.727	-200.000	-0.012	-0.141
-365.712	533.608	0.088	0.209
-364.698	-117.026	0.137	0.025
-363.683	-28.975	-0.308	0.177
-362.669	-200.000	-0.024	-0.143
-361.654	206.385	-0.099	-0.154
-360.639	-39.495	0.116	-0.061
-359.625	535.546	0.122	0.288
-358.610	-46.819	-0.026	-0.013
-357.596	138.857	-0.150	-0.196
-356.581	-80.138	-0.094	-0.031
-355.566	-200.000	-0.015	-0.305
-354.552	-200.000	0.037	-0.166
-353.537	-8.409	0.119	0.080
-352.523	-200.000	-0.024	-0.294
-351.508	-29.458	-0.115	0.066
-350.493	-11.043	-0.111	-0.073
-349.479	-17.987	0.274	0.172
-348.464	-71.712	0.273	0.102
-347.450	241.506	0.088	0.146
-346.435	184.315	0.118	0.175
-345.420	-71.370	0.289	-0.108
-344.406	7.172	0.136	-0.101
-343.391	-56.350	0.267	-0.118
-342.377	58.405	0.203	0.198
-341.362	55.736	-0.065	-0.063
-340.348	-90.743	-0.482	0.139
-339.333	687.000	0.058	0.150
-338.318	-200.000	-0.008	0.046
-337.304	-104.476	0.154	0.035
-336.289	-156.421	-0.419	0.026
-335.275	-101.952	0.159	0.038
-334.260	-56.342	-0.392	-0.173
-333.245	462.295	-0.053	0.117
-332.231	-104.530	0.261	-0.060
-331.216	-16.693	0.137	-0.086
-330.202	177.202	-0.088	0.128
-329.187	18.641	0.267	-0.213
-328.172	-168.767	0.441	-0.017
-327.158	800.000	0.151	0.435
-326.143	-37.710	0.265	0.140
-325.129	310.606	-0.071	0.133
-324.114	800.000	0.035	0.113
-323.099	226.056	0.078	-0.126
-322.085	-15.098	-0.163	0.104
-321.070	58.581	0.163	0.160
-320.056	-72.029	0.419	-0.155
-319.041	14.687	0.301	0.235
-318.026	-200.000	0.021	-0.213
-317.012	-200.000	-0.057	-0.455
-315.997	259.871	0.170	0.292
-314.983	-200.000	0.011	0.078
-313.968	-127.082	-0.360	-0.053
-312.953	-200.000	-0.036	-0.159
-311.939	243.632	-0.094	-0.156
-310.924	-25.133	-0.178	-0.105
-309.910	-200.000	0.001	0.249
-308.895	-200.000	-0.086	0.379
-307.880	-200.000	0.022	0.105
-306.866	83.734	0.246	-0.267
-305.851	146.231	-0.117	0.156
-304.837	304.952	0.077	0.142
-303.822	-96.427	0.384	0.101
-302.807	156.248	-0.116	0.159
-301.793	-159.138	0.299	0.017
-300.778	-94.911	0.102	-0.027
-299.764	196.743	-0.265	-0.402
-298.749	-200.000	-0.001	-0.005
-297.735	239.840	-0.133	0.220
-296.720	-118.327	0.120	-0.021
-295.705	-80.506	0.250	0.083
-294.691	-40.721	-0.128	-0.066
-293.676	-102.422	-0.228	-0.054
-292.662	-200.000	-0.060	-0.469
-291.647	-128.759	0.256	0.036
-290.632	-24.282	0.077	0.046
-289.618	330.355	-0.084	-0.162
-288.603	351.035	-0.111	0.219
-287.589	16.292	0.288	-0.226
-286.574	-23.938	-0.191	0.114
-285.559	71.775	-0.218	0.225
-284.545	655.156	0.083	-0.213
-283.530	-200.000	0.039	-0.279
-282.516	-21.587	0.241	-0.146
-281.501	-28.052	0.139	-0.080
-280.486	-110.075	-0.188	-0.039
-279.472	-122.705	0.252	-0.041
-278.457	-200.000	0.060	-0.278
-277.443	-43.536	0.286	-0.143
-276.428	-82.075	-0.338	0.110
-275.413	-121.346	0.052	-0.009
-274.399	-26.137	0.132	0.077
-273.384	800.000	0.040	-0.125
-272.370	-200.000	0.007	0.072
-271.355	-27.394	-0.092	-0.053
-270.340	360.820	-0.169	-0.336
-269.326	0.279	-0.273	0.194
-268.311	-200.000	0.012	0.075
-267.297	-135.627	-0.229	0.027
-266.282	-68.051	0.096	0.037
-265.267	-17.403	-0.389	0.244
-264.253	262.117	-0.222	-0.382
-263.238	800.000	0.014	0.046
-262.224	322.441	-0.098	-0.185
-261.209	-123.223	0.237	-0.038
-260.195	-3.937	-0.053	-0.036
-259.180	-200.000	-0.024	-0.190
-258.165	-200.000	-0.023	0.109
-257.151	800.000	-0.063	0.190
-256.136	-200.000	-0.034	0.440
-255.122	-44.747	-0.127	-0.063
-254.107	-91.812	-0.325	0.092
-253.092	-20.581	-0.269	0.164
-252.078	39.263	0.332	0.295
-251.063	227.162	-0.261	0.421
-250.049	44.469	0.139	0.127
-249.034	-13.743	0.068	0.043
-248.019	27.872	0.060	-0.051
-247.005	-49.212	0.247	-0.117
-245.990	577.588	0.115	0.278
-244.976	-10.152	0.095	-0.062
-243.961	-94.893	0.274	-0.074
-242.946	675.485	-0.104	0.270
-241.932	-119.576	0.385	0.066
-240.917	318.237	-0.068	0.127
-239.903	9.167	-0.262	-0.196
-238.888	-179.580	0.061	-0.001
-237.873	193.975	-0.185	0.278
-236.859	-200.000	0.030	0.211
-235.844	800.000	-0.058	0.243
-234.830	413.127	-0.104	0.221
-233.815	73.976	0.128	0.133
-232.800	3.460	0.224	-0.162
-231.786	259.442	-0.082	0.140
-230.771	46.877	0.137	-0.126
-229.757	-200.000	0.040	0.176
-228.742	176.959	-0.147	-0.213
-227.727	303.856	-0.197	-0.362
-226.713	605.551	0.034	-0.084
-225.698	-67.636	-0.287	0.112
-224.684	14.831	-0.072	-0.056
-223.669	12.387	-0.297	-0.228
-222.655	-38.109	-0.146	0.077
-221.640	259.371	0.175	0.300
-220.625	2.427	-0.200	0.144
-219.611	-124.867	-0.146	0.022
-218.596	-144.772	0.239	-0.022
-217.582	-119.355	0.131	-0.023
-216.567	-39.039	-0.297	0.155
-215.552	69.968	0.212	-0.217
-214.538	-6.990	0.290	-0.195
-213.523	0.192	0.332	0.235
-212.509	-70.376	-0.166	-0.062
-211.494	-3.683	0.309	-0.213
-210.479	800.000	-0.040	-0.176
-209.465	-90.029	-0.121	-0.035
-208.450	800.000	0.065	-0.233
-207.436	167.551	0.146	0.206
-206.421	389.070	-0.033	-0.068
-205.406	53.317	-0.158	0.150
-204.392	463.681	-0.024	0.052
-203.377	222.649	0.057	0.091
-202.363	87.023	0.059	0.065
-201.348	235.011	0.150	0.245
-200.333	-72.606	0.267	-0.098
-199.319	-97.639	-0.217	0.056
-198.304	47.302	0.148	-0.136
-197.290	-17.634	-0.132	0.082
-196.275	129.992	-0.036	-0.045
-195.260	-120.730	-0.322	0.054
-194.246	-31.022	-0.032	0.018
-193.231	-88.139	-0.104	-0.031
-192.217	208.124	0.094	0.146
-191.202	58.741	0.204	0.199
-190.187	772.644	0.100	0.270
-189.173	415.912	-0.070	-0.147
-188.158	-200.000	-0.091	-0.439
-187.144	-83.833	0.259	0.082
-186.129	39.518	-0.145	0.129
-185.114	136.244	0.169	-0.218
-184.100	800.000	0.037	-0.146
-183.085	114.063	-0.169	-0.204
-182.071	-26.212	-0.165	0.096
-181.056	153.014	0.233	-0.316
-180.042	800.000	0.074	0.317
-179.027	-51.692	-0.180	0.083
-178.012	-65.328	0.209	0.083
-176.998	-56.274	-0.215	0.095
-175.983	191.761	-0.061	-0.091
-174.969	-86.138	0.346	-0.106
-173.954	5.328	0.100	-0.073
-172.939	-200.000	-0.008	-0.271
-171.925	-106.549	0.236	0.052
-170.910	97.549	0.166	-0.189
-169.896	-103.673	-0.265	0.062
-168.881	800.000	0.097	-0.276
-167.866	44.258	-0.102	0.093
-166.852	648.578	0.088	-0.223
-165.837	220.319	-0.099	0.157
-164.823	67.353	0.128	0.129
-163.808	27.946	0.285	-0.238
-162.793	-200.000	0.010	-0.119
-161.779	-176.677	-0.421	-0.011
-160.764	45.222	0.252	-0.230
-159.750	-68.192	0.169	-0.065
-158.735	143.080	0.065	0.085
-157.720	-65.295	-0.048	-0.019
-156.706	-98.091	0.427	0.109
-155.691	173.916	-0.131	0.187
-154.677	-95.028	-0.282	-0.075
-153.662	-98.798	0.110	-0.028
-152.647	-200.000	-0.011	0.197
-151.633	-129.275	0.268	-0.037
-150.618	-133.333	0.099	0.012
-149.604	-59.039	0.227	0.097
-148.589	-165.874	0.262	-0.011
-147.574	-60.615	-0.415	-0.174
-146.560	55.948	0.133	0.128
-145.545	-200.000	0.044	-0.193
-144.531	-200.000	-0.004	-0.393
-143.516	-82.959	-0.229	-0.073
-142.502	800.000	-0.051	-0.178
-141.487	63.667	-0.090	-0.090
-140.472	-78.704	-0.179	-0.060
-139.458	29.106	0.165	-0.139
-138.443	-200.000	-0.008	0.064
-137.429	-167.435	0.175	-0.007
-136.414	-154.046	0.210	0.014
-135.399	129.906	0.059	0.074
-134.385	101.475	0.239	0.276
-133.370	60.836	-0.239	-0.234
-132.356	151.059	0.177	0.238
-131.341	62.518	0.077	-0.076
-130.326	-200.000	0.009	-0.182
-129.312	-103.051	0.323	-0.076
-128.297	468.838	0.057	0.127
-127.283	172.109	0.085	0.121
-126.268	212.129	-0.044	-0.069
-125.253	-124.490	0.292	-0.045
-124.239	-200.000	-0.089	-0.396
-123.224	800.000	0.075	0.253
-122.210	130.003	-0.088	0.111
-121.195	-200.000	-0.006	-0.124
-120.180	40.183	0.055	-0.049
-119.166	161.005	0.066	-0.091
-118.151	78.545	0.257	-0.272
-117.137	435.506	-0.064	0.137
-116.122	-200.000	0.085	-0.420
-115.107	214.512	-0.086	0.134
-114.093	-35.877	-0.250	0.134
-113.078	-27.802	-0.231	0.132
-112.064	332.408	0.026	0.050
-111.049	-117.707	0.043	0.008
-110.034	15.631	0.183	0.142
-109.020	11.280	0.212	0.161
-108.005	800.000	-0.069	-0.268
-106.991	-129.823	0.188	-0.025
-105.976	-119.329	-0.159	-0.027
-104.962	-200.000	-0.009	0.178
-103.947	179.693	0.087	-0.127
-102.932	15.289	-0.180	-0.139
-101.918	284.008	0.052	0.092
-100.903	-173.025	0.077	-0.002
-99.889	143.219	0.124	-0.163
-98.874	-142.425	0.235	-0.023
-97.859	800.000	-0.029	0.097
-96.845	-1.342	0.108	-0.075
-95.830	-66.157	0.438	-0.172
-94.816	-80.462	0.487	0.160
-93.801	-55.251	-0.013	-0.006
-92.786	-105.017	-0.237	-0.053
-91.772	800.000	-0.085	-0.254
-90.757	-124.092	-0.248	0.038
-89.743	800.000	0.047	0.136
-88.728	-3.529	0.302	0.207
-87.713	-57.812	-0.127	0.055
-86.699	-22.618	-0.270	-0.161
-85.684	299.097	0.136	-0.247
-84.670	139.927	-0.230	-0.300
-83.655	71.913	-0.080	0.082
-82.640	98.380	0.087	0.099
-81.626	622.140	0.038	0.095
-80.611	452.600	-0.166	-0.362
-79.597	2.612	0.178	0.127
-78.582	800.000	-0.042	-0.147
-77.567	-32.026	0.210	-0.116
-76.553	-200.000	0.035	0.416
-75.538	-200.000	-0.022	0.406
-74.524	-200.000	-0.037	-0.303
-73.509	-200.000	-0.041	-0.326
-72.494	-28.206	0.215	0.122
-71.480	-200.000	0.043	0.200
-70.465	172.987	0.203	0.289
-69.451	-15.728	0.276	0.174
-68.436	-200.000	-0.076	0.405
-67.422	665.306	-0.103	0.262
-66.407	-200.000	0.212	-0.001
-65.392	357.496	0.048	-0.095
-64.378	12.737	-0.324	0.247
-63.363	800.000	-0.118	-0.363
-62.349	-200.000	0.020	-0.112
-61.334	47.064	-1.064	-0.976
-60.319	89.538	0.619	0.680
-59.305	-200.000	-0.076	-0.934
-58.290	75.764	0.974	1.015
-57.276	454.486	0.772	1.687
-56.261	-200.000	110.424	611.619
-55.246	502.907	1513.371	3449.234
-54.232	173.809	2700.407	3843.461
-53.217	100.329	2318.406	2652.186
-52.203	35.351	2065.651	1786.155
-51.188	30.804	1983.127	1673.959
-50.173	29.288	1966.699	1646.501
-49.159	45.520	2025.302	1843.279
-48.144	45.415	2041.965	1857.419
-47.130	31.247	1999.223	1691.292
-46.115	28.989	1989.252	1662.411
-45.100	28.886	1986.308	1658.959
-44.086	28.900	1983.237	1656.451
-43.071	28.806	1981.474	1654.069
-42.057	28.753	1979.352	1651.752
-41.042	28.825	1977.405	1650.711
-40.027	28.799	1975.826	1649.096
-39.013	28.843	1973.856	1647.779
-37.998	28.893	1971.695	1646.356
-36.984	28.841	1969.660	1644.128
-35.969	28.887	1967.519	1642.690
-34.954	28.909	1965.495	1641.125
-33.940	28.929	1964.878	1640.724
-32.925	28.935	1962.853	1639.027
-31.911	28.945	1960.914	1637.430
-30.896	28.964	1959.616	1636.448
-29.881	28.934	1958.440	1635.136
-28.867	29.009	1956.450	1634.078
-27.852	28.975	1955.087	1632.570
-26.838	28.931	1953.655	1630.918
-25.823	28.976	1951.702	1629.627
-24.809	28.963	1950.085	1628.094
-23.794	29.011	1947.831	1626.570
-22.779	28.909	1946.844	1624.779
-21.765	28.949	1944.916	1623.457
-20.750	29.008	1943.248	1622.525
-19.736	28.967	1941.711	1620.818
-18.721	28.919	1940.204	1619.066
-17.706	29.013	1938.258	1618.211
-16.692	28.953	1936.319	1615.995
-15.677	28.943	1934.912	1614.668
-14.663	28.938	1933.531	1613.413
-13.648	28.984	1932.122	1612.571
-12.633	28.890	1931.552	1611.212
-11.619	29.024	1929.580	1610.678
-10.604	28.996	1928.203	1609.220
-9.590	28.927	1927.255	1607.755
-8.575	28.925	1926.067	1606.685
-7.560	28.974	1924.531	1605.769
-6.546	28.922	1922.898	1603.891
-5.531	28.917	1922.272	1603.262
-4.517	28.982	1920.819	1602.549
-3.502	28.918	1919.683	1600.983
-2.487	28.937	1918.128	1599.788
-1.473	28.957	1917.308	1599.213
-0.458	29.055	1912.439	1595.941
0.556	30.612	1892.424	1567.095
1.571	26.150	1873.638	1514.073
2.586	22.063	1895.963	1497.217
3.600	20.918	1931.420	1515.131
4.615	20.533	1925.409	1506.942
5.629	16.160	1825.398	1392.521
6.644	8.198	1709.770	1242.408
7.659	4.087	1674.631	1185.357
8.673	3.679	1671.313	1179.787
9.688	3.717	1670.893	1179.674
10.702	3.867	1668.737	1179.195
11.717	3.757	1665.211	1175.761
12.731	4.295	1664.682	1179.378
13.746	9.937	1678.122	1231.928
14.761	18.654	1697.372	1312.934
15.775	23.149	1705.505	1353.579
16.790	23.612	1705.097	1356.677
17.804	22.926	1702.063	1348.907
18.819	22.137	1699.554	1340.781
19.834	21.661	1697.528	1335.433
20.848	21.576	1696.575	1333.921
21.863	21.639	1695.510	1333.441
22.877	21.537	1694.471	1331.732
23.892	21.406	1693.224	1329.636
24.907	21.366	1692.439	1328.598
25.921	21.302	1690.886	1326.777
26.936	21.197	1689.931	1325.113
27.950	21.240	1689.131	1324.699
28.965	21.296	1688.171	1324.253
29.980	21.345	1687.737	1324.166
30.994	21.509	1686.569	1324.375
32.009	21.628	1685.867	1324.606
33.023	21.720	1685.089	1324.568
34.038	21.674	1684.282	1323.471
35.053	21.675	1683.222	1322.530
36.067	21.570	1681.528	1320.292
37.082	21.403	1680.705	1318.271
38.096	21.422	1679.496	1317.347
39.111	21.449	1679.148	1317.160
40.126	21.549	1678.439	1317.241
41.140	21.469	1677.642	1315.897
42.155	21.267	1675.712	1312.750
43.169	20.971	1673.707	1308.837
44.184	20.908	1672.439	1307.260
45.199	20.861	1671.433	1306.003
46.213	20.800	1670.786	1304.925
47.228	21.123	1669.725	1306.401
48.242	21.174	1669.634	1306.594
49.257	21.366	1668.038	1306.664
50.271	21.363	1666.834	1305.588
51.286	21.331	1665.571	1304.240
52.301	21.358	1664.201	1303.253
53.315	21.305	1662.904	1301.731
54.330	21.288	1661.002	1300.001
55.344	21.120	1659.623	1297.555
56.359	20.992	1657.804	1295.065
57.374	20.947	1656.982	1293.979
58.388	20.932	1655.614	1292.685
59.403	20.902	1654.525	1291.492
60.417	20.849	1652.748	1289.600
61.432	20.762	1652.193	1288.410
62.447	20.651	1651.051	1286.583
63.461	20.603	1649.919	1285.234
64.476	20.585	1648.961	1284.241
65.490	20.566	1647.315	1282.705
66.505	20.545	1646.126	1281.510
67.520	20.438	1645.474	1280.100
68.534	20.540	1644.178	1279.735
69.549	20.534	1643.679	1279.189
70.563	20.481	1641.932	1277.325
71.578	20.528	1639.990	1276.043
72.593	20.317	1639.459	1273.970
73.607	20.369	1638.018	1273.121
74.622	20.307	1636.985	1271.748
75.636	20.267	1636.646	1271.078
76.651	20.374	1635.930	1271.196
77.666	20.284	1635.243	1269.893
78.680	20.315	1634.422	1269.368
79.695	20.425	1633.592	1269.411
80.709	20.489	1632.801	1269.155
81.724	20.649	1631.944	1269.547
82.739	20.858	1632.001	1271.000
83.753	20.915	1631.076	1270.585
84.768	21.021	1630.373	1270.696
85.782	21.303	1630.003	1272.348
86.797	21.488	1629.560	1273.235
87.812	21.540	1628.943	1273.020
88.826	21.558	1627.432	1271.855
89.841	21.404	1626.289	1269.735
90.855	21.352	1625.870	1268.914
91.870	21.465	1624.460	1268.526
92.884	21.620	1623.737	1268.969
93.899	21.685	1622.807	1268.600
94.914	21.652	1621.628	1267.333
95.928	21.740	1619.932	1266.529
96.943	21.618	1619.639	1265.301
97.957	21.717	1617.852	1264.513
98.972	21.534	1616.583	1262.086
99.987	21.516	1614.667	1260.349
101.001	21.539	1613.527	1259.511
102.016	21.643	1611.484	1258.560
103.030	21.526	1610.447	1256.794
104.045	21.509	1609.165	1255.562
105.060	21.488	1607.778	1254.216
106.074	21.425	1606.387	1252.570
107.089	21.183	1604.373	1249.156
108.103	20.811	1602.678	1245.064
109.118	20.560	1601.190	1242.005
110.133	20.463	1599.671	1240.031
111.147	20.460	1598.381	1238.898
112.162	20.498	1597.113	1238.078
113.176	20.586	1595.606	1237.423
114.191	20.795	1594.335	1237.815
115.206	20.738	1593.655	1236.771
116.220	20.669	1592.537	1235.307
117.235	20.684	1591.562	1234.549
118.249	20.636	1590.064	1232.934
119.264	20.597	1588.467	1231.313
120.279	20.529	1586.942	1229.537
121.293	20.472	1585.163	1227.646
122.308	20.330	1584.167	1225.764
123.322	20.237	1582.437	1223.666
124.337	20.165	1580.440	1221.504
125.352	19.993	1579.946	1219.805
126.366	20.090	1578.508	1219.264
127.381	20.179	1576.971	1218.595
128.395	20.116	1576.499	1217.680
129.410	20.055	1574.765	1215.804
130.424	20.010	1573.576	1214.468
131.439	20.158	1572.379	1214.470
132.454	20.276	1571.543	1214.545
133.468	20.553	1569.785	1215.014
134.483	20.580	1569.114	1214.575
135.497	20.541	1568.265	1213.541
136.512	20.686	1566.703	1213.237
137.527	20.701	1565.304	1212.150
138.541	20.731	1564.283	1211.463
139.556	20.744	1563.040	1210.479
140.570	20.770	1561.981	1209.734
141.585	21.002	1560.873	1210.378
142.600	21.087	1559.794	1210.022
143.614	21.272	1558.871	1210.483
144.629	21.273	1558.532	1210.122
145.643	21.573	1556.559	1210.554
146.658	21.512	1556.046	1209.631
147.673	21.438	1554.392	1207.727
148.687	21.208	1552.748	1204.752
149.702	21.033	1551.271	1202.297
150.716	20.897	1549.764	1200.086
151.731	20.689	1547.905	1197.106
152.746	20.631	1546.468	1195.495
153.760	20.640	1545.257	1194.514
154.775	20.698	1544.062	1193.880
155.789	20.869	1543.060	1194.174
156.804	20.955	1542.447	1194.183
157.819	21.108	1540.686	1193.761
158.833	21.083	1540.120	1193.043
159.848	21.234	1538.850	1192.987
160.862	21.413	1537.868	1193.339
161.877	21.515	1537.167	1193.389
162.892	21.187	1536.069	1190.190
163.906	20.838	1533.594	1185.796
164.921	20.570	1532.389	1182.937
165.935	20.609	1531.382	1182.318
166.950	20.689	1530.396	1181.993
167.964	20.779	1529.448	1181.772
168.979	20.872	1528.703	1181.722
169.994	20.889	1527.336	1180.675
171.008	20.813	1526.287	1179.246
172.023	20.766	1525.307	1178.068
173.037	20.858	1524.113	1177.659
174.052	21.112	1523.142	1178.521
175.067	21.267	1522.369	1178.866
176.081	21.062	1521.462	1176.679
177.096	20.703	1519.463	1172.606
178.110	20.546	1518.036	1170.342
179.125	20.618	1516.986	1169.917
180.140	20.711	1515.931	1169.622
181.154	20.768	1515.561	1169.616
182.169	21.075	1514.886	1171.052
183.183	21.131	1513.972	1170.622
184.198	21.079	1512.671	1169.163
185.213	21.268	1511.560	1169.468
186.227	21.352	1510.603	1169.182
187.242	21.246	1510.399	1168.213
188.256	21.381	1508.977	1167.915
189.271	21.436	1508.354	1167.696
190.286	21.575	1507.338	1167.734
191.300	21.471	1506.482	1166.271
192.315	21.096	1504.811	1162.375
193.329	20.751	1503.285	1158.799
194.344	20.754	1501.902	1157.652
195.359	20.751	1501.431	1157.165
196.373	20.868	1500.023	1156.756
197.388	20.800	1499.184	1155.553
198.402	20.874	1498.397	1155.334
199.417	21.062	1497.991	1156.169
200.432	21.458	1497.285	1158.144
201.446	21.559	1497.080	1158.549
202.461	21.803	1496.064	1159.274
203.475	21.850	1495.067	1158.710
204.490	21.829	1494.201	1157.799
205.504	21.595	1493.156	1155.341
206.519	21.366	1491.181	1152.201
207.534	21.188	1490.101	1150.093
208.548	21.090	1488.398	1148.035
209.563	21.074	1487.414	1147.069
210.577	21.160	1486.575	1146.880
211.592	21.143	1485.884	1146.140
212.607	21.152	1484.897	1145.335
213.621	21.388	1484.720	1146.643
214.636	21.608	1484.526	1147.832
215.650	21.558	1482.840	1146.103
216.665	21.393	1482.205	1144.429
217.680	21.440	1481.854	1144.364
218.694	21.703	1481.271	1145.535
219.709	21.835	1480.648	1145.809
220.723	21.821	1479.444	1144.689
221.738	21.712	1478.229	1142.939
222.753	21.635	1477.518	1141.781
223.767	21.603	1476.710	1140.847
224.782	21.491	1475.532	1139.112
225.796	21.624	1475.226	1139.634
226.811	21.878	1474.190	1140.387
227.826	21.842	1473.535	1139.548
228.840	21.685	1472.768	1137.832
229.855	21.558	1471.319	1135.792
230.869	21.504	1470.140	1134.429
231.884	21.416	1468.940	1132.834
232.899	21.346	1467.952	1131.517
233.913	21.222	1466.297	1129.338
234.928	21.086	1465.060	1127.410
235.942	21.078	1463.901	1126.365
236.957	20.995	1462.642	1124.758
237.972	21.012	1461.241	1123.694
238.986	20.918	1460.433	1122.364
240.001	20.920	1459.903	1121.876
241.015	21.009	1458.795	1121.497
242.030	21.091	1457.502	1120.926
243.045	21.037	1456.489	1119.700
244.059	21.246	1455.647	1120.300
245.074	21.384	1454.968	1120.560
246.088	21.455	1454.245	1120.360
247.103	21.491	1453.993	1120.293
248.117	21.745	1453.331	1121.315
249.132	21.769	1452.909	1121.039
250.147	21.901	1452.749	1121.661
251.161	22.198	1452.268	1123.092
252.176	22.469	1452.243	1124.701
253.190	22.624	1451.444	1124.975
254.205	22.599	1450.728	1124.156
255.220	22.805	1449.881	1124.713
256.234	22.797	1449.357	1124.159
257.249	22.915	1447.929	1123.701
258.263	22.814	1447.351	1122.514
259.278	22.682	1446.218	1120.696
260.293	22.633	1445.141	1119.453
261.307	22.629	1444.803	1119.062
262.322	22.784	1443.958	1119.291
263.336	22.833	1443.259	1118.966
264.351	22.835	1442.596	1118.362
265.366	22.892	1440.869	1117.289
266.380	22.905	1440.725	1117.156
267.395	22.876	1439.692	1116.077
268.409	22.866	1438.632	1115.091
269.424	22.706	1436.962	1112.687
270.439	22.471	1436.416	1110.683
271.453	22.443	1435.674	1109.834
272.468	22.418	1434.716	1108.840
273.482	22.285	1433.280	1106.794
274.497	22.223	1432.044	1105.352
275.512	22.153	1431.715	1104.563
276.526	22.190	1430.275	1103.585
277.541	22.241	1429.465	1103.182
278.555	22.223	1428.614	1102.319
279.570	22.300	1427.934	1102.174
280.585	22.460	1427.820	1102.994
281.599	22.721	1427.484	1104.271
282.614	22.881	1425.901	1103.949
283.628	22.719	1424.307	1101.607
284.643	22.300	1423.222	1098.055
285.657	22.270	1422.369	1097.111
286.672	22.296	1421.095	1096.195
287.687	22.237	1420.544	1095.303
288.701	22.390	1419.062	1095.013
289.716	22.364	1418.749	1094.517
290.730	22.417	1418.115	1094.261
291.745	22.376	1417.077	1093.108
292.760	22.377	1416.156	1092.303
293.774	22.438	1415.092	1091.767
294.789	22.487	1414.163	1091.257
295.803	22.636	1413.932	1091.907
296.818	22.769	1412.821	1091.773
297.833	22.643	1411.712	1090.038
298.847	22.402	1410.717	1087.688
299.862	22.362	1409.601	1086.482
300.876	22.305	1408.553	1085.226
301.891	22.421	1407.523	1085.055
302.906	22.485	1407.143	1085.061
303.920	22.600	1406.858	1085.452
304.935	22.743	1406.782	1086.175
305.949	23.058	1405.941	1087.372
306.964	23.141	1405.004	1087.055
307.979	23.222	1404.508	1087.075
308.993	23.012	1403.404	1084.835
310.008	22.874	1402.014	1082.817
311.022	22.810	1401.223	1081.722
312.037	22.968	1400.288	1081.868
313.052	23.091	1399.064	1081.582
314.066	22.879	1398.278	1079.582
315.081	22.723	1396.402	1077.083
316.095	22.513	1395.028	1074.649
317.110	22.163	1393.846	1071.512
318.125	22.128	1393.351	1070.821
319.139	22.189	1392.247	1070.249
320.154	22.184	1391.861	1069.828
321.168	22.258	1390.215	1068.920
322.183	22.230	1389.023	1067.736
323.197	22.240	1388.394	1067.222
324.212	22.276	1387.833	1066.913
325.227	22.401	1387.218	1067.102
326.241	22.514	1386.356	1067.030
327.256	22.493	1385.554	1066.189
328.270	22.450	1384.640	1065.135
329.285	22.320	1383.885	1063.675
330.300	22.277	1382.636	1062.357
331.314	22.332	1381.903	1062.033
332.329	22.352	1380.862	1061.261
333.343	22.319	1380.114	1060.391
334.358	22.384	1379.323	1060.084
335.373	22.477	1378.803	1060.149
336.387	22.693	1378.384	1061.032
337.402	22.838	1377.325	1060.995
338.416	22.784	1377.161	1060.451
339.431	22.847	1377.076	1060.667
340.446	22.941	1376.082	1060.372
341.460	23.047	1375.576	1060.523
342.475	23.329	1374.243	1061.093
343.489	23.428	1373.520	1061.036
344.504	23.428	1372.909	1060.469
345.519	23.595	1371.767	1060.489
346.533	23.553	1371.441	1059.893
347.548	23.690	1370.371	1059.794
348.562	23.756	1369.347	1059.300
349.577	23.675	1369.197	1058.607
350.592	23.488	1367.771	1056.295
351.606	23.114	1366.233	1052.792
352.621	22.987	1364.899	1050.913
353.635	22.721	1363.520	1048.177
354.650	22.756	1362.257	1047.322
355.665	22.728	1361.496	1046.479
356.679	22.676	1360.718	1045.480
357.694	22.811	1359.744	1045.439
358.708	22.992	1358.753	1045.658
359.723	22.997	1357.962	1044.981
360.738	23.097	1356.883	1044.651
361.752	23.150	1355.629	1043.905
362.767	23.017	1354.801	1042.393
363.781	23.109	1353.678	1041.979
364.796	23.169	1352.865	1041.614
365.810	23.195	1352.785	1041.613
366.825	23.438	1352.203	1042.503
367.840	23.656	1351.722	1043.319
368.854	23.797	1351.160	1043.621
369.869	23.979	1350.855	1044.364
370.883	23.939	1350.016	1043.386
371.898	23.851	1349.087	1042.062
372.913	23.621	1348.318	1040.023
373.927	23.538	1347.209	1038.594
374.942	23.544	1346.384	1037.900
375.956	23.772	1345.513	1038.469
376.971	23.818	1345.335	1038.511
377.986	23.589	1344.213	1036.212
379.000	23.639	1343.086	1035.544
380.015	23.825	1342.561	1036.133
381.029	23.868	1342.186	1036.005
382.044	23.991	1341.945	1036.440
383.059	24.070	1340.957	1036.049
384.073	23.994	1340.282	1034.993
385.088	23.891	1339.623	1033.791
386.102	23.889	1338.856	1033.095
387.117	23.954	1338.493	1033.105
388.132	23.810	1337.311	1031.264
389.146	23.442	1335.944	1027.984
390.161	23.335	1335.154	1026.667
391.175	23.400	1334.223	1026.236
392.190	23.321	1333.196	1024.897
393.205	23.471	1332.051	1024.795
394.219	23.543	1331.989	1025.072
395.234	23.734	1330.895	1025.240
396.248	23.794	1329.220	1024.205
397.263	23.568	1328.008	1021.883
398.278	23.469	1326.562	1020.109
399.292	23.481	1325.172	1019.020
400.307	23.339	1323.931	1017.156
401.321	23.310	1322.835	1016.058
402.336	23.224	1321.930	1014.784
403.350	23.063	1320.873	1012.958
404.365	23.103	1319.744	1012.232
405.380	23.212	1319.044	1012.227
406.394	23.351	1318.477	1012.501
407.409	23.431	1317.920	1012.440
408.423	23.633	1317.507	1013.187
409.438	23.816	1317.237	1013.932
410.453	23.884	1316.682	1013.801
411.467	24.096	1315.738	1014.192
412.482	24.131	1315.531	1014.141
413.496	24.216	1315.135	1014.232
414.511	24.264	1314.171	1013.672
415.526	24.297	1313.409	1013.183
416.540	24.430	1313.268	1013.740
417.555	24.504	1312.323	1013.340
418.569	24.504	1312.036	1013.030
419.584	24.464	1311.240	1012.097
420.599	24.297	1310.193	1010.255
421.613	146.082	1435.631	1797.080
422.628	141.711	1453.860	1797.188
