DTS Sentinel unit serial number:	SN413079Multiplexer serial number:	ORYXHardware model number:	OX4-SRSoftware version number:	ORYX F/W v4.00 Oryx Data Collector v3.7.2.0data status	okinstallation	princeton_trtdifferential loss correction	single-endedforward channel	channel 4reverse channel	N/Adate	2019/09/14time	03:41:34forward acquisition time	60.00reverse acquisition time	0.00gamma	496.2192k internal	0.2322k external	0.2322temperature offset calibration	1.0132default loss term (dB/km)	0.3790temperature slope calibration	1.0000multiplexer offset coefficient	1.0000multiplexer slope coefficient	1.0000fibre end	0.00T internal ref (°C)	26.67T ext. ref 1 (°C)	3.31T ext. ref 2 (°C)	21.67length (m)	temperature (°C)	Stokes	anti-Stokes-747.200	-200.000	0.060	-0.287
-746.185	-68.621	0.303	0.119
-745.171	-200.000	-0.049	-0.244
-744.156	800.000	0.087	-0.248
-743.142	-200.000	0.013	-0.090
-742.127	38.019	0.072	0.064
-741.112	152.146	0.206	-0.284
-740.098	-124.504	0.219	-0.034
-739.083	-143.739	0.333	0.032
-738.069	-97.255	-0.242	-0.064
-737.054	75.380	-0.377	-0.402
-736.039	268.989	0.126	-0.223
-735.025	4.357	0.129	0.096
-734.010	161.218	-0.072	0.101
-732.996	-171.068	-0.070	-0.002
-731.981	800.000	0.047	-0.203
-730.966	370.334	-0.117	-0.239
-729.952	-110.177	-0.403	-0.085
-728.937	684.929	-0.044	-0.117
-727.923	0.164	0.244	0.175
-726.908	-63.083	-0.200	0.083
-725.894	-200.000	0.008	-0.173
-724.879	-200.000	0.016	0.090
-723.864	32.349	-0.378	-0.330
-722.850	-105.151	-0.422	-0.097
-721.835	-168.253	0.145	-0.006
-720.821	74.668	-0.115	-0.122
-719.806	-200.000	0.017	-0.100
-718.791	-99.820	0.112	0.028
-717.777	-102.297	-0.034	-0.008
-716.762	-68.139	0.242	0.095
-715.748	-200.000	0.048	-0.219
-714.733	-200.000	-0.013	-0.228
-713.718	-70.156	-0.219	-0.084
-712.704	-200.000	0.034	-0.385
-711.689	-72.050	-0.046	-0.017
-710.675	-44.173	0.288	0.146
-709.660	62.804	-0.165	-0.166
-708.645	-143.322	-0.304	-0.029
-707.631	-146.848	0.115	-0.010
-706.616	-16.811	0.258	-0.164
-705.602	800.000	0.045	-0.130
-704.587	532.702	0.022	-0.052
-703.572	-101.873	-0.125	0.031
-702.558	800.000	0.020	-0.065
-701.543	-200.000	0.019	-0.154
-700.529	-200.000	-0.011	0.088
-699.514	716.750	0.062	0.165
-698.499	447.182	0.094	-0.209
-697.485	-200.000	-0.037	-0.182
-696.470	31.645	-0.064	-0.055
-695.456	273.096	0.094	0.168
-694.441	41.051	-0.275	0.250
-693.426	331.871	0.120	0.233
-692.412	280.342	-0.212	0.382
-691.397	312.920	-0.025	-0.047
-690.383	-122.084	-0.278	-0.046
-689.368	-200.000	0.007	0.168
-688.354	-192.960	-0.176	0.002
-687.339	38.320	0.128	0.115
-686.324	-1.584	-0.140	-0.099
-685.310	800.000	-0.005	-0.021
-684.295	800.000	0.047	-0.166
-683.281	332.040	-0.235	0.456
-682.266	-46.888	-0.071	-0.035
-681.251	800.000	0.067	-0.290
-680.237	-79.793	0.092	0.031
-679.222	20.381	-0.113	0.092
-678.208	-136.342	0.224	-0.026
-677.193	-121.879	0.130	0.022
-676.178	-153.273	0.238	0.017
-675.164	-200.000	0.025	0.203
-674.149	-200.000	0.001	-0.060
-673.135	66.563	-0.042	0.043
-672.120	-123.968	-0.226	-0.036
-671.105	-200.000	-0.002	-0.304
-670.091	-130.272	-0.199	-0.027
-669.076	189.852	0.142	-0.214
-668.062	71.573	-0.162	0.169
-667.047	-108.388	0.277	-0.060
-666.032	-200.000	-0.037	0.177
-665.018	-200.000	0.032	-0.443
-664.003	195.714	0.192	-0.294
-662.989	-23.322	-0.253	-0.153
-661.974	-185.316	-0.036	0.001
-660.959	800.000	-0.037	-0.140
-659.945	263.202	-0.086	0.151
-658.930	14.103	0.106	-0.083
-657.916	9.349	0.436	-0.332
-656.901	548.925	-0.113	-0.272
-655.886	-33.254	0.142	-0.079
-654.872	-200.000	-0.008	0.130
-653.857	-79.257	-0.457	0.156
-652.843	326.987	-0.064	-0.124
-651.828	-73.520	-0.204	-0.075
-650.814	312.398	0.074	0.140
-649.799	-32.187	-0.131	-0.073
-648.784	227.896	0.066	-0.109
-647.770	-158.504	-0.036	-0.002
-646.755	13.939	-0.276	0.216
-645.741	6.501	-0.233	0.174
-644.726	94.684	-0.093	-0.106
-643.711	800.000	-0.033	-0.124
-642.697	18.782	0.313	-0.252
-641.682	-123.630	-0.189	-0.030
-640.668	36.392	-0.094	-0.084
-639.653	507.389	-0.018	-0.042
-638.638	-87.344	-0.272	0.083
-637.624	48.555	-0.145	-0.137
-636.609	-78.260	-0.271	-0.094
-635.595	-35.670	0.222	-0.121
-634.580	562.199	0.164	0.399
-633.565	620.360	0.112	-0.282
-632.551	209.088	-0.066	0.104
-631.536	-200.000	0.027	-0.195
-630.522	27.078	-0.119	0.100
-629.507	53.524	-0.234	0.226
-628.492	183.066	0.072	-0.107
-627.478	-200.000	0.019	-0.343
-626.463	24.232	-0.113	-0.094
-625.449	-20.379	-0.246	0.152
-624.434	139.944	0.041	0.054
-623.419	-79.926	-0.065	0.022
-622.405	-200.000	0.012	-0.102
-621.390	-12.369	-0.063	-0.041
-620.376	-104.629	-0.522	-0.121
-619.361	-108.358	-0.270	0.059
-618.346	-200.000	0.031	-0.230
-617.332	-102.710	0.126	0.030
-616.317	800.000	-0.019	0.060
-615.303	-36.544	-0.125	-0.068
-614.288	-183.549	-0.238	0.004
-613.273	-171.266	-0.245	0.008
-612.259	800.000	0.066	-0.266
-611.244	800.000	-0.100	-0.317
-610.230	-101.428	0.240	0.059
-609.215	721.871	0.152	-0.405
-608.201	642.763	0.134	-0.342
-607.186	112.709	0.117	-0.142
-606.171	-113.870	-0.378	0.074
-605.157	521.867	-0.104	-0.244
-604.142	-57.461	0.077	0.034
-603.128	-73.164	-0.193	0.071
-602.113	-117.909	0.193	0.035
-601.098	97.843	-0.106	0.123
-600.084	207.701	0.151	-0.237
-599.069	219.884	-0.131	-0.211
-598.055	472.553	0.060	0.137
-597.040	-64.895	0.187	-0.076
-596.025	-75.564	-0.142	-0.051
-595.011	586.207	0.050	-0.124
-593.996	-2.854	-0.254	0.178
-592.982	-200.000	0.001	-0.343
-591.967	-45.015	-0.151	0.075
-590.952	-180.970	-0.148	-0.003
-589.938	90.325	-0.195	0.218
-588.923	321.539	0.202	-0.386
-587.909	-61.282	-0.192	-0.081
-586.894	-84.184	0.194	-0.062
-585.879	43.359	0.221	0.202
-584.865	-149.238	0.074	-0.006
-583.850	-192.937	-0.413	-0.004
-582.836	8.885	0.235	-0.178
-581.821	556.728	-0.007	0.016
-580.806	-124.234	0.194	-0.030
-579.792	-167.658	0.189	0.008
-578.777	126.761	0.068	0.086
-577.763	-73.104	-0.268	-0.099
-576.748	-136.369	-0.090	-0.011
-575.733	800.000	-0.052	0.188
-574.719	-104.395	0.155	-0.036
-573.704	95.776	-0.164	-0.188
-572.690	-200.000	-0.008	-0.139
-571.675	-105.193	-0.335	-0.077
-570.661	23.240	-0.085	0.070
-569.646	753.458	-0.054	0.146
-568.631	299.572	0.056	0.103
-567.617	-200.000	-0.028	0.211
-566.602	117.152	0.090	-0.110
-565.588	-31.170	0.237	-0.134
-564.573	-178.995	-0.300	0.007
-563.558	-119.413	0.215	-0.038
-562.544	-137.152	-0.210	0.024
-561.529	-118.673	-0.024	-0.004
-560.515	621.990	0.164	0.413
-559.500	800.000	0.034	0.126
-558.485	800.000	-0.096	-0.280
-557.471	66.086	0.380	-0.386
-556.456	65.998	0.097	0.099
-555.442	35.109	-0.234	-0.206
-554.427	-200.000	-0.007	0.075
-553.412	-2.860	-0.241	-0.169
-552.398	800.000	0.033	0.092
-551.383	-90.378	0.365	-0.106
-550.369	800.000	0.067	0.291
-549.354	-200.000	-0.015	-0.330
-548.339	548.671	-0.069	-0.166
-547.325	149.879	-0.151	-0.205
-546.310	-66.256	-0.161	0.064
-545.296	364.599	0.007	0.013
-544.281	-57.969	-0.315	-0.138
-543.266	11.373	-0.316	-0.242
-542.252	800.000	0.070	0.220
-541.237	329.003	-0.070	-0.134
-540.223	-45.834	-0.132	-0.065
-539.208	-200.000	0.010	-0.147
-538.193	-200.000	0.055	0.275
-537.179	-26.894	0.028	0.017
-536.164	-200.000	0.002	0.276
-535.150	310.522	0.255	-0.478
-534.135	527.739	-0.134	0.316
-533.121	800.000	0.017	0.074
-532.106	-147.525	0.064	-0.005
-531.091	125.073	-0.138	-0.175
-530.077	18.419	-0.176	0.141
-529.062	-200.000	-0.013	0.218
-528.048	21.489	0.087	0.071
-527.033	176.687	-0.142	0.206
-526.018	25.787	-0.135	0.113
-525.004	800.000	0.084	-0.281
-523.989	-74.413	-0.120	-0.043
-522.975	344.493	0.170	0.335
-521.960	-95.872	0.088	0.024
-520.945	-54.333	0.207	0.094
-519.931	589.715	0.067	-0.165
-518.916	-200.000	-0.013	-0.149
-517.902	294.476	0.083	0.152
-516.887	42.368	-0.122	-0.111
-515.872	540.393	0.107	0.254
-514.858	-74.350	0.233	-0.084
-513.843	-46.121	0.193	-0.095
-512.829	-79.662	0.278	-0.094
-511.814	265.141	0.041	-0.072
-510.799	-5.786	0.389	0.266
-509.785	-121.555	0.475	-0.079
-508.770	79.093	-0.074	0.079
-507.756	11.006	0.244	-0.187
-506.741	329.653	0.078	0.150
-505.726	144.726	-0.066	0.088
-504.712	-200.000	0.025	-0.148
-503.697	157.335	-0.151	-0.209
-502.683	-200.000	0.044	-0.238
-501.668	343.037	0.038	0.074
-500.653	131.126	0.064	-0.082
-499.639	-106.682	0.060	0.013
-498.624	-1.213	0.137	0.097
-497.610	431.291	-0.084	-0.183
-496.595	-46.643	0.155	0.076
-495.581	-38.684	0.372	-0.197
-494.566	67.525	0.206	0.210
-493.551	-200.000	0.006	0.082
-492.537	5.746	-0.240	0.177
-491.522	-34.433	-0.062	0.034
-490.508	-168.668	0.374	0.014
-489.493	-200.000	-0.017	-0.118
-488.478	-151.402	-0.238	-0.018
-487.464	128.934	-0.104	-0.132
-486.449	-133.350	-0.228	0.029
-485.435	83.679	0.163	-0.178
-484.420	-111.888	0.470	0.095
-483.405	88.377	0.109	0.121
-482.391	-200.000	-0.003	-0.200
-481.376	493.184	0.106	-0.243
-480.362	274.078	-0.128	-0.227
-479.347	-100.415	-0.215	0.053
-478.332	-88.641	0.168	0.050
-477.318	-200.000	0.009	-0.145
-476.303	-200.000	0.047	0.216
-475.289	800.000	-0.088	0.257
-474.274	-200.000	-0.006	0.032
-473.259	-99.829	0.218	-0.055
-472.245	93.262	-0.270	-0.305
-471.230	-200.000	-0.005	-0.057
-470.216	-9.703	0.153	0.102
-469.201	375.525	0.083	-0.170
-468.186	778.309	-0.145	0.395
-467.172	-200.000	-0.014	0.170
-466.157	-72.214	-0.291	-0.108
-465.143	-74.604	-0.147	-0.053
-464.128	-200.000	-0.029	0.240
-463.113	-12.621	-0.091	0.060
-462.099	11.486	-0.204	-0.156
-461.084	-48.999	0.144	0.069
-460.070	-200.000	-0.054	0.310
-459.055	271.217	0.091	0.159
-458.040	800.000	0.063	0.250
-457.026	12.444	-0.203	-0.157
-456.011	-200.000	0.011	-0.340
-454.997	-22.330	-0.020	0.012
-453.982	-197.865	0.020	0.000
-452.968	800.000	-0.077	-0.301
-451.953	57.597	0.185	-0.181
-450.938	35.057	-0.233	-0.204
-449.924	311.620	0.119	0.223
-448.909	-200.000	0.013	-0.126
-447.895	239.157	0.150	-0.249
-446.880	-33.063	-0.156	-0.086
-445.865	-200.000	0.002	0.350
-444.851	-54.677	0.280	0.127
-443.836	183.808	0.155	0.229
-442.822	657.977	-0.086	0.221
-441.807	-200.000	-0.029	0.190
-440.792	218.318	0.070	-0.112
-439.778	32.826	0.137	0.118
-438.763	-187.227	0.303	0.004
-437.749	-99.633	-0.270	-0.068
-436.734	-99.250	0.237	-0.060
-435.719	422.363	0.073	-0.156
-434.705	-200.000	-0.009	0.358
-433.690	-200.000	0.045	0.215
-432.676	-135.808	-0.209	-0.025
-431.661	800.000	-0.153	-0.425
-430.646	-126.846	-0.416	-0.061
-429.632	151.342	-0.167	-0.227
-428.617	-200.000	-0.010	0.191
-427.603	800.000	0.047	0.131
-426.588	69.729	-0.051	-0.053
-425.573	800.000	-0.062	-0.196
-424.559	-110.816	0.282	0.058
-423.544	-43.156	-0.272	0.138
-422.530	762.498	0.106	0.286
-421.515	800.000	-0.054	0.230
-420.500	-115.761	0.351	0.065
-419.486	-105.046	0.072	-0.016
-418.471	-94.095	-0.271	0.074
-417.457	-200.000	-0.044	0.207
-416.442	45.190	0.161	0.148
-415.428	-119.714	-0.064	-0.011
-414.413	-71.573	-0.117	-0.044
-413.398	-200.000	-0.305	0.001
-412.384	-90.964	-0.175	-0.050
-411.369	-13.200	0.402	-0.260
-410.355	9.562	-0.040	0.031
-409.340	6.822	-0.296	-0.220
-408.325	800.000	-0.064	-0.197
-407.311	-200.000	-0.023	0.189
-406.296	92.778	-0.085	-0.095
-405.282	-125.688	0.156	0.024
-404.267	47.046	-0.150	0.139
-403.252	112.935	0.066	-0.080
-402.238	-117.680	-0.293	0.053
-401.223	48.149	-0.220	-0.205
-400.209	-200.000	0.009	0.191
-399.194	-200.000	0.006	0.049
-398.179	474.347	-0.046	0.103
-397.165	-200.000	-0.014	0.159
-396.150	-32.650	-0.197	-0.109
-395.136	-98.236	-0.140	0.036
-394.121	800.000	-0.068	0.262
-393.106	-47.658	-0.158	0.077
-392.092	167.327	-0.078	0.110
-391.077	-156.117	0.330	-0.021
-390.063	-159.904	0.105	0.006
-389.048	-152.057	-0.285	-0.021
-388.033	-97.263	0.141	0.037
-387.019	800.000	-0.033	0.117
-386.004	337.485	-0.088	-0.171
-384.990	285.156	0.241	0.433
-383.975	29.100	0.191	0.162
-382.960	-89.823	0.157	0.046
-381.946	590.331	-0.034	-0.083
-380.931	-200.000	0.001	-0.081
-379.917	-200.000	-0.049	0.231
-378.902	-200.000	0.045	0.246
-377.888	234.706	0.151	0.248
-376.873	-73.181	-0.272	-0.099
-375.858	800.000	0.101	0.411
-374.844	-124.998	0.141	-0.022
-373.829	-163.071	0.032	-0.002
-372.815	-200.000	-0.018	0.325
-371.800	-200.000	-0.002	0.203
-370.785	-35.905	0.189	-0.102
-369.771	19.662	-0.109	0.087
-368.756	-200.000	-0.024	-0.133
-367.742	-29.151	-0.248	0.141
-366.727	-171.567	0.194	-0.006
-365.712	69.538	0.238	0.244
-364.698	-115.296	0.311	0.059
-363.683	-14.394	0.173	-0.111
-362.669	-68.936	0.061	0.023
-361.654	89.493	0.083	0.092
-360.639	237.376	0.161	-0.266
-359.625	-200.000	0.002	-0.065
-358.610	359.079	-0.096	0.190
-357.596	-150.497	-0.243	-0.019
-356.581	-89.447	-0.366	0.107
-355.566	-36.220	0.274	0.147
-354.552	-48.150	-0.221	0.106
-353.537	-129.262	0.188	0.026
-352.523	-20.359	0.080	-0.049
-351.508	-48.960	0.123	0.059
-350.493	-87.770	0.153	0.046
-349.479	-200.000	0.022	-0.175
-348.464	-17.551	0.154	-0.096
-347.450	-200.000	0.012	0.082
-346.435	-180.674	-0.242	-0.005
-345.420	-200.000	-0.002	0.312
-344.406	603.131	-0.097	-0.239
-343.391	-40.165	-0.282	0.146
-342.377	-14.513	0.162	-0.104
-341.362	312.735	0.078	0.145
-340.348	101.877	0.103	-0.119
-339.333	180.415	0.175	0.255
-338.318	509.435	-0.062	0.144
-337.304	-200.000	0.000	0.029
-336.289	10.316	0.027	-0.020
-335.275	-21.466	0.125	0.076
-334.260	-63.839	0.310	0.126
-333.245	800.000	-0.017	-0.061
-332.231	305.328	0.084	0.154
-331.216	413.367	-0.091	-0.193
-330.202	453.248	0.128	-0.281
-329.187	58.610	0.260	-0.254
-328.172	800.000	0.148	0.452
-327.158	321.484	0.071	0.134
-326.143	135.077	-0.310	-0.400
-325.129	-47.861	0.103	-0.050
-324.114	-142.666	0.042	-0.004
-323.099	57.193	-0.163	0.158
-322.085	173.511	0.111	0.159
-321.070	423.754	-0.042	0.090
-320.056	-150.657	-0.529	-0.040
-319.041	-73.240	-0.189	-0.069
-318.026	363.885	-0.131	0.261
-317.012	-200.000	-0.014	0.157
-315.997	97.759	-0.079	-0.091
-314.983	-175.425	-0.239	0.006
-313.968	-61.064	0.204	0.085
-312.953	-200.000	-0.025	0.262
-311.939	-200.000	0.006	0.193
-310.924	586.723	-0.008	0.019
-309.910	85.831	-0.182	-0.199
-308.895	139.034	0.122	0.160
-307.880	-58.222	0.151	0.065
-306.866	-8.537	0.382	0.255
-305.851	-7.952	0.040	-0.027
-304.837	-161.268	0.137	0.007
-303.822	-200.000	0.030	0.132
-302.807	-71.748	-0.089	-0.033
-301.793	122.226	-0.098	-0.121
-300.778	-200.000	-0.008	-0.200
-299.764	82.401	-0.020	-0.021
-298.749	94.135	0.038	-0.043
-297.735	128.141	0.173	-0.218
-296.720	800.000	-0.048	-0.166
-295.705	-170.288	-0.283	0.010
-294.691	-200.000	-0.027	0.123
-293.676	586.827	-0.091	0.223
-292.662	-25.805	-0.058	-0.034
-291.647	251.795	0.074	-0.125
-290.632	-34.961	-0.510	-0.276
-289.618	-8.907	-0.066	-0.044
-288.603	-68.222	0.409	0.158
-287.589	640.472	0.030	-0.075
-286.574	-179.025	-0.258	0.006
-285.559	-137.443	0.290	0.033
-284.545	-39.759	0.075	-0.039
-283.530	190.663	-0.139	0.208
-282.516	800.000	0.089	-0.249
-281.501	-115.642	0.176	-0.033
-280.486	-200.000	0.258	0.001
-279.472	800.000	-0.058	0.181
-278.457	80.894	0.246	0.263
-277.443	-151.567	-0.272	0.020
-276.428	-50.426	0.133	-0.062
-275.413	-170.805	0.630	0.021
-274.399	-61.171	0.101	0.042
-273.384	-15.621	-0.263	0.166
-272.370	3.110	0.208	0.150
-271.355	-200.000	-0.045	0.226
-270.340	751.508	-0.090	-0.240
-269.326	-200.000	-0.114	-0.572
-268.311	-200.000	-0.025	-0.245
-267.297	-77.810	-0.207	-0.071
-266.282	-151.892	0.362	-0.026
-265.267	-38.944	-0.180	0.094
-264.253	3.017	-0.036	-0.026
-263.238	274.131	-0.183	-0.321
-262.224	-9.610	0.168	0.111
-261.209	207.962	-0.079	-0.122
-260.195	39.923	0.235	-0.209
-259.180	-114.054	0.251	-0.048
-258.165	-200.000	-0.059	0.319
-257.151	800.000	0.054	0.218
-256.136	800.000	-0.096	-0.347
-255.122	-200.000	0.008	-0.136
-254.107	177.521	0.077	0.111
-253.092	-36.432	0.181	-0.097
-252.078	-200.000	-0.005	-0.061
-251.063	-98.571	-0.257	0.065
-250.049	136.732	-0.121	-0.157
-249.034	-29.824	-0.251	-0.142
-248.019	800.000	0.065	0.214
-247.005	-200.000	0.001	0.090
-245.990	800.000	-0.066	0.225
-244.976	-180.453	0.232	-0.005
-243.961	101.554	0.329	0.380
-242.946	19.533	0.181	-0.144
-241.932	800.000	-0.082	-0.320
-240.917	-85.489	-0.124	-0.038
-239.903	15.890	0.273	-0.213
-238.888	-191.450	0.107	-0.001
-237.873	-33.995	-0.132	-0.072
-236.859	-19.017	0.254	0.156
-235.844	-29.245	0.049	-0.028
-234.830	-25.482	-0.311	0.182
-233.815	800.000	0.012	-0.046
-232.800	588.198	0.118	-0.288
-231.786	-108.641	0.098	0.021
-230.771	28.860	0.030	0.025
-229.757	-200.000	0.000	0.175
-228.742	454.245	0.133	0.291
-227.727	20.119	-0.288	0.230
-226.713	238.948	-0.030	0.049
-225.698	-200.000	0.076	-0.418
-224.684	94.988	0.047	0.052
-223.669	44.455	0.285	-0.259
-222.655	171.681	0.275	0.390
-221.640	-151.185	-0.187	0.014
-220.625	-147.947	0.153	-0.013
-219.611	-94.363	-0.102	0.028
-218.596	-142.339	-0.308	0.030
-217.582	42.884	-0.149	0.135
-216.567	98.822	-0.148	0.169
-215.552	344.211	-0.255	-0.494
-214.538	-5.335	0.270	0.183
-213.523	-150.548	-0.213	0.016
-212.509	-10.433	-0.075	0.049
-211.494	16.958	-0.136	0.107
-210.479	-200.000	-0.020	-0.133
-209.465	32.936	-0.022	0.019
-208.450	-27.645	0.383	0.220
-207.436	94.268	-0.096	-0.108
-206.421	-200.000	0.017	0.236
-205.406	-58.062	-0.265	-0.114
-204.392	-148.066	0.117	0.010
-203.377	-200.000	0.001	0.086
-202.363	408.471	-0.082	-0.172
-201.348	245.358	-0.187	-0.312
-200.333	516.769	0.122	0.281
-199.319	-200.000	0.032	0.262
-198.304	10.368	0.246	0.185
-197.290	-112.476	-0.249	-0.049
-196.275	13.255	-0.124	-0.095
-195.260	-153.910	0.177	0.012
-194.246	162.741	0.053	-0.074
-193.231	-31.165	-0.128	0.071
-192.217	-38.284	0.412	0.216
-191.202	4.788	-0.152	0.111
-190.187	612.906	-0.136	-0.335
-189.173	800.000	0.019	-0.053
-188.158	-200.000	0.003	-0.278
-187.144	-200.000	-0.052	-0.531
-186.129	67.202	-0.214	-0.215
-185.114	-116.957	-0.220	0.040
-184.100	800.000	-0.026	-0.088
-183.085	-200.000	0.049	-0.277
-182.071	212.362	0.169	-0.263
-181.056	44.696	0.068	0.062
-180.042	-152.023	0.089	-0.006
-179.027	-200.000	-0.054	0.259
-178.012	-200.000	0.029	-0.189
-176.998	-41.528	-0.074	0.037
-175.983	-167.384	-0.156	0.006
-174.969	-90.292	0.160	0.046
-173.954	-92.527	-0.227	0.063
-172.939	-200.000	0.003	0.053
-171.925	-82.893	-0.271	-0.086
-170.910	126.408	0.143	-0.178
-169.896	-136.088	0.236	0.027
-168.881	-77.869	0.382	0.130
-167.866	-12.742	0.117	0.076
-166.852	270.343	-0.059	0.102
-165.837	-200.000	0.061	0.291
-164.823	-144.694	0.088	-0.008
-163.808	5.745	0.087	-0.063
-162.793	-75.969	-0.247	0.086
-161.779	-70.622	-0.268	0.100
-160.764	800.000	-0.077	-0.231
-159.750	259.966	0.082	-0.140
-158.735	28.064	0.133	0.111
-157.720	66.245	0.069	-0.069
-156.706	-90.464	0.375	-0.107
-155.691	-31.843	0.166	0.092
-154.677	-138.811	-0.204	-0.022
-153.662	-33.500	-0.045	0.025
-152.647	-200.000	-0.011	0.153
-151.633	24.771	0.037	0.030
-150.618	7.611	0.108	0.080
-149.604	-117.072	0.173	-0.031
-148.589	-97.600	-0.229	-0.059
-147.574	179.133	-0.214	0.309
-146.560	-200.000	-0.013	-0.207
-145.545	800.000	-0.121	-0.399
-144.531	-30.908	-0.101	-0.056
-143.516	-164.002	-0.096	0.004
-142.502	543.391	0.072	0.169
-141.487	9.442	-0.100	0.075
-140.472	-145.288	0.109	0.010
-139.458	52.067	0.146	0.137
-138.443	-200.000	0.043	0.263
-137.429	-19.226	0.177	0.108
-136.414	800.000	0.051	-0.189
-135.399	35.364	-0.127	0.110
-134.385	346.070	0.130	0.252
-133.370	524.383	0.089	-0.207
-132.356	-200.000	-0.019	0.145
-131.341	-200.000	-0.008	-0.103
-130.326	657.813	-0.220	0.558
-129.312	800.000	0.081	0.235
-128.297	-5.234	-0.068	0.046
-127.283	-133.075	-0.205	0.026
-126.268	800.000	0.057	-0.167
-125.253	262.573	0.100	0.170
-124.239	800.000	0.088	0.311
-123.224	-200.000	0.000	0.053
-122.210	55.813	-0.160	0.153
-121.195	235.952	0.085	0.139
-120.180	-116.581	0.033	-0.006
-119.166	-166.422	-0.211	0.009
-118.151	55.403	-0.082	0.079
-117.137	800.000	-0.034	-0.100
-116.122	616.320	0.051	0.126
-115.107	-47.915	-0.111	0.053
-114.093	-92.485	0.451	0.125
-113.078	-170.387	0.145	0.005
-112.064	-40.401	0.269	0.138
-111.049	727.818	-0.094	-0.246
-110.034	-125.586	-0.306	0.046
-109.020	-12.524	0.147	0.094
-108.005	452.153	-0.037	-0.080
-106.991	90.312	0.137	0.151
-105.976	199.826	0.049	0.075
-104.962	53.041	-0.219	0.206
-103.947	-81.147	-0.198	-0.065
-102.932	-200.000	-0.030	-0.184
-101.918	-200.000	0.017	0.226
-100.903	54.657	0.127	-0.120
-99.889	800.000	0.113	-0.338
-98.874	6.565	-0.118	0.086
-97.859	-28.644	-0.256	0.145
-96.845	-124.429	0.305	-0.047
-95.830	114.523	0.221	0.265
-94.816	173.214	0.087	0.124
-93.801	724.668	-0.065	0.169
-92.786	-25.675	-0.230	0.134
-91.772	198.614	-0.200	0.302
-90.757	224.400	0.039	0.061
-89.743	-176.919	-0.252	-0.006
-88.728	229.847	-0.066	0.106
-87.713	-136.149	-0.308	0.036
-86.699	800.000	0.020	-0.075
-85.684	-34.194	-0.289	-0.156
-84.670	-89.001	0.158	0.046
-83.655	417.225	0.022	-0.046
-82.640	-181.262	-0.154	-0.003
-81.626	-52.931	0.074	0.034
-80.611	-200.000	-0.004	-0.149
-79.597	-120.171	-0.028	-0.005
-78.582	-200.000	-0.018	-0.274
-77.567	285.138	0.138	-0.244
-76.553	61.146	-0.106	0.103
-75.538	33.504	0.194	0.166
-74.524	33.600	-0.242	0.207
-73.509	-94.685	0.311	0.083
-72.494	-93.680	-0.092	0.025
-71.480	-200.000	-0.002	0.129
-70.465	-52.693	-0.196	0.089
-69.451	33.116	-0.072	-0.061
-68.436	-200.000	-0.022	0.172
-67.422	-87.661	0.251	-0.075
-66.407	-5.822	-0.190	0.128
-65.392	38.696	0.084	-0.074
-64.378	-67.196	0.206	-0.080
-63.363	-79.460	0.196	0.065
-62.349	115.779	0.055	0.066
-61.334	-20.788	-0.919	-0.554
-60.319	-169.259	0.560	-0.020
-59.305	384.589	-0.477	-0.967
-58.290	768.687	0.528	1.413
-57.276	800.000	0.514	1.557
-56.261	-200.000	116.347	650.374
-55.246	506.730	1538.721	3508.752
-54.232	171.914	2720.747	3843.997
-53.217	96.883	2334.486	2630.794
-52.203	33.233	2078.654	1772.836
-51.188	28.441	1993.516	1656.967
-50.173	27.147	1976.346	1631.021
-49.159	44.501	2036.953	1839.786
-48.144	43.350	2051.863	1842.686
-47.130	28.878	2010.401	1674.718
-46.115	26.786	1999.153	1646.304
-45.100	26.538	1997.018	1642.229
-44.086	26.661	1994.073	1640.860
-43.071	26.609	1991.445	1638.160
-42.057	26.558	1989.398	1635.949
-41.042	26.604	1987.436	1634.693
-40.027	26.565	1985.604	1632.769
-39.013	26.553	1983.833	1631.138
-37.998	26.498	1982.460	1629.450
-36.984	26.460	1980.825	1627.695
-35.969	26.591	1978.149	1626.609
-34.954	26.603	1976.418	1625.234
-33.940	26.681	1974.801	1624.540
-32.925	26.614	1973.589	1622.878
-31.911	26.644	1971.519	1621.374
-30.896	26.643	1970.227	1620.238
-29.881	26.692	1968.630	1619.304
-28.867	26.726	1966.983	1618.184
-27.852	26.770	1964.990	1616.877
-26.838	26.740	1962.984	1614.893
-25.823	26.673	1961.686	1613.166
-24.809	26.789	1958.899	1611.844
-23.794	26.665	1958.159	1610.061
-22.779	26.713	1956.083	1608.724
-21.765	26.715	1954.447	1607.324
-20.750	26.677	1953.094	1605.816
-19.736	26.671	1951.613	1604.478
-18.721	26.752	1949.912	1603.735
-17.706	26.669	1948.369	1601.668
-16.692	26.735	1946.328	1600.509
-15.677	26.699	1945.215	1599.215
-14.663	26.711	1943.953	1598.217
-13.648	26.715	1942.368	1596.888
-12.633	26.719	1940.847	1595.605
-11.619	26.721	1939.244	1594.244
-10.604	26.679	1938.159	1592.922
-9.590	26.657	1936.906	1591.631
-8.575	26.750	1934.626	1590.514
-7.560	26.714	1934.067	1589.675
-6.546	26.689	1932.995	1588.514
-5.531	26.750	1931.340	1587.621
-4.517	26.755	1930.221	1586.686
-3.502	26.694	1929.335	1585.357
-2.487	26.635	1928.303	1583.927
-1.473	26.623	1927.521	1583.120
-0.458	26.791	1922.112	1580.084
0.556	27.552	1902.606	1552.422
1.571	23.380	1884.592	1502.295
2.586	19.654	1907.770	1488.603
3.600	18.675	1943.713	1507.910
4.615	18.114	1937.083	1497.726
5.629	13.865	1835.529	1383.738
6.644	6.703	1721.677	1241.623
7.659	3.574	1688.895	1193.701
8.673	3.264	1685.789	1189.003
9.688	3.314	1684.245	1188.196
10.702	3.299	1683.429	1187.395
11.717	3.343	1679.613	1184.940
12.731	3.783	1678.591	1187.498
13.746	8.617	1690.401	1233.069
14.761	16.165	1707.193	1303.757
15.775	19.968	1713.281	1337.733
16.790	20.167	1712.556	1338.582
17.804	19.430	1708.802	1329.854
18.819	18.375	1706.369	1319.715
19.834	17.784	1703.578	1312.894
20.848	17.536	1702.755	1310.237
21.863	17.428	1700.937	1307.889
22.877	17.171	1699.762	1304.893
23.892	17.064	1697.891	1302.527
24.907	16.943	1697.355	1301.068
25.921	16.849	1695.914	1299.130
26.936	16.899	1694.832	1298.568
27.950	16.959	1694.198	1298.429
28.965	16.842	1693.971	1297.243
29.980	17.042	1693.050	1297.952
30.994	17.125	1692.184	1297.805
32.009	17.140	1690.813	1296.759
33.023	17.213	1690.255	1296.767
34.038	17.235	1689.063	1295.905
35.053	17.244	1687.791	1294.887
36.067	17.130	1686.197	1292.680
37.082	17.075	1685.024	1291.249
38.096	17.118	1684.186	1290.821
39.111	17.103	1683.887	1290.363
40.126	17.131	1683.110	1289.867
41.140	17.192	1681.862	1289.261
42.155	16.971	1680.429	1286.371
43.169	16.810	1678.913	1283.878
44.184	16.682	1677.636	1281.816
45.199	16.796	1676.228	1281.492
46.213	16.630	1675.638	1279.667
47.228	16.692	1674.176	1278.905
48.242	16.896	1672.810	1279.295
49.257	17.057	1672.141	1279.879
50.271	16.995	1670.690	1278.188
51.286	17.003	1669.543	1277.262
52.301	16.938	1668.312	1275.714
53.315	16.992	1666.873	1274.907
54.330	16.893	1665.769	1273.206
55.344	16.936	1663.861	1271.958
56.359	16.809	1662.102	1269.550
57.374	16.810	1661.313	1268.843
58.388	16.903	1659.941	1268.380
59.403	16.864	1658.318	1266.733
60.417	16.728	1657.051	1264.639
61.432	16.651	1656.021	1263.163
62.447	16.640	1655.136	1262.299
63.461	16.529	1653.904	1260.419
64.476	16.552	1652.970	1259.766
65.490	16.535	1651.392	1258.329
66.505	16.560	1650.102	1257.416
67.520	16.587	1649.170	1256.800
68.534	16.718	1647.766	1256.590
69.549	16.642	1647.110	1255.417
70.563	16.711	1645.186	1254.347
71.578	16.601	1644.510	1252.909
72.593	16.524	1643.699	1251.604
73.607	16.468	1642.379	1250.080
74.622	16.490	1640.820	1248.946
75.636	16.363	1640.363	1247.547
76.651	16.435	1639.914	1247.625
77.666	16.385	1639.060	1246.498
78.680	16.455	1637.820	1245.963
79.695	16.496	1637.285	1245.745
80.709	16.488	1636.477	1244.963
81.724	16.605	1635.172	1244.716
82.739	16.697	1634.325	1244.638
83.753	16.768	1633.817	1244.665
84.768	16.916	1632.672	1244.768
85.782	16.944	1632.371	1244.637
86.797	17.073	1631.708	1244.963
87.812	17.064	1630.526	1243.885
88.826	17.018	1629.063	1242.321
89.841	16.989	1628.146	1241.307
90.855	16.940	1627.598	1240.414
91.870	16.926	1626.501	1239.371
92.884	17.140	1625.030	1239.702
93.899	17.150	1624.090	1238.945
94.914	17.180	1622.851	1238.110
95.928	17.198	1621.308	1236.958
96.943	17.209	1620.115	1236.018
97.957	17.186	1618.793	1234.732
98.972	17.080	1617.483	1232.850
99.987	17.031	1615.993	1231.255
101.001	17.016	1614.175	1229.649
102.016	17.060	1613.153	1229.079
103.030	17.058	1611.271	1227.526
104.045	17.105	1610.166	1226.911
105.060	17.042	1609.177	1225.595
106.074	16.977	1607.585	1223.805
107.089	16.886	1606.135	1221.941
108.103	16.764	1603.975	1219.306
109.118	16.566	1602.702	1216.811
110.133	16.652	1600.565	1215.697
111.147	16.634	1599.355	1214.543
112.162	16.557	1598.635	1213.336
113.176	16.615	1596.680	1212.158
114.191	16.665	1595.716	1211.674
115.206	16.841	1594.321	1211.770
116.220	16.717	1592.987	1209.760
117.235	16.731	1591.760	1208.821
118.249	16.740	1590.742	1208.006
119.264	16.689	1589.244	1206.398
120.279	16.610	1588.218	1204.948
121.293	16.613	1586.274	1203.389
122.308	16.619	1584.650	1202.095
123.322	16.539	1583.210	1200.328
124.337	16.453	1581.762	1198.517
125.352	16.447	1580.858	1197.683
126.366	16.445	1579.148	1196.267
127.381	16.432	1578.391	1195.496
128.395	16.534	1576.703	1194.830
129.410	16.404	1576.212	1193.437
130.424	16.505	1574.307	1192.600
131.439	16.594	1572.780	1191.966
132.454	16.634	1571.675	1191.300
133.468	16.648	1570.573	1190.464
134.483	16.801	1568.553	1189.899
135.497	16.739	1567.819	1188.806
136.512	16.650	1566.484	1187.058
137.527	16.793	1564.887	1186.747
138.541	16.729	1563.734	1185.321
139.556	16.785	1562.227	1184.466
140.570	16.887	1560.767	1183.965
141.585	16.898	1560.023	1183.374
142.600	17.014	1558.672	1183.054
143.614	17.135	1557.405	1182.831
144.629	17.196	1556.121	1182.170
145.643	17.262	1554.696	1181.447
146.658	17.173	1553.844	1180.071
147.673	17.099	1552.037	1178.085
148.687	17.043	1550.835	1176.678
149.702	16.908	1549.133	1174.346
150.716	16.903	1547.361	1172.869
151.731	16.894	1546.222	1171.836
152.746	16.785	1544.935	1170.008
153.760	16.934	1543.043	1169.496
154.775	16.921	1542.533	1168.919
155.789	16.966	1541.373	1168.247
156.804	17.069	1540.077	1167.867
157.819	17.121	1538.156	1166.669
158.833	17.085	1537.410	1165.750
159.848	17.171	1536.382	1165.457
160.862	17.223	1535.451	1165.006
161.877	17.292	1534.179	1164.408
162.892	17.114	1533.288	1162.413
163.906	17.032	1531.128	1160.111
164.921	16.896	1529.908	1158.156
165.935	16.893	1528.806	1157.196
166.950	16.947	1527.936	1156.804
167.964	17.051	1526.364	1156.218
168.979	17.032	1525.741	1155.517
169.994	17.080	1524.502	1154.801
171.008	16.989	1523.530	1153.347
172.023	17.000	1522.371	1152.438
173.037	17.186	1520.816	1152.420
174.052	17.099	1520.429	1151.437
175.067	17.215	1519.493	1151.414
176.081	17.238	1517.942	1150.294
177.096	17.063	1516.007	1147.543
178.110	16.986	1515.400	1146.457
179.125	16.990	1513.861	1145.223
180.140	17.050	1513.273	1145.078
181.154	17.042	1512.414	1144.271
182.169	17.102	1511.178	1143.642
183.183	17.148	1510.127	1143.054
184.198	17.229	1508.938	1142.599
185.213	17.312	1507.893	1142.261
186.227	17.368	1506.800	1141.711
187.242	17.424	1505.695	1141.146
188.256	17.431	1504.500	1140.188
189.271	17.429	1503.707	1139.473
190.286	17.443	1502.981	1138.914
191.300	17.478	1501.692	1138.071
192.315	17.190	1500.033	1134.790
193.329	17.012	1498.458	1132.309
194.344	16.947	1497.353	1130.940
195.359	16.949	1496.684	1130.352
196.373	17.051	1495.786	1130.253
197.388	17.218	1494.699	1130.444
198.402	17.344	1493.370	1130.176
199.417	17.413	1492.574	1129.929
200.432	17.484	1491.752	1129.677
201.446	17.646	1491.053	1130.122
202.461	17.658	1490.405	1129.614
203.475	17.691	1489.224	1128.837
204.490	17.813	1487.889	1128.530
205.504	17.740	1486.762	1127.096
206.519	17.589	1485.755	1125.233
207.534	17.525	1484.628	1123.855
208.548	17.519	1482.776	1122.316
209.563	17.412	1482.762	1121.504
210.577	17.569	1481.186	1121.246
211.592	17.513	1480.507	1120.260
212.607	17.554	1479.728	1119.843
213.621	17.675	1479.170	1120.114
214.636	17.758	1478.437	1120.009
215.650	17.547	1478.000	1118.189
216.665	17.738	1476.261	1118.028
217.680	17.691	1475.780	1117.262
218.694	17.796	1475.018	1117.272
219.709	17.912	1473.774	1116.991
220.723	17.838	1473.193	1115.967
221.738	17.859	1471.922	1115.039
222.753	17.884	1470.578	1114.085
223.767	17.804	1469.864	1112.924
224.782	17.735	1469.380	1112.013
225.796	17.875	1468.117	1111.870
226.811	18.022	1467.655	1112.381
227.826	17.942	1467.038	1111.294
228.840	17.863	1466.153	1110.010
229.855	17.801	1464.995	1108.634
230.869	17.825	1463.970	1107.911
231.884	17.914	1462.830	1107.527
232.899	17.842	1461.855	1106.228
233.913	17.698	1460.528	1104.195
234.928	17.737	1459.224	1103.360
235.942	17.629	1457.742	1101.447
236.957	17.664	1456.906	1100.939
237.972	17.617	1455.690	1099.620
238.986	17.629	1454.477	1098.687
240.001	17.666	1453.249	1097.902
241.015	17.791	1452.227	1097.834
242.030	17.794	1450.855	1096.721
243.045	17.774	1450.205	1096.002
244.059	17.878	1449.620	1096.133
245.074	17.950	1448.229	1095.443
246.088	17.981	1447.748	1095.181
247.103	17.899	1447.655	1094.493
248.117	18.014	1446.802	1094.486
249.132	18.170	1445.528	1094.421
250.147	18.238	1445.382	1094.649
251.161	18.262	1444.907	1094.348
252.176	18.369	1444.345	1094.509
253.190	18.443	1443.644	1094.350
254.205	18.576	1442.641	1094.347
255.220	18.569	1441.864	1093.615
256.234	18.556	1441.138	1092.886
257.249	18.713	1439.451	1092.507
258.263	18.656	1438.820	1091.566
259.278	18.636	1438.168	1090.853
260.293	18.613	1437.216	1089.883
261.307	18.584	1436.812	1089.295
262.322	18.660	1436.102	1089.144
263.336	18.730	1435.127	1088.755
264.351	18.765	1434.168	1088.152
265.366	18.804	1433.308	1087.647
266.380	18.818	1431.801	1086.502
267.395	18.836	1430.900	1085.831
268.409	18.831	1430.063	1085.068
269.424	18.673	1429.202	1083.325
270.439	18.627	1428.192	1082.169
271.453	18.650	1426.978	1081.299
272.468	18.588	1426.221	1080.239
273.482	18.586	1425.703	1079.741
274.497	18.526	1424.646	1078.470
275.512	18.527	1423.387	1077.423
276.526	18.548	1422.311	1076.648
277.541	18.572	1421.804	1076.317
278.555	18.623	1420.829	1075.805
279.570	18.582	1420.097	1074.899
280.585	18.723	1419.095	1074.930
281.599	18.866	1418.033	1074.921
282.614	18.932	1417.254	1074.650
283.628	18.804	1416.326	1073.055
284.643	18.772	1414.767	1071.576
285.657	18.737	1413.613	1070.386
286.672	18.673	1413.197	1069.579
287.687	18.823	1412.372	1069.796
288.701	18.749	1411.213	1068.365
289.716	18.706	1410.401	1067.388
290.730	18.740	1410.095	1067.274
291.745	18.861	1408.773	1066.926
292.760	18.818	1407.524	1065.619
293.774	18.881	1406.634	1065.242
294.789	18.857	1405.561	1064.185
295.803	18.901	1405.214	1064.102
296.818	18.974	1404.364	1063.815
297.833	19.034	1402.784	1062.898
298.847	18.836	1401.843	1060.864
299.862	18.908	1400.782	1060.416
300.876	18.833	1400.084	1059.327
301.891	18.882	1399.015	1058.729
302.906	18.906	1398.427	1058.336
303.920	18.994	1397.978	1058.446
304.935	19.094	1397.219	1058.390
305.949	19.112	1396.537	1057.891
306.964	19.159	1395.991	1057.675
307.979	19.375	1394.463	1057.748
308.993	19.185	1393.651	1055.872
310.008	19.272	1392.477	1055.426
311.022	19.270	1391.649	1054.688
312.037	19.194	1390.577	1053.319
313.052	19.213	1389.619	1052.620
314.066	19.222	1388.597	1051.805
315.081	19.156	1387.662	1050.602
316.095	19.074	1386.360	1049.022
317.110	18.959	1385.357	1047.469
318.125	18.995	1384.290	1046.790
319.139	19.002	1383.466	1046.115
320.154	18.995	1382.817	1045.490
321.168	19.003	1381.484	1044.441
322.183	18.979	1380.489	1043.450
323.197	19.061	1379.202	1042.883
324.212	19.097	1378.429	1042.422
325.227	19.207	1377.558	1042.340
326.241	19.174	1377.133	1041.726
327.256	19.177	1376.031	1040.816
328.270	19.237	1375.009	1040.315
329.285	19.145	1374.333	1039.157
330.300	19.169	1373.337	1038.455
331.314	19.096	1372.557	1037.331
332.329	19.102	1371.970	1036.834
333.343	19.108	1370.875	1035.949
334.358	19.227	1369.670	1035.663
335.373	19.205	1369.087	1035.000
336.387	19.366	1368.301	1035.282
337.402	19.331	1367.505	1034.377
338.416	19.275	1367.181	1033.706
339.431	19.336	1366.238	1033.262
340.446	19.484	1365.743	1033.685
341.460	19.577	1364.782	1033.426
342.475	19.616	1364.109	1033.053
343.489	19.677	1363.108	1032.571
344.504	19.707	1362.136	1031.920
345.519	19.787	1360.997	1031.442
346.533	19.771	1360.169	1030.630
347.548	19.796	1359.750	1030.371
348.562	19.834	1358.290	1029.402
349.577	19.881	1357.700	1029.144
350.592	19.769	1356.574	1027.529
351.606	19.707	1355.910	1026.566
352.621	19.617	1354.563	1024.923
353.635	19.467	1353.486	1023.130
354.650	19.497	1352.890	1022.763
355.665	19.538	1351.791	1022.088
356.679	19.508	1350.778	1021.052
357.694	19.508	1349.713	1020.156
358.708	19.632	1348.736	1020.059
359.723	19.632	1347.850	1019.301
360.738	19.645	1346.513	1018.279
361.752	19.721	1345.655	1017.983
362.767	19.726	1344.444	1017.011
363.781	19.774	1343.272	1016.312
364.796	19.749	1343.009	1015.878
365.810	19.715	1342.500	1015.202
366.825	20.046	1341.353	1016.190
367.840	20.013	1341.220	1015.805
368.854	20.088	1340.682	1015.744
369.869	20.128	1339.850	1015.263
370.883	20.169	1339.545	1015.177
371.898	20.123	1338.373	1013.931
372.913	20.062	1337.472	1012.805
373.927	20.051	1336.077	1011.596
374.942	20.147	1335.379	1011.538
375.956	20.118	1334.981	1010.974
376.971	20.126	1334.255	1010.384
377.986	20.096	1333.048	1009.207
379.000	20.067	1332.416	1008.470
380.015	20.190	1331.875	1008.686
381.029	20.218	1330.706	1007.873
382.044	20.393	1330.219	1008.433
383.059	20.337	1329.505	1007.474
384.073	20.308	1329.129	1006.935
385.088	20.288	1328.441	1006.207
386.102	20.305	1327.520	1005.517
387.117	20.441	1326.872	1005.726
388.132	20.417	1325.927	1004.781
389.146	20.222	1325.079	1002.925
390.161	20.131	1324.059	1001.538
391.175	20.114	1323.372	1000.830
392.190	20.093	1322.809	1000.197
393.205	20.187	1321.663	999.782
394.219	20.258	1321.124	999.695
395.234	20.288	1319.230	998.348
396.248	20.315	1317.974	997.463
397.263	20.332	1316.678	996.494
398.278	20.272	1315.581	995.226
399.292	20.192	1314.337	993.741
400.307	20.110	1313.204	992.326
401.321	20.084	1312.037	991.209
402.336	20.134	1311.066	990.672
403.350	20.111	1309.937	989.598
404.365	20.052	1309.354	988.739
405.380	20.125	1308.512	988.432
406.394	20.247	1307.497	988.268
407.409	20.246	1306.739	987.605
408.423	20.352	1306.589	988.009
409.438	20.453	1305.968	988.026
410.453	20.508	1305.284	987.730
411.467	20.575	1304.147	987.163
412.482	20.644	1304.139	987.465
413.496	20.667	1303.050	986.682
414.511	20.667	1302.926	986.502
415.526	20.793	1301.662	986.169
416.540	20.898	1301.082	986.237
417.555	20.817	1300.492	985.247
418.569	20.859	1300.119	985.111
419.584	20.826	1299.338	984.248
420.599	20.809	1298.632	983.532
421.613	145.373	1436.784	1798.242
422.628	140.578	1456.861	1798.328
