DTS Sentinel unit serial number:	SN413079Multiplexer serial number:	ORYXHardware model number:	OX4-SRSoftware version number:	ORYX F/W v4.00 Oryx Data Collector v3.7.2.0data status	okinstallation	princeton_trtdifferential loss correction	single-endedforward channel	channel 4reverse channel	N/Adate	2019/09/17time	00:09:35forward acquisition time	60.00reverse acquisition time	0.00gamma	496.2192k internal	0.2314k external	0.2314temperature offset calibration	0.9977default loss term (dB/km)	0.3790temperature slope calibration	1.0000multiplexer offset coefficient	1.0000multiplexer slope coefficient	1.0000fibre end	0.00T internal ref (°C)	29.56T ext. ref 1 (°C)	0.11T ext. ref 2 (°C)	23.84length (m)	temperature (°C)	Stokes	anti-Stokes-747.200	800.000	-0.039	-0.130
-746.185	268.692	-0.113	0.201
-745.171	294.721	0.222	0.412
-744.156	85.817	-0.245	-0.273
-743.142	-12.279	0.121	-0.080
-742.127	215.189	0.094	0.151
-741.112	69.017	-0.064	-0.066
-740.098	394.579	0.088	0.186
-739.083	-8.482	-0.183	0.125
-738.069	-72.942	-0.125	-0.047
-737.054	-46.087	0.208	-0.104
-736.039	787.107	-0.053	-0.147
-735.025	800.000	0.086	0.336
-734.010	-200.000	-0.014	-0.209
-732.996	22.269	0.106	-0.088
-731.981	-158.013	-0.398	-0.024
-730.966	-119.373	-0.085	-0.015
-729.952	-80.825	0.071	-0.024
-728.937	800.000	-0.037	-0.141
-727.923	-100.140	-0.161	-0.041
-726.908	800.000	-0.076	0.293
-725.894	48.269	0.242	-0.230
-724.879	-95.910	-0.265	-0.072
-723.864	800.000	-0.037	0.145
-722.850	-121.353	-0.327	0.055
-721.835	-116.586	-0.435	-0.081
-720.821	353.381	-0.025	0.051
-719.806	185.012	-0.064	-0.096
-718.791	800.000	0.059	0.227
-717.777	-65.040	-0.208	-0.085
-716.762	43.240	-0.108	0.100
-715.748	-123.304	-0.199	-0.032
-714.733	-200.000	-0.003	0.036
-713.718	800.000	0.098	-0.311
-712.704	-112.142	-0.122	-0.025
-711.689	-18.725	0.289	-0.182
-710.675	-54.274	-0.231	-0.106
-709.660	191.673	0.108	-0.165
-708.645	-119.431	-0.025	0.004
-707.631	-176.892	0.277	0.007
-706.616	-98.516	0.147	0.038
-705.602	25.023	-0.044	-0.037
-704.587	-54.094	-0.027	0.012
-703.572	-42.149	-0.207	-0.107
-702.558	403.474	0.147	-0.313
-701.543	800.000	-0.041	0.128
-700.529	-41.365	-0.180	0.094
-699.514	10.333	-0.192	0.148
-698.499	-19.752	0.206	-0.129
-697.485	-48.285	-0.364	-0.178
-696.470	-27.975	-0.198	0.116
-695.456	-181.733	-0.189	0.004
-694.441	27.188	0.074	0.063
-693.426	25.681	0.045	-0.038
-692.412	-55.153	0.200	-0.091
-691.397	250.587	-0.050	-0.085
-690.383	286.740	0.127	-0.232
-689.368	139.528	0.234	-0.312
-688.354	-157.910	0.297	0.018
-687.339	39.500	0.060	-0.054
-686.324	618.163	-0.080	0.202
-685.310	4.159	0.332	-0.246
-684.295	86.078	0.121	-0.135
-683.281	-59.314	-0.123	0.053
-682.266	-200.000	-0.009	0.134
-681.251	-200.000	0.032	-0.253
-680.237	-143.649	0.166	0.016
-679.222	179.926	-0.179	0.266
-678.208	-27.683	-0.084	0.049
-677.193	-200.000	0.012	-0.195
-676.178	-100.624	0.233	0.058
-675.164	-113.455	-0.101	-0.020
-674.149	176.652	-0.160	-0.235
-673.135	-107.722	-0.208	-0.046
-672.120	34.773	0.081	0.071
-671.105	-200.000	-0.067	0.352
-670.091	800.000	0.075	-0.270
-669.076	37.212	-0.123	-0.110
-668.062	800.000	-0.035	-0.111
-667.047	603.860	0.060	-0.150
-666.032	-61.360	0.214	0.091
-665.018	411.653	0.045	0.096
-664.003	-31.903	-0.284	-0.161
-662.989	-36.942	0.385	0.209
-661.974	800.000	0.074	-0.215
-660.959	54.370	-0.082	-0.080
-659.945	-59.436	-0.244	-0.106
-658.930	-60.819	-0.274	-0.117
-657.916	-126.218	-0.148	-0.022
-656.901	47.038	0.032	-0.030
-655.886	-57.162	-0.318	-0.141
-654.872	-102.206	0.212	0.051
-653.857	-83.377	0.118	-0.038
-652.843	-98.409	-0.134	0.035
-651.828	-158.954	0.319	0.018
-650.814	-106.214	-0.223	-0.051
-649.799	259.740	-0.049	0.085
-648.784	-200.000	-0.050	0.273
-647.770	-176.747	0.297	0.008
-646.755	-90.741	0.134	0.039
-645.741	800.000	0.029	0.106
-644.726	265.147	-0.091	-0.161
-643.711	-11.824	-0.069	-0.046
-642.697	-71.196	0.153	-0.058
-641.682	-82.050	-0.270	0.089
-640.668	-28.255	0.132	0.077
-639.653	194.123	-0.066	-0.101
-638.638	800.000	-0.003	0.010
-637.624	-153.643	0.214	-0.015
-636.609	-24.489	0.211	-0.127
-635.595	85.213	-0.062	-0.069
-634.580	-200.000	0.013	-0.358
-633.565	-76.268	-0.136	-0.048
-632.551	800.000	0.055	-0.224
-631.536	-200.000	0.583	0.001
-630.522	-76.325	-0.006	0.002
-629.507	105.864	0.275	-0.328
-628.492	800.000	0.082	-0.286
-627.478	800.000	-0.074	-0.208
-626.463	-119.895	0.197	-0.034
-625.449	-35.262	-0.110	0.060
-624.434	-103.926	-0.268	-0.063
-623.419	-200.000	0.022	-0.132
-622.405	-34.368	0.159	-0.088
-621.390	585.611	0.147	-0.365
-620.376	-200.000	-0.008	0.192
-619.361	45.006	-0.310	0.288
-618.346	185.995	0.170	-0.254
-617.332	-159.388	-0.135	-0.008
-616.317	-160.690	-0.398	0.021
-615.303	-200.000	0.060	-0.442
-614.288	90.482	-0.312	0.352
-613.273	-200.000	-0.011	0.367
-612.259	-200.000	-0.036	0.223
-611.244	120.947	-0.042	0.053
-610.230	800.000	-0.105	0.320
-609.215	63.313	-0.148	0.150
-608.201	36.462	-0.193	-0.172
-607.186	197.838	0.307	-0.473
-606.171	686.184	0.063	0.166
-605.157	29.876	0.085	-0.073
-604.142	-68.901	-0.336	0.131
-603.128	800.000	-0.022	0.090
-602.113	-26.558	-0.084	0.050
-601.098	-45.110	-0.180	-0.090
-600.084	-25.381	-0.201	0.120
-599.069	-1.968	-0.112	-0.079
-598.055	137.242	-0.255	0.336
-597.040	-200.000	-0.010	0.169
-596.025	-52.425	-0.149	-0.070
-595.011	540.716	0.129	0.310
-593.996	129.062	0.055	-0.071
-592.982	-41.524	0.107	0.056
-591.967	-42.167	0.152	-0.078
-590.952	67.986	0.304	-0.314
-589.938	-200.000	-0.063	0.398
-588.923	800.000	-0.032	0.136
-587.909	651.601	-0.089	-0.230
-586.894	-200.000	0.033	-0.253
-585.879	271.248	0.129	-0.230
-584.865	-63.177	0.313	0.130
-583.850	305.355	-0.188	-0.352
-582.836	-21.942	-0.179	0.110
-581.821	68.111	-0.312	0.322
-580.806	-156.486	-0.287	-0.018
-579.792	432.203	-0.150	-0.327
-578.777	-136.127	-0.406	0.048
-577.763	-162.264	-0.445	0.022
-576.748	37.502	0.108	0.097
-575.733	-200.000	-0.043	-0.302
-574.719	-102.761	-0.311	0.075
-573.704	-200.000	-0.079	-0.372
-572.690	-144.151	0.166	-0.016
-571.675	21.030	0.095	-0.077
-570.661	510.221	0.102	0.239
-569.646	236.471	-0.096	0.159
-568.631	6.057	0.164	0.122
-567.617	-28.499	-0.195	0.113
-566.602	101.695	0.192	0.226
-565.588	-200.000	-0.045	0.399
-564.573	-200.000	0.018	0.251
-563.558	158.439	-0.100	0.139
-562.544	44.650	-0.275	0.254
-561.529	180.160	-0.200	0.295
-560.515	653.802	-0.046	-0.120
-559.500	-73.323	0.103	0.038
-558.485	800.000	0.032	0.121
-557.471	73.197	-0.127	0.133
-556.456	-73.858	-0.120	0.044
-555.442	-62.926	-0.174	0.073
-554.427	138.169	0.225	-0.297
-553.412	424.528	0.035	-0.076
-552.398	800.000	0.122	0.356
-551.383	512.576	-0.125	0.292
-550.369	-41.001	0.234	-0.122
-549.354	-9.730	-0.284	-0.190
-548.339	77.685	0.163	-0.175
-547.325	800.000	-0.103	-0.350
-546.310	-200.000	-0.006	0.235
-545.296	179.803	-0.150	-0.221
-544.281	39.205	0.374	-0.337
-543.266	191.159	-0.127	0.193
-542.252	-81.360	-0.090	-0.030
-541.237	152.576	-0.092	0.126
-540.223	287.149	0.055	0.100
-539.208	-27.410	0.244	-0.143
-538.193	-200.000	0.125	0.583
-537.179	-59.130	-0.083	0.036
-536.164	-200.000	0.007	-0.093
-535.150	800.000	-0.035	-0.129
-534.135	377.792	0.131	-0.269
-533.121	-101.641	0.422	0.103
-532.106	-42.589	0.108	0.056
-531.091	-200.000	-0.018	-0.428
-530.077	-200.000	0.009	-0.041
-529.062	-149.323	-0.276	-0.022
-528.048	-200.000	-0.021	0.411
-527.033	800.000	0.043	0.135
-526.018	-101.415	-0.145	-0.036
-525.004	-70.083	-0.508	-0.194
-523.989	149.973	-0.086	0.117
-522.975	100.502	0.047	-0.055
-521.960	800.000	-0.097	0.299
-520.945	15.137	0.324	0.255
-519.931	-71.035	0.195	0.074
-518.916	1.361	-0.084	-0.060
-517.902	-200.000	-0.025	0.137
-516.887	-200.000	-0.027	-0.345
-515.872	-111.457	-0.337	-0.069
-514.858	522.341	-0.038	-0.091
-513.843	-5.817	-0.198	-0.136
-512.829	800.000	0.054	-0.181
-511.814	-200.000	0.027	-0.391
-510.799	193.361	-0.244	-0.370
-509.785	-58.420	-0.232	-0.101
-508.770	-104.292	-0.169	0.039
-507.756	-200.000	0.063	0.303
-506.741	16.167	0.191	0.151
-505.726	129.249	0.121	0.155
-504.712	-122.780	0.340	0.055
-503.697	436.610	-0.184	-0.403
-502.683	78.383	-0.216	0.232
-501.668	98.477	0.048	0.056
-500.653	249.569	-0.201	0.342
-499.639	218.480	-0.069	0.111
-498.624	-200.000	-0.047	-0.300
-497.610	-200.000	-0.012	-0.305
-496.595	-45.866	-0.117	-0.058
-495.581	153.393	0.053	-0.072
-494.566	-200.000	-0.036	0.298
-493.551	64.151	-0.290	0.293
-492.537	71.646	-0.127	0.132
-491.522	-32.187	0.279	0.156
-490.508	-49.961	0.195	-0.093
-489.493	-110.877	0.296	0.061
-488.478	68.470	-0.220	-0.226
-487.464	-200.000	-0.049	0.227
-486.449	-3.794	0.293	0.205
-485.435	416.019	-0.084	0.180
-484.420	800.000	-0.053	-0.215
-483.405	-107.842	0.464	-0.101
-482.391	-108.186	0.201	-0.044
-481.376	-59.329	-0.249	0.108
-480.362	21.847	0.224	-0.183
-479.347	800.000	-0.066	-0.220
-478.332	10.699	-0.319	-0.244
-477.318	32.689	0.047	0.041
-476.303	217.016	0.164	-0.262
-475.289	531.007	0.090	-0.214
-474.274	435.482	0.018	0.039
-473.259	-87.965	0.395	-0.119
-472.245	228.176	-0.225	-0.367
-471.230	-138.706	-0.306	-0.034
-470.216	-30.789	-0.249	-0.141
-469.201	-200.000	-0.011	-0.103
-468.186	21.904	0.103	0.084
-467.172	800.000	-0.140	-0.418
-466.157	23.687	0.258	-0.213
-465.143	-78.947	0.119	0.041
-464.128	17.970	-0.112	-0.090
-463.113	276.277	0.176	0.314
-462.099	-156.395	-0.227	-0.014
-461.084	-8.612	-0.108	-0.072
-460.070	-48.559	-0.185	0.089
-459.055	800.000	0.048	0.135
-458.040	-200.000	-0.000	-0.006
-457.026	-149.185	0.040	-0.003
-456.011	-55.944	-0.332	0.149
-454.997	-68.122	0.359	-0.140
-453.982	70.630	-0.244	-0.253
-452.968	221.268	0.121	0.195
-451.953	-101.856	0.217	-0.053
-450.938	40.781	-0.281	-0.254
-449.924	-75.597	-0.284	0.101
-448.909	312.783	-0.144	-0.270
-447.895	-200.000	0.006	0.098
-446.880	-54.021	0.183	0.084
-445.865	-26.318	-0.148	-0.087
-444.851	106.985	0.059	-0.070
-443.836	52.616	0.011	0.010
-442.822	-56.242	0.156	0.069
-441.807	774.982	0.094	0.258
-440.792	53.993	0.275	-0.265
-439.778	302.033	-0.257	-0.477
-438.763	108.196	-0.131	-0.156
-437.749	337.028	-0.105	-0.204
-436.734	147.778	0.174	0.234
-435.719	-200.000	0.038	0.201
-434.705	-101.299	-0.060	-0.015
-433.690	-12.991	0.114	-0.074
-432.676	-200.000	0.052	0.232
-431.661	45.782	-0.034	-0.031
-430.646	57.457	-0.266	-0.260
-429.632	-200.000	0.009	0.103
-428.617	-85.954	-0.161	0.050
-427.603	-200.000	-0.014	0.090
-426.588	-200.000	0.014	0.177
-425.573	269.578	-0.011	0.019
-424.559	-122.958	0.087	-0.014
-423.544	104.844	0.083	0.098
-422.530	-200.000	-0.036	0.167
-421.515	188.510	-0.066	0.098
-420.500	-80.567	-0.213	-0.071
-419.486	800.000	0.122	-0.341
-418.471	69.669	-0.203	0.210
-417.457	93.690	0.375	0.425
-416.442	-200.000	0.019	0.093
-415.428	-18.423	-0.283	-0.177
-414.413	743.058	0.099	0.266
-413.398	800.000	0.026	-0.095
-412.384	-78.688	0.182	0.062
-411.369	38.514	0.033	0.030
-410.355	-5.316	0.182	-0.125
-409.340	800.000	-0.061	0.187
-408.325	194.021	-0.108	0.164
-407.311	-133.486	-0.095	0.012
-406.296	10.507	0.077	0.059
-405.282	99.133	-0.120	-0.138
-404.267	-49.018	0.342	-0.164
-403.252	-32.234	0.275	-0.154
-402.238	143.622	0.036	0.048
-401.223	320.403	-0.090	-0.171
-400.209	21.140	0.129	0.105
-399.194	-200.000	-0.007	0.045
-398.179	36.387	-0.151	0.133
-397.165	215.663	0.165	0.262
-396.150	-120.289	-0.261	0.045
-395.136	93.698	-0.106	0.120
-394.121	-113.068	0.205	-0.041
-393.106	-200.000	0.000	0.391
-392.092	-2.470	-0.309	-0.216
-391.077	29.696	0.260	-0.221
-390.063	136.010	0.173	0.225
-389.048	120.204	0.079	-0.098
-388.033	140.648	0.033	0.043
-387.019	325.857	0.053	0.102
-386.004	56.484	-0.090	0.087
-384.990	-200.000	-0.053	-0.301
-383.975	67.705	-0.137	-0.140
-382.960	-200.000	-0.006	0.082
-381.946	-200.000	0.253	0.000
-380.931	-179.305	0.148	-0.003
-379.917	-200.000	-0.015	-0.225
-378.902	-109.724	-0.218	0.046
-377.888	-136.295	0.255	-0.030
-376.873	-82.911	-0.387	-0.125
-375.858	-200.000	0.013	-0.133
-374.844	22.504	0.078	-0.064
-373.829	320.608	-0.119	0.225
-372.815	123.017	0.194	0.243
-371.800	279.557	0.110	-0.196
-370.785	73.329	-0.042	0.044
-369.771	19.768	0.188	0.151
-368.756	511.497	0.202	0.471
-367.742	-200.000	-0.049	0.244
-366.727	138.264	0.029	-0.038
-365.712	-152.982	-0.365	-0.026
-364.698	27.977	0.096	0.081
-363.683	610.162	-0.135	0.338
-362.669	353.515	0.121	0.240
-361.654	679.560	-0.063	-0.164
-360.639	-200.000	-0.009	0.068
-359.625	104.711	-0.054	-0.063
-358.610	156.161	0.031	-0.042
-357.596	-176.608	-0.205	-0.005
-356.581	-56.652	-0.200	0.089
-355.566	-200.000	-0.016	0.244
-354.552	-39.290	0.237	-0.124
-353.537	25.832	-0.153	0.128
-352.523	-155.156	0.195	0.013
-351.508	-26.289	-0.069	0.040
-350.493	-105.607	-0.276	-0.062
-349.479	19.845	-0.163	0.131
-348.464	104.329	-0.157	0.184
-347.450	-200.000	-0.008	-0.205
-346.435	190.565	-0.130	-0.195
-345.420	-19.167	0.051	0.032
-344.406	130.213	0.172	-0.220
-343.391	409.437	-0.227	0.481
-342.377	800.000	-0.086	-0.297
-341.362	-163.372	-0.338	0.016
-340.348	-72.962	0.521	-0.191
-339.333	-200.000	0.039	-0.240
-338.318	-118.685	-0.064	0.011
-337.304	-98.328	-0.215	0.055
-336.289	-200.000	0.009	0.356
-335.275	-200.000	0.056	0.254
-334.260	200.263	0.027	0.041
-333.245	303.236	-0.192	-0.355
-332.231	-200.000	-0.024	0.209
-331.216	6.634	0.257	-0.191
-330.202	205.624	0.052	0.081
-329.187	-187.777	0.200	0.003
-328.172	259.230	0.090	0.155
-327.158	-167.034	0.234	-0.010
-326.143	-0.687	0.171	0.121
-325.129	-33.877	-0.195	0.107
-324.114	-123.089	-0.211	-0.034
-323.099	-118.913	-0.249	-0.044
-322.085	299.278	-0.088	0.162
-321.070	800.000	0.087	-0.291
-320.056	-200.000	0.003	0.123
-319.041	204.383	0.166	-0.256
-318.026	61.199	-0.111	0.110
-317.012	380.917	-0.112	-0.228
-315.997	-156.572	0.343	-0.021
-314.983	-200.000	-0.001	-0.042
-313.968	-200.000	0.079	0.363
-312.953	-200.000	-0.033	-0.230
-311.939	192.543	0.199	-0.300
-310.924	-42.408	-0.299	-0.152
-309.910	-112.997	0.331	0.065
-308.895	29.999	0.314	0.267
-307.880	210.748	0.102	0.159
-306.866	-69.859	0.039	0.015
-305.851	-11.783	0.124	-0.081
-304.837	-55.797	0.137	-0.061
-303.822	31.739	0.213	0.182
-302.807	123.189	-0.115	0.144
-301.793	-39.698	-0.220	0.114
-300.778	32.432	-0.131	-0.113
-299.764	332.580	0.030	0.057
-298.749	381.197	0.099	-0.203
-297.735	-169.434	0.369	0.013
-296.720	-122.139	0.080	0.013
-295.705	-45.277	0.211	0.104
-294.691	59.987	-0.151	-0.148
-293.676	-72.608	-0.145	-0.053
-292.662	-200.000	0.003	-0.034
-291.647	-12.780	-0.177	0.115
-290.632	-98.925	-0.154	-0.039
-289.618	202.232	0.069	-0.107
-288.603	-200.000	0.054	0.286
-287.589	132.072	0.182	0.233
-286.574	159.794	0.169	-0.235
-285.559	-109.493	-0.204	0.043
-284.545	-100.647	-0.350	0.086
-283.530	-7.951	0.457	0.307
-282.516	261.062	-0.042	0.073
-281.501	-200.000	-0.064	0.337
-280.486	-31.940	-0.262	0.146
-279.472	-73.180	0.076	-0.028
-278.457	-34.822	0.349	0.190
-277.443	-46.028	-0.130	0.064
-276.428	408.625	-0.152	-0.321
-275.413	-200.000	0.034	-0.457
-274.399	-200.000	-0.009	-0.313
-273.384	-200.000	-0.006	0.128
-272.370	546.375	0.169	0.402
-271.355	-200.000	-0.011	0.428
-270.340	-200.000	0.012	-0.290
-269.326	295.590	0.133	-0.243
-268.311	-200.000	-0.019	0.376
-267.297	60.468	0.072	0.071
-266.282	800.000	0.056	-0.242
-265.267	101.968	0.245	-0.285
-264.253	-46.794	0.132	0.064
-263.238	-200.000	-0.029	0.215
-262.224	-200.000	-0.010	0.063
-261.209	86.770	0.117	-0.128
-260.195	-49.605	0.029	0.014
-259.180	-200.000	-0.087	-0.432
-258.165	89.249	-0.152	-0.168
-257.151	220.955	0.136	0.218
-256.136	273.379	-0.086	-0.151
-255.122	-194.462	-0.072	0.001
-254.107	530.078	-0.067	-0.158
-253.092	800.000	-0.099	0.351
-252.078	-200.000	0.072	0.317
-251.063	114.150	-0.190	-0.230
-250.049	-126.033	0.175	-0.026
-249.034	-79.017	0.281	-0.095
-248.019	-82.399	-0.235	-0.076
-247.005	154.452	-0.212	-0.289
-245.990	-20.520	0.321	-0.196
-244.976	1.657	0.169	-0.121
-243.961	-88.115	0.241	-0.072
-242.946	21.921	0.103	0.083
-241.932	-17.551	-0.137	0.085
-240.917	484.504	-0.112	-0.253
-239.903	800.000	-0.051	-0.169
-238.888	-97.853	0.214	-0.055
-237.873	5.535	-0.288	-0.211
-236.859	-35.362	0.108	0.058
-235.844	273.384	0.098	0.172
-234.830	-191.121	-0.088	-0.001
-233.815	-200.000	-0.011	-0.058
-232.800	524.067	0.096	0.224
-231.786	-144.081	-0.125	-0.012
-230.771	-176.946	0.462	-0.012
-229.757	151.504	-0.129	0.174
-228.742	-61.855	0.203	-0.085
-227.727	800.000	0.022	0.091
-226.713	569.218	0.045	0.108
-225.698	-69.445	0.131	0.050
-224.684	800.000	-0.056	0.195
-223.669	90.479	-0.073	-0.081
-222.655	-127.286	0.089	-0.013
-221.640	105.040	0.087	0.102
-220.625	-93.473	0.312	-0.086
-219.611	266.954	0.115	0.200
-218.596	-3.553	0.142	-0.098
-217.582	148.755	0.081	-0.109
-216.567	358.033	0.137	0.272
-215.552	-34.012	0.103	-0.056
-214.538	-70.685	0.240	-0.090
-213.523	33.783	-0.141	-0.121
-212.509	-32.638	-0.162	0.090
-211.494	108.648	-0.147	-0.174
-210.479	-13.938	-0.022	0.014
-209.465	101.148	-0.078	0.091
-208.450	-72.023	0.247	0.091
-207.436	-27.639	0.181	-0.104
-206.421	-171.448	-0.344	0.011
-205.406	19.680	-0.220	0.175
-204.392	-10.447	-0.194	-0.127
-203.377	800.000	0.040	0.157
-202.363	-140.012	0.237	-0.025
-201.348	119.255	-0.220	0.271
-200.333	-41.997	-0.114	0.058
-199.319	377.620	-0.127	-0.257
-198.304	306.500	-0.185	-0.343
-197.290	-28.840	-0.275	0.157
-196.275	-200.000	-0.047	-0.278
-195.260	-136.477	-0.109	-0.013
-194.246	-36.138	0.234	-0.126
-193.231	-200.000	-0.072	-0.375
-192.217	47.868	0.099	0.092
-191.202	800.000	-0.039	0.161
-190.187	-132.073	0.240	-0.031
-189.173	-90.137	-0.331	-0.096
-188.158	-200.000	0.002	0.330
-187.144	800.000	0.064	0.194
-186.129	403.049	0.108	0.225
-185.114	-122.930	-0.331	-0.053
-184.100	-181.584	-0.114	0.002
-183.085	275.479	0.157	-0.277
-182.071	-13.204	0.294	-0.189
-181.056	2.247	-0.172	0.123
-180.042	186.332	0.085	-0.125
-179.027	-44.865	-0.035	-0.017
-178.012	706.905	-0.145	-0.381
-176.998	-164.714	0.372	-0.017
-175.983	-51.250	-0.208	0.097
-174.969	43.604	0.176	-0.159
-173.954	-200.000	0.012	-0.127
-172.939	11.746	0.135	-0.103
-171.925	133.008	-0.133	0.170
-170.910	-37.883	0.148	-0.078
-169.896	29.082	-0.212	0.178
-168.881	-200.000	-0.017	0.219
-167.866	-92.240	0.038	0.011
-166.852	37.048	-0.223	-0.196
-165.837	-136.511	0.020	0.002
-164.823	591.884	-0.087	-0.214
-163.808	310.977	-0.013	0.023
-162.793	-200.000	-0.065	0.371
-161.779	180.946	0.206	-0.301
-160.764	-14.603	0.100	-0.064
-159.750	-42.457	0.144	-0.073
-158.735	-200.000	0.001	-0.062
-157.720	380.282	-0.121	0.246
-156.706	232.494	0.215	-0.350
-155.691	-36.600	0.336	0.179
-154.677	-106.709	0.234	-0.051
-153.662	154.997	0.032	0.043
-152.647	-200.000	0.050	0.289
-151.633	37.925	-0.119	-0.105
-150.618	332.204	-0.029	0.056
-149.604	106.470	-0.188	0.220
-148.589	36.369	0.229	-0.200
-147.574	20.170	-0.225	-0.180
-146.560	800.000	0.112	0.324
-145.545	28.869	0.043	0.036
-144.531	8.811	-0.098	0.073
-143.516	68.678	0.194	-0.197
-142.502	-46.570	0.197	0.096
-141.487	-180.702	-0.082	-0.002
-140.472	-96.719	0.189	0.049
-139.458	112.804	-0.339	-0.407
-138.443	-96.343	0.444	-0.116
-137.429	-200.000	0.010	-0.118
-136.414	72.598	0.112	-0.116
-135.399	-35.015	0.253	-0.137
-134.385	-63.551	0.254	-0.103
-133.370	800.000	-0.097	0.265
-132.356	-84.958	0.257	-0.080
-131.341	8.007	-0.365	0.271
-130.326	56.933	-0.096	-0.093
-129.312	-43.397	0.081	-0.041
-128.297	-19.397	0.158	0.097
-127.283	-200.000	-0.000	-0.003
-126.268	-200.000	0.021	-0.340
-125.253	273.921	-0.089	0.156
-124.239	-64.249	-0.096	0.039
-123.224	53.418	-0.029	0.028
-122.210	364.759	0.081	0.161
-121.195	-174.882	-0.250	0.007
-120.180	-18.724	-0.403	-0.249
-119.166	-21.754	-0.229	0.138
-118.151	161.835	0.105	0.146
-117.137	-200.000	-0.031	-0.139
-116.122	683.900	0.187	0.483
-115.107	-67.307	0.079	-0.031
-114.093	288.861	-0.039	0.069
-113.078	-70.987	0.262	0.098
-112.064	-143.148	-0.444	0.042
-111.049	-200.000	-0.072	-0.368
-110.034	-10.220	-0.129	-0.085
-109.020	800.000	0.025	-0.094
-108.005	-200.000	-0.018	0.376
-106.991	-114.490	-0.023	0.004
-105.976	-200.000	-0.024	0.184
-104.962	110.251	-0.141	0.167
-103.947	800.000	0.131	-0.439
-102.932	-88.451	-0.529	-0.156
-101.918	-200.000	-0.003	-0.056
-100.903	154.355	0.189	0.256
-99.889	-97.130	-0.251	-0.065
-98.874	-51.094	-0.130	-0.060
-97.859	-102.166	-0.027	-0.006
-96.845	466.939	0.167	0.370
-95.830	299.536	-0.064	0.116
-94.816	201.801	-0.035	-0.054
-93.801	-101.320	0.084	-0.020
-92.786	20.539	0.182	0.145
-91.772	-42.055	-0.125	0.063
-90.757	-10.764	0.166	-0.109
-89.743	800.000	-0.058	0.245
-88.728	-38.657	0.009	0.005
-87.713	-107.273	-0.258	-0.056
-86.699	21.205	-0.043	0.034
-85.684	-200.000	0.021	-0.472
-84.670	643.191	0.032	-0.081
-83.655	253.767	0.054	-0.090
-82.640	-77.920	0.228	0.078
-81.626	-109.740	-0.193	-0.040
-80.611	-3.453	-0.529	-0.364
-79.597	-107.939	0.208	0.045
-78.582	13.652	0.161	0.123
-77.567	-42.939	0.088	0.044
-76.553	384.832	-0.067	-0.136
-75.538	679.236	-0.093	-0.240
-74.524	277.982	-0.136	-0.240
-73.509	-5.980	0.245	0.166
-72.494	-200.000	-0.016	0.152
-71.480	800.000	-0.052	-0.177
-70.465	-84.513	-0.289	-0.090
-69.451	-3.453	0.115	0.079
-68.436	-183.179	-0.086	-0.002
-67.422	-109.775	-0.160	0.033
-66.407	776.029	0.037	0.099
-65.392	-138.381	-0.178	0.019
-64.378	-65.181	0.411	-0.164
-63.363	-200.000	0.007	0.197
-62.349	-44.561	-0.344	0.170
-61.334	-33.538	-1.259	-0.687
-60.319	17.758	0.734	0.577
-59.305	800.000	-0.323	-1.091
-58.290	148.334	0.679	0.905
-57.276	800.000	0.446	1.513
-56.261	-200.000	108.449	590.492
-55.246	439.467	1483.395	3197.134
-54.232	143.987	2673.077	3517.896
-53.217	96.152	2319.651	2616.725
-52.203	35.762	2069.717	1795.356
-51.188	31.285	1986.687	1683.036
-50.173	29.868	1969.780	1655.976
-49.159	45.623	2026.777	1847.459
-48.144	46.001	2043.990	1866.515
-47.130	31.884	2001.597	1700.831
-46.115	29.628	1990.986	1671.364
-45.100	29.432	1988.616	1667.536
-44.086	29.424	1986.203	1665.378
-43.071	29.433	1983.510	1663.136
-42.057	29.422	1981.048	1660.899
-41.042	29.341	1980.107	1659.317
-40.027	29.327	1977.944	1657.314
-39.013	29.520	1975.458	1656.899
-37.998	29.475	1973.707	1654.963
-36.984	29.419	1972.270	1653.185
-35.969	29.519	1969.827	1651.974
-34.954	29.577	1968.373	1651.203
-33.940	29.544	1966.994	1649.683
-32.925	29.605	1965.080	1648.556
-31.911	29.595	1963.108	1646.752
-30.896	29.565	1961.698	1645.235
-29.881	29.548	1960.339	1643.881
-28.867	29.596	1958.808	1642.957
-27.852	29.648	1956.793	1641.667
-26.838	29.643	1954.860	1639.931
-25.823	29.601	1953.101	1638.016
-24.809	29.616	1951.405	1636.663
-23.794	29.602	1950.129	1635.403
-22.779	29.606	1948.023	1633.610
-21.765	29.508	1947.183	1631.973
-20.750	29.493	1945.006	1629.951
-19.736	29.531	1943.379	1628.859
-18.721	29.560	1941.797	1627.723
-17.706	29.636	1939.989	1626.817
-16.692	29.540	1938.022	1624.253
-15.677	29.556	1936.579	1623.124
-14.663	29.608	1934.800	1622.023
-13.648	29.666	1933.673	1621.524
-12.633	29.561	1932.995	1619.969
-11.619	29.569	1931.520	1618.741
-10.604	29.617	1930.100	1617.909
-9.590	29.540	1929.185	1616.402
-8.575	29.572	1927.521	1615.221
-7.560	29.547	1926.089	1613.737
-6.546	29.580	1924.533	1612.659
-5.531	29.592	1923.907	1612.178
-4.517	29.626	1922.446	1611.182
-3.502	29.595	1921.146	1609.762
-2.487	29.532	1920.232	1608.382
-1.473	29.635	1918.915	1608.116
-0.458	29.669	1914.049	1604.266
0.556	27.620	1894.394	1576.171
1.571	23.590	1875.726	1525.923
2.586	19.704	1898.620	1510.525
3.600	18.743	1934.817	1530.622
4.615	18.673	1929.042	1525.297
5.629	14.518	1828.290	1410.434
6.644	5.704	1708.505	1247.980
7.659	0.597	1670.897	1180.550
8.673	0.179	1667.502	1174.780
9.688	0.172	1666.102	1173.638
10.702	0.086	1664.344	1171.624
11.717	0.014	1660.941	1168.568
12.731	0.566	1661.049	1172.827
13.746	7.014	1674.698	1232.735
14.761	15.179	1691.259	1308.845
15.775	17.711	1693.624	1330.341
16.790	17.046	1691.094	1323.054
17.804	15.953	1687.729	1311.801
18.819	14.934	1684.414	1301.184
19.834	14.419	1681.502	1294.819
20.848	14.171	1680.367	1291.901
21.863	13.815	1678.666	1287.717
22.877	13.636	1677.300	1285.173
23.892	13.357	1675.857	1281.791
24.907	13.249	1674.620	1279.895
25.921	13.304	1673.501	1279.351
26.936	13.228	1672.532	1277.911
27.950	13.224	1672.014	1277.366
28.965	13.339	1671.424	1277.695
29.980	13.428	1670.753	1277.751
30.994	13.418	1669.908	1276.918
32.009	13.491	1669.212	1276.835
33.023	13.483	1667.921	1275.674
34.038	13.556	1667.057	1275.461
35.053	13.566	1665.864	1274.518
36.067	13.456	1664.727	1272.688
37.082	13.392	1663.403	1271.066
38.096	13.380	1662.841	1270.431
39.111	13.492	1662.135	1270.646
40.126	13.497	1661.123	1269.792
41.140	13.511	1660.491	1269.308
42.155	13.413	1658.639	1267.025
43.169	13.325	1657.592	1265.445
44.184	13.283	1656.331	1264.050
45.199	13.222	1655.173	1262.589
46.213	13.215	1654.541	1261.936
47.228	13.240	1652.994	1260.835
48.242	13.242	1652.002	1259.986
49.257	13.317	1650.729	1259.477
50.271	13.374	1649.166	1258.604
51.286	13.299	1647.959	1256.999
52.301	13.354	1646.271	1256.019
53.315	13.440	1644.599	1255.284
54.330	13.344	1643.645	1253.720
55.344	13.314	1642.041	1252.153
56.359	13.308	1640.440	1250.780
57.374	13.231	1639.530	1249.390
58.388	13.302	1638.363	1248.933
59.403	13.250	1637.042	1247.420
60.417	13.159	1635.986	1245.816
61.432	13.220	1634.422	1244.976
62.447	13.206	1632.751	1243.489
63.461	13.113	1632.350	1242.375
64.476	13.104	1630.961	1241.136
65.490	13.240	1629.540	1240.966
66.505	13.135	1628.655	1239.394
67.520	13.234	1627.586	1239.216
68.534	13.146	1626.979	1237.985
69.549	13.196	1625.849	1237.393
70.563	13.205	1624.511	1236.329
71.578	13.277	1622.612	1235.314
72.593	13.138	1622.226	1233.869
73.607	13.140	1621.087	1232.909
74.622	13.017	1619.750	1230.870
75.636	13.096	1618.837	1230.655
76.651	13.062	1618.001	1229.657
77.666	13.130	1617.024	1229.313
78.680	13.101	1616.210	1228.370
79.695	13.127	1615.293	1227.754
80.709	13.079	1614.256	1226.504
81.724	13.141	1613.636	1226.385
82.739	13.173	1612.615	1225.736
83.753	13.248	1611.135	1225.058
84.768	13.211	1610.446	1224.151
85.782	13.355	1610.017	1224.782
86.797	13.404	1608.970	1224.242
87.812	13.355	1607.988	1223.026
88.826	13.338	1606.833	1221.913
89.841	13.410	1604.717	1220.723
90.855	13.223	1604.388	1218.986
91.870	13.376	1603.263	1219.150
92.884	13.412	1601.991	1218.339
93.899	13.456	1601.126	1217.903
94.914	13.452	1599.616	1216.616
95.928	13.427	1598.565	1215.525
96.943	13.382	1597.464	1214.248
97.957	13.466	1595.884	1213.554
98.972	13.418	1594.157	1211.783
99.987	13.456	1592.873	1210.980
101.001	13.416	1591.548	1209.574
102.016	13.439	1589.567	1208.130
103.030	13.350	1588.605	1206.641
104.045	13.362	1587.980	1206.147
105.060	13.417	1585.973	1204.918
106.074	13.323	1584.709	1203.164
107.089	13.348	1583.313	1202.183
108.103	13.183	1581.527	1199.517
109.118	13.226	1580.347	1198.832
110.133	13.205	1579.023	1197.568
111.147	13.216	1578.021	1196.785
112.162	13.170	1576.684	1195.330
113.176	13.246	1575.203	1194.649
114.191	13.263	1574.183	1193.896
115.206	13.375	1572.904	1193.628
116.220	13.291	1571.705	1192.008
117.235	13.338	1569.883	1190.859
118.249	13.267	1568.824	1189.439
119.264	13.280	1568.018	1188.813
120.279	13.261	1566.709	1187.583
121.293	13.260	1564.723	1185.962
122.308	13.277	1563.018	1184.684
123.322	13.337	1561.843	1184.122
124.337	13.231	1560.169	1181.988
125.352	13.259	1558.882	1181.108
126.366	13.140	1558.482	1179.853
127.381	13.225	1557.296	1179.459
128.395	13.224	1555.948	1178.324
129.410	13.248	1554.561	1177.343
130.424	13.296	1552.831	1176.266
131.439	13.184	1552.039	1174.769
132.454	13.308	1550.827	1174.627
133.468	13.332	1549.078	1173.369
134.483	13.340	1547.454	1172.090
135.497	13.304	1546.555	1171.052
136.512	13.384	1545.166	1170.463
137.527	13.334	1543.798	1168.967
138.541	13.442	1542.227	1168.435
139.556	13.340	1541.204	1166.844
140.570	13.475	1539.563	1166.444
141.585	13.340	1538.696	1164.738
142.600	13.418	1537.289	1164.119
143.614	13.544	1536.132	1164.025
144.629	13.522	1534.947	1162.869
145.643	13.577	1533.516	1162.063
146.658	13.574	1532.121	1160.887
147.673	13.526	1530.279	1159.051
148.687	13.493	1529.061	1157.798
149.702	13.553	1527.651	1157.047
150.716	13.413	1526.002	1154.718
151.731	13.481	1524.476	1153.935
152.746	13.421	1523.554	1152.718
153.760	13.431	1521.701	1151.282
154.775	13.455	1520.580	1150.499
155.789	13.487	1519.745	1149.985
156.804	13.587	1518.400	1149.559
157.819	13.671	1516.745	1148.791
158.833	13.644	1515.806	1147.787
159.848	13.668	1514.385	1146.773
160.862	13.770	1513.174	1146.466
161.877	13.609	1512.595	1144.813
162.892	13.646	1511.538	1144.166
163.906	13.650	1510.125	1143.023
164.921	13.552	1509.096	1141.468
165.935	13.578	1507.638	1140.440
166.950	13.595	1506.963	1139.948
167.964	13.624	1505.562	1138.986
168.979	13.661	1504.461	1138.303
169.994	13.640	1503.596	1137.405
171.008	13.686	1502.204	1136.570
172.023	13.612	1501.160	1135.170
173.037	13.726	1499.772	1134.800
174.052	13.705	1499.087	1134.039
175.067	13.743	1497.869	1133.274
176.081	13.740	1496.725	1132.290
177.096	13.658	1495.444	1130.660
178.110	13.660	1493.980	1129.471
179.125	13.678	1492.641	1128.482
180.140	13.683	1491.955	1127.894
181.154	13.693	1491.032	1127.165
182.169	13.752	1489.933	1126.636
183.183	13.769	1488.572	1125.623
184.198	13.825	1487.121	1124.803
185.213	13.867	1486.568	1124.570
186.227	13.824	1485.459	1123.339
187.242	13.908	1484.464	1123.056
188.256	13.973	1483.163	1122.413
189.271	13.885	1482.156	1120.960
190.286	13.959	1481.358	1120.756
191.300	13.980	1479.940	1119.721
192.315	13.751	1478.703	1117.146
193.329	13.792	1477.565	1116.467
194.344	13.771	1475.890	1114.956
195.359	13.757	1475.283	1114.311
196.373	13.861	1474.354	1114.208
197.388	13.889	1473.235	1113.449
198.402	13.893	1472.225	1112.613
199.417	13.989	1470.832	1112.103
200.432	14.086	1469.884	1111.942
201.446	14.110	1469.318	1111.570
202.461	14.182	1467.917	1110.892
203.475	14.170	1467.330	1110.273
204.490	14.134	1465.823	1108.795
205.504	14.206	1464.748	1108.364
206.519	14.072	1464.108	1106.885
207.534	14.090	1462.764	1105.892
208.548	14.065	1461.387	1104.589
209.563	14.174	1460.355	1104.433
210.577	14.161	1459.670	1103.731
211.592	14.205	1458.067	1102.717
212.607	14.210	1457.630	1102.317
213.621	14.247	1457.030	1102.010
214.636	14.270	1456.053	1101.330
215.650	14.234	1455.236	1100.377
216.665	14.318	1453.913	1099.836
217.680	14.230	1453.308	1098.699
218.694	14.310	1452.243	1098.323
219.709	14.401	1451.795	1098.488
220.723	14.404	1450.200	1097.200
221.738	14.402	1449.646	1096.669
222.753	14.385	1448.827	1095.842
223.767	14.357	1448.405	1095.241
224.782	14.376	1447.173	1094.336
225.796	14.472	1446.296	1094.209
226.811	14.450	1445.434	1093.315
227.826	14.444	1444.699	1092.627
228.840	14.439	1444.067	1092.017
229.855	14.418	1443.262	1091.172
230.869	14.395	1441.765	1089.794
231.884	14.400	1441.037	1089.184
232.899	14.440	1439.577	1088.245
233.913	14.543	1438.096	1087.699
234.928	14.470	1437.345	1086.559
235.942	14.378	1435.767	1084.668
236.957	14.410	1434.800	1084.053
237.972	14.436	1433.779	1083.352
238.986	14.425	1432.902	1082.527
240.001	14.390	1432.005	1081.526
241.015	14.439	1430.787	1080.822
242.030	14.462	1429.789	1080.125
243.045	14.465	1428.576	1079.134
244.059	14.569	1427.555	1078.940
245.074	14.564	1426.983	1078.379
246.088	14.658	1425.928	1078.093
247.103	14.646	1425.772	1077.800
248.117	14.576	1424.959	1076.640
249.132	14.694	1424.141	1076.689
250.147	14.747	1423.454	1076.411
251.161	14.788	1422.591	1075.931
252.176	14.932	1421.649	1076.048
253.190	14.878	1421.224	1075.288
254.205	14.906	1420.152	1074.561
255.220	15.019	1419.139	1074.424
256.234	15.011	1418.312	1073.652
257.249	14.983	1417.645	1072.873
258.263	15.010	1416.890	1072.380
259.278	14.985	1416.189	1071.595
260.293	14.969	1414.903	1070.422
261.307	15.041	1413.972	1070.081
262.322	15.022	1413.741	1069.695
263.336	15.178	1412.668	1069.785
264.351	15.120	1411.499	1068.430
265.366	15.167	1410.501	1067.882
266.380	15.185	1409.437	1067.095
267.395	15.235	1408.439	1066.565
268.409	15.154	1408.200	1065.773
269.424	15.192	1406.737	1064.815
270.439	15.161	1406.042	1063.999
271.453	15.110	1405.043	1062.824
272.468	15.036	1404.434	1061.796
273.482	15.190	1403.373	1061.875
274.497	15.198	1402.251	1060.988
275.512	15.216	1401.413	1060.371
276.526	15.207	1400.732	1059.705
277.541	15.161	1399.461	1058.362
278.555	15.263	1398.852	1058.448
279.570	15.176	1398.291	1057.383
280.585	15.260	1396.704	1056.617
281.599	15.247	1396.589	1056.356
282.614	15.304	1395.288	1055.639
283.628	15.338	1394.301	1055.013
284.643	15.290	1393.408	1053.941
285.657	15.314	1392.246	1053.116
286.672	15.333	1391.184	1052.339
287.687	15.341	1390.247	1051.587
288.701	15.288	1389.328	1050.473
289.716	15.398	1388.472	1050.421
290.730	15.419	1387.721	1049.891
291.745	15.486	1386.616	1049.379
292.760	15.370	1385.711	1047.879
293.774	15.425	1384.576	1047.269
294.789	15.453	1383.580	1046.599
295.803	15.458	1383.177	1046.232
296.818	15.579	1382.089	1046.067
297.833	15.465	1381.268	1044.644
298.847	15.458	1379.973	1043.530
299.862	15.444	1378.971	1042.594
300.876	15.494	1378.399	1042.379
301.891	15.558	1377.078	1041.682
302.906	15.430	1376.812	1040.595
303.920	15.639	1375.832	1041.057
304.935	15.603	1375.345	1040.378
305.949	15.622	1374.750	1039.953
306.964	15.783	1373.709	1040.069
307.979	15.805	1372.888	1039.490
308.993	15.788	1371.750	1038.429
310.008	15.682	1370.830	1036.990
311.022	15.705	1370.010	1036.418
312.037	15.746	1368.923	1035.758
313.052	15.742	1368.094	1035.013
314.066	15.797	1366.585	1034.119
315.081	15.762	1365.879	1033.277
316.095	15.665	1364.824	1031.796
317.110	15.712	1363.628	1031.084
318.125	15.718	1362.905	1030.482
319.139	15.756	1362.008	1029.950
320.154	15.761	1360.925	1029.067
321.168	15.753	1359.865	1028.125
322.183	15.748	1359.127	1027.450
323.197	15.826	1358.136	1027.081
324.212	15.855	1357.017	1026.323
325.227	15.813	1356.938	1025.919
326.241	15.887	1355.430	1025.138
327.256	15.821	1354.480	1023.925
328.270	15.849	1353.933	1023.591
329.285	15.806	1352.541	1022.186
330.300	15.931	1351.686	1022.212
331.314	15.895	1351.069	1021.432
332.329	15.911	1350.498	1021.010
333.343	15.856	1349.341	1019.713
334.358	15.905	1348.291	1019.125
335.373	15.925	1347.472	1018.538
336.387	16.033	1346.567	1018.415
337.402	16.020	1346.339	1018.070
338.416	16.034	1345.770	1017.639
339.431	16.043	1345.026	1017.038
340.446	16.068	1344.017	1016.338
341.460	16.126	1343.084	1015.890
342.475	16.177	1342.073	1015.342
343.489	16.294	1341.358	1015.416
344.504	16.287	1340.333	1014.511
345.519	16.204	1339.260	1013.108
346.533	16.257	1338.477	1012.745
347.548	16.202	1337.707	1011.744
348.562	16.273	1337.009	1011.553
349.577	16.384	1335.671	1011.110
350.592	16.355	1335.094	1010.411
351.606	16.246	1334.519	1009.234
352.621	16.228	1333.186	1008.031
353.635	16.232	1332.231	1007.244
354.650	16.276	1331.119	1006.579
355.665	16.210	1330.526	1005.649
356.679	16.294	1329.327	1005.152
357.694	16.305	1327.879	1004.030
358.708	16.428	1327.093	1004.078
359.723	16.397	1325.692	1002.747
360.738	16.448	1324.835	1002.312
361.752	16.400	1324.384	1001.600
362.767	16.435	1323.060	1000.717
363.781	16.466	1322.161	1000.130
364.796	16.433	1321.417	999.284
365.810	16.442	1321.076	998.988
366.825	16.450	1320.166	998.263
367.840	16.589	1319.007	998.120
368.854	16.531	1319.037	997.711
369.869	16.589	1318.155	997.299
370.883	16.690	1317.307	997.158
371.898	16.669	1316.430	996.286
372.913	16.570	1315.881	995.201
373.927	16.629	1315.013	994.802
374.942	16.544	1314.051	993.488
375.956	16.738	1313.296	993.967
376.971	16.672	1312.577	992.948
377.986	16.681	1311.777	992.309
379.000	16.644	1311.294	991.636
380.015	16.732	1310.191	991.229
381.029	16.739	1309.022	990.301
382.044	16.807	1308.521	990.232
383.059	16.787	1307.877	989.541
384.073	16.820	1307.142	989.088
385.088	16.828	1306.937	988.889
386.102	16.789	1306.359	988.136
387.117	16.945	1305.133	988.036
388.132	16.894	1304.312	987.029
389.146	16.932	1303.120	986.257
390.161	16.868	1302.337	985.204
391.175	16.896	1301.715	984.811
392.190	16.789	1301.059	983.609
393.205	16.957	1300.096	983.770
394.219	16.970	1299.285	983.141
395.234	17.012	1297.766	982.146
396.248	16.942	1296.688	980.842
397.263	16.970	1295.308	979.870
398.278	16.938	1294.266	978.812
399.292	16.973	1292.851	977.857
400.307	16.945	1292.060	977.010
401.321	16.920	1291.237	976.157
402.336	16.927	1290.391	975.473
403.350	16.840	1289.170	973.961
404.365	16.925	1288.360	973.753
405.380	16.886	1287.730	972.969
406.394	16.961	1286.364	972.279
407.409	16.990	1286.041	972.113
408.423	17.024	1285.617	971.901
409.438	17.103	1284.843	971.684
410.453	17.220	1282.928	970.821
411.467	17.279	1283.114	971.212
412.482	17.346	1282.651	971.155
413.496	17.321	1282.050	970.471
414.511	17.406	1280.801	969.928
415.526	17.402	1279.959	969.177
416.540	17.394	1279.455	968.668
417.555	17.435	1278.866	968.369
418.569	17.408	1278.592	967.923
419.584	17.401	1278.203	967.503
420.599	17.341	1277.649	966.658
421.613	95.420	1353.137	1470.021
422.628	93.274	1364.070	1470.126
