DTS Sentinel unit serial number:	SN413079Multiplexer serial number:	ORYXHardware model number:	OX4-SRSoftware version number:	ORYX F/W v4.00 Oryx Data Collector v3.7.2.0data status	okinstallation	princeton_trtdifferential loss correction	single-endedforward channel	channel 4reverse channel	N/Adate	2019/09/14time	02:29:34forward acquisition time	60.00reverse acquisition time	0.00gamma	496.2192k internal	0.2322k external	0.2322temperature offset calibration	1.0131default loss term (dB/km)	0.3790temperature slope calibration	1.0000multiplexer offset coefficient	1.0000multiplexer slope coefficient	1.0000fibre end	0.00T internal ref (°C)	26.52T ext. ref 1 (°C)	3.22T ext. ref 2 (°C)	21.49length (m)	temperature (°C)	Stokes	anti-Stokes-747.200	218.531	-0.126	-0.203
-746.185	2.224	-0.051	0.037
-745.171	-129.466	0.543	0.076
-744.156	-200.000	-0.015	0.285
-743.142	227.983	-0.041	0.068
-742.127	-200.000	-0.044	0.267
-741.112	230.999	0.026	0.043
-740.098	243.386	0.067	0.113
-739.083	-66.111	0.042	0.017
-738.069	-175.674	-0.113	-0.003
-737.054	-52.414	0.037	-0.017
-736.039	212.369	-0.201	-0.320
-735.025	46.260	-0.052	-0.049
-734.010	-22.699	0.121	0.074
-732.996	-200.000	0.000	0.178
-731.981	198.412	-0.137	-0.212
-730.966	287.370	0.180	-0.329
-729.952	800.000	-0.085	0.347
-728.937	106.668	-0.121	-0.145
-727.923	570.551	-0.044	0.108
-726.908	195.018	-0.323	0.494
-725.894	800.000	0.003	-0.013
-724.879	383.648	-0.091	0.189
-723.864	800.000	-0.083	0.262
-722.850	331.381	-0.022	-0.042
-721.835	800.000	-0.111	-0.368
-720.821	57.950	0.295	-0.292
-719.806	793.892	-0.164	0.456
-718.791	800.000	-0.033	-0.136
-717.777	-101.575	-0.377	0.092
-716.762	-200.000	0.013	-0.087
-715.748	-200.000	0.026	-0.143
-714.733	800.000	0.094	0.326
-713.718	-200.000	-0.033	-0.155
-712.704	11.738	-0.159	-0.123
-711.689	-23.201	0.184	0.112
-710.675	411.350	-0.089	0.191
-709.660	-1.535	0.111	0.079
-708.645	-200.000	0.005	-0.100
-707.631	-44.839	0.439	-0.221
-706.616	-104.756	-0.337	0.078
-705.602	-143.539	-0.138	0.013
-704.587	-29.334	-0.351	0.203
-703.572	20.913	0.123	-0.101
-702.558	-148.418	0.095	-0.008
-701.543	-75.137	0.156	-0.056
-700.529	104.244	0.200	-0.237
-699.514	-28.407	0.154	-0.090
-698.499	-197.730	0.199	0.001
-697.485	259.225	0.128	0.223
-696.470	800.000	0.105	-0.395
-695.456	-67.442	0.121	-0.048
-694.441	68.475	-0.148	-0.152
-693.426	92.303	-0.185	-0.210
-692.412	9.481	0.067	0.051
-691.397	2.282	0.216	-0.158
-690.383	66.638	0.158	-0.162
-689.368	-94.968	0.101	-0.028
-688.354	6.462	-0.116	0.087
-687.339	101.252	-0.215	-0.253
-686.324	-62.731	-0.124	-0.052
-685.310	76.165	-0.132	0.141
-684.295	9.107	-0.043	-0.033
-683.281	111.363	-0.044	-0.053
-682.266	293.331	-0.145	0.266
-681.251	-7.272	0.321	0.219
-680.237	-200.000	0.009	0.097
-679.222	424.629	0.222	-0.480
-678.208	-200.000	-0.014	0.155
-677.193	800.000	-0.052	-0.176
-676.178	-200.000	-0.035	0.451
-675.164	315.402	0.184	0.349
-674.149	53.029	0.299	0.288
-673.135	33.364	0.176	0.154
-672.120	-19.500	-0.286	-0.179
-671.105	-200.000	0.107	0.563
-670.091	625.556	0.055	-0.139
-669.076	333.251	-0.102	-0.199
-668.062	-31.238	0.320	0.181
-667.047	127.205	-0.109	0.140
-666.032	-1.679	0.221	0.156
-665.018	-200.000	-0.015	0.108
-664.003	52.760	-0.091	0.088
-662.989	98.727	0.314	0.365
-661.974	800.000	-0.067	-0.261
-660.959	800.000	0.088	0.254
-659.945	-153.495	0.183	0.013
-658.930	-115.200	-0.354	-0.067
-657.916	325.678	-0.068	-0.131
-656.901	14.273	0.168	-0.132
-655.886	800.000	0.109	0.366
-654.872	-83.548	-0.183	0.059
-653.857	-145.268	0.234	-0.021
-652.843	624.908	-0.033	0.085
-651.828	800.000	0.033	0.109
-650.814	123.819	0.134	-0.169
-649.799	471.291	-0.123	0.278
-648.784	61.240	0.079	0.079
-647.770	-60.924	-0.119	0.051
-646.755	155.868	-0.085	0.118
-645.741	-200.000	-0.001	-0.048
-644.726	31.106	0.056	0.049
-643.711	364.999	-0.136	0.275
-642.697	-57.291	-0.253	0.112
-641.682	-73.558	-0.272	-0.100
-640.668	95.996	-0.166	0.191
-639.653	-18.480	0.224	-0.141
-638.638	482.572	0.128	-0.293
-637.624	800.000	0.045	-0.129
-636.609	-68.057	-0.136	0.053
-635.595	800.000	-0.028	0.118
-634.580	-162.821	0.304	-0.015
-633.565	-200.000	-0.066	-0.341
-632.551	-200.000	0.008	-0.196
-631.536	142.673	0.072	0.096
-630.522	-53.687	0.175	0.080
-629.507	394.454	-0.087	-0.183
-628.492	800.000	-0.120	-0.476
-627.478	16.804	0.228	0.182
-626.463	-200.000	0.011	-0.061
-625.449	8.764	0.061	0.047
-624.434	-99.920	-0.393	0.099
-623.419	-28.583	0.049	0.029
-622.405	55.252	0.253	-0.246
-621.390	-108.315	0.186	-0.040
-620.376	420.471	-0.091	-0.196
-619.361	-21.374	0.222	-0.136
-618.346	-20.225	-0.053	0.033
-617.332	-123.140	-0.237	-0.038
-616.317	19.494	-0.269	-0.218
-615.303	-73.433	-0.178	0.065
-614.288	-57.672	-0.249	-0.110
-613.273	10.715	-0.122	-0.094
-612.259	29.325	0.113	0.096
-611.244	-52.334	-0.192	-0.089
-610.230	-51.327	0.431	-0.203
-609.215	-68.959	-0.090	-0.035
-608.201	110.220	0.134	-0.161
-607.186	-200.000	0.008	-0.280
-606.171	20.930	-0.208	-0.169
-605.157	-200.000	-0.009	0.039
-604.142	59.290	0.260	-0.257
-603.128	-124.592	-0.281	0.044
-602.113	-200.000	-0.006	0.083
-601.098	-56.418	-0.320	-0.143
-600.084	54.780	-0.096	-0.093
-599.069	-165.786	-0.179	0.008
-598.055	-200.000	0.030	0.134
-597.040	-136.332	-0.460	0.054
-596.025	-24.327	0.023	0.014
-595.011	800.000	-0.043	-0.143
-593.996	103.003	-0.050	0.059
-592.982	3.097	-0.087	-0.064
-591.967	-23.355	0.276	-0.166
-590.952	-155.052	-0.275	0.018
-589.938	-200.000	0.001	0.190
-588.923	800.000	0.044	0.136
-587.909	488.914	-0.152	-0.349
-586.894	181.777	0.179	0.265
-585.879	-114.309	-0.285	-0.055
-584.865	366.327	0.148	-0.299
-583.850	28.987	0.112	-0.095
-582.836	-104.659	0.313	-0.072
-581.821	-200.000	-0.028	-0.201
-580.806	-69.801	0.270	-0.103
-579.792	-200.000	0.037	-0.368
-578.777	111.169	-0.236	0.285
-577.763	800.000	-0.085	0.341
-576.748	661.046	0.039	0.101
-575.733	152.635	0.248	-0.340
-574.719	-123.484	-0.084	-0.013
-573.704	-84.493	0.081	-0.026
-572.690	-24.525	0.226	-0.135
-571.675	-200.000	0.020	0.242
-570.661	-64.519	-0.309	-0.126
-569.646	248.856	-0.155	-0.264
-568.631	-16.225	0.176	-0.112
-567.617	120.291	0.250	0.311
-566.602	74.842	-0.253	0.268
-565.588	-62.039	0.208	-0.087
-564.573	9.571	0.113	-0.086
-563.558	800.000	0.049	-0.138
-562.544	-89.617	0.311	0.091
-561.529	-200.000	0.030	0.276
-560.515	-87.560	-0.244	-0.074
-559.500	-155.786	-0.206	0.013
-558.485	273.553	0.091	-0.162
-557.471	521.890	-0.086	-0.202
-556.456	800.000	-0.030	0.099
-555.442	14.083	-0.271	0.211
-554.427	-68.889	0.306	0.119
-553.412	-200.000	-0.006	0.105
-552.398	13.130	-0.205	-0.159
-551.383	-125.129	0.207	0.032
-550.369	11.596	-0.133	-0.102
-549.354	-143.608	0.157	-0.015
-548.339	800.000	-0.053	-0.227
-547.325	-132.903	-0.115	-0.015
-546.310	55.833	0.134	0.130
-545.296	-90.865	-0.194	-0.056
-544.281	-24.802	0.189	0.112
-543.266	-68.082	0.047	-0.018
-542.252	-3.334	-0.171	-0.119
-541.237	-75.454	-0.130	-0.046
-540.223	37.393	0.222	0.197
-539.208	-47.821	-0.189	-0.092
-538.193	-200.000	0.015	0.132
-537.179	-143.507	-0.290	0.028
-536.164	-62.417	0.170	0.071
-535.150	382.248	0.160	0.329
-534.135	148.857	0.111	-0.150
-533.121	207.087	-0.096	0.150
-532.106	143.311	0.054	0.072
-531.091	-87.893	0.293	0.088
-530.077	-46.973	0.112	0.055
-529.062	-200.000	0.042	0.223
-528.048	-200.000	0.002	-0.225
-527.033	-70.075	0.366	0.140
-526.018	-62.905	-0.262	-0.108
-525.004	-186.525	0.179	0.003
-523.989	184.455	-0.165	0.245
-522.975	-159.173	-0.090	0.005
-521.960	2.969	-0.165	0.120
-520.945	-53.669	0.111	0.051
-519.931	169.189	0.114	0.163
-518.916	19.655	-0.168	0.136
-517.902	326.956	-0.124	-0.238
-516.887	-200.000	0.016	0.192
-515.872	-39.283	-0.108	-0.057
-514.858	-150.367	0.195	0.015
-513.843	-145.930	-0.246	0.022
-512.829	38.063	0.118	-0.106
-511.814	-200.000	-0.008	0.111
-510.799	64.921	0.096	0.097
-509.785	300.127	-0.120	-0.221
-508.770	19.070	-0.379	-0.304
-507.756	-200.000	0.007	0.233
-506.741	167.504	0.075	-0.106
-505.726	430.356	-0.048	0.104
-504.712	-149.625	-0.323	0.026
-503.697	760.845	-0.050	0.136
-502.683	800.000	-0.034	0.140
-501.668	95.169	0.112	0.128
-500.653	-142.330	-0.130	-0.013
-499.639	-200.000	-0.002	0.192
-498.624	-98.313	0.167	0.043
-497.610	612.495	-0.115	0.287
-496.595	-48.308	0.293	-0.141
-495.581	408.739	0.174	-0.368
-494.566	-33.080	-0.334	0.185
-493.551	-192.981	-0.045	-0.000
-492.537	-102.481	-0.336	-0.080
-491.522	800.000	-0.027	-0.087
-490.508	-150.184	0.222	-0.017
-489.493	3.662	-0.113	-0.083
-488.478	54.563	-0.150	0.145
-487.464	-109.452	-0.220	0.047
-486.449	-200.000	-0.036	0.170
-485.435	136.086	-0.122	0.159
-484.420	-171.341	-0.563	0.019
-483.405	-200.000	-0.063	0.531
-482.391	200.939	0.168	-0.259
-481.376	192.623	0.204	-0.307
-480.362	391.003	-0.040	-0.084
-479.347	-0.769	-0.163	0.116
-478.332	-84.886	-0.048	0.015
-477.318	547.350	-0.064	0.153
-476.303	-118.811	-0.171	0.030
-475.289	-89.059	0.371	0.110
-474.274	-73.299	0.133	-0.049
-473.259	-11.545	0.086	0.056
-472.245	107.292	0.017	0.020
-471.230	114.342	0.071	0.086
-470.216	-168.737	-0.099	0.004
-469.201	75.262	0.274	0.288
-468.186	265.603	-0.074	0.129
-467.172	87.496	-0.035	0.039
-466.157	11.890	-0.219	-0.168
-465.143	-116.883	0.249	-0.046
-464.128	28.485	0.104	0.088
-463.113	800.000	-0.137	0.378
-462.099	-75.969	-0.110	-0.039
-461.084	-59.406	0.176	0.075
-460.070	-76.995	0.155	0.054
-459.055	237.158	0.085	0.141
-458.040	341.454	-0.115	0.224
-457.026	-4.643	0.099	-0.068
-456.011	-200.000	-0.013	0.070
-454.997	-57.915	-0.244	0.107
-453.982	-118.428	0.521	0.092
-452.968	346.966	0.007	-0.014
-451.953	234.057	-0.063	0.104
-450.938	-106.108	0.326	0.073
-449.924	-47.664	-0.287	-0.139
-448.909	98.245	0.274	-0.315
-447.895	-31.494	0.213	-0.120
-446.880	-200.000	0.050	-0.237
-445.865	74.339	0.081	0.085
-444.851	800.000	-0.063	0.217
-443.836	800.000	-0.044	0.166
-442.822	-200.000	-0.001	0.007
-441.807	417.627	-0.040	0.086
-440.792	-57.352	-0.161	-0.071
-439.778	-97.860	-0.344	0.089
-438.763	-126.697	0.209	-0.031
-437.749	800.000	-0.040	-0.119
-436.734	117.163	0.144	-0.177
-435.719	94.995	-0.040	-0.046
-434.705	-171.230	-0.374	-0.013
-433.690	132.825	0.248	-0.320
-432.676	11.038	-0.093	-0.071
-431.661	156.459	0.116	0.160
-430.646	196.056	-0.091	-0.138
-429.632	-84.227	0.178	0.056
-428.617	-200.000	0.009	-0.328
-427.603	-104.822	0.290	0.067
-426.588	800.000	-0.102	0.361
-425.573	-126.758	-0.303	0.045
-424.559	80.575	-0.145	-0.156
-423.544	-200.000	0.036	0.173
-422.530	49.303	0.152	0.142
-421.515	226.939	0.067	-0.109
-420.500	-139.807	0.089	-0.009
-419.486	-84.704	0.248	-0.078
-418.471	17.389	-0.056	0.044
-417.457	-200.000	-0.008	0.142
-416.442	-200.000	0.056	-0.299
-415.428	800.000	0.025	0.076
-414.413	344.627	-0.017	-0.033
-413.398	-103.256	-0.369	0.087
-412.384	-200.000	-0.034	-0.165
-411.369	-113.635	0.137	-0.027
-410.355	292.749	-0.210	0.382
-409.340	351.684	0.080	-0.158
-408.325	290.010	-0.087	-0.158
-407.311	77.147	-0.068	-0.072
-406.296	105.643	0.112	0.132
-405.282	-41.243	-0.210	0.108
-404.267	800.000	0.034	-0.108
-403.252	-141.944	0.274	-0.027
-402.238	-200.000	0.053	-0.364
-401.223	-200.000	-0.003	-0.279
-400.209	-200.000	-0.055	0.302
-399.194	-200.000	0.056	0.412
-398.179	800.000	-0.058	-0.232
-397.165	800.000	0.077	0.259
-396.150	-191.402	0.143	-0.001
-395.136	-68.049	-0.188	0.073
-394.121	-30.289	-0.262	-0.148
-393.106	30.760	-0.236	0.202
-392.092	-18.497	0.271	-0.169
-391.077	36.168	-0.291	0.256
-390.063	70.091	0.390	0.401
-389.048	87.599	-0.208	0.229
-388.033	-147.180	-0.089	0.008
-387.019	26.608	0.116	0.097
-386.004	-40.923	0.249	-0.128
-384.990	-200.000	-0.000	-0.020
-383.975	319.721	0.012	0.023
-382.960	174.744	-0.009	-0.014
-381.946	-14.164	0.424	-0.273
-380.931	50.428	0.213	0.201
-379.917	111.209	-0.150	0.180
-378.902	-199.079	-0.380	-0.002
-377.888	-33.860	0.163	-0.089
-376.873	582.829	-0.013	0.032
-375.858	-111.550	0.243	0.049
-374.844	2.357	0.210	-0.151
-373.829	800.000	-0.011	0.044
-372.815	-166.222	-0.212	0.009
-371.800	-40.024	0.139	0.072
-370.785	-200.000	0.030	-0.192
-369.771	51.873	0.185	0.175
-368.756	-51.133	-0.042	-0.020
-367.742	-160.481	-0.066	-0.004
-366.727	12.380	0.182	-0.140
-365.712	-39.859	0.202	-0.105
-364.698	13.866	0.096	0.074
-363.683	800.000	-0.047	-0.160
-362.669	216.168	-0.067	0.105
-361.654	-75.505	-0.189	0.067
-360.639	521.572	0.106	-0.247
-359.625	-200.000	-0.012	-0.118
-358.610	800.000	-0.016	0.066
-357.596	-41.963	0.252	-0.128
-356.581	58.688	0.108	-0.105
-355.566	606.114	0.100	0.247
-354.552	-32.198	-0.220	0.122
-353.537	110.358	-0.047	0.056
-352.523	543.698	0.061	0.144
-351.508	-10.665	-0.092	0.061
-350.493	-115.485	0.269	-0.050
-349.479	-200.000	-0.014	0.137
-348.464	-200.000	-0.051	-0.294
-347.450	-67.194	-0.423	-0.166
-346.435	-157.697	0.178	0.011
-345.420	800.000	0.093	-0.396
-344.406	-15.017	-0.291	-0.186
-343.391	-86.705	-0.317	-0.096
-342.377	800.000	0.017	-0.062
-341.362	-70.972	-0.413	-0.155
-340.348	-200.000	-0.015	0.173
-339.333	-200.000	-0.009	-0.104
-338.318	309.587	-0.093	-0.173
-337.304	-55.779	-0.238	0.106
-336.289	-153.394	-0.347	-0.024
-335.275	-21.862	-0.134	-0.081
-334.260	96.078	-0.074	0.084
-333.245	-200.000	0.005	-0.068
-332.231	67.033	0.202	-0.205
-331.216	103.371	-0.258	0.301
-330.202	-85.003	-0.189	0.059
-329.187	-147.684	-0.204	-0.017
-328.172	-200.000	-0.022	0.131
-327.158	-0.557	-0.229	-0.161
-326.143	343.659	-0.107	-0.207
-325.129	800.000	0.043	0.122
-324.114	800.000	-0.085	-0.277
-323.099	-41.023	-0.255	-0.131
-322.085	23.424	-0.115	0.094
-321.070	-200.000	-0.043	0.396
-320.056	-200.000	0.031	0.231
-319.041	-74.119	-0.056	-0.020
-318.026	25.397	-0.039	-0.032
-317.012	-6.748	0.200	-0.135
-315.997	-200.000	-0.056	0.414
-314.983	92.647	0.033	0.037
-313.968	322.628	0.124	0.235
-312.953	-200.000	0.010	-0.235
-311.939	6.265	0.181	0.133
-310.924	-43.218	0.180	0.091
-309.910	134.543	0.109	0.141
-308.895	-200.000	0.025	-0.124
-307.880	461.368	0.058	0.128
-306.866	-200.000	-0.035	0.322
-305.851	216.246	0.119	0.187
-304.837	800.000	0.089	0.350
-303.822	800.000	-0.118	0.465
-302.807	18.741	0.146	-0.116
-301.793	-8.218	-0.065	0.044
-300.778	95.294	0.017	-0.019
-299.764	-93.102	0.116	0.032
-298.749	220.354	-0.090	0.143
-297.735	55.874	0.183	0.176
-296.720	-150.714	-0.072	-0.005
-295.705	-200.000	-0.018	-0.187
-294.691	220.757	-0.143	-0.228
-293.676	-26.957	0.381	-0.221
-292.662	-107.350	0.330	-0.072
-291.647	-200.000	-0.053	-0.270
-290.632	-121.194	0.264	0.044
-289.618	63.353	0.077	-0.077
-288.603	-200.000	-0.008	0.192
-287.589	-182.525	-0.108	0.002
-286.574	-133.667	0.187	-0.023
-285.559	759.664	-0.012	0.032
-284.545	800.000	-0.096	0.289
-283.530	192.505	0.077	0.115
-282.516	2.630	0.129	-0.093
-281.501	36.603	-0.143	-0.125
-280.486	522.704	-0.117	-0.272
-279.472	-139.561	0.130	0.014
-278.457	-200.000	0.042	0.240
-277.443	-50.037	-0.233	-0.110
-276.428	229.032	-0.093	0.150
-275.413	-145.996	-0.090	0.008
-274.399	-46.978	-0.170	-0.082
-273.384	-42.243	0.336	-0.170
-272.370	-66.616	0.425	0.167
-271.355	-200.000	0.018	0.325
-270.340	140.446	0.184	0.241
-269.326	-107.240	-0.181	0.039
-268.311	800.000	-0.028	0.117
-267.297	54.203	0.184	0.176
-266.282	42.385	-0.178	-0.161
-265.267	800.000	0.088	-0.247
-264.253	800.000	0.087	-0.248
-263.238	-53.264	-0.081	0.037
-262.224	-4.706	0.095	0.065
-261.209	-200.000	0.004	-0.348
-260.195	800.000	-0.036	-0.117
-259.180	158.173	0.155	-0.213
-258.165	-200.000	-0.066	-0.331
-257.151	-45.334	0.278	-0.137
-256.136	-200.000	0.031	0.145
-255.122	800.000	-0.033	-0.139
-254.107	-57.550	0.264	0.115
-253.092	-200.000	0.066	0.292
-252.078	98.300	0.090	0.102
-251.063	198.913	0.070	-0.107
-250.049	800.000	0.046	-0.134
-249.034	-135.387	0.015	0.002
-248.019	41.079	-0.206	0.184
-247.005	173.466	-0.318	-0.454
-245.990	-200.000	0.033	0.225
-244.976	-21.488	0.118	-0.071
-243.961	45.671	0.297	-0.272
-242.946	-175.612	0.154	-0.004
-241.932	-90.116	0.289	0.083
-240.917	-120.118	-0.422	0.071
-239.903	-200.000	-0.005	0.196
-238.888	-132.644	0.406	-0.052
-237.873	786.010	-0.086	-0.233
-236.859	177.497	-0.170	-0.245
-235.844	303.283	0.149	0.273
-234.830	26.575	-0.188	0.156
-233.815	23.832	0.148	-0.121
-232.800	800.000	-0.028	-0.104
-231.786	155.398	0.186	0.254
-230.771	-80.674	0.211	-0.069
-229.757	-181.124	0.216	-0.004
-228.742	-179.786	0.203	0.004
-227.727	470.761	-0.021	0.048
-226.713	-129.787	0.281	-0.038
-225.698	69.632	-0.191	-0.194
-224.684	441.789	-0.154	-0.335
-223.669	800.000	-0.060	-0.173
-222.655	724.177	-0.034	0.090
-221.640	-63.955	-0.183	-0.074
-220.625	800.000	0.108	0.339
-219.611	800.000	-0.020	-0.075
-218.596	219.718	-0.244	0.386
-217.582	225.207	0.184	0.295
-216.567	412.916	0.127	0.267
-215.552	74.217	-0.129	0.134
-214.538	0.075	0.172	-0.121
-213.523	800.000	0.052	-0.210
-212.509	-200.000	0.043	0.187
-211.494	-182.251	-0.094	-0.002
-210.479	-194.845	0.217	0.002
-209.465	800.000	0.055	-0.175
-208.450	306.342	0.203	0.373
-207.436	86.185	-0.076	0.083
-206.421	-60.956	-0.215	-0.090
-205.406	-200.000	-0.021	0.272
-204.392	-122.626	0.165	0.026
-203.377	800.000	0.011	0.036
-202.363	800.000	-0.031	-0.126
-201.348	-119.413	0.240	0.041
-200.333	160.648	0.026	-0.036
-199.319	-52.073	0.107	-0.049
-198.304	-200.000	-0.034	0.455
-197.290	117.089	0.017	-0.021
-196.275	-127.794	-0.104	-0.015
-195.260	-200.000	-0.165	-0.000
-194.246	-43.940	-0.081	-0.040
-193.231	800.000	0.053	-0.193
-192.217	-200.000	-0.013	0.090
-191.202	-10.822	0.165	0.108
-190.187	-200.000	0.001	-0.287
-189.173	41.108	-0.184	-0.164
-188.158	-200.000	-0.010	-0.141
-187.144	13.058	-0.262	-0.200
-186.129	189.015	0.149	0.221
-185.114	800.000	-0.049	-0.148
-184.100	-44.071	0.057	0.028
-183.085	-194.318	-0.246	0.002
-182.071	-81.500	-0.284	-0.092
-181.056	-102.839	0.246	-0.058
-180.042	800.000	-0.055	0.213
-179.027	58.221	0.150	-0.145
-178.012	-200.000	0.001	-0.169
-176.998	-104.333	-0.369	0.085
-175.983	-101.981	-0.104	-0.025
-174.969	-11.132	0.148	0.096
-173.954	-58.319	0.067	0.029
-172.939	-7.398	0.325	-0.217
-171.925	800.000	-0.046	-0.175
-170.910	68.698	-0.043	0.044
-169.896	-136.045	-0.318	0.037
-168.881	-54.596	0.126	0.056
-167.866	83.149	0.151	-0.163
-166.852	-200.000	0.056	0.364
-165.837	-200.000	0.006	-0.116
-164.823	71.789	-0.080	-0.083
-163.808	90.591	-0.233	-0.257
-162.793	40.263	-0.120	-0.107
-161.779	-78.918	0.093	0.031
-160.764	-200.000	-0.011	0.065
-159.750	91.501	0.216	-0.240
-158.735	-76.358	-0.096	0.033
-157.720	232.343	0.028	0.045
-156.706	158.632	-0.151	-0.207
-155.691	-54.292	0.222	0.100
-154.677	-200.000	-0.086	-0.416
-153.662	35.697	-0.052	-0.045
-152.647	-4.434	-0.037	-0.025
-151.633	489.187	0.061	-0.138
-150.618	800.000	-0.053	-0.162
-149.604	-40.987	-0.248	-0.127
-148.589	-31.250	0.244	-0.135
-147.574	-106.992	0.517	-0.113
-146.560	-115.510	-0.255	0.047
-145.545	155.797	-0.039	0.054
-144.531	-64.432	0.152	0.061
-143.516	-177.313	-0.138	-0.003
-142.502	169.375	0.218	0.307
-141.487	-200.000	-0.043	0.243
-140.472	85.165	-0.046	-0.050
-139.458	159.795	0.202	-0.277
-138.443	-57.398	0.164	-0.071
-137.429	-200.000	-0.004	0.094
-136.414	423.089	0.068	0.145
-135.399	-67.418	0.124	-0.048
-134.385	165.778	-0.237	-0.330
-133.370	148.838	0.015	-0.020
-132.356	-200.000	-0.031	-0.194
-131.341	-200.000	0.012	0.130
-130.326	-47.853	0.202	-0.097
-129.312	-186.942	-0.328	0.004
-128.297	-23.256	-0.159	0.094
-127.283	-5.676	0.339	-0.229
-126.268	464.434	-0.015	-0.032
-125.253	-29.624	0.220	-0.124
-124.239	-200.000	-0.017	-0.133
-123.224	105.739	-0.149	0.173
-122.210	-81.811	-0.188	0.061
-121.195	-1.848	0.290	-0.201
-120.180	50.506	0.092	-0.086
-119.166	-40.282	0.146	-0.075
-118.151	-60.769	-0.169	0.070
-117.137	-200.000	-0.154	0.000
-116.122	188.490	0.013	0.019
-115.107	-84.673	0.226	-0.070
-114.093	-98.522	-0.189	-0.048
-113.078	-36.760	0.183	0.097
-112.064	-200.000	0.041	0.500
-111.049	-157.026	0.294	0.018
-110.034	-59.673	0.429	-0.181
-109.020	613.234	0.051	0.127
-108.005	-200.000	0.009	-0.146
-106.991	-200.000	-0.010	-0.363
-105.976	-116.273	-0.305	0.056
-104.962	-144.312	-0.179	-0.016
-103.947	53.284	0.120	0.113
-102.932	800.000	-0.024	-0.093
-101.918	-200.000	-0.004	0.280
-100.903	-158.912	0.058	-0.003
-99.889	725.967	0.110	0.290
-98.874	-200.000	0.059	0.265
-97.859	-200.000	-0.054	-0.290
-96.845	294.036	0.192	0.346
-95.830	115.273	-0.138	-0.167
-94.816	-200.000	0.004	0.071
-93.801	24.269	0.091	0.074
-92.786	6.154	-0.260	-0.190
-91.772	-130.855	0.339	-0.045
-90.757	129.456	0.228	0.286
-89.743	-200.000	0.045	0.292
-88.728	95.850	0.073	0.082
-87.713	-148.952	0.170	0.014
-86.699	92.507	-0.179	-0.198
-85.684	-157.101	0.198	0.012
-84.670	-158.568	-0.408	0.023
-83.655	-30.749	-0.166	-0.092
-82.640	-120.978	-0.258	-0.043
-81.626	-33.331	0.265	0.144
-80.611	-200.000	-0.008	0.146
-79.597	-154.204	0.252	0.017
-78.582	-200.000	-0.093	0.492
-77.567	-200.000	-0.046	0.208
-76.553	-44.466	0.085	-0.042
-75.538	2.615	0.177	0.126
-74.524	49.240	0.207	-0.191
-73.509	26.709	0.093	-0.076
-72.494	339.744	-0.088	-0.170
-71.480	-55.566	0.375	0.165
-70.465	800.000	0.053	-0.219
-69.451	-200.000	-0.004	-0.263
-68.436	156.098	-0.127	0.172
-67.422	-200.000	0.005	-0.063
-66.407	-42.945	-0.229	0.114
-65.392	23.451	-0.033	0.027
-64.378	-23.016	0.206	-0.122
-63.363	286.448	0.154	0.273
-62.349	-200.000	0.004	0.234
-61.334	40.123	-1.028	-0.908
-60.319	187.744	0.550	0.808
-59.305	-200.000	-0.140	-0.891
-58.290	800.000	0.318	1.230
-57.276	532.045	0.597	1.390
-56.261	-200.000	115.830	647.436
-55.246	502.385	1538.890	3496.504
-54.232	171.826	2720.530	3842.678
-53.217	96.054	2332.314	2620.333
-52.203	32.964	2076.330	1768.263
-51.188	28.279	1991.086	1653.410
-50.173	26.958	1973.911	1627.252
-49.159	44.294	2034.415	1835.548
-48.144	43.117	2049.508	1838.365
-47.130	28.730	2007.873	1671.192
-46.115	26.551	1997.474	1642.719
-45.100	26.470	1994.575	1639.536
-44.086	26.448	1992.023	1637.174
-43.071	26.387	1989.777	1634.711
-42.057	26.399	1987.125	1632.584
-41.042	26.345	1985.562	1630.740
-40.027	26.427	1984.059	1630.185
-39.013	26.484	1981.397	1628.447
-37.998	26.424	1979.899	1626.606
-36.984	26.485	1978.255	1625.742
-35.969	26.467	1976.090	1623.736
-34.954	26.419	1974.498	1621.936
-33.940	26.533	1973.125	1621.763
-32.925	26.612	1970.796	1620.493
-31.911	26.550	1969.642	1618.924
-30.896	26.535	1967.742	1617.160
-29.881	26.523	1966.737	1616.163
-28.867	26.583	1964.938	1615.156
-27.852	26.556	1963.020	1613.281
-26.838	26.552	1961.177	1611.666
-25.823	26.589	1959.535	1610.583
-24.809	26.549	1957.719	1608.665
-23.794	26.492	1956.039	1606.722
-22.779	26.581	1953.958	1605.730
-21.765	26.493	1953.263	1604.321
-20.750	26.598	1951.018	1603.343
-19.736	26.492	1949.886	1601.410
-18.721	26.586	1947.877	1600.524
-17.706	26.563	1946.099	1598.795
-16.692	26.483	1944.737	1596.914
-15.677	26.565	1942.417	1595.661
-14.663	26.523	1941.432	1594.420
-13.648	26.560	1939.790	1593.338
-12.633	26.512	1938.905	1592.122
-11.619	26.467	1937.973	1590.901
-10.604	26.559	1935.829	1589.880
-9.590	26.469	1934.987	1588.339
-8.575	26.447	1933.523	1586.883
-7.560	26.458	1932.093	1585.744
-6.546	26.499	1930.988	1585.129
-5.531	26.558	1929.654	1584.493
-4.517	26.585	1928.646	1583.839
-3.502	26.540	1928.083	1582.918
-2.487	26.458	1926.565	1580.895
-1.473	26.577	1925.239	1580.779
-0.458	26.652	1919.660	1576.791
0.556	27.404	1900.635	1549.623
1.571	23.132	1882.564	1498.650
2.586	19.315	1906.047	1484.404
3.600	18.355	1941.476	1503.433
4.615	18.008	1934.204	1494.641
5.629	13.706	1833.134	1380.669
6.644	6.603	1720.151	1239.792
7.659	3.472	1687.114	1191.704
8.673	3.244	1684.435	1187.946
9.688	3.183	1683.294	1186.564
10.702	3.226	1681.864	1185.782
11.717	3.228	1678.202	1183.113
12.731	3.687	1676.864	1185.586
13.746	8.397	1688.830	1230.287
14.761	15.993	1705.903	1301.505
15.775	19.993	1711.901	1336.910
16.790	20.258	1711.202	1338.290
17.804	19.407	1708.060	1329.160
18.819	18.348	1705.098	1318.581
19.834	17.702	1702.546	1311.529
20.848	17.585	1700.921	1309.262
21.863	17.334	1700.010	1306.515
22.877	17.144	1698.387	1303.695
23.892	16.988	1697.040	1301.348
24.907	16.969	1695.965	1300.257
25.921	16.937	1695.082	1299.224
26.936	16.870	1693.560	1297.432
27.950	16.890	1693.426	1297.362
28.965	17.032	1692.354	1297.513
29.980	17.010	1692.078	1297.018
30.994	17.147	1690.142	1296.471
32.009	17.119	1690.145	1296.142
33.023	17.231	1689.094	1296.072
34.038	17.287	1688.070	1295.599
35.053	17.230	1686.546	1293.885
36.067	17.157	1685.011	1292.033
37.082	17.124	1683.656	1290.635
38.096	17.072	1682.941	1289.576
39.111	17.046	1682.437	1288.873
40.126	17.209	1681.571	1289.336
41.140	17.204	1680.415	1288.301
42.155	17.001	1679.014	1285.572
43.169	16.820	1677.202	1282.699
44.184	16.613	1676.564	1280.530
45.199	16.730	1674.930	1280.059
46.213	16.757	1673.601	1279.128
47.228	16.757	1672.758	1278.374
48.242	16.992	1671.203	1278.844
49.257	16.995	1671.472	1278.962
50.271	16.976	1669.684	1277.332
51.286	16.955	1668.714	1276.325
52.301	16.985	1667.391	1275.420
53.315	16.992	1665.574	1273.972
54.330	16.933	1664.559	1272.640
55.344	16.860	1662.485	1270.396
56.359	16.825	1660.451	1268.467
57.374	16.765	1660.081	1267.619
58.388	16.892	1658.774	1267.465
59.403	16.724	1657.255	1264.933
60.417	16.729	1655.853	1263.787
61.432	16.562	1655.350	1262.045
62.447	16.717	1653.633	1261.782
63.461	16.586	1652.334	1259.706
64.476	16.550	1651.277	1258.517
65.490	16.511	1650.603	1257.606
66.505	16.561	1648.682	1256.399
67.520	16.507	1647.994	1255.366
68.534	16.640	1647.098	1255.557
69.549	16.641	1645.689	1254.382
70.563	16.663	1644.172	1253.274
71.578	16.563	1643.414	1251.844
72.593	16.532	1641.771	1250.258
73.607	16.454	1641.295	1249.209
74.622	16.407	1639.717	1247.546
75.636	16.375	1639.309	1246.893
76.651	16.476	1638.209	1246.684
77.666	16.377	1637.735	1245.484
78.680	16.516	1636.277	1245.288
79.695	16.474	1636.038	1244.687
80.709	16.630	1634.853	1244.826
81.724	16.653	1634.492	1244.609
82.739	16.679	1633.665	1244.064
83.753	16.794	1632.276	1243.736
84.768	16.948	1631.419	1244.103
85.782	17.012	1631.003	1244.147
86.797	17.144	1629.741	1244.041
87.812	17.189	1628.884	1243.606
88.826	17.094	1627.769	1241.946
89.841	17.051	1626.596	1240.629
90.855	17.032	1625.758	1239.742
91.870	17.094	1624.807	1239.357
92.884	17.101	1624.410	1238.999
93.899	17.135	1623.032	1238.085
94.914	17.183	1621.248	1236.966
95.928	17.238	1620.169	1236.433
96.943	17.277	1619.072	1235.772
97.957	17.244	1617.301	1234.070
98.972	17.029	1616.740	1231.972
99.987	17.051	1614.738	1230.493
101.001	17.069	1613.282	1229.406
102.016	17.107	1611.428	1228.164
103.030	17.105	1610.345	1227.211
104.045	17.058	1609.014	1225.750
105.060	17.100	1607.703	1224.950
106.074	17.072	1606.432	1223.666
107.089	16.953	1604.681	1221.371
108.103	16.688	1602.949	1218.038
109.118	16.632	1601.389	1216.344
110.133	16.494	1599.801	1214.037
111.147	16.641	1598.711	1214.155
112.162	16.567	1597.678	1212.737
113.176	16.676	1595.826	1212.003
114.191	16.714	1594.323	1211.024
115.206	16.747	1593.696	1210.674
116.220	16.715	1592.422	1209.373
117.235	16.749	1590.580	1208.112
118.249	16.718	1589.239	1206.765
119.264	16.740	1587.689	1205.637
120.279	16.650	1586.219	1203.777
121.293	16.687	1584.916	1202.938
122.308	16.510	1583.944	1200.838
123.322	16.537	1581.912	1199.382
124.337	16.517	1579.958	1197.656
125.352	16.517	1578.788	1196.662
126.366	16.440	1578.034	1195.439
127.381	16.549	1576.662	1195.068
128.395	16.504	1575.841	1194.017
129.410	16.504	1574.604	1192.976
130.424	16.468	1573.445	1191.741
131.439	16.553	1571.953	1191.099
132.454	16.628	1570.426	1190.368
133.468	16.672	1569.196	1189.642
134.483	16.707	1567.939	1188.828
135.497	16.796	1566.434	1188.203
136.512	16.675	1565.676	1186.674
137.527	16.778	1564.268	1186.223
138.541	16.718	1562.797	1184.583
139.556	16.865	1560.959	1184.112
140.570	16.801	1560.157	1182.952
141.585	16.902	1558.507	1182.306
142.600	16.972	1557.526	1181.941
143.614	17.172	1555.982	1182.056
144.629	17.182	1555.163	1181.404
145.643	17.277	1553.911	1181.003
146.658	17.266	1552.712	1179.914
147.673	17.126	1551.462	1177.891
148.687	16.993	1549.569	1175.426
149.702	16.970	1548.261	1174.170
150.716	16.834	1546.438	1171.740
151.731	16.716	1545.476	1170.094
152.746	16.931	1543.754	1170.171
153.760	16.979	1541.679	1168.823
154.775	16.917	1541.149	1167.891
155.789	16.908	1540.350	1167.120
156.804	17.114	1538.977	1167.396
157.819	17.031	1538.117	1166.072
158.833	17.064	1537.142	1165.451
159.848	17.150	1535.537	1164.724
160.862	17.290	1534.475	1164.773
161.877	17.334	1533.359	1164.126
162.892	17.216	1531.976	1162.166
163.906	17.074	1530.467	1159.950
164.921	16.938	1528.782	1157.637
165.935	16.985	1527.873	1157.171
166.950	16.964	1527.055	1156.305
167.964	16.996	1525.907	1155.551
168.979	16.974	1525.188	1154.754
169.994	17.019	1523.884	1153.968
171.008	17.091	1522.941	1153.647
172.023	17.039	1521.636	1152.201
173.037	17.037	1520.450	1151.188
174.052	17.181	1519.710	1151.500
175.067	17.314	1518.302	1151.230
176.081	17.139	1517.098	1149.036
177.096	17.006	1515.999	1147.203
178.110	17.028	1514.348	1146.000
179.125	17.002	1513.189	1144.847
180.140	16.999	1512.313	1144.058
181.154	17.069	1511.341	1143.698
182.169	17.137	1510.062	1143.086
183.183	17.167	1509.577	1142.819
184.198	17.242	1508.495	1142.402
185.213	17.387	1507.076	1142.200
186.227	17.445	1506.161	1141.796
187.242	17.503	1505.059	1141.250
188.256	17.365	1504.273	1139.627
189.271	17.475	1502.799	1139.147
190.286	17.536	1501.848	1138.733
191.300	17.389	1501.140	1137.110
192.315	17.145	1499.678	1134.270
193.329	16.885	1498.055	1131.211
194.344	16.959	1496.506	1130.432
195.359	16.972	1495.977	1130.023
196.373	17.174	1495.301	1130.756
197.388	17.267	1493.895	1130.212
198.402	17.221	1493.314	1129.364
199.417	17.434	1492.153	1129.803
200.432	17.543	1491.560	1129.977
201.446	17.509	1491.019	1129.243
202.461	17.703	1490.158	1129.775
203.475	17.740	1488.826	1128.908
204.490	17.777	1487.789	1128.269
205.504	17.732	1486.849	1127.160
206.519	17.602	1485.021	1124.811
207.534	17.592	1483.792	1123.719
208.548	17.498	1482.694	1122.163
209.563	17.427	1481.853	1120.966
210.577	17.568	1480.943	1121.101
211.592	17.566	1480.119	1120.367
212.607	17.549	1479.421	1119.628
213.621	17.598	1479.346	1119.797
214.636	17.829	1478.111	1120.280
215.650	17.685	1477.028	1118.412
216.665	17.672	1475.943	1117.405
217.680	17.801	1475.339	1117.698
218.694	17.827	1474.887	1117.423
219.709	17.954	1473.662	1117.229
220.723	17.824	1473.109	1115.862
221.738	17.927	1471.558	1115.258
222.753	17.891	1470.861	1114.397
223.767	17.799	1469.895	1112.966
224.782	17.805	1469.077	1112.287
225.796	17.929	1467.999	1112.181
226.811	18.081	1467.244	1112.498
227.826	18.036	1466.788	1111.764
228.840	17.967	1465.862	1110.514
229.855	17.888	1464.377	1108.779
230.869	17.829	1463.249	1107.444
231.884	17.890	1462.369	1107.073
232.899	17.834	1461.047	1105.616
233.913	17.780	1460.342	1104.631
234.928	17.809	1458.553	1103.367
235.942	17.640	1457.779	1101.594
236.957	17.664	1456.083	1100.371
237.972	17.783	1454.518	1099.856
238.986	17.661	1453.656	1098.318
240.001	17.650	1453.173	1097.789
241.015	17.736	1452.039	1097.388
242.030	17.771	1451.048	1096.768
243.045	17.771	1449.712	1095.661
244.059	17.783	1448.924	1095.047
245.074	17.914	1448.036	1095.116
246.088	17.941	1447.758	1094.985
247.103	17.950	1447.033	1094.398
248.117	18.186	1445.480	1094.635
249.132	18.089	1444.820	1093.419
250.147	18.153	1444.497	1093.485
251.161	18.407	1444.143	1094.742
252.176	18.473	1443.788	1094.801
253.190	18.489	1443.301	1094.433
254.205	18.633	1441.765	1094.096
255.220	18.574	1441.266	1093.239
256.234	18.744	1440.449	1093.607
257.249	18.630	1439.316	1091.926
258.263	18.573	1439.027	1091.248
259.278	18.637	1437.607	1090.481
260.293	18.600	1436.879	1089.595
261.307	18.648	1435.832	1089.011
262.322	18.760	1435.360	1089.269
263.336	18.833	1434.176	1088.732
264.351	18.758	1433.495	1087.648
265.366	18.836	1432.350	1087.177
266.380	18.835	1431.550	1086.465
267.395	18.758	1431.111	1085.551
268.409	18.771	1429.734	1084.491
269.424	18.780	1428.920	1083.832
270.439	18.718	1427.495	1082.268
271.453	18.647	1426.588	1081.033
272.468	18.678	1425.427	1080.257
273.482	18.653	1424.783	1079.514
274.497	18.635	1423.450	1078.297
275.512	18.650	1422.693	1077.720
276.526	18.618	1422.150	1077.015
277.541	18.640	1420.896	1076.104
278.555	18.661	1420.326	1075.711
279.570	18.602	1419.890	1074.918
280.585	18.723	1418.503	1074.526
281.599	18.796	1417.898	1074.429
282.614	18.942	1416.555	1074.228
283.628	18.806	1415.614	1072.573
284.643	18.820	1414.186	1071.485
285.657	18.757	1413.336	1070.352
286.672	18.788	1412.583	1069.882
287.687	18.754	1411.625	1068.846
288.701	18.669	1410.645	1067.483
289.716	18.745	1410.331	1067.623
290.730	18.761	1409.376	1066.904
291.745	18.757	1408.020	1065.760
292.760	18.815	1407.160	1065.375
293.774	18.853	1406.136	1064.740
294.789	18.856	1405.310	1064.040
295.803	18.920	1405.013	1064.117
296.818	19.029	1404.096	1064.004
297.833	18.986	1402.604	1062.510
298.847	18.890	1401.413	1060.921
299.862	18.780	1400.737	1059.638
300.876	18.934	1399.630	1059.655
301.891	18.856	1398.946	1058.562
302.906	18.870	1398.308	1058.072
303.920	19.090	1397.604	1058.803
304.935	19.146	1396.692	1058.361
305.949	19.234	1395.737	1058.087
306.964	19.230	1395.131	1057.504
307.979	19.392	1394.011	1057.557
308.993	19.208	1393.312	1055.808
310.008	19.124	1392.035	1054.229
311.022	19.234	1391.043	1054.061
312.037	19.195	1390.075	1052.993
313.052	19.292	1389.131	1052.781
314.066	19.299	1388.139	1051.975
315.081	19.096	1387.028	1049.803
316.095	19.018	1386.329	1048.707
317.110	18.976	1384.728	1047.149
318.125	18.939	1383.806	1046.134
319.139	18.964	1383.255	1045.773
320.154	19.009	1382.152	1045.121
321.168	18.976	1381.418	1044.272
322.183	18.983	1380.189	1043.292
323.197	19.078	1378.730	1042.677
324.212	19.052	1378.062	1041.920
325.227	19.096	1377.783	1041.885
326.241	19.048	1376.655	1040.646
327.256	19.163	1375.486	1040.365
328.270	19.198	1374.960	1040.085
329.285	19.109	1373.820	1038.597
330.300	19.028	1373.351	1037.660
331.314	19.126	1371.516	1036.774
332.329	19.024	1371.314	1035.916
333.343	19.087	1370.582	1035.650
334.358	19.097	1369.483	1034.785
335.373	19.287	1368.341	1034.976
336.387	19.278	1368.027	1034.590
337.402	19.317	1367.232	1034.131
338.416	19.363	1366.361	1033.656
339.431	19.402	1366.340	1033.787
340.446	19.511	1364.785	1033.166
341.460	19.523	1364.245	1032.741
342.475	19.598	1363.324	1032.399
343.489	19.697	1362.274	1032.105
344.504	19.739	1361.667	1031.805
345.519	19.734	1360.556	1030.840
346.533	19.804	1359.684	1030.509
347.548	19.758	1359.067	1029.670
348.562	19.823	1358.606	1029.623
349.577	19.805	1357.587	1028.648
350.592	19.880	1356.423	1028.121
351.606	19.724	1355.446	1026.362
352.621	19.627	1354.116	1024.689
353.635	19.474	1353.171	1022.978
354.650	19.480	1352.198	1022.185
355.665	19.576	1351.038	1021.786
356.679	19.415	1350.368	1020.241
357.694	19.566	1348.951	1019.969
358.708	19.611	1347.939	1019.378
359.723	19.657	1346.765	1018.672
360.738	19.755	1346.035	1018.607
361.752	19.746	1345.329	1017.932
362.767	19.690	1344.039	1016.534
363.781	19.715	1343.221	1015.974
364.796	19.751	1342.558	1015.592
365.810	19.784	1342.067	1015.330
366.825	19.854	1341.641	1015.326
367.840	20.078	1340.370	1015.589
368.854	20.065	1340.012	1015.150
369.869	20.234	1339.161	1015.405
370.883	20.280	1338.411	1015.014
371.898	20.118	1337.609	1013.369
372.913	20.051	1336.658	1012.170
373.927	20.083	1335.518	1011.404
374.942	20.079	1335.058	1010.943
375.956	20.068	1334.456	1010.331
376.971	20.187	1333.667	1010.339
377.986	20.008	1332.983	1008.690
379.000	20.164	1332.018	1008.779
380.015	20.200	1331.194	1008.275
381.029	20.376	1330.303	1008.531
382.044	20.368	1330.115	1008.252
383.059	20.394	1328.885	1007.379
384.073	20.354	1328.265	1006.592
385.088	20.285	1327.829	1005.773
386.102	20.290	1327.191	1005.226
387.117	20.373	1326.435	1005.047
388.132	20.241	1325.677	1003.622
389.146	20.207	1324.628	1002.540
390.161	20.275	1323.350	1001.879
391.175	20.165	1322.879	1000.797
392.190	20.115	1322.077	999.814
393.205	20.150	1321.213	999.271
394.219	20.380	1320.039	999.622
395.234	20.370	1318.908	998.617
396.248	20.382	1317.488	997.526
397.263	20.225	1316.605	995.864
398.278	20.164	1315.378	994.502
399.292	20.197	1313.627	993.280
400.307	20.173	1312.487	992.191
401.321	19.978	1312.104	990.695
402.336	20.053	1310.662	989.952
403.350	20.093	1309.695	989.360
404.365	20.184	1308.215	988.673
405.380	20.148	1307.872	988.120
406.394	20.209	1307.148	987.835
407.409	20.307	1306.391	987.735
408.423	20.333	1305.875	987.404
409.438	20.443	1305.056	987.321
410.453	20.573	1304.554	987.594
411.467	20.515	1303.869	986.659
412.482	20.593	1303.323	986.602
413.496	20.621	1302.993	986.420
414.511	20.702	1301.911	985.974
415.526	20.728	1301.310	985.581
416.540	20.867	1300.094	985.359
417.555	20.840	1299.599	984.743
418.569	20.815	1299.382	984.350
419.584	20.907	1298.889	984.410
420.599	20.913	1297.743	983.489
421.613	145.381	1435.818	1797.154
422.628	140.581	1455.894	1797.230
