DTS Sentinel unit serial number:	SN413079Multiplexer serial number:	ORYXHardware model number:	OX4-SRSoftware version number:	ORYX F/W v4.00 Oryx Data Collector v3.7.2.0data status	okinstallation	princeton_trtdifferential loss correction	single-endedforward channel	channel 4reverse channel	N/Adate	2019/09/12time	03:47:11forward acquisition time	60.00reverse acquisition time	0.00gamma	496.2192k internal	0.2309k external	0.2309temperature offset calibration	1.0096default loss term (dB/km)	0.3790temperature slope calibration	1.0000multiplexer offset coefficient	1.0000multiplexer slope coefficient	1.0000fibre end	0.00T internal ref (°C)	32.14T ext. ref 1 (°C)	2.15T ext. ref 2 (°C)	27.17length (m)	temperature (°C)	Stokes	anti-Stokes-747.200	-31.520	0.058	-0.033
-746.185	-24.206	-0.177	0.107
-745.171	-185.577	0.247	-0.004
-744.156	-21.433	0.159	0.098
-743.142	-38.262	-0.105	-0.056
-742.127	463.965	-0.192	0.436
-741.112	287.386	-0.176	0.324
-740.098	-36.340	0.178	0.097
-739.083	-173.912	0.061	0.002
-738.069	-135.146	-0.264	0.032
-737.054	-104.348	-0.250	0.059
-736.039	261.744	-0.098	0.172
-735.025	-200.000	-0.051	0.230
-734.010	775.516	-0.112	-0.309
-732.996	275.564	-0.067	0.120
-731.981	59.546	-0.215	-0.215
-730.966	-200.000	-0.062	-0.409
-729.952	-200.000	-0.091	-0.532
-728.937	-62.207	-0.289	-0.122
-727.923	175.972	-0.202	-0.298
-726.908	-159.112	0.210	0.012
-725.894	-84.644	-0.106	0.034
-724.879	-200.000	-0.028	-0.375
-723.864	687.709	-0.049	-0.130
-722.850	-1.493	0.204	-0.146
-721.835	-200.000	0.011	0.107
-720.821	11.979	0.182	0.142
-719.806	2.236	-0.062	-0.045
-718.791	-72.720	0.297	0.111
-717.777	-0.036	-0.258	0.186
-716.762	106.930	-0.060	-0.072
-715.748	36.231	-0.254	0.227
-714.733	345.874	0.101	-0.202
-713.718	-104.961	-0.201	0.047
-712.704	141.239	0.083	-0.111
-711.689	419.291	0.062	-0.135
-710.675	-49.582	0.295	-0.142
-709.660	800.000	0.037	-0.133
-708.645	-115.118	-0.424	0.082
-707.631	-6.136	0.164	-0.113
-706.616	800.000	0.022	-0.072
-705.602	-70.730	0.151	-0.058
-704.587	129.544	0.055	0.072
-703.572	-200.000	-0.002	0.244
-702.558	68.853	0.114	-0.119
-701.543	119.400	0.122	-0.153
-700.529	-94.592	0.141	0.039
-699.514	-94.735	0.136	0.037
-698.499	-23.216	0.156	0.095
-697.485	-127.293	-0.266	-0.039
-696.470	-200.000	-0.013	0.209
-695.456	-23.182	-0.145	-0.088
-694.441	-72.089	-0.081	0.030
-693.426	-68.588	-0.416	0.163
-692.412	203.511	-0.112	-0.175
-691.397	114.616	-0.120	0.148
-690.383	-200.000	0.007	-0.107
-689.368	-14.756	0.222	-0.144
-688.354	-121.170	-0.270	-0.046
-687.339	-106.273	-0.367	-0.083
-686.324	592.775	0.098	0.245
-685.310	44.802	-0.112	0.105
-684.295	201.820	-0.033	-0.051
-683.281	4.139	-0.075	0.055
-682.266	20.145	-0.193	-0.158
-681.251	-23.683	-0.311	0.189
-680.237	-106.862	-0.284	-0.064
-679.222	-153.159	0.247	-0.018
-678.208	-89.231	-0.124	0.037
-677.193	91.326	-0.229	-0.260
-676.178	162.557	-0.146	0.207
-675.164	-200.000	0.003	-0.054
-674.149	-92.293	-0.168	-0.048
-673.135	-200.000	0.011	0.060
-672.120	30.119	0.241	0.208
-671.105	-200.000	0.039	0.201
-670.091	800.000	0.047	-0.162
-669.076	674.831	-0.045	-0.118
-668.062	323.220	0.060	-0.115
-667.047	28.989	-0.385	-0.330
-666.032	-87.031	-0.333	0.103
-665.018	-200.000	0.014	-0.067
-664.003	64.269	-0.242	0.246
-662.989	-200.000	0.042	0.408
-661.974	-200.000	0.022	-0.235
-660.959	800.000	-0.048	-0.188
-659.945	-143.053	-0.219	-0.021
-658.930	146.178	0.069	0.093
-657.916	800.000	-0.056	0.166
-656.901	54.742	0.242	-0.236
-655.886	-200.000	0.005	-0.023
-654.872	104.946	-0.166	-0.199
-653.857	181.202	-0.098	-0.146
-652.843	132.559	0.112	-0.146
-651.828	-7.474	-0.282	0.193
-650.814	44.594	-0.188	-0.175
-649.799	-143.212	-0.185	0.018
-648.784	-10.284	-0.036	0.024
-647.770	-200.000	0.030	-0.135
-646.755	-96.935	-0.241	-0.064
-645.741	-46.855	0.252	-0.124
-644.726	30.275	0.197	0.170
-643.711	194.763	-0.135	0.208
-642.697	291.526	0.100	0.184
-641.682	248.070	-0.093	0.158
-640.668	-86.128	0.207	0.065
-639.653	299.136	-0.092	-0.171
-638.638	55.414	-0.221	-0.216
-637.624	204.640	-0.072	-0.113
-636.609	387.875	0.183	0.382
-635.595	-200.000	0.009	0.326
-634.580	658.483	0.073	0.190
-633.565	-200.000	-0.261	-0.001
-632.551	-179.997	-0.362	0.008
-631.536	-13.332	0.093	-0.061
-630.522	-200.000	0.004	0.025
-629.507	27.447	-0.222	0.189
-628.492	-46.511	0.167	-0.083
-627.478	36.265	-0.221	-0.197
-626.463	-153.156	-0.164	0.012
-625.449	214.350	-0.098	-0.157
-624.434	-200.000	-0.031	-0.205
-623.419	114.448	0.044	-0.054
-622.405	307.185	0.164	-0.309
-621.390	-200.000	-0.002	-0.277
-620.376	-200.000	-0.040	-0.186
-619.361	-4.343	-0.213	0.149
-618.346	250.450	-0.081	-0.138
-617.332	-3.207	-0.316	-0.223
-616.317	800.000	0.043	0.148
-615.303	-42.070	0.334	-0.173
-614.288	-200.000	-0.090	0.491
-613.273	800.000	0.041	0.119
-612.259	800.000	0.086	0.260
-611.244	800.000	-0.040	-0.163
-610.230	-200.000	0.013	-0.484
-609.215	389.982	0.229	-0.481
-608.201	-200.000	-0.039	0.186
-607.186	769.715	0.155	0.426
-606.171	-82.456	-0.208	0.068
-605.157	-200.000	-0.003	0.248
-604.142	45.554	0.040	-0.037
-603.128	-200.000	0.056	0.276
-602.113	-200.000	0.016	0.226
-601.098	-98.113	0.353	0.092
-600.084	10.563	-0.307	0.237
-599.069	-130.029	-0.331	0.046
-598.055	20.385	-0.200	-0.163
-597.040	764.860	-0.074	-0.204
-596.025	-200.000	0.065	-0.321
-595.011	-2.380	-0.041	-0.029
-593.996	231.245	0.107	0.177
-592.982	800.000	0.051	-0.184
-591.967	241.869	-0.135	-0.227
-590.952	95.283	0.173	-0.199
-589.938	-200.000	0.008	-0.288
-588.923	-200.000	0.065	-0.288
-587.909	800.000	0.050	-0.147
-586.894	-6.391	-0.109	0.075
-585.879	-200.000	-0.028	-0.242
-584.865	229.864	0.174	-0.287
-583.850	-71.871	-0.191	-0.072
-582.836	336.861	-0.103	-0.201
-581.821	27.273	0.249	0.211
-580.806	406.870	0.036	-0.077
-579.792	-15.831	-0.124	0.080
-578.777	800.000	0.103	-0.426
-577.763	-200.000	-0.019	-0.171
-576.748	582.497	-0.162	0.401
-575.733	115.080	0.171	-0.211
-574.719	228.811	0.113	-0.186
-573.704	-107.128	-0.107	-0.024
-572.690	4.427	-0.213	0.157
-571.675	-86.961	-0.211	-0.065
-570.661	-12.120	0.101	0.066
-569.646	186.656	0.020	-0.031
-568.631	180.274	0.179	-0.266
-567.617	-72.093	0.244	0.092
-566.602	-126.425	-0.064	0.010
-565.588	-1.905	0.234	0.166
-564.573	-120.001	-0.130	0.022
-563.558	800.000	0.099	-0.279
-562.544	298.699	-0.132	-0.244
-561.529	-128.833	0.289	-0.041
-560.515	800.000	-0.056	-0.212
-559.500	281.678	-0.169	-0.305
-558.485	38.726	-0.248	-0.223
-557.471	-147.125	-0.102	-0.009
-556.456	74.712	-0.058	0.062
-555.442	-200.000	-0.028	0.324
-554.427	49.328	0.207	-0.196
-553.412	-200.000	0.007	0.103
-552.398	30.105	-0.129	-0.111
-551.383	554.606	-0.171	0.415
-550.369	-200.000	0.066	0.470
-549.354	800.000	-0.032	-0.100
-548.339	-62.069	-0.262	0.110
-547.325	191.560	-0.244	-0.371
-546.310	-200.000	-0.063	-0.328
-545.296	-29.256	-0.245	0.141
-544.281	-60.625	-0.168	-0.072
-543.266	-200.000	0.025	-0.112
-542.252	7.679	0.406	-0.306
-541.237	-74.961	0.297	-0.107
-540.223	401.893	-0.100	-0.211
-539.208	-84.451	0.204	0.065
-538.193	777.650	-0.068	0.187
-537.179	-47.219	-0.252	0.124
-536.164	-200.000	0.009	0.290
-535.150	25.542	0.179	-0.150
-534.135	97.742	-0.167	-0.193
-533.121	-200.000	-0.016	-0.092
-532.106	800.000	-0.066	0.190
-531.091	800.000	0.021	0.078
-530.077	89.928	0.196	-0.221
-529.062	-101.573	-0.223	0.055
-528.048	-2.519	-0.156	0.110
-527.033	203.621	-0.146	-0.228
-526.018	454.131	-0.088	0.197
-525.004	-200.000	0.004	-0.127
-523.989	-114.385	0.466	-0.090
-522.975	-6.713	0.211	-0.144
-521.960	-96.555	-0.196	0.052
-520.945	51.320	0.098	-0.094
-519.931	40.348	-0.183	-0.166
-518.916	-32.070	0.299	-0.168
-517.902	-39.719	-0.166	0.087
-516.887	-200.000	-0.005	0.120
-515.872	-160.397	-0.401	0.022
-514.858	-95.898	-0.175	-0.047
-513.843	128.021	-0.108	-0.138
-512.829	-24.737	0.136	-0.081
-511.814	197.549	-0.249	0.383
-510.799	-47.374	-0.185	0.091
-509.785	3.466	-0.314	-0.230
-508.770	-200.000	0.001	-0.010
-507.756	-200.000	0.005	0.062
-506.741	21.698	0.083	-0.068
-505.726	-115.359	-0.156	0.030
-504.712	-200.000	-0.020	-0.125
-503.697	-53.982	0.110	0.050
-502.683	44.400	0.158	-0.146
-501.668	29.056	-0.203	0.173
-500.653	-76.433	0.239	0.085
-499.639	466.584	0.074	-0.167
-498.624	261.168	-0.163	0.284
-497.610	53.929	0.310	-0.300
-496.595	-157.472	-0.163	0.010
-495.581	-200.000	0.051	-0.320
-494.566	-129.322	0.148	-0.021
-493.551	-43.244	-0.169	-0.086
-492.537	-133.886	-0.118	-0.015
-491.522	4.441	-0.224	0.166
-490.508	551.954	-0.053	-0.128
-489.493	13.044	0.160	0.125
-488.478	-169.293	0.042	0.002
-487.464	-200.000	-0.027	0.141
-486.449	-127.996	0.207	0.030
-485.435	2.580	-0.128	0.093
-484.420	103.889	-0.066	-0.078
-483.405	-53.057	0.207	-0.096
-482.391	-83.338	0.309	-0.100
-481.376	-127.236	0.222	0.033
-480.362	-200.000	0.060	-0.284
-479.347	-34.393	-0.053	0.029
-478.332	-31.378	0.107	-0.060
-477.318	-123.768	0.018	0.003
-476.303	-200.000	0.005	0.080
-475.289	39.672	0.152	-0.137
-474.274	800.000	0.126	-0.469
-473.259	-145.583	-0.168	0.015
-472.245	96.986	0.189	-0.217
-471.230	-200.000	0.031	-0.219
-470.216	-149.510	-0.269	-0.021
-469.201	225.860	0.097	-0.157
-468.186	22.635	0.121	-0.100
-467.172	71.079	0.390	0.406
-466.157	800.000	-0.112	-0.407
-465.143	-180.345	-0.158	0.003
-464.128	465.284	-0.083	0.187
-463.113	162.826	-0.110	0.155
-462.099	-200.000	-0.032	-0.206
-461.084	-161.496	-0.210	0.011
-460.070	205.601	-0.061	-0.096
-459.055	271.311	-0.145	0.256
-458.040	-33.869	-0.070	-0.039
-457.026	-6.361	-0.062	-0.043
-456.011	127.038	0.121	-0.155
-454.997	475.030	-0.116	-0.263
-453.982	-200.000	0.001	0.013
-452.968	800.000	0.118	-0.381
-451.953	-2.684	0.171	-0.120
-450.938	93.496	0.068	0.077
-449.924	93.914	0.357	0.407
-448.909	-200.000	0.017	-0.095
-447.895	-31.256	0.328	0.186
-446.880	-0.766	0.192	0.137
-445.865	-200.000	0.045	0.334
-444.851	-51.831	-0.188	0.088
-443.836	-31.785	0.034	0.019
-442.822	-92.989	-0.288	0.081
-441.807	-200.000	-0.015	0.254
-440.792	-37.230	0.267	-0.143
-439.778	-20.583	-0.197	0.122
-438.763	-24.513	-0.072	0.043
-437.749	-64.060	-0.241	-0.099
-436.734	-45.550	0.101	0.050
-435.719	-145.768	0.261	-0.023
-434.705	-35.193	0.106	-0.058
-433.690	153.997	0.171	0.235
-432.676	421.568	-0.115	-0.247
-431.661	-17.406	-0.029	0.018
-430.646	-200.000	-0.017	0.247
-429.632	-72.836	-0.139	0.051
-428.617	-200.000	-0.002	0.128
-427.603	-77.914	-0.303	-0.105
-426.588	-200.000	0.004	0.076
-425.573	-60.985	0.286	0.121
-424.559	-94.678	0.160	0.044
-423.544	124.891	0.046	-0.058
-422.530	800.000	-0.037	-0.140
-421.515	-102.178	-0.031	0.007
-420.500	800.000	-0.049	-0.147
-419.486	28.592	0.094	-0.080
-418.471	21.138	-0.106	0.086
-417.457	-60.009	-0.246	-0.105
-416.442	76.242	0.147	0.157
-415.428	194.914	0.189	-0.287
-414.413	109.236	-0.139	0.167
-413.398	346.722	-0.111	-0.218
-412.384	598.058	-0.102	-0.254
-411.369	70.136	-0.193	0.200
-410.355	96.135	0.072	-0.083
-409.340	95.161	0.184	0.210
-408.325	-200.000	-0.042	-0.276
-407.311	-7.029	-0.139	0.095
-406.296	136.939	-0.132	0.172
-405.282	-53.970	0.098	-0.045
-404.267	-25.121	-0.132	0.078
-403.252	-46.695	-0.048	-0.023
-402.238	-144.672	0.110	-0.010
-401.223	-171.800	-0.476	-0.016
-400.209	1.155	-0.150	0.108
-399.194	270.443	0.214	0.378
-398.179	-4.604	0.190	0.132
-397.165	111.146	-0.147	0.177
-396.150	494.503	-0.090	-0.206
-395.136	-18.732	-0.132	-0.083
-394.121	-200.000	0.064	-0.339
-393.106	208.357	0.159	0.249
-392.092	-90.437	-0.394	0.115
-391.077	228.058	-0.158	0.258
-390.063	-200.000	0.020	-0.291
-389.048	264.796	0.049	0.085
-388.033	-200.000	-0.067	0.330
-387.019	289.908	0.191	0.348
-386.004	68.165	-0.185	0.190
-384.990	6.081	0.085	-0.063
-383.975	-57.271	0.090	-0.040
-382.960	-56.836	-0.063	-0.028
-381.946	800.000	0.057	-0.181
-380.931	-200.000	0.000	-0.076
-379.917	-66.971	-0.487	0.192
-378.902	546.591	-0.083	0.199
-377.888	96.099	-0.173	-0.198
-376.873	301.000	-0.103	0.190
-375.858	12.552	-0.175	0.135
-374.844	10.275	0.212	-0.161
-373.829	85.353	0.240	0.264
-372.815	800.000	0.103	-0.389
-371.800	444.972	-0.073	-0.161
-370.785	299.300	-0.030	0.055
-369.771	800.000	-0.089	0.304
-368.756	-26.903	0.039	-0.023
-367.742	-200.000	0.010	-0.084
-366.727	800.000	-0.047	-0.194
-365.712	-21.656	-0.236	0.144
-364.698	376.951	0.113	-0.230
-363.683	-22.999	0.300	-0.181
-362.669	-82.246	-0.324	-0.105
-361.654	-129.243	0.064	0.009
-360.639	-200.000	-0.068	-0.394
-359.625	370.473	0.065	-0.131
-358.610	800.000	-0.026	-0.073
-357.596	258.466	0.025	0.043
-356.581	717.446	0.039	-0.103
-355.566	-78.772	-0.214	-0.073
-354.552	-84.931	0.174	-0.055
-353.537	-39.996	-0.154	0.080
-352.523	-200.000	0.009	0.147
-351.508	-101.758	0.297	0.072
-350.493	-91.998	-0.226	-0.064
-349.479	800.000	0.059	-0.184
-348.464	-100.603	0.215	0.053
-347.450	-73.729	0.265	0.096
-346.435	140.118	-0.098	-0.129
-345.420	-48.807	0.064	-0.031
-344.406	94.132	0.064	-0.072
-343.391	-56.663	0.329	0.146
-342.377	119.656	0.131	-0.162
-341.362	-77.363	-0.072	0.025
-340.348	419.616	0.085	-0.182
-339.333	-35.318	0.508	-0.276
-338.318	72.528	0.149	-0.156
-337.304	72.132	-0.206	0.215
-336.289	800.000	0.077	0.251
-335.275	11.119	0.149	-0.114
-334.260	336.850	-0.038	-0.074
-333.245	128.402	0.068	0.086
-332.231	-200.000	-0.042	-0.370
-331.216	-118.576	-0.147	-0.026
-330.202	-179.556	-0.295	-0.006
-329.187	-10.528	0.194	0.128
-328.172	-99.776	-0.227	0.057
-327.158	800.000	0.087	-0.257
-326.143	45.964	0.349	0.323
-325.129	-18.245	-0.217	0.136
-324.114	94.156	-0.089	-0.101
-323.099	800.000	-0.097	0.328
-322.085	-0.675	-0.255	-0.180
-321.070	-20.903	-0.330	0.202
-320.056	-128.629	0.180	0.025
-319.041	39.443	-0.110	0.099
-318.026	-200.000	-0.040	-0.178
-317.012	800.000	0.073	0.318
-315.997	-17.932	0.256	0.161
-314.983	-33.024	0.252	-0.140
-313.968	-115.696	0.061	-0.011
-312.953	-134.823	-0.304	0.037
-311.939	23.969	0.108	0.089
-310.924	65.916	0.231	-0.233
-309.910	-200.000	0.019	0.383
-308.895	800.000	-0.184	0.543
-307.880	-200.000	-0.040	0.208
-306.866	54.028	0.221	0.213
-305.851	-200.000	0.035	0.240
-304.837	-49.632	0.414	-0.197
-303.822	249.880	-0.051	0.087
-302.807	-200.000	-0.015	0.232
-301.793	327.634	0.088	0.169
-300.778	800.000	0.037	0.132
-299.764	-64.143	-0.207	0.084
-298.749	-61.732	-0.124	0.052
-297.735	-58.454	0.183	-0.079
-296.720	231.414	-0.117	0.191
-295.705	-111.418	-0.341	0.069
-294.691	68.219	0.238	0.243
-293.676	251.155	-0.195	0.331
-292.662	-62.866	-0.286	-0.118
-291.647	73.632	0.105	0.110
-290.632	-41.797	0.210	0.107
-289.618	240.332	0.119	0.198
-288.603	57.598	-0.253	0.247
-287.589	800.000	-0.083	0.231
-286.574	800.000	-0.061	0.174
-285.559	30.728	-0.180	0.154
-284.545	-98.701	0.440	-0.112
-283.530	38.139	0.054	-0.048
-282.516	557.547	-0.020	0.047
-281.501	-52.562	0.278	-0.128
-280.486	162.011	0.099	0.138
-279.472	800.000	0.061	-0.173
-278.457	-53.573	-0.076	0.034
-277.443	288.684	-0.077	-0.139
-276.428	210.496	0.110	0.172
-275.413	-200.000	-0.011	0.176
-274.399	208.310	0.034	-0.053
-273.384	-27.743	-0.311	0.180
-272.370	-79.633	0.119	0.040
-271.355	211.411	-0.079	0.125
-270.340	-200.000	-0.014	-0.072
-269.326	-8.747	0.132	0.089
-268.311	-105.704	-0.079	-0.018
-267.297	122.959	0.251	-0.314
-266.282	146.034	-0.189	-0.253
-265.267	204.941	-0.217	-0.336
-264.253	800.000	-0.040	0.111
-263.238	34.438	-0.254	0.221
-262.224	11.647	0.093	0.071
-261.209	-55.067	0.316	0.142
-260.195	-31.228	-0.093	-0.052
-259.180	43.663	-0.142	-0.129
-258.165	79.880	0.031	0.033
-257.151	236.196	0.032	-0.052
-256.136	-157.541	0.147	0.009
-255.122	-200.000	-0.013	0.213
-254.107	189.254	-0.090	0.135
-253.092	161.562	0.056	-0.079
-252.078	-111.364	0.299	0.061
-251.063	362.220	-0.229	0.458
-250.049	-200.000	0.033	0.265
-249.034	-200.000	-0.026	-0.314
-248.019	94.677	-0.184	-0.209
-247.005	-200.000	-0.031	0.232
-245.990	196.970	-0.188	0.285
-244.976	-119.033	-0.212	0.037
-243.961	177.708	-0.151	-0.220
-242.946	35.954	0.269	-0.236
-241.932	800.000	0.072	-0.284
-240.917	-200.000	0.070	0.424
-239.903	128.199	0.124	0.158
-238.888	167.120	-0.088	0.125
-237.873	-98.925	0.217	-0.055
-236.859	-141.707	-0.225	0.022
-235.844	800.000	-0.052	-0.166
-234.830	-73.663	0.474	0.172
-233.815	-123.093	-0.066	-0.011
-232.800	-21.873	0.181	-0.109
-231.786	221.061	0.063	-0.100
-230.771	-102.533	-0.239	-0.057
-229.757	800.000	0.130	-0.375
-228.742	-200.000	0.005	0.119
-227.727	-200.000	0.048	-0.238
-226.713	-200.000	0.017	-0.279
-225.698	53.071	0.108	0.103
-224.684	-200.000	-0.008	-0.219
-223.669	800.000	0.090	0.369
-222.655	142.450	-0.108	0.143
-221.640	-72.099	-0.081	-0.030
-220.625	-29.961	-0.388	-0.220
-219.611	105.056	-0.125	-0.147
-218.596	74.417	-0.164	-0.171
-217.582	105.210	-0.108	-0.127
-216.567	-200.000	-0.012	-0.101
-215.552	-156.456	0.397	0.025
-214.538	800.000	-0.026	0.084
-213.523	-81.571	0.131	-0.043
-212.509	-97.958	-0.360	0.092
-211.494	-200.000	-0.036	-0.159
-210.479	-72.295	-0.294	-0.108
-209.465	-30.135	0.127	0.072
-208.450	-43.331	0.114	0.057
-207.436	-13.681	-0.208	-0.134
-206.421	25.204	0.107	-0.089
-205.406	-45.078	-0.181	0.089
-204.392	57.240	0.151	-0.147
-203.377	-200.000	0.042	0.443
-202.363	-15.894	-0.030	0.019
-201.348	11.405	0.160	-0.122
-200.333	800.000	0.015	-0.064
-199.319	-80.968	0.190	-0.063
-198.304	-151.087	-0.223	-0.017
-197.290	79.632	-0.037	0.040
-196.275	304.483	0.201	0.370
-195.260	66.349	-0.151	-0.152
-194.246	-65.878	-0.090	0.036
-193.231	490.461	0.106	0.241
-192.217	103.491	0.132	-0.154
-191.202	-200.000	0.076	0.354
-190.187	1.943	-0.205	0.147
-189.173	-102.763	0.148	-0.035
-188.158	-63.523	-0.074	-0.030
-187.144	247.021	0.079	-0.132
-186.129	-39.045	-0.075	-0.039
-185.114	-200.000	-0.008	-0.190
-184.100	114.511	-0.229	-0.277
-183.085	800.000	-0.074	-0.206
-182.071	-4.404	0.181	0.124
-181.056	-86.552	0.280	-0.085
-180.042	-183.662	0.387	-0.007
-179.027	14.368	0.140	-0.108
-178.012	-200.000	0.012	0.128
-176.998	-37.080	0.150	0.080
-175.983	-53.806	0.253	-0.115
-174.969	-200.000	-0.013	0.240
-173.954	-200.000	-0.032	-0.159
-172.939	-200.000	-0.073	-0.364
-171.925	465.396	-0.099	0.219
-170.910	63.566	0.102	-0.102
-169.896	28.811	0.317	0.267
-168.881	-200.000	-0.019	0.141
-167.866	-200.000	-0.053	-0.370
-166.852	236.673	0.151	0.248
-165.837	-200.000	0.065	0.282
-164.823	-200.000	-0.001	0.114
-163.808	-85.297	0.233	0.072
-162.793	-90.827	-0.081	0.023
-161.779	455.904	0.119	0.262
-160.764	69.301	0.089	-0.091
-159.750	21.060	-0.142	0.114
-158.735	-5.231	0.173	0.118
-157.720	-200.000	0.050	0.219
-156.706	164.563	0.235	0.329
-155.691	-200.000	0.023	-0.155
-154.677	-5.123	0.126	-0.086
-153.662	-5.502	-0.304	0.207
-152.647	-49.406	0.240	0.114
-151.633	-38.645	0.207	-0.109
-150.618	-30.167	0.107	-0.060
-149.604	344.361	0.104	0.203
-148.589	-171.694	0.271	-0.009
-147.574	-124.995	0.334	-0.051
-146.560	-7.245	-0.342	-0.230
-145.545	190.162	0.052	0.077
-144.531	-113.276	-0.101	0.020
-143.516	-94.519	0.077	0.021
-142.502	-44.779	-0.292	0.144
-141.487	800.000	0.027	-0.093
-140.472	-6.723	-0.014	-0.009
-139.458	41.483	-0.333	0.299
-138.443	-159.410	0.510	-0.028
-137.429	-200.000	0.001	0.100
-136.414	-162.577	-0.114	-0.006
-135.399	-110.108	-0.385	0.080
-134.385	-162.961	0.288	0.014
-133.370	-200.000	-0.011	0.444
-132.356	-89.202	0.522	-0.153
-131.341	107.866	-0.113	0.133
-130.326	74.382	0.190	-0.198
-129.312	133.491	-0.153	-0.196
-128.297	3.338	0.174	-0.126
-127.283	-32.398	-0.338	-0.187
-126.268	-200.000	-0.014	0.464
-125.253	234.529	0.230	0.377
-124.239	800.000	-0.116	0.406
-123.224	-120.890	-0.344	0.057
-122.210	-200.000	0.087	-0.000
-121.195	-200.000	-0.008	-0.064
-120.180	102.303	-0.077	-0.089
-119.166	170.545	0.162	0.230
-118.151	-96.106	0.232	0.061
-117.137	-87.052	0.143	-0.043
-116.122	-24.848	-0.215	-0.126
-115.107	-84.272	0.068	0.021
-114.093	-153.638	0.211	0.014
-113.078	92.301	0.103	-0.115
-112.064	36.072	-0.230	0.201
-111.049	800.000	0.140	0.421
-110.034	-56.953	-0.119	-0.052
-109.020	-57.765	0.287	-0.124
-108.005	91.303	0.140	0.156
-106.991	39.095	-0.117	0.104
-105.976	-108.181	-0.218	-0.047
-104.962	-33.549	0.010	-0.006
-103.947	9.280	0.193	-0.145
-102.932	-82.111	-0.178	-0.058
-101.918	-46.163	-0.221	0.108
-100.903	110.293	-0.118	0.140
-99.889	-200.000	0.033	-0.306
-98.874	-54.376	-0.212	0.095
-97.859	-200.000	0.016	-0.100
-96.845	47.234	-0.180	-0.166
-95.830	72.878	0.106	0.110
-94.816	-200.000	0.048	0.367
-93.801	118.978	0.161	-0.197
-92.786	-41.138	-0.229	0.117
-91.772	-38.450	-0.160	0.084
-90.757	-200.000	0.041	0.236
-89.743	8.337	0.378	0.282
-88.728	163.880	0.096	0.134
-87.713	260.692	0.204	-0.350
-86.699	-84.420	0.061	-0.019
-85.684	-200.000	0.007	-0.309
-84.670	599.350	0.093	-0.230
-83.655	137.513	-0.092	0.120
-82.640	-98.906	-0.155	-0.039
-81.626	320.795	0.194	-0.365
-80.611	186.774	0.108	0.159
-79.597	-24.459	0.295	0.174
-78.582	-103.218	-0.171	0.040
-77.567	-124.312	0.225	0.035
-76.553	800.000	-0.038	-0.152
-75.538	-138.537	0.257	-0.028
-74.524	800.000	0.045	-0.174
-73.509	-161.766	-0.260	0.013
-72.494	-200.000	-0.001	-0.049
-71.480	133.250	0.075	0.096
-70.465	-200.000	-0.003	-0.154
-69.451	104.920	-0.097	0.113
-68.436	800.000	-0.092	0.369
-67.422	-113.099	0.179	0.035
-66.407	-30.141	-0.233	-0.131
-65.392	395.453	-0.100	-0.207
-64.378	-200.000	0.012	0.085
-63.363	-136.332	-0.436	0.050
-62.349	-200.000	-0.004	-0.133
-61.334	45.218	-1.133	-1.033
-60.319	99.929	0.441	0.505
-59.305	-200.000	-0.076	-0.944
-58.290	190.873	0.843	1.254
-57.276	800.000	0.522	1.761
-56.261	-200.000	95.672	598.190
-55.246	564.893	1364.479	3270.403
-54.232	159.571	2547.484	3506.372
-53.217	103.507	2295.430	2663.571
-52.203	38.763	2058.782	1817.322
-51.188	33.856	1974.107	1698.755
-50.173	32.368	1955.785	1669.724
-49.159	47.099	2005.617	1845.021
-48.144	48.679	2023.079	1875.219
-47.130	34.489	1985.111	1713.649
-46.115	32.177	1974.523	1683.745
-45.100	32.099	1971.900	1680.745
-44.086	32.033	1969.767	1678.270
-43.071	31.972	1966.938	1675.246
-42.057	31.854	1965.243	1672.686
-41.042	31.998	1962.745	1671.776
-40.027	32.059	1960.242	1670.121
-39.013	32.035	1958.807	1668.616
-37.998	32.062	1957.048	1667.294
-36.984	31.938	1955.595	1664.892
-35.969	32.106	1953.046	1664.145
-34.954	32.077	1951.338	1662.362
-33.940	32.181	1950.150	1662.202
-32.925	32.137	1948.643	1660.464
-31.911	32.232	1946.363	1659.295
-30.896	32.208	1944.967	1657.825
-29.881	32.172	1943.827	1656.476
-28.867	32.239	1941.598	1655.093
-27.852	32.158	1940.312	1653.222
-26.838	32.230	1937.909	1651.744
-25.823	32.122	1936.655	1649.663
-24.809	32.219	1934.703	1648.786
-23.794	32.221	1933.032	1647.309
-22.779	32.132	1931.427	1645.102
-21.765	32.162	1929.380	1643.552
-20.750	32.095	1928.235	1641.922
-19.736	32.158	1926.738	1641.132
-18.721	32.185	1924.704	1639.576
-17.706	32.190	1923.156	1638.229
-16.692	32.150	1921.664	1636.552
-15.677	32.137	1920.167	1635.097
-14.663	32.173	1918.817	1634.191
-13.648	32.132	1917.952	1633.034
-12.633	32.145	1916.830	1632.127
-11.619	32.124	1915.563	1630.806
-10.604	32.204	1913.643	1629.799
-9.590	32.066	1912.540	1627.597
-8.575	32.162	1910.860	1626.936
-7.560	32.151	1909.826	1625.893
-6.546	32.156	1908.517	1624.755
-5.531	32.169	1907.243	1623.721
-4.517	32.139	1905.591	1621.992
-3.502	32.144	1904.519	1621.057
-2.487	32.201	1903.353	1620.492
-1.473	32.269	1902.469	1620.265
-0.458	32.228	1897.912	1615.962
0.556	32.523	1878.671	1589.212
1.571	28.534	1859.983	1539.854
2.586	24.932	1882.554	1527.735
3.600	23.959	1918.879	1548.613
4.615	23.663	1913.806	1541.812
5.629	18.323	1812.962	1416.386
6.644	8.064	1692.618	1242.625
7.659	2.655	1654.590	1173.285
8.673	2.242	1650.575	1167.178
9.688	2.215	1649.376	1166.026
10.702	2.180	1648.449	1165.001
11.717	1.963	1645.112	1160.888
12.731	2.489	1643.686	1163.779
13.746	9.277	1660.785	1227.772
14.761	20.012	1684.095	1327.614
15.775	25.650	1694.670	1379.189
16.790	26.758	1695.442	1388.183
17.804	26.899	1695.308	1389.031
18.819	26.864	1694.735	1388.169
19.834	26.921	1694.021	1387.903
20.848	27.133	1693.867	1389.269
21.863	27.299	1692.656	1389.420
22.877	27.227	1692.040	1388.247
23.892	27.307	1690.824	1387.735
24.907	27.331	1689.717	1386.889
25.921	27.243	1689.335	1385.775
26.936	27.271	1688.071	1384.834
27.950	27.270	1687.247	1384.030
28.965	27.205	1686.340	1382.665
29.980	27.338	1685.517	1382.878
30.994	27.315	1684.138	1381.449
32.009	27.308	1682.871	1380.235
33.023	27.305	1681.547	1379.005
34.038	27.216	1681.112	1377.849
35.053	27.288	1680.110	1377.457
36.067	27.324	1678.984	1376.679
37.082	27.382	1678.001	1376.195
38.096	27.362	1676.827	1374.954
39.111	27.315	1676.494	1374.205
40.126	27.318	1675.355	1373.173
41.140	27.292	1674.913	1372.496
42.155	27.284	1673.525	1371.175
43.169	27.305	1672.383	1370.276
44.184	27.272	1671.484	1369.171
45.199	27.374	1670.255	1368.806
46.213	27.155	1669.892	1366.742
47.228	27.209	1668.580	1365.953
48.242	27.320	1667.119	1365.469
49.257	27.299	1665.965	1364.249
50.271	27.337	1664.771	1363.437
51.286	27.263	1663.844	1361.998
52.301	27.293	1662.679	1361.154
53.315	27.275	1661.339	1359.796
54.330	27.237	1659.896	1358.216
55.344	27.252	1658.389	1356.973
56.359	27.251	1656.910	1355.635
57.374	27.302	1655.966	1355.121
58.388	27.235	1655.088	1353.783
59.403	27.401	1653.424	1353.538
60.417	27.264	1653.281	1352.282
61.432	27.302	1652.004	1351.403
62.447	27.260	1650.689	1349.897
63.461	27.316	1649.481	1349.199
64.476	27.345	1648.543	1348.528
65.490	27.283	1647.884	1347.411
66.505	27.296	1646.249	1346.054
67.520	27.305	1645.586	1345.459
68.534	27.319	1644.341	1344.424
69.549	27.337	1643.116	1343.441
70.563	27.356	1642.300	1342.789
71.578	27.359	1640.933	1341.579
72.593	27.324	1640.552	1340.890
73.607	27.327	1639.705	1340.097
74.622	27.357	1638.415	1339.149
75.636	27.296	1637.768	1338.049
76.651	27.456	1636.545	1338.108
77.666	27.305	1635.859	1336.325
78.680	27.347	1634.891	1335.718
79.695	27.339	1633.942	1334.771
80.709	27.354	1633.049	1334.032
81.724	27.320	1632.174	1332.952
82.739	27.320	1631.897	1332.607
83.753	27.318	1630.056	1330.968
84.768	27.368	1629.119	1330.452
85.782	27.311	1628.417	1329.343
86.797	27.249	1627.798	1328.267
87.812	27.296	1626.994	1327.836
88.826	27.403	1625.868	1327.584
89.841	27.332	1625.035	1326.265
90.855	27.372	1624.106	1325.682
91.870	27.443	1622.707	1324.943
92.884	27.289	1622.018	1323.137
93.899	27.339	1620.794	1322.388
94.914	27.381	1619.509	1321.531
95.928	27.433	1618.013	1320.564
96.943	27.399	1617.050	1319.415
97.957	27.348	1616.404	1318.404
98.972	27.346	1614.731	1316.912
99.987	27.410	1613.430	1316.190
101.001	27.382	1612.024	1314.729
102.016	27.331	1611.206	1313.578
103.030	27.252	1609.846	1311.783
104.045	27.193	1609.463	1310.926
105.060	27.337	1607.497	1310.244
106.074	27.351	1605.986	1309.003
107.089	27.426	1604.704	1308.381
108.103	27.437	1603.569	1307.420
109.118	27.410	1602.452	1306.199
110.133	27.411	1600.940	1304.858
111.147	27.399	1600.159	1304.018
112.162	27.411	1598.950	1303.006
113.176	27.351	1597.812	1301.535
114.191	27.419	1596.981	1301.223
115.206	27.417	1595.905	1300.222
116.220	27.376	1594.392	1298.578
117.235	27.512	1592.697	1298.053
118.249	27.470	1592.015	1297.083
119.264	27.287	1591.700	1295.409
120.279	27.393	1590.138	1294.775
121.293	27.382	1589.026	1293.680
122.308	27.492	1587.524	1293.120
123.322	27.458	1586.535	1291.961
124.337	27.484	1585.206	1290.950
125.352	27.425	1584.450	1289.799
126.366	27.471	1583.185	1288.986
127.381	27.488	1582.847	1288.715
128.395	27.479	1581.674	1287.584
129.410	27.525	1580.337	1286.701
130.424	27.475	1579.484	1285.542
131.439	27.449	1578.103	1284.120
132.454	27.473	1576.972	1283.254
133.468	27.432	1575.571	1281.711
134.483	27.454	1573.972	1280.455
135.497	27.531	1572.632	1279.791
136.512	27.462	1572.113	1278.771
137.527	27.447	1571.069	1277.702
138.541	27.450	1569.579	1276.403
139.556	27.459	1568.670	1275.612
140.570	27.485	1568.066	1275.188
141.585	27.448	1566.502	1273.545
142.600	27.455	1565.149	1272.385
143.614	27.473	1564.382	1271.770
144.629	27.505	1563.081	1270.827
145.643	27.507	1562.248	1270.049
146.658	27.542	1560.623	1268.859
147.673	27.471	1559.279	1267.159
148.687	27.432	1558.195	1265.894
149.702	27.456	1557.285	1265.211
150.716	27.517	1555.787	1264.307
151.731	27.495	1554.814	1263.251
152.746	27.453	1554.291	1262.423
153.760	27.440	1552.738	1260.964
154.775	27.525	1551.898	1260.758
155.789	27.467	1550.976	1259.493
156.804	27.476	1549.845	1258.526
157.819	27.505	1549.152	1258.050
158.833	27.567	1547.706	1257.196
159.848	27.501	1546.975	1256.033
160.862	27.667	1545.953	1256.236
161.877	27.649	1544.706	1254.991
162.892	27.644	1543.881	1254.175
163.906	27.643	1543.040	1253.373
164.921	27.627	1542.236	1252.499
165.935	27.714	1541.230	1252.164
166.950	27.743	1539.983	1251.240
167.964	27.594	1539.197	1249.470
168.979	27.649	1538.683	1249.322
169.994	27.559	1537.916	1247.971
171.008	27.681	1536.674	1247.686
172.023	27.650	1535.733	1246.601
173.037	27.711	1534.957	1246.280
174.052	27.685	1533.357	1244.693
175.067	27.692	1532.624	1244.033
176.081	27.594	1532.274	1242.969
177.096	27.482	1531.240	1241.255
178.110	27.675	1529.811	1241.306
179.125	27.721	1528.450	1240.402
180.140	27.661	1528.101	1239.600
181.154	27.740	1526.965	1239.109
182.169	27.680	1525.918	1237.739
183.183	27.684	1524.972	1236.890
184.198	27.550	1524.842	1235.766
185.213	27.695	1523.667	1235.685
186.227	27.724	1522.703	1234.994
187.242	27.794	1521.977	1234.770
188.256	27.907	1520.238	1234.010
189.271	27.799	1520.012	1232.990
190.286	27.844	1519.143	1232.478
191.300	27.808	1518.351	1231.485
192.315	27.764	1517.723	1230.572
193.329	27.670	1516.564	1228.888
194.344	27.742	1515.389	1228.315
195.359	27.718	1515.362	1228.022
196.373	27.775	1514.633	1227.705
197.388	27.731	1513.653	1226.505
198.402	27.689	1512.521	1225.197
199.417	27.641	1511.494	1223.937
200.432	27.664	1510.739	1223.370
201.446	27.855	1509.332	1223.399
202.461	27.792	1508.625	1222.298
203.475	27.682	1508.123	1221.046
204.490	27.699	1507.064	1220.195
205.504	27.744	1506.207	1219.693
206.519	27.728	1505.483	1218.894
207.534	27.743	1504.842	1218.367
208.548	27.818	1503.702	1217.839
209.563	27.770	1503.037	1216.868
210.577	27.827	1502.005	1216.308
211.592	27.828	1501.136	1215.501
212.607	27.773	1500.736	1214.702
213.621	27.866	1500.020	1214.634
214.636	27.914	1499.157	1214.149
215.650	27.923	1498.449	1213.528
216.665	27.886	1497.631	1212.513
217.680	27.935	1496.839	1212.086
218.694	27.849	1495.770	1210.544
219.709	27.862	1495.206	1210.065
220.723	27.833	1494.149	1208.914
221.738	27.977	1493.241	1209.025
222.753	27.762	1493.201	1207.465
223.767	27.809	1491.998	1206.697
224.782	27.793	1490.868	1205.565
225.796	27.822	1490.247	1205.152
226.811	27.938	1489.845	1205.483
227.826	28.001	1488.615	1204.799
228.840	27.913	1488.230	1203.803
229.855	27.932	1487.332	1203.093
230.869	27.896	1486.454	1202.037
231.884	27.971	1485.508	1201.662
232.899	27.942	1484.413	1200.480
233.913	27.862	1483.577	1199.171
234.928	27.904	1482.590	1198.541
235.942	27.993	1481.197	1197.894
236.957	27.955	1480.496	1196.971
237.972	28.003	1479.372	1196.270
238.986	28.048	1477.690	1195.099
240.001	28.044	1477.198	1194.570
241.015	28.003	1476.564	1193.682
242.030	28.182	1475.125	1193.584
243.045	28.177	1474.683	1193.085
244.059	28.103	1474.343	1192.222
245.074	28.130	1473.251	1191.407
246.088	28.082	1472.371	1190.278
247.103	28.138	1471.347	1189.709
248.117	28.226	1470.431	1189.436
249.132	28.181	1470.126	1188.790
250.147	28.195	1469.199	1188.031
251.161	28.158	1468.855	1187.408
252.176	28.228	1468.205	1187.231
253.190	28.147	1467.131	1185.733
254.205	28.154	1466.421	1185.099
255.220	28.250	1465.504	1184.874
256.234	28.243	1464.762	1184.124
257.249	28.218	1464.154	1183.367
258.263	28.194	1463.586	1182.648
259.278	28.271	1462.265	1181.971
260.293	28.334	1461.022	1181.270
261.307	28.323	1460.289	1180.503
262.322	28.310	1460.248	1180.279
263.336	28.320	1459.420	1179.570
264.351	28.423	1457.925	1178.920
265.366	28.287	1457.474	1177.578
266.380	28.310	1456.410	1176.759
267.395	28.240	1455.543	1175.506
268.409	28.340	1454.605	1175.285
269.424	28.239	1453.882	1173.949
270.439	28.201	1453.462	1173.263
271.453	28.327	1452.323	1173.046
272.468	28.355	1451.496	1172.457
273.482	28.321	1451.001	1171.732
274.497	28.316	1450.079	1170.853
275.512	28.322	1449.261	1170.126
276.526	28.352	1448.572	1169.660
277.541	28.366	1447.638	1168.893
278.555	28.359	1446.889	1168.140
279.570	28.295	1446.321	1167.166
280.585	28.350	1445.068	1166.401
281.599	28.365	1444.635	1166.048
282.614	28.450	1443.363	1165.454
283.628	28.417	1442.461	1164.415
284.643	28.350	1441.652	1163.238
285.657	28.386	1441.078	1162.894
286.672	28.428	1439.763	1161.999
287.687	28.396	1439.086	1161.144
288.701	28.402	1438.383	1160.516
289.716	28.453	1437.461	1159.991
290.730	28.449	1437.144	1159.611
291.745	28.434	1436.169	1158.624
292.760	28.448	1435.567	1158.122
293.774	28.526	1434.445	1157.606
294.789	28.557	1433.328	1156.799
295.803	28.606	1432.868	1156.632
296.818	28.553	1431.955	1155.464
297.833	28.582	1430.990	1154.766
298.847	28.524	1430.134	1153.606
299.862	28.504	1429.510	1152.876
300.876	28.588	1428.753	1152.688
301.891	28.598	1427.736	1151.829
302.906	28.576	1427.005	1151.002
303.920	28.666	1426.360	1150.939
304.935	28.703	1426.037	1150.813
305.949	28.690	1425.262	1150.004
306.964	28.597	1423.928	1148.240
307.979	28.668	1423.185	1147.988
308.993	28.663	1422.415	1147.230
310.008	28.669	1421.626	1146.529
311.022	28.733	1420.693	1146.080
312.037	28.664	1420.071	1145.043
313.052	28.642	1419.093	1144.017
314.066	28.679	1417.941	1143.217
315.081	28.806	1416.648	1142.864
316.095	28.712	1415.999	1141.653
317.110	28.784	1415.378	1141.502
318.125	28.698	1414.575	1140.220
319.139	28.759	1413.835	1139.898
320.154	28.736	1413.121	1139.080
321.168	28.841	1411.716	1138.497
322.183	28.730	1411.594	1137.612
323.197	28.788	1410.361	1136.873
324.212	28.806	1409.487	1136.181
325.227	28.882	1408.298	1135.595
326.241	28.888	1407.568	1134.939
327.256	28.838	1406.776	1133.890
328.270	28.977	1406.445	1134.385
329.285	28.785	1405.630	1132.438
330.300	28.818	1404.774	1131.852
331.314	28.876	1404.155	1131.611
332.329	28.865	1403.076	1130.578
333.343	28.887	1402.461	1130.113
334.358	29.022	1401.823	1130.332
335.373	28.955	1401.132	1129.260
336.387	28.977	1400.447	1128.747
337.402	29.021	1399.646	1128.269
338.416	29.006	1399.421	1127.896
339.431	29.059	1398.205	1127.143
340.446	29.041	1397.912	1126.694
341.460	29.155	1396.714	1126.326
342.475	29.077	1396.038	1125.207
343.489	29.167	1395.199	1124.978
344.504	29.135	1394.712	1124.292
345.519	28.954	1393.972	1122.491
346.533	29.015	1392.719	1121.751
347.548	29.016	1392.144	1121.196
348.562	29.120	1391.202	1120.975
349.577	29.127	1389.792	1119.782
350.592	29.122	1389.700	1119.579
351.606	29.055	1388.774	1118.327
352.621	29.058	1387.660	1117.350
353.635	29.148	1386.529	1116.881
354.650	29.101	1385.942	1116.028
355.665	29.199	1385.380	1116.070
356.679	29.087	1384.312	1114.430
357.694	29.222	1383.070	1114.149
358.708	29.200	1382.179	1113.199
359.723	29.270	1381.161	1112.706
360.738	29.200	1379.788	1111.077
361.752	29.150	1378.928	1109.986
362.767	29.251	1377.455	1109.309
363.781	29.220	1377.000	1108.661
364.796	29.253	1376.303	1108.199
365.810	29.322	1375.629	1107.971
366.825	29.269	1375.142	1107.165
367.840	29.279	1374.229	1106.389
368.854	29.340	1373.696	1106.229
369.869	29.400	1373.175	1106.074
370.883	29.347	1372.458	1105.076
371.898	29.322	1371.598	1104.138
372.913	29.437	1370.939	1104.196
373.927	29.355	1369.879	1102.757
374.942	29.378	1369.136	1102.200
375.956	29.481	1368.427	1102.146
376.971	29.442	1367.525	1101.089
377.986	29.567	1366.425	1100.852
379.000	29.412	1366.204	1099.652
380.015	29.447	1365.722	1099.374
381.029	29.499	1364.999	1099.007
382.044	29.413	1364.450	1097.953
383.059	29.410	1364.149	1097.596
384.073	29.447	1363.126	1096.897
385.088	29.397	1362.919	1096.336
386.102	29.483	1362.086	1096.082
387.117	29.551	1361.728	1096.100
388.132	29.538	1360.966	1095.309
389.146	29.548	1359.987	1094.487
390.161	29.552	1359.106	1093.705
391.175	29.623	1358.319	1093.391
392.190	29.592	1357.782	1092.683
393.205	29.650	1356.918	1092.230
394.219	29.661	1355.594	1091.135
395.234	29.559	1355.363	1090.250
396.248	29.600	1354.177	1089.439
397.263	29.619	1353.232	1088.698
398.278	29.697	1351.923	1088.004
399.292	29.580	1351.486	1086.867
400.307	29.730	1350.206	1086.626
401.321	29.691	1349.501	1085.734
402.336	29.710	1348.167	1084.675
403.350	29.721	1347.243	1083.902
404.365	29.685	1346.351	1082.873
405.380	29.736	1345.648	1082.512
406.394	29.747	1345.103	1082.045
407.409	29.710	1344.096	1080.921
408.423	29.839	1343.784	1081.331
409.438	29.869	1342.909	1080.701
410.453	29.840	1342.518	1080.123
411.467	29.819	1341.509	1079.092
412.482	29.874	1340.611	1078.597
413.496	29.924	1339.893	1078.213
414.511	29.914	1339.522	1077.763
415.526	29.788	1338.984	1076.500
416.540	29.871	1338.182	1076.242
417.555	29.978	1337.432	1076.166
418.569	29.870	1337.025	1075.118
419.584	29.925	1336.231	1074.706
420.599	29.966	1335.862	1074.548
421.613	95.773	1353.989	1458.346
422.628	95.301	1356.548	1458.460
