DTS Sentinel unit serial number:	SN413079Multiplexer serial number:	ORYXHardware model number:	OX4-SRSoftware version number:	ORYX F/W v4.00 Oryx Data Collector v3.7.2.0data status	okinstallation	princeton_trtdifferential loss correction	single-endedforward channel	channel 4reverse channel	N/Adate	2019/09/10time	23:51:11forward acquisition time	60.00reverse acquisition time	0.00gamma	496.2192k internal	0.2317k external	0.2317temperature offset calibration	0.9950default loss term (dB/km)	0.3790temperature slope calibration	1.0000multiplexer offset coefficient	1.0000multiplexer slope coefficient	1.0000fibre end	0.00T internal ref (°C)	29.50T ext. ref 1 (°C)	-0.31T ext. ref 2 (°C)	22.89length (m)	temperature (°C)	Stokes	anti-Stokes-747.200	-200.000	-0.022	0.257
-746.185	455.687	-0.187	0.420
-745.171	-172.231	-0.286	0.009
-744.156	-32.072	-0.232	0.132
-743.142	516.811	0.074	0.176
-742.127	-200.000	-0.070	0.396
-741.112	-87.287	0.118	0.036
-740.098	-65.854	-0.425	0.172
-739.083	-156.236	0.179	0.011
-738.069	-93.930	0.161	0.045
-737.054	-125.237	-0.116	-0.018
-736.039	-200.000	0.026	-0.391
-735.025	-200.000	-0.001	-0.064
-734.010	-87.805	0.178	0.054
-732.996	209.854	-0.288	-0.457
-731.981	73.002	-0.035	-0.037
-730.966	18.978	-0.302	-0.245
-729.952	800.000	0.092	-0.368
-728.937	244.672	-0.116	0.198
-727.923	725.303	-0.092	0.249
-726.908	-200.000	0.055	-0.346
-725.894	634.652	0.114	-0.292
-724.879	-63.544	-0.104	-0.043
-723.864	-192.623	-0.214	-0.002
-722.850	-32.145	0.241	-0.136
-721.835	349.419	0.049	-0.097
-720.821	690.441	0.042	0.112
-719.806	800.000	-0.112	0.428
-718.791	-90.261	-0.337	-0.099
-717.777	-134.211	-0.246	-0.031
-716.762	-141.699	-0.222	-0.023
-715.748	-53.142	-0.393	-0.183
-714.733	-200.000	0.038	0.278
-713.718	-94.807	-0.240	-0.066
-712.704	-174.746	-0.428	0.012
-711.689	158.864	0.116	-0.163
-710.675	43.685	0.082	-0.076
-709.660	-200.000	0.072	-0.390
-708.645	572.500	-0.097	-0.239
-707.631	-32.287	-0.051	-0.029
-706.616	800.000	-0.044	0.147
-705.602	-76.464	0.129	0.046
-704.587	287.684	-0.071	0.131
-703.572	-97.936	0.245	-0.064
-702.558	-103.520	0.213	-0.051
-701.543	-155.625	-0.382	-0.025
-700.529	-28.511	0.354	0.206
-699.514	800.000	0.115	0.504
-698.499	-200.000	-0.000	-0.202
-697.485	46.407	0.061	-0.057
-696.470	-182.600	0.174	0.003
-695.456	-94.457	-0.277	-0.076
-694.441	-118.878	-0.165	-0.029
-693.426	-200.000	-0.005	0.048
-692.412	139.595	-0.099	0.131
-691.397	-127.886	-0.226	-0.033
-690.383	117.514	0.100	0.124
-689.368	-47.789	-0.164	-0.080
-688.354	54.922	-0.225	-0.220
-687.339	397.943	-0.037	-0.079
-686.324	126.423	-0.119	0.152
-685.310	-153.462	0.043	0.003
-684.295	-96.140	-0.162	0.044
-683.281	33.773	-0.256	-0.225
-682.266	-133.643	-0.166	-0.021
-681.251	800.000	-0.038	-0.156
-680.237	15.041	-0.190	-0.151
-679.222	-29.367	0.271	-0.157
-678.208	-200.000	-0.004	-0.024
-677.193	12.716	0.163	-0.127
-676.178	481.534	0.068	-0.156
-675.164	-200.000	0.093	0.431
-674.149	-11.364	0.385	-0.256
-673.135	-172.403	-0.395	0.013
-672.120	-76.465	0.059	-0.021
-671.105	445.084	0.096	-0.212
-670.091	-90.603	-0.134	-0.039
-669.076	-200.000	0.093	-0.527
-668.062	-200.000	-0.015	-0.136
-667.047	-11.521	0.115	0.076
-666.032	-200.000	-0.009	-0.215
-665.018	-122.317	0.349	-0.057
-664.003	-4.663	-0.177	0.124
-662.989	88.335	-0.252	-0.283
-661.974	-200.000	0.004	0.228
-660.959	-89.171	-0.338	0.101
-659.945	475.193	-0.189	0.430
-658.930	-105.057	-0.131	-0.030
-657.916	-168.732	-0.223	-0.009
-656.901	-200.000	-0.021	-0.270
-655.886	-87.357	0.177	-0.054
-654.872	29.329	0.183	-0.157
-653.857	195.185	-0.242	-0.371
-652.843	0.275	0.111	0.080
-651.828	-199.356	0.353	0.002
-650.814	-127.070	-0.107	0.016
-649.799	114.722	-0.098	0.121
-648.784	-62.189	-0.149	0.063
-647.770	800.000	-0.095	0.346
-646.755	800.000	0.110	-0.332
-645.741	256.744	0.204	-0.353
-644.726	-41.726	-0.200	-0.104
-643.711	-200.000	-0.026	0.125
-642.697	146.431	-0.122	0.166
-641.682	556.813	0.145	0.351
-640.668	-46.924	-0.174	0.086
-639.653	-129.835	-0.167	-0.023
-638.638	-200.000	-0.031	-0.205
-637.624	47.499	-0.146	0.137
-636.609	257.916	0.107	0.186
-635.595	43.732	0.144	-0.133
-634.580	184.129	-0.066	0.098
-633.565	800.000	-0.138	0.451
-632.551	-200.000	0.034	0.303
-631.536	-56.163	-0.257	-0.115
-630.522	-173.272	0.307	0.009
-629.507	80.008	-0.158	0.171
-628.492	-62.642	0.114	-0.048
-627.478	-200.000	-0.041	-0.226
-626.463	233.979	0.031	-0.051
-625.449	-109.808	0.017	0.004
-624.434	-94.538	-0.009	0.003
-623.419	460.206	-0.054	-0.121
-622.405	-155.137	-0.296	-0.019
-621.390	-200.000	-0.004	-0.259
-620.376	800.000	0.082	-0.352
-619.361	-83.064	-0.222	0.072
-618.346	16.131	-0.371	0.295
-617.332	738.838	0.116	-0.312
-616.317	-44.678	-0.240	-0.121
-615.303	-200.000	-0.033	-0.240
-614.288	45.365	0.067	-0.062
-613.273	121.766	0.117	0.148
-612.259	-84.720	0.083	0.026
-611.244	-97.094	-0.242	-0.064
-610.230	-114.140	-0.252	-0.049
-609.215	25.013	-0.131	0.109
-608.201	800.000	0.095	-0.356
-607.186	-111.886	0.250	0.051
-606.171	-7.512	-0.102	-0.070
-605.157	-100.166	0.335	-0.084
-604.142	-64.190	-0.190	-0.078
-603.128	431.499	-0.172	0.376
-602.113	351.875	-0.062	0.124
-601.098	681.426	-0.108	0.284
-600.084	740.004	-0.054	-0.146
-599.069	-109.834	-0.133	-0.028
-598.055	441.674	-0.132	-0.292
-597.040	215.757	0.063	-0.100
-596.025	-142.637	-0.061	-0.006
-595.011	173.796	-0.188	0.273
-593.996	-77.804	-0.302	-0.105
-592.982	140.794	-0.189	0.251
-591.967	-99.523	-0.182	0.046
-590.952	35.391	0.259	-0.228
-589.938	-182.372	-0.250	-0.005
-588.923	524.862	-0.063	0.148
-587.909	360.384	-0.096	-0.194
-586.894	-123.112	0.476	-0.077
-585.879	96.512	0.158	-0.183
-584.865	166.716	-0.166	0.237
-583.850	266.376	0.159	0.279
-582.836	800.000	-0.106	-0.304
-581.821	-86.697	-0.361	-0.111
-580.806	-99.175	-0.358	-0.091
-579.792	395.316	0.107	-0.225
-578.777	153.512	0.096	-0.132
-577.763	-142.535	0.122	0.012
-576.748	-200.000	0.062	-0.281
-575.733	-100.396	-0.094	0.023
-574.719	-114.002	-0.175	0.034
-573.704	33.478	0.098	-0.086
-572.690	-138.817	0.091	-0.010
-571.675	800.000	-0.050	-0.151
-570.661	82.126	0.195	-0.213
-569.646	-100.945	-0.218	0.054
-568.631	-200.000	-0.077	0.348
-567.617	-180.742	0.185	0.004
-566.602	-18.313	0.234	-0.147
-565.588	-123.853	0.199	-0.032
-564.573	148.561	-0.103	-0.139
-563.558	-100.683	0.376	-0.093
-562.544	-200.000	0.006	-0.167
-561.529	-200.000	0.003	-0.029
-560.515	-62.442	0.158	-0.066
-559.500	16.714	0.262	0.209
-558.485	-30.995	-0.182	-0.104
-557.471	-136.950	0.178	0.021
-556.456	124.747	0.153	-0.194
-555.442	-28.139	0.489	0.284
-554.427	177.021	-0.093	-0.136
-553.412	-85.454	-0.094	-0.029
-552.398	156.400	-0.170	0.235
-551.383	-108.829	0.380	0.082
-550.369	-183.473	-0.125	0.002
-549.354	-200.000	-0.029	0.133
-548.339	-200.000	-0.003	-0.242
-547.325	21.678	0.077	-0.063
-546.310	-171.783	-0.291	0.010
-545.296	800.000	0.055	-0.181
-544.281	51.118	-0.130	-0.124
-543.266	9.596	-0.168	0.128
-542.252	-8.323	0.263	-0.178
-541.237	376.622	-0.089	-0.183
-540.223	15.337	0.064	0.050
-539.208	-64.124	-0.011	-0.004
-538.193	-200.000	0.021	0.099
-537.179	-29.634	0.257	-0.147
-536.164	-76.470	0.132	0.046
-535.150	205.827	-0.155	-0.243
-534.135	411.560	0.027	0.057
-533.121	-200.000	0.044	0.212
-532.106	800.000	-0.035	0.145
-531.091	-98.246	-0.289	-0.074
-530.077	-123.062	0.061	-0.010
-529.062	36.109	-0.099	-0.088
-528.048	17.829	0.150	-0.120
-527.033	-200.000	-0.017	0.137
-526.018	-142.578	-0.448	-0.044
-525.004	-200.000	0.008	-0.100
-523.989	22.338	-0.066	-0.054
-522.975	-21.947	0.279	0.170
-521.960	-14.313	0.210	0.136
-520.945	43.555	-0.064	0.059
-519.931	12.177	-0.252	-0.195
-518.916	76.515	0.196	-0.208
-517.902	-200.000	-0.007	0.137
-516.887	-90.912	0.237	-0.069
-515.872	-200.000	-0.009	0.262
-514.858	187.560	-0.180	-0.270
-513.843	-75.171	0.128	-0.046
-512.829	-114.046	-0.180	0.035
-511.814	-16.571	-0.218	0.139
-510.799	-200.000	-0.000	-0.184
-509.785	43.034	0.070	-0.064
-508.770	-151.536	0.196	-0.015
-507.756	-58.644	-0.230	-0.100
-506.741	-102.386	-0.395	0.095
-505.726	-200.000	-0.011	0.320
-504.712	58.133	-0.133	0.130
-503.697	50.935	0.138	-0.132
-502.683	5.898	-0.081	0.060
-501.668	-145.342	0.125	-0.011
-500.653	-44.308	0.114	0.057
-499.639	-155.740	-0.303	-0.019
-498.624	-200.000	-0.013	0.060
-497.610	-140.083	-0.225	-0.024
-496.595	-200.000	-0.028	0.388
-495.581	800.000	0.026	-0.111
-494.566	-200.000	-0.023	-0.408
-493.551	61.787	0.113	-0.113
-492.537	-0.681	-0.088	0.062
-491.522	-22.726	0.236	0.143
-490.508	188.067	0.119	0.178
-489.493	473.574	-0.052	-0.117
-488.478	800.000	-0.024	-0.095
-487.464	-82.164	-0.035	0.012
-486.449	187.294	-0.173	0.259
-485.435	-200.000	-0.051	-0.322
-484.420	-200.000	-0.063	-0.303
-483.405	161.679	-0.232	-0.326
-482.391	-63.885	0.123	0.050
-481.376	-155.968	0.274	0.017
-480.362	800.000	-0.061	-0.191
-479.347	800.000	-0.047	0.201
-478.332	15.550	0.060	0.047
-477.318	800.000	0.071	-0.228
-476.303	-157.633	0.145	-0.009
-475.289	157.773	-0.335	-0.465
-474.274	-200.000	0.011	-0.255
-473.259	-200.000	-0.008	0.295
-472.245	-200.000	0.012	-0.141
-471.230	-48.365	-0.188	-0.091
-470.216	-104.480	0.119	0.028
-469.201	-200.000	0.053	0.287
-468.186	12.524	-0.416	0.321
-467.172	-87.567	0.172	-0.052
-466.157	-200.000	0.020	0.310
-465.143	-136.196	-0.288	-0.034
-464.128	-10.410	0.192	-0.127
-463.113	460.124	-0.119	-0.266
-462.099	-200.000	0.006	-0.069
-461.084	-200.000	-0.040	-0.255
-460.070	-125.312	-0.136	0.021
-459.055	34.659	0.223	0.195
-458.040	-47.294	0.138	-0.067
-457.026	800.000	0.035	-0.133
-456.011	-158.282	0.111	0.006
-454.997	-48.463	0.428	0.206
-453.982	-133.472	-0.093	0.012
-452.968	-200.000	0.009	0.071
-451.953	444.562	-0.101	0.223
-450.938	-200.000	-0.042	-0.304
-449.924	-91.688	-0.122	-0.035
-448.909	-122.528	0.335	-0.054
-447.895	97.707	0.034	-0.039
-446.880	188.382	-0.052	0.077
-445.865	-200.000	-0.023	0.289
-444.851	-73.620	-0.242	0.088
-443.836	-81.202	-0.115	-0.038
-442.822	-92.999	-0.324	-0.090
-441.807	-35.261	0.125	-0.068
-440.792	-37.275	0.223	0.119
-439.778	-27.239	-0.237	-0.138
-438.763	-44.237	-0.292	0.146
-437.749	-148.620	0.284	-0.023
-436.734	176.686	0.006	-0.009
-435.719	48.937	-0.057	0.053
-434.705	-200.000	-0.019	0.313
-433.690	-3.868	0.263	0.182
-432.676	30.968	-0.119	0.102
-431.661	-95.975	0.102	-0.027
-430.646	800.000	-0.040	-0.159
-429.632	-122.366	0.110	0.018
-428.617	96.640	0.009	-0.010
-427.603	5.322	-0.184	-0.136
-426.588	410.929	0.060	-0.128
-425.573	301.099	-0.167	-0.309
-424.559	115.520	-0.166	0.203
-423.544	-62.379	-0.182	-0.076
-422.530	394.344	0.085	-0.176
-421.515	-40.450	0.225	-0.117
-420.500	-200.000	-0.020	-0.118
-419.486	141.636	0.104	-0.138
-418.471	-61.403	0.323	0.136
-417.457	130.580	-0.169	0.216
-416.442	-200.000	0.003	-0.047
-415.428	-200.000	-0.020	0.153
-414.413	800.000	0.140	-0.479
-413.398	-113.253	0.383	0.075
-412.384	-137.927	-0.301	0.034
-411.369	214.291	-0.056	0.089
-410.355	-121.414	-0.242	0.040
-409.340	42.968	0.073	0.066
-408.325	-22.142	0.234	0.142
-407.311	405.656	-0.115	-0.242
-406.296	800.000	-0.063	-0.216
-405.282	-200.000	0.012	-0.280
-404.267	56.788	0.350	0.341
-403.252	-140.278	0.245	0.026
-402.238	-4.586	0.138	0.095
-401.223	-130.649	-0.178	-0.024
-400.209	305.830	-0.153	-0.284
-399.194	129.713	0.103	0.131
-398.179	-200.000	0.008	-0.232
-397.165	102.052	-0.128	0.149
-396.150	236.490	0.117	0.194
-395.136	303.320	-0.022	0.041
-394.121	9.468	0.275	0.208
-393.106	144.809	-0.228	-0.305
-392.092	800.000	0.127	0.404
-391.077	-116.163	0.183	-0.034
-390.063	14.333	0.133	-0.103
-389.048	65.606	-0.245	0.248
-388.033	-26.594	-0.303	-0.177
-387.019	222.008	0.070	-0.113
-386.004	119.666	0.170	-0.210
-384.990	-68.999	-0.103	-0.040
-383.975	-189.584	-0.326	-0.004
-382.960	25.860	-0.056	-0.047
-381.946	248.369	-0.075	0.126
-380.931	-35.877	0.169	-0.091
-379.917	800.000	-0.038	-0.115
-378.902	-39.607	0.111	-0.058
-377.888	-154.945	0.147	-0.010
-376.873	202.943	0.012	-0.018
-375.858	-200.000	-0.006	-0.143
-374.844	-167.890	-0.153	-0.006
-373.829	-3.776	-0.054	-0.038
-372.815	254.471	0.105	0.179
-371.800	184.031	-0.148	-0.218
-370.785	-5.932	-0.107	0.073
-369.771	-91.741	0.288	0.082
-368.756	297.655	0.115	0.211
-367.742	57.892	0.093	0.091
-366.727	99.817	0.114	0.131
-365.712	800.000	0.086	0.267
-364.698	3.479	0.269	0.195
-363.683	22.500	0.066	0.054
-362.669	405.581	-0.052	0.110
-361.654	-1.234	0.334	-0.235
-360.639	650.054	-0.074	0.190
-359.625	800.000	-0.030	0.119
-358.610	-110.402	0.356	-0.074
-357.596	-95.766	0.101	-0.027
-356.581	-26.204	0.336	-0.197
-355.566	-19.517	0.123	-0.076
-354.552	57.301	0.265	-0.258
-353.537	-63.203	0.172	0.071
-352.523	-59.114	-0.148	-0.064
-351.508	103.364	-0.152	0.178
-350.493	-170.171	-0.036	0.001
-349.479	-90.455	-0.320	-0.092
-348.464	432.232	-0.023	0.049
-347.450	-28.035	-0.112	0.065
-346.435	73.793	0.264	-0.276
-345.420	-145.616	0.157	-0.014
-344.406	380.056	-0.064	0.131
-343.391	109.644	-0.210	0.251
-342.377	-28.343	0.169	0.097
-341.362	-66.359	0.184	0.073
-340.348	-200.000	0.021	0.378
-339.333	800.000	-0.065	-0.182
-338.318	-62.672	0.085	-0.035
-337.304	57.922	-0.102	0.100
-336.289	129.646	-0.153	-0.195
-335.275	-200.000	0.045	-0.242
-334.260	500.540	0.164	-0.376
-333.245	-118.304	0.176	-0.031
-332.231	62.805	-0.154	0.154
-331.216	139.562	-0.189	-0.248
-330.202	800.000	-0.086	0.273
-329.187	37.271	0.081	0.071
-328.172	-142.130	0.238	0.024
-327.158	27.879	-0.157	0.132
-326.143	-107.271	-0.346	0.076
-325.129	800.000	-0.156	0.492
-324.114	540.638	0.023	0.054
-323.099	601.237	-0.097	0.239
-322.085	-200.000	0.024	0.390
-321.070	-200.000	0.016	-0.097
-320.056	-84.068	0.202	0.064
-319.041	-22.903	-0.248	-0.149
-318.026	-93.427	0.131	-0.036
-317.012	119.723	-0.031	-0.038
-315.997	-65.417	-0.155	-0.062
-314.983	-7.992	-0.307	-0.206
-313.968	-58.656	0.031	0.014
-312.953	800.000	0.077	0.238
-311.939	216.570	0.057	-0.091
-310.924	8.568	0.057	-0.043
-309.910	-200.000	0.006	-0.142
-308.895	-200.000	0.005	-0.192
-307.880	-171.250	0.263	-0.009
-306.866	773.001	-0.082	-0.222
-305.851	204.596	-0.254	-0.392
-304.837	-49.334	-0.101	-0.048
-303.822	-162.677	-0.065	0.003
-302.807	214.909	0.091	-0.144
-301.793	267.845	-0.031	0.053
-300.778	-21.285	-0.247	0.150
-299.764	-8.587	-0.149	0.100
-298.749	40.680	-0.203	0.182
-297.735	58.394	0.078	-0.076
-296.720	40.019	-0.232	-0.208
-295.705	-0.986	0.151	0.106
-294.691	-69.923	-0.130	0.049
-293.676	-156.660	0.146	0.009
-292.662	794.224	0.051	0.141
-291.647	-200.000	0.075	-0.500
-290.632	-155.752	0.043	-0.003
-289.618	-200.000	0.016	-0.153
-288.603	35.094	-0.136	0.118
-287.589	-200.000	-0.016	-0.268
-286.574	-6.101	0.137	-0.093
-285.559	-45.771	-0.026	-0.013
-284.545	48.808	-0.257	-0.240
-283.530	-117.199	-0.382	0.069
-282.516	-106.564	0.070	-0.016
-281.501	51.399	0.215	0.203
-280.486	312.128	0.146	-0.272
-279.472	-21.649	-0.046	0.028
-278.457	-157.981	0.260	0.015
-277.443	59.924	-0.086	-0.084
-276.428	672.418	0.068	-0.176
-275.413	311.993	0.167	0.312
-274.399	-71.644	0.416	0.154
-273.384	11.579	-0.154	0.117
-272.370	200.766	-0.190	0.291
-271.355	-130.192	-0.233	0.032
-270.340	-89.645	0.017	0.005
-269.326	-200.000	0.035	-0.167
-268.311	507.467	0.162	-0.374
-267.297	278.026	-0.244	0.433
-266.282	-3.735	0.266	0.183
-265.267	-12.107	-0.125	-0.081
-264.253	-74.192	0.282	-0.101
-263.238	-71.660	0.216	0.080
-262.224	258.864	0.050	0.085
-261.209	-88.488	0.195	-0.058
-260.195	57.660	0.265	-0.257
-259.180	-80.388	-0.364	-0.121
-258.165	190.972	-0.139	0.208
-257.151	-200.000	-0.019	0.222
-256.136	283.648	0.082	0.147
-255.122	800.000	-0.030	-0.118
-254.107	-5.823	-0.238	-0.162
-253.092	-151.316	-0.259	-0.019
-252.078	-113.416	-0.130	-0.025
-251.063	800.000	0.131	0.374
-250.049	-125.131	0.329	-0.050
-249.034	-200.000	0.047	0.236
-248.019	-200.000	-0.016	0.223
-247.005	257.090	-0.196	0.334
-245.990	-200.000	-0.046	0.458
-244.976	229.487	-0.167	0.271
-243.961	-119.181	0.299	-0.052
-242.946	99.609	0.096	0.110
-241.932	-82.337	0.050	0.016
-240.917	117.405	-0.288	0.352
-239.903	296.181	-0.130	0.237
-238.888	26.501	-0.188	0.156
-237.873	-200.000	-0.020	0.379
-236.859	-68.569	0.272	-0.105
-235.844	-70.644	-0.359	0.135
-234.830	-174.226	0.259	-0.007
-233.815	-200.000	0.069	-0.440
-232.800	-82.471	0.066	-0.021
-231.786	-200.000	0.009	-0.075
-230.771	800.000	-0.057	0.163
-229.757	-200.000	-0.043	0.262
-228.742	-11.316	0.262	-0.171
-227.727	633.348	-0.139	0.351
-226.713	33.358	0.220	-0.189
-225.698	800.000	-0.062	-0.266
-224.684	-200.000	-0.027	-0.127
-223.669	800.000	-0.070	-0.232
-222.655	-43.705	0.218	0.109
-221.640	75.202	0.209	-0.219
-220.625	-200.000	-0.003	0.359
-219.611	272.845	0.054	-0.095
-218.596	108.269	-0.174	0.206
-217.582	-0.606	0.416	0.293
-216.567	31.457	-0.100	0.085
-215.552	-104.611	-0.288	0.066
-214.538	-200.000	0.038	-0.238
-213.523	-200.000	0.002	0.028
-212.509	51.514	-0.094	-0.088
-211.494	-87.475	0.108	0.032
-210.479	-44.348	-0.271	-0.134
-209.465	-200.000	-0.023	-0.382
-208.450	800.000	0.115	-0.446
-207.436	-200.000	-0.042	0.219
-206.421	-200.000	-0.200	-0.001
-205.406	14.834	0.173	-0.134
-204.392	38.851	0.157	-0.139
-203.377	177.189	0.223	-0.321
-202.363	394.851	-0.164	-0.339
-201.348	597.217	0.032	0.078
-200.333	-62.162	0.272	0.113
-199.319	107.636	-0.305	-0.360
-198.304	-40.664	0.160	-0.082
-197.290	151.335	0.035	0.047
-196.275	-171.780	0.212	0.007
-195.260	209.672	-0.086	0.134
-194.246	30.164	-0.224	-0.190
-193.231	-200.000	0.082	-0.355
-192.217	670.080	-0.057	0.146
-191.202	75.832	-0.059	-0.061
-190.187	-149.143	0.244	0.019
-189.173	361.495	0.038	-0.076
-188.158	800.000	-0.091	0.279
-187.144	-200.000	-0.046	0.284
-186.129	26.214	0.227	-0.188
-185.114	40.348	-0.187	0.167
-184.100	-97.380	-0.118	0.030
-183.085	9.914	0.172	-0.129
-182.071	8.995	-0.246	0.184
-181.056	-89.872	0.193	-0.056
-180.042	-26.744	0.205	-0.119
-179.027	-174.631	0.417	-0.012
-178.012	-102.490	-0.045	0.011
-176.998	51.613	0.160	-0.151
-175.983	431.320	-0.117	-0.251
-174.969	-200.000	0.021	0.197
-173.954	4.042	-0.087	0.063
-172.939	-200.000	-0.039	-0.204
-171.925	-200.000	0.006	0.244
-170.910	-200.000	0.068	0.462
-169.896	-200.000	0.012	0.258
-168.881	-200.000	-0.077	0.340
-167.866	-200.000	0.011	-0.330
-166.852	-200.000	0.022	0.143
-165.837	800.000	-0.049	0.154
-164.823	-117.214	0.510	0.092
-163.808	800.000	0.021	-0.059
-162.793	-200.000	0.009	-0.310
-161.779	-200.000	0.005	0.125
-160.764	-200.000	0.054	0.280
-159.750	-90.545	-0.123	0.035
-158.735	607.050	-0.107	0.263
-157.720	-102.910	0.222	-0.052
-156.706	-200.000	0.036	0.301
-155.691	587.164	-0.138	0.336
-154.677	209.814	-0.067	0.103
-153.662	-67.539	0.074	-0.029
-152.647	-25.818	0.051	0.030
-151.633	24.979	-0.017	-0.014
-150.618	8.839	-0.235	-0.176
-149.604	-83.210	0.384	0.122
-148.589	-146.014	-0.221	0.019
-147.574	800.000	-0.057	-0.162
-146.560	-200.000	0.023	-0.182
-145.545	-83.378	-0.234	-0.074
-144.531	165.634	0.064	0.090
-143.516	-200.000	-0.029	-0.149
-142.502	48.559	-0.014	0.013
-141.487	35.267	0.122	-0.106
-140.472	-200.000	-0.024	-0.238
-139.458	-102.774	-0.232	-0.055
-138.443	150.978	-0.240	-0.323
-137.429	-200.000	0.033	-0.160
-136.414	-122.309	0.314	-0.051
-135.399	-200.000	-0.006	-0.176
-134.385	-25.565	0.316	-0.184
-133.370	-200.000	0.005	0.214
-132.356	-149.138	0.375	0.030
-131.341	107.950	0.184	-0.217
-130.326	-143.042	-0.227	0.022
-129.312	-21.574	0.283	0.170
-128.297	125.910	0.140	-0.175
-127.283	19.319	0.215	0.171
-126.268	-75.143	-0.208	0.074
-125.253	201.508	0.088	-0.134
-124.239	-200.000	0.009	0.209
-123.224	-200.000	0.256	0.001
-122.210	15.544	-0.166	0.129
-121.195	19.275	0.263	-0.209
-120.180	-102.685	0.237	-0.056
-119.166	-76.053	-0.077	0.027
-118.151	-131.298	-0.159	-0.021
-117.137	-200.000	0.018	-0.267
-116.122	800.000	-0.131	-0.383
-115.107	800.000	0.050	0.157
-114.093	417.673	-0.118	-0.250
-113.078	-50.049	-0.118	0.055
-112.064	496.425	-0.096	-0.217
-111.049	155.489	-0.179	-0.244
-110.034	-23.202	0.120	-0.071
-109.020	-13.063	0.240	0.154
-108.005	235.534	-0.225	0.367
-106.991	-200.000	-0.025	-0.225
-105.976	173.933	-0.075	-0.108
-104.962	29.064	0.102	-0.085
-103.947	-20.543	-0.344	-0.208
-102.932	56.393	-0.249	0.239
-101.918	-44.685	-0.163	0.080
-100.903	-45.457	0.204	-0.100
-99.889	-106.635	-0.166	-0.036
-98.874	57.633	0.194	0.187
-97.859	144.582	-0.141	0.186
-96.845	130.614	0.030	0.038
-95.830	139.943	0.306	0.398
-94.816	-90.328	-0.386	0.111
-93.801	-200.000	-0.023	0.142
-92.786	8.586	-0.252	0.187
-91.772	351.318	0.171	0.333
-90.757	-101.152	0.259	0.062
-89.743	-86.017	-0.250	-0.076
-88.728	233.186	0.097	-0.158
-87.713	97.694	-0.114	0.129
-86.699	-98.221	-0.096	-0.024
-85.684	-200.000	-0.001	-0.139
-84.670	-178.286	0.247	-0.006
-83.655	-57.876	0.189	0.081
-82.640	-200.000	0.047	0.279
-81.626	74.900	-0.293	0.304
-80.611	221.622	-0.174	-0.276
-79.597	-19.884	0.100	-0.061
-78.582	100.281	-0.164	0.187
-77.567	-98.088	0.160	-0.041
-76.553	156.545	-0.070	-0.096
-75.538	-200.000	-0.013	0.058
-74.524	-39.199	-0.179	-0.093
-73.509	2.008	-0.205	-0.146
-72.494	-171.735	0.231	-0.007
-71.480	-119.165	0.011	0.002
-70.465	48.222	0.116	0.107
-69.451	800.000	-0.097	0.378
-68.436	-80.570	-0.064	0.021
-67.422	311.188	0.055	0.101
-66.407	-80.041	-0.303	-0.100
-65.392	-25.012	-0.259	0.152
-64.378	-200.000	-0.024	0.338
-63.363	99.940	0.198	0.226
-62.349	38.745	-0.259	0.228
-61.334	62.646	-0.999	-0.984
-60.319	100.119	0.664	0.759
-59.305	-200.000	-0.047	-0.979
-58.290	261.429	0.651	1.112
-57.276	201.951	0.695	1.057
-56.261	-200.000	105.993	623.962
-55.246	514.635	1502.906	3457.263
-54.232	173.891	2701.310	3844.552
-53.217	101.927	2324.400	2673.454
-52.203	36.025	2070.504	1796.178
-51.188	31.226	1984.770	1678.719
-50.173	29.828	1967.057	1651.201
-49.159	45.809	2024.417	1844.609
-48.144	46.023	2040.701	1861.306
-47.130	31.802	1998.985	1695.681
-46.115	29.495	1988.612	1666.024
-45.100	29.483	1985.530	1663.267
-44.086	29.450	1983.024	1660.805
-43.071	29.443	1980.847	1658.852
-42.057	29.475	1978.006	1656.698
-41.042	29.409	1976.748	1654.981
-40.027	29.435	1974.756	1653.484
-39.013	29.368	1973.228	1651.537
-37.998	29.410	1971.389	1650.312
-36.984	29.463	1969.170	1648.856
-35.969	29.360	1967.147	1646.177
-34.954	29.411	1965.654	1645.324
-33.940	29.420	1964.494	1644.366
-32.925	29.520	1962.332	1643.383
-31.911	29.469	1961.455	1642.131
-30.896	29.481	1959.054	1640.162
-29.881	29.509	1958.155	1639.589
-28.867	29.526	1956.077	1637.935
-27.852	29.610	1954.183	1637.031
-26.838	29.537	1952.383	1634.813
-25.823	29.568	1950.321	1633.293
-24.809	29.446	1949.119	1631.139
-23.794	29.505	1947.261	1630.046
-22.779	29.512	1945.480	1628.547
-21.765	29.496	1943.704	1626.856
-20.750	29.482	1942.443	1625.611
-19.736	29.572	1940.413	1624.643
-18.721	29.612	1938.994	1623.737
-17.706	29.562	1937.263	1621.789
-16.692	29.555	1935.496	1620.185
-15.677	29.527	1934.500	1619.042
-14.663	29.520	1932.462	1617.206
-13.648	29.507	1931.813	1616.488
-12.633	29.601	1930.368	1616.037
-11.619	29.542	1929.136	1614.426
-10.604	29.525	1927.520	1612.865
-9.590	29.517	1926.240	1611.652
-8.575	29.523	1924.808	1610.443
-7.560	29.532	1923.380	1609.264
-6.546	29.500	1922.579	1608.254
-5.531	29.560	1921.481	1607.796
-4.517	29.576	1919.884	1606.535
-3.502	29.516	1918.838	1605.073
-2.487	29.478	1917.965	1603.950
-1.473	29.563	1916.879	1603.714
-0.458	29.563	1911.961	1599.534
0.556	27.033	1891.941	1571.315
1.571	22.818	1872.945	1519.205
2.586	19.013	1896.160	1504.686
3.600	17.920	1932.480	1523.627
4.615	17.973	1927.184	1519.784
5.629	13.692	1827.650	1404.965
6.644	4.968	1709.678	1244.748
7.659	0.172	1672.898	1180.321
8.673	-0.341	1669.688	1173.943
9.688	-0.223	1667.956	1173.538
10.702	-0.299	1666.772	1172.013
11.717	-0.377	1663.023	1168.664
12.731	-0.041	1662.115	1170.541
13.746	5.964	1676.831	1227.873
14.761	15.402	1698.482	1318.071
15.775	20.241	1707.119	1362.771
16.790	21.121	1708.296	1370.503
17.804	21.189	1707.659	1370.401
18.819	21.266	1706.784	1370.183
19.834	21.441	1705.804	1370.650
20.848	21.563	1705.748	1371.439
21.863	21.680	1704.589	1371.299
22.877	21.685	1703.929	1370.689
23.892	21.689	1702.857	1369.731
24.907	21.689	1702.128	1369.029
25.921	21.662	1700.654	1367.508
26.936	21.585	1700.119	1366.361
27.950	21.618	1698.626	1365.289
28.965	21.654	1698.301	1365.190
29.980	21.665	1698.161	1365.041
30.994	21.605	1696.460	1363.087
32.009	21.602	1694.963	1361.743
33.023	21.665	1693.567	1360.988
34.038	21.702	1692.832	1360.566
35.053	21.677	1691.765	1359.392
36.067	21.667	1690.924	1358.522
37.082	21.669	1690.239	1357.864
38.096	21.664	1689.117	1356.802
39.111	21.715	1687.887	1356.093
40.126	21.604	1687.375	1354.702
41.140	21.611	1686.615	1354.025
42.155	21.586	1685.792	1353.054
43.169	21.674	1684.380	1352.482
44.184	21.635	1683.171	1351.084
45.199	21.584	1682.257	1349.842
46.213	21.569	1681.171	1348.733
47.228	21.598	1679.996	1347.895
48.242	21.674	1678.529	1347.186
49.257	21.689	1677.782	1346.583
50.271	21.708	1676.139	1345.287
51.286	21.605	1675.259	1343.670
52.301	21.615	1673.714	1342.392
53.315	21.546	1673.005	1341.173
54.330	21.684	1671.068	1340.559
55.344	21.613	1669.930	1338.983
56.359	21.649	1668.103	1337.676
57.374	21.658	1667.270	1336.957
58.388	21.600	1666.275	1335.600
59.403	21.654	1665.188	1335.020
60.417	21.560	1664.200	1333.397
61.432	21.671	1663.043	1333.195
62.447	21.565	1662.390	1331.745
63.461	21.595	1661.221	1330.925
64.476	21.733	1659.519	1330.491
65.490	21.648	1658.974	1329.292
66.505	21.680	1657.729	1328.418
67.520	21.743	1656.371	1327.685
68.534	21.667	1655.996	1326.692
69.549	21.685	1654.048	1325.155
70.563	21.645	1653.159	1324.018
71.578	21.602	1652.239	1322.843
72.593	21.610	1651.299	1322.031
73.607	21.718	1650.101	1321.769
74.622	21.702	1649.038	1320.682
75.636	21.739	1648.121	1320.108
76.651	21.673	1647.195	1318.755
77.666	21.727	1646.468	1318.465
78.680	21.710	1645.557	1317.485
79.695	21.684	1644.562	1316.377
80.709	21.735	1643.294	1315.633
81.724	21.691	1642.752	1314.754
82.739	21.630	1641.747	1313.370
83.753	21.751	1640.401	1313.089
84.768	21.698	1639.509	1311.861
85.782	21.668	1638.989	1311.099
86.797	21.659	1638.004	1310.129
87.812	21.689	1637.147	1309.552
88.826	21.705	1635.777	1308.465
89.841	21.678	1635.183	1307.666
90.855	21.712	1634.162	1306.989
91.870	21.765	1632.866	1306.230
92.884	21.657	1632.352	1304.900
93.899	21.753	1630.969	1304.396
94.914	21.710	1629.819	1303.044
95.928	21.765	1627.931	1301.823
96.943	21.780	1626.483	1300.663
97.957	21.817	1625.867	1300.329
98.972	21.756	1624.532	1298.695
99.987	21.785	1622.937	1297.520
101.001	21.780	1621.702	1296.383
102.016	21.641	1620.037	1293.908
103.030	21.719	1618.889	1293.454
104.045	21.711	1617.964	1292.540
105.060	21.749	1616.066	1291.191
106.074	21.803	1614.565	1290.273
107.089	21.701	1613.844	1288.829
108.103	21.731	1612.913	1288.195
109.118	21.737	1611.535	1287.025
110.133	21.747	1610.364	1286.051
111.147	21.748	1608.733	1284.637
112.162	21.792	1607.576	1283.926
113.176	21.724	1606.483	1282.438
114.191	21.726	1605.482	1281.543
115.206	21.726	1604.417	1280.580
116.220	21.846	1602.732	1279.997
117.235	21.714	1601.549	1277.978
118.249	21.838	1600.003	1277.531
119.264	21.760	1598.917	1275.984
120.279	21.813	1597.462	1275.095
121.293	21.876	1596.479	1274.655
122.308	21.838	1595.260	1273.294
123.322	21.809	1593.968	1271.937
124.337	21.834	1592.863	1271.125
125.352	21.816	1591.614	1269.889
126.366	21.870	1590.568	1269.331
127.381	21.824	1590.199	1268.588
128.395	21.918	1588.765	1268.012
129.410	21.803	1588.148	1266.581
130.424	21.783	1586.472	1264.988
131.439	21.930	1585.299	1264.998
132.454	21.923	1583.961	1263.769
133.468	21.830	1582.675	1261.963
134.483	21.920	1580.786	1260.995
135.497	21.890	1580.104	1260.123
136.512	21.750	1579.063	1258.173
137.527	21.794	1577.787	1257.361
138.541	21.901	1576.290	1256.821
139.556	21.943	1575.204	1256.147
140.570	21.896	1574.379	1255.042
141.585	21.756	1572.727	1252.612
142.600	21.881	1571.735	1252.603
143.614	21.846	1570.533	1251.286
144.629	21.744	1569.795	1249.864
145.643	21.831	1568.006	1248.945
146.658	21.823	1566.488	1247.571
147.673	21.762	1565.471	1246.217
148.687	21.827	1564.495	1245.790
149.702	21.802	1563.728	1244.892
150.716	21.826	1562.043	1243.609
151.731	21.822	1560.799	1242.481
152.746	21.943	1559.402	1242.114
153.760	21.955	1558.093	1241.049
154.775	21.832	1557.674	1239.736
155.789	21.877	1556.471	1238.988
156.804	21.940	1555.282	1238.372
157.819	21.927	1554.032	1237.174
158.833	21.869	1553.083	1235.906
159.848	21.939	1552.183	1235.572
160.862	21.992	1551.235	1235.076
161.877	21.925	1550.112	1233.605
162.892	21.946	1549.328	1233.020
163.906	21.997	1548.127	1232.313
164.921	22.004	1547.140	1231.464
165.935	21.986	1545.934	1230.275
166.950	21.957	1545.652	1229.737
167.964	21.996	1544.373	1228.885
168.979	21.992	1543.593	1228.123
169.994	22.002	1542.691	1227.365
171.008	22.001	1541.426	1226.246
172.023	21.979	1540.558	1225.291
173.037	21.934	1539.946	1224.387
174.052	21.907	1539.103	1223.415
175.067	22.049	1537.559	1223.073
176.081	22.050	1536.776	1222.348
177.096	21.983	1535.381	1220.665
178.110	21.949	1534.603	1219.702
179.125	21.936	1533.295	1218.465
180.140	21.989	1532.871	1218.387
181.154	22.164	1531.606	1218.486
182.169	22.016	1531.011	1216.877
183.183	22.121	1529.614	1216.387
184.198	22.060	1528.801	1215.211
185.213	22.130	1527.591	1214.629
186.227	22.033	1527.080	1213.445
187.242	22.060	1526.589	1213.129
188.256	22.046	1525.300	1211.903
189.271	22.107	1524.373	1211.481
190.286	22.081	1523.882	1210.805
191.300	22.102	1522.540	1209.776
192.315	22.045	1522.074	1208.908
193.329	22.145	1520.881	1208.539
194.344	21.955	1520.253	1206.628
195.359	22.042	1519.096	1206.201
196.373	22.122	1518.495	1206.165
197.388	22.153	1517.066	1205.137
198.402	22.118	1516.475	1204.319
199.417	22.075	1514.727	1202.532
200.432	22.110	1514.494	1202.480
201.446	22.158	1513.584	1201.977
202.461	22.096	1512.970	1200.956
203.475	22.081	1511.978	1199.959
204.490	22.034	1511.073	1198.817
205.504	22.076	1510.392	1198.461
206.519	22.069	1509.334	1197.463
207.534	22.089	1508.618	1196.927
208.548	22.170	1507.737	1196.673
209.563	22.233	1506.395	1195.928
210.577	22.173	1505.811	1194.953
211.592	22.139	1505.259	1194.176
212.607	22.195	1504.010	1193.462
213.621	22.208	1503.566	1193.096
214.636	22.341	1502.845	1193.320
215.650	22.192	1502.521	1191.946
216.665	22.191	1501.540	1191.051
217.680	22.188	1500.368	1190.000
218.694	22.153	1499.923	1189.301
219.709	22.148	1499.111	1188.522
220.723	22.223	1498.156	1188.163
221.738	22.288	1496.765	1187.395
222.753	22.172	1496.671	1186.434
223.767	22.137	1495.745	1185.357
224.782	22.090	1494.626	1184.051
225.796	22.238	1493.620	1184.144
226.811	22.278	1493.053	1183.860
227.826	22.239	1492.549	1183.091
228.840	22.211	1491.997	1182.361
229.855	22.310	1490.307	1181.580
230.869	22.275	1489.891	1180.913
231.884	22.244	1488.820	1179.751
232.899	22.222	1487.465	1178.425
233.913	22.319	1486.483	1178.192
234.928	22.304	1485.450	1177.170
235.942	22.389	1484.107	1176.570
236.957	22.286	1483.938	1175.646
237.972	22.344	1482.540	1174.823
238.986	22.318	1481.727	1173.899
240.001	22.307	1481.035	1173.171
241.015	22.365	1479.888	1172.543
242.030	22.385	1479.211	1172.042
243.045	22.518	1477.749	1171.662
244.059	22.509	1476.928	1170.844
245.074	22.512	1475.891	1169.940
246.088	22.572	1475.211	1169.694
247.103	22.528	1474.637	1168.848
248.117	22.454	1474.410	1168.075
249.132	22.525	1472.945	1167.276
250.147	22.543	1472.279	1166.768
251.161	22.450	1471.946	1165.781
252.176	22.505	1471.314	1165.544
253.190	22.524	1470.208	1164.688
254.205	22.573	1469.186	1164.104
255.220	22.619	1468.209	1163.528
256.234	22.519	1467.671	1162.340
257.249	22.524	1467.096	1161.816
258.263	22.572	1466.466	1161.531
259.278	22.565	1465.311	1160.462
260.293	22.571	1464.416	1159.691
261.307	22.634	1463.864	1159.567
262.322	22.697	1463.197	1159.352
263.336	22.644	1462.399	1158.268
264.351	22.595	1461.342	1157.009
265.366	22.740	1460.264	1157.003
266.380	22.618	1459.561	1155.540
267.395	22.624	1458.561	1154.685
268.409	22.616	1458.208	1154.256
269.424	22.669	1456.804	1153.385
270.439	22.553	1456.596	1152.358
271.453	22.652	1455.174	1151.783
272.468	22.621	1454.462	1150.916
273.482	22.639	1454.054	1150.604
274.497	22.556	1453.068	1149.185
275.512	22.732	1452.009	1149.392
276.526	22.719	1451.064	1148.454
277.541	22.711	1450.822	1148.113
278.555	22.686	1449.917	1147.132
279.570	22.719	1448.968	1146.493
280.585	22.736	1448.133	1145.841
281.599	22.717	1447.424	1145.053
282.614	22.681	1446.582	1144.052
283.628	22.701	1445.582	1143.295
284.643	22.657	1444.507	1142.054
285.657	22.704	1443.755	1141.666
286.672	22.738	1442.609	1140.873
287.687	22.779	1442.137	1140.666
288.701	22.746	1440.516	1139.074
289.716	22.889	1440.163	1139.616
290.730	22.862	1439.778	1139.032
291.745	22.787	1438.957	1137.800
292.760	22.853	1437.916	1137.302
293.774	22.830	1437.037	1136.360
294.789	22.812	1436.220	1135.496
295.803	22.896	1435.447	1135.324
296.818	22.875	1434.572	1134.398
297.833	22.924	1433.541	1133.797
298.847	22.812	1433.060	1132.598
299.862	22.868	1431.740	1131.812
300.876	22.957	1430.904	1131.620
301.891	22.850	1430.116	1130.215
302.906	22.929	1429.495	1130.124
303.920	22.985	1428.854	1129.875
304.935	22.981	1428.514	1129.483
305.949	23.014	1427.213	1128.569
306.964	22.975	1426.615	1127.744
307.979	23.002	1425.697	1127.090
308.993	23.023	1424.336	1126.050
310.008	23.133	1423.685	1126.137
311.022	23.001	1423.064	1124.703
312.037	23.004	1421.958	1123.751
313.052	23.061	1421.020	1123.271
314.066	23.130	1420.035	1122.833
315.081	23.070	1419.175	1121.671
316.095	23.078	1418.292	1120.923
317.110	23.146	1417.511	1120.641
318.125	23.072	1416.844	1119.544
319.139	23.086	1416.051	1118.906
320.154	23.090	1415.165	1118.136
321.168	23.072	1414.244	1117.195
322.183	23.156	1413.143	1116.755
323.197	23.092	1412.534	1115.773
324.212	23.086	1411.819	1115.068
325.227	23.199	1410.618	1114.735
326.241	23.204	1409.629	1113.888
327.256	23.273	1409.430	1114.066
328.270	23.223	1408.614	1113.003
329.285	23.232	1407.766	1112.293
330.300	23.166	1406.829	1111.039
331.314	23.263	1406.133	1111.001
332.329	23.289	1405.155	1110.293
333.343	23.209	1404.706	1109.340
334.358	23.302	1403.499	1108.873
335.373	23.243	1403.242	1108.200
336.387	23.196	1402.675	1107.362
337.402	23.303	1401.691	1107.154
338.416	23.414	1400.568	1106.859
339.431	23.320	1400.761	1106.329
340.446	23.388	1399.990	1106.045
341.460	23.416	1398.917	1105.275
342.475	23.387	1397.832	1104.139
343.489	23.455	1397.158	1103.936
344.504	23.512	1395.673	1103.015
345.519	23.492	1395.140	1102.373
346.533	23.430	1394.132	1101.093
347.548	23.406	1393.433	1100.298
348.562	23.491	1392.635	1100.096
349.577	23.410	1392.062	1099.042
350.592	23.540	1390.875	1098.814
351.606	23.437	1390.303	1097.631
352.621	23.393	1389.239	1096.420
353.635	23.478	1388.457	1096.229
354.650	23.551	1387.341	1095.700
355.665	23.525	1387.072	1095.230
356.679	23.556	1385.921	1094.421
357.694	23.536	1384.612	1093.166
358.708	23.503	1383.705	1092.147
359.723	23.496	1382.726	1091.236
360.738	23.537	1381.288	1090.255
361.752	23.474	1380.335	1089.021
362.767	23.530	1379.204	1088.375
363.781	23.616	1378.327	1088.117
364.796	23.668	1377.615	1087.777
365.810	23.652	1377.037	1087.123
366.825	23.585	1376.935	1086.540
367.840	23.624	1375.919	1085.877
368.854	23.564	1375.392	1084.998
369.869	23.716	1374.853	1085.408
370.883	23.672	1374.218	1084.542
371.898	23.709	1373.050	1083.748
372.913	23.715	1372.582	1083.317
373.927	23.592	1371.845	1081.893
374.942	23.703	1370.916	1081.743
375.956	23.763	1370.000	1081.284
376.971	23.713	1369.077	1080.161
377.986	23.788	1368.315	1079.916
379.000	23.815	1367.588	1079.410
380.015	23.753	1366.850	1078.358
381.029	23.742	1366.465	1077.890
382.044	23.797	1365.541	1077.400
383.059	23.824	1364.673	1076.783
384.073	23.840	1364.138	1076.366
385.088	23.785	1363.900	1075.751
386.102	23.797	1363.203	1075.179
387.117	23.848	1362.601	1074.916
388.132	23.842	1361.949	1074.269
389.146	23.927	1360.703	1073.701
390.161	23.833	1360.332	1072.749
391.175	23.904	1359.133	1072.139
392.190	23.881	1358.849	1071.676
393.205	23.968	1357.917	1071.374
394.219	23.921	1357.157	1070.393
395.234	23.907	1355.973	1069.281
396.248	23.961	1354.910	1068.673
397.263	23.980	1353.749	1067.777
398.278	23.926	1353.028	1066.794
399.292	23.935	1351.915	1065.874
400.307	24.027	1351.245	1065.799
401.321	23.978	1350.058	1064.477
402.336	23.947	1349.096	1063.440
403.350	23.948	1348.270	1062.700
404.365	23.972	1347.594	1062.218
405.380	24.007	1346.453	1061.433
406.394	24.078	1345.264	1060.822
407.409	24.224	1344.813	1061.246
408.423	24.013	1344.555	1059.688
409.438	24.131	1343.793	1059.701
410.453	24.083	1342.951	1058.658
411.467	24.191	1342.039	1058.485
412.482	24.163	1341.658	1057.923
413.496	24.262	1340.875	1057.800
414.511	24.189	1339.998	1056.583
415.526	24.224	1339.322	1056.162
416.540	24.035	1338.815	1054.552
417.555	24.193	1338.000	1054.753
418.569	24.118	1337.300	1053.659
419.584	24.221	1336.689	1053.696
420.599	24.289	1336.317	1053.713
421.613	139.009	1433.379	1798.048
422.628	135.737	1447.456	1798.142
