DTS Sentinel unit serial number:	SN413079Multiplexer serial number:	ORYXHardware model number:	OX4-SRSoftware version number:	ORYX F/W v4.00 Oryx Data Collector v3.7.2.0data status	okinstallation	princeton_trtdifferential loss correction	single-endedforward channel	channel 4reverse channel	N/Adate	2019/09/19time	01:05:34forward acquisition time	60.00reverse acquisition time	0.00gamma	496.2192k internal	0.2339k external	0.2339temperature offset calibration	1.0028default loss term (dB/km)	0.3790temperature slope calibration	1.0000multiplexer offset coefficient	1.0000multiplexer slope coefficient	1.0000fibre end	0.00T internal ref (°C)	21.87T ext. ref 1 (°C)	0.72T ext. ref 2 (°C)	15.19length (m)	temperature (°C)	Stokes	anti-Stokes-747.200	800.000	0.050	-0.211
-746.185	192.349	-0.033	0.050
-745.171	313.702	-0.121	0.229
-744.156	116.560	0.107	0.131
-743.142	-200.000	-0.005	0.071
-742.127	-96.927	-0.113	-0.030
-741.112	-166.076	-0.110	0.005
-740.098	800.000	0.029	0.099
-739.083	-40.451	-0.225	0.117
-738.069	-200.000	-0.021	0.203
-737.054	747.063	-0.026	0.070
-736.039	-65.134	0.220	0.089
-735.025	-3.812	0.146	0.101
-734.010	-200.000	-0.038	0.271
-732.996	-131.709	0.223	-0.029
-731.981	243.098	-0.179	-0.301
-730.966	518.270	-0.165	-0.386
-729.952	-94.317	0.076	0.021
-728.937	161.826	-0.068	-0.095
-727.923	91.886	-0.134	-0.151
-726.908	-64.032	-0.209	-0.086
-725.894	-34.543	-0.237	-0.130
-724.879	-32.116	0.063	-0.035
-723.864	-30.093	0.250	-0.143
-722.850	22.785	-0.321	0.263
-721.835	-6.754	0.017	0.012
-720.821	-122.513	-0.414	0.067
-719.806	604.471	-0.123	-0.306
-718.791	800.000	-0.020	-0.067
-717.777	158.830	0.246	-0.343
-716.762	800.000	-0.055	-0.233
-715.748	-132.211	0.682	0.089
-714.733	791.576	-0.093	0.257
-713.718	193.458	0.065	-0.099
-712.704	36.870	-0.099	-0.088
-711.689	800.000	-0.101	0.287
-710.675	-200.000	0.003	0.058
-709.660	57.033	0.070	0.069
-708.645	17.136	-0.226	0.180
-707.631	-117.351	0.449	0.082
-706.616	103.430	0.134	-0.157
-705.602	141.758	0.203	-0.269
-704.587	-200.000	-0.017	0.135
-703.572	-107.548	-0.048	-0.011
-702.558	-33.600	-0.460	0.254
-701.543	-115.639	-0.112	0.021
-700.529	161.112	-0.102	-0.143
-699.514	59.898	0.283	0.280
-698.499	514.103	-0.054	-0.127
-697.485	-200.000	0.022	-0.134
-696.470	-200.000	-0.032	-0.437
-695.456	519.557	-0.129	-0.302
-694.441	-200.000	-0.020	0.329
-693.426	-27.108	0.215	-0.125
-692.412	-20.630	0.242	-0.149
-691.397	-31.352	-0.219	0.123
-690.383	-175.994	-0.197	-0.005
-689.368	800.000	-0.040	0.147
-688.354	-200.000	-0.004	-0.022
-687.339	55.467	0.014	-0.013
-686.324	-46.926	0.260	0.127
-685.310	-102.952	0.053	0.013
-684.295	388.103	-0.219	-0.453
-683.281	-90.631	0.212	-0.061
-682.266	-121.675	-0.414	0.069
-681.251	262.171	0.047	0.081
-680.237	44.437	-0.107	-0.098
-679.222	-52.340	-0.072	-0.033
-678.208	-129.074	0.273	0.038
-677.193	-82.459	-0.186	-0.060
-676.178	262.444	-0.067	-0.116
-675.164	800.000	-0.062	-0.217
-674.149	447.244	-0.058	-0.127
-673.135	100.054	-0.065	-0.075
-672.120	365.042	-0.047	0.095
-671.105	-22.465	0.198	-0.120
-670.091	-121.200	0.025	-0.004
-669.076	-200.000	-0.019	-0.293
-668.062	-111.355	0.462	-0.094
-667.047	357.846	-0.131	-0.261
-666.032	197.751	0.073	-0.112
-665.018	347.475	0.096	0.189
-664.003	405.429	-0.099	0.208
-662.989	800.000	0.064	-0.278
-661.974	-86.726	-0.335	0.102
-660.959	184.565	-0.170	0.252
-659.945	-200.000	0.046	0.251
-658.930	-96.155	-0.238	0.063
-657.916	800.000	0.071	0.225
-656.901	800.000	0.091	-0.385
-655.886	-132.039	-0.432	-0.056
-654.872	72.157	-0.080	-0.083
-653.857	-147.795	0.373	-0.031
-652.843	30.693	-0.126	-0.108
-651.828	424.468	-0.192	-0.414
-650.814	-200.000	0.001	-0.424
-649.799	8.762	-0.168	0.126
-648.784	54.131	0.265	0.255
-647.770	177.620	0.066	0.097
-646.755	800.000	0.054	-0.161
-645.741	-200.000	0.010	0.311
-644.726	-162.788	-0.141	-0.007
-643.711	-78.614	0.075	0.026
-642.697	375.099	0.089	-0.180
-641.682	-24.664	0.135	0.080
-640.668	-75.894	-0.092	-0.033
-639.653	-200.000	-0.012	-0.204
-638.638	-55.071	0.189	-0.085
-637.624	-200.000	0.010	-0.066
-636.609	-200.000	0.022	0.288
-635.595	-200.000	0.281	-0.001
-634.580	-200.000	-0.010	-0.321
-633.565	134.661	0.162	0.210
-632.551	-111.441	-0.142	-0.029
-631.536	-24.308	-0.105	-0.062
-630.522	622.054	-0.070	0.175
-629.507	-21.623	0.078	-0.047
-628.492	266.602	0.158	0.275
-627.478	178.977	-0.066	0.096
-626.463	258.317	0.083	0.143
-625.449	-200.000	0.017	-0.206
-624.434	336.040	-0.233	-0.452
-623.419	319.485	0.134	0.254
-622.405	266.740	0.130	-0.226
-621.390	304.850	-0.044	0.082
-620.376	800.000	0.108	-0.408
-619.361	351.630	0.086	-0.171
-618.346	-65.746	-0.143	0.057
-617.332	-200.000	-0.070	0.356
-616.317	116.086	0.132	0.161
-615.303	131.666	0.068	-0.088
-614.288	-200.000	0.011	-0.240
-613.273	-200.000	0.043	-0.260
-612.259	-200.000	0.014	-0.102
-611.244	-200.000	0.049	0.393
-610.230	174.439	-0.208	-0.301
-609.215	39.263	0.158	-0.141
-608.201	800.000	-0.111	0.376
-607.186	-84.400	-0.209	0.066
-606.171	319.728	0.163	-0.308
-605.157	-47.205	0.092	0.045
-604.142	-49.409	0.111	-0.053
-603.128	537.598	0.112	-0.266
-602.113	-111.468	0.187	0.038
-601.098	800.000	-0.034	0.124
-600.084	11.866	-0.151	-0.116
-599.069	9.214	0.211	0.159
-598.055	48.222	0.286	0.267
-597.040	-121.175	-0.138	0.023
-596.025	107.242	-0.054	-0.064
-595.011	-200.000	-0.006	-0.138
-593.996	113.413	-0.033	0.040
-592.982	-200.000	-0.014	-0.164
-591.967	-118.471	0.059	0.010
-590.952	26.605	-0.081	0.067
-589.938	-118.847	-0.513	-0.090
-588.923	-60.936	-0.182	-0.077
-587.909	-152.047	0.111	0.008
-586.894	164.652	0.066	0.093
-585.879	-38.632	-0.264	0.139
-584.865	43.222	0.327	-0.298
-583.850	-91.224	0.164	0.047
-582.836	96.813	-0.105	0.120
-581.821	147.696	-0.104	0.140
-580.806	55.313	-0.224	-0.216
-579.792	-31.945	-0.106	0.059
-578.777	137.742	0.067	0.087
-577.763	788.781	-0.047	-0.128
-576.748	27.116	0.102	-0.085
-575.733	96.718	0.071	-0.081
-574.719	87.687	-0.110	-0.121
-573.704	49.801	0.237	0.223
-572.690	-49.026	-0.117	0.056
-571.675	800.000	-0.035	0.115
-570.661	294.199	0.112	-0.204
-569.646	214.295	0.179	-0.282
-568.631	-200.000	0.011	-0.166
-567.617	-18.667	0.053	0.033
-566.602	800.000	0.042	0.145
-565.588	-102.908	0.267	-0.063
-564.573	344.857	-0.095	0.185
-563.558	-36.715	-0.294	0.157
-562.544	88.591	0.062	-0.069
-561.529	-71.488	0.136	-0.051
-560.515	-76.280	-0.133	-0.047
-559.500	-74.261	-0.278	-0.100
-558.485	-18.352	-0.332	0.206
-557.471	-200.000	0.004	0.230
-556.456	219.451	0.046	0.073
-555.442	-85.571	0.052	-0.016
-554.427	-79.114	-0.167	0.057
-553.412	67.539	0.168	0.171
-552.398	19.445	0.067	0.054
-551.383	361.811	0.060	-0.121
-550.369	-182.273	-0.245	0.005
-549.354	-14.802	-0.304	0.194
-548.339	-135.247	0.077	0.009
-547.325	102.914	-0.012	0.014
-546.310	-14.784	-0.179	-0.114
-545.296	-200.000	0.052	-0.326
-544.281	157.269	-0.103	0.141
-543.266	158.805	0.119	-0.165
-542.252	800.000	0.075	-0.319
-541.237	239.961	0.167	-0.276
-540.223	-89.457	0.169	-0.050
-539.208	131.815	0.256	0.327
-538.193	-116.113	0.241	-0.045
-537.179	-200.000	-0.036	-0.231
-536.164	34.426	-0.183	-0.159
-535.150	51.186	-0.124	-0.117
-534.135	168.727	0.173	0.245
-533.121	60.678	-0.010	-0.010
-532.106	-47.335	-0.235	-0.114
-531.091	16.492	0.169	-0.133
-530.077	73.927	-0.065	0.068
-529.062	-200.000	0.001	-0.090
-528.048	-200.000	0.011	-0.084
-527.033	74.950	-0.031	0.032
-526.018	800.000	0.050	0.187
-525.004	410.589	-0.131	0.276
-523.989	-130.211	-0.202	-0.027
-522.975	55.259	-0.066	-0.063
-521.960	77.227	-0.241	0.255
-520.945	-166.050	-0.184	-0.008
-519.931	292.685	0.036	0.065
-518.916	-125.409	-0.310	0.047
-517.902	662.118	0.151	-0.388
-516.887	800.000	-0.099	-0.353
-515.872	524.240	-0.020	0.048
-514.858	32.929	-0.249	-0.214
-513.843	-132.244	0.258	0.033
-512.829	800.000	0.055	-0.171
-511.814	-144.058	0.152	-0.014
-510.799	800.000	-0.062	0.174
-509.785	53.537	-0.339	-0.323
-508.770	-27.621	0.168	-0.097
-507.756	7.097	-0.265	0.197
-506.741	-200.000	0.006	0.148
-505.726	-200.000	-0.050	-0.218
-504.712	179.552	0.074	0.107
-503.697	73.257	-0.277	-0.288
-502.683	-168.577	-0.049	0.002
-501.668	92.273	-0.118	0.132
-500.653	-24.287	0.117	0.069
-499.639	-161.265	-0.505	0.026
-498.624	230.477	-0.105	-0.171
-497.610	-70.934	-0.068	-0.026
-496.595	217.966	0.125	-0.198
-495.581	-136.023	-0.127	-0.015
-494.566	424.586	-0.124	0.266
-493.551	90.199	0.126	-0.140
-492.537	-166.095	0.336	-0.014
-491.522	-144.257	0.233	0.022
-490.508	-166.750	0.139	-0.006
-489.493	275.395	0.018	-0.031
-488.478	-5.858	-0.168	-0.114
-487.464	-32.040	-0.029	-0.016
-486.449	800.000	0.074	-0.250
-485.435	68.876	-0.178	-0.181
-484.420	519.233	0.088	0.206
-483.405	-200.000	0.014	-0.139
-482.391	-200.000	0.033	0.303
-481.376	196.485	0.072	0.109
-480.362	-200.000	-0.031	0.155
-479.347	99.354	-0.222	0.255
-478.332	766.029	-0.046	-0.123
-477.318	41.382	0.127	-0.114
-476.303	-200.000	0.005	0.029
-475.289	196.905	0.310	-0.470
-474.274	1.271	-0.170	0.121
-473.259	41.054	-0.262	-0.235
-472.245	800.000	-0.073	-0.253
-471.230	800.000	0.047	0.131
-470.216	56.548	-0.184	-0.178
-469.201	43.356	0.259	-0.235
-468.186	-169.999	-0.232	0.008
-467.172	-158.978	0.072	-0.004
-466.157	-86.219	0.204	-0.062
-465.143	-67.778	0.126	0.049
-464.128	57.371	0.067	0.065
-463.113	10.924	-0.295	0.224
-462.099	800.000	0.056	0.166
-461.084	203.272	-0.152	-0.233
-460.070	-200.000	-0.030	0.301
-459.055	-200.000	-0.053	0.264
-458.040	-200.000	0.021	-0.239
-457.026	-47.330	0.176	-0.085
-456.011	-34.881	0.452	0.245
-454.997	43.339	0.101	-0.092
-453.982	12.263	0.326	-0.249
-452.968	-164.919	-0.306	0.014
-451.953	-57.048	0.191	-0.083
-450.938	-171.443	0.383	-0.013
-449.924	-200.000	-0.000	0.174
-448.909	-40.161	-0.219	0.113
-447.895	187.216	0.155	0.228
-446.880	-200.000	0.013	0.091
-445.865	105.901	0.072	0.084
-444.851	-64.573	0.277	-0.112
-443.836	-135.995	-0.303	-0.035
-442.822	135.566	-0.148	0.191
-441.807	-200.000	-0.004	0.128
-440.792	-15.126	0.192	-0.122
-439.778	-42.489	0.215	0.109
-438.763	69.010	-0.160	0.163
-437.749	29.062	0.096	0.081
-436.734	-200.000	-0.007	-0.038
-435.719	3.574	0.096	0.070
-434.705	800.000	0.138	0.383
-433.690	-200.000	0.005	0.237
-432.676	-200.000	0.062	0.420
-431.661	800.000	0.036	-0.136
-430.646	41.671	-0.194	0.174
-429.632	-80.095	0.114	-0.038
-428.617	25.567	-0.241	-0.199
-427.603	-72.757	0.237	-0.086
-426.588	-200.000	0.003	0.080
-425.573	85.110	-0.269	0.292
-424.559	800.000	0.047	-0.168
-423.544	-63.216	-0.316	0.129
-422.530	262.809	-0.101	0.173
-421.515	162.699	0.097	-0.135
-420.500	144.577	0.222	0.294
-419.486	69.177	0.264	0.269
-418.471	-150.900	-0.132	0.010
-417.457	-200.000	-0.032	0.292
-416.442	-200.000	0.029	0.203
-415.428	266.207	-0.154	0.267
-414.413	-80.506	-0.336	-0.111
-413.398	-106.907	0.133	-0.029
-412.384	74.059	-0.076	0.079
-411.369	266.273	0.069	0.119
-410.355	332.837	0.201	0.385
-409.340	-70.850	0.078	0.029
-408.325	69.979	-0.012	-0.013
-407.311	-129.227	-0.204	0.028
-406.296	30.221	-0.168	0.142
-405.282	-137.056	-0.629	-0.071
-404.267	202.786	0.242	0.370
-403.252	-63.669	0.150	0.061
-402.238	800.000	-0.092	-0.344
-401.223	333.742	-0.088	-0.168
-400.209	323.372	0.152	0.287
-399.194	21.098	-0.133	-0.107
-398.179	-89.029	-0.335	-0.098
-397.165	-200.000	0.010	0.300
-396.150	46.696	0.212	0.195
-395.136	-65.226	0.311	-0.124
-394.121	-173.319	-0.273	-0.008
-393.106	-50.044	-0.367	0.172
-392.092	44.334	0.176	0.160
-391.077	63.860	-0.235	-0.234
-390.063	800.000	-0.103	0.395
-389.048	-24.632	0.237	-0.140
-388.033	5.996	0.145	0.106
-387.019	187.110	0.080	-0.117
-386.004	158.795	-0.069	-0.095
-384.990	301.339	-0.046	-0.084
-383.975	-87.994	0.108	-0.032
-382.960	92.760	0.247	-0.275
-381.946	215.718	-0.214	0.336
-380.931	94.980	0.181	0.204
-379.917	725.618	-0.065	-0.171
-378.902	11.747	-0.079	-0.060
-377.888	-101.414	0.237	0.057
-376.873	202.230	0.231	-0.353
-375.858	194.070	-0.219	-0.328
-374.844	800.000	-0.029	-0.114
-373.829	-146.497	-0.135	-0.012
-372.815	159.774	-0.027	-0.037
-371.800	-200.000	0.027	-0.143
-370.785	64.600	0.095	0.094
-369.771	249.794	-0.144	-0.241
-368.756	64.375	0.203	-0.202
-367.742	800.000	-0.040	-0.160
-366.727	214.364	0.026	-0.041
-365.712	64.800	0.122	-0.121
-364.698	-74.886	-0.293	-0.104
-363.683	-20.903	0.208	-0.126
-362.669	-52.020	-0.250	0.115
-361.654	3.459	0.084	-0.061
-360.639	-200.000	0.023	0.196
-359.625	-200.000	0.275	0.000
-358.610	215.461	0.064	-0.100
-357.596	82.184	0.313	-0.336
-356.581	172.921	-0.092	0.131
-355.566	-3.520	0.149	0.102
-354.552	169.200	0.133	-0.188
-353.537	275.118	0.192	0.336
-352.523	800.000	0.188	0.515
-351.508	-90.457	-0.132	-0.038
-350.493	-79.078	-0.270	0.091
-349.479	800.000	-0.019	0.057
-348.464	62.209	0.111	-0.110
-347.450	800.000	0.051	-0.162
-346.435	-162.138	-0.041	-0.002
-345.420	-200.000	-0.038	-0.367
-344.406	-200.000	0.005	0.126
-343.391	461.758	0.028	0.061
-342.377	800.000	0.139	0.380
-341.362	4.378	-0.230	0.166
-340.348	-77.999	-0.059	-0.020
-339.333	-63.361	-0.377	-0.153
-338.318	240.554	0.040	0.065
-337.304	253.800	0.106	-0.179
-336.289	-106.119	-0.164	-0.036
-335.275	216.268	0.147	0.231
-334.260	36.022	0.284	-0.247
-333.245	-65.903	0.045	-0.018
-332.231	-117.856	0.125	0.022
-331.216	-200.000	0.004	-0.128
-330.202	-115.983	0.129	-0.024
-329.187	-31.104	-0.018	-0.010
-328.172	-34.858	-0.311	-0.168
-327.158	-95.073	0.110	-0.029
-326.143	134.193	0.082	0.105
-325.129	-58.812	-0.233	0.099
-324.114	-200.000	-0.009	-0.098
-323.099	34.446	-0.381	-0.328
-322.085	71.665	-0.181	0.185
-321.070	-200.000	0.068	0.375
-320.056	416.696	-0.202	0.426
-319.041	-200.000	0.014	0.369
-318.026	74.866	0.146	-0.151
-317.012	-200.000	-0.000	0.075
-315.997	-144.687	-0.135	-0.012
-314.983	15.873	-0.261	-0.202
-313.968	-116.469	-0.118	0.022
-312.953	12.059	0.363	0.275
-311.939	-200.000	0.036	0.188
-310.924	-143.771	-0.253	-0.024
-309.910	800.000	0.066	-0.233
-308.895	-200.000	-0.073	0.480
-307.880	-200.000	0.023	0.181
-306.866	-102.306	-0.192	-0.046
-305.851	-71.217	0.153	0.057
-304.837	-72.811	-0.301	-0.109
-303.822	-148.610	0.176	-0.014
-302.807	-122.585	-0.486	-0.078
-301.793	574.807	0.078	-0.188
-300.778	-173.606	-0.053	0.002
-299.764	-21.593	0.023	-0.014
-298.749	-55.451	-0.136	0.060
-297.735	-84.035	-0.195	0.061
-296.720	452.424	0.077	0.167
-295.705	185.319	0.111	-0.163
-294.691	800.000	0.127	0.433
-293.676	296.389	-0.110	0.198
-292.662	-200.000	0.027	-0.342
-291.647	800.000	-0.085	-0.367
-290.632	-29.042	0.065	0.037
-289.618	120.536	0.037	0.045
-288.603	22.713	0.017	-0.014
-287.589	88.619	0.064	0.070
-286.574	-92.130	-0.162	0.045
-285.559	-200.000	0.012	0.235
-284.545	-200.000	-0.043	-0.188
-283.530	-74.710	0.120	-0.042
-282.516	17.731	-0.323	-0.253
-281.501	610.835	-0.100	0.247
-280.486	185.269	0.099	-0.145
-279.472	-54.964	-0.184	-0.082
-278.457	-38.418	0.074	-0.039
-277.443	800.000	-0.058	0.226
-276.428	-0.020	0.366	0.257
-275.413	242.155	0.066	-0.108
-274.399	67.470	-0.112	0.113
-273.384	800.000	0.089	0.290
-272.370	-31.865	0.148	-0.081
-271.355	63.704	-0.043	0.042
-270.340	-61.059	-0.444	0.184
-269.326	-95.641	0.369	0.097
-268.311	-200.000	0.034	-0.467
-267.297	359.630	0.103	-0.203
-266.282	-27.725	0.405	0.231
-265.267	-200.000	-0.018	-0.180
-264.253	-200.000	0.002	-0.120
-263.238	-184.891	-0.186	-0.003
-262.224	47.758	0.133	0.122
-261.209	99.767	0.197	-0.225
-260.195	337.676	0.030	0.057
-259.180	-200.000	-0.009	-0.645
-258.165	491.742	-0.082	0.186
-257.151	438.402	0.098	0.211
-256.136	800.000	-0.083	-0.299
-255.122	-80.669	0.185	0.061
-254.107	17.578	0.253	0.198
-253.092	-93.337	-0.182	0.050
-252.078	162.676	0.078	-0.108
-251.063	323.566	-0.099	0.185
-250.049	-131.842	0.097	-0.013
-249.034	800.000	-0.081	0.256
-248.019	-5.517	-0.040	0.027
-247.005	-115.318	-0.146	-0.027
-245.990	-120.653	-0.085	0.014
-244.976	-200.000	-0.009	-0.099
-243.961	-155.145	0.359	0.023
-242.946	-16.414	-0.178	-0.111
-241.932	528.630	0.036	-0.084
-240.917	-200.000	0.000	0.132
-239.903	177.467	0.130	-0.186
-238.888	-125.371	0.329	0.049
-237.873	800.000	0.112	0.400
-236.859	30.306	-0.183	0.154
-235.844	-79.030	0.174	-0.058
-234.830	146.103	-0.170	-0.224
-233.815	-147.481	0.219	0.018
-232.800	231.461	0.050	-0.080
-231.786	-103.552	0.255	0.059
-230.771	-200.000	0.057	0.326
-229.757	-14.811	-0.079	-0.050
-228.742	800.000	-0.076	-0.306
-227.727	800.000	0.111	-0.325
-226.713	-70.320	-0.144	0.054
-225.698	145.947	0.022	-0.029
-224.684	388.337	0.037	0.075
-223.669	-47.585	0.128	0.061
-222.655	24.037	0.171	0.139
-221.640	261.826	-0.173	-0.294
-220.625	48.453	-0.030	-0.027
-219.611	-152.294	0.475	-0.034
-218.596	348.492	0.234	-0.453
-217.582	-158.011	-0.040	0.002
-216.567	800.000	0.144	-0.401
-215.552	-200.000	0.013	-0.402
-214.538	75.711	0.136	0.141
-213.523	28.946	0.139	-0.115
-212.509	-106.708	-0.285	0.062
-211.494	-153.273	0.187	0.013
-210.479	9.090	-0.135	-0.100
-209.465	649.475	-0.031	-0.078
-208.450	213.683	-0.151	-0.235
-207.436	-168.979	0.260	-0.010
-206.421	-200.000	-0.014	-0.434
-205.406	127.932	0.239	-0.298
-204.392	36.371	-0.168	0.146
-203.377	22.724	-0.014	0.011
-202.363	-200.000	-0.036	-0.213
-201.348	137.819	-0.259	-0.333
-200.333	-58.411	-0.116	0.050
-199.319	441.105	0.120	-0.257
-198.304	51.783	-0.210	-0.196
-197.290	226.447	-0.285	0.454
-196.275	-70.856	-0.397	-0.147
-195.260	-107.634	0.028	0.006
-194.246	561.766	-0.018	-0.043
-193.231	-200.000	-0.050	0.507
-192.217	-70.873	0.211	-0.078
-191.202	1.016	-0.361	-0.254
-190.187	800.000	0.052	0.174
-189.173	-126.051	0.265	-0.039
-188.158	25.431	-0.391	0.319
-187.144	800.000	-0.090	0.293
-186.129	96.173	0.351	0.394
-185.114	181.741	0.198	0.286
-184.100	77.791	-0.132	0.139
-183.085	70.380	0.103	-0.105
-182.071	78.327	-0.093	-0.097
-181.056	-200.000	0.025	0.202
-180.042	18.467	0.204	0.160
-179.027	-200.000	-0.021	0.109
-178.012	-71.449	0.190	-0.070
-176.998	-104.444	-0.166	0.038
-175.983	225.847	-0.142	-0.225
-174.969	-200.000	-0.018	0.101
-173.954	48.321	0.221	0.203
-172.939	-200.000	-0.001	-0.196
-171.925	-200.000	0.035	-0.164
-170.910	245.168	-0.109	0.181
-169.896	-153.059	-0.151	0.010
-168.881	-200.000	0.005	-0.096
-167.866	-27.749	-0.205	0.116
-166.852	315.683	0.094	0.174
-165.837	-54.350	0.259	0.115
-164.823	800.000	-0.034	-0.124
-163.808	150.047	-0.173	0.230
-162.793	-175.310	-0.317	0.009
-161.779	-92.698	-0.198	-0.054
-160.764	-200.000	-0.063	-0.347
-159.750	60.335	-0.225	0.218
-158.735	81.070	0.111	-0.118
-157.720	237.812	-0.059	0.095
-156.706	2.596	0.172	-0.122
-155.691	-80.160	0.251	0.082
-154.677	177.069	0.366	-0.523
-153.662	49.548	0.098	-0.090
-152.647	-200.000	-0.005	0.136
-151.633	42.382	-0.321	-0.286
-150.618	14.421	0.221	-0.169
-149.604	-200.000	-0.027	-0.155
-148.589	-86.463	-0.151	0.045
-147.574	-79.418	-0.290	-0.096
-146.560	75.056	0.281	-0.290
-145.545	36.400	-0.223	-0.192
-144.531	-60.164	-0.331	0.138
-143.516	-60.249	0.361	-0.151
-142.502	-200.000	0.012	-0.171
-141.487	-144.240	-0.448	0.041
-140.472	-110.713	0.164	0.033
-139.458	705.368	0.012	0.030
-138.443	367.961	-0.025	0.050
-137.429	75.498	0.256	0.265
-136.414	-74.283	-0.405	0.143
-135.399	12.930	-0.034	-0.025
-134.385	101.231	0.099	-0.113
-133.370	-58.213	0.164	0.070
-132.356	128.470	0.197	0.245
-131.341	-138.269	-0.372	-0.040
-130.326	27.869	0.224	-0.185
-129.312	-111.440	0.139	-0.028
-128.297	-139.671	0.277	0.029
-127.283	178.487	-0.243	0.347
-126.268	4.222	0.186	0.134
-125.253	800.000	-0.037	0.117
-124.239	103.982	-0.121	-0.139
-123.224	80.828	0.067	-0.070
-122.210	-200.000	-0.021	0.111
-121.195	-200.000	0.005	0.131
-120.180	207.746	-0.078	-0.119
-119.166	-45.617	0.137	0.066
-118.151	-121.156	0.340	-0.056
-117.137	-122.374	0.343	0.055
-116.122	444.417	-0.047	0.100
-115.107	-200.000	0.035	0.252
-114.093	-35.717	-0.158	0.084
-113.078	-200.000	-0.046	-0.271
-112.064	800.000	0.040	-0.167
-111.049	93.498	0.297	0.329
-110.034	-154.031	-0.030	-0.002
-109.020	-45.664	0.379	0.184
-108.005	536.829	-0.045	0.105
-106.991	-131.156	0.271	-0.035
-105.976	103.004	0.110	0.126
-104.962	-46.854	-0.353	0.169
-103.947	-121.467	-0.203	0.033
-102.932	-2.992	0.257	-0.176
-101.918	59.224	-0.382	0.368
-100.903	-25.259	-0.249	0.144
-99.889	499.880	0.076	0.172
-98.874	70.896	-0.044	0.044
-97.859	27.829	0.081	-0.067
-96.845	-0.429	-0.134	0.093
-95.830	64.046	0.365	-0.360
-94.816	27.514	-0.195	0.160
-93.801	-200.000	0.077	-0.000
-92.786	800.000	-0.029	0.081
-91.772	48.942	0.152	-0.140
-90.757	800.000	0.092	0.260
-89.743	800.000	0.077	-0.281
-88.728	-200.000	0.061	-0.659
-87.713	346.492	0.183	-0.352
-86.699	-13.497	-0.336	-0.213
-85.684	-200.000	0.003	0.223
-84.670	800.000	-0.090	-0.243
-83.655	-12.641	-0.362	-0.231
-82.640	48.432	-0.138	-0.127
-81.626	-144.742	-0.161	-0.014
-80.611	-200.000	0.011	0.077
-79.597	49.942	0.118	-0.109
-78.582	-8.219	0.218	-0.144
-77.567	10.194	0.049	-0.036
-76.553	-32.017	-0.609	-0.333
-75.538	-157.266	-0.166	-0.010
-74.524	-28.456	-0.130	0.073
-73.509	17.318	0.182	0.141
-72.494	-200.000	-0.015	0.417
-71.480	201.418	0.100	-0.150
-70.465	-17.120	0.211	-0.130
-69.451	-69.431	-0.308	-0.115
-68.436	6.108	-0.192	-0.139
-67.422	-1.398	0.634	0.437
-66.407	800.000	-0.054	-0.157
-65.392	-138.471	-0.198	0.021
-64.378	-80.200	-0.131	-0.043
-63.363	114.195	0.156	0.185
-62.349	87.339	-0.143	0.155
-61.334	152.747	-1.278	-1.706
-60.319	22.069	0.839	0.669
-59.305	239.897	-0.735	-1.196
-58.290	475.463	0.719	1.585
-57.276	800.000	0.681	2.031
-56.261	-200.000	134.020	685.239
-55.246	352.117	1664.312	3220.138
-54.232	132.315	2811.837	3538.116
-53.217	82.568	2342.641	2483.939
-52.203	28.204	2077.140	1712.346
-51.188	23.630	1992.642	1601.465
-50.173	22.544	1977.432	1579.450
-49.159	41.049	2054.875	1811.734
-48.144	38.811	2065.590	1800.594
-47.130	24.144	2016.436	1625.014
-46.115	21.968	2005.143	1596.091
-45.100	21.858	2002.319	1592.781
-44.086	21.714	2000.344	1589.839
-43.071	21.768	1997.630	1588.105
-42.057	21.681	1995.885	1585.870
-41.042	21.827	1993.416	1585.166
-40.027	21.808	1991.896	1583.724
-39.013	21.813	1989.650	1581.915
-37.998	21.874	1987.827	1580.957
-36.984	21.809	1986.815	1579.504
-35.969	21.829	1985.068	1578.230
-34.954	21.821	1983.181	1576.600
-33.940	21.875	1981.894	1575.993
-32.925	21.890	1980.077	1574.622
-31.911	21.907	1978.050	1573.105
-30.896	21.863	1976.984	1571.793
-29.881	21.883	1975.617	1570.823
-28.867	21.937	1973.764	1569.773
-27.852	21.970	1971.826	1568.469
-26.838	21.967	1970.164	1567.052
-25.823	21.965	1968.287	1565.482
-24.809	21.891	1966.447	1563.299
-23.794	21.862	1965.458	1562.194
-22.779	21.876	1963.139	1560.405
-21.765	21.906	1961.733	1559.499
-20.750	21.870	1960.334	1557.999
-19.736	21.939	1958.767	1557.305
-18.721	21.973	1956.820	1555.996
-17.706	21.878	1955.217	1553.822
-16.692	21.951	1953.437	1552.988
-15.677	21.831	1951.766	1550.537
-14.663	21.923	1950.187	1550.038
-13.648	21.938	1949.010	1549.173
-12.633	21.856	1947.995	1547.578
-11.619	21.861	1946.454	1546.337
-10.604	21.844	1945.512	1545.379
-9.590	21.841	1944.306	1544.337
-8.575	21.838	1942.783	1543.032
-7.560	21.838	1941.708	1542.121
-6.546	21.901	1939.947	1541.218
-5.531	21.762	1939.034	1539.208
-4.517	21.859	1937.807	1539.026
-3.502	21.863	1936.755	1538.162
-2.487	21.865	1935.191	1536.877
-1.473	21.840	1934.740	1536.239
-0.458	21.918	1928.999	1532.302
0.556	20.573	1908.155	1502.207
1.571	16.053	1888.637	1447.967
2.586	12.131	1911.704	1431.359
3.600	11.167	1946.757	1448.909
4.615	11.245	1939.144	1443.802
5.629	8.907	1840.419	1350.503
6.644	3.766	1730.971	1229.260
7.659	0.960	1699.573	1184.926
8.673	0.736	1697.137	1181.366
9.688	0.755	1695.759	1180.456
10.702	0.735	1694.292	1179.171
11.717	0.644	1689.842	1175.264
12.731	0.905	1689.107	1176.677
13.746	5.073	1696.549	1214.253
14.761	11.879	1711.077	1277.817
15.775	16.323	1719.109	1318.476
16.790	17.194	1719.895	1325.758
17.804	16.289	1716.856	1316.249
18.819	15.443	1713.035	1306.617
19.834	14.861	1710.705	1300.196
20.848	14.493	1709.765	1296.507
21.863	14.379	1707.407	1293.722
22.877	13.994	1706.633	1290.031
23.892	13.827	1704.826	1287.258
24.907	13.687	1703.241	1284.860
25.921	13.738	1701.871	1284.111
26.936	13.727	1701.327	1283.501
27.950	13.697	1700.707	1282.689
28.965	13.801	1699.909	1282.777
29.980	13.813	1699.126	1282.160
30.994	13.859	1698.258	1281.750
32.009	13.900	1696.854	1280.897
33.023	14.006	1695.921	1280.890
34.038	14.069	1694.976	1280.552
35.053	13.937	1694.418	1279.001
36.067	13.921	1693.118	1277.785
37.082	13.945	1692.106	1277.091
38.096	13.821	1691.230	1275.366
39.111	13.918	1690.047	1275.104
40.126	13.900	1689.690	1274.585
41.140	13.946	1688.288	1273.762
42.155	13.822	1687.101	1271.810
43.169	13.656	1685.799	1269.438
44.184	13.718	1684.603	1268.903
45.199	13.733	1683.364	1267.972
46.213	13.702	1682.300	1266.818
47.228	13.737	1680.922	1265.939
48.242	13.716	1679.619	1264.686
49.257	13.738	1678.461	1263.867
50.271	13.815	1677.463	1263.592
51.286	13.827	1675.773	1262.301
52.301	13.786	1674.793	1261.135
53.315	13.809	1673.150	1259.960
54.330	13.759	1672.028	1258.624
55.344	13.846	1669.704	1257.428
56.359	13.839	1668.679	1256.487
57.374	13.767	1668.064	1255.372
58.388	13.738	1666.453	1253.825
59.403	13.799	1665.054	1253.124
60.417	13.678	1663.806	1251.160
61.432	13.709	1662.687	1250.442
62.447	13.740	1661.185	1249.438
63.461	13.601	1660.632	1247.865
64.476	13.666	1659.363	1247.289
65.490	13.590	1658.395	1245.881
66.505	13.595	1657.082	1244.822
67.520	13.630	1655.656	1243.899
68.534	13.716	1654.143	1243.296
69.549	13.588	1653.970	1242.098
70.563	13.647	1652.237	1241.132
71.578	13.717	1650.878	1240.520
72.593	13.713	1649.611	1239.431
73.607	13.636	1648.615	1237.996
74.622	13.544	1647.659	1236.487
75.636	13.688	1646.274	1236.407
76.651	13.541	1646.065	1235.046
77.666	13.660	1644.271	1234.476
78.680	13.570	1644.205	1233.649
79.695	13.558	1643.189	1232.685
80.709	13.653	1641.484	1232.007
81.724	13.599	1641.100	1231.211
82.739	13.624	1640.665	1230.956
83.753	13.716	1638.913	1230.215
84.768	13.768	1638.114	1229.890
85.782	13.769	1637.317	1229.192
86.797	13.839	1636.159	1228.737
87.812	13.870	1635.256	1228.178
88.826	13.828	1633.675	1226.573
89.841	13.679	1632.836	1224.729
90.855	13.839	1631.793	1225.023
91.870	13.787	1630.849	1223.818
92.884	13.802	1630.005	1223.188
93.899	13.912	1628.624	1222.853
94.914	13.827	1627.482	1221.264
95.928	13.894	1625.689	1220.301
96.943	13.851	1624.963	1219.334
97.957	14.003	1623.128	1218.967
98.972	13.920	1621.843	1217.281
99.987	13.844	1620.785	1215.824
101.001	13.867	1618.516	1214.186
102.016	13.800	1617.296	1212.672
103.030	13.815	1615.918	1211.643
104.045	13.784	1615.378	1210.899
105.060	13.845	1613.293	1209.678
106.074	13.805	1611.757	1208.127
107.089	13.797	1610.501	1207.018
108.103	13.765	1608.892	1205.473
109.118	13.658	1607.673	1203.676
110.133	13.742	1605.845	1202.815
111.147	13.708	1604.634	1201.553
112.162	13.697	1603.470	1200.495
113.176	13.774	1601.691	1199.616
114.191	13.748	1600.732	1198.600
115.206	13.794	1598.762	1197.353
116.220	13.756	1597.610	1196.106
117.235	13.722	1596.485	1194.914
118.249	13.764	1594.879	1193.910
119.264	13.703	1593.957	1192.676
120.279	13.707	1592.185	1191.271
121.293	13.772	1590.421	1190.313
122.308	13.770	1588.859	1189.023
123.322	13.673	1587.686	1187.350
124.337	13.767	1586.329	1186.901
125.352	13.739	1584.766	1185.428
126.366	13.770	1583.651	1184.708
127.381	13.628	1582.922	1183.048
128.395	13.708	1581.302	1182.301
129.410	13.784	1579.491	1181.386
130.424	13.739	1578.525	1180.238
131.439	13.722	1577.109	1178.955
132.454	13.660	1576.077	1177.635
133.468	13.838	1574.469	1177.593
134.483	13.847	1572.778	1176.289
135.497	13.893	1571.425	1175.497
136.512	13.779	1570.600	1173.970
137.527	13.924	1568.677	1173.452
138.541	13.850	1567.696	1172.096
139.556	13.799	1566.488	1170.724
140.570	13.795	1565.383	1169.772
141.585	13.941	1563.457	1169.252
142.600	14.014	1561.760	1168.392
143.614	14.044	1560.508	1167.566
144.629	13.958	1559.556	1166.149
145.643	14.053	1557.764	1165.372
146.658	14.038	1556.827	1164.459
147.673	14.035	1555.195	1163.113
148.687	14.000	1553.949	1161.836
149.702	13.945	1552.478	1160.250
150.716	13.959	1550.796	1158.987
151.731	13.986	1549.708	1158.261
152.746	13.916	1548.244	1156.575
153.760	13.996	1546.829	1155.975
154.775	13.922	1545.757	1154.553
155.789	14.057	1544.117	1154.167
156.804	14.095	1542.767	1153.317
157.819	14.125	1541.779	1152.688
158.833	14.119	1540.524	1151.606
159.848	14.146	1539.222	1150.717
160.862	14.159	1538.163	1149.912
161.877	14.152	1536.950	1148.852
162.892	14.055	1535.587	1147.064
163.906	14.123	1534.606	1146.698
164.921	14.009	1533.090	1144.682
165.935	14.106	1532.102	1144.507
166.950	14.160	1530.662	1143.701
167.964	14.218	1529.146	1142.867
168.979	14.149	1528.900	1142.104
169.994	14.147	1527.867	1141.222
171.008	14.199	1526.437	1140.409
172.023	14.120	1525.908	1139.371
173.037	14.106	1524.751	1138.312
174.052	14.236	1523.075	1137.848
175.067	14.183	1522.474	1136.937
176.081	14.199	1520.967	1135.822
177.096	14.247	1519.922	1135.267
178.110	14.236	1518.095	1133.726
179.125	14.228	1517.061	1132.802
180.140	14.321	1515.841	1132.421
181.154	14.247	1514.930	1131.139
182.169	14.240	1514.179	1130.429
183.183	14.264	1512.639	1129.340
184.198	14.301	1511.276	1128.472
185.213	14.439	1509.985	1128.347
186.227	14.460	1508.894	1127.571
187.242	14.350	1508.418	1126.374
188.256	14.422	1507.616	1126.160
189.271	14.441	1506.295	1125.200
190.286	14.461	1505.300	1124.496
191.300	14.399	1504.370	1123.285
192.315	14.341	1502.898	1121.696
193.329	14.260	1501.651	1120.120
194.344	14.256	1500.742	1119.317
195.359	14.287	1499.768	1118.695
196.373	14.380	1498.425	1118.218
197.388	14.374	1497.292	1117.236
198.402	14.529	1496.024	1117.229
199.417	14.538	1494.691	1116.195
200.432	14.560	1494.084	1115.790
201.446	14.529	1493.345	1114.929
202.461	14.596	1491.983	1114.267
203.475	14.653	1490.495	1113.436
204.490	14.726	1489.200	1112.856
205.504	14.666	1488.878	1112.116
206.519	14.517	1488.216	1110.528
207.534	14.638	1486.484	1109.948
208.548	14.612	1485.420	1108.881
209.563	14.658	1484.473	1108.382
210.577	14.590	1483.586	1107.166
211.592	14.612	1482.537	1106.434
212.607	14.697	1481.798	1106.349
213.621	14.760	1481.141	1106.176
214.636	14.793	1480.157	1105.559
215.650	14.849	1479.211	1105.127
216.665	14.753	1478.318	1103.729
217.680	14.798	1477.478	1103.304
218.694	14.910	1476.157	1102.958
219.709	14.842	1475.655	1102.034
220.723	14.773	1475.035	1101.023
221.738	14.830	1473.788	1100.366
222.753	14.791	1473.210	1099.583
223.767	14.874	1471.958	1099.094
224.782	14.887	1470.990	1098.360
225.796	14.886	1470.319	1097.753
226.811	14.943	1468.909	1096.976
227.826	15.013	1467.993	1096.655
228.840	14.972	1467.290	1095.766
229.855	14.919	1466.873	1095.011
230.869	14.898	1465.388	1093.665
231.884	14.972	1464.536	1093.420
232.899	14.995	1463.337	1092.579
233.913	14.964	1462.182	1091.414
234.928	14.916	1460.902	1090.051
235.942	14.973	1459.757	1089.469
236.957	14.928	1458.722	1088.313
237.972	14.952	1457.131	1087.181
238.986	15.026	1455.962	1086.697
240.001	15.024	1455.452	1086.205
241.015	15.010	1454.230	1085.105
242.030	15.053	1453.125	1084.464
243.045	15.183	1451.772	1084.201
244.059	15.111	1451.424	1083.378
245.074	15.104	1450.321	1082.413
246.088	15.120	1449.921	1082.120
247.103	15.151	1448.655	1081.280
248.117	15.160	1447.970	1080.737
249.132	15.179	1447.396	1080.330
250.147	15.272	1446.412	1080.104
251.161	15.299	1446.291	1080.086
252.176	15.358	1445.377	1079.693
253.190	15.421	1444.423	1079.288
254.205	15.351	1443.462	1078.026
255.220	15.452	1442.560	1077.901
256.234	15.456	1441.808	1077.269
257.249	15.517	1440.679	1076.725
258.263	15.469	1440.046	1075.849
259.278	15.474	1439.047	1075.039
260.293	15.539	1438.117	1074.663
261.307	15.465	1437.398	1073.562
262.322	15.609	1436.428	1073.660
263.336	15.656	1435.232	1072.971
264.351	15.613	1434.298	1071.907
265.366	15.676	1433.416	1071.553
266.380	15.631	1432.654	1070.601
267.395	15.635	1431.534	1069.694
268.409	15.697	1430.771	1069.422
269.424	15.669	1429.850	1068.466
270.439	15.578	1428.750	1066.971
271.453	15.726	1427.355	1066.771
272.468	15.721	1426.589	1066.073
273.482	15.711	1425.845	1065.361
274.497	15.695	1425.089	1064.600
275.512	15.750	1424.387	1064.329
276.526	15.726	1423.782	1063.628
277.541	15.653	1422.529	1062.141
278.555	15.763	1421.736	1062.149
279.570	15.754	1420.844	1061.331
280.585	15.739	1419.581	1060.198
281.599	15.874	1419.102	1060.597
282.614	15.894	1417.991	1059.799
283.628	15.932	1416.606	1058.907
284.643	15.871	1415.736	1057.783
285.657	15.821	1414.602	1056.527
286.672	15.845	1413.498	1055.760
287.687	15.925	1412.523	1055.440
288.701	15.982	1411.748	1055.124
289.716	15.875	1410.963	1053.776
290.730	15.967	1410.333	1053.787
291.745	15.945	1409.317	1052.797
292.760	15.857	1408.349	1051.432
293.774	16.066	1406.849	1051.524
294.789	15.979	1406.327	1050.496
295.803	16.048	1405.658	1050.329
296.818	16.114	1404.320	1049.650
297.833	16.098	1403.685	1048.985
298.847	16.055	1402.404	1047.665
299.862	16.050	1401.212	1046.649
300.876	16.038	1400.194	1045.722
301.891	16.074	1399.605	1045.417
302.906	16.060	1398.926	1044.727
303.920	16.207	1398.196	1044.999
304.935	16.118	1397.206	1043.616
305.949	16.209	1396.232	1043.364
306.964	16.224	1395.803	1043.039
307.979	16.291	1394.783	1042.597
308.993	16.190	1393.924	1041.241
310.008	16.175	1393.119	1040.456
311.022	16.302	1391.622	1040.030
312.037	16.396	1390.445	1039.638
313.052	16.332	1389.958	1038.785
314.066	16.421	1388.582	1038.211
315.081	16.310	1387.394	1036.550
316.095	16.336	1386.442	1035.909
317.110	16.247	1385.810	1034.799
318.125	16.308	1385.019	1034.487
319.139	16.299	1384.064	1033.631
320.154	16.338	1382.989	1032.977
321.168	16.282	1381.780	1031.636
322.183	16.215	1381.306	1030.785
323.197	16.328	1380.059	1030.450
324.212	16.350	1379.351	1029.967
325.227	16.423	1378.273	1029.511
326.241	16.369	1377.293	1028.359
327.256	16.427	1376.606	1028.110
328.270	16.410	1375.768	1027.290
329.285	16.461	1374.535	1026.590
330.300	16.464	1373.861	1026.015
331.314	16.437	1373.007	1025.121
332.329	16.474	1371.595	1024.198
333.343	16.470	1370.974	1023.622
334.358	16.472	1369.987	1022.805
335.373	16.518	1369.390	1022.551
336.387	16.550	1368.981	1022.342
337.402	16.445	1368.277	1021.097
338.416	16.549	1367.105	1020.755
339.431	16.666	1366.497	1020.921
340.446	16.624	1365.689	1019.973
341.460	16.639	1364.820	1019.323
342.475	16.686	1363.991	1018.899
343.489	16.787	1362.844	1018.554
344.504	16.845	1361.493	1017.805
345.519	16.799	1360.503	1016.702
346.533	16.808	1360.371	1016.565
347.548	16.815	1359.327	1015.735
348.562	16.939	1358.094	1015.469
349.577	16.978	1357.221	1014.957
350.592	16.956	1356.591	1014.266
351.606	16.833	1355.963	1012.971
352.621	16.731	1355.030	1011.577
353.635	16.815	1353.789	1011.058
354.650	16.887	1352.897	1010.731
355.665	16.925	1351.560	1009.871
356.679	16.797	1350.704	1008.379
357.694	16.894	1349.429	1007.915
358.708	16.873	1348.727	1007.180
359.723	16.960	1347.444	1006.649
360.738	17.093	1345.989	1006.262
361.752	16.957	1345.117	1004.712
362.767	17.069	1343.604	1004.157
363.781	16.899	1343.495	1002.980
364.796	16.952	1343.244	1003.017
365.810	17.006	1341.801	1002.173
366.825	17.060	1341.571	1002.232
367.840	17.086	1340.693	1001.640
368.854	17.007	1339.811	1000.428
369.869	17.134	1339.638	1000.955
370.883	17.183	1338.386	1000.221
371.898	17.169	1337.583	999.449
372.913	17.156	1337.024	998.865
373.927	17.140	1336.207	998.076
374.942	17.268	1335.110	997.916
375.956	17.252	1334.586	997.343
376.971	17.228	1334.023	996.693
377.986	17.175	1332.773	995.361
379.000	17.277	1332.016	995.307
380.015	17.226	1331.664	994.659
381.029	17.355	1330.412	994.389
382.044	17.217	1330.157	993.303
383.059	17.360	1328.927	993.134
384.073	17.467	1328.340	993.226
385.088	17.426	1327.785	992.486
386.102	17.441	1327.159	992.020
387.117	17.516	1326.272	991.707
388.132	17.495	1325.435	990.866
389.146	17.451	1324.509	989.834
390.161	17.445	1323.996	989.327
391.175	17.349	1323.165	988.062
392.190	17.471	1322.083	987.871
393.205	17.461	1321.209	987.076
394.219	17.431	1320.181	986.045
395.234	17.629	1318.711	986.008
396.248	17.551	1317.730	984.734
397.263	17.628	1315.955	983.769
398.278	17.640	1314.652	982.776
399.292	17.428	1314.191	981.119
400.307	17.547	1313.168	980.955
401.321	17.609	1311.975	980.337
402.336	17.488	1311.194	978.967
403.350	17.619	1309.715	978.529
404.365	17.597	1309.088	977.849
405.380	17.582	1308.165	976.987
406.394	17.634	1307.169	976.453
407.409	17.563	1306.518	975.474
408.423	17.595	1306.267	975.384
409.438	17.741	1305.324	975.431
410.453	17.747	1304.352	974.649
411.467	17.856	1303.698	974.700
412.482	17.834	1303.127	974.059
413.496	17.795	1302.387	973.198
414.511	17.803	1301.536	972.523
415.526	17.886	1300.962	972.480
416.540	17.931	1300.437	972.256
417.555	17.961	1299.365	971.540
418.569	17.868	1299.338	970.904
419.584	17.927	1298.561	970.574
420.599	18.009	1297.677	970.291
421.613	102.009	1361.864	1491.275
422.628	100.132	1371.151	1491.361
