DTS Sentinel unit serial number:	SN413079Multiplexer serial number:	ORYXHardware model number:	OX4-SRSoftware version number:	ORYX F/W v4.00 Oryx Data Collector v3.7.2.0data status	okinstallation	princeton_trtdifferential loss correction	single-endedforward channel	channel 4reverse channel	N/Adate	2019/09/14time	22:25:35forward acquisition time	60.00reverse acquisition time	0.00gamma	496.2192k internal	0.2306k external	0.2306temperature offset calibration	1.0063default loss term (dB/km)	0.3790temperature slope calibration	1.0000multiplexer offset coefficient	1.0000multiplexer slope coefficient	1.0000fibre end	0.00T internal ref (°C)	32.56T ext. ref 1 (°C)	4.71T ext. ref 2 (°C)	27.53length (m)	temperature (°C)	Stokes	anti-Stokes-747.200	104.563	0.096	0.115
-746.185	775.201	-0.078	0.216
-745.171	552.566	-0.059	0.144
-744.156	193.118	0.114	0.175
-743.142	97.565	0.284	0.332
-742.127	132.723	-0.047	0.061
-741.112	34.579	0.103	0.091
-740.098	800.000	-0.075	0.217
-739.083	592.054	-0.099	0.249
-738.069	225.758	0.022	-0.036
-737.054	209.942	0.064	-0.103
-736.039	-200.000	0.010	-0.063
-735.025	-111.861	0.479	0.098
-734.010	154.014	-0.103	0.144
-732.996	-39.339	0.085	0.045
-731.981	-82.573	-0.148	0.049
-730.966	0.186	0.133	0.096
-729.952	-80.729	-0.311	-0.105
-728.937	670.290	-0.082	-0.215
-727.923	131.735	0.252	0.330
-726.908	0.718	0.176	-0.128
-725.894	-64.554	-0.024	0.010
-724.879	-129.113	-0.068	-0.010
-723.864	-19.534	-0.103	-0.065
-722.850	179.770	-0.073	-0.108
-721.835	80.164	-0.296	-0.323
-720.821	-60.755	0.045	-0.019
-719.806	570.800	0.080	-0.198
-718.791	65.299	-0.017	0.017
-717.777	-119.057	-0.253	-0.045
-716.762	-200.000	0.026	0.121
-715.748	-70.675	-0.148	-0.057
-714.733	800.000	-0.046	-0.182
-713.718	-200.000	0.026	-0.166
-712.704	-101.061	-0.210	0.052
-711.689	-119.019	-0.268	0.048
-710.675	-138.237	0.064	0.007
-709.660	-200.000	0.038	0.269
-708.645	800.000	-0.041	0.165
-707.631	-200.000	-0.045	0.303
-706.616	-200.000	0.085	0.648
-705.602	40.009	-0.026	-0.024
-704.587	263.615	0.068	0.119
-703.572	-1.227	0.149	-0.107
-702.558	239.885	-0.178	0.302
-701.543	584.024	-0.038	-0.095
-700.529	-200.000	0.036	-0.185
-699.514	-200.000	0.028	-0.333
-698.499	800.000	0.086	-0.259
-697.485	-0.425	0.164	0.118
-696.470	224.114	-0.228	0.374
-695.456	421.696	0.086	-0.186
-694.441	295.622	-0.138	-0.256
-693.426	329.508	-0.095	-0.185
-692.412	-36.674	0.189	0.103
-691.397	-167.495	-0.164	0.007
-690.383	-151.248	-0.300	0.023
-689.368	169.513	-0.203	0.295
-688.354	236.669	-0.086	0.144
-687.339	141.960	-0.089	-0.120
-686.324	-161.003	0.266	0.014
-685.310	-113.609	-0.164	-0.032
-684.295	31.045	0.054	-0.047
-683.281	-64.800	0.356	-0.146
-682.266	31.975	-0.138	-0.121
-681.251	82.921	-0.348	0.384
-680.237	36.671	0.143	-0.128
-679.222	-64.384	0.304	0.126
-678.208	-139.051	-0.129	-0.014
-677.193	800.000	-0.048	-0.165
-676.178	-15.760	-0.337	-0.218
-675.164	800.000	0.031	0.107
-674.149	-56.309	-0.354	0.160
-673.135	115.776	0.301	-0.373
-672.120	-104.134	-0.184	-0.043
-671.105	-83.439	0.306	-0.099
-670.091	24.011	-0.185	0.155
-669.076	-200.000	-0.036	0.171
-668.062	-63.991	0.322	0.133
-667.047	-157.777	0.286	-0.017
-666.032	-84.509	-0.071	0.023
-665.018	55.947	-0.071	0.070
-664.003	81.510	0.085	-0.094
-662.989	-73.435	-0.151	-0.056
-661.974	-98.642	0.122	0.032
-660.959	-200.000	-0.059	-0.295
-659.945	-200.000	0.107	0.489
-658.930	800.000	0.116	-0.474
-657.916	-6.482	0.346	-0.239
-656.901	212.704	0.103	0.164
-655.886	-66.764	0.038	0.015
-654.872	-200.000	0.027	0.199
-653.857	800.000	-0.023	0.070
-652.843	-46.909	0.088	-0.044
-651.828	-81.425	-0.361	-0.120
-650.814	-94.059	0.300	-0.083
-649.799	800.000	-0.088	-0.313
-648.784	-68.185	-0.216	0.085
-647.770	3.408	0.297	-0.219
-646.755	-22.667	-0.478	-0.293
-645.741	-41.304	-0.138	0.072
-644.726	-200.000	-0.044	-0.262
-643.711	-146.961	-0.019	-0.002
-642.697	157.705	0.222	0.312
-641.682	726.225	-0.070	-0.188
-640.668	44.974	-0.088	0.082
-639.653	-42.311	-0.300	-0.155
-638.638	41.184	-0.115	-0.106
-637.624	800.000	0.073	-0.254
-636.609	-200.000	0.039	-0.468
-635.595	74.939	-0.033	-0.035
-634.580	-200.000	-0.048	0.278
-633.565	505.555	-0.165	-0.387
-632.551	662.487	0.148	0.385
-631.536	17.530	-0.490	0.394
-630.522	250.802	-0.184	0.317
-629.507	-22.859	0.341	0.208
-628.492	800.000	0.073	-0.293
-627.478	505.517	-0.038	-0.090
-626.463	111.276	0.046	0.056
-625.449	342.755	-0.124	-0.245
-624.434	-59.188	-0.263	0.115
-623.419	1.779	-0.032	-0.024
-622.405	146.387	-0.216	-0.293
-621.390	-23.061	-0.249	0.152
-620.376	42.371	0.038	-0.035
-619.361	180.318	0.070	-0.103
-618.346	230.184	-0.222	0.367
-617.332	8.312	0.178	0.135
-616.317	-0.011	0.342	0.247
-615.303	425.126	0.068	-0.148
-614.288	-40.225	-0.127	0.067
-613.273	64.687	-0.183	-0.187
-612.259	800.000	0.090	-0.295
-611.244	-41.858	0.037	0.019
-610.230	-200.000	0.017	-0.158
-609.215	-169.178	-0.101	0.004
-608.201	-106.530	-0.106	0.024
-607.186	92.475	0.123	0.140
-606.171	-19.957	0.296	-0.185
-605.157	15.320	-0.191	-0.152
-604.142	-95.609	-0.077	-0.021
-603.128	307.445	-0.084	-0.158
-602.113	-24.653	-0.202	0.122
-601.098	-164.164	0.176	0.008
-600.084	-50.257	0.253	-0.121
-599.069	-128.889	-0.388	-0.055
-598.055	425.906	0.081	0.176
-597.040	-87.811	-0.048	0.015
-596.025	563.482	0.043	-0.104
-595.011	695.855	-0.034	-0.089
-593.996	210.736	-0.324	0.515
-592.982	215.444	-0.084	-0.134
-591.967	-11.372	0.039	-0.026
-590.952	263.410	-0.086	-0.151
-589.938	-200.000	0.058	-0.432
-588.923	-200.000	-0.026	-0.353
-587.909	14.350	-0.279	-0.220
-586.894	-73.375	0.277	0.102
-585.879	800.000	0.164	-0.465
-584.865	-200.000	0.021	0.106
-583.850	55.179	-0.089	0.087
-582.836	-107.216	0.065	-0.014
-581.821	57.472	-0.030	-0.030
-580.806	-82.614	0.128	0.042
-579.792	-137.464	0.355	-0.041
-578.777	63.822	-0.215	-0.219
-577.763	755.553	-0.059	-0.161
-576.748	322.915	0.110	-0.213
-575.733	138.940	-0.123	-0.163
-574.719	-200.000	0.035	-0.253
-573.704	-106.648	-0.162	0.036
-572.690	370.167	0.051	0.105
-571.675	-153.777	0.113	0.008
-570.661	419.715	0.038	-0.083
-569.646	6.272	-0.284	-0.213
-568.631	115.479	-0.137	-0.169
-567.617	652.008	0.075	-0.195
-566.602	97.578	-0.131	0.152
-565.588	-65.585	0.025	-0.010
-564.573	-200.000	0.007	0.260
-563.558	-182.836	-0.138	0.003
-562.544	-102.126	-0.129	-0.031
-561.529	800.000	-0.065	0.197
-560.515	459.420	0.019	0.042
-559.500	372.078	-0.176	0.360
-558.485	89.075	-0.125	0.140
-557.471	284.388	0.058	-0.106
-556.456	9.274	-0.246	0.188
-555.442	31.569	-0.216	-0.187
-554.427	50.722	-0.250	0.239
-553.412	229.707	-0.054	-0.089
-552.398	15.549	-0.275	0.218
-551.383	289.170	-0.046	0.084
-550.369	800.000	0.057	-0.210
-549.354	-16.183	-0.104	-0.067
-548.339	-130.347	0.147	-0.020
-547.325	-42.166	-0.143	0.074
-546.310	-114.296	0.184	-0.036
-545.296	800.000	0.078	-0.232
-544.281	-128.521	0.119	-0.017
-543.266	-9.164	0.112	-0.076
-542.252	-69.127	0.153	-0.059
-541.237	310.075	0.050	-0.095
-540.223	-101.800	0.261	-0.064
-539.208	-200.000	-0.051	0.244
-538.193	-86.087	0.103	-0.032
-537.179	62.045	-0.267	0.269
-536.164	99.519	0.054	0.063
-535.150	800.000	0.043	0.122
-534.135	89.322	-0.191	-0.215
-533.121	-74.376	-0.335	-0.122
-532.106	179.109	-0.137	-0.202
-531.091	-5.117	0.221	-0.153
-530.077	-200.000	-0.013	0.346
-529.062	-39.371	-0.277	0.146
-528.048	-60.824	0.097	0.041
-527.033	360.506	0.097	-0.196
-526.018	324.717	0.053	-0.101
-525.004	-69.563	0.191	0.074
-523.989	161.217	-0.098	0.138
-522.975	363.728	-0.084	0.171
-521.960	-200.000	0.074	-0.393
-520.945	-75.444	-0.104	0.037
-519.931	-200.000	-0.015	0.198
-518.916	-124.622	-0.065	0.010
-517.902	-137.556	-0.041	0.005
-516.887	129.294	-0.111	-0.142
-515.872	800.000	0.026	-0.093
-514.858	17.537	0.090	-0.072
-513.843	-92.534	0.304	0.086
-512.829	-16.908	0.306	0.195
-511.814	-200.000	-0.101	-0.518
-510.799	-126.798	0.309	0.046
-509.785	-200.000	0.032	0.252
-508.770	-39.572	0.148	-0.078
-507.756	22.446	0.062	0.051
-506.741	-12.375	-0.077	0.051
-505.726	800.000	0.083	0.247
-504.712	-144.230	0.191	0.018
-503.697	459.157	0.121	-0.271
-502.683	-72.997	0.155	-0.058
-501.668	10.330	-0.249	0.191
-500.653	194.009	0.082	0.126
-499.639	800.000	0.094	0.342
-498.624	62.141	-0.209	0.210
-497.610	34.102	-0.032	-0.028
-496.595	362.482	-0.222	-0.449
-495.581	245.616	-0.032	0.055
-494.566	18.401	0.215	0.173
-493.551	94.098	-0.249	0.284
-492.537	-43.318	0.204	0.104
-491.522	-168.273	0.128	0.005
-490.508	57.957	-0.211	-0.208
-489.493	-59.155	-0.110	-0.048
-488.478	-200.000	-0.019	-0.200
-487.464	172.632	0.200	0.289
-486.449	-80.681	-0.278	-0.093
-485.435	-43.993	0.111	-0.056
-484.420	266.804	0.228	0.401
-483.405	-91.335	0.181	0.052
-482.391	-49.581	0.143	0.069
-481.376	-200.000	-0.039	0.316
-480.362	-79.308	0.226	-0.077
-479.347	-61.266	0.198	0.084
-478.332	-25.073	0.300	0.179
-477.318	-183.207	0.121	-0.002
-476.303	241.604	0.078	-0.131
-475.289	232.669	-0.151	0.250
-474.274	-93.086	-0.333	-0.093
-473.259	105.127	-0.126	-0.150
-472.245	181.509	-0.155	0.230
-471.230	124.260	-0.427	-0.541
-470.216	-41.689	0.064	-0.033
-469.201	-64.501	-0.103	0.042
-468.186	523.691	0.106	-0.250
-467.172	-147.143	-0.411	-0.035
-466.157	25.528	0.174	0.145
-465.143	8.720	0.198	0.150
-464.128	21.251	-0.069	-0.056
-463.113	608.069	0.115	-0.289
-462.099	-113.608	-0.174	0.034
-461.084	49.421	-0.067	-0.063
-460.070	-200.000	-0.029	-0.240
-459.055	-200.000	0.026	0.291
-458.040	49.464	-0.094	0.089
-457.026	-200.000	0.013	0.251
-456.011	-32.371	-0.195	-0.110
-454.997	163.556	0.185	0.261
-453.982	16.249	0.056	0.044
-452.968	-200.000	0.014	0.128
-451.953	722.263	0.057	0.152
-450.938	25.428	0.069	0.058
-449.924	-31.082	-0.115	-0.065
-448.909	359.935	0.241	0.485
-447.895	-80.117	-0.114	-0.039
-446.880	13.135	-0.293	0.228
-445.865	-200.000	-0.007	0.190
-444.851	-21.601	-0.317	-0.195
-443.836	-116.612	0.181	-0.034
-442.822	241.990	-0.113	-0.191
-441.807	-178.619	0.070	0.002
-440.792	-165.563	-0.161	-0.007
-439.778	800.000	-0.044	-0.172
-438.763	20.062	-0.095	0.077
-437.749	-37.038	-0.212	-0.114
-436.734	-122.869	-0.333	-0.054
-435.719	302.509	-0.029	-0.053
-434.705	580.972	0.073	0.180
-433.690	0.663	-0.094	0.067
-432.676	193.367	0.107	0.163
-431.661	-120.274	0.175	-0.030
-430.646	-113.832	-0.107	-0.021
-429.632	268.720	-0.148	0.261
-428.617	689.925	0.069	0.183
-427.603	-200.000	0.005	0.169
-426.588	-129.740	-0.144	0.020
-425.573	-200.000	0.025	0.250
-424.559	-200.000	0.009	-0.217
-423.544	800.000	-0.068	-0.257
-422.530	-27.951	-0.185	0.108
-421.515	-96.572	-0.267	0.071
-420.500	800.000	-0.047	-0.172
-419.486	691.782	0.094	-0.246
-418.471	-18.506	-0.214	-0.134
-417.457	-115.864	-0.111	-0.021
-416.442	-142.821	0.119	-0.012
-415.428	175.296	0.050	-0.073
-414.413	-200.000	-0.062	0.384
-413.398	-127.570	-0.199	-0.029
-412.384	-2.803	0.138	-0.097
-411.369	-1.810	-0.097	0.068
-410.355	308.556	-0.140	0.263
-409.340	-26.987	-0.074	-0.043
-408.325	-82.036	-0.081	0.026
-407.311	-72.037	-0.203	0.076
-406.296	-13.919	0.510	0.331
-405.282	302.201	-0.195	-0.362
-404.267	-200.000	0.009	0.100
-403.252	-171.928	0.217	0.007
-402.238	-200.000	-0.011	0.332
-401.223	-17.319	-0.296	0.187
-400.209	-200.000	0.002	0.044
-399.194	-38.466	0.215	-0.114
-398.179	-10.217	0.330	0.220
-397.165	-34.524	0.192	-0.105
-396.150	800.000	0.124	0.348
-395.136	-129.632	0.454	0.063
-394.121	131.322	-0.051	-0.066
-393.106	24.473	0.294	-0.244
-392.092	-36.825	0.237	0.128
-391.077	83.027	0.201	-0.220
-390.063	-200.000	0.018	-0.316
-389.048	-200.000	-0.046	0.226
-388.033	-90.526	0.058	-0.017
-387.019	-37.740	0.080	-0.043
-386.004	-200.000	0.015	-0.129
-384.990	-128.172	0.078	0.011
-383.975	-109.743	-0.256	-0.054
-382.960	-107.103	0.205	-0.045
-381.946	-186.067	0.207	0.003
-380.931	-10.942	0.192	-0.127
-379.917	26.016	0.096	0.081
-378.902	-24.970	-0.381	-0.227
-377.888	706.111	-0.071	-0.188
-376.873	327.666	0.156	-0.300
-375.858	800.000	0.101	0.334
-374.844	-28.076	-0.299	0.173
-373.829	-173.549	-0.224	0.007
-372.815	-106.570	0.237	0.053
-371.800	243.198	-0.005	0.009
-370.785	-100.773	-0.340	0.084
-369.771	102.172	0.107	0.125
-368.756	-120.863	-0.077	0.013
-367.742	56.963	0.137	-0.134
-366.727	-65.461	-0.065	-0.026
-365.712	-200.000	0.020	0.231
-364.698	-111.203	0.470	0.096
-363.683	-200.000	-0.089	-0.477
-362.669	-200.000	-0.022	0.313
-361.654	-200.000	0.005	-0.305
-360.639	800.000	0.115	0.371
-359.625	15.669	-0.141	-0.111
-358.610	-200.000	0.006	-0.338
-357.596	551.125	0.230	-0.553
-356.581	-17.694	-0.127	-0.080
-355.566	543.653	0.078	-0.187
-354.552	3.952	-0.104	0.076
-353.537	287.382	-0.061	0.110
-352.523	-200.000	-0.038	0.174
-351.508	35.771	0.240	-0.212
-350.493	26.151	0.262	0.220
-349.479	201.380	-0.017	0.026
-348.464	40.110	0.092	0.083
-347.450	281.600	0.244	-0.439
-346.435	-19.146	-0.145	0.090
-345.420	-22.549	0.162	-0.098
-344.406	-25.061	0.146	-0.087
-343.391	51.686	0.094	0.089
-342.377	-109.907	-0.181	0.038
-341.362	-159.674	0.232	0.013
-340.348	800.000	-0.123	0.354
-339.333	-200.000	-0.009	-0.122
-338.318	6.894	0.074	-0.055
-337.304	373.859	0.100	0.203
-336.289	-200.000	0.009	0.135
-335.275	-200.000	-0.008	-0.190
-334.260	-80.809	-0.161	0.054
-333.245	-171.699	0.321	-0.011
-332.231	-200.000	-0.019	0.281
-331.216	774.721	0.011	-0.031
-330.202	-200.000	0.017	-0.124
-329.187	197.668	-0.074	0.113
-328.172	-121.224	-0.031	-0.005
-327.158	609.137	0.106	-0.266
-326.143	-67.205	0.254	0.100
-325.129	368.695	-0.132	0.267
-324.114	28.792	-0.245	-0.208
-323.099	-200.000	-0.023	-0.140
-322.085	-68.995	-0.087	0.033
-321.070	-43.748	0.171	0.086
-320.056	43.364	0.262	-0.239
-319.041	-200.000	0.046	-0.233
-318.026	-41.113	0.046	0.024
-317.012	800.000	0.076	0.303
-315.997	223.557	-0.070	0.113
-314.983	800.000	0.054	-0.163
-313.968	-200.000	-0.003	0.016
-312.953	416.612	0.055	-0.118
-311.939	-111.436	0.166	0.034
-310.924	-128.736	-0.247	0.035
-309.910	294.359	-0.023	0.041
-308.895	8.206	0.185	0.139
-307.880	98.846	0.157	0.181
-306.866	87.571	-0.117	0.130
-305.851	120.003	-0.198	0.246
-304.837	-200.000	-0.055	-0.305
-303.822	-51.816	-0.186	-0.087
-302.807	-200.000	0.052	-0.303
-301.793	-200.000	-0.003	0.249
-300.778	-137.897	-0.193	0.022
-299.764	-53.480	0.355	0.162
-298.749	-42.124	0.385	-0.197
-297.735	-147.162	0.139	-0.012
-296.720	800.000	-0.004	-0.011
-295.705	800.000	0.106	0.342
-294.691	265.373	0.141	0.245
-293.676	-200.000	-0.001	0.055
-292.662	-25.555	0.281	-0.166
-291.647	800.000	0.020	-0.079
-290.632	461.138	-0.111	-0.248
-289.618	177.696	0.043	-0.063
-288.603	55.620	-0.251	0.243
-287.589	-200.000	-0.014	0.182
-286.574	-16.473	0.092	-0.058
-285.559	-200.000	-0.038	-0.439
-284.545	-27.990	0.384	-0.222
-283.530	75.602	-0.068	-0.072
-282.516	-94.291	0.287	0.078
-281.501	459.253	0.045	-0.099
-280.486	-54.007	0.260	0.118
-279.472	-72.012	-0.125	0.046
-278.457	-33.970	-0.145	-0.080
-277.443	-200.000	-0.050	-0.229
-276.428	-200.000	-0.002	-0.206
-275.413	443.681	-0.033	0.073
-274.399	77.393	-0.433	0.460
-273.384	94.016	0.159	-0.180
-272.370	256.324	-0.082	-0.140
-271.355	-91.600	0.131	-0.037
-270.340	-156.625	0.317	-0.020
-269.326	-89.362	-0.082	0.024
-268.311	84.514	-0.251	-0.274
-267.297	-92.791	0.052	-0.014
-266.282	373.705	0.035	0.070
-265.267	-66.174	-0.141	-0.056
-264.253	329.941	0.166	-0.319
-263.238	-148.774	-0.249	-0.020
-262.224	-109.242	-0.293	-0.062
-261.209	154.880	0.145	0.200
-260.195	-4.134	-0.118	-0.081
-259.180	-91.198	0.306	-0.087
-258.165	-67.129	0.187	0.073
-257.151	-155.824	0.105	0.007
-256.136	74.470	0.120	-0.126
-255.122	-102.502	-0.202	-0.048
-254.107	-69.522	0.350	-0.134
-253.092	85.374	-0.179	-0.196
-252.078	210.128	0.167	-0.261
-251.063	311.314	-0.156	0.293
-250.049	-70.144	0.127	-0.048
-249.034	-153.605	0.159	0.011
-248.019	184.316	0.062	0.092
-247.005	-81.301	-0.135	-0.044
-245.990	9.191	-0.176	-0.133
-244.976	-41.423	0.150	-0.077
-243.961	137.830	0.246	0.321
-242.946	-101.558	-0.113	0.027
-241.932	-132.726	0.246	0.031
-240.917	-89.112	-0.373	-0.110
-239.903	-127.170	0.368	-0.054
-238.888	768.229	-0.045	-0.123
-237.873	-141.660	-0.277	-0.028
-236.859	623.709	0.149	-0.375
-235.844	-44.202	0.129	0.065
-234.830	-94.953	-0.191	0.051
-233.815	397.133	0.168	0.349
-232.800	-200.000	0.036	0.265
-231.786	108.027	-0.356	0.423
-230.771	-107.975	-0.209	0.045
-229.757	297.864	-0.112	-0.205
-228.742	-200.000	0.049	-0.322
-227.727	49.399	-0.139	-0.130
-226.713	156.969	0.139	0.191
-225.698	-37.693	-0.140	-0.074
-224.684	27.728	0.111	0.094
-223.669	-76.229	-0.240	0.084
-222.655	69.312	-0.118	-0.121
-221.640	-161.351	-0.418	-0.022
-220.625	-28.666	-0.116	0.066
-219.611	-86.881	-0.259	-0.079
-218.596	666.514	0.097	-0.249
-217.582	-3.836	0.216	-0.149
-216.567	-200.000	0.018	-0.125
-215.552	144.833	0.045	-0.059
-214.538	-200.000	-0.004	0.252
-213.523	800.000	0.017	0.047
-212.509	-114.005	-0.219	-0.042
-211.494	193.841	-0.208	0.314
-210.479	351.976	0.108	-0.212
-209.465	-48.969	-0.272	0.130
-208.450	208.141	-0.160	0.249
-207.436	800.000	0.034	0.119
-206.421	800.000	-0.018	-0.077
-205.406	223.395	-0.061	0.098
-204.392	59.486	0.194	0.190
-203.377	471.656	-0.205	-0.459
-202.363	-25.951	-0.044	-0.026
-201.348	-19.780	-0.271	-0.167
-200.333	800.000	0.022	0.082
-199.319	-200.000	-0.007	0.361
-198.304	-103.195	0.204	-0.048
-197.290	-70.487	0.085	0.032
-196.275	-200.000	0.040	-0.399
-195.260	-200.000	0.033	0.313
-194.246	68.506	0.306	0.312
-193.231	51.633	0.123	0.116
-192.217	-112.997	0.263	0.052
-191.202	-152.612	0.178	-0.013
-190.187	-200.000	-0.022	-0.253
-189.173	-200.000	-0.042	0.341
-188.158	59.956	-0.113	0.111
-187.144	-2.325	0.206	0.144
-186.129	97.807	-0.171	0.196
-185.114	47.727	0.236	0.219
-184.100	-108.715	0.049	-0.010
-183.085	-103.047	-0.127	0.030
-182.071	-106.301	0.305	0.068
-181.056	-124.630	0.175	0.027
-180.042	140.414	-0.081	-0.106
-179.027	-22.670	0.031	-0.019
-178.012	81.135	0.146	0.157
-176.998	771.640	-0.030	0.081
-175.983	11.189	0.247	-0.188
-174.969	-58.241	0.224	0.097
-173.954	24.372	0.251	-0.206
-172.939	-39.225	-0.155	-0.081
-171.925	-64.691	0.311	0.125
-170.910	200.972	0.073	0.112
-169.896	-99.544	0.145	0.036
-168.881	680.875	-0.050	0.130
-167.866	-200.000	-0.009	-0.091
-166.852	-80.469	-0.233	-0.077
-165.837	38.292	-0.122	0.108
-164.823	-5.486	-0.080	0.054
-163.808	16.754	0.183	-0.144
-162.793	-124.979	-0.190	-0.029
-161.779	251.912	0.035	-0.059
-160.764	114.210	-0.125	-0.151
-159.750	-168.669	-0.173	0.007
-158.735	408.597	0.023	0.049
-157.720	439.665	-0.157	0.340
-156.706	38.635	-0.193	-0.171
-155.691	800.000	-0.068	0.279
-154.677	-157.668	0.129	0.008
-153.662	-153.529	0.118	0.008
-152.647	-200.000	-0.030	0.252
-151.633	18.746	0.149	0.119
-150.618	206.761	-0.162	0.251
-149.604	-7.193	0.160	-0.108
-148.589	-29.944	-0.096	0.054
-147.574	-200.000	0.013	-0.090
-146.560	-13.663	-0.143	0.092
-145.545	-200.000	0.036	-0.164
-144.531	277.503	0.054	-0.095
-143.516	800.000	0.124	0.355
-142.502	800.000	0.017	0.054
-141.487	11.434	0.314	0.239
-140.472	-142.433	-0.052	0.005
-139.458	800.000	-0.072	-0.269
-138.443	-138.850	0.110	0.012
-137.429	105.748	0.092	0.108
-136.414	772.635	-0.055	0.150
-135.399	-132.916	0.188	-0.024
-134.385	12.711	-0.158	-0.121
-133.370	800.000	0.086	0.259
-132.356	-1.984	-0.100	0.070
-131.341	-200.000	-0.009	-0.097
-130.326	800.000	0.140	0.555
-129.312	-42.146	0.109	-0.055
-128.297	-200.000	-0.001	-0.085
-127.283	-160.325	0.401	0.021
-126.268	800.000	0.101	-0.341
-125.253	303.161	0.006	-0.012
-124.239	24.473	0.026	0.021
-123.224	-200.000	-0.011	0.062
-122.210	202.278	-0.135	-0.207
-121.195	-88.067	-0.121	0.036
-120.180	-200.000	-0.013	-0.119
-119.166	114.462	-0.183	-0.221
-118.151	508.583	0.128	-0.294
-117.137	-31.757	-0.331	0.185
-116.122	-83.493	0.051	0.016
-115.107	-128.782	-0.057	-0.008
-114.093	800.000	0.138	-0.449
-113.078	245.536	0.104	-0.174
-112.064	142.810	0.086	0.114
-111.049	372.736	0.043	0.088
-110.034	82.691	0.363	0.392
-109.020	-41.713	-0.198	-0.101
-108.005	242.514	0.096	-0.160
-106.991	46.741	0.207	-0.191
-105.976	-150.851	0.590	0.044
-104.962	-20.310	0.316	0.193
-103.947	-200.000	0.012	0.129
-102.932	-184.407	-0.193	-0.003
-101.918	-153.296	-0.070	0.005
-100.903	198.060	0.030	-0.046
-99.889	424.792	0.049	0.104
-98.874	433.060	-0.052	-0.113
-97.859	159.062	0.079	0.109
-96.845	-82.598	-0.102	-0.033
-95.830	43.797	-0.134	0.122
-94.816	-159.749	-0.119	0.007
-93.801	800.000	-0.111	0.375
-92.786	-112.512	0.131	-0.026
-91.772	-41.627	0.187	-0.095
-90.757	54.524	-0.139	-0.133
-89.743	-82.194	0.263	0.085
-88.728	-133.311	0.293	-0.037
-87.713	-35.681	-0.082	0.044
-86.699	26.196	0.309	0.256
-85.684	409.261	-0.127	0.267
-84.670	77.727	0.289	-0.305
-83.655	-200.000	-0.004	0.129
-82.640	-56.196	0.187	-0.082
-81.626	598.768	-0.107	-0.263
-80.611	-118.365	-0.098	0.017
-79.597	-125.354	-0.268	0.041
-78.582	-200.000	0.068	0.311
-77.567	38.449	0.029	-0.026
-76.553	-64.279	0.316	-0.127
-75.538	32.051	0.210	0.179
-74.524	-200.000	0.031	0.200
-73.509	366.476	-0.057	0.113
-72.494	-124.740	0.430	-0.066
-71.480	-50.620	-0.201	-0.094
-70.465	-107.045	0.093	0.020
-69.451	800.000	0.054	0.175
-68.436	25.747	0.149	0.123
-67.422	-57.579	0.270	-0.117
-66.407	-200.000	-0.033	0.391
-65.392	-6.707	-0.035	-0.024
-64.378	-11.052	-0.268	0.175
-63.363	-63.285	0.050	0.021
-62.349	175.546	-0.027	0.038
-61.334	246.244	-0.596	-0.996
-60.319	90.722	0.389	0.432
-59.305	800.000	-0.192	-0.637
-58.290	97.531	1.101	1.252
-57.276	416.827	0.748	1.581
-56.261	-200.000	95.177	580.413
-55.246	650.156	1369.930	3473.402
-54.232	195.921	2550.236	3842.346
-53.217	110.230	2300.095	2735.619
-52.203	39.188	2062.019	1826.964
-51.188	34.361	1977.664	1708.997
-50.173	32.737	1959.820	1679.060
-49.159	47.476	2007.675	1853.165
-48.144	48.919	2025.752	1882.782
-47.130	34.959	1987.948	1722.997
-46.115	32.641	1977.731	1693.275
-45.100	32.551	1974.785	1689.879
-44.086	32.355	1973.101	1686.617
-43.071	32.325	1970.702	1684.232
-42.057	32.351	1968.354	1682.384
-41.042	32.418	1966.412	1681.257
-40.027	32.482	1963.890	1679.606
-39.013	32.433	1961.937	1677.434
-37.998	32.420	1959.961	1675.563
-36.984	32.489	1957.995	1674.424
-35.969	32.587	1955.963	1673.499
-34.954	32.606	1954.765	1672.570
-33.940	32.532	1953.585	1670.838
-32.925	32.606	1951.946	1670.032
-31.911	32.574	1950.238	1668.217
-30.896	32.549	1949.416	1667.224
-29.881	32.531	1947.311	1665.203
-28.867	32.561	1946.010	1664.290
-27.852	32.687	1943.349	1663.061
-26.838	32.645	1941.690	1661.200
-25.823	32.562	1939.932	1658.902
-24.809	32.441	1938.585	1656.618
-23.794	32.602	1936.750	1656.399
-22.779	32.622	1934.604	1654.676
-21.765	32.566	1933.022	1652.763
-20.750	32.533	1931.762	1651.334
-19.736	32.553	1930.039	1649.968
-18.721	32.603	1928.051	1648.637
-17.706	32.525	1926.877	1646.891
-16.692	32.489	1925.430	1645.272
-15.677	32.552	1923.556	1644.156
-14.663	32.624	1922.040	1643.427
-13.648	32.646	1920.718	1642.416
-12.633	32.598	1919.727	1641.089
-11.619	32.574	1918.588	1639.843
-10.604	32.561	1916.743	1638.086
-9.590	32.626	1914.922	1637.032
-8.575	32.613	1913.638	1635.757
-7.560	32.580	1913.052	1634.897
-6.546	32.605	1911.549	1633.772
-5.531	32.662	1909.816	1632.714
-4.517	32.576	1909.341	1631.499
-3.502	32.633	1907.891	1630.689
-2.487	32.657	1906.694	1629.811
-1.473	32.569	1906.013	1628.404
-0.458	32.649	1901.127	1624.855
0.556	32.306	1881.807	1597.754
1.571	28.183	1862.732	1546.651
2.586	24.230	1885.553	1531.568
3.600	23.170	1921.804	1551.584
4.615	22.670	1915.757	1542.195
5.629	17.555	1815.008	1418.475
6.644	8.986	1698.065	1259.923
7.659	5.133	1661.698	1203.171
8.673	4.772	1658.866	1198.231
9.688	4.728	1657.121	1196.532
10.702	4.687	1656.052	1195.332
11.717	4.643	1653.132	1192.787
12.731	5.155	1651.936	1195.742
13.746	10.749	1665.295	1248.403
14.761	17.980	1680.970	1315.950
15.775	19.982	1682.664	1332.579
16.790	19.057	1679.522	1322.862
17.804	17.976	1675.980	1311.659
18.819	16.932	1673.042	1301.237
19.834	16.311	1670.524	1294.407
20.848	16.047	1668.867	1290.983
21.863	15.837	1667.647	1288.318
22.877	15.604	1666.134	1285.258
23.892	15.434	1664.723	1282.758
24.907	15.284	1663.470	1280.527
25.921	15.273	1662.691	1279.734
26.936	15.240	1661.825	1278.705
27.950	15.249	1661.186	1278.164
28.965	15.330	1660.148	1277.873
29.980	15.435	1659.779	1278.276
30.994	15.489	1657.997	1277.199
32.009	15.513	1657.701	1277.041
33.023	15.590	1656.537	1276.615
34.038	15.565	1656.176	1276.037
35.053	15.536	1654.932	1274.743
36.067	15.506	1652.904	1272.838
37.082	15.435	1652.042	1271.527
38.096	15.502	1651.080	1271.183
39.111	15.443	1650.618	1270.268
40.126	15.600	1649.740	1270.668
41.140	15.566	1648.717	1269.511
42.155	15.378	1647.425	1266.981
43.169	15.244	1645.774	1264.586
44.184	15.099	1644.224	1262.190
45.199	15.145	1643.545	1261.903
46.213	15.298	1641.527	1261.399
47.228	15.184	1641.275	1260.232
48.242	15.292	1639.911	1259.889
49.257	15.376	1639.266	1259.908
50.271	15.399	1637.746	1258.806
51.286	15.390	1636.506	1257.669
52.301	15.454	1635.271	1257.092
53.315	15.404	1634.392	1255.929
54.330	15.366	1632.496	1254.077
55.344	15.349	1630.559	1252.355
56.359	15.230	1629.485	1250.526
57.374	15.274	1628.275	1249.816
58.388	15.306	1626.865	1248.865
59.403	15.224	1626.095	1247.553
60.417	15.177	1624.736	1246.046
61.432	15.164	1623.502	1244.893
62.447	15.073	1622.748	1243.532
63.461	15.098	1621.357	1242.538
64.476	15.056	1620.464	1241.435
65.490	15.025	1619.145	1240.082
66.505	15.102	1617.926	1239.612
67.520	15.062	1617.032	1238.522
68.534	15.169	1615.336	1237.902
69.549	15.110	1614.702	1236.869
70.563	15.196	1613.682	1236.616
71.578	15.113	1611.951	1234.563
72.593	15.030	1611.320	1233.364
73.607	15.038	1610.319	1232.546
74.622	14.970	1609.241	1231.114
75.636	15.013	1607.969	1230.348
76.651	14.996	1607.494	1229.751
77.666	15.001	1606.754	1229.110
78.680	14.951	1606.077	1228.117
79.695	15.050	1605.163	1228.035
80.709	15.168	1603.529	1227.543
81.724	15.114	1602.956	1226.599
82.739	15.085	1602.470	1225.907
83.753	15.251	1601.627	1226.365
84.768	15.354	1600.534	1226.174
85.782	15.298	1600.413	1225.562
86.797	15.411	1599.290	1225.424
87.812	15.419	1598.588	1224.832
88.826	15.424	1596.679	1223.301
89.841	15.305	1596.051	1221.843
90.855	15.376	1594.958	1221.416
91.870	15.491	1593.560	1221.069
92.884	15.483	1592.873	1220.379
93.899	15.416	1592.134	1219.219
94.914	15.429	1591.164	1218.465
95.928	15.573	1589.283	1217.956
96.943	15.527	1588.487	1216.905
97.957	15.533	1586.589	1215.391
98.972	15.562	1585.146	1214.388
99.987	15.491	1583.868	1212.784
101.001	15.466	1581.942	1211.022
102.016	15.492	1580.507	1210.009
103.030	15.477	1579.651	1209.137
104.045	15.468	1578.104	1207.781
105.060	15.454	1577.043	1206.761
106.074	15.409	1575.626	1205.246
107.089	15.330	1574.083	1203.391
108.103	15.180	1572.361	1200.893
109.118	15.129	1571.064	1199.432
110.133	15.092	1569.690	1198.009
111.147	15.114	1568.193	1196.921
112.162	15.100	1566.951	1195.769
113.176	15.089	1565.528	1194.494
114.191	15.146	1564.215	1193.795
115.206	15.169	1562.981	1192.915
116.220	15.304	1561.460	1192.607
117.235	15.171	1560.352	1190.706
118.249	15.174	1559.190	1189.740
119.264	15.221	1557.816	1188.918
120.279	15.128	1556.533	1187.174
121.293	15.117	1554.785	1185.661
122.308	15.105	1553.230	1184.284
123.322	15.113	1551.667	1183.044
124.337	15.102	1550.089	1181.658
125.352	14.976	1549.011	1179.844
126.366	14.944	1547.924	1178.683
127.381	15.101	1546.778	1178.811
128.395	15.073	1545.817	1177.778
129.410	15.116	1544.248	1176.783
130.424	15.106	1543.169	1175.784
131.439	15.122	1541.623	1174.617
132.454	15.193	1540.161	1173.895
133.468	15.232	1539.082	1173.244
134.483	15.202	1537.861	1171.998
135.497	15.348	1536.119	1171.589
136.512	15.351	1534.764	1170.472
137.527	15.349	1533.608	1169.471
138.541	15.265	1532.790	1168.154
139.556	15.218	1531.329	1166.618
140.570	15.302	1529.864	1165.982
141.585	15.385	1528.904	1165.720
142.600	15.467	1527.740	1165.300
143.614	15.489	1526.725	1164.575
144.629	15.541	1525.313	1163.755
145.643	15.620	1524.049	1163.233
146.658	15.638	1522.861	1162.351
147.673	15.651	1520.808	1160.769
148.687	15.548	1519.730	1159.136
149.702	15.534	1518.284	1157.830
150.716	15.388	1517.038	1155.774
151.731	15.408	1515.190	1154.402
152.746	15.399	1514.120	1153.421
153.760	15.437	1512.432	1152.292
154.775	15.463	1511.328	1151.528
155.789	15.451	1510.191	1150.478
156.804	15.536	1508.935	1150.002
157.819	15.597	1507.842	1149.487
158.833	15.597	1506.652	1148.478
159.848	15.621	1506.009	1148.051
160.862	15.692	1504.598	1147.353
161.877	15.781	1503.001	1146.645
162.892	15.651	1501.913	1144.828
163.906	15.539	1500.778	1143.098
164.921	15.452	1499.373	1141.333
165.935	15.461	1498.406	1140.557
166.950	15.496	1497.137	1139.727
167.964	15.536	1496.475	1139.393
168.979	15.487	1495.529	1138.245
169.994	15.623	1494.381	1138.188
171.008	15.504	1493.534	1136.640
172.023	15.578	1491.990	1135.864
173.037	15.629	1491.397	1135.652
174.052	15.686	1489.688	1134.639
175.067	15.682	1489.157	1134.104
176.081	15.674	1487.935	1133.019
177.096	15.644	1486.047	1131.284
178.110	15.575	1485.129	1130.021
179.125	15.553	1483.942	1128.867
180.140	15.637	1482.954	1128.582
181.154	15.561	1482.035	1127.273
182.169	15.782	1480.892	1127.784
183.183	15.809	1479.381	1126.713
184.198	15.829	1478.931	1126.403
185.213	15.765	1477.967	1125.145
186.227	15.833	1476.572	1124.435
187.242	15.864	1475.841	1123.990
188.256	15.913	1474.419	1123.129
189.271	15.991	1473.456	1122.820
190.286	15.932	1472.517	1121.612
191.300	15.897	1471.481	1120.490
192.315	15.767	1469.566	1118.065
193.329	15.583	1468.415	1115.874
194.344	15.568	1467.489	1114.970
195.359	15.546	1466.859	1114.244
196.373	15.641	1465.468	1113.723
197.388	15.804	1464.683	1114.108
198.402	15.879	1463.958	1113.954
199.417	16.033	1462.376	1113.670
200.432	16.101	1461.774	1113.558
201.446	16.083	1461.322	1112.997
202.461	16.145	1460.376	1112.585
203.475	16.228	1459.007	1111.994
204.490	16.159	1458.083	1110.736
205.504	16.150	1457.047	1109.787
206.519	16.083	1455.642	1108.181
207.534	16.078	1454.312	1107.040
208.548	16.178	1453.171	1106.724
209.563	16.125	1452.347	1105.655
210.577	16.087	1451.286	1104.502
211.592	16.036	1450.311	1103.323
212.607	16.143	1449.552	1103.348
213.621	16.218	1449.173	1103.457
214.636	16.311	1447.913	1103.007
215.650	16.170	1447.305	1101.523
216.665	16.250	1446.346	1101.217
217.680	16.255	1445.197	1100.276
218.694	16.314	1445.027	1100.434
219.709	16.370	1444.145	1100.034
220.723	16.350	1442.830	1098.805
221.738	16.332	1441.894	1097.877
222.753	16.386	1440.948	1097.407
223.767	16.303	1440.304	1096.281
224.782	16.324	1439.380	1095.622
225.796	16.453	1438.306	1095.542
226.811	16.395	1437.696	1094.601
227.826	16.509	1436.618	1094.421
228.840	16.397	1436.215	1093.296
229.855	16.484	1434.797	1092.683
230.869	16.432	1433.730	1091.438
231.884	16.314	1432.729	1089.818
232.899	16.364	1431.820	1089.352
233.913	16.334	1430.758	1088.253
234.928	16.338	1429.187	1086.988
235.942	16.300	1427.893	1085.660
236.957	16.316	1426.856	1084.879
237.972	16.273	1425.716	1083.642
238.986	16.284	1424.984	1083.059
240.001	16.252	1423.977	1081.991
241.015	16.365	1422.856	1081.769
242.030	16.343	1421.636	1080.608
243.045	16.415	1420.701	1080.260
244.059	16.540	1419.808	1080.284
245.074	16.463	1419.473	1079.439
246.088	16.453	1418.667	1078.670
247.103	16.577	1418.005	1078.859
248.117	16.694	1416.899	1078.670
249.132	16.701	1416.297	1078.163
250.147	16.770	1415.642	1078.004
251.161	16.859	1414.888	1077.902
252.176	16.976	1414.223	1078.046
253.190	17.018	1413.479	1077.648
254.205	16.920	1413.032	1076.592
255.220	17.040	1412.273	1076.676
256.234	17.148	1411.226	1076.467
257.249	17.059	1410.532	1075.280
258.263	17.016	1409.812	1074.367
259.278	17.206	1408.222	1074.262
260.293	17.074	1407.745	1072.967
261.307	17.092	1407.074	1072.474
262.322	17.052	1406.531	1071.713
263.336	17.184	1405.658	1071.786
264.351	17.174	1404.322	1070.607
265.366	17.104	1403.803	1069.678
266.380	17.179	1402.722	1069.233
267.395	17.334	1401.319	1069.039
268.409	17.311	1400.500	1068.178
269.424	17.185	1399.802	1066.760
270.439	17.248	1398.564	1066.116
271.453	17.121	1397.603	1064.492
272.468	17.189	1396.807	1064.219
273.482	17.027	1396.598	1062.950
274.497	17.163	1395.145	1062.605
275.512	17.183	1394.292	1061.981
276.526	17.184	1393.753	1061.486
277.541	17.138	1392.758	1060.344
278.555	17.158	1391.698	1059.569
279.570	17.146	1390.890	1058.784
280.585	17.235	1389.829	1058.439
281.599	17.334	1389.040	1058.364
282.614	17.438	1387.992	1058.116
283.628	17.331	1386.771	1056.424
284.643	17.236	1386.219	1055.323
285.657	17.302	1384.565	1054.377
286.672	17.368	1383.956	1054.234
287.687	17.280	1383.638	1053.351
288.701	17.261	1382.131	1051.995
289.716	17.316	1381.580	1051.823
290.730	17.365	1380.763	1051.411
291.745	17.395	1379.306	1050.393
292.760	17.458	1378.555	1050.113
293.774	17.410	1377.908	1049.232
294.789	17.321	1377.231	1048.076
295.803	17.447	1376.378	1048.113
296.818	17.590	1374.997	1047.847
297.833	17.520	1374.101	1046.637
298.847	17.359	1373.371	1045.001
299.862	17.375	1372.297	1044.189
300.876	17.405	1371.695	1043.823
301.891	17.462	1370.831	1043.421
302.906	17.497	1369.832	1042.786
303.920	17.555	1369.344	1042.677
304.935	17.708	1368.115	1042.583
305.949	17.780	1367.281	1042.298
306.964	17.707	1366.848	1041.430
307.979	17.767	1365.701	1040.829
308.993	17.655	1364.831	1039.392
310.008	17.781	1363.705	1039.208
311.022	17.672	1363.067	1037.964
312.037	17.832	1361.684	1037.793
313.052	17.791	1361.076	1036.993
314.066	17.809	1359.941	1036.143
315.081	17.657	1358.950	1034.376
316.095	17.567	1357.894	1032.932
317.110	17.592	1356.908	1032.240
318.125	17.640	1355.688	1031.516
319.139	17.646	1354.855	1030.826
320.154	17.659	1353.874	1030.069
321.168	17.617	1352.943	1029.012
322.183	17.698	1351.657	1028.430
323.197	17.595	1351.385	1027.512
324.212	17.733	1350.315	1027.442
325.227	17.810	1349.353	1027.082
326.241	17.808	1348.412	1026.265
327.256	17.725	1347.758	1025.175
328.270	17.808	1346.873	1024.911
329.285	17.817	1345.891	1024.127
330.300	17.806	1344.694	1023.060
331.314	17.782	1344.019	1022.309
332.329	17.785	1343.169	1021.589
333.343	17.772	1342.539	1020.941
334.358	17.824	1341.576	1020.430
335.373	17.825	1341.064	1019.960
336.387	17.897	1340.362	1019.764
337.402	18.045	1338.979	1019.508
338.416	18.005	1338.519	1018.823
339.431	17.987	1338.073	1018.289
340.446	18.055	1337.365	1018.066
341.460	18.082	1336.098	1017.173
342.475	18.119	1335.407	1016.776
343.489	18.215	1334.595	1016.634
344.504	18.214	1333.780	1015.923
345.519	18.254	1332.882	1015.382
346.533	18.317	1331.796	1014.842
347.548	18.375	1330.839	1014.366
348.562	18.382	1330.204	1013.834
349.577	18.315	1329.962	1013.164
350.592	18.314	1329.028	1012.355
351.606	18.201	1327.693	1010.579
352.621	18.140	1326.826	1009.474
353.635	18.141	1325.682	1008.517
354.650	18.155	1324.541	1007.641
355.665	18.225	1323.759	1007.370
356.679	18.204	1322.661	1006.324
357.694	18.233	1321.968	1005.877
358.708	18.149	1320.897	1004.482
359.723	18.308	1319.329	1004.134
360.738	18.352	1318.165	1003.416
361.752	18.390	1317.335	1002.917
362.767	18.435	1316.333	1002.327
363.781	18.328	1315.410	1000.913
364.796	18.304	1314.915	1000.304
365.810	18.381	1313.872	999.872
366.825	18.455	1313.317	999.792
367.840	18.498	1312.540	999.365
368.854	18.621	1312.075	999.636
369.869	18.747	1311.471	999.822
370.883	18.745	1311.074	999.418
371.898	18.714	1310.090	998.404
372.913	18.693	1309.371	997.645
373.927	18.557	1308.671	996.233
374.942	18.680	1307.778	996.176
375.956	18.693	1307.112	995.656
376.971	18.666	1306.524	994.963
377.986	18.622	1305.564	993.891
379.000	18.664	1304.595	993.308
380.015	18.663	1304.006	992.765
381.029	18.765	1303.226	992.676
382.044	18.871	1302.570	992.699
383.059	18.936	1301.942	992.507
384.073	18.836	1301.181	991.266
385.088	18.850	1300.314	990.594
386.102	18.830	1299.615	989.861
387.117	18.982	1298.844	990.060
388.132	18.852	1298.130	988.679
389.146	18.777	1297.308	987.538
390.161	18.815	1296.377	986.960
391.175	18.690	1295.648	985.600
392.190	18.738	1295.183	985.432
393.205	18.854	1293.993	985.104
394.219	18.886	1293.275	984.658
395.234	18.848	1291.778	983.214
396.248	18.946	1290.500	982.714
397.263	18.877	1289.066	981.136
398.278	18.843	1287.551	979.704
399.292	18.803	1286.518	978.605
400.307	18.833	1285.615	978.002
401.321	18.805	1284.477	976.893
402.336	18.658	1283.374	975.132
403.350	18.802	1281.945	974.774
404.365	18.729	1281.631	974.034
405.380	18.751	1280.730	973.391
406.394	18.710	1280.522	972.914
407.409	18.917	1279.004	972.843
408.423	18.902	1278.461	972.259
409.438	19.135	1278.098	973.219
410.453	18.993	1277.947	972.214
411.467	19.032	1277.158	971.749
412.482	19.143	1276.584	971.850
413.496	19.277	1275.663	971.818
414.511	19.265	1274.831	971.032
415.526	19.236	1274.439	970.486
416.540	19.304	1273.491	970.057
417.555	19.364	1272.886	969.847
418.569	19.387	1272.335	969.471
419.584	19.327	1271.991	968.789
420.599	19.391	1270.928	968.251
421.613	141.083	1431.738	1795.182
422.628	135.591	1455.147	1795.242
