DTS Sentinel unit serial number:	SN413079Multiplexer serial number:	ORYXHardware model number:	OX4-SRSoftware version number:	ORYX F/W v4.00 Oryx Data Collector v3.7.2.0data status	okinstallation	princeton_trtdifferential loss correction	single-endedforward channel	channel 4reverse channel	N/Adate	2019/09/19time	09:21:35forward acquisition time	60.00reverse acquisition time	0.00gamma	496.2192k internal	0.2337k external	0.2337temperature offset calibration	1.0013default loss term (dB/km)	0.3790temperature slope calibration	1.0000multiplexer offset coefficient	1.0000multiplexer slope coefficient	1.0000fibre end	0.00T internal ref (°C)	22.44T ext. ref 1 (°C)	0.61T ext. ref 2 (°C)	19.47length (m)	temperature (°C)	Stokes	anti-Stokes-747.200	-21.143	-0.170	-0.105
-746.185	-64.620	0.049	0.020
-745.171	-200.000	-0.011	0.308
-744.156	-135.408	-0.047	0.006
-743.142	79.190	0.204	0.219
-742.127	-12.057	-0.141	-0.092
-741.112	46.217	0.011	0.010
-740.098	-27.325	0.317	0.185
-739.083	96.191	0.181	0.208
-738.069	-35.317	0.227	0.124
-737.054	0.389	0.150	-0.107
-736.039	-200.000	0.039	-0.210
-735.025	-76.263	-0.042	0.015
-734.010	214.506	0.092	-0.146
-732.996	-83.155	-0.148	0.048
-731.981	217.182	-0.156	-0.249
-730.966	677.280	0.160	-0.418
-729.952	161.389	-0.095	-0.133
-728.937	-24.496	-0.164	0.098
-727.923	367.635	-0.130	-0.264
-726.908	764.634	-0.088	-0.239
-725.894	-110.697	-0.275	0.057
-724.879	-200.000	0.046	0.484
-723.864	-72.816	-0.270	-0.100
-722.850	-128.813	-0.121	-0.017
-721.835	800.000	-0.048	-0.206
-720.821	-176.078	-0.498	0.013
-719.806	385.709	0.095	-0.196
-718.791	-88.055	-0.200	0.060
-717.777	-200.000	0.017	-0.100
-716.762	-137.936	0.180	-0.020
-715.748	24.197	-0.202	0.167
-714.733	-171.129	-0.384	0.013
-713.718	-126.840	0.175	-0.026
-712.704	-111.539	-0.403	-0.082
-711.689	6.608	-0.197	-0.147
-710.675	-122.358	-0.174	0.028
-709.660	-103.393	-0.106	0.025
-708.645	-118.098	-0.066	0.012
-707.631	136.775	-0.121	0.159
-706.616	-45.634	0.123	-0.061
-705.602	-155.108	0.230	0.015
-704.587	-75.714	0.118	-0.042
-703.572	-4.532	0.021	0.014
-702.558	-200.000	0.019	-0.121
-701.543	378.559	0.048	0.099
-700.529	75.714	-0.198	0.210
-699.514	-86.595	-0.218	-0.067
-698.499	291.642	0.044	0.081
-697.485	16.413	0.232	-0.184
-696.470	473.009	-0.165	-0.374
-695.456	-200.000	0.050	0.299
-694.441	384.221	0.302	0.624
-693.426	-180.039	0.221	0.005
-692.412	-200.000	-0.003	0.083
-691.397	-200.000	-0.055	-0.265
-690.383	-100.032	-0.134	0.033
-689.368	800.000	-0.091	0.274
-688.354	82.323	0.193	0.210
-687.339	-200.000	-0.029	-0.463
-686.324	-134.969	-0.043	0.005
-685.310	-2.983	-0.121	-0.085
-684.295	800.000	-0.041	0.151
-683.281	418.907	-0.089	0.191
-682.266	800.000	-0.068	0.214
-681.251	-200.000	0.010	-0.256
-680.237	-73.188	0.319	0.117
-679.222	9.080	-0.038	-0.029
-678.208	774.267	-0.090	-0.246
-677.193	-25.315	-0.253	-0.150
-676.178	293.006	-0.057	-0.103
-675.164	-14.891	-0.130	0.083
-674.149	-169.062	0.076	-0.003
-673.135	800.000	0.053	-0.149
-672.120	22.407	-0.049	0.040
-671.105	-15.814	0.140	-0.090
-670.091	-198.481	0.231	0.001
-669.076	-200.000	-0.022	0.165
-668.062	139.493	-0.222	0.292
-667.047	-200.000	0.092	-0.422
-666.032	218.775	0.105	0.169
-665.018	800.000	-0.085	-0.329
-664.003	800.000	-0.087	0.284
-662.989	-195.253	-0.369	0.003
-661.974	-104.773	0.306	-0.070
-660.959	-143.438	0.141	0.013
-659.945	-69.663	-0.259	-0.099
-658.930	-200.000	-0.061	0.276
-657.916	212.831	-0.103	0.163
-656.901	-58.771	-0.081	-0.035
-655.886	274.994	0.217	-0.385
-654.872	-200.000	0.031	-0.232
-653.857	-200.000	-0.022	0.295
-652.843	-131.111	-0.300	0.040
-651.828	-200.000	-0.010	0.215
-650.814	-200.000	0.081	-0.461
-649.799	-200.000	-0.022	-0.122
-648.784	17.930	0.116	-0.092
-647.770	-140.755	0.036	0.004
-646.755	38.297	-0.161	-0.144
-645.741	800.000	-0.145	0.512
-644.726	-15.818	-0.112	0.071
-643.711	-18.650	0.247	0.154
-642.697	224.419	-0.095	0.154
-641.682	-20.891	-0.067	0.041
-640.668	33.953	0.187	-0.163
-639.653	-200.000	0.061	-0.400
-638.638	96.170	-0.077	-0.088
-637.624	-200.000	0.039	0.227
-636.609	-53.947	-0.424	0.193
-635.595	199.193	-0.055	-0.084
-634.580	-200.000	0.005	-0.170
-633.565	199.709	-0.084	0.129
-632.551	-18.081	0.039	0.024
-631.536	-68.835	-0.345	0.133
-630.522	-200.000	-0.033	-0.148
-629.507	208.692	0.215	-0.336
-628.492	-200.000	0.037	-0.246
-627.478	58.812	0.247	-0.243
-626.463	190.454	-0.038	-0.057
-625.449	4.076	-0.267	-0.195
-624.434	-200.000	-0.000	0.344
-623.419	580.854	0.056	-0.138
-622.405	426.037	-0.065	-0.141
-621.390	-22.643	-0.099	-0.060
-620.376	-200.000	-0.014	0.167
-619.361	-50.171	-0.423	0.200
-618.346	252.266	-0.356	-0.606
-617.332	43.726	-0.232	-0.212
-616.317	35.911	-0.093	0.082
-615.303	-200.000	0.022	0.159
-614.288	36.463	-0.095	0.084
-613.273	-200.000	0.020	0.087
-612.259	-13.919	-0.234	0.151
-611.244	-11.454	0.130	-0.085
-610.230	34.781	0.171	-0.149
-609.215	95.334	-0.208	-0.237
-608.201	-200.000	-0.018	0.314
-607.186	-37.005	0.422	-0.226
-606.171	-131.263	0.248	0.033
-605.157	15.367	-0.137	-0.107
-604.142	-200.000	-0.040	0.211
-603.128	800.000	-0.078	-0.232
-602.113	-72.403	0.014	-0.005
-601.098	-200.000	-0.013	0.091
-600.084	-166.072	0.034	0.001
-599.069	-82.492	0.548	0.178
-598.055	-200.000	-0.121	0.646
-597.040	131.417	-0.117	-0.150
-596.025	252.915	0.042	0.072
-595.011	5.680	-0.049	-0.036
-593.996	-105.965	0.095	0.021
-592.982	336.716	0.072	0.139
-591.967	627.998	0.107	-0.269
-590.952	147.449	-0.284	0.381
-589.938	317.120	0.095	-0.179
-588.923	-39.900	-0.338	0.176
-587.909	407.430	0.150	-0.317
-586.894	-200.000	-0.068	0.341
-585.879	40.444	0.070	-0.063
-584.865	-94.933	0.392	-0.106
-583.850	-44.375	0.256	-0.128
-582.836	-13.912	-0.180	-0.116
-581.821	160.198	0.171	-0.238
-580.806	-200.000	0.010	-0.235
-579.792	-9.302	0.268	-0.178
-578.777	-100.959	0.418	-0.102
-577.763	40.150	-0.061	-0.055
-576.748	-124.012	0.173	0.027
-575.733	-200.000	-0.025	0.149
-574.719	-81.799	0.153	0.050
-573.704	0.763	-0.110	-0.078
-572.690	-53.958	0.195	-0.089
-571.675	-43.062	-0.102	-0.052
-570.661	-145.998	-0.229	0.020
-569.646	-104.484	-0.416	-0.096
-568.631	-60.410	-0.156	0.066
-567.617	95.336	-0.037	-0.042
-566.602	23.334	0.071	0.058
-565.588	800.000	-0.083	0.320
-564.573	-68.551	-0.087	0.034
-563.558	186.830	-0.064	0.094
-562.544	175.211	-0.076	-0.110
-561.529	6.087	0.084	-0.062
-560.515	-200.000	0.033	0.150
-559.500	28.322	-0.265	-0.223
-558.485	180.812	0.046	-0.067
-557.471	-152.892	-0.091	-0.006
-556.456	6.644	0.139	-0.103
-555.442	-200.000	0.012	0.217
-554.427	-71.374	0.216	-0.081
-553.412	109.273	-0.132	0.158
-552.398	-116.478	0.097	0.018
-551.383	-148.276	0.337	-0.028
-550.369	-200.000	-0.004	0.092
-549.354	116.623	0.088	-0.107
-548.339	-116.447	0.136	-0.025
-547.325	132.780	0.239	-0.307
-546.310	450.890	0.035	-0.076
-545.296	-96.791	0.046	0.012
-544.281	-93.645	0.204	0.056
-543.266	800.000	-0.046	0.176
-542.252	3.564	-0.069	0.050
-541.237	-128.633	0.173	-0.024
-540.223	-200.000	0.058	-0.278
-539.208	800.000	-0.079	0.301
-538.193	800.000	-0.074	-0.224
-537.179	113.348	0.094	0.114
-536.164	-50.344	-0.224	-0.105
-535.150	-22.688	-0.171	-0.103
-534.135	-200.000	0.004	0.155
-533.121	-90.105	-0.130	-0.038
-532.106	800.000	-0.059	0.162
-531.091	800.000	0.061	-0.213
-530.077	57.772	-0.269	0.262
-529.062	-29.159	0.112	0.064
-528.048	-39.558	-0.131	0.068
-527.033	-200.000	-0.030	-0.192
-526.018	-77.856	-0.058	-0.020
-525.004	-200.000	-0.015	0.165
-523.989	-144.755	-0.283	-0.026
-522.975	-107.456	-0.187	-0.041
-521.960	-200.000	0.052	-0.268
-520.945	-132.950	-0.118	0.015
-519.931	-14.066	-0.175	-0.112
-518.916	-100.234	0.105	-0.026
-517.902	356.384	0.072	-0.142
-516.887	-96.613	-0.473	-0.124
-515.872	-200.000	0.012	-0.169
-514.858	-61.567	-0.207	-0.086
-513.843	3.412	-0.196	0.142
-512.829	-200.000	-0.028	0.374
-511.814	-91.625	-0.248	-0.070
-510.799	-200.000	0.140	-0.000
-509.785	800.000	0.009	-0.026
-508.770	48.020	-0.138	0.128
-507.756	-130.363	-0.179	0.024
-506.741	-200.000	-0.043	0.208
-505.726	-200.000	0.010	-0.146
-504.712	113.245	-0.089	-0.108
-503.697	63.907	-0.033	-0.033
-502.683	620.905	0.104	0.260
-501.668	800.000	-0.037	0.133
-500.653	24.792	-0.182	-0.150
-499.639	338.487	-0.047	-0.091
-498.624	247.552	0.155	0.261
-497.610	706.799	-0.054	-0.143
-496.595	163.340	0.150	-0.209
-495.581	-47.606	-0.269	-0.130
-494.566	214.008	0.250	0.393
-493.551	-149.807	0.181	0.014
-492.537	-53.183	-0.150	-0.069
-491.522	-143.245	-0.439	0.042
-490.508	800.000	-0.083	-0.253
-489.493	604.777	-0.088	-0.217
-488.478	99.628	0.152	0.175
-487.464	231.634	-0.246	-0.401
-486.449	-79.187	-0.241	0.081
-485.435	-144.294	0.232	0.021
-484.420	181.100	-0.038	-0.056
-483.405	-200.000	-0.015	0.298
-482.391	76.784	-0.100	0.105
-481.376	54.968	-0.089	0.086
-480.362	-200.000	0.023	-0.134
-479.347	208.714	0.186	-0.289
-478.332	151.111	0.255	0.345
-477.318	800.000	-0.056	0.211
-476.303	-16.596	-0.197	-0.124
-475.289	-67.073	-0.155	0.061
-474.274	800.000	-0.023	-0.073
-473.259	-200.000	0.035	0.199
-472.245	-170.199	0.221	-0.008
-471.230	800.000	0.022	0.084
-470.216	254.149	-0.055	0.093
-469.201	235.543	0.106	-0.175
-468.186	-90.048	0.269	0.078
-467.172	60.655	0.268	-0.264
-466.157	-200.000	-0.016	0.082
-465.143	-92.239	0.345	0.097
-464.128	107.514	-0.317	-0.374
-463.113	800.000	0.090	0.337
-462.099	-200.000	0.000	-0.058
-461.084	8.697	-0.211	0.158
-460.070	558.743	0.084	-0.201
-459.055	262.410	-0.065	0.113
-458.040	-180.871	-0.143	-0.003
-457.026	800.000	-0.055	-0.167
-456.011	-200.000	-0.028	0.146
-454.997	800.000	-0.039	0.112
-453.982	226.602	0.166	-0.267
-452.968	165.275	-0.249	0.349
-451.953	-200.000	-0.011	0.250
-450.938	-102.507	-0.164	-0.039
-449.924	536.286	-0.093	-0.220
-448.909	-97.409	-0.221	0.057
-447.895	166.649	-0.219	0.309
-446.880	-169.240	-0.146	-0.005
-445.865	-78.086	0.215	0.074
-444.851	49.114	-0.014	0.013
-443.836	-20.416	0.198	-0.121
-442.822	-149.894	-0.146	-0.011
-441.807	321.803	0.044	0.083
-440.792	484.288	0.105	0.237
-439.778	-73.508	-0.115	0.042
-438.763	-42.375	0.154	0.078
-437.749	-58.270	-0.137	0.059
-436.734	-42.060	-0.407	-0.207
-435.719	31.935	-0.201	-0.171
-434.705	-166.681	0.111	0.005
-433.690	-200.000	-0.024	-0.283
-432.676	-200.000	-0.023	0.152
-431.661	656.644	-0.092	0.236
-430.646	-200.000	0.009	0.044
-429.632	-200.000	0.022	-0.336
-428.617	-180.061	0.297	-0.006
-427.603	-41.020	0.115	0.059
-426.588	-29.256	0.169	0.096
-425.573	-8.587	0.058	-0.039
-424.559	-6.757	-0.262	0.177
-423.544	220.283	-0.098	0.155
-422.530	-91.313	-0.104	0.030
-421.515	140.283	0.111	-0.146
-420.500	593.591	-0.065	-0.160
-419.486	-29.320	-0.265	-0.151
-418.471	40.290	-0.122	-0.109
-417.457	754.914	0.133	0.358
-416.442	800.000	0.108	0.368
-415.428	-200.000	0.055	-0.282
-414.413	800.000	0.057	-0.200
-413.398	-7.279	0.097	0.065
-412.384	800.000	-0.096	0.301
-411.369	53.818	-0.240	-0.228
-410.355	228.166	0.083	-0.134
-409.340	-200.000	-0.019	0.224
-408.325	-200.000	-0.009	0.342
-407.311	116.032	0.118	0.143
-406.296	-200.000	-0.002	0.143
-405.282	94.830	0.317	-0.357
-404.267	-155.141	-0.215	0.014
-403.252	81.470	0.258	0.276
-402.238	193.678	-0.217	0.326
-401.223	-84.147	-0.127	0.040
-400.209	652.098	0.143	0.364
-399.194	479.186	0.035	0.079
-398.179	-91.418	0.254	-0.072
-397.165	19.430	-0.300	0.239
-396.150	120.413	0.191	-0.235
-395.136	-118.194	-0.270	-0.048
-394.121	-108.287	-0.219	-0.047
-393.106	800.000	0.135	-0.387
-392.092	71.785	-0.225	0.232
-391.077	-200.000	0.023	0.144
-390.063	-155.267	-0.166	-0.011
-389.048	126.599	0.248	-0.311
-388.033	-55.096	0.294	0.131
-387.019	-155.811	0.098	0.006
-386.004	800.000	0.010	-0.030
-384.990	-82.879	-0.252	-0.081
-383.975	-44.919	0.180	-0.089
-382.960	434.219	-0.089	-0.191
-381.946	36.019	0.119	0.103
-380.931	-34.170	-0.289	-0.157
-379.917	225.196	0.182	0.291
-378.902	-91.986	0.064	0.018
-377.888	-46.774	0.097	-0.047
-376.873	50.803	0.141	0.132
-375.858	-178.790	0.119	-0.003
-374.844	202.408	-0.176	-0.269
-373.829	-200.000	-0.014	-0.087
-372.815	-78.620	0.353	-0.120
-371.800	-31.197	0.136	-0.076
-370.785	80.498	0.047	0.050
-369.771	-3.111	-0.161	0.111
-368.756	-101.249	0.343	-0.083
-367.742	800.000	-0.038	0.122
-366.727	-66.434	0.029	0.011
-365.712	79.802	0.169	0.179
-364.698	322.877	0.202	-0.382
-363.683	169.079	0.095	-0.135
-362.669	86.438	-0.217	-0.237
-361.654	489.604	-0.066	-0.150
-360.639	-80.274	0.095	-0.032
-359.625	-100.089	0.268	-0.066
-358.610	-200.000	-0.017	0.238
-357.596	-200.000	0.002	-0.371
-356.581	-54.965	0.184	-0.082
-355.566	-6.185	0.170	-0.115
-354.552	-111.840	0.060	-0.012
-353.537	-45.684	-0.097	0.048
-352.523	-52.873	-0.084	0.038
-351.508	147.040	-0.048	-0.063
-350.493	800.000	-0.066	-0.225
-349.479	-65.933	-0.300	0.119
-348.464	-154.632	0.177	0.012
-347.450	-92.655	-0.126	0.035
-346.435	389.972	-0.085	-0.175
-345.420	-76.206	0.193	-0.067
-344.406	-200.000	-0.011	0.186
-343.391	47.634	-0.063	0.058
-342.377	-200.000	0.040	-0.317
-341.362	297.759	-0.081	0.147
-340.348	26.849	0.262	0.217
-339.333	192.214	-0.078	0.117
-338.318	-148.869	-0.157	-0.013
-337.304	218.394	0.094	-0.149
-336.289	-47.953	0.482	0.231
-335.275	68.820	-0.172	0.174
-334.260	-182.837	-0.245	-0.004
-333.245	-187.157	0.298	-0.004
-332.231	71.974	0.220	-0.226
-331.216	-58.872	0.269	-0.115
-330.202	-87.769	-0.324	0.096
-329.187	-133.774	-0.269	0.033
-328.172	-3.270	0.155	0.107
-327.158	-170.754	0.219	-0.007
-326.143	54.122	-0.087	0.083
-325.129	98.130	0.039	-0.045
-324.114	-76.199	-0.188	-0.065
-323.099	558.922	0.067	-0.159
-322.085	-9.637	0.135	0.089
-321.070	-101.624	0.287	-0.069
-320.056	-92.461	-0.130	0.036
-319.041	-56.879	0.283	0.123
-318.026	469.520	0.078	0.173
-317.012	141.983	-0.125	-0.164
-315.997	-108.331	0.231	-0.049
-314.983	509.981	0.075	-0.172
-313.968	-52.261	-0.383	-0.175
-312.953	60.711	-0.050	0.049
-311.939	323.352	-0.084	-0.158
-310.924	15.018	0.087	-0.068
-309.910	3.745	0.149	0.108
-308.895	39.285	-0.187	-0.165
-307.880	218.156	0.152	-0.239
-306.866	-76.209	0.116	-0.040
-305.851	60.088	0.099	0.097
-304.837	-37.337	0.162	-0.085
-303.822	368.520	-0.172	0.342
-302.807	34.477	0.166	0.143
-301.793	-116.765	0.227	0.041
-300.778	-38.067	0.069	0.036
-299.764	-157.274	0.158	0.009
-298.749	-142.766	-0.271	0.026
-297.735	-162.742	-0.152	-0.007
-296.720	-81.730	-0.180	0.058
-295.705	178.478	-0.090	-0.130
-294.691	459.276	0.059	-0.129
-293.676	322.060	0.105	-0.198
-292.662	17.139	0.086	0.068
-291.647	-126.485	-0.087	0.013
-290.632	-133.011	-0.189	0.024
-289.618	313.572	0.035	0.065
-288.603	-137.385	-0.170	0.019
-287.589	-26.023	0.207	-0.120
-286.574	105.905	0.128	0.149
-285.559	800.000	-0.047	0.198
-284.545	-200.000	0.030	0.377
-283.530	448.349	-0.127	0.277
-282.516	291.909	-0.108	0.195
-281.501	-41.486	0.058	-0.029
-280.486	56.877	0.210	0.202
-279.472	57.014	0.128	-0.123
-278.457	94.507	0.074	-0.083
-277.443	4.529	0.203	-0.147
-276.428	-83.586	0.186	-0.059
-275.413	-117.873	-0.305	-0.054
-274.399	145.401	0.057	0.075
-273.384	-112.175	0.099	0.020
-272.370	-125.665	0.462	-0.069
-271.355	293.235	0.169	-0.304
-270.340	-95.086	0.110	-0.029
-269.326	800.000	0.080	0.255
-268.311	-71.683	0.138	0.051
-267.297	-6.615	0.102	0.069
-266.282	-100.354	0.101	0.025
-265.267	-38.950	-0.336	0.174
-264.253	141.852	-0.093	-0.121
-263.238	298.525	0.073	0.132
-262.224	106.536	-0.144	0.169
-261.209	-200.000	0.025	0.188
-260.195	-2.181	-0.300	-0.208
-259.180	106.692	0.155	0.181
-258.165	800.000	-0.036	-0.102
-257.151	-22.537	0.042	0.025
-256.136	13.351	-0.240	-0.183
-255.122	-50.320	0.269	-0.125
-254.107	-122.509	-0.253	0.040
-253.092	193.700	0.038	0.057
-252.078	76.747	0.117	-0.122
-251.063	-200.000	-0.091	0.396
-250.049	191.399	0.100	-0.148
-249.034	105.519	0.225	0.262
-248.019	203.506	-0.058	0.088
-247.005	92.186	0.198	0.219
-245.990	221.452	-0.130	0.205
-244.976	19.786	0.191	0.151
-243.961	41.732	0.337	-0.301
-242.946	-183.002	0.071	-0.001
-241.932	-118.255	-0.313	0.055
-240.917	-47.072	-0.279	0.134
-239.903	-44.683	-0.052	-0.025
-238.888	52.000	0.041	0.039
-237.873	348.290	-0.152	0.294
-236.859	800.000	0.104	-0.350
-235.844	120.636	0.041	-0.050
-234.830	-158.752	-0.183	0.010
-233.815	-182.392	0.278	-0.005
-232.800	-39.905	0.245	0.126
-231.786	34.747	0.192	-0.165
-230.771	76.714	0.242	0.253
-229.757	152.542	0.136	-0.183
-228.742	159.448	-0.161	-0.220
-227.727	-200.000	0.006	-0.054
-226.713	-58.299	0.240	-0.103
-225.698	45.729	-0.094	0.085
-224.684	653.428	0.095	-0.239
-223.669	99.564	-0.089	-0.101
-222.655	-127.093	-0.367	0.053
-221.640	30.904	0.252	0.212
-220.625	-200.000	0.063	0.336
-219.611	-23.216	0.128	0.076
-218.596	266.162	-0.118	-0.203
-217.582	-21.541	0.070	-0.042
-216.567	-200.000	0.024	-0.172
-215.552	-182.501	-0.124	-0.002
-214.538	-200.000	-0.415	-0.001
-213.523	28.928	-0.100	-0.083
-212.509	9.797	0.285	0.212
-211.494	-200.000	-0.068	-0.380
-210.479	-132.341	-0.184	-0.023
-209.465	-88.816	0.301	-0.088
-208.450	-118.609	-0.226	-0.039
-207.436	-90.178	0.017	-0.005
-206.421	-200.000	-0.035	0.215
-205.406	22.217	-0.075	-0.060
-204.392	137.518	-0.302	0.389
-203.377	-36.768	0.094	-0.050
-202.363	-120.198	0.118	-0.020
-201.348	46.299	-0.357	-0.325
-200.333	433.728	0.041	-0.088
-199.319	-21.176	-0.129	-0.078
-198.304	-200.000	-0.064	0.297
-197.290	-87.487	0.115	-0.034
-196.275	458.480	-0.044	-0.097
-195.260	240.704	0.073	-0.120
-194.246	-200.000	0.014	-0.073
-193.231	-55.402	-0.113	-0.050
-192.217	82.080	-0.252	-0.269
-191.202	-82.591	0.034	0.011
-190.187	355.279	0.100	-0.195
-189.173	800.000	-0.092	0.296
-188.158	-200.000	0.025	0.127
-187.144	800.000	0.034	0.099
-186.129	-121.449	0.372	-0.061
-185.114	-32.390	-0.125	-0.069
-184.100	800.000	0.062	-0.248
-183.085	-5.222	0.079	-0.053
-182.071	-200.000	0.044	0.329
-181.056	-200.000	0.041	-0.178
-180.042	-107.457	-0.240	0.052
-179.027	800.000	-0.098	-0.400
-178.012	-119.667	-0.247	-0.042
-176.998	-75.500	0.411	0.143
-175.983	-47.180	0.133	-0.064
-174.969	-0.622	0.112	-0.078
-173.954	-165.639	0.459	0.020
-172.939	-114.543	0.130	-0.025
-171.925	215.287	-0.111	0.174
-170.910	-55.095	0.117	-0.052
-169.896	95.329	-0.116	0.129
-168.881	-155.268	0.381	0.024
-167.866	295.817	0.150	0.270
-166.852	221.774	-0.189	-0.298
-165.837	391.629	-0.086	-0.175
-164.823	133.254	0.253	-0.321
-163.808	-89.968	-0.188	-0.054
-162.793	345.683	0.097	0.187
-161.779	-117.830	0.309	0.054
-160.764	-18.032	-0.267	0.164
-159.750	668.931	-0.038	-0.095
-158.735	-200.000	-0.045	0.244
-157.720	-10.825	-0.076	0.049
-156.706	-37.267	-0.219	0.115
-155.691	-104.941	-0.308	0.069
-154.677	157.541	-0.272	0.369
-153.662	-200.000	-0.007	-0.072
-152.647	-200.000	0.069	0.332
-151.633	370.617	-0.189	-0.377
-150.618	-14.142	0.218	-0.138
-149.604	179.925	-0.144	-0.207
-148.589	-100.768	-0.281	-0.068
-147.574	-24.404	-0.175	0.102
-146.560	-200.000	0.021	-0.210
-145.545	143.879	0.084	0.110
-144.531	-21.225	0.146	-0.087
-143.516	152.736	0.088	-0.118
-142.502	-9.816	-0.089	-0.058
-141.487	-11.825	0.208	-0.134
-140.472	-11.394	0.091	-0.059
-139.458	800.000	0.019	0.055
-138.443	507.815	-0.131	0.298
-137.429	232.420	0.024	0.039
-136.414	176.907	-0.115	0.165
-135.399	800.000	-0.039	0.113
-134.385	384.944	-0.041	-0.083
-133.370	-2.134	-0.119	-0.082
-132.356	-10.370	0.216	-0.141
-131.341	331.711	-0.009	0.016
-130.326	800.000	0.042	0.119
-129.312	182.401	-0.114	-0.164
-128.297	1.246	0.219	-0.154
-127.283	379.342	-0.049	-0.098
-126.268	-113.350	-0.227	0.044
-125.253	-173.387	0.433	0.013
-124.239	533.893	-0.101	-0.234
-123.224	800.000	-0.091	0.263
-122.210	108.583	-0.191	0.223
-121.195	172.205	-0.218	0.307
-120.180	120.295	0.056	0.068
-119.166	27.974	-0.245	0.203
-118.151	-200.000	0.022	0.243
-117.137	-112.097	-0.452	0.089
-116.122	-122.732	0.241	0.038
-115.107	88.741	0.122	0.133
-114.093	-200.000	0.037	0.206
-113.078	289.968	0.043	0.077
-112.064	132.778	-0.052	-0.066
-111.049	601.178	-0.146	-0.356
-110.034	47.810	-0.344	0.314
-109.020	-39.375	0.115	0.059
-108.005	106.961	-0.146	-0.170
-106.991	-200.000	0.013	0.134
-105.976	-200.000	-0.006	0.175
-104.962	-200.000	-0.041	-0.203
-103.947	800.000	-0.097	0.325
-102.932	-200.000	-0.002	0.449
-101.918	-200.000	0.005	0.097
-100.903	514.676	0.138	-0.316
-99.889	-114.483	-0.133	0.025
-98.874	800.000	0.032	-0.092
-97.859	-200.000	-0.038	-0.238
-96.845	72.641	0.193	0.197
-95.830	-200.000	-0.012	0.199
-94.816	-200.000	-0.009	0.164
-93.801	10.142	-0.162	0.120
-92.786	-85.702	0.367	0.112
-91.772	129.623	0.140	0.175
-90.757	612.593	0.029	0.070
-89.743	367.801	-0.092	-0.182
-88.728	-31.597	0.308	-0.169
-87.713	123.323	0.133	-0.163
-86.699	136.737	-0.188	-0.241
-85.684	2.530	0.144	0.102
-84.670	172.198	-0.200	0.282
-83.655	-200.000	-0.025	-0.221
-82.640	-92.698	-0.232	0.064
-81.626	-143.240	0.545	-0.051
-80.611	-200.000	0.020	-0.213
-79.597	-52.319	-0.290	0.131
-78.582	-77.897	0.412	-0.139
-77.567	791.316	0.051	-0.136
-76.553	800.000	-0.064	0.239
-75.538	-140.064	-0.238	0.024
-74.524	-80.175	-0.111	0.036
-73.509	161.388	-0.152	0.208
-72.494	37.137	-0.058	0.050
-71.480	-1.847	-0.054	0.037
-70.465	-169.989	-0.203	0.007
-69.451	-200.000	0.054	0.314
-68.436	-44.543	-0.211	0.103
-67.422	51.129	-0.090	-0.084
-66.407	-69.643	-0.396	-0.148
-65.392	-154.598	-0.160	-0.010
-64.378	449.853	-0.060	0.130
-63.363	-200.000	-0.002	-0.085
-62.349	-200.000	-0.001	0.284
-61.334	52.429	-1.310	-1.222
-60.319	146.772	0.583	0.766
-59.305	732.525	-0.521	-1.363
-58.290	149.954	1.054	1.396
-57.276	800.000	0.564	1.777
-56.261	-200.000	125.873	635.496
-55.246	378.633	1599.997	3199.869
-54.232	135.028	2785.113	3535.974
-53.217	83.870	2367.624	2525.276
-52.203	29.040	2106.749	1746.098
-51.188	24.087	2020.756	1629.556
-50.173	22.975	2004.398	1606.197
-49.159	41.138	2078.173	1834.584
-48.144	39.021	2089.836	1825.155
-47.130	24.586	2042.388	1651.349
-46.115	22.480	2030.566	1622.349
-45.100	22.393	2027.786	1619.265
-44.086	22.318	2025.472	1616.667
-43.071	22.226	2023.649	1614.301
-42.057	22.304	2020.997	1612.840
-41.042	22.275	2019.395	1611.231
-40.027	22.388	2017.621	1610.785
-39.013	22.310	2015.334	1608.178
-37.998	22.313	2014.136	1607.189
-36.984	22.374	2012.002	1605.973
-35.969	22.361	2010.209	1604.366
-34.954	22.326	2008.626	1602.720
-33.940	22.437	2007.296	1602.607
-32.925	22.410	2005.324	1600.716
-31.911	22.447	2004.108	1600.025
-30.896	22.422	2002.601	1598.525
-29.881	22.505	2000.565	1597.592
-28.867	22.393	1999.238	1595.458
-27.852	22.474	1997.235	1594.523
-26.838	22.518	1995.176	1593.218
-25.823	22.419	1993.170	1590.661
-24.809	22.616	1990.669	1590.377
-23.794	22.478	1989.968	1588.504
-22.779	22.526	1987.958	1587.277
-21.765	22.438	1986.724	1585.436
-20.750	22.453	1984.798	1583.964
-19.736	22.489	1983.474	1583.174
-18.721	22.468	1982.241	1581.939
-17.706	22.408	1980.176	1579.687
-16.692	22.369	1978.783	1578.162
-15.677	22.460	1976.874	1577.392
-14.663	22.470	1975.611	1576.416
-13.648	22.474	1974.439	1575.451
-12.633	22.422	1973.048	1573.815
-11.619	22.434	1971.604	1572.707
-10.604	22.462	1970.444	1571.966
-9.590	22.492	1968.907	1570.949
-8.575	22.494	1967.932	1570.128
-7.560	22.447	1966.561	1568.552
-6.546	22.456	1965.366	1567.617
-5.531	22.528	1963.835	1566.967
-4.517	22.523	1962.617	1565.890
-3.502	22.483	1961.551	1564.624
-2.487	22.480	1960.023	1563.314
-1.473	22.496	1959.535	1563.010
-0.458	22.537	1954.322	1559.152
0.556	21.490	1935.431	1535.145
1.571	17.739	1917.827	1488.364
2.586	14.552	1942.107	1478.866
3.600	13.795	1978.841	1499.864
4.615	13.660	1971.573	1493.006
5.629	10.610	1869.549	1389.542
6.644	4.277	1754.928	1253.191
7.659	0.988	1722.049	1203.504
8.673	0.670	1719.670	1199.207
9.688	0.630	1718.169	1197.739
10.702	0.680	1716.497	1196.858
11.717	0.461	1712.796	1192.441
12.731	0.936	1710.929	1194.787
13.746	5.551	1721.347	1238.539
14.761	12.391	1734.616	1302.349
15.775	16.238	1741.683	1338.100
16.790	16.974	1742.479	1344.430
17.804	16.131	1739.551	1335.375
18.819	15.186	1735.902	1324.992
19.834	14.645	1733.925	1319.091
20.848	14.449	1731.644	1315.690
21.863	14.182	1729.984	1312.203
22.877	13.938	1728.612	1309.126
23.892	13.630	1727.231	1305.537
24.907	13.543	1726.007	1303.815
25.921	13.559	1724.514	1302.695
26.936	13.517	1723.757	1301.676
27.950	13.476	1723.228	1300.839
28.965	13.516	1722.771	1300.693
29.980	13.729	1721.415	1301.230
30.994	13.649	1720.739	1299.975
32.009	13.778	1719.324	1299.801
33.023	13.739	1719.321	1299.377
34.038	13.743	1718.203	1298.447
35.053	13.833	1716.450	1297.714
36.067	13.733	1715.745	1296.284
37.082	13.635	1714.895	1294.760
38.096	13.679	1713.545	1293.971
39.111	13.730	1712.829	1293.719
40.126	13.736	1712.262	1293.216
41.140	13.777	1711.462	1292.818
42.155	13.686	1709.352	1290.405
43.169	13.549	1708.027	1288.225
44.184	13.549	1707.159	1287.459
45.199	13.470	1705.681	1285.615
46.213	13.524	1704.794	1285.248
47.228	13.570	1703.114	1284.226
48.242	13.530	1702.337	1283.214
49.257	13.687	1700.936	1283.262
50.271	13.657	1699.071	1281.509
51.286	13.652	1698.466	1280.900
52.301	13.686	1696.672	1279.695
53.315	13.631	1695.677	1278.411
54.330	13.690	1693.625	1277.203
55.344	13.557	1692.602	1275.296
56.359	13.561	1691.022	1274.026
57.374	13.580	1689.859	1273.183
58.388	13.636	1688.117	1272.189
59.403	13.537	1687.237	1270.650
60.417	13.498	1685.627	1269.029
61.432	13.525	1684.437	1268.224
62.447	13.500	1683.240	1267.017
63.461	13.499	1681.709	1265.750
64.476	13.459	1680.886	1264.709
65.490	13.365	1680.335	1263.469
66.505	13.472	1678.243	1262.598
67.520	13.475	1677.263	1261.772
68.534	13.513	1676.256	1261.189
69.549	13.526	1674.904	1260.165
70.563	13.462	1673.827	1258.752
71.578	13.508	1672.419	1257.935
72.593	13.471	1671.541	1256.884
73.607	13.486	1670.131	1255.822
74.622	13.455	1669.199	1254.779
75.636	13.378	1668.755	1253.744
76.651	13.376	1667.161	1252.423
77.666	13.399	1666.470	1251.971
78.680	13.456	1665.154	1251.301
79.695	13.421	1664.112	1250.141
80.709	13.382	1663.360	1249.174
81.724	13.371	1662.688	1248.469
82.739	13.506	1661.311	1248.348
83.753	13.546	1660.285	1247.766
84.768	13.578	1658.901	1246.858
85.782	13.570	1658.523	1246.402
86.797	13.549	1658.300	1245.970
87.812	13.602	1656.583	1244.964
88.826	13.480	1655.567	1243.176
89.841	13.554	1654.278	1242.654
90.855	13.566	1653.336	1241.928
91.870	13.564	1652.802	1241.397
92.884	13.588	1650.869	1240.019
93.899	13.673	1650.091	1239.955
94.914	13.697	1648.343	1238.711
95.928	13.655	1647.571	1237.714
96.943	13.700	1646.172	1236.889
97.957	13.651	1644.706	1235.311
98.972	13.807	1642.730	1234.874
99.987	13.684	1641.692	1233.075
101.001	13.609	1639.825	1231.001
102.016	13.644	1638.149	1229.896
103.030	13.650	1636.973	1228.953
104.045	13.643	1636.133	1228.161
105.060	13.614	1634.329	1226.481
106.074	13.636	1632.746	1225.344
107.089	13.566	1631.644	1223.896
108.103	13.607	1629.845	1222.743
109.118	13.490	1628.839	1221.017
110.133	13.515	1627.533	1220.108
111.147	13.560	1625.567	1218.859
112.162	13.573	1624.274	1217.882
113.176	13.535	1623.173	1216.669
114.191	13.571	1621.609	1215.647
115.206	13.580	1620.523	1214.794
116.220	13.595	1619.457	1214.001
117.235	13.589	1617.847	1212.641
118.249	13.611	1616.676	1211.813
119.264	13.572	1615.377	1210.447
120.279	13.559	1613.819	1209.080
121.293	13.567	1612.317	1207.905
122.308	13.601	1610.621	1206.774
123.322	13.533	1609.471	1205.312
124.337	13.585	1607.524	1204.127
125.352	13.503	1606.881	1202.940
126.366	13.496	1605.590	1201.822
127.381	13.605	1604.063	1201.357
128.395	13.508	1602.938	1199.706
129.410	13.567	1601.676	1199.087
130.424	13.572	1600.023	1197.775
131.439	13.543	1598.906	1196.625
132.454	13.596	1597.285	1195.692
133.468	13.607	1595.892	1194.617
134.483	13.586	1594.300	1193.170
135.497	13.598	1593.207	1192.334
136.512	13.561	1592.192	1191.206
137.527	13.572	1590.576	1189.969
138.541	13.613	1589.057	1189.024
139.556	13.635	1587.721	1188.070
140.570	13.674	1585.941	1186.917
141.585	13.652	1584.839	1185.827
142.600	13.755	1583.551	1185.495
143.614	13.742	1582.432	1184.457
144.629	13.739	1580.977	1183.247
145.643	13.894	1579.487	1183.132
146.658	13.802	1578.570	1181.679
147.673	13.864	1576.894	1180.765
148.687	13.886	1574.989	1179.393
149.702	13.804	1573.766	1177.786
150.716	13.737	1572.382	1176.175
151.731	13.781	1570.715	1175.131
152.746	13.865	1568.723	1174.135
153.760	13.814	1567.341	1172.635
154.775	13.804	1566.518	1171.846
155.789	13.857	1565.003	1170.983
156.804	13.887	1563.881	1170.251
157.819	13.895	1562.908	1169.474
158.833	13.909	1561.687	1168.555
159.848	13.937	1560.443	1167.722
160.862	14.002	1558.912	1166.930
161.877	13.955	1557.501	1165.434
162.892	13.959	1556.235	1164.418
163.906	13.915	1555.265	1163.278
164.921	13.965	1553.699	1162.352
165.935	13.846	1552.943	1160.850
166.950	13.903	1551.587	1160.132
167.964	14.011	1550.174	1159.728
168.979	13.957	1549.122	1158.462
169.994	13.920	1548.508	1157.642
171.008	13.990	1547.109	1156.980
172.023	13.987	1546.406	1156.336
173.037	14.062	1544.806	1155.555
174.052	14.022	1544.028	1154.597
175.067	14.052	1543.062	1153.975
176.081	14.083	1541.112	1152.629
177.096	14.067	1540.309	1151.821
178.110	13.989	1538.978	1150.181
179.125	14.043	1537.619	1149.442
180.140	14.082	1536.377	1148.675
181.154	13.996	1535.640	1147.434
182.169	14.144	1533.902	1147.053
183.183	14.117	1533.000	1146.088
184.198	14.166	1531.703	1145.358
185.213	14.202	1530.863	1144.873
186.227	14.162	1529.637	1143.578
187.242	14.197	1528.874	1143.147
188.256	14.188	1527.707	1142.114
189.271	14.242	1526.686	1141.622
190.286	14.317	1525.356	1141.036
191.300	14.243	1524.315	1139.651
192.315	14.100	1522.853	1137.478
193.329	14.050	1522.232	1136.573
194.344	14.034	1520.950	1135.404
195.359	14.129	1519.973	1135.222
196.373	14.179	1519.103	1134.817
197.388	14.242	1517.813	1134.181
198.402	14.293	1516.681	1133.580
199.417	14.263	1515.510	1132.402
200.432	14.325	1514.567	1132.016
201.446	14.392	1513.346	1131.463
202.461	14.373	1512.372	1130.503
203.475	14.385	1511.106	1129.541
204.490	14.423	1510.205	1129.023
205.504	14.553	1508.720	1128.690
206.519	14.437	1507.720	1127.058
207.534	14.452	1506.589	1126.219
208.548	14.461	1504.880	1124.898
209.563	14.390	1504.220	1123.830
210.577	14.439	1503.278	1123.354
211.592	14.463	1502.222	1122.627
212.607	14.455	1501.445	1121.894
213.621	14.548	1500.699	1121.865
214.636	14.605	1499.724	1121.417
215.650	14.605	1498.429	1120.352
216.665	14.495	1498.087	1119.260
217.680	14.552	1497.203	1118.881
218.694	14.604	1496.217	1118.394
219.709	14.696	1494.993	1117.995
220.723	14.617	1494.596	1117.072
221.738	14.662	1493.418	1116.396
222.753	14.649	1492.454	1115.488
223.767	14.619	1491.264	1114.300
224.782	14.712	1490.258	1114.069
225.796	14.578	1489.378	1112.418
226.811	14.692	1488.897	1112.724
227.826	14.787	1487.614	1112.292
228.840	14.829	1486.612	1111.728
229.855	14.797	1485.624	1110.679
230.869	14.767	1485.224	1110.081
231.884	14.744	1483.845	1108.796
232.899	14.755	1483.077	1108.197
233.913	14.692	1481.459	1106.474
234.928	14.743	1480.492	1105.991
235.942	14.804	1479.271	1105.388
236.957	14.668	1478.290	1103.658
237.972	14.706	1477.301	1103.072
238.986	14.792	1475.532	1102.223
240.001	14.768	1474.586	1101.260
241.015	14.861	1473.873	1101.238
242.030	14.831	1472.409	1099.851
243.045	14.810	1471.916	1099.247
244.059	14.877	1471.018	1098.924
245.074	14.866	1469.564	1097.667
246.088	14.969	1468.934	1097.772
247.103	15.002	1467.816	1097.060
248.117	14.906	1467.434	1096.047
249.132	15.015	1466.577	1096.023
250.147	15.072	1465.530	1095.519
251.161	15.079	1465.076	1095.126
252.176	15.135	1464.383	1094.876
253.190	15.194	1463.043	1094.166
254.205	15.172	1462.747	1093.699
255.220	15.227	1461.301	1092.879
256.234	15.131	1461.079	1091.994
257.249	15.204	1460.146	1091.678
258.263	15.180	1459.672	1091.069
259.278	15.312	1458.196	1090.725
260.293	15.282	1457.576	1089.971
261.307	15.238	1456.882	1089.072
262.322	15.296	1455.949	1088.650
263.336	15.368	1455.230	1088.485
264.351	15.459	1453.801	1087.908
265.366	15.528	1452.584	1087.350
266.380	15.438	1451.949	1086.195
267.395	15.464	1450.888	1085.476
268.409	15.475	1450.177	1084.917
269.424	15.472	1449.212	1084.082
270.439	15.434	1448.059	1082.875
271.453	15.416	1446.963	1081.845
272.468	15.464	1446.021	1081.354
273.482	15.464	1445.546	1080.907
274.497	15.441	1444.761	1080.074
275.512	15.474	1443.812	1079.482
276.526	15.509	1442.889	1078.918
277.541	15.563	1441.731	1078.306
278.555	15.582	1440.756	1077.604
279.570	15.521	1440.101	1076.625
280.585	15.458	1439.157	1075.421
281.599	15.503	1438.526	1075.146
282.614	15.619	1437.424	1074.966
283.628	15.664	1435.709	1073.877
284.643	15.600	1435.122	1072.931
285.657	15.611	1433.707	1071.851
286.672	15.662	1432.938	1071.509
287.687	15.656	1432.305	1070.901
288.701	15.669	1430.851	1069.800
289.716	15.758	1430.198	1069.781
290.730	15.708	1429.336	1068.724
291.745	15.794	1427.994	1068.176
292.760	15.749	1427.121	1067.143
293.774	15.712	1426.338	1066.229
294.789	15.757	1425.277	1065.627
295.803	15.891	1424.584	1065.857
296.818	15.865	1423.778	1065.000
297.833	15.844	1422.598	1063.889
298.847	15.920	1421.285	1063.294
299.862	15.862	1420.604	1062.323
300.876	15.837	1419.910	1061.551
301.891	15.832	1418.664	1060.493
302.906	15.902	1418.047	1060.381
303.920	15.973	1417.135	1060.053
304.935	16.005	1416.195	1059.459
305.949	15.970	1415.684	1058.758
306.964	15.974	1415.253	1058.372
307.979	16.051	1414.098	1057.897
308.993	16.080	1413.142	1057.267
310.008	16.102	1411.974	1056.437
311.022	16.067	1411.017	1055.410
312.037	16.161	1409.718	1054.935
313.052	16.138	1408.794	1054.003
314.066	16.059	1408.022	1052.839
315.081	16.062	1406.905	1051.929
316.095	16.088	1405.501	1050.951
317.110	16.101	1404.636	1050.290
318.125	16.114	1404.060	1049.847
319.139	16.096	1402.948	1048.814
320.154	16.164	1401.833	1048.308
321.168	16.115	1401.367	1047.566
322.183	16.206	1399.972	1046.991
323.197	16.143	1399.142	1045.891
324.212	16.188	1398.131	1045.321
325.227	16.187	1397.449	1044.711
326.241	16.179	1396.412	1043.793
327.256	16.211	1395.559	1043.260
328.270	16.207	1394.598	1042.428
329.285	16.285	1393.791	1042.210
330.300	16.280	1393.084	1041.558
331.314	16.256	1392.093	1040.579
332.329	16.301	1390.725	1039.743
333.343	16.326	1390.091	1039.330
334.358	16.326	1389.252	1038.609
335.373	16.273	1388.409	1037.560
336.387	16.295	1387.925	1037.244
337.402	16.396	1386.850	1036.971
338.416	16.334	1386.260	1036.057
339.431	16.484	1385.524	1036.333
340.446	16.401	1384.929	1035.286
341.460	16.362	1383.622	1033.983
342.475	16.495	1382.627	1033.961
343.489	16.475	1381.915	1033.211
344.504	16.535	1380.806	1032.660
345.519	16.610	1379.913	1032.357
346.533	16.699	1379.007	1032.130
347.548	16.610	1378.372	1031.019
348.562	16.683	1377.164	1030.474
349.577	16.715	1376.263	1029.902
350.592	16.675	1375.660	1029.116
351.606	16.524	1375.124	1027.702
352.621	16.699	1373.413	1027.395
353.635	16.617	1372.631	1026.223
354.650	16.688	1371.620	1025.809
355.665	16.687	1370.725	1025.044
356.679	16.666	1369.345	1023.790
357.694	16.706	1368.486	1023.302
358.708	16.641	1367.677	1022.213
359.723	16.665	1366.738	1021.566
360.738	16.783	1365.178	1021.022
361.752	16.731	1364.793	1020.327
362.767	16.740	1363.298	1019.173
363.781	16.920	1362.015	1019.210
364.796	16.717	1361.624	1017.605
365.810	16.765	1361.029	1017.361
366.825	16.912	1360.108	1017.462
367.840	16.873	1359.091	1016.381
368.854	16.881	1358.834	1016.142
369.869	16.978	1357.998	1016.008
370.883	16.902	1357.701	1015.240
371.898	16.960	1356.287	1014.440
372.913	16.985	1355.615	1013.999
373.927	16.902	1354.862	1012.853
374.942	17.012	1354.175	1012.903
375.956	17.062	1352.910	1012.169
376.971	17.071	1352.258	1011.643
377.986	17.035	1351.486	1010.761
379.000	17.146	1350.421	1010.536
380.015	17.112	1349.988	1009.920
381.029	17.025	1349.263	1008.768
382.044	17.171	1348.483	1008.967
383.059	17.146	1347.592	1008.061
384.073	17.188	1347.006	1007.783
385.088	17.268	1346.155	1007.531
386.102	17.222	1345.575	1006.735
387.117	17.246	1345.027	1006.382
388.132	17.330	1344.244	1006.203
389.146	17.263	1343.227	1004.957
390.161	17.316	1342.036	1004.285
391.175	17.237	1341.887	1003.620
392.190	17.190	1340.740	1002.397
393.205	17.379	1339.864	1002.768
394.219	17.259	1338.750	1001.137
395.234	17.333	1337.589	1000.618
396.248	17.322	1336.397	999.571
397.263	17.321	1334.905	998.363
398.278	17.368	1333.362	997.394
399.292	17.451	1331.864	996.673
400.307	17.290	1331.739	995.548
401.321	17.326	1330.744	994.928
402.336	17.275	1329.327	993.482
403.350	17.340	1328.214	992.944
404.365	17.367	1327.817	992.713
405.380	17.364	1326.420	991.566
406.394	17.402	1325.693	991.157
407.409	17.397	1325.213	990.681
408.423	17.475	1324.240	990.317
409.438	17.540	1323.658	990.174
410.453	17.606	1322.773	989.806
411.467	17.629	1321.843	989.156
412.482	17.756	1321.121	989.266
413.496	17.668	1320.813	988.439
414.511	17.498	1320.419	987.068
415.526	17.721	1319.172	987.338
416.540	17.632	1318.711	986.394
417.555	17.800	1317.576	986.431
418.569	17.775	1317.073	985.817
419.584	17.806	1316.632	985.581
420.599	17.726	1316.231	984.733
421.613	100.562	1363.614	1488.889
422.628	99.198	1370.430	1488.938
