DTS Sentinel unit serial number:	SN413079Multiplexer serial number:	ORYXHardware model number:	OX4-SRSoftware version number:	ORYX F/W v4.00 Oryx Data Collector v3.7.2.0data status	okinstallation	princeton_trtdifferential loss correction	single-endedforward channel	channel 4reverse channel	N/Adate	2019/09/11time	16:23:10forward acquisition time	60.00reverse acquisition time	0.00gamma	496.2192k internal	0.2275k external	0.2275temperature offset calibration	1.0019default loss term (dB/km)	0.3790temperature slope calibration	1.0000multiplexer offset coefficient	1.0000multiplexer slope coefficient	1.0000fibre end	0.00T internal ref (°C)	43.52T ext. ref 1 (°C)	1.09T ext. ref 2 (°C)	38.49length (m)	temperature (°C)	Stokes	anti-Stokes-747.200	267.496	0.054	-0.098
-746.185	800.000	-0.134	0.551
-745.171	89.216	0.042	-0.048
-744.156	-200.000	0.014	-0.121
-743.142	18.441	-0.026	0.022
-742.127	204.458	0.079	0.126
-741.112	-37.708	0.174	-0.095
-740.098	230.007	-0.169	0.285
-739.083	34.254	-0.176	0.158
-738.069	-12.170	-0.312	0.211
-737.054	-39.211	-0.123	0.067
-736.039	-140.179	-0.497	0.054
-735.025	89.699	0.182	0.209
-734.010	13.298	-0.116	-0.093
-732.996	-14.103	-0.122	-0.081
-731.981	-99.351	0.125	-0.032
-730.966	-91.190	0.048	0.014
-729.952	31.067	-0.046	-0.041
-728.937	131.439	-0.267	0.353
-727.923	800.000	0.031	0.100
-726.908	-90.553	-0.148	0.044
-725.894	350.234	0.117	-0.237
-724.879	100.712	-0.101	-0.121
-723.864	-14.361	-0.182	0.120
-722.850	182.723	-0.103	-0.157
-721.835	-48.628	-0.066	0.032
-720.821	800.000	-0.072	0.212
-719.806	-0.227	0.193	0.142
-718.791	72.311	0.116	-0.124
-717.777	-69.953	-0.136	-0.053
-716.762	309.137	0.035	-0.067
-715.748	86.687	-0.065	-0.073
-714.733	25.019	0.230	-0.196
-713.718	207.781	-0.167	-0.269
-712.704	358.470	-0.144	-0.297
-711.689	12.602	-0.078	-0.062
-710.675	696.790	0.074	-0.200
-709.660	800.000	0.038	-0.152
-708.645	-200.000	-0.020	-0.355
-707.631	800.000	0.068	-0.198
-706.616	-25.285	-0.297	0.181
-705.602	-107.909	-0.395	0.088
-704.587	-136.609	-0.090	0.011
-703.572	131.317	0.129	0.171
-702.558	443.077	-0.199	-0.450
-701.543	670.942	-0.095	-0.254
-700.529	-200.000	0.045	0.252
-699.514	-39.172	0.171	0.093
-698.499	271.491	-0.160	-0.290
-697.485	-64.818	-0.078	0.032
-696.470	13.040	-0.049	-0.039
-695.456	-200.000	0.050	0.235
-694.441	-182.854	-0.150	-0.003
-693.426	-200.000	0.038	-0.207
-692.412	-63.728	-0.059	0.025
-691.397	382.590	-0.123	-0.261
-690.383	-47.886	-0.190	0.095
-689.368	-93.217	-0.348	-0.099
-688.354	-34.458	-0.104	-0.059
-687.339	-46.262	0.165	-0.084
-686.324	136.480	-0.068	-0.092
-685.310	61.219	-0.194	0.198
-684.295	120.145	-0.074	0.094
-683.281	-40.848	-0.196	0.104
-682.266	-156.173	-0.336	-0.022
-681.251	-177.724	0.328	-0.008
-680.237	-82.159	-0.157	0.053
-679.222	84.635	-0.170	-0.192
-678.208	682.845	-0.134	-0.360
-677.193	-45.419	0.161	0.082
-676.178	181.443	0.073	-0.111
-675.164	-200.000	-0.002	-0.155
-674.149	-69.790	-0.220	-0.086
-673.135	-152.695	0.455	0.033
-672.120	-200.000	-0.001	0.100
-671.105	18.860	0.193	0.159
-670.091	318.152	0.115	-0.224
-669.076	-23.844	0.186	-0.114
-668.062	343.730	-0.072	-0.145
-667.047	-141.939	-0.137	-0.014
-666.032	-200.000	-0.029	-0.154
-665.018	279.173	0.110	0.202
-664.003	-36.510	-0.223	-0.124
-662.989	-200.000	0.015	0.119
-661.974	-19.294	-0.025	0.016
-660.959	180.943	-0.165	0.249
-659.945	-115.177	-0.251	0.049
-658.930	-23.622	-0.170	0.105
-657.916	-200.000	-0.001	-0.119
-656.901	-31.890	-0.229	-0.132
-655.886	-96.605	-0.205	0.056
-654.872	-24.710	-0.182	0.111
-653.857	181.979	-0.195	0.295
-652.843	800.000	-0.064	0.195
-651.828	23.680	-0.123	-0.104
-650.814	-200.000	0.012	-0.332
-649.799	-200.000	-0.011	-0.151
-648.784	-124.335	-0.256	0.041
-647.770	800.000	0.059	0.195
-646.755	-145.197	-0.166	0.015
-645.741	800.000	0.077	-0.299
-644.726	800.000	-0.026	-0.075
-643.711	203.901	-0.140	0.223
-642.697	-200.000	-0.433	-0.000
-641.682	435.609	-0.034	0.076
-640.668	193.050	0.059	-0.091
-639.653	800.000	-0.067	-0.265
-638.638	20.146	-0.130	0.108
-637.624	-200.000	-0.024	-0.139
-636.609	-163.882	-0.161	-0.008
-635.595	800.000	0.057	-0.225
-634.580	176.972	-0.073	0.110
-633.565	-119.818	-0.284	0.050
-632.551	-52.688	-0.148	-0.070
-631.536	7.281	0.042	-0.033
-630.522	564.015	0.071	-0.176
-629.507	4.619	-0.146	0.110
-628.492	76.072	-0.304	-0.330
-627.478	-58.879	0.247	-0.109
-626.463	484.754	0.012	-0.029
-625.449	526.936	-0.113	-0.274
-624.434	705.236	-0.086	-0.232
-623.419	180.402	0.095	0.143
-622.405	-49.616	-0.271	-0.132
-621.390	444.823	0.090	0.202
-620.376	43.371	0.163	-0.152
-619.361	31.440	-0.178	-0.157
-618.346	800.000	-0.021	-0.063
-617.332	-63.839	-0.228	-0.096
-616.317	-114.894	0.119	0.023
-615.303	-121.463	-0.191	-0.033
-614.288	800.000	-0.050	0.177
-613.273	-80.671	-0.133	0.046
-612.259	-43.278	0.196	-0.102
-611.244	800.000	0.031	-0.128
-610.230	-120.865	0.287	-0.050
-609.215	-93.969	0.086	-0.024
-608.201	800.000	0.099	-0.329
-607.186	-53.194	-0.149	-0.070
-606.171	-200.000	-0.006	-0.166
-605.157	800.000	-0.025	0.100
-604.142	-195.159	-0.171	-0.001
-603.128	97.089	-0.266	-0.313
-602.113	-68.324	-0.382	-0.152
-601.098	327.306	-0.117	-0.229
-600.084	800.000	0.035	-0.152
-599.069	-20.612	0.363	0.228
-598.055	-52.594	-0.166	-0.079
-597.040	-200.000	-0.054	-0.513
-596.025	248.107	-0.071	-0.122
-595.011	-24.111	-0.098	-0.060
-593.996	-164.941	0.088	0.004
-592.982	123.249	0.098	0.126
-591.967	56.915	-0.261	0.261
-590.952	-179.518	0.032	-0.001
-589.938	21.734	-0.274	0.228
-588.923	800.000	0.076	0.310
-587.909	367.632	0.118	0.245
-586.894	-113.778	-0.143	0.028
-585.879	-200.000	-0.039	0.236
-584.865	-200.000	0.023	0.171
-583.850	-33.901	0.073	0.041
-582.836	800.000	0.073	0.209
-581.821	-200.000	0.016	0.172
-580.806	441.367	-0.062	-0.138
-579.792	226.309	0.105	0.174
-578.777	-34.679	-0.066	-0.037
-577.763	-200.000	0.021	0.099
-576.748	-123.867	-0.240	0.039
-575.733	634.132	0.075	-0.196
-574.719	-109.367	-0.277	0.060
-573.704	615.335	-0.077	0.198
-572.690	369.330	0.084	-0.174
-571.675	329.039	-0.041	0.081
-570.661	42.551	-0.270	0.251
-569.646	-72.630	-0.282	0.107
-568.631	33.728	0.297	0.265
-567.617	14.621	0.034	0.027
-566.602	800.000	-0.051	-0.192
-565.588	-200.000	0.076	0.351
-564.573	116.357	0.095	-0.120
-563.558	245.528	-0.086	-0.148
-562.544	-101.340	0.085	-0.021
-561.529	4.580	0.162	-0.122
-560.515	-89.057	0.453	0.137
-559.500	-200.000	0.187	-0.000
-558.485	-200.000	0.021	-0.192
-557.471	-149.011	-0.331	-0.027
-556.456	184.006	0.157	0.238
-555.442	-60.000	0.097	0.043
-554.427	800.000	-0.008	-0.033
-553.412	120.638	0.166	-0.212
-552.398	-22.902	0.181	-0.112
-551.383	-122.199	-0.280	-0.047
-550.369	800.000	0.050	-0.154
-549.354	-132.494	0.064	-0.008
-548.339	501.437	0.094	0.222
-547.325	303.504	0.025	-0.047
-546.310	-75.233	0.157	-0.057
-545.296	-200.000	-0.043	-0.309
-544.281	-126.441	-0.311	-0.047
-543.266	-200.000	-0.008	0.456
-542.252	-18.236	0.210	-0.135
-541.237	-71.362	-0.063	0.024
-540.223	-49.442	-0.268	-0.131
-539.208	503.587	0.070	-0.165
-538.193	-112.574	0.424	0.086
-537.179	195.356	-0.209	-0.324
-536.164	-119.875	-0.104	0.018
-535.150	-168.368	0.109	0.004
-534.135	157.242	0.119	-0.169
-533.121	187.170	-0.107	-0.163
-532.106	63.265	0.021	0.021
-531.091	-6.942	0.129	0.090
-530.077	-113.175	-0.117	-0.024
-529.062	800.000	-0.044	0.157
-528.048	315.830	0.019	0.037
-527.033	484.577	-0.054	0.126
-526.018	182.428	0.076	-0.114
-525.004	47.906	-0.159	-0.152
-523.989	-137.001	0.042	0.005
-522.975	800.000	0.030	0.116
-521.960	359.793	-0.134	0.275
-520.945	-35.235	-0.055	-0.030
-519.931	186.259	-0.039	-0.059
-518.916	0.148	-0.039	-0.028
-517.902	-92.221	-0.238	-0.069
-516.887	-200.000	-0.036	-0.300
-515.872	-200.000	-0.022	0.108
-514.858	200.254	-0.164	-0.257
-513.843	183.150	0.091	0.138
-512.829	-43.391	-0.372	0.192
-511.814	121.649	0.196	0.250
-510.799	160.473	0.065	0.093
-509.785	234.462	-0.059	-0.100
-508.770	198.803	0.197	0.307
-507.756	-83.250	-0.170	-0.056
-506.741	-200.000	-0.024	-0.137
-505.726	800.000	0.065	-0.205
-504.712	-200.000	0.006	0.081
-503.697	-27.175	-0.042	0.025
-502.683	-113.564	-0.172	-0.034
-501.668	-165.376	0.135	-0.006
-500.653	-83.645	0.215	-0.070
-499.639	-200.000	0.012	-0.096
-498.624	-200.000	-0.081	-0.467
-497.610	-99.107	-0.329	0.085
-496.595	-173.590	0.426	-0.013
-495.581	800.000	-0.137	-0.571
-494.566	-200.000	0.016	0.300
-493.551	800.000	0.054	-0.169
-492.537	163.699	0.076	0.108
-491.522	123.702	0.024	0.031
-490.508	24.556	-0.203	-0.171
-489.493	509.832	0.081	0.192
-488.478	-30.059	-0.175	0.102
-487.464	-200.000	0.004	0.277
-486.449	800.000	0.066	0.197
-485.435	-200.000	-0.001	-0.191
-484.420	-34.360	-0.185	-0.104
-483.405	72.599	0.067	-0.071
-482.391	53.470	-0.205	-0.201
-481.376	-200.000	-0.032	-0.177
-480.362	800.000	-0.073	0.226
-479.347	-183.902	-0.334	-0.006
-478.332	-117.300	-0.082	0.015
-477.318	-141.180	-0.010	-0.001
-476.303	-100.164	-0.152	0.039
-475.289	-200.000	0.018	0.264
-474.274	14.162	0.197	-0.156
-473.259	109.519	-0.069	0.084
-472.245	191.367	-0.107	-0.164
-471.230	-171.052	0.211	0.007
-470.216	-157.957	0.091	0.005
-469.201	573.865	-0.114	-0.283
-468.186	-116.974	-0.323	-0.060
-467.172	113.478	0.058	-0.072
-466.157	48.044	0.106	0.102
-465.143	285.981	0.084	-0.154
-464.128	66.307	-0.155	-0.161
-463.113	-82.284	0.145	0.048
-462.099	-21.567	-0.234	0.146
-461.084	-69.970	-0.050	0.020
-460.070	2.236	0.175	-0.129
-459.055	-184.578	-0.011	0.000
-458.040	59.392	-0.113	-0.114
-457.026	-46.112	-0.149	-0.075
-456.011	61.471	0.111	-0.112
-454.997	-97.649	-0.290	-0.077
-453.982	-88.593	-0.042	-0.013
-452.968	-24.847	0.272	0.165
-451.953	-200.000	0.013	-0.114
-450.938	-91.008	0.273	-0.080
-449.924	-144.372	-0.053	0.005
-448.909	-43.426	-0.170	-0.087
-447.895	81.676	0.057	0.063
-446.880	472.627	-0.148	0.340
-445.865	-28.442	0.371	0.218
-444.851	-200.000	0.013	0.246
-443.836	-10.434	-0.234	-0.158
-442.822	800.000	-0.043	0.151
-441.807	-200.000	0.093	-0.445
-440.792	-106.965	0.081	-0.018
-439.778	-200.000	-0.001	-0.559
-438.763	-200.000	0.006	0.038
-437.749	-72.740	0.173	-0.065
-436.734	-102.688	0.113	-0.027
-435.719	187.852	0.046	-0.070
-434.705	800.000	-0.047	0.187
-433.690	61.290	0.077	-0.078
-432.676	-181.682	0.209	-0.004
-431.661	54.307	-0.049	0.048
-430.646	265.271	-0.032	0.057
-429.632	-118.754	-0.328	0.059
-428.617	393.850	-0.113	0.239
-427.603	-13.823	-0.084	-0.055
-426.588	-150.253	-0.263	-0.021
-425.573	-70.030	0.027	-0.011
-424.559	85.785	-0.146	-0.163
-423.544	45.405	0.102	-0.096
-422.530	-97.083	0.096	-0.026
-421.515	-200.000	0.022	0.125
-420.500	-17.443	-0.103	-0.066
-419.486	217.544	0.038	-0.062
-418.471	-72.556	-0.159	-0.060
-417.457	-92.393	0.246	0.071
-416.442	-200.000	0.007	-0.253
-415.428	6.977	-0.239	-0.181
-414.413	-116.829	0.177	0.033
-413.398	-200.000	0.044	-0.213
-412.384	-86.162	0.285	0.089
-411.369	-200.000	-0.033	0.278
-410.355	-96.585	0.154	0.041
-409.340	56.437	-0.228	0.226
-408.325	-96.417	0.055	0.015
-407.311	-200.000	-0.008	0.129
-406.296	-145.188	0.318	-0.029
-405.282	-139.067	0.171	0.019
-404.267	-147.144	0.418	0.036
-403.252	-127.239	0.142	0.021
-402.238	-167.882	-0.181	-0.007
-401.223	6.188	-0.201	0.152
-400.209	245.097	-0.138	0.235
-399.194	-135.267	0.247	-0.030
-398.179	-200.000	-0.036	-0.369
-397.165	-61.641	-0.120	-0.051
-396.150	-105.152	-0.320	-0.074
-395.136	800.000	0.082	-0.358
-394.121	-4.821	-0.403	-0.283
-393.106	-140.668	0.104	-0.011
-392.092	344.245	0.019	-0.038
-391.077	421.089	0.113	0.245
-390.063	-135.327	0.114	-0.014
-389.048	-130.927	0.314	0.043
-388.033	-200.000	-0.031	-0.185
-387.019	800.000	-0.051	0.163
-386.004	-70.184	0.178	0.069
-384.990	-105.323	0.134	-0.031
-383.975	800.000	0.048	0.183
-382.960	-143.529	-0.165	-0.016
-381.946	-30.457	0.346	0.199
-380.931	424.136	-0.110	0.241
-379.917	-40.451	-0.157	-0.083
-378.902	800.000	-0.040	-0.125
-377.888	78.453	0.191	0.207
-376.873	90.674	-0.108	0.123
-375.858	6.800	0.189	0.143
-374.844	-142.757	0.048	-0.005
-373.829	-200.000	-0.046	0.306
-372.815	624.544	-0.114	-0.291
-371.800	-28.490	0.072	-0.042
-370.785	800.000	-0.011	-0.033
-369.771	-100.584	-0.464	-0.116
-368.756	-80.055	0.348	0.119
-367.742	66.320	-0.060	0.062
-366.727	-21.307	-0.053	0.033
-365.712	-200.000	0.005	-0.029
-364.698	138.084	-0.173	0.231
-363.683	261.541	-0.118	-0.207
-362.669	-94.108	0.480	-0.134
-361.654	-122.831	0.137	-0.022
-360.639	473.377	0.071	-0.163
-359.625	-200.000	0.071	-0.344
-358.610	358.941	-0.095	-0.194
-357.596	71.678	-0.147	0.155
-356.581	93.570	-0.090	0.103
-355.566	345.675	0.056	-0.112
-354.552	-6.194	0.308	0.213
-353.537	259.008	-0.067	0.117
-352.523	99.258	0.157	0.185
-351.508	182.602	-0.164	0.245
-350.493	-200.000	-0.025	-0.156
-349.479	-200.000	0.011	-0.091
-348.464	-154.837	0.415	0.028
-347.450	-149.690	0.257	-0.021
-346.435	232.865	-0.054	-0.090
-345.420	154.400	-0.185	-0.258
-344.406	-5.506	0.087	-0.061
-343.391	5.915	0.069	0.052
-342.377	-156.411	-0.283	0.018
-341.362	72.881	0.041	0.043
-340.348	800.000	0.151	0.546
-339.333	-43.570	-0.266	-0.136
-338.318	-19.331	0.165	-0.104
-337.304	-145.157	-0.045	0.004
-336.289	-25.514	-0.180	-0.108
-335.275	211.521	-0.082	-0.131
-334.260	-17.810	0.235	-0.150
-333.245	-200.000	0.006	0.072
-332.231	-60.130	0.114	0.049
-331.216	89.042	-0.263	0.297
-330.202	95.521	-0.073	0.085
-329.187	630.809	0.180	0.463
-328.172	50.658	0.325	0.312
-327.158	78.050	0.223	0.242
-326.143	-36.885	0.318	-0.173
-325.129	-61.121	-0.219	0.094
-324.114	135.975	-0.035	0.047
-323.099	-86.063	0.190	-0.060
-322.085	378.832	-0.076	-0.159
-321.070	75.016	-0.070	-0.075
-320.056	8.137	-0.336	-0.255
-319.041	745.638	0.146	-0.399
-318.026	-200.000	0.003	0.100
-317.012	-49.771	-0.272	-0.131
-315.997	-200.000	0.046	0.215
-314.983	38.421	-0.124	-0.112
-313.968	800.000	0.072	0.209
-312.953	606.224	0.055	0.139
-311.939	-157.950	0.250	-0.015
-310.924	54.892	-0.229	0.224
-309.910	-200.000	-0.006	0.236
-308.895	800.000	0.058	-0.213
-307.880	800.000	-0.034	-0.122
-306.866	231.904	-0.108	-0.180
-305.851	800.000	0.031	-0.089
-304.837	-18.725	-0.218	0.138
-303.822	800.000	0.039	-0.145
-302.807	227.756	-0.064	-0.105
-301.793	-35.097	0.225	0.124
-300.778	-200.000	-0.049	0.376
-299.764	-3.263	-0.152	0.107
-298.749	-22.698	-0.309	-0.189
-297.735	230.419	-0.012	-0.019
-296.720	549.424	0.018	0.043
-295.705	-92.532	0.062	-0.018
-294.691	-147.318	0.425	-0.037
-293.676	-44.644	0.127	-0.064
-292.662	-29.033	0.048	-0.028
-291.647	-118.234	-0.131	0.024
-290.632	147.181	-0.160	-0.218
-289.618	800.000	0.102	-0.290
-288.603	115.887	0.023	-0.028
-287.589	275.114	0.133	0.239
-286.574	624.557	0.118	0.301
-285.559	82.209	-0.115	-0.127
-284.545	-200.000	0.007	-0.333
-283.530	62.245	0.202	-0.204
-282.516	800.000	0.111	-0.394
-281.501	136.579	0.140	-0.185
-280.486	111.210	-0.027	-0.033
-279.472	-98.906	-0.271	-0.070
-278.457	800.000	0.070	-0.214
-277.443	618.409	0.096	0.244
-276.428	-164.690	-0.084	-0.004
-275.413	148.019	-0.273	0.373
-274.399	-116.044	0.233	0.044
-273.384	-70.144	-0.053	-0.020
-272.370	-139.265	-0.246	-0.027
-271.355	-130.768	0.105	0.014
-270.340	78.629	0.107	0.116
-269.326	202.287	-0.084	-0.131
-268.311	-114.096	0.198	0.039
-267.297	11.696	0.113	-0.087
-266.282	85.437	-0.269	0.299
-265.267	446.600	-0.091	-0.202
-264.253	658.462	0.037	0.095
-263.238	-23.050	-0.269	-0.164
-262.224	-200.000	0.007	0.107
-261.209	800.000	-0.110	0.306
-260.195	-82.093	-0.294	-0.097
-259.180	-95.987	0.151	0.041
-258.165	-152.260	-0.018	-0.001
-257.151	-38.671	-0.114	-0.061
-256.136	-118.372	0.267	0.048
-255.122	383.398	-0.091	0.190
-254.107	424.089	-0.092	0.200
-253.092	-200.000	-0.059	0.371
-252.078	-39.816	0.208	0.110
-251.063	-187.845	0.303	-0.004
-250.049	421.359	0.123	0.266
-249.034	-200.000	-0.046	0.416
-248.019	-200.000	0.021	0.313
-247.005	-159.861	-0.075	0.004
-245.990	1.952	0.305	-0.223
-244.976	-200.000	-0.005	-0.028
-243.961	432.148	-0.097	-0.213
-242.946	-68.621	-0.107	0.042
-241.932	-200.000	0.014	0.402
-240.917	800.000	-0.057	0.213
-239.903	-81.673	-0.116	0.039
-238.888	800.000	-0.030	-0.089
-237.873	-98.065	-0.147	-0.038
-236.859	-2.419	0.177	-0.126
-235.844	-200.000	0.031	0.401
-234.830	-200.000	-0.014	0.082
-233.815	800.000	0.138	-0.425
-232.800	758.614	0.022	-0.061
-231.786	39.455	-0.278	-0.252
-230.771	338.168	-0.158	0.310
-229.757	-104.425	0.380	0.089
-228.742	-58.799	0.242	0.106
-227.727	-55.470	-0.246	-0.111
-226.713	426.431	0.121	0.263
-225.698	110.236	-0.041	0.050
-224.684	800.000	-0.062	0.182
-223.669	200.229	0.131	-0.203
-222.655	-24.293	0.195	0.117
-221.640	45.140	-0.062	0.058
-220.625	511.519	-0.068	0.160
-219.611	-19.880	0.173	-0.108
-218.596	-200.000	0.050	0.401
-217.582	-200.000	-0.029	-0.184
-216.567	-200.000	-0.046	0.228
-215.552	2.097	0.061	-0.045
-214.538	122.097	0.096	0.121
-213.523	173.418	-0.161	-0.234
-212.509	484.442	0.090	0.208
-211.494	-109.159	-0.091	0.019
-210.479	-200.000	0.019	-0.221
-209.465	-22.476	-0.312	-0.191
-208.450	-68.085	0.178	-0.070
-207.436	800.000	0.120	0.444
-206.421	-200.000	0.014	-0.319
-205.406	-200.000	0.041	-0.253
-204.392	-200.000	0.009	-0.225
-203.377	-163.261	0.186	-0.009
-202.363	-131.742	0.119	-0.016
-201.348	403.917	0.071	-0.152
-200.333	602.815	-0.060	0.150
-199.319	800.000	-0.042	0.156
-198.304	-69.042	-0.044	0.017
-197.290	-200.000	0.005	-0.181
-196.275	-200.000	0.006	-0.187
-195.260	800.000	0.058	0.195
-194.246	431.288	-0.073	0.159
-193.231	-31.078	0.023	-0.013
-192.217	-200.000	0.017	0.136
-191.202	145.257	0.138	0.186
-190.187	-115.808	0.268	-0.051
-189.173	96.563	-0.086	0.099
-188.158	-200.000	0.002	-0.256
-187.144	-200.000	0.025	0.167
-186.129	-200.000	-0.069	-0.315
-185.114	-22.391	0.370	0.226
-184.100	-17.250	-0.191	0.121
-183.085	68.333	0.086	0.089
-182.071	-17.580	-0.114	-0.072
-181.056	-200.000	-0.008	-0.068
-180.042	800.000	-0.078	0.279
-179.027	298.746	-0.165	0.305
-178.012	41.150	0.256	-0.234
-176.998	97.700	0.116	0.134
-175.983	-5.004	-0.117	0.081
-174.969	800.000	-0.032	0.128
-173.954	-200.000	0.049	-0.234
-172.939	290.411	-0.035	0.065
-171.925	658.275	-0.080	-0.208
-170.910	17.967	0.116	0.093
-169.896	800.000	0.071	-0.240
-168.881	131.756	0.151	-0.196
-167.866	-200.000	0.107	0.504
-166.852	509.718	0.081	0.191
-165.837	-114.852	-0.139	-0.027
-164.823	800.000	-0.097	-0.334
-163.808	211.979	0.112	0.177
-162.793	346.472	0.130	0.258
-161.779	-185.209	0.332	0.005
-160.764	59.328	0.194	0.192
-159.750	800.000	0.065	0.236
-158.735	92.088	0.022	-0.025
-157.720	-119.481	0.215	0.037
-156.706	594.355	-0.106	-0.264
-155.691	-79.570	0.265	0.090
-154.677	208.336	0.139	0.219
-153.662	800.000	-0.079	-0.329
-152.647	338.992	0.056	0.111
-151.633	598.911	-0.071	-0.177
-150.618	431.717	0.074	0.162
-149.604	-135.312	-0.265	0.032
-148.589	302.816	0.082	0.154
-147.574	256.337	0.178	-0.307
-146.560	-47.221	0.196	0.096
-145.545	-200.000	0.028	-0.246
-144.531	722.150	0.117	-0.312
-143.516	800.000	-0.096	0.311
-142.502	-56.670	-0.153	-0.068
-141.487	-200.000	-0.007	0.146
-140.472	-172.415	-0.189	-0.006
-139.458	-200.000	-0.049	0.287
-138.443	-104.101	-0.112	0.026
-137.429	251.902	0.121	-0.207
-136.414	800.000	-0.062	-0.229
-135.399	33.912	-0.143	0.126
-134.385	-141.679	0.290	0.029
-133.370	67.547	0.166	0.171
-132.356	-80.860	0.345	0.115
-131.341	459.840	-0.157	-0.351
-130.326	180.878	0.095	-0.141
-129.312	800.000	-0.046	0.199
-128.297	-200.000	-0.019	-0.165
-127.283	-151.374	0.265	0.020
-126.268	-101.440	0.515	0.126
-125.253	533.738	0.114	-0.271
-124.239	-13.797	-0.144	-0.093
-123.224	-49.991	-0.225	0.107
-122.210	-200.000	0.031	-0.194
-121.195	23.685	-0.107	0.089
-120.180	428.712	-0.072	-0.156
-119.166	6.159	-0.327	-0.244
-118.151	-200.000	0.031	-0.176
-117.137	-138.396	0.188	0.021
-116.122	-12.645	-0.210	0.138
-115.107	-200.000	0.008	0.048
-114.093	222.559	0.087	-0.141
-113.078	236.227	-0.052	0.086
-112.064	-27.296	-0.257	-0.151
-111.049	57.578	0.293	-0.288
-110.034	-65.642	-0.068	0.027
-109.020	740.066	0.140	0.378
-108.005	244.027	-0.124	-0.210
-106.991	26.434	-0.273	-0.230
-105.976	-200.000	0.039	0.320
-104.962	-200.000	0.045	-0.244
-103.947	467.194	-0.045	-0.102
-102.932	-49.062	-0.089	-0.043
-101.918	-53.386	0.230	0.106
-100.903	-106.312	0.415	0.093
-99.889	-169.772	0.050	0.002
-98.874	733.293	0.090	0.243
-97.859	-139.288	0.066	0.007
-96.845	517.408	-0.046	-0.109
-95.830	521.826	-0.062	-0.145
-94.816	-188.267	-0.244	-0.003
-93.801	70.777	0.256	-0.266
-92.786	-81.900	-0.269	0.088
-91.772	10.961	0.314	0.241
-90.757	-200.000	0.004	0.087
-89.743	-82.915	0.296	0.096
-88.728	-108.457	0.090	0.019
-87.713	-90.667	-0.167	0.048
-86.699	-71.279	-0.092	-0.035
-85.684	489.005	-0.030	-0.068
-84.670	192.002	0.096	0.145
-83.655	-88.584	-0.038	-0.011
-82.640	236.615	-0.083	0.137
-81.626	34.080	0.112	0.098
-80.611	-87.964	0.236	-0.071
-79.597	-200.000	-0.034	-0.176
-78.582	-163.907	-0.512	0.024
-77.567	-200.000	-0.038	-0.171
-76.553	800.000	-0.137	-0.394
-75.538	800.000	-0.111	-0.339
-74.524	-200.000	-0.044	0.464
-73.509	-91.517	0.353	-0.101
-72.494	800.000	-0.004	0.010
-71.480	-200.000	0.016	-0.127
-70.465	-116.688	-0.463	0.085
-69.451	-151.838	-0.062	-0.005
-68.436	443.292	0.218	0.480
-67.422	-167.812	0.085	-0.003
-66.407	147.412	-0.073	0.098
-65.392	-200.000	0.005	0.211
-64.378	-18.017	0.067	-0.042
-63.363	-63.444	-0.182	0.075
-62.349	516.652	0.147	0.346
-61.334	57.610	-0.745	-0.731
-60.319	659.394	0.054	0.140
-59.305	-200.000	-0.128	-0.752
-58.290	192.965	0.351	0.532
-57.276	800.000	0.335	1.206
-56.261	-200.000	72.106	527.779
-55.246	589.958	1278.145	3163.028
-54.232	144.958	2501.615	3357.230
-53.217	112.377	2367.455	2873.870
-52.203	51.103	2106.219	2004.650
-51.188	45.735	2012.510	1866.669
-50.173	43.840	1994.023	1832.329
-49.159	55.583	2028.586	1971.217
-48.144	61.343	2049.592	2043.994
-47.130	46.337	2015.324	1874.479
-46.115	43.647	2003.794	1839.255
-45.100	43.556	2000.839	1835.647
-44.086	43.488	1999.157	1833.410
-43.071	43.432	1996.530	1830.422
-42.057	43.298	1994.861	1827.610
-41.042	43.397	1992.773	1826.522
-40.027	43.453	1990.599	1824.959
-39.013	43.451	1989.018	1823.418
-37.998	43.472	1986.221	1820.976
-36.984	43.379	1985.533	1819.433
-35.969	43.498	1982.995	1818.105
-34.954	43.528	1981.591	1817.015
-33.940	43.511	1980.214	1815.532
-32.925	43.551	1978.447	1814.198
-31.911	43.485	1976.840	1812.055
-30.896	43.519	1974.798	1810.418
-29.881	43.561	1973.109	1809.174
-28.867	43.613	1971.719	1808.291
-27.852	43.591	1969.641	1806.121
-26.838	43.554	1968.045	1804.256
-25.823	43.578	1966.056	1802.568
-24.809	43.539	1964.259	1800.505
-23.794	43.577	1962.852	1799.479
-22.779	43.578	1960.786	1797.523
-21.765	43.467	1959.582	1795.365
-20.750	43.441	1958.218	1793.815
-19.736	43.494	1956.287	1792.445
-18.721	43.456	1955.305	1791.136
-17.706	43.556	1953.311	1790.124
-16.692	43.611	1950.866	1788.299
-15.677	43.550	1949.842	1786.749
-14.663	43.524	1948.539	1785.256
-13.648	43.583	1946.909	1784.209
-12.633	43.543	1946.025	1782.973
-11.619	43.467	1944.684	1781.003
-10.604	43.451	1943.172	1779.411
-9.590	43.497	1941.624	1778.324
-8.575	43.458	1940.568	1776.950
-7.560	43.534	1938.975	1776.089
-6.546	43.589	1937.555	1775.197
-5.531	43.586	1935.811	1773.501
-4.517	43.495	1935.336	1772.196
-3.502	43.460	1934.488	1771.044
-2.487	43.487	1932.686	1769.565
-1.473	43.493	1931.831	1768.760
-0.458	43.719	1927.299	1766.517
0.556	43.066	1909.129	1743.467
1.571	39.015	1889.813	1690.887
2.586	34.458	1909.884	1668.925
3.600	32.918	1945.896	1686.501
4.615	31.787	1943.332	1674.027
5.629	23.959	1836.571	1515.533
6.644	9.558	1702.638	1290.305
7.659	1.825	1655.886	1194.337
8.673	1.270	1651.096	1186.431
9.688	1.127	1649.538	1184.097
10.702	1.052	1648.339	1182.546
11.717	0.921	1645.938	1179.694
12.731	1.298	1645.863	1182.475
13.746	9.295	1665.299	1259.171
14.761	20.686	1690.342	1368.067
15.775	24.910	1696.504	1406.183
16.790	24.881	1696.103	1405.500
17.804	25.000	1695.290	1405.639
18.819	25.005	1694.059	1404.534
19.834	25.057	1694.029	1404.792
20.848	25.280	1693.536	1406.006
21.863	25.400	1691.984	1405.526
22.877	25.242	1691.542	1403.801
23.892	25.301	1690.450	1403.230
24.907	25.296	1689.382	1402.180
25.921	25.302	1688.087	1401.029
26.936	25.234	1687.866	1400.188
27.950	25.353	1686.218	1399.630
28.965	25.360	1685.469	1398.941
29.980	25.386	1684.487	1398.205
30.994	25.330	1683.790	1397.066
32.009	25.320	1682.405	1395.710
33.023	25.371	1681.702	1395.406
34.038	25.288	1680.711	1393.811
35.053	25.321	1679.938	1393.306
36.067	25.368	1678.520	1392.371
37.082	25.298	1677.675	1391.003
38.096	25.410	1676.606	1390.862
39.111	25.318	1676.497	1389.931
40.126	25.271	1675.577	1388.684
41.140	25.184	1674.869	1387.306
42.155	25.296	1673.640	1387.027
43.169	25.299	1672.593	1386.062
44.184	25.231	1671.708	1384.682
45.199	25.348	1670.450	1384.420
46.213	25.342	1669.045	1383.086
47.228	25.330	1667.858	1381.884
48.242	25.376	1666.285	1380.813
49.257	25.341	1665.187	1379.517
50.271	25.298	1664.624	1378.596
51.286	25.322	1663.381	1377.626
52.301	25.378	1661.939	1376.739
53.315	25.328	1660.492	1375.036
54.330	25.337	1659.257	1373.959
55.344	25.221	1658.761	1372.541
56.359	25.234	1656.812	1370.903
57.374	25.297	1656.149	1370.719
58.388	25.366	1655.055	1370.220
59.403	25.391	1653.406	1368.919
60.417	25.302	1652.617	1367.472
61.432	25.380	1651.498	1367.015
62.447	25.347	1650.134	1365.515
63.461	25.235	1649.678	1364.166
64.476	25.397	1648.161	1364.022
65.490	25.339	1647.497	1362.912
66.505	25.345	1646.351	1361.887
67.520	25.352	1645.594	1361.190
68.534	25.384	1644.584	1360.480
69.549	25.412	1643.460	1359.639
70.563	25.335	1642.085	1357.801
71.578	25.416	1640.975	1357.376
72.593	25.276	1640.465	1355.777
73.607	25.400	1639.512	1355.802
74.622	25.365	1638.585	1354.650
75.636	25.374	1637.636	1353.815
76.651	25.394	1636.601	1352.996
77.666	25.379	1635.721	1352.033
78.680	25.431	1634.615	1351.387
79.695	25.353	1633.959	1350.145
80.709	25.379	1633.324	1349.696
81.724	25.406	1632.372	1348.991
82.739	25.413	1631.777	1348.427
83.753	25.329	1630.929	1346.981
84.768	25.376	1629.430	1345.973
85.782	25.330	1628.862	1345.041
86.797	25.405	1627.682	1344.510
87.812	25.308	1626.984	1343.090
88.826	25.378	1625.970	1342.659
89.841	25.343	1625.328	1341.750
90.855	25.344	1624.114	1340.635
91.870	25.342	1623.079	1339.646
92.884	25.434	1621.394	1338.820
93.899	25.461	1620.947	1338.531
94.914	25.438	1619.803	1337.297
95.928	25.415	1619.057	1336.392
96.943	25.415	1617.536	1335.024
97.957	25.408	1616.297	1333.829
98.972	25.434	1615.129	1332.938
99.987	25.403	1613.681	1331.397
101.001	25.412	1612.168	1330.098
102.016	25.420	1610.667	1328.803
103.030	25.363	1609.665	1327.433
104.045	25.412	1608.584	1326.789
105.060	25.414	1607.111	1325.468
106.074	25.342	1606.814	1324.576
107.089	25.406	1605.015	1323.446
108.103	25.468	1603.587	1322.614
109.118	25.416	1602.247	1321.004
110.133	25.397	1601.407	1320.057
111.147	25.428	1600.118	1319.104
112.162	25.422	1598.968	1317.995
113.176	25.473	1597.475	1317.020
114.191	25.417	1596.836	1315.968
115.206	25.462	1595.803	1315.330
116.220	25.549	1594.368	1314.666
117.235	25.447	1593.036	1312.706
118.249	25.457	1592.312	1312.072
119.264	25.392	1591.229	1310.584
120.279	25.465	1589.939	1309.942
121.293	25.452	1588.457	1308.505
122.308	25.469	1587.738	1307.923
123.322	25.541	1586.132	1307.007
124.337	25.551	1585.165	1306.172
125.352	25.513	1583.683	1304.554
126.366	25.511	1583.137	1303.975
127.381	25.521	1582.598	1303.492
128.395	25.519	1581.841	1302.736
129.410	25.540	1580.505	1301.674
130.424	25.521	1579.558	1300.642
131.439	25.570	1577.915	1299.524
132.454	25.567	1576.571	1298.279
133.468	25.519	1575.584	1297.010
134.483	25.565	1574.324	1296.188
135.497	25.529	1573.142	1294.841
136.512	25.546	1572.352	1294.198
137.527	25.503	1571.044	1292.699
138.541	25.671	1569.626	1292.623
139.556	25.603	1568.944	1291.462
140.570	25.587	1567.541	1290.080
141.585	25.611	1565.819	1288.713
142.600	25.587	1564.758	1287.557
143.614	25.620	1563.995	1287.054
144.629	25.652	1562.766	1286.156
145.643	25.553	1562.027	1284.729
146.658	25.532	1560.460	1283.177
147.673	25.461	1559.185	1281.502
148.687	25.563	1557.815	1280.991
149.702	25.574	1556.701	1280.038
150.716	25.596	1555.504	1279.104
151.731	25.418	1555.102	1277.389
152.746	25.507	1553.836	1276.873
153.760	25.513	1552.366	1275.590
154.775	25.511	1551.438	1274.700
155.789	25.557	1550.685	1274.300
156.804	25.636	1549.457	1273.736
157.819	25.544	1548.486	1272.174
158.833	25.500	1547.417	1270.869
159.848	25.589	1546.157	1270.351
160.862	25.615	1545.362	1269.773
161.877	25.610	1544.107	1268.594
162.892	25.543	1543.827	1267.780
163.906	25.584	1542.619	1266.960
164.921	25.703	1540.931	1266.303
165.935	25.615	1540.558	1265.266
166.950	25.720	1539.574	1265.078
167.964	25.659	1538.556	1263.706
168.979	25.704	1537.420	1262.972
169.994	25.663	1536.736	1262.017
171.008	25.576	1536.316	1260.948
172.023	25.617	1535.395	1260.367
173.037	25.677	1534.247	1259.736
174.052	25.641	1533.230	1258.536
175.067	25.676	1531.792	1257.490
176.081	25.654	1531.208	1256.743
177.096	25.716	1530.172	1256.213
178.110	25.677	1528.866	1254.759
179.125	25.636	1528.217	1253.830
180.140	25.638	1527.089	1252.808
181.154	25.764	1526.168	1252.818
182.169	25.787	1525.223	1252.091
183.183	25.671	1524.286	1250.402
184.198	25.738	1523.351	1249.992
185.213	25.727	1522.788	1249.343
186.227	25.704	1521.850	1248.304
187.242	25.770	1521.023	1247.976
188.256	25.748	1520.352	1247.156
189.271	25.664	1519.598	1245.846
190.286	25.808	1518.384	1245.741
191.300	25.790	1517.914	1245.117
192.315	25.690	1516.954	1243.530
193.329	25.709	1515.751	1242.562
194.344	25.741	1514.781	1241.882
195.359	25.711	1514.008	1240.933
196.373	25.715	1513.554	1240.477
197.388	25.769	1512.802	1240.123
198.402	25.704	1510.862	1237.972
199.417	25.693	1510.074	1237.146
200.432	25.613	1509.929	1236.369
201.446	25.698	1509.268	1236.301
202.461	25.728	1508.253	1235.566
203.475	25.701	1507.089	1234.316
204.490	25.774	1505.810	1233.658
205.504	25.808	1505.553	1233.575
206.519	25.681	1504.696	1231.891
207.534	25.789	1503.590	1231.619
208.548	25.844	1502.865	1231.289
209.563	25.840	1501.725	1230.219
210.577	25.751	1501.168	1229.047
211.592	25.798	1500.367	1228.604
212.607	25.855	1499.882	1228.484
213.621	25.768	1499.627	1227.572
214.636	25.861	1498.725	1227.358
215.650	25.893	1497.422	1226.405
216.665	25.941	1496.656	1225.992
217.680	25.933	1495.452	1224.843
218.694	25.838	1495.126	1223.821
219.709	25.853	1494.484	1223.289
220.723	25.959	1493.251	1222.894
221.738	25.933	1492.786	1222.230
222.753	25.817	1492.001	1220.689
223.767	25.792	1491.342	1219.876
224.782	25.894	1489.686	1219.099
225.796	25.923	1489.100	1218.710
226.811	25.869	1488.308	1217.592
227.826	25.951	1487.719	1217.557
228.840	25.879	1487.467	1216.757
229.855	25.879	1486.401	1215.776
230.869	25.883	1485.666	1215.090
231.884	25.956	1484.107	1214.199
232.899	25.969	1483.309	1213.532
233.913	25.991	1482.188	1212.654
234.928	25.940	1481.045	1211.270
235.942	26.024	1480.475	1211.261
236.957	26.030	1479.325	1210.253
237.972	25.985	1478.571	1209.226
238.986	26.043	1477.124	1208.320
240.001	25.946	1476.598	1207.138
241.015	26.003	1475.714	1206.690
242.030	26.086	1474.599	1206.222
243.045	26.155	1473.269	1205.489
244.059	26.122	1472.587	1204.604
245.074	26.098	1471.662	1203.582
246.088	26.161	1471.177	1203.500
247.103	26.101	1470.806	1202.687
248.117	26.200	1469.872	1202.475
249.132	26.092	1469.164	1201.073
250.147	26.192	1468.223	1200.864
251.161	26.238	1467.490	1200.460
252.176	26.193	1466.757	1199.456
253.190	26.169	1466.584	1199.051
254.205	26.253	1465.420	1198.551
255.220	26.225	1464.314	1197.356
256.234	26.301	1463.297	1196.920
257.249	26.205	1462.765	1195.746
258.263	26.301	1462.015	1195.658
259.278	26.286	1461.218	1194.803
260.293	26.283	1460.519	1194.105
261.307	26.224	1460.058	1193.232
262.322	26.216	1459.261	1192.424
263.336	26.269	1458.052	1191.682
264.351	26.370	1457.073	1191.441
265.366	26.294	1456.675	1190.509
266.380	26.346	1455.796	1190.024
267.395	26.307	1454.520	1188.620
268.409	26.424	1453.519	1188.468
269.424	26.320	1453.015	1187.266
270.439	26.248	1452.484	1186.259
271.453	26.360	1451.282	1185.907
272.468	26.366	1450.245	1184.990
273.482	26.378	1449.711	1184.531
274.497	26.304	1449.089	1183.432
275.512	26.305	1448.336	1182.715
276.526	26.312	1447.934	1182.329
277.541	26.435	1446.852	1182.146
278.555	26.389	1445.625	1180.736
279.570	26.368	1445.095	1180.066
280.585	26.505	1444.275	1180.187
281.599	26.426	1443.370	1178.823
282.614	26.471	1442.273	1178.121
283.628	26.385	1441.482	1176.810
284.643	26.388	1440.653	1176.046
285.657	26.455	1439.915	1175.774
286.672	26.445	1438.893	1174.772
287.687	26.415	1437.779	1173.567
288.701	26.504	1436.852	1173.282
289.716	26.512	1436.087	1172.605
290.730	26.532	1435.762	1172.365
291.745	26.536	1434.888	1171.576
292.760	26.531	1434.148	1170.831
293.774	26.481	1433.232	1169.661
294.789	26.524	1432.138	1168.937
295.803	26.563	1431.522	1168.587
296.818	26.638	1430.912	1168.467
297.833	26.592	1429.548	1166.955
298.847	26.609	1428.552	1166.144
299.862	26.539	1428.227	1165.330
300.876	26.703	1427.162	1165.408
301.891	26.637	1426.642	1164.457
302.906	26.592	1425.792	1163.372
303.920	26.714	1425.523	1163.834
304.935	26.629	1425.231	1162.949
305.949	26.704	1423.902	1162.237
306.964	26.646	1423.287	1161.263
307.979	26.670	1421.936	1160.214
308.993	26.712	1421.438	1159.972
310.008	26.712	1420.617	1159.200
311.022	26.720	1419.586	1158.305
312.037	26.698	1418.445	1157.135
313.052	26.752	1417.702	1156.769
314.066	26.728	1416.915	1155.874
315.081	26.741	1415.778	1154.922
316.095	26.733	1414.676	1153.872
317.110	26.764	1414.105	1153.502
318.125	26.793	1413.113	1152.774
319.139	26.736	1412.718	1151.990
320.154	26.849	1411.450	1151.573
321.168	26.811	1410.649	1150.575
322.183	26.814	1409.619	1149.650
323.197	26.747	1409.056	1148.663
324.212	26.769	1408.231	1148.031
325.227	26.890	1406.980	1147.675
326.241	26.822	1406.659	1146.879
327.256	26.842	1406.295	1146.609
328.270	26.971	1404.972	1146.246
329.285	26.871	1404.631	1145.231
330.300	26.969	1403.415	1144.760
331.314	26.868	1403.128	1143.783
332.329	26.918	1401.935	1143.029
333.343	26.850	1401.342	1142.013
334.358	26.898	1400.547	1141.570
335.373	27.011	1399.756	1141.534
336.387	26.975	1399.112	1140.677
337.402	26.972	1398.595	1140.139
338.416	26.962	1397.990	1139.481
339.431	27.028	1397.263	1139.203
340.446	27.006	1396.834	1138.611
341.460	27.128	1395.684	1138.337
342.475	27.053	1395.061	1137.263
343.489	27.070	1394.152	1136.524
344.504	26.993	1393.209	1135.173
345.519	27.022	1392.514	1134.690
346.533	27.051	1391.080	1133.601
347.548	27.086	1390.577	1133.313
348.562	27.064	1389.623	1132.293
349.577	27.172	1388.750	1132.154
350.592	27.179	1388.238	1131.681
351.606	27.134	1387.385	1130.608
352.621	27.040	1386.128	1128.901
353.635	27.098	1385.664	1128.778
354.650	27.153	1384.630	1128.182
355.665	27.242	1383.511	1127.722
356.679	27.194	1382.351	1126.375
357.694	27.236	1381.403	1125.763
358.708	27.300	1380.374	1125.225
359.723	27.310	1379.406	1124.395
360.738	27.263	1378.467	1123.240
361.752	27.138	1377.719	1121.760
362.767	27.166	1376.486	1120.833
363.781	27.202	1375.778	1120.374
364.796	27.242	1375.533	1120.325
365.810	27.230	1374.426	1119.252
366.825	27.298	1373.566	1118.871
367.840	27.257	1373.320	1118.315
368.854	27.302	1372.428	1117.767
369.869	27.384	1371.988	1117.816
370.883	27.322	1371.206	1116.697
371.898	27.320	1370.328	1115.874
372.913	27.431	1369.744	1115.979
373.927	27.341	1368.961	1114.688
374.942	27.426	1367.982	1114.312
375.956	27.460	1367.069	1113.682
376.971	27.454	1366.636	1113.194
377.986	27.438	1366.057	1112.526
379.000	27.401	1364.995	1111.334
380.015	27.488	1364.204	1111.124
381.029	27.444	1363.831	1110.452
382.044	27.439	1362.813	1109.496
383.059	27.458	1362.394	1109.171
384.073	27.506	1361.877	1108.942
385.088	27.497	1361.507	1108.490
386.102	27.521	1360.973	1108.106
387.117	27.586	1360.282	1107.837
388.132	27.542	1359.447	1106.794
389.146	27.601	1358.054	1105.921
390.161	27.577	1357.792	1105.463
391.175	27.612	1357.258	1105.143
392.190	27.579	1356.598	1104.307
393.205	27.629	1355.842	1103.899
394.219	27.590	1354.972	1102.856
395.234	27.662	1353.585	1102.065
396.248	27.679	1352.523	1101.203
397.263	27.708	1351.404	1100.370
398.278	27.722	1350.416	1099.551
399.292	27.735	1349.761	1098.997
400.307	27.862	1348.469	1098.614
401.321	27.762	1347.867	1097.428
402.336	27.788	1347.003	1096.782
403.350	27.744	1345.904	1095.526
404.365	27.662	1345.225	1094.383
405.380	27.743	1344.272	1093.999
406.394	27.805	1343.807	1093.894
407.409	27.758	1343.198	1093.023
408.423	27.777	1342.625	1092.572
409.438	27.801	1341.566	1091.755
410.453	27.870	1340.923	1091.551
411.467	27.897	1340.249	1091.066
412.482	27.934	1339.687	1090.729
413.496	27.916	1338.964	1089.937
414.511	27.823	1338.219	1088.682
415.526	27.926	1337.582	1088.678
416.540	27.936	1336.605	1087.846
417.555	27.911	1336.019	1087.128
418.569	27.963	1335.541	1086.952
419.584	27.967	1335.160	1086.567
420.599	27.987	1334.628	1086.160
421.613	70.780	1310.471	1309.072
422.628	71.477	1306.945	1309.252
