DTS Sentinel unit serial number:	SN413079Multiplexer serial number:	ORYXHardware model number:	OX4-SRSoftware version number:	ORYX F/W v4.00 Oryx Data Collector v3.7.2.0data status	okinstallation	princeton_trtdifferential loss correction	single-endedforward channel	channel 4reverse channel	N/Adate	2019/09/13time	07:01:35forward acquisition time	60.00reverse acquisition time	0.00gamma	496.2192k internal	0.2324k external	0.2324temperature offset calibration	1.0199default loss term (dB/km)	0.3790temperature slope calibration	1.0000multiplexer offset coefficient	1.0000multiplexer slope coefficient	1.0000fibre end	0.00T internal ref (°C)	26.00T ext. ref 1 (°C)	4.14T ext. ref 2 (°C)	21.10length (m)	temperature (°C)	Stokes	anti-Stokes-747.200	-200.000	-0.032	-0.151
-746.185	181.084	-0.325	0.482
-745.171	-43.065	0.135	0.069
-744.156	201.666	-0.189	0.294
-743.142	-200.000	0.011	-0.094
-742.127	140.453	0.200	0.266
-741.112	619.772	-0.066	-0.167
-740.098	459.699	-0.033	0.075
-739.083	473.736	0.080	0.183
-738.069	457.920	-0.141	-0.316
-737.054	119.343	-0.255	-0.318
-736.039	-200.000	-0.031	-0.381
-735.025	-78.436	-0.045	-0.016
-734.010	800.000	-0.107	0.429
-732.996	633.411	0.057	-0.146
-731.981	-149.819	-0.455	-0.036
-730.966	66.873	-0.208	-0.214
-729.952	93.754	-0.301	0.344
-728.937	-113.549	-0.250	-0.049
-727.923	-72.040	-0.124	-0.046
-726.908	72.096	-0.116	0.122
-725.894	454.126	0.035	0.078
-724.879	23.500	-0.051	0.042
-723.864	800.000	-0.108	0.468
-722.850	116.314	-0.182	0.225
-721.835	-93.981	-0.177	-0.049
-720.821	149.741	0.045	-0.062
-719.806	303.571	0.211	-0.394
-718.791	67.420	0.074	-0.077
-717.777	800.000	-0.082	-0.289
-716.762	-136.030	0.272	0.032
-715.748	26.014	-0.155	0.131
-714.733	107.517	-0.161	0.193
-713.718	316.804	0.286	-0.544
-712.704	-119.634	-0.010	0.002
-711.689	29.826	-0.142	-0.122
-710.675	160.514	0.084	0.119
-709.660	-34.068	0.251	-0.139
-708.645	-149.508	-0.279	0.022
-707.631	-174.915	0.259	0.007
-706.616	-27.409	-0.169	-0.099
-705.602	147.407	0.190	-0.258
-704.587	-16.836	-0.014	-0.009
-703.572	169.573	0.084	-0.121
-702.558	-129.205	-0.332	0.047
-701.543	110.487	0.083	-0.101
-700.529	-156.650	-0.195	0.012
-699.514	440.150	-0.052	-0.115
-698.499	159.440	-0.190	-0.266
-697.485	3.112	-0.414	-0.303
-696.470	-141.536	0.229	-0.023
-695.456	-176.309	-0.268	0.007
-694.441	-145.168	-0.212	0.019
-693.426	72.029	0.197	-0.207
-692.412	800.000	0.057	0.199
-691.397	317.430	-0.116	0.221
-690.383	-156.510	-0.184	0.012
-689.368	96.137	-0.065	0.075
-688.354	-96.356	0.109	-0.029
-687.339	216.784	-0.046	0.074
-686.324	-125.280	-0.392	0.060
-685.310	32.992	0.159	0.139
-684.295	-6.003	-0.111	0.077
-683.281	140.815	0.107	0.142
-682.266	-58.293	-0.067	-0.029
-681.251	-200.000	0.015	0.199
-680.237	-16.838	-0.068	0.043
-679.222	-41.285	-0.087	-0.045
-678.208	-200.000	-0.034	-0.304
-677.193	-24.186	-0.093	0.056
-676.178	-63.551	-0.052	0.021
-675.164	-128.198	-0.134	0.019
-674.149	41.756	0.156	-0.143
-673.135	-98.803	0.263	0.067
-672.120	-87.005	-0.158	0.048
-671.105	-11.667	0.191	0.126
-670.091	800.000	0.089	-0.290
-669.076	219.571	0.320	-0.516
-668.062	-188.794	-0.301	0.004
-667.047	-141.095	0.254	0.026
-666.032	-184.056	-0.212	-0.004
-665.018	-200.000	0.013	0.142
-664.003	-200.000	0.082	0.399
-662.989	800.000	0.074	0.286
-661.974	98.014	0.028	0.032
-660.959	-8.102	0.041	-0.028
-659.945	-200.000	-0.010	0.190
-658.930	-21.581	-0.151	-0.092
-657.916	-48.044	-0.264	0.128
-656.901	-12.969	0.246	0.161
-655.886	-19.507	0.202	0.126
-654.872	235.901	-0.124	-0.206
-653.857	-124.378	-0.232	-0.036
-652.843	-200.000	-0.039	-0.273
-651.828	-193.938	0.248	-0.002
-650.814	261.779	0.129	0.225
-649.799	-129.150	-0.376	-0.053
-648.784	-92.008	0.262	-0.075
-647.770	-131.175	-0.185	0.025
-646.755	743.465	-0.060	-0.163
-645.741	-200.000	0.011	0.145
-644.726	290.530	0.126	0.230
-643.711	800.000	-0.024	0.091
-642.697	-152.286	0.393	0.029
-641.682	9.147	-0.189	0.143
-640.668	-44.923	-0.114	-0.057
-639.653	-85.208	0.019	0.006
-638.638	-98.785	-0.130	-0.033
-637.624	-200.000	-0.031	0.549
-636.609	-98.241	0.167	0.043
-635.595	-98.945	-0.262	-0.067
-634.580	-21.490	-0.146	0.090
-633.565	591.457	0.158	-0.392
-632.551	-47.847	0.075	0.036
-631.536	380.189	0.187	0.385
-630.522	53.213	-0.152	-0.146
-629.507	727.860	-0.057	-0.153
-628.492	36.426	-0.177	-0.157
-627.478	258.559	-0.070	0.121
-626.463	262.851	0.160	0.278
-625.449	-92.028	-0.238	-0.068
-624.434	-180.052	0.261	-0.006
-623.419	-200.000	0.021	0.224
-622.405	216.470	0.182	-0.291
-621.390	242.145	-0.071	-0.120
-620.376	-136.616	-0.094	0.011
-619.361	-200.000	0.008	-0.119
-618.346	-70.340	-0.095	-0.036
-617.332	800.000	0.035	-0.107
-616.317	785.148	-0.075	0.206
-615.303	-31.547	0.550	-0.310
-614.288	-200.000	-0.019	-0.090
-613.273	54.602	-0.110	-0.107
-612.259	-200.000	-0.034	-0.447
-611.244	168.965	0.162	-0.232
-610.230	171.215	0.127	-0.184
-609.215	-30.682	0.232	-0.132
-608.201	-57.439	-0.254	-0.112
-607.186	210.002	-0.066	-0.104
-606.171	-28.265	0.121	-0.070
-605.157	42.471	0.149	-0.136
-604.142	131.059	0.171	-0.221
-603.128	-42.186	0.105	-0.054
-602.113	-103.899	0.143	-0.033
-601.098	-24.015	-0.139	0.083
-600.084	447.676	-0.040	-0.087
-599.069	-200.000	0.017	0.076
-598.055	234.096	0.076	-0.125
-597.040	199.238	0.159	0.244
-596.025	323.067	0.083	-0.159
-595.011	237.354	0.011	-0.019
-593.996	-54.298	-0.174	-0.079
-592.982	142.782	0.226	0.301
-591.967	-200.000	0.037	-0.336
-590.952	-132.198	-0.194	0.025
-589.938	-200.000	-0.020	-0.174
-588.923	-61.119	-0.312	-0.132
-587.909	47.378	-0.067	-0.062
-586.894	-200.000	0.010	-0.266
-585.879	-71.063	0.252	0.095
-584.865	2.719	-0.244	0.178
-583.850	-148.370	-0.156	0.013
-582.836	532.623	0.044	-0.105
-581.821	-171.962	-0.266	-0.009
-580.806	348.652	-0.197	0.390
-579.792	-90.998	0.235	0.068
-578.777	-127.814	-0.314	-0.045
-577.763	-105.257	0.330	0.076
-576.748	58.707	0.283	-0.279
-575.733	-20.571	-0.062	0.038
-574.719	-200.000	-0.002	0.068
-573.704	-200.000	0.013	-0.077
-572.690	-12.589	-0.117	0.077
-571.675	-150.293	0.202	-0.016
-570.661	49.572	0.271	-0.256
-569.646	26.114	-0.213	0.178
-568.631	-76.421	-0.255	-0.090
-567.617	-27.061	-0.152	-0.089
-566.602	82.403	-0.210	0.228
-565.588	-139.071	-0.312	-0.034
-564.573	-3.674	0.252	-0.175
-563.558	319.354	-0.011	0.021
-562.544	-153.383	-0.204	-0.014
-561.529	-97.705	0.149	0.039
-560.515	20.627	-0.114	-0.093
-559.500	-83.705	-0.365	-0.117
-558.485	723.153	-0.051	-0.136
-557.471	800.000	-0.033	0.118
-556.456	800.000	-0.038	-0.157
-555.442	31.378	-0.361	0.311
-554.427	-193.945	-0.035	0.000
-553.412	800.000	-0.063	0.216
-552.398	-27.595	-0.331	-0.192
-551.383	-136.301	-0.244	-0.029
-550.369	-116.179	-0.309	-0.057
-549.354	800.000	-0.020	-0.084
-548.339	377.441	-0.159	-0.326
-547.325	-47.035	0.252	0.123
-546.310	-65.834	0.057	-0.023
-545.296	-87.608	-0.293	-0.089
-544.281	-200.000	0.034	-0.391
-543.266	800.000	0.104	-0.299
-542.252	261.847	-0.028	0.048
-541.237	109.816	-0.111	-0.134
-540.223	-86.144	-0.356	0.110
-539.208	-61.245	0.264	0.112
-538.193	-200.000	0.009	-0.156
-537.179	-200.000	0.040	-0.400
-536.164	-24.362	0.218	-0.130
-535.150	744.459	0.085	-0.230
-534.135	-200.000	0.071	-0.576
-533.121	800.000	0.096	0.324
-532.106	134.590	0.158	0.205
-531.091	326.225	0.110	-0.211
-530.077	-200.000	0.035	-0.166
-529.062	-105.782	0.376	0.085
-528.048	702.500	0.117	0.308
-527.033	61.072	0.155	-0.154
-526.018	800.000	-0.049	-0.137
-525.004	-34.242	0.081	-0.044
-523.989	-116.221	0.185	-0.034
-522.975	11.039	0.200	0.153
-521.960	-85.177	-0.147	-0.046
-520.945	-58.813	-0.051	-0.022
-519.931	202.974	0.101	0.156
-518.916	-200.000	0.007	0.150
-517.902	-200.000	-0.017	-0.087
-516.887	236.425	0.135	-0.224
-515.872	-36.656	0.033	0.017
-514.858	-157.012	0.290	-0.018
-513.843	73.865	0.174	0.183
-512.829	800.000	0.054	0.151
-511.814	800.000	-0.062	-0.259
-510.799	50.731	-0.130	0.123
-509.785	-137.232	-0.229	-0.026
-508.770	-123.533	-0.233	-0.037
-507.756	345.386	0.138	-0.270
-506.741	800.000	0.124	0.351
-505.726	605.366	-0.068	0.171
-504.712	209.381	0.104	-0.162
-503.697	-20.522	0.268	0.164
-502.683	466.918	-0.021	-0.047
-501.668	244.462	-0.131	-0.220
-500.653	800.000	0.097	-0.275
-499.639	-185.964	-0.060	0.001
-498.624	25.441	-0.073	-0.061
-497.610	800.000	-0.105	0.354
-496.595	159.675	0.167	0.232
-495.581	-91.821	0.474	-0.135
-494.566	800.000	-0.059	0.182
-493.551	800.000	0.053	0.217
-492.537	-114.222	0.254	-0.049
-491.522	50.095	-0.138	0.130
-490.508	37.168	-0.110	0.097
-489.493	-48.038	0.310	0.150
-488.478	-2.588	-0.281	0.197
-487.464	-200.000	0.018	0.107
-486.449	-54.320	-0.248	-0.112
-485.435	800.000	-0.014	0.060
-484.420	-4.554	-0.195	-0.135
-483.405	-199.908	-0.207	0.001
-482.391	26.964	0.191	-0.160
-481.376	-143.265	0.340	0.033
-480.362	337.368	-0.088	0.170
-479.347	17.504	0.194	0.154
-478.332	800.000	0.068	0.197
-477.318	12.339	0.201	-0.155
-476.303	-200.000	-0.021	0.172
-475.289	14.658	0.083	-0.065
-474.274	-131.409	0.085	0.011
-473.259	364.837	0.143	-0.288
-472.245	-200.000	-0.002	-0.076
-471.230	800.000	0.085	0.353
-470.216	305.896	-0.099	0.184
-469.201	456.815	0.163	-0.360
-468.186	-200.000	-0.049	-0.229
-467.172	45.725	-0.163	0.150
-466.157	800.000	-0.099	-0.325
-465.143	-200.000	0.047	0.341
-464.128	-200.000	0.001	-0.029
-463.113	-35.418	0.264	0.143
-462.099	27.078	-0.107	-0.090
-461.084	-3.760	-0.403	0.279
-460.070	124.034	-0.111	-0.139
-459.055	305.861	-0.086	0.160
-458.040	207.279	-0.025	0.039
-457.026	-200.000	-0.010	0.052
-456.011	-108.618	-0.241	0.052
-454.997	315.424	0.071	-0.134
-453.982	800.000	-0.101	-0.289
-452.968	-91.918	0.209	-0.059
-451.953	800.000	0.058	-0.243
-450.938	-188.890	-0.147	-0.002
-449.924	83.448	-0.215	-0.234
-448.909	43.627	-0.306	-0.279
-447.895	623.830	-0.173	0.435
-446.880	27.980	-0.152	-0.128
-445.865	-131.043	-0.139	0.018
-444.851	-5.099	0.252	-0.173
-443.836	-200.000	-0.011	-0.332
-442.822	-200.000	0.025	-0.256
-441.807	-102.981	-0.166	-0.039
-440.792	-200.000	-0.003	-0.226
-439.778	-94.506	0.185	0.050
-438.763	36.653	0.324	0.286
-437.749	30.735	-0.114	-0.097
-436.734	-106.880	0.270	0.060
-435.719	-2.763	-0.218	0.152
-434.705	103.585	0.351	0.411
-433.690	28.445	-0.170	0.143
-432.676	334.549	0.159	0.307
-431.661	476.013	0.099	0.223
-430.646	-117.262	-0.134	-0.024
-429.632	-59.835	0.153	-0.065
-428.617	259.541	-0.034	0.059
-427.603	800.000	-0.072	0.206
-426.588	-52.279	-0.266	-0.123
-425.573	-49.992	0.054	-0.026
-424.559	162.243	0.113	0.158
-423.544	-132.382	-0.234	-0.030
-422.530	-87.958	0.110	-0.033
-421.515	-67.661	-0.336	-0.131
-420.500	-200.000	-0.084	-0.382
-419.486	88.676	0.107	0.119
-418.471	-133.925	-0.372	-0.046
-417.457	-35.920	0.155	-0.084
-416.442	324.778	0.156	0.297
-415.428	-94.444	0.089	-0.024
-414.413	-66.803	-0.254	0.100
-413.398	-38.950	0.207	-0.108
-412.384	-200.000	0.008	-0.098
-411.369	-142.837	0.282	0.027
-410.355	-64.023	-0.126	0.051
-409.340	-47.773	0.183	0.089
-408.325	-200.000	-0.063	-0.318
-407.311	-200.000	0.012	-0.232
-406.296	-24.145	0.232	-0.138
-405.282	-138.494	-0.289	-0.032
-404.267	-54.826	0.430	-0.194
-403.252	-62.284	0.181	0.075
-402.238	126.544	0.160	0.202
-401.223	-77.793	-0.116	0.040
-400.209	-130.286	0.078	0.011
-399.194	-128.452	0.076	-0.011
-398.179	19.619	-0.253	-0.202
-397.165	-106.790	-0.539	-0.119
-396.150	209.999	-0.166	0.260
-395.136	-200.000	0.053	0.282
-394.121	14.465	-0.100	0.077
-393.106	216.916	0.094	-0.149
-392.092	-58.151	0.250	-0.109
-391.077	103.685	-0.281	0.329
-390.063	102.401	0.127	0.148
-389.048	-14.650	-0.204	-0.130
-388.033	-71.553	0.257	-0.096
-387.019	145.331	0.199	-0.266
-386.004	277.697	-0.113	0.200
-384.990	-0.941	-0.304	0.214
-383.975	3.241	-0.089	-0.065
-382.960	-149.857	0.197	-0.015
-381.946	-173.064	0.179	-0.005
-380.931	553.846	-0.029	0.070
-379.917	-200.000	-0.019	-0.143
-378.902	-121.499	0.108	0.018
-377.888	-127.980	0.253	0.036
-376.873	-12.539	0.187	0.122
-375.858	108.870	-0.226	0.268
-374.844	-22.543	0.211	0.127
-373.829	-23.419	0.353	0.211
-372.815	-66.213	0.146	0.058
-371.800	-38.708	-0.164	0.086
-370.785	-62.180	-0.240	-0.100
-369.771	-200.000	0.062	0.303
-368.756	-172.166	0.257	-0.008
-367.742	150.904	0.055	0.075
-366.727	800.000	0.119	0.374
-365.712	94.725	-0.209	-0.236
-364.698	-11.441	0.347	0.227
-363.683	-94.372	-0.276	0.075
-362.669	-110.854	-0.117	-0.024
-361.654	-32.419	0.265	-0.147
-360.639	49.094	0.276	-0.258
-359.625	-9.792	0.114	-0.076
-358.610	-200.000	-0.053	-0.250
-357.596	800.000	0.070	-0.235
-356.581	-67.746	0.261	-0.101
-355.566	-200.000	-0.000	0.097
-354.552	537.986	0.084	0.198
-353.537	209.964	-0.144	0.225
-352.523	782.453	-0.110	0.299
-351.508	154.289	0.068	-0.093
-350.493	800.000	0.038	0.117
-349.479	-48.291	-0.286	0.137
-348.464	-200.000	0.016	-0.119
-347.450	15.486	-0.422	0.329
-346.435	-33.012	0.233	0.128
-345.420	9.214	0.128	-0.096
-344.406	380.826	0.039	-0.079
-343.391	39.181	-0.143	0.127
-342.377	-31.437	-0.227	-0.127
-341.362	306.185	0.062	-0.116
-340.348	-38.185	0.234	0.123
-339.333	-113.617	0.332	-0.065
-338.318	508.869	0.078	-0.179
-337.304	-25.503	-0.054	-0.032
-336.289	61.468	0.218	-0.216
-335.275	29.924	-0.225	0.191
-334.260	2.279	-0.224	-0.161
-333.245	-200.000	0.023	-0.227
-332.231	-200.000	0.028	0.278
-331.216	-58.666	-0.065	0.028
-330.202	-86.528	0.105	0.032
-329.187	-120.861	-0.206	-0.035
-328.172	800.000	0.076	0.264
-327.158	2.851	-0.207	-0.149
-326.143	-186.386	-0.222	0.003
-325.129	-64.843	0.296	-0.119
-324.114	-102.051	0.184	-0.044
-323.099	-113.405	-0.326	-0.063
-322.085	-35.822	0.169	-0.091
-321.070	800.000	0.066	0.185
-320.056	177.652	-0.109	0.157
-319.041	-73.727	0.155	0.056
-318.026	-125.498	-0.240	0.036
-317.012	272.825	0.110	-0.192
-315.997	529.694	-0.154	0.361
-314.983	729.823	-0.082	0.217
-313.968	-147.966	0.087	-0.007
-312.953	-200.000	-0.039	-0.199
-311.939	-106.281	0.102	0.023
-310.924	800.000	0.037	-0.110
-309.910	800.000	-0.092	-0.341
-308.895	-130.452	-0.305	0.041
-307.880	-126.541	0.366	0.054
-306.866	-200.000	-0.022	-0.101
-305.851	143.439	0.094	-0.124
-304.837	-60.714	-0.106	0.045
-303.822	-200.000	0.040	-0.354
-302.807	-166.773	-0.065	0.003
-301.793	800.000	-0.070	-0.271
-300.778	800.000	-0.068	-0.196
-299.764	53.637	-0.218	-0.207
-298.749	138.798	0.050	0.065
-297.735	-64.299	-0.282	-0.114
-296.720	-200.000	0.275	0.001
-295.705	201.191	-0.186	0.284
-294.691	89.001	-0.113	0.125
-293.676	11.247	-0.145	-0.110
-292.662	199.696	-0.106	0.162
-291.647	-200.000	-0.008	0.158
-290.632	-142.483	0.128	-0.012
-289.618	2.113	-0.125	-0.089
-288.603	-62.394	-0.307	-0.127
-287.589	-65.381	0.202	0.080
-286.574	385.957	0.071	0.145
-285.559	-173.914	0.139	0.004
-284.545	218.289	0.086	0.136
-283.530	-104.625	0.379	0.087
-282.516	302.461	-0.131	0.240
-281.501	-75.670	-0.137	-0.048
-280.486	-50.716	0.283	0.132
-279.472	37.311	-0.080	0.070
-278.457	-89.944	-0.157	0.046
-277.443	188.145	-0.109	0.162
-276.428	-44.500	0.198	-0.098
-275.413	-200.000	-0.002	-0.163
-274.399	-27.666	0.129	0.074
-273.384	158.167	-0.018	0.025
-272.370	-70.312	0.090	-0.034
-271.355	501.225	-0.093	-0.213
-270.340	-200.000	-0.042	-0.221
-269.326	-200.000	-0.035	-0.348
-268.311	800.000	-0.053	0.153
-267.297	800.000	-0.028	-0.082
-266.282	-59.112	-0.105	0.045
-265.267	-81.140	-0.226	0.074
-264.253	519.934	-0.054	-0.125
-263.238	-114.675	0.224	0.042
-262.224	-137.705	0.087	-0.010
-261.209	64.111	-0.195	0.194
-260.195	-135.983	-0.092	0.011
-259.180	7.746	-0.135	0.100
-258.165	-104.567	-0.067	-0.015
-257.151	800.000	-0.048	-0.152
-256.136	-89.689	-0.259	0.075
-255.122	219.464	-0.191	0.303
-254.107	136.303	0.166	-0.214
-253.092	-200.000	0.048	-0.283
-252.078	652.296	-0.112	0.285
-251.063	-20.107	-0.232	-0.142
-250.049	273.663	0.018	0.031
-249.034	-200.000	0.010	-0.068
-248.019	-168.892	0.060	-0.002
-247.005	-28.253	0.105	0.060
-245.990	792.602	-0.066	0.181
-244.976	-158.978	-0.329	-0.018
-243.961	204.186	-0.174	-0.266
-242.946	800.000	0.023	-0.099
-241.932	17.040	0.104	0.082
-240.917	-8.973	0.034	-0.023
-239.903	-76.817	-0.233	-0.081
-238.888	800.000	0.087	0.297
-237.873	44.588	0.227	-0.207
-236.859	800.000	-0.085	0.362
-235.844	50.407	0.120	-0.113
-234.830	800.000	-0.068	0.264
-233.815	-158.281	0.113	0.007
-232.800	-200.000	-0.006	0.378
-231.786	57.901	-0.106	0.103
-230.771	-132.344	0.114	0.015
-229.757	800.000	-0.046	-0.171
-228.742	-200.000	0.030	0.227
-227.727	86.602	0.134	0.146
-226.713	-200.000	0.038	0.178
-225.698	-41.792	0.391	0.198
-224.684	-80.754	-0.475	0.156
-223.669	-200.000	0.050	-0.275
-222.655	-200.000	0.051	-0.391
-221.640	-126.109	-0.215	-0.032
-220.625	800.000	0.033	-0.128
-219.611	446.322	0.187	-0.406
-218.596	-16.129	0.144	0.091
-217.582	-115.448	-0.184	0.034
-216.567	116.373	0.175	0.212
-215.552	135.940	0.232	0.299
-214.538	-200.000	-0.006	-0.184
-213.523	-200.000	0.010	-0.109
-212.509	-134.322	-0.185	0.022
-211.494	401.712	-0.096	0.200
-210.479	-14.574	-0.080	0.051
-209.465	5.515	-0.101	-0.074
-208.450	-143.862	-0.117	-0.011
-207.436	-81.507	-0.270	-0.088
-206.421	194.297	0.153	0.229
-205.406	-49.058	-0.090	0.043
-204.392	-149.347	-0.167	-0.013
-203.377	800.000	0.104	0.308
-202.363	44.641	0.134	-0.122
-201.348	-21.500	-0.160	0.097
-200.333	800.000	-0.103	-0.371
-199.319	-200.000	-0.101	0.460
-198.304	166.231	-0.056	-0.078
-197.290	-200.000	-0.050	-0.270
-196.275	32.963	-0.135	0.116
-195.260	70.897	-0.041	-0.042
-194.246	-200.000	-0.074	0.000
-193.231	-25.611	0.196	0.114
-192.217	-200.000	-0.008	0.035
-191.202	44.779	0.173	0.157
-190.187	-156.003	-0.340	-0.021
-189.173	-133.258	0.294	-0.037
-188.158	55.749	-0.067	-0.064
-187.144	127.619	0.105	-0.132
-186.129	418.171	-0.056	0.118
-185.114	-109.337	0.351	0.073
-184.100	800.000	0.089	0.297
-183.085	662.464	0.037	0.095
-182.071	172.245	-0.207	0.293
-181.056	-152.153	0.221	0.016
-180.042	251.762	0.112	-0.189
-179.027	356.495	-0.096	-0.189
-178.012	-2.451	0.224	0.155
-176.998	800.000	0.098	-0.292
-175.983	71.716	0.206	0.211
-174.969	-125.699	-0.512	-0.077
-173.954	82.194	0.219	0.235
-172.939	-121.633	-0.238	0.039
-171.925	-200.000	0.005	-0.160
-170.910	-76.330	-0.303	-0.105
-169.896	504.815	-0.150	-0.342
-168.881	153.189	-0.163	0.220
-167.866	487.235	-0.089	0.201
-166.852	-163.087	0.156	-0.007
-165.837	-200.000	0.025	-0.176
-164.823	-8.249	0.412	0.274
-163.808	800.000	-0.079	0.245
-162.793	-18.848	0.182	-0.112
-161.779	-102.562	0.229	-0.054
-160.764	-200.000	0.025	-0.154
-159.750	-49.775	0.132	0.062
-158.735	-200.000	-0.024	0.107
-157.720	-91.657	0.495	-0.139
-156.706	157.851	0.067	0.091
-155.691	-136.753	0.151	0.017
-154.677	-200.000	-0.014	0.080
-153.662	-200.000	0.004	0.363
-152.647	-103.543	-0.345	-0.080
-151.633	800.000	0.087	0.312
-150.618	-153.809	0.066	-0.004
-149.604	59.781	0.200	0.195
-148.589	247.744	0.033	0.055
-147.574	-102.621	-0.265	0.062
-146.560	-133.917	0.158	-0.019
-145.545	-169.784	-0.140	-0.005
-144.531	-71.571	0.254	-0.094
-143.516	314.327	0.076	-0.142
-142.502	-200.000	-0.038	0.236
-141.487	-200.000	-0.036	0.185
-140.472	163.568	-0.152	0.211
-139.458	-200.000	-0.026	-0.239
-138.443	-150.585	-0.148	-0.011
-137.429	20.633	0.259	0.207
-136.414	46.942	0.210	0.193
-135.399	800.000	0.077	0.211
-134.385	103.026	0.078	0.090
-133.370	134.522	-0.058	0.074
-132.356	359.540	0.122	0.241
-131.341	336.028	-0.139	-0.265
-130.326	17.807	0.179	-0.141
-129.312	486.985	0.076	-0.171
-128.297	65.738	0.231	-0.231
-127.283	352.323	0.132	-0.257
-126.268	549.546	0.008	-0.019
-125.253	45.461	0.113	0.103
-124.239	-131.062	-0.316	-0.042
-123.224	-38.770	-0.275	0.143
-122.210	268.806	-0.212	-0.367
-121.195	800.000	0.108	0.352
-120.180	-36.482	-0.091	0.048
-119.166	-37.577	0.046	0.024
-118.151	-43.518	0.231	0.115
-117.137	800.000	0.045	0.189
-116.122	692.743	-0.021	0.053
-115.107	182.195	0.202	0.293
-114.093	360.260	0.118	0.233
-113.078	277.355	-0.035	0.062
-112.064	-200.000	0.037	0.264
-111.049	-200.000	-0.019	-0.211
-110.034	-98.445	-0.230	-0.058
-109.020	-76.800	-0.539	0.186
-108.005	-125.581	-0.213	-0.032
-106.991	179.541	0.305	-0.440
-105.976	-45.405	-0.049	0.024
-104.962	-73.589	0.259	0.093
-103.947	29.161	-0.175	-0.146
-102.932	-63.527	0.133	-0.054
-101.918	-200.000	-0.126	-0.000
-100.903	-200.000	-0.011	0.154
-99.889	-24.998	0.281	0.164
-98.874	321.520	0.064	0.119
-97.859	-200.000	-0.008	-0.071
-96.845	262.839	0.099	0.170
-95.830	61.110	-0.141	0.138
-94.816	145.664	-0.147	-0.194
-93.801	-95.473	0.212	-0.056
-92.786	98.422	0.123	-0.140
-91.772	800.000	-0.043	0.117
-90.757	-200.000	-0.001	0.035
-89.743	-3.339	-0.087	-0.060
-88.728	108.266	0.025	-0.029
-87.713	284.181	0.027	-0.049
-86.699	-200.000	0.021	0.207
-85.684	-80.231	-0.236	0.078
-84.670	255.245	0.279	0.471
-83.655	66.401	0.151	0.151
-82.640	-69.078	0.169	-0.064
-81.626	-54.557	-0.105	0.047
-80.611	-109.839	-0.116	0.024
-79.597	-200.000	0.074	0.392
-78.582	684.214	-0.104	-0.267
-77.567	800.000	0.033	-0.125
-76.553	-58.827	0.079	-0.033
-75.538	-9.233	-0.039	0.026
-74.524	123.210	-0.166	0.205
-73.509	-97.244	-0.200	-0.051
-72.494	563.043	-0.076	-0.181
-71.480	-78.434	0.175	-0.059
-70.465	-48.701	-0.203	0.096
-69.451	-200.000	0.009	0.105
-68.436	-42.646	-0.428	-0.214
-67.422	-47.339	0.332	-0.159
-66.407	-71.402	-0.081	-0.030
-65.392	89.571	-0.178	0.196
-64.378	37.139	-0.145	-0.127
-63.363	57.773	-0.022	-0.021
-62.349	-88.346	-0.240	-0.071
-61.334	66.544	-1.067	-1.066
-60.319	44.823	0.620	0.561
-59.305	800.000	-0.376	-1.321
-58.290	173.205	0.857	1.215
-57.276	-200.000	0.353	1.524
-56.261	-200.000	118.618	643.359
-55.246	469.969	1560.853	3446.584
-54.232	169.889	2735.695	3842.853
-53.217	94.621	2330.912	2603.405
-52.203	32.532	2072.313	1759.678
-51.188	27.832	1988.422	1646.119
-50.173	26.402	1971.364	1619.136
-49.159	43.243	2033.189	1823.770
-48.144	42.354	2047.770	1828.680
-47.130	28.104	2006.062	1662.928
-46.115	26.071	1994.757	1635.091
-45.100	25.915	1992.234	1631.546
-44.086	25.985	1989.470	1629.852
-43.071	25.865	1986.801	1626.519
-42.057	25.833	1985.320	1624.953
-41.042	25.870	1983.026	1623.341
-40.027	25.949	1980.749	1622.122
-39.013	25.939	1979.097	1620.616
-37.998	25.925	1977.708	1619.285
-36.984	25.886	1975.549	1617.102
-35.969	25.861	1973.771	1615.365
-34.954	25.962	1972.216	1614.930
-33.940	25.963	1971.307	1614.129
-32.925	25.949	1969.297	1612.299
-31.911	26.030	1967.327	1611.347
-30.896	26.025	1965.849	1610.021
-29.881	26.047	1964.002	1608.646
-28.867	26.058	1962.618	1607.547
-27.852	26.104	1960.949	1606.526
-26.838	26.075	1958.929	1604.545
-25.823	26.038	1957.399	1602.897
-24.809	26.017	1955.550	1601.139
-23.794	25.994	1954.035	1599.632
-22.779	26.067	1951.928	1598.490
-21.765	25.994	1950.827	1596.874
-20.750	26.029	1948.881	1595.525
-19.736	25.970	1947.282	1593.638
-18.721	26.078	1945.647	1593.184
-17.706	26.087	1943.824	1591.708
-16.692	26.069	1941.911	1589.920
-15.677	26.010	1940.798	1588.426
-14.663	25.962	1939.759	1587.090
-13.648	26.015	1938.571	1586.521
-12.633	26.033	1936.912	1585.266
-11.619	26.042	1935.257	1583.923
-10.604	26.011	1934.012	1582.570
-9.590	25.998	1933.170	1581.703
-8.575	25.986	1931.615	1580.265
-7.560	25.998	1930.651	1579.518
-6.546	26.018	1929.274	1578.501
-5.531	26.001	1927.918	1577.186
-4.517	25.986	1926.631	1575.936
-3.502	26.045	1925.631	1575.569
-2.487	25.987	1924.551	1574.121
-1.473	26.013	1923.012	1573.026
-0.458	26.017	1918.349	1569.180
0.556	28.057	1898.634	1542.271
1.571	23.801	1880.720	1491.931
2.586	19.936	1903.264	1476.777
3.600	18.820	1938.846	1494.554
4.615	18.574	1931.672	1486.755
5.629	14.844	1831.162	1378.563
6.644	7.787	1719.066	1239.247
7.659	4.382	1685.868	1189.158
8.673	4.025	1683.227	1184.460
9.688	4.119	1681.907	1184.141
10.702	4.237	1680.455	1183.919
11.717	4.169	1676.750	1180.684
12.731	4.641	1676.070	1183.694
13.746	9.683	1687.290	1230.065
14.761	17.564	1704.500	1303.028
15.775	21.949	1713.021	1343.058
16.790	22.518	1713.178	1347.420
17.804	21.693	1710.310	1338.738
18.819	20.802	1707.162	1329.359
19.834	20.224	1704.648	1322.874
20.848	20.139	1703.136	1320.939
21.863	20.107	1702.275	1319.914
22.877	19.956	1701.216	1317.826
23.892	19.754	1700.265	1315.433
24.907	19.780	1698.504	1314.151
25.921	19.713	1697.688	1312.898
26.936	19.678	1696.331	1311.464
27.950	19.686	1695.566	1310.818
28.965	19.679	1695.256	1310.411
29.980	19.770	1694.758	1310.597
30.994	19.917	1693.661	1310.746
32.009	20.020	1692.570	1310.564
33.023	20.040	1692.141	1310.273
34.038	20.059	1691.110	1309.496
35.053	20.023	1689.709	1308.026
36.067	19.928	1688.434	1306.205
37.082	19.943	1686.708	1304.866
38.096	19.847	1686.251	1303.678
39.111	19.816	1685.780	1302.961
40.126	20.007	1684.694	1303.444
41.140	20.002	1683.598	1302.447
42.155	19.684	1681.980	1298.687
43.169	19.470	1680.030	1295.465
44.184	19.381	1679.122	1293.980
45.199	19.286	1678.347	1292.559
46.213	19.292	1676.824	1291.315
47.228	19.448	1676.123	1291.826
48.242	19.588	1675.114	1291.987
49.257	19.752	1674.396	1292.541
50.271	19.781	1673.037	1291.598
51.286	19.761	1671.802	1290.378
52.301	19.673	1670.412	1288.538
53.315	19.726	1669.130	1287.825
54.330	19.604	1667.621	1285.642
55.344	19.494	1666.072	1283.512
56.359	19.418	1664.108	1281.325
57.374	19.413	1663.463	1280.677
58.388	19.478	1661.653	1279.648
59.403	19.360	1660.412	1277.711
60.417	19.222	1659.473	1275.846
61.432	19.257	1658.158	1274.987
62.447	19.216	1657.204	1273.834
63.461	19.110	1656.041	1272.042
64.476	19.104	1654.510	1270.716
65.490	18.945	1653.929	1268.977
66.505	18.963	1652.574	1267.960
67.520	18.911	1651.638	1266.750
68.534	19.143	1650.175	1267.220
69.549	19.116	1648.843	1265.890
70.563	19.176	1648.024	1265.590
71.578	19.062	1646.689	1263.616
72.593	18.871	1646.041	1261.604
73.607	18.816	1644.602	1259.982
74.622	18.783	1643.259	1258.602
75.636	18.809	1642.640	1258.212
76.651	18.889	1641.809	1258.049
77.666	18.860	1641.280	1257.318
78.680	19.022	1639.942	1257.367
79.695	19.063	1639.626	1257.307
80.709	18.999	1639.076	1256.312
81.724	19.223	1638.101	1257.090
82.739	19.288	1637.860	1257.263
83.753	19.366	1636.780	1256.893
84.768	19.577	1635.849	1257.603
85.782	19.726	1635.818	1258.552
86.797	19.885	1635.045	1259.005
87.812	19.849	1634.349	1258.095
88.826	19.807	1633.117	1256.729
89.841	19.818	1631.435	1255.404
90.855	19.786	1630.943	1254.680
91.870	19.779	1630.122	1253.889
92.884	19.949	1629.059	1254.195
93.899	19.968	1628.215	1253.570
94.914	20.090	1626.459	1252.991
95.928	20.118	1625.801	1252.572
96.943	20.021	1624.484	1250.750
97.957	19.955	1622.876	1248.920
98.972	19.866	1621.197	1246.880
99.987	19.839	1619.960	1245.624
101.001	19.890	1618.212	1244.536
102.016	19.924	1616.819	1243.601
103.030	19.934	1616.107	1243.015
104.045	19.796	1615.254	1241.253
105.060	19.946	1613.103	1240.569
106.074	19.870	1611.383	1238.591
107.089	19.600	1609.854	1235.373
108.103	19.298	1607.809	1231.539
109.118	19.116	1606.525	1229.146
110.133	19.002	1604.821	1226.925
111.147	19.056	1603.651	1226.303
112.162	19.165	1601.905	1225.634
113.176	19.151	1600.714	1224.518
114.191	19.179	1600.166	1224.190
115.206	19.247	1598.615	1223.379
116.220	19.335	1597.230	1222.833
117.235	19.153	1596.614	1220.962
118.249	19.260	1594.711	1220.156
119.264	19.152	1593.114	1218.061
120.279	19.145	1591.365	1216.567
121.293	19.043	1590.150	1214.810
122.308	18.915	1588.795	1212.767
123.322	18.948	1587.070	1211.574
124.337	18.838	1585.643	1209.600
125.352	18.793	1584.107	1208.008
126.366	18.747	1583.298	1206.963
127.381	18.846	1581.946	1206.521
128.395	18.851	1580.684	1205.483
129.410	18.799	1579.176	1203.861
130.424	18.818	1577.650	1202.726
131.439	18.959	1576.750	1202.918
132.454	18.892	1576.067	1201.826
133.468	19.128	1574.551	1202.207
134.483	19.128	1573.234	1201.096
135.497	19.223	1572.123	1200.807
136.512	19.198	1570.715	1199.451
137.527	19.273	1569.221	1198.728
138.541	19.294	1568.148	1197.946
139.556	19.269	1567.060	1196.834
140.570	19.417	1565.494	1196.561
141.585	19.428	1565.064	1196.202
142.600	19.590	1563.565	1196.071
143.614	19.753	1562.364	1196.175
144.629	19.820	1561.190	1195.630
145.643	19.929	1560.484	1195.739
146.658	19.992	1558.791	1194.774
147.673	19.837	1557.208	1192.385
148.687	19.669	1555.622	1189.906
149.702	19.539	1553.940	1187.620
150.716	19.460	1552.446	1185.832
151.731	19.387	1550.966	1184.097
152.746	19.283	1549.787	1182.379
153.760	19.323	1548.354	1181.455
154.775	19.328	1547.286	1180.568
155.789	19.522	1545.593	1180.497
156.804	19.535	1545.390	1180.328
157.819	19.660	1543.957	1179.985
158.833	19.748	1542.491	1179.359
159.848	19.770	1541.913	1178.965
160.862	19.863	1540.558	1178.459
161.877	20.015	1539.660	1178.698
162.892	19.770	1538.248	1175.847
163.906	19.507	1536.151	1172.355
164.921	19.317	1535.000	1170.080
165.935	19.320	1534.158	1169.358
166.950	19.300	1533.296	1168.461
167.964	19.397	1532.235	1168.206
168.979	19.544	1531.203	1168.312
169.994	19.513	1529.880	1166.987
171.008	19.410	1529.031	1165.545
172.023	19.422	1528.151	1164.846
173.037	19.560	1526.886	1164.711
174.052	19.643	1526.225	1164.664
175.067	19.776	1525.154	1164.642
176.081	19.592	1523.964	1162.391
177.096	19.344	1521.822	1158.985
178.110	19.340	1520.181	1157.609
179.125	19.379	1518.798	1156.712
180.140	19.444	1518.056	1156.485
181.154	19.548	1517.000	1156.274
182.169	19.590	1516.388	1155.982
183.183	19.796	1515.472	1156.560
184.198	19.882	1514.192	1156.057
185.213	19.812	1513.973	1155.323
186.227	19.978	1512.235	1155.001
187.242	19.949	1511.535	1154.169
188.256	20.048	1510.455	1153.903
189.271	20.077	1509.676	1153.394
190.286	20.128	1508.805	1152.969
191.300	20.061	1507.756	1151.623
192.315	19.630	1506.005	1147.316
193.329	19.321	1504.294	1143.863
194.344	19.325	1503.161	1142.927
195.359	19.417	1502.246	1142.739
196.373	19.565	1501.212	1142.833
197.388	19.609	1500.414	1142.414
198.402	19.602	1499.823	1141.816
199.417	19.760	1499.014	1142.145
200.432	20.044	1498.460	1143.494
201.446	20.190	1497.633	1143.727
202.461	20.335	1496.654	1143.835
203.475	20.321	1496.162	1143.264
204.490	20.478	1494.399	1142.848
205.504	20.346	1493.642	1141.298
206.519	20.023	1492.006	1137.826
207.534	19.990	1490.398	1136.282
208.548	19.904	1489.541	1134.970
209.563	19.896	1488.537	1134.048
210.577	19.887	1487.711	1133.258
211.592	19.756	1486.984	1131.746
212.607	19.851	1486.459	1131.873
213.621	20.098	1485.858	1132.924
214.636	20.209	1485.099	1132.974
215.650	20.134	1483.922	1131.487
216.665	20.197	1482.446	1130.673
217.680	20.185	1482.114	1130.241
218.694	20.361	1481.574	1130.875
219.709	20.407	1481.326	1130.886
220.723	20.414	1479.470	1129.412
221.738	20.380	1478.593	1128.424
222.753	20.323	1477.805	1127.350
223.767	20.338	1476.605	1126.431
224.782	20.322	1475.496	1125.382
225.796	20.325	1475.150	1125.038
226.811	20.418	1475.140	1125.537
227.826	20.567	1473.761	1125.350
228.840	20.436	1472.447	1123.398
229.855	20.327	1471.198	1121.640
230.869	20.238	1470.508	1120.440
231.884	20.139	1469.350	1118.818
232.899	20.172	1468.045	1117.944
233.913	20.068	1466.633	1116.097
234.928	20.044	1465.169	1114.728
235.942	19.957	1463.822	1113.047
236.957	19.846	1462.772	1111.438
237.972	19.899	1461.191	1110.480
238.986	19.906	1460.349	1109.784
240.001	19.903	1459.645	1109.134
241.015	19.933	1458.414	1108.287
242.030	20.010	1457.000	1107.610
243.045	20.110	1456.542	1107.804
244.059	20.216	1455.813	1107.826
245.074	20.201	1455.212	1107.177
246.088	20.247	1454.997	1107.212
247.103	20.306	1454.015	1106.738
248.117	20.439	1453.152	1106.834
249.132	20.547	1452.497	1106.925
250.147	20.639	1452.560	1107.459
251.161	20.921	1451.994	1108.725
252.176	21.172	1451.552	1109.885
253.190	21.172	1450.853	1109.249
254.205	21.158	1450.148	1108.526
255.220	21.223	1449.384	1108.254
256.234	21.294	1448.581	1107.995
257.249	21.333	1447.701	1107.470
258.263	21.282	1446.681	1106.270
259.278	21.279	1445.084	1104.932
260.293	21.246	1444.569	1104.232
261.307	21.272	1443.575	1103.541
262.322	21.377	1443.210	1103.824
263.336	21.438	1442.322	1103.430
264.351	21.478	1441.429	1102.906
265.366	21.482	1440.115	1101.828
266.380	21.475	1439.579	1101.277
267.395	21.467	1438.833	1100.554
268.409	21.456	1437.575	1099.428
269.424	21.303	1436.208	1097.326
270.439	21.210	1435.039	1095.752
271.453	21.222	1434.200	1095.085
272.468	21.223	1433.115	1094.167
273.482	21.100	1432.495	1092.829
274.497	20.982	1431.519	1091.246
275.512	20.954	1430.430	1090.147
276.526	21.034	1429.977	1090.207
277.541	20.969	1428.800	1088.803
278.555	20.991	1427.888	1088.150
279.570	21.038	1427.409	1087.983
280.585	21.066	1426.869	1087.651
281.599	21.371	1425.988	1088.784
282.614	21.429	1425.387	1088.586
283.628	21.251	1424.306	1086.559
284.643	21.174	1422.420	1084.542
285.657	21.151	1421.144	1083.335
286.672	21.074	1420.563	1082.316
287.687	21.099	1419.397	1081.491
288.701	21.137	1418.916	1081.259
289.716	21.110	1418.262	1080.498
290.730	21.174	1417.018	1079.851
291.745	21.127	1416.219	1078.856
292.760	21.221	1414.801	1078.261
293.774	21.353	1413.792	1078.211
294.789	21.314	1413.311	1077.512
295.803	21.455	1412.479	1077.648
296.818	21.492	1412.246	1077.606
297.833	21.296	1410.876	1075.257
298.847	21.215	1409.567	1073.668
299.862	21.134	1408.519	1072.274
300.876	21.231	1407.348	1071.883
301.891	21.234	1406.856	1071.431
302.906	21.295	1406.152	1071.177
303.920	21.404	1405.877	1071.537
304.935	21.555	1404.775	1071.532
305.949	21.619	1404.405	1071.546
306.964	21.768	1403.811	1071.908
307.979	21.857	1402.868	1071.639
308.993	21.787	1401.733	1070.249
310.008	21.668	1400.593	1068.557
311.022	21.730	1399.467	1067.981
312.037	21.763	1398.679	1067.484
313.052	21.700	1397.902	1066.416
314.066	21.636	1396.980	1065.225
315.081	21.516	1395.009	1062.903
316.095	21.286	1394.066	1060.695
317.110	21.277	1392.584	1059.418
318.125	21.199	1391.667	1058.150
319.139	21.188	1390.625	1057.199
320.154	21.145	1389.855	1056.263
321.168	21.246	1388.709	1055.910
322.183	21.241	1387.903	1055.173
323.197	21.260	1386.970	1054.482
324.212	21.395	1386.073	1054.521
325.227	21.434	1385.690	1054.374
326.241	21.382	1384.767	1053.264
327.256	21.437	1384.088	1052.986
328.270	21.279	1383.399	1051.414
329.285	21.249	1381.990	1050.074
330.300	21.311	1380.924	1049.539
331.314	21.245	1380.040	1048.380
332.329	21.344	1379.063	1048.140
333.343	21.402	1378.173	1047.715
334.358	21.298	1377.996	1046.865
335.373	21.442	1377.147	1046.995
336.387	21.654	1376.414	1047.613
337.402	21.632	1375.955	1047.036
338.416	21.753	1375.081	1047.002
339.431	21.746	1374.577	1046.483
340.446	21.865	1373.912	1046.596
341.460	21.933	1372.918	1046.153
342.475	22.102	1372.195	1046.516
343.489	22.254	1371.342	1046.674
344.504	22.153	1370.915	1045.655
345.519	22.112	1370.303	1044.851
346.533	22.261	1368.954	1044.616
347.548	22.401	1367.737	1044.429
348.562	22.411	1366.860	1043.722
349.577	22.444	1366.230	1043.348
350.592	22.346	1365.339	1041.995
351.606	21.955	1364.351	1038.832
352.621	21.845	1362.514	1036.690
353.635	21.746	1361.790	1035.466
354.650	21.687	1360.617	1034.135
355.665	21.597	1360.135	1033.142
356.679	21.724	1358.462	1032.531
357.694	21.895	1357.534	1032.739
358.708	21.896	1356.816	1032.109
359.723	22.061	1355.415	1031.922
360.738	22.056	1354.671	1031.236
361.752	22.059	1353.766	1030.473
362.767	21.965	1352.618	1028.957
363.781	21.980	1351.942	1028.436
364.796	22.039	1351.138	1028.082
365.810	22.130	1350.509	1028.043
366.825	22.232	1350.187	1028.302
367.840	22.409	1349.419	1028.665
368.854	22.637	1348.550	1029.238
369.869	22.721	1348.327	1029.468
370.883	22.726	1347.822	1029.024
371.898	22.636	1346.682	1027.537
372.913	22.535	1345.847	1026.218
373.927	22.480	1344.591	1024.850
374.942	22.402	1343.985	1023.844
375.956	22.546	1343.296	1024.067
376.971	22.680	1342.440	1024.100
377.986	22.515	1341.872	1022.620
379.000	22.494	1341.079	1021.803
380.015	22.753	1339.980	1022.373
381.029	22.731	1339.906	1022.104
382.044	22.735	1339.166	1021.468
383.059	22.875	1338.370	1021.582
384.073	22.789	1337.590	1020.400
385.088	22.674	1337.101	1019.274
386.102	22.741	1336.496	1019.109
387.117	22.815	1335.304	1018.532
388.132	22.712	1334.536	1017.268
389.146	22.445	1333.277	1014.678
390.161	22.417	1332.137	1013.559
391.175	22.417	1331.364	1012.882
392.190	22.282	1330.941	1011.694
393.205	22.485	1329.945	1012.011
394.219	22.625	1329.423	1012.332
395.234	22.807	1327.787	1012.037
396.248	22.732	1326.223	1010.329
397.263	22.588	1325.149	1008.596
398.278	22.522	1323.759	1007.071
399.292	22.448	1322.305	1005.453
400.307	22.328	1321.256	1003.884
401.321	22.186	1320.201	1002.184
402.336	22.141	1319.646	1001.417
403.350	22.175	1318.297	1000.497
404.365	22.210	1317.576	1000.063
405.380	22.233	1316.770	999.491
406.394	22.422	1316.199	1000.040
407.409	22.516	1315.461	999.924
408.423	22.572	1315.021	999.822
409.438	22.772	1314.484	1000.459
410.453	22.811	1314.012	1000.233
411.467	22.972	1312.934	1000.238
412.482	23.090	1312.351	1000.369
413.496	23.054	1312.079	999.872
414.511	23.121	1311.473	999.701
415.526	23.168	1310.482	999.120
416.540	23.284	1309.769	999.141
417.555	23.377	1308.982	998.980
418.569	23.399	1308.495	998.644
419.584	23.299	1307.829	997.481
420.599	23.134	1307.419	996.151
421.613	148.022	1435.878	1797.505
422.628	143.499	1454.551	1797.584
