DTS Sentinel unit serial number:	SN413079Multiplexer serial number:	ORYXHardware model number:	OX4-SRSoftware version number:	ORYX F/W v4.00 Oryx Data Collector v3.7.2.0data status	okinstallation	princeton_trtdifferential loss correction	single-endedforward channel	channel 4reverse channel	N/Adate	2019/09/14time	06:01:34forward acquisition time	60.00reverse acquisition time	0.00gamma	496.2192k internal	0.2322k external	0.2322temperature offset calibration	1.0135default loss term (dB/km)	0.3790temperature slope calibration	1.0000multiplexer offset coefficient	1.0000multiplexer slope coefficient	1.0000fibre end	0.00T internal ref (°C)	26.81T ext. ref 1 (°C)	3.40T ext. ref 2 (°C)	21.03length (m)	temperature (°C)	Stokes	anti-Stokes-747.200	-3.567	-0.060	0.042
-746.185	-96.965	-0.369	-0.098
-745.171	-200.000	0.019	0.136
-744.156	-200.000	-0.045	0.267
-743.142	-95.445	0.202	0.055
-742.127	207.704	0.129	0.203
-741.112	-35.408	-0.156	-0.086
-740.098	800.000	0.046	-0.133
-739.083	50.427	-0.046	0.044
-738.069	-105.246	-0.377	-0.087
-737.054	335.233	-0.197	0.385
-736.039	5.750	-0.205	0.153
-735.025	170.810	0.167	0.241
-734.010	-43.488	-0.107	-0.055
-732.996	-16.951	-0.286	-0.182
-731.981	-33.698	-0.208	0.116
-730.966	-83.506	0.481	-0.155
-729.952	379.256	0.086	0.178
-728.937	62.817	-0.078	-0.079
-727.923	-94.523	-0.392	-0.108
-726.908	800.000	0.093	-0.398
-725.894	-200.000	0.020	-0.190
-724.879	800.000	0.062	-0.253
-723.864	45.016	-0.127	-0.118
-722.850	77.250	-0.162	0.174
-721.835	-200.000	-0.017	0.092
-720.821	21.794	-0.321	0.264
-719.806	390.821	0.043	0.090
-718.791	441.538	-0.056	0.124
-717.777	-95.795	0.055	-0.015
-716.762	-107.416	0.160	0.035
-715.748	-65.715	-0.241	0.097
-714.733	-103.558	-0.181	-0.043
-713.718	-79.803	-0.191	0.065
-712.704	-200.000	0.011	-0.162
-711.689	-54.533	0.148	-0.068
-710.675	-107.310	-0.090	0.020
-709.660	40.952	-0.062	-0.056
-708.645	-1.744	-0.147	-0.104
-707.631	-150.695	-0.078	-0.006
-706.616	20.501	-0.208	-0.170
-705.602	-4.549	0.126	-0.088
-704.587	-6.336	-0.093	-0.064
-703.572	127.826	0.023	0.029
-702.558	225.939	0.157	0.257
-701.543	12.981	-0.337	-0.263
-700.529	287.555	0.089	0.163
-699.514	786.790	0.122	-0.338
-698.499	800.000	-0.065	-0.282
-697.485	-200.000	-0.018	0.126
-696.470	64.234	-0.136	0.139
-695.456	193.403	-0.240	0.366
-694.441	3.912	-0.168	-0.124
-693.426	434.325	0.017	0.037
-692.412	-168.008	0.112	0.004
-691.397	45.772	-0.108	0.101
-690.383	-200.000	0.015	0.538
-689.368	-200.000	-0.014	0.137
-688.354	800.000	0.107	-0.364
-687.339	64.916	0.066	0.067
-686.324	800.000	-0.085	-0.283
-685.310	-40.725	0.129	-0.067
-684.295	800.000	0.028	-0.113
-683.281	548.840	-0.117	0.282
-682.266	125.723	-0.211	-0.268
-681.251	800.000	-0.058	0.180
-680.237	-121.622	0.232	-0.039
-679.222	21.419	-0.221	0.181
-678.208	207.890	0.070	0.110
-677.193	713.616	0.040	0.108
-676.178	-200.000	-0.039	0.206
-675.164	222.705	0.279	-0.452
-674.149	78.675	0.237	-0.255
-673.135	-63.380	-0.290	-0.120
-672.120	-81.940	0.153	-0.050
-671.105	-200.000	0.025	-0.270
-670.091	-200.000	-0.007	0.121
-669.076	-105.042	-0.073	-0.017
-668.062	338.459	-0.041	0.080
-667.047	-157.430	0.400	0.024
-666.032	-99.591	0.100	0.025
-665.018	31.361	-0.101	-0.088
-664.003	-200.000	-0.073	0.355
-662.989	151.590	-0.067	-0.091
-661.974	330.463	-0.175	-0.340
-660.959	-200.000	-0.007	-0.092
-659.945	-22.714	0.132	0.080
-658.930	-200.000	0.056	-0.274
-657.916	115.065	0.171	-0.211
-656.901	-63.424	-0.222	-0.092
-655.886	800.000	0.045	-0.149
-654.872	-62.570	-0.211	0.088
-653.857	465.372	-0.175	0.393
-652.843	114.004	-0.081	-0.099
-651.828	124.266	0.158	0.200
-650.814	471.803	0.088	-0.199
-649.799	144.572	-0.045	-0.061
-648.784	36.064	0.124	-0.109
-647.770	-146.657	-0.503	-0.044
-646.755	-37.528	-0.156	-0.084
-645.741	81.881	-0.256	-0.279
-644.726	-51.349	0.361	-0.170
-643.711	-112.918	-0.402	0.080
-642.697	-79.579	0.167	-0.057
-641.682	-59.914	-0.303	-0.130
-640.668	684.148	0.070	0.184
-639.653	-9.946	-0.132	-0.088
-638.638	800.000	0.105	0.315
-637.624	-159.330	0.179	-0.010
-636.609	-77.150	0.328	0.115
-635.595	-200.000	0.011	-0.306
-634.580	75.413	0.101	-0.108
-633.565	-153.743	-0.298	-0.021
-632.551	12.814	-0.139	-0.108
-631.536	244.183	-0.122	-0.207
-630.522	215.282	0.136	-0.217
-629.507	110.762	0.060	0.072
-628.492	20.334	0.100	-0.081
-627.478	24.494	0.274	0.228
-626.463	29.978	0.093	0.079
-625.449	-200.000	0.023	0.234
-624.434	-64.936	0.082	0.033
-623.419	800.000	-0.101	-0.298
-622.405	800.000	0.054	0.215
-621.390	-200.000	0.010	-0.195
-620.376	-200.000	0.005	0.362
-619.361	-200.000	0.015	0.167
-618.346	129.999	-0.080	0.103
-617.332	226.949	-0.131	0.214
-616.317	-200.000	0.006	0.172
-615.303	50.033	0.181	0.171
-614.288	331.663	-0.143	-0.278
-613.273	200.185	0.161	0.249
-612.259	501.218	0.069	-0.160
-611.244	-87.124	0.175	0.054
-610.230	392.891	-0.074	-0.155
-609.215	-98.976	-0.176	-0.045
-608.201	165.474	0.109	-0.155
-607.186	-200.000	-0.040	-0.231
-606.171	-51.838	-0.339	-0.159
-605.157	42.593	-0.255	0.233
-604.142	88.776	0.087	-0.097
-603.128	-143.058	-0.083	-0.008
-602.113	0.996	0.226	-0.163
-601.098	-65.161	0.172	0.069
-600.084	41.696	-0.239	0.217
-599.069	303.491	0.051	-0.095
-598.055	800.000	0.049	0.176
-597.040	433.297	0.113	-0.246
-596.025	9.740	0.108	-0.082
-595.011	-144.660	-0.086	0.008
-593.996	-106.129	-0.114	-0.026
-592.982	698.917	0.077	-0.203
-591.967	800.000	-0.021	-0.074
-590.952	-200.000	-0.018	-0.116
-589.938	-108.698	0.235	0.051
-588.923	-75.507	-0.392	-0.140
-587.909	-42.300	-0.064	0.033
-586.894	-110.222	0.084	-0.018
-585.879	-45.952	0.146	-0.072
-584.865	168.021	-0.062	-0.089
-583.850	-46.106	0.290	-0.143
-582.836	800.000	-0.052	0.201
-581.821	-89.529	-0.128	-0.038
-580.806	253.660	-0.071	0.122
-579.792	-200.000	-0.025	-0.209
-578.777	-80.386	-0.044	-0.015
-577.763	146.862	0.158	-0.214
-576.748	-13.804	-0.331	-0.215
-575.733	800.000	0.107	-0.304
-574.719	408.083	-0.052	0.111
-573.704	-200.000	-0.001	-0.170
-572.690	50.895	-0.133	0.126
-571.675	355.322	-0.078	-0.155
-570.661	60.767	-0.077	-0.077
-569.646	-200.000	0.042	0.262
-568.631	800.000	0.043	-0.142
-567.617	594.672	0.179	0.445
-566.602	-200.000	-0.222	0.001
-565.588	559.539	-0.047	-0.114
-564.573	800.000	0.135	-0.415
-563.558	-160.261	0.117	-0.006
-562.544	-200.000	0.045	-0.253
-561.529	-79.807	0.133	-0.045
-560.515	164.886	-0.107	-0.151
-559.500	-200.000	0.016	0.129
-558.485	-200.000	0.014	0.186
-557.471	-200.000	0.058	-0.255
-556.456	750.190	0.061	-0.166
-555.442	353.370	-0.042	-0.084
-554.427	200.974	0.087	-0.134
-553.412	-90.145	0.304	-0.089
-552.398	513.642	-0.074	-0.174
-551.383	800.000	-0.043	-0.135
-550.369	-200.000	-0.047	0.459
-549.354	800.000	-0.046	-0.139
-548.339	-41.166	-0.153	0.079
-547.325	800.000	-0.053	0.229
-546.310	-163.342	-0.195	-0.009
-545.296	-145.241	-0.269	-0.024
-544.281	88.027	0.113	0.126
-543.266	800.000	0.055	0.159
-542.252	-106.264	0.042	0.009
-541.237	55.173	0.249	0.241
-540.223	28.051	0.323	-0.273
-539.208	-19.762	-0.274	-0.170
-538.193	43.069	0.054	0.050
-537.179	-200.000	0.028	0.150
-536.164	-200.000	-0.061	0.399
-535.150	182.098	-0.176	-0.259
-534.135	-66.553	-0.228	0.091
-533.121	-83.411	-0.292	-0.094
-532.106	-96.178	0.174	0.046
-531.091	425.100	0.173	-0.374
-530.077	-84.044	0.134	0.043
-529.062	166.884	-0.127	-0.181
-528.048	107.612	0.167	0.199
-527.033	-200.000	-0.008	-0.037
-526.018	47.728	-0.132	0.124
-525.004	800.000	-0.029	-0.083
-523.989	-129.042	-0.276	-0.039
-522.975	-57.244	-0.224	0.099
-521.960	70.020	0.241	-0.249
-520.945	-0.792	0.203	-0.144
-519.931	-89.331	-0.123	-0.036
-518.916	-50.455	-0.107	-0.051
-517.902	66.857	0.082	-0.083
-516.887	291.223	-0.262	-0.478
-515.872	-26.217	-0.158	-0.093
-514.858	-50.502	-0.132	0.062
-513.843	800.000	0.047	0.161
-512.829	80.190	0.108	-0.116
-511.814	-200.000	0.019	0.196
-510.799	-130.293	0.087	-0.012
-509.785	14.046	0.362	-0.282
-508.770	800.000	0.111	-0.343
-507.756	-200.000	0.045	0.402
-506.741	446.408	-0.155	0.341
-505.726	-46.831	-0.409	0.200
-504.712	-60.505	0.240	-0.102
-503.697	73.912	0.165	0.173
-502.683	-91.738	-0.085	0.024
-501.668	-12.124	-0.226	-0.148
-500.653	73.053	0.048	0.051
-499.639	461.337	-0.010	-0.022
-498.624	789.880	-0.155	0.426
-497.610	195.144	-0.090	-0.137
-496.595	-194.212	-0.066	-0.001
-495.581	286.971	-0.065	0.118
-494.566	-200.000	0.010	0.134
-493.551	-105.227	-0.248	-0.057
-492.537	-35.083	-0.220	-0.120
-491.522	764.632	-0.091	-0.248
-490.508	13.656	0.118	0.092
-489.493	170.269	-0.047	-0.067
-488.478	135.211	0.061	-0.079
-487.464	800.000	-0.049	0.157
-486.449	-3.692	-0.075	0.052
-485.435	350.767	0.157	0.311
-484.420	26.567	0.300	0.251
-483.405	-200.000	-0.041	0.401
-482.391	134.359	0.102	0.132
-481.376	82.238	0.185	-0.201
-480.362	94.048	-0.116	-0.131
-479.347	-173.758	-0.144	0.004
-478.332	-118.630	-0.093	0.017
-477.318	-200.000	0.001	-0.224
-476.303	206.980	-0.131	0.204
-475.289	335.297	-0.158	0.305
-474.274	51.750	-0.277	0.264
-473.259	-100.672	-0.248	0.061
-472.245	-200.000	-0.018	0.203
-471.230	471.110	0.068	0.153
-470.216	243.754	0.094	-0.158
-469.201	-102.654	-0.053	0.013
-468.186	-64.753	-0.076	0.031
-467.172	-88.257	-0.031	0.009
-466.157	563.687	0.065	-0.157
-465.143	-111.355	0.060	0.012
-464.128	83.933	0.047	0.051
-463.113	-200.000	0.000	0.090
-462.099	-51.191	-0.234	-0.110
-461.084	76.488	0.057	0.060
-460.070	-113.884	0.108	-0.021
-459.055	204.971	-0.010	-0.016
-458.040	-96.194	-0.058	0.015
-457.026	-36.971	-0.131	0.070
-456.011	-158.094	-0.143	-0.008
-454.997	35.582	-0.316	0.277
-453.982	-177.311	-0.278	0.007
-452.968	-94.467	-0.238	-0.065
-451.953	15.823	-0.054	-0.042
-450.938	-118.152	0.283	-0.050
-449.924	-75.567	-0.250	0.089
-448.909	-88.788	-0.118	-0.035
-447.895	-200.000	0.014	-0.295
-446.880	-125.655	-0.287	0.043
-445.865	-121.036	-0.167	0.028
-444.851	245.150	-0.003	-0.005
-443.836	263.748	0.167	0.290
-442.822	-200.000	-0.033	0.236
-441.807	-38.796	-0.137	0.072
-440.792	-200.000	0.077	-0.365
-439.778	-17.005	-0.179	-0.113
-438.763	622.811	0.092	-0.232
-437.749	-126.923	-0.491	0.072
-436.734	-162.465	0.299	0.015
-435.719	-2.270	0.228	0.159
-434.705	-200.000	-0.010	0.309
-433.690	-47.864	-0.125	0.060
-432.676	-40.322	-0.194	0.100
-431.661	182.183	0.128	0.188
-430.646	-139.206	0.306	0.033
-429.632	-31.356	0.274	-0.154
-428.617	-89.117	0.193	0.057
-427.603	-200.000	-0.019	0.327
-426.588	800.000	0.079	-0.242
-425.573	-16.252	-0.174	0.110
-424.559	-11.596	-0.050	-0.033
-423.544	-200.000	-0.000	0.018
-422.530	-34.808	0.276	0.151
-421.515	392.439	-0.151	0.314
-420.500	56.794	-0.296	-0.287
-419.486	800.000	0.084	-0.255
-418.471	343.055	0.104	-0.203
-417.457	-77.941	-0.126	0.043
-416.442	149.913	0.180	0.243
-415.428	-60.898	0.222	0.094
-414.413	97.451	-0.075	0.086
-413.398	-43.112	-0.076	-0.038
-412.384	-86.445	0.315	-0.097
-411.369	-77.854	-0.235	0.081
-410.355	-106.513	0.205	-0.046
-409.340	-113.223	-0.151	0.030
-408.325	-200.000	0.006	0.141
-407.311	800.000	-0.061	0.226
-406.296	-200.000	0.012	-0.076
-405.282	23.972	-0.273	-0.225
-404.267	800.000	0.101	-0.281
-403.252	7.145	-0.076	0.057
-402.238	-200.000	-0.008	0.213
-401.223	560.749	0.062	0.150
-400.209	-200.000	0.003	-0.060
-399.194	-42.868	-0.181	-0.092
-398.179	-142.640	0.111	-0.011
-397.165	-200.000	0.089	0.446
-396.150	181.964	-0.285	-0.418
-395.136	-135.591	0.287	-0.034
-394.121	78.867	0.186	0.198
-393.106	3.579	-0.294	-0.213
-392.092	-17.127	0.020	-0.012
-391.077	-50.584	-0.353	0.166
-390.063	-118.434	-0.168	-0.030
-389.048	-200.000	-0.009	0.148
-388.033	127.175	-0.107	-0.136
-387.019	254.884	0.073	-0.125
-386.004	-102.945	0.115	-0.027
-384.990	-95.965	0.162	-0.043
-383.975	93.479	0.340	-0.383
-382.960	800.000	0.086	-0.246
-381.946	191.333	-0.230	0.345
-380.931	-200.000	0.031	-0.251
-379.917	-101.001	-0.208	0.051
-378.902	-79.403	0.302	-0.102
-377.888	-72.589	0.229	0.084
-376.873	-27.668	-0.343	0.199
-375.858	89.557	0.229	-0.255
-374.844	794.993	0.060	0.165
-373.829	149.609	0.131	-0.177
-372.815	2.677	-0.116	0.084
-371.800	-21.825	0.154	0.094
-370.785	-52.205	0.233	-0.108
-369.771	-32.141	-0.111	-0.062
-368.756	-200.000	0.009	-0.169
-367.742	-200.000	0.033	-0.195
-366.727	180.810	0.065	0.096
-365.712	194.253	0.116	0.174
-364.698	152.207	0.085	-0.116
-363.683	639.512	0.039	-0.098
-362.669	114.289	-0.180	-0.219
-361.654	187.490	-0.136	-0.202
-360.639	-108.979	0.310	0.066
-359.625	-200.000	0.025	0.191
-358.610	800.000	0.041	0.129
-357.596	353.134	0.104	0.204
-356.581	-138.073	-0.080	-0.009
-355.566	-3.945	0.224	0.154
-354.552	24.743	0.358	-0.295
-353.537	-122.041	-0.212	0.035
-352.523	143.433	0.121	-0.160
-351.508	800.000	-0.049	-0.193
-350.493	648.156	-0.050	-0.128
-349.479	26.645	-0.167	0.139
-348.464	-15.990	-0.200	0.127
-347.450	323.744	0.051	0.096
-346.435	-86.476	0.231	-0.071
-345.420	800.000	0.106	0.392
-344.406	800.000	0.031	-0.090
-343.391	800.000	-0.080	-0.241
-342.377	-118.937	0.270	0.047
-341.362	-20.638	0.065	0.039
-340.348	-25.592	0.132	-0.077
-339.333	-15.141	-0.131	-0.083
-338.318	154.977	-0.093	0.128
-337.304	800.000	0.034	0.121
-336.289	337.546	-0.024	-0.046
-335.275	42.771	-0.264	0.240
-334.260	-23.186	0.161	0.096
-333.245	219.121	0.168	-0.266
-332.231	800.000	-0.009	-0.037
-331.216	-6.079	-0.211	-0.143
-330.202	800.000	0.053	0.148
-329.187	800.000	-0.076	0.317
-328.172	-59.849	-0.182	-0.077
-327.158	354.800	-0.092	0.182
-326.143	-35.726	-0.130	0.070
-325.129	181.944	-0.136	0.200
-324.114	97.139	0.205	-0.234
-323.099	800.000	0.093	-0.352
-322.085	-57.441	-0.146	-0.064
-321.070	200.677	-0.085	-0.129
-320.056	156.543	0.139	0.191
-319.041	-200.000	-0.004	0.089
-318.026	101.120	0.154	-0.178
-317.012	-123.454	-0.207	0.033
-315.997	-200.000	0.030	-0.511
-314.983	-73.703	0.124	0.045
-313.968	-200.000	0.016	-0.158
-312.953	-63.691	-0.128	0.052
-311.939	67.095	-0.153	-0.155
-310.924	61.549	0.244	-0.241
-309.910	-117.308	-0.431	0.078
-308.895	241.032	0.028	0.047
-307.880	545.873	-0.233	0.553
-306.866	21.810	0.055	0.044
-305.851	-55.184	0.212	0.095
-304.837	-150.813	0.046	-0.003
-303.822	-44.776	0.281	-0.139
-302.807	800.000	-0.025	-0.085
-301.793	-32.889	-0.134	-0.074
-300.778	16.850	-0.120	-0.095
-299.764	238.198	0.118	0.194
-298.749	-200.000	0.005	-0.075
-297.735	5.394	0.349	0.256
-296.720	-20.801	0.272	-0.166
-295.705	-200.000	0.019	0.127
-294.691	-186.571	0.261	0.004
-293.676	14.744	-0.009	-0.007
-292.662	-50.123	0.295	-0.139
-291.647	556.037	-0.010	0.024
-290.632	-79.807	0.086	0.029
-289.618	-200.000	0.046	-0.210
-288.603	164.355	0.133	-0.186
-287.589	-6.303	-0.137	-0.093
-286.574	143.910	-0.205	-0.271
-285.559	-79.329	0.084	0.028
-284.545	-76.447	-0.164	-0.057
-283.530	-44.889	0.137	-0.068
-282.516	-200.000	-0.072	0.328
-281.501	800.000	-0.071	0.303
-280.486	-164.485	0.121	0.005
-279.472	8.073	0.413	-0.307
-278.457	800.000	-0.032	-0.114
-277.443	-200.000	-0.048	-0.232
-276.428	262.953	0.029	0.050
-275.413	266.077	-0.165	0.285
-274.399	-200.000	-0.001	-0.045
-273.384	130.577	-0.040	0.050
-272.370	-134.484	-0.109	-0.013
-271.355	-60.616	-0.274	-0.115
-270.340	-40.542	0.211	-0.108
-269.326	136.634	0.080	-0.104
-268.311	235.090	0.233	0.382
-267.297	-120.394	-0.254	0.043
-266.282	-200.000	0.008	0.342
-265.267	-66.458	-0.153	0.060
-264.253	800.000	-0.044	0.123
-263.238	192.411	-0.135	0.202
-262.224	-140.020	0.207	-0.022
-261.209	56.806	-0.014	0.014
-260.195	36.964	0.418	0.366
-259.180	-117.501	0.220	0.039
-258.165	-60.400	0.244	-0.103
-257.151	746.714	0.057	0.152
-256.136	-98.574	-0.147	0.037
-255.122	29.394	-0.191	-0.161
-254.107	-71.602	-0.289	-0.107
-253.092	-16.317	-0.066	0.042
-252.078	131.138	0.145	0.184
-251.063	17.528	-0.191	0.150
-250.049	341.534	-0.039	0.076
-249.034	-200.000	0.007	-0.067
-248.019	-200.000	-0.017	0.218
-247.005	71.730	-0.241	0.248
-245.990	-83.365	-0.106	-0.034
-244.976	-31.259	0.220	-0.123
-243.961	158.895	-0.075	-0.103
-242.946	-142.754	-0.197	-0.019
-241.932	-56.682	-0.136	0.060
-240.917	800.000	0.027	-0.107
-239.903	48.725	0.153	-0.142
-238.888	-88.381	0.336	-0.100
-237.873	-200.000	-0.058	0.282
-236.859	-98.197	0.091	-0.023
-235.844	-24.214	-0.116	0.069
-234.830	267.675	0.074	0.128
-233.815	39.186	0.136	0.120
-232.800	-21.691	-0.234	-0.141
-231.786	100.323	0.157	0.181
-230.771	429.397	0.111	-0.238
-229.757	-72.156	0.213	-0.078
-228.742	538.111	0.057	0.135
-227.727	288.560	0.126	0.226
-226.713	696.922	-0.053	-0.139
-225.698	266.542	-0.118	-0.204
-224.684	-29.329	-0.339	-0.192
-223.669	248.167	-0.018	0.029
-222.655	-118.657	0.243	-0.042
-221.640	-32.141	-0.193	-0.107
-220.625	515.409	0.116	0.269
-219.611	-200.000	0.002	-0.187
-218.596	-87.670	0.290	-0.087
-217.582	-200.000	0.061	0.309
-216.567	-200.000	-0.001	0.179
-215.552	-200.000	-0.049	-0.339
-214.538	125.659	-0.197	0.246
-213.523	-119.237	0.330	0.057
-212.509	-94.296	-0.299	0.081
-211.494	193.370	0.105	-0.157
-210.479	-200.000	-0.030	-0.148
-209.465	11.189	0.015	-0.011
-208.450	17.358	-0.094	-0.074
-207.436	-200.000	0.008	-0.213
-206.421	6.297	-0.166	0.122
-205.406	-200.000	-0.082	-0.573
-204.392	-200.000	0.012	0.135
-203.377	-200.000	-0.012	0.218
-202.363	-82.496	-0.140	-0.045
-201.348	800.000	-0.096	0.310
-200.333	-120.873	-0.193	0.032
-199.319	42.930	0.101	-0.091
-198.304	-4.294	-0.200	0.137
-197.290	-137.855	-0.531	-0.059
-196.275	-51.867	0.155	-0.071
-195.260	-80.759	0.091	0.030
-194.246	-68.478	0.097	-0.037
-193.231	-49.683	0.095	-0.045
-192.217	100.631	0.136	0.156
-191.202	-6.889	0.165	-0.111
-190.187	-107.245	0.210	-0.046
-189.173	-85.938	0.347	-0.106
-188.158	-35.913	-0.038	0.021
-187.144	-61.749	-0.082	-0.034
-186.129	780.838	0.078	-0.211
-185.114	-85.387	0.281	0.087
-184.100	15.928	0.283	-0.221
-183.085	58.202	-0.461	0.446
-182.071	-38.055	-0.111	0.058
-181.056	-82.878	0.062	0.020
-180.042	-36.809	-0.177	0.094
-179.027	78.338	0.101	-0.107
-178.012	164.868	-0.080	0.111
-176.998	800.000	0.071	0.266
-175.983	-121.047	0.300	0.050
-174.969	-200.000	-0.073	-0.401
-173.954	800.000	-0.055	0.207
-172.939	74.183	-0.091	0.095
-171.925	-200.000	-0.014	0.158
-170.910	800.000	-0.035	-0.110
-169.896	-77.004	0.136	0.047
-168.881	-79.312	0.230	-0.077
-167.866	-102.054	0.212	0.050
-166.852	10.853	-0.081	-0.061
-165.837	296.826	0.131	0.238
-164.823	-49.103	0.242	0.114
-163.808	139.137	0.111	0.144
-162.793	35.949	0.040	-0.035
-161.779	214.858	0.059	-0.092
-160.764	-115.795	0.145	-0.027
-159.750	-200.000	-0.025	-0.235
-158.735	-183.249	0.147	-0.003
-157.720	800.000	-0.093	0.272
-156.706	174.046	0.121	0.173
-155.691	-200.000	0.009	-0.103
-154.677	800.000	0.090	-0.364
-153.662	-22.201	-0.050	-0.030
-152.647	-200.000	0.010	0.098
-151.633	-200.000	-0.013	0.085
-150.618	800.000	-0.156	0.533
-149.604	800.000	-0.049	-0.148
-148.589	-36.671	0.326	0.173
-147.574	-3.669	-0.186	-0.127
-146.560	17.966	-0.100	-0.078
-145.545	-92.023	0.154	0.043
-144.531	213.423	-0.141	0.219
-143.516	-94.342	0.061	-0.016
-142.502	-13.268	0.038	0.024
-141.487	142.921	0.103	0.135
-140.472	-179.732	-0.173	0.004
-139.458	-75.052	0.123	-0.044
-138.443	-44.601	0.135	0.067
-137.429	95.995	-0.246	-0.277
-136.414	-135.935	-0.231	-0.027
-135.399	-49.709	0.182	0.085
-134.385	40.797	0.054	0.048
-133.370	139.705	0.129	0.168
-132.356	367.292	0.086	0.171
-131.341	-155.709	-0.385	0.024
-130.326	800.000	0.053	0.156
-129.312	-200.000	-0.136	0.000
-128.297	105.646	-0.175	-0.204
-127.283	-68.175	0.225	-0.086
-126.268	-120.891	0.343	-0.057
-125.253	-106.086	-0.136	-0.030
-124.239	800.000	-0.035	-0.105
-123.224	-5.935	-0.348	0.235
-122.210	651.858	0.074	-0.187
-121.195	17.522	0.251	0.197
-120.180	-172.204	0.303	0.010
-119.166	-177.753	0.241	-0.006
-118.151	-52.831	-0.382	-0.174
-117.137	800.000	-0.057	-0.205
-116.122	445.957	-0.160	0.347
-115.107	-200.000	-0.003	0.074
-114.093	-155.461	-0.286	0.018
-113.078	716.154	-0.096	0.252
-112.064	544.631	-0.078	0.183
-111.049	82.796	-0.185	-0.198
-110.034	-98.609	-0.201	0.051
-109.020	-200.000	-0.002	-0.127
-108.005	59.872	-0.171	0.167
-106.991	750.493	-0.084	0.224
-105.976	-200.000	0.062	0.409
-104.962	581.294	-0.075	-0.181
-103.947	122.493	-0.197	-0.243
-102.932	330.645	-0.152	-0.289
-101.918	-174.401	0.189	-0.005
-100.903	800.000	0.054	0.183
-99.889	5.907	0.132	-0.096
-98.874	796.685	-0.133	0.361
-97.859	187.894	0.157	-0.231
-96.845	101.568	0.167	0.192
-95.830	626.190	-0.069	0.172
-94.816	790.673	0.071	0.192
-93.801	-44.657	0.259	-0.127
-92.786	-200.000	-0.005	0.120
-91.772	800.000	0.039	-0.130
-90.757	-152.471	0.205	-0.014
-89.743	-200.000	-0.042	-0.182
-88.728	-67.596	-0.153	-0.059
-87.713	800.000	-0.037	0.135
-86.699	76.487	0.099	-0.103
-85.684	-200.000	-0.021	-0.285
-84.670	-84.531	0.152	-0.047
-83.655	-94.999	-0.052	0.014
-82.640	427.728	-0.041	-0.086
-81.626	-200.000	0.002	-0.295
-80.611	8.130	-0.162	0.120
-79.597	800.000	-0.021	0.068
-78.582	800.000	-0.058	-0.159
-77.567	800.000	-0.045	0.138
-76.553	800.000	0.027	0.076
-75.538	1.382	0.314	0.222
-74.524	-77.486	-0.263	0.090
-73.509	-72.222	-0.076	0.028
-72.494	-200.000	0.039	0.237
-71.480	-94.347	-0.254	-0.068
-70.465	-177.569	0.200	0.005
-69.451	800.000	-0.023	0.079
-68.436	234.746	-0.201	-0.325
-67.422	391.238	-0.060	0.122
-66.407	800.000	0.030	0.098
-65.392	-73.780	0.043	-0.015
-64.378	137.596	0.110	-0.141
-63.363	-139.906	-0.387	0.040
-62.349	6.335	0.251	0.183
-61.334	56.129	-1.298	-1.240
-60.319	30.151	0.629	0.528
-59.305	204.072	-0.718	-1.094
-58.290	322.714	0.568	1.064
-57.276	800.000	0.475	1.393
-56.261	-200.000	116.688	653.650
-55.246	510.850	1537.993	3519.922
-54.232	171.707	2719.890	3841.975
-53.217	97.287	2337.466	2638.816
-52.203	33.447	2081.164	1777.533
-51.188	28.599	1995.963	1660.936
-50.173	27.273	1978.784	1634.670
-49.159	45.058	2038.490	1846.787
-48.144	43.832	2053.471	1849.097
-47.130	29.041	2012.438	1678.416
-46.115	26.864	2001.485	1649.439
-45.100	26.752	1999.145	1646.435
-44.086	26.875	1995.956	1644.855
-43.071	26.700	1993.754	1641.391
-42.057	26.653	1991.542	1639.082
-41.042	26.639	1990.215	1637.799
-40.027	26.667	1988.448	1636.534
-39.013	26.707	1985.922	1634.746
-37.998	26.685	1985.014	1633.736
-36.984	26.688	1982.428	1631.569
-35.969	26.695	1980.529	1630.007
-34.954	26.680	1978.770	1628.355
-33.940	26.774	1977.283	1627.914
-32.925	26.835	1975.741	1627.126
-31.911	26.830	1974.155	1625.714
-30.896	26.771	1972.368	1623.645
-29.881	26.862	1970.658	1622.992
-28.867	26.884	1969.123	1621.854
-27.852	26.856	1967.340	1620.073
-26.838	26.890	1965.309	1618.637
-25.823	26.811	1963.735	1616.576
-24.809	26.887	1961.560	1615.397
-23.794	26.882	1959.863	1613.891
-22.779	26.842	1958.036	1611.964
-21.765	26.798	1957.070	1610.719
-20.750	26.827	1955.715	1609.795
-19.736	26.901	1953.156	1608.279
-18.721	26.877	1951.642	1606.756
-17.706	26.746	1950.836	1604.874
-16.692	26.889	1948.450	1604.108
-15.677	26.939	1947.027	1603.314
-14.663	26.950	1945.505	1602.099
-13.648	26.841	1944.998	1600.650
-12.633	26.806	1943.470	1599.027
-11.619	26.824	1941.730	1597.691
-10.604	26.769	1940.404	1596.044
-9.590	26.761	1939.128	1594.864
-8.575	26.786	1937.712	1593.853
-7.560	26.824	1936.323	1592.981
-6.546	26.865	1934.756	1591.991
-5.531	26.872	1933.659	1591.088
-4.517	26.892	1932.469	1590.221
-3.502	26.814	1931.310	1588.521
-2.487	26.871	1930.125	1587.982
-1.473	26.834	1929.801	1587.331
-0.458	26.907	1924.152	1583.260
0.556	27.611	1904.438	1554.457
1.571	23.255	1885.505	1502.004
2.586	19.211	1908.698	1485.543
3.600	18.121	1944.613	1503.784
4.615	17.668	1937.593	1494.252
5.629	13.457	1835.731	1380.520
6.644	6.608	1722.588	1241.559
7.659	3.629	1690.204	1195.080
8.673	3.431	1687.014	1191.187
9.688	3.385	1686.097	1190.077
10.702	3.381	1684.218	1188.621
11.717	3.403	1680.858	1186.311
12.731	3.789	1680.330	1188.800
13.746	8.412	1690.568	1231.648
14.761	15.845	1707.366	1301.448
15.775	19.846	1714.435	1337.726
16.790	20.121	1713.718	1339.171
17.804	19.304	1710.487	1330.227
18.819	18.310	1706.982	1319.722
19.834	17.665	1705.094	1313.182
20.848	17.509	1703.239	1310.431
21.863	17.384	1701.962	1308.376
22.877	17.082	1700.774	1305.022
23.892	16.885	1699.627	1302.518
24.907	16.815	1698.253	1300.807
25.921	16.894	1697.070	1300.390
26.936	16.847	1695.963	1299.072
27.950	16.853	1695.407	1298.577
28.965	16.766	1695.184	1297.623
29.980	16.931	1693.863	1297.758
30.994	17.069	1692.908	1297.972
32.009	17.140	1691.942	1297.656
33.023	17.285	1690.406	1297.473
34.038	17.184	1689.982	1296.261
35.053	17.111	1689.192	1294.981
36.067	17.124	1687.727	1293.845
37.082	17.002	1686.302	1291.704
38.096	16.975	1685.789	1290.991
39.111	17.040	1684.945	1290.728
40.126	17.098	1683.748	1290.139
41.140	17.041	1683.367	1289.300
42.155	16.938	1681.133	1286.689
43.169	16.772	1679.303	1283.921
44.184	16.655	1678.487	1282.292
45.199	16.663	1677.096	1281.181
46.213	16.604	1676.381	1280.071
47.228	16.744	1674.987	1279.952
48.242	16.894	1673.811	1280.077
49.257	16.931	1673.243	1279.806
50.271	16.929	1671.515	1278.355
51.286	16.907	1670.351	1277.188
52.301	16.889	1669.282	1276.120
53.315	16.931	1667.478	1274.944
54.330	17.009	1666.054	1274.331
55.344	16.808	1664.278	1271.348
56.359	16.706	1662.636	1269.217
57.374	16.756	1662.014	1269.005
58.388	16.815	1660.693	1268.324
59.403	16.746	1659.521	1266.805
60.417	16.646	1658.071	1264.838
61.432	16.666	1656.215	1263.458
62.447	16.665	1656.275	1263.383
63.461	16.571	1654.431	1261.168
64.476	16.543	1653.660	1260.260
65.490	16.538	1651.927	1258.792
66.505	16.504	1650.763	1257.538
67.520	16.516	1650.109	1257.019
68.534	16.615	1648.837	1256.676
69.549	16.547	1647.933	1255.366
70.563	16.537	1646.532	1254.118
71.578	16.551	1645.009	1252.945
72.593	16.489	1644.262	1251.808
73.607	16.439	1642.988	1250.356
74.622	16.376	1642.113	1249.115
75.636	16.418	1640.714	1248.255
76.651	16.492	1639.748	1247.950
77.666	16.476	1639.314	1247.391
78.680	16.458	1638.653	1246.645
79.695	16.438	1637.707	1245.668
80.709	16.545	1636.433	1245.380
81.724	16.462	1636.202	1244.479
82.739	16.634	1635.110	1244.808
83.753	16.722	1634.451	1244.845
84.768	16.838	1633.250	1244.671
85.782	16.959	1632.621	1244.967
86.797	16.988	1632.058	1244.643
87.812	17.061	1630.868	1244.156
88.826	16.893	1629.876	1242.064
89.841	16.905	1628.644	1241.099
90.855	16.903	1627.871	1240.387
91.870	16.966	1626.734	1239.869
92.884	16.993	1625.819	1239.259
93.899	17.033	1624.775	1238.646
94.914	17.073	1623.473	1237.837
95.928	17.100	1622.559	1237.225
96.943	17.222	1620.562	1236.482
97.957	17.071	1619.284	1234.302
98.972	17.035	1618.252	1233.141
99.987	16.922	1616.671	1231.011
101.001	16.955	1614.541	1229.518
102.016	16.959	1613.343	1228.527
103.030	17.056	1611.805	1227.947
104.045	16.902	1611.377	1226.398
105.060	17.047	1609.250	1225.721
106.074	16.922	1607.710	1223.536
107.089	16.802	1606.261	1221.458
108.103	16.691	1604.067	1218.882
109.118	16.632	1602.863	1217.434
110.133	16.477	1601.745	1215.369
111.147	16.520	1600.219	1214.412
112.162	16.522	1598.838	1213.270
113.176	16.570	1597.143	1212.221
114.191	16.597	1596.206	1211.591
115.206	16.725	1595.138	1211.593
116.220	16.793	1593.305	1210.578
117.235	16.694	1592.296	1208.996
118.249	16.644	1591.101	1207.624
119.264	16.607	1589.945	1206.379
120.279	16.628	1588.387	1205.238
121.293	16.545	1586.967	1203.468
122.308	16.585	1585.234	1202.325
123.322	16.550	1583.067	1200.330
124.337	16.459	1581.630	1198.490
125.352	16.455	1580.629	1197.598
126.366	16.434	1579.907	1196.793
127.381	16.371	1578.555	1195.220
128.395	16.412	1577.804	1194.833
129.410	16.453	1576.185	1193.791
130.424	16.463	1574.998	1192.860
131.439	16.516	1573.491	1191.987
132.454	16.614	1572.227	1191.613
133.468	16.679	1570.861	1190.929
134.483	16.754	1568.900	1189.863
135.497	16.725	1567.796	1188.715
136.512	16.688	1566.949	1187.711
137.527	16.625	1565.690	1186.210
138.541	16.612	1564.664	1185.234
139.556	16.704	1563.380	1184.804
140.570	16.796	1561.484	1183.902
141.585	16.904	1560.223	1183.594
142.600	16.947	1559.209	1183.020
143.614	16.954	1558.314	1182.287
144.629	17.106	1556.642	1181.972
145.643	17.113	1555.388	1180.965
146.658	17.168	1553.968	1180.162
147.673	17.125	1552.422	1178.590
148.687	16.995	1551.649	1176.996
149.702	16.946	1549.633	1175.023
150.716	16.882	1548.126	1173.335
151.731	16.762	1546.652	1171.282
152.746	16.790	1545.426	1170.445
153.760	16.836	1543.791	1169.417
154.775	16.843	1542.916	1168.698
155.789	16.979	1541.799	1168.689
156.804	17.047	1540.281	1167.902
157.819	17.053	1539.519	1167.262
158.833	17.023	1538.071	1165.852
159.848	17.241	1536.648	1166.170
160.862	17.233	1536.375	1165.800
161.877	17.251	1534.968	1164.753
162.892	17.142	1533.135	1162.513
163.906	16.959	1532.191	1160.446
164.921	16.895	1530.696	1158.773
165.935	16.920	1529.769	1158.137
166.950	16.860	1528.521	1156.680
167.964	16.968	1527.616	1156.634
168.979	17.130	1526.134	1156.508
169.994	17.026	1525.212	1155.002
171.008	16.875	1524.320	1153.198
172.023	17.033	1522.487	1152.783
173.037	16.981	1522.152	1152.073
174.052	17.091	1521.209	1152.004
175.067	17.210	1520.003	1151.799
176.081	17.115	1518.689	1150.054
177.096	16.968	1517.138	1147.781
178.110	16.975	1515.629	1146.590
179.125	16.975	1514.680	1145.769
180.140	17.038	1513.842	1145.460
181.154	17.049	1512.761	1144.616
182.169	17.053	1511.809	1143.818
183.183	17.243	1510.090	1143.697
184.198	17.240	1509.308	1142.980
185.213	17.274	1508.743	1142.683
186.227	17.272	1507.418	1141.563
187.242	17.378	1506.198	1141.249
188.256	17.425	1505.022	1140.574
189.271	17.413	1504.357	1139.890
190.286	17.468	1503.510	1139.511
191.300	17.304	1502.427	1137.497
192.315	17.195	1500.719	1135.373
193.329	16.918	1499.395	1132.421
194.344	16.877	1498.181	1131.131
195.359	16.937	1497.061	1130.587
196.373	17.079	1495.896	1130.552
197.388	17.159	1495.466	1130.657
198.402	17.339	1493.990	1130.638
199.417	17.370	1493.221	1130.162
200.432	17.430	1492.437	1129.871
201.446	17.574	1491.471	1129.991
202.461	17.571	1490.362	1129.031
203.475	17.739	1488.892	1128.933
204.490	17.856	1487.526	1128.567
205.504	17.679	1487.036	1126.926
206.519	17.554	1485.588	1124.905
207.534	17.533	1484.183	1123.601
208.548	17.421	1483.531	1122.273
209.563	17.457	1481.993	1121.244
210.577	17.369	1481.395	1120.117
211.592	17.470	1480.338	1119.883
212.607	17.572	1479.263	1119.639
213.621	17.637	1479.340	1120.025
214.636	17.651	1478.404	1119.308
215.650	17.575	1477.325	1117.891
216.665	17.683	1476.227	1117.672
217.680	17.605	1476.529	1117.288
218.694	17.723	1474.770	1116.636
219.709	17.875	1474.176	1117.079
220.723	17.879	1472.707	1115.897
221.738	17.802	1471.973	1114.737
222.753	17.843	1471.052	1114.209
223.767	17.813	1470.408	1113.427
224.782	17.806	1469.061	1112.261
225.796	17.842	1468.243	1111.779
226.811	17.975	1467.395	1111.905
227.826	17.973	1467.235	1111.674
228.840	18.049	1465.403	1110.682
229.855	17.738	1464.900	1108.177
230.869	17.866	1463.756	1108.049
231.884	17.811	1462.925	1106.965
232.899	17.785	1462.009	1106.000
233.913	17.748	1460.473	1104.504
234.928	17.690	1459.589	1103.363
235.942	17.665	1458.058	1101.946
236.957	17.707	1456.631	1101.039
237.972	17.648	1455.585	1099.770
238.986	17.602	1454.495	1098.557
240.001	17.650	1453.976	1098.376
241.015	17.737	1452.633	1097.819
242.030	17.661	1451.498	1096.381
243.045	17.723	1450.441	1095.884
244.059	17.859	1449.559	1095.995
245.074	17.908	1448.558	1095.453
246.088	17.958	1448.153	1095.370
247.103	17.921	1447.613	1094.626
248.117	18.051	1446.771	1094.730
249.132	18.124	1445.698	1094.286
250.147	18.234	1444.912	1094.297
251.161	18.356	1444.905	1094.973
252.176	18.473	1444.077	1095.000
253.190	18.487	1443.741	1094.735
254.205	18.551	1442.497	1094.102
255.220	18.561	1441.879	1093.604
256.234	18.588	1441.492	1093.387
257.249	18.578	1440.257	1092.290
258.263	18.506	1439.334	1091.035
259.278	18.478	1438.302	1089.978
260.293	18.617	1437.344	1090.033
261.307	18.574	1436.844	1089.288
262.322	18.634	1436.089	1088.998
263.336	18.673	1435.071	1088.380
264.351	18.731	1434.130	1087.936
265.366	18.684	1433.671	1087.193
266.380	18.670	1432.646	1086.230
267.395	18.784	1431.217	1085.772
268.409	18.700	1430.721	1084.771
269.424	18.729	1428.951	1083.515
270.439	18.463	1428.039	1081.050
271.453	18.603	1427.319	1081.289
272.468	18.563	1426.592	1080.393
273.482	18.492	1425.927	1079.350
274.497	18.490	1424.696	1078.309
275.512	18.561	1423.768	1077.954
276.526	18.640	1422.544	1077.427
277.541	18.548	1421.779	1076.175
278.555	18.566	1420.690	1075.372
279.570	18.637	1420.266	1075.402
280.585	18.694	1419.195	1074.852
281.599	18.820	1418.646	1075.130
282.614	18.911	1417.405	1074.663
283.628	18.709	1416.185	1072.379
284.643	18.656	1415.486	1071.422
285.657	18.652	1414.191	1070.325
286.672	18.713	1413.292	1069.933
287.687	18.653	1412.317	1068.720
288.701	18.656	1411.526	1068.051
289.716	18.780	1410.617	1068.037
290.730	18.691	1410.200	1067.072
291.745	18.731	1408.885	1066.231
292.760	18.794	1407.493	1065.474
293.774	18.858	1406.985	1065.396
294.789	18.907	1405.625	1064.574
295.803	18.956	1405.137	1064.415
296.818	18.948	1403.899	1063.330
297.833	18.895	1403.332	1062.482
298.847	18.766	1402.019	1060.598
299.862	18.884	1401.216	1060.620
300.876	18.875	1399.768	1059.376
301.891	19.076	1398.663	1059.684
302.906	18.954	1398.621	1058.809
303.920	18.984	1397.965	1058.400
304.935	19.041	1396.971	1057.909
305.949	19.204	1396.215	1058.240
306.964	19.144	1395.902	1057.540
307.979	19.265	1394.626	1057.225
308.993	19.251	1393.396	1056.112
310.008	19.147	1392.487	1054.697
311.022	19.095	1391.691	1053.682
312.037	19.106	1390.934	1053.081
313.052	19.296	1389.555	1053.107
314.066	19.195	1388.873	1051.877
315.081	19.164	1387.555	1050.596
316.095	19.073	1386.254	1048.964
317.110	19.005	1385.251	1047.696
318.125	18.900	1384.112	1046.104
319.139	19.091	1382.900	1046.257
320.154	18.969	1382.325	1044.988
321.168	18.962	1381.425	1044.171
322.183	19.045	1380.269	1043.711
323.197	19.035	1379.290	1042.820
324.212	19.054	1378.746	1042.428
325.227	19.089	1378.079	1042.042
326.241	19.167	1376.896	1041.530
327.256	19.065	1376.074	1040.199
328.270	19.182	1374.884	1039.916
329.285	19.037	1374.422	1038.596
330.300	19.097	1373.332	1038.044
331.314	19.089	1372.520	1037.292
332.329	19.147	1371.547	1036.813
333.343	19.042	1370.649	1035.409
334.358	19.217	1369.538	1035.530
335.373	19.281	1368.995	1035.412
336.387	19.274	1368.329	1034.778
337.402	19.223	1368.069	1034.182
338.416	19.266	1367.379	1033.829
339.431	19.468	1366.428	1034.226
340.446	19.523	1365.447	1033.724
341.460	19.454	1364.964	1032.849
342.475	19.588	1363.776	1032.665
343.489	19.589	1362.989	1031.979
344.504	19.607	1362.313	1031.484
345.519	19.685	1361.777	1031.453
346.533	19.807	1360.543	1031.158
347.548	19.866	1359.338	1030.504
348.562	19.886	1358.821	1030.138
349.577	19.789	1357.762	1028.668
350.592	19.740	1356.902	1027.634
351.606	19.665	1355.677	1026.168
352.621	19.564	1354.703	1024.743
353.635	19.462	1354.068	1023.568
354.650	19.619	1352.657	1023.338
355.665	19.495	1351.508	1021.648
356.679	19.475	1350.499	1020.673
357.694	19.556	1349.523	1020.327
358.708	19.764	1348.245	1020.495
359.723	19.702	1347.301	1019.327
360.738	19.809	1346.288	1019.100
361.752	19.714	1345.667	1017.979
362.767	19.720	1344.521	1017.058
363.781	19.742	1343.152	1016.064
364.796	19.809	1342.785	1016.087
365.810	19.827	1342.148	1015.620
366.825	19.856	1341.601	1015.285
367.840	19.911	1341.155	1015.186
368.854	20.109	1340.192	1015.528
369.869	20.083	1339.695	1014.908
370.883	20.153	1339.555	1015.118
371.898	19.961	1338.679	1013.242
372.913	20.009	1337.461	1012.511
373.927	19.938	1336.732	1011.457
374.942	19.996	1335.599	1010.848
375.956	20.179	1334.902	1011.297
376.971	20.157	1334.099	1010.474
377.986	20.054	1333.404	1009.256
379.000	20.099	1332.608	1008.827
380.015	20.293	1331.752	1009.218
381.029	20.188	1331.138	1008.054
382.044	20.322	1330.674	1008.391
383.059	20.300	1329.858	1007.556
384.073	20.328	1328.723	1006.767
385.088	20.331	1328.172	1006.281
386.102	20.427	1327.360	1006.129
387.117	20.393	1326.820	1005.436
388.132	20.275	1325.992	1004.037
389.146	20.165	1324.727	1002.356
390.161	20.232	1323.720	1001.893
391.175	20.222	1323.108	1001.283
392.190	20.056	1322.618	999.862
393.205	20.234	1321.409	999.887
394.219	20.271	1320.937	999.655
395.234	20.334	1319.692	998.985
396.248	20.373	1318.127	997.938
397.263	20.327	1316.766	996.553
398.278	20.239	1315.656	995.124
399.292	20.275	1314.245	994.175
400.307	20.108	1313.504	992.568
401.321	20.031	1312.632	991.380
402.336	20.028	1311.273	990.250
403.350	20.167	1310.051	990.035
404.365	20.113	1309.078	988.904
405.380	20.068	1308.498	988.121
406.394	20.173	1307.279	987.710
407.409	20.293	1306.898	988.017
408.423	20.376	1306.637	988.203
409.438	20.418	1305.817	987.739
410.453	20.460	1305.127	987.363
411.467	20.450	1304.228	986.544
412.482	20.532	1304.308	986.982
413.496	20.668	1303.325	986.923
414.511	20.655	1302.475	986.115
415.526	20.671	1302.292	985.978
416.540	20.760	1301.171	985.551
417.555	20.840	1300.178	985.160
418.569	20.830	1299.832	984.755
419.584	20.817	1299.122	984.059
420.599	20.699	1298.837	983.089
421.613	145.085	1436.090	1795.958
422.628	140.323	1456.034	1796.026
