DTS Sentinel unit serial number:	SN413079Multiplexer serial number:	ORYXHardware model number:	OX4-SRSoftware version number:	ORYX F/W v4.00 Oryx Data Collector v3.7.2.0data status	okinstallation	princeton_trtdifferential loss correction	single-endedforward channel	channel 4reverse channel	N/Adate	2019/09/19time	06:53:35forward acquisition time	60.00reverse acquisition time	0.00gamma	496.2192k internal	0.2340k external	0.2340temperature offset calibration	1.0026default loss term (dB/km)	0.3790temperature slope calibration	1.0000multiplexer offset coefficient	1.0000multiplexer slope coefficient	1.0000fibre end	0.00T internal ref (°C)	19.00T ext. ref 1 (°C)	0.56T ext. ref 2 (°C)	12.70length (m)	temperature (°C)	Stokes	anti-Stokes-747.200	-200.000	0.013	-0.160
-746.185	58.856	-0.201	0.199
-745.171	27.110	-0.143	-0.120
-744.156	800.000	0.119	0.332
-743.142	13.522	0.138	-0.107
-742.127	167.379	0.021	0.030
-741.112	37.588	0.082	0.073
-740.098	800.000	-0.038	0.166
-739.083	800.000	0.099	0.276
-738.069	213.333	0.098	0.155
-737.054	-146.933	0.268	0.023
-736.039	-82.093	-0.330	-0.108
-735.025	-200.000	0.040	0.195
-734.010	-200.000	-0.037	-0.369
-732.996	800.000	-0.050	-0.191
-731.981	-200.000	0.055	0.278
-730.966	-92.130	0.282	0.080
-729.952	1.412	-0.296	0.213
-728.937	94.282	0.174	-0.198
-727.923	-200.000	0.050	-0.223
-726.908	-84.442	-0.363	-0.115
-725.894	-14.445	0.193	0.124
-724.879	215.287	0.132	-0.210
-723.864	-35.000	-0.268	0.147
-722.850	419.858	0.102	0.218
-721.835	63.927	0.175	-0.176
-720.821	196.143	0.167	0.254
-719.806	-111.005	0.178	-0.037
-718.791	-200.000	-0.060	0.283
-717.777	-50.295	0.229	0.109
-716.762	-67.896	-0.056	0.022
-715.748	0.849	-0.291	-0.209
-714.733	100.100	-0.110	-0.128
-713.718	-200.000	0.020	-0.257
-712.704	-41.332	0.258	-0.133
-711.689	800.000	0.113	0.402
-710.675	196.745	-0.185	-0.283
-709.660	-51.789	0.063	0.030
-708.645	-82.958	-0.427	0.138
-707.631	-200.000	0.040	0.289
-706.616	-140.415	-0.088	0.009
-705.602	-69.236	-0.099	-0.038
-704.587	0.897	-0.275	0.197
-703.572	-85.054	-0.219	-0.069
-702.558	-47.825	0.434	0.210
-701.543	-165.005	-0.272	-0.012
-700.529	625.091	0.022	0.055
-699.514	-39.864	-0.453	-0.237
-698.499	-108.228	0.259	0.056
-697.485	283.407	0.084	0.151
-696.470	54.510	0.127	-0.123
-695.456	-200.000	-0.021	-0.175
-694.441	-63.703	-0.184	0.076
-693.426	300.281	0.079	0.146
-692.412	-51.668	-0.084	0.039
-691.397	-200.000	0.002	0.127
-690.383	-170.494	-0.327	0.011
-689.368	-104.626	0.339	-0.078
-688.354	-132.522	-0.210	0.027
-687.339	233.518	-0.210	0.346
-686.324	117.283	-0.067	0.082
-685.310	77.840	0.170	0.182
-684.295	298.335	0.126	0.232
-683.281	-65.583	-0.064	0.026
-682.266	-92.427	-0.126	0.036
-681.251	171.304	0.227	-0.325
-680.237	-200.000	-0.039	-0.190
-679.222	262.286	-0.164	-0.285
-678.208	11.930	-0.300	-0.230
-677.193	-82.488	0.120	-0.039
-676.178	-200.000	-0.008	-0.099
-675.164	-88.062	0.330	0.099
-674.149	-77.961	-0.208	0.072
-673.135	-97.431	0.266	-0.069
-672.120	25.533	-0.094	-0.078
-671.105	205.841	-0.025	0.039
-670.091	800.000	0.092	-0.328
-669.076	-200.000	0.047	0.353
-668.062	333.126	-0.056	-0.108
-667.047	-28.273	0.061	-0.035
-666.032	300.028	0.167	0.307
-665.018	-200.000	0.026	-0.344
-664.003	82.690	0.088	0.096
-662.989	-76.806	-0.306	0.107
-661.974	-200.000	0.006	0.408
-660.959	-117.156	-0.186	0.034
-659.945	55.300	-0.121	-0.117
-658.930	-119.694	0.376	-0.065
-657.916	377.204	-0.193	0.395
-656.901	490.779	-0.137	0.313
-655.886	166.104	-0.140	0.199
-654.872	-30.081	-0.082	-0.047
-653.857	-61.513	-0.247	-0.104
-652.843	-102.041	0.221	-0.053
-651.828	-116.448	-0.229	-0.042
-650.814	-83.095	-0.130	0.042
-649.799	243.892	-0.197	-0.329
-648.784	71.869	-0.098	0.101
-647.770	-159.705	-0.252	0.014
-646.755	-63.065	-0.194	-0.080
-645.741	-200.000	0.025	-0.430
-644.726	234.215	-0.097	-0.160
-643.711	-200.000	0.007	0.175
-642.697	584.760	0.016	0.040
-641.682	-17.656	-0.091	0.057
-640.668	204.087	-0.181	0.280
-639.653	191.730	-0.121	0.182
-638.638	19.334	-0.153	0.122
-637.624	44.990	-0.208	0.191
-636.609	251.686	0.122	0.207
-635.595	-9.767	-0.113	-0.075
-634.580	800.000	0.046	-0.173
-633.565	716.262	-0.110	-0.292
-632.551	2.056	-0.345	-0.249
-631.536	-116.949	-0.292	0.053
-630.522	-169.647	-0.282	-0.010
-629.507	-32.499	0.082	0.045
-628.492	-107.884	-0.213	0.046
-627.478	-200.000	0.008	-0.225
-626.463	28.444	0.236	0.199
-625.449	-77.818	-0.235	0.081
-624.434	-51.740	0.277	-0.129
-623.419	-50.992	-0.343	0.161
-622.405	-200.000	-0.018	-0.138
-621.390	20.713	0.121	0.098
-620.376	280.533	0.230	-0.410
-619.361	-13.181	-0.140	0.091
-618.346	598.147	0.073	0.181
-617.332	-73.038	0.122	-0.045
-616.317	-19.345	0.199	-0.123
-615.303	627.438	-0.052	-0.132
-614.288	-200.000	-0.020	-0.185
-613.273	-124.368	-0.234	-0.036
-612.259	-12.486	-0.267	0.174
-611.244	-200.000	0.004	-0.076
-610.230	275.209	-0.115	0.203
-609.215	-200.000	-0.017	-0.294
-608.201	-43.778	-0.319	0.160
-607.186	-59.706	-0.271	0.116
-606.171	-126.228	-0.132	0.020
-605.157	800.000	-0.084	0.238
-604.142	-200.000	0.026	0.123
-603.128	72.837	-0.258	0.268
-602.113	-200.000	-0.014	-0.220
-601.098	16.066	-0.454	-0.357
-600.084	-200.000	-0.014	0.110
-599.069	83.238	0.189	0.205
-598.055	800.000	-0.023	-0.094
-597.040	-57.482	-0.108	0.047
-596.025	-200.000	0.033	-0.186
-595.011	120.161	0.247	0.306
-593.996	-63.242	-0.271	-0.111
-592.982	117.768	0.042	-0.052
-591.967	-200.000	0.006	0.187
-590.952	-200.000	0.024	0.363
-589.938	-47.232	-0.207	-0.101
-588.923	-38.817	0.084	-0.044
-587.909	455.316	0.182	0.401
-586.894	-113.586	0.180	0.035
-585.879	502.295	0.038	0.087
-584.865	-191.260	-0.172	0.002
-583.850	-123.672	-0.195	-0.031
-582.836	1.729	0.101	0.073
-581.821	-131.509	0.034	0.004
-580.806	-105.327	0.290	0.066
-579.792	-200.000	0.030	-0.226
-578.777	-11.739	-0.102	-0.067
-577.763	-95.298	-0.253	0.068
-576.748	58.084	0.134	0.131
-575.733	-61.463	-0.028	0.012
-574.719	-200.000	0.027	0.200
-573.704	-90.046	-0.180	0.052
-572.690	-39.254	-0.158	-0.083
-571.675	-200.000	0.039	-0.266
-570.661	662.548	-0.138	-0.354
-569.646	-120.365	-0.238	0.040
-568.631	9.594	-0.103	0.078
-567.617	-47.374	0.214	0.104
-566.602	-57.438	0.120	-0.052
-565.588	94.466	0.114	-0.128
-564.573	-37.472	0.385	-0.205
-563.558	-200.000	-0.002	0.033
-562.544	-162.594	-0.349	-0.017
-561.529	800.000	-0.037	0.113
-560.515	25.827	0.263	0.218
-559.500	73.621	-0.130	0.136
-558.485	-46.406	0.323	-0.158
-557.471	339.600	0.116	0.225
-556.456	-136.305	0.204	0.024
-555.442	-95.577	-0.308	-0.082
-554.427	11.676	-0.308	0.235
-553.412	-56.582	0.109	-0.048
-552.398	-17.010	-0.445	0.280
-551.383	141.473	-0.168	-0.221
-550.369	-90.058	0.244	-0.071
-549.354	188.714	-0.206	-0.307
-548.339	-200.000	-0.007	-0.244
-547.325	505.238	0.103	-0.238
-546.310	48.854	-0.064	0.059
-545.296	252.035	-0.137	0.232
-544.281	-31.658	0.320	0.178
-543.266	-77.595	-0.068	-0.023
-542.252	-140.119	-0.282	0.030
-541.237	-200.000	0.023	-0.297
-540.223	90.647	0.180	-0.201
-539.208	-200.000	0.004	-0.048
-538.193	-106.606	-0.132	-0.029
-537.179	-17.703	0.148	-0.092
-536.164	197.079	0.046	0.070
-535.150	1.200	-0.222	-0.159
-534.135	170.891	0.199	-0.284
-533.121	54.690	0.020	-0.019
-532.106	141.776	-0.043	-0.057
-531.091	170.574	-0.163	0.232
-530.077	-72.356	0.151	0.055
-529.062	-174.721	0.065	0.002
-528.048	147.404	-0.267	0.357
-527.033	-200.000	0.009	0.331
-526.018	-200.000	0.032	0.149
-525.004	-121.931	0.527	-0.086
-523.989	207.355	-0.079	-0.123
-522.975	477.645	0.036	-0.081
-521.960	323.480	0.153	0.291
-520.945	115.210	-0.191	0.232
-519.931	-49.180	-0.152	-0.072
-518.916	-66.402	-0.352	0.139
-517.902	326.184	0.150	0.286
-516.887	-166.684	0.395	-0.016
-515.872	75.952	0.080	-0.084
-514.858	-127.728	0.089	-0.013
-513.843	343.465	0.071	-0.138
-512.829	-79.514	-0.296	0.099
-511.814	163.761	0.052	-0.073
-510.799	-157.796	0.196	-0.012
-509.785	138.152	-0.152	0.198
-508.770	-13.501	0.069	0.045
-507.756	19.021	0.286	0.228
-506.741	125.225	-0.279	-0.350
-505.726	-165.366	0.132	0.006
-504.712	-6.224	0.180	0.122
-503.697	138.827	-0.094	-0.122
-502.683	-35.811	0.032	-0.017
-501.668	800.000	-0.065	0.268
-500.653	33.124	-0.220	0.190
-499.639	-137.876	0.410	0.046
-498.624	99.281	-0.075	-0.086
-497.610	623.416	0.079	-0.199
-496.595	-133.633	-0.188	0.023
-495.581	462.258	-0.054	0.119
-494.566	-58.650	0.130	-0.056
-493.551	-16.194	-0.058	0.037
-492.537	-159.034	0.385	-0.022
-491.522	261.457	-0.045	0.077
-490.508	17.241	0.137	-0.108
-489.493	-21.859	0.265	-0.160
-488.478	-33.726	0.007	0.004
-487.464	259.536	0.054	-0.092
-486.449	-200.000	-0.056	-0.480
-485.435	230.176	-0.061	0.099
-484.420	560.583	-0.134	-0.322
-483.405	98.395	-0.232	0.265
-482.391	-158.050	0.273	0.016
-481.376	133.035	-0.097	-0.125
-480.362	38.533	0.050	0.045
-479.347	-200.000	0.002	0.144
-478.332	37.523	-0.251	0.221
-477.318	-200.000	-0.012	0.135
-476.303	-200.000	-0.044	-0.219
-475.289	3.753	0.259	0.188
-474.274	-131.829	0.266	0.034
-473.259	-96.385	0.163	0.043
-472.245	100.085	-0.044	0.051
-471.230	176.872	-0.041	-0.059
-470.216	-200.000	-0.052	-0.236
-469.201	-118.678	-0.207	0.036
-468.186	800.000	0.110	-0.331
-467.172	494.218	-0.066	-0.150
-466.157	-179.492	0.152	0.003
-465.143	98.148	-0.303	0.346
-464.128	-22.310	0.106	-0.064
-463.113	19.900	0.211	-0.169
-462.099	224.004	-0.101	-0.162
-461.084	159.161	-0.055	0.075
-460.070	-97.985	-0.081	0.021
-459.055	48.214	-0.292	0.271
-458.040	-200.000	-0.008	0.198
-457.026	58.165	-0.147	-0.143
-456.011	123.616	0.243	0.302
-454.997	-200.000	-0.068	-0.447
-453.982	134.475	-0.158	-0.203
-452.968	-20.522	-0.157	-0.096
-451.953	-19.614	-0.038	0.023
-450.938	324.823	0.052	-0.099
-449.924	181.204	0.011	-0.016
-448.909	306.917	0.109	0.200
-447.895	-116.990	0.081	0.015
-446.880	-123.582	-0.195	0.031
-445.865	-50.869	0.132	0.061
-444.851	265.761	0.071	-0.123
-443.836	-72.161	0.109	0.040
-442.822	800.000	0.015	-0.050
-441.807	800.000	0.112	0.464
-440.792	279.755	0.187	-0.331
-439.778	232.600	-0.089	-0.144
-438.763	-200.000	0.039	-0.297
-437.749	114.769	0.226	-0.274
-436.734	800.000	-0.056	-0.166
-435.719	208.155	-0.136	0.211
-434.705	-101.567	0.224	-0.054
-433.690	800.000	0.083	0.344
-432.676	-37.370	0.526	0.278
-431.661	-8.161	-0.140	0.093
-430.646	256.255	0.139	0.236
-429.632	362.255	-0.108	0.214
-428.617	-185.794	0.182	-0.003
-427.603	-200.000	0.017	0.208
-426.588	-200.000	-0.034	0.212
-425.573	-34.237	0.325	0.176
-424.559	-200.000	-0.008	0.045
-423.544	-160.615	0.330	0.017
-422.530	-200.000	-0.019	0.218
-421.515	168.113	0.157	0.221
-420.500	-84.610	0.399	-0.124
-419.486	57.685	-0.090	0.087
-418.471	135.640	0.189	-0.244
-417.457	-200.000	0.014	0.208
-416.442	-59.468	-0.079	0.034
-415.428	212.659	-0.243	0.380
-414.413	261.454	-0.034	0.059
-413.398	800.000	-0.100	0.290
-412.384	-140.898	0.488	0.050
-411.369	113.709	0.081	-0.097
-410.355	156.251	-0.202	0.276
-409.340	800.000	-0.024	-0.101
-408.325	-200.000	-0.029	0.221
-407.311	328.823	-0.119	0.226
-406.296	800.000	0.072	0.202
-405.282	800.000	-0.019	-0.058
-404.267	-50.502	-0.315	-0.147
-403.252	7.672	-0.139	0.103
-402.238	29.311	0.233	-0.196
-401.223	21.773	0.250	-0.202
-400.209	15.366	-0.041	0.032
-399.194	169.785	0.055	-0.077
-398.179	705.298	0.102	-0.265
-397.165	-200.000	0.026	-0.275
-396.150	-9.306	0.169	-0.111
-395.136	313.280	-0.264	0.491
-394.121	-14.230	0.168	-0.107
-393.106	9.129	-0.104	-0.078
-392.092	241.586	-0.025	-0.041
-391.077	-73.900	0.102	-0.036
-390.063	-110.521	-0.183	-0.038
-389.048	208.473	-0.021	-0.033
-388.033	-200.000	0.010	0.243
-387.019	-178.682	-0.188	-0.004
-386.004	89.401	0.132	0.146
-384.990	360.400	-0.077	-0.152
-383.975	-1.058	0.220	0.154
-382.960	-91.576	-0.271	-0.076
-381.946	-146.775	-0.174	-0.015
-380.931	-27.322	0.109	0.063
-379.917	-46.990	-0.129	-0.062
-378.902	-145.352	-0.216	-0.019
-377.888	-200.000	-0.002	-0.179
-376.873	-97.919	0.129	0.033
-375.858	-10.376	0.078	0.051
-374.844	-200.000	0.002	-0.299
-373.829	-139.141	-0.189	0.020
-372.815	-108.171	-0.105	-0.022
-371.800	-200.000	0.097	0.700
-370.785	54.104	0.095	-0.090
-369.771	-81.329	0.113	0.037
-368.756	-173.022	0.417	-0.013
-367.742	-200.000	0.004	0.025
-366.727	108.026	0.185	-0.218
-365.712	98.663	0.117	0.133
-364.698	-134.672	0.334	-0.040
-363.683	-59.045	0.289	-0.123
-362.669	800.000	0.159	0.450
-361.654	-127.826	-0.277	0.039
-360.639	108.129	0.199	0.234
-359.625	247.137	0.183	-0.305
-358.610	800.000	-0.063	-0.173
-357.596	-46.981	0.118	0.057
-356.581	183.859	0.123	-0.179
-355.566	-83.488	0.084	-0.027
-354.552	288.198	0.108	-0.193
-353.537	-7.641	0.336	-0.224
-352.523	-22.588	-0.127	-0.076
-351.508	-39.700	0.243	-0.125
-350.493	645.716	0.067	0.168
-349.479	514.638	-0.076	0.176
-348.464	64.680	-0.227	0.226
-347.450	800.000	-0.091	-0.349
-346.435	-200.000	0.004	-0.179
-345.420	98.655	-0.024	0.027
-344.406	-161.968	0.434	-0.022
-343.391	-120.191	-0.228	0.038
-342.377	3.973	0.054	-0.039
-341.362	-83.534	0.102	-0.032
-340.348	-63.364	-0.233	-0.095
-339.333	800.000	-0.050	0.165
-338.318	-96.059	0.038	0.010
-337.304	286.082	0.088	0.157
-336.289	-56.731	0.349	-0.152
-335.275	-101.230	-0.135	0.032
-334.260	-200.000	-0.010	-0.053
-333.245	148.231	0.155	-0.206
-332.231	326.432	-0.242	-0.456
-331.216	800.000	-0.143	-0.450
-330.202	-36.838	-0.068	0.036
-329.187	-84.055	-0.451	-0.141
-328.172	60.016	0.253	0.247
-327.158	-152.093	0.071	-0.005
-326.143	187.672	0.166	-0.244
-325.129	361.790	0.079	0.156
-324.114	-69.315	-0.161	0.061
-323.099	800.000	0.065	-0.184
-322.085	-84.474	0.259	0.081
-321.070	-200.000	-0.002	-0.064
-320.056	-79.634	-0.559	0.186
-319.041	-10.971	-0.269	0.175
-318.026	270.582	-0.186	-0.323
-317.012	800.000	0.068	-0.220
-315.997	-75.327	-0.363	-0.128
-314.983	-200.000	0.007	0.200
-313.968	42.222	0.128	0.115
-312.953	-133.672	-0.298	-0.037
-311.939	-132.082	0.308	-0.039
-310.924	800.000	-0.061	0.258
-309.910	227.662	0.047	0.075
-308.895	800.000	0.116	0.451
-307.880	-130.338	0.257	-0.034
-306.866	117.017	0.024	-0.029
-305.851	-169.614	0.059	0.002
-304.837	9.444	0.258	0.193
-303.822	705.595	-0.133	0.346
-302.807	800.000	-0.046	-0.129
-301.793	34.530	0.055	-0.047
-300.778	-200.000	-0.029	0.156
-299.764	800.000	-0.041	-0.141
-298.749	104.832	0.227	-0.264
-297.735	119.020	0.182	0.222
-296.720	169.233	0.149	0.210
-295.705	402.387	0.010	0.020
-294.691	-65.519	-0.328	-0.130
-293.676	-64.103	0.288	0.116
-292.662	296.516	0.192	0.347
-291.647	87.930	-0.094	0.103
-290.632	-17.691	-0.266	-0.165
-289.618	42.299	-0.166	-0.148
-288.603	-25.005	-0.175	-0.102
-287.589	466.259	0.082	-0.180
-286.574	-85.666	-0.183	-0.056
-285.559	383.080	0.035	-0.071
-284.545	163.216	0.074	-0.102
-283.530	-200.000	-0.019	0.385
-282.516	-87.921	-0.024	-0.007
-281.501	-200.000	0.011	0.268
-280.486	175.909	-0.063	-0.090
-279.472	-25.520	-0.063	0.036
-278.457	-200.000	-0.043	0.198
-277.443	-58.823	-0.083	0.036
-276.428	-31.671	0.117	-0.064
-275.413	65.301	0.138	0.137
-274.399	131.031	-0.340	-0.429
-273.384	-200.000	-0.027	-0.130
-272.370	-59.389	0.228	-0.096
-271.355	-10.698	0.478	-0.311
-270.340	-140.677	0.164	0.017
-269.326	51.778	-0.136	0.128
-268.311	126.079	-0.138	0.171
-267.297	-86.191	-0.216	0.066
-266.282	-200.000	-0.006	0.284
-265.267	-64.880	0.217	0.086
-264.253	-27.294	-0.149	0.085
-263.238	111.101	-0.149	-0.177
-262.224	800.000	-0.115	0.345
-261.209	-31.632	0.038	0.021
-260.195	800.000	0.076	-0.242
-259.180	272.688	-0.089	-0.155
-258.165	800.000	0.081	0.236
-257.151	255.691	-0.167	0.281
-256.136	141.632	-0.088	-0.114
-255.122	-46.224	-0.214	-0.104
-254.107	-87.211	-0.340	-0.102
-253.092	-200.000	0.007	0.190
-252.078	689.964	-0.093	0.239
-251.063	-74.929	-0.035	-0.012
-250.049	-23.135	0.125	0.074
-249.034	-88.755	-0.290	-0.085
-248.019	30.223	-0.240	-0.201
-247.005	-71.710	0.388	0.142
-245.990	-200.000	-0.051	0.233
-244.976	-85.236	-0.087	0.027
-243.961	-6.579	-0.063	0.042
-242.946	375.662	0.048	0.096
-241.932	124.487	-0.239	-0.295
-240.917	-106.563	0.488	-0.107
-239.903	-10.295	-0.141	0.092
-238.888	10.872	-0.104	-0.078
-237.873	468.985	0.048	0.107
-236.859	-25.869	-0.197	-0.114
-235.844	-200.000	-0.009	-0.384
-234.830	189.078	-0.190	-0.280
-233.815	-86.100	0.101	0.031
-232.800	-200.000	-0.074	0.419
-231.786	-200.000	-0.047	-0.212
-230.771	277.307	0.183	0.320
-229.757	-200.000	0.021	-0.133
-228.742	53.327	-0.006	0.006
-227.727	-200.000	-0.050	-0.363
-226.713	-200.000	0.015	-0.080
-225.698	120.771	-0.145	-0.177
-224.684	800.000	0.076	-0.219
-223.669	800.000	0.097	-0.303
-222.655	800.000	-0.088	-0.306
-221.640	-15.180	-0.256	0.161
-220.625	-200.000	0.008	-0.064
-219.611	-200.000	-0.017	0.280
-218.596	-53.012	0.203	0.092
-217.582	8.174	0.154	-0.113
-216.567	-116.962	-0.154	0.028
-215.552	-139.612	0.114	-0.012
-214.538	57.832	0.323	0.310
-213.523	449.005	0.162	-0.351
-212.509	97.171	0.098	0.111
-211.494	-128.020	0.096	0.013
-210.479	-161.206	-0.205	-0.010
-209.465	213.364	-0.306	-0.475
-208.450	-200.000	-0.057	-0.247
-207.436	-12.725	0.172	0.110
-206.421	800.000	-0.062	0.185
-205.406	58.556	0.317	-0.306
-204.392	-23.206	0.349	0.206
-203.377	-200.000	-0.019	0.233
-202.363	-62.879	0.321	0.130
-201.348	186.952	0.067	0.098
-200.333	800.000	0.067	0.197
-199.319	366.808	0.173	0.342
-198.304	-130.656	-0.371	0.049
-197.290	-63.390	0.296	-0.120
-196.275	-11.934	-0.234	-0.151
-195.260	800.000	-0.045	-0.171
-194.246	-173.441	-0.181	0.005
-193.231	-32.654	-0.146	-0.080
-192.217	-200.000	-0.077	-0.515
-191.202	107.219	0.162	0.188
-190.187	114.216	-0.192	0.229
-189.173	-7.658	0.185	0.123
-188.158	-200.000	-0.210	-0.000
-187.144	65.241	-0.076	-0.075
-186.129	-200.000	0.051	0.381
-185.114	-142.580	-0.346	-0.033
-184.100	733.268	0.159	-0.417
-183.085	800.000	0.037	-0.147
-182.071	-85.612	0.084	-0.025
-181.056	69.144	0.079	-0.080
-180.042	800.000	-0.069	-0.281
-179.027	800.000	0.072	0.275
-178.012	69.540	0.237	0.239
-176.998	115.466	-0.148	0.178
-175.983	754.091	0.100	-0.265
-174.969	-200.000	0.015	-0.222
-173.954	-200.000	-0.007	-0.057
-172.939	208.241	0.069	-0.106
-171.925	800.000	-0.096	-0.410
-170.910	-83.581	0.105	-0.033
-169.896	-46.794	-0.224	0.107
-168.881	-155.085	0.131	0.008
-167.866	-5.313	0.168	-0.113
-166.852	-130.384	-0.365	0.048
-165.837	-171.595	0.328	-0.011
-164.823	45.514	0.177	-0.161
-163.808	-15.666	-0.066	-0.041
-162.793	-200.000	0.047	-0.421
-161.779	-1.300	-0.254	-0.176
-160.764	-75.506	0.192	-0.067
-159.750	-132.178	-0.056	0.007
-158.735	-122.739	0.069	0.011
-157.720	-188.360	0.472	0.006
-156.706	-200.000	-0.034	0.187
-155.691	35.646	-0.113	0.098
-154.677	-200.000	0.082	-0.357
-153.662	800.000	-0.034	0.118
-152.647	-200.000	-0.040	0.184
-151.633	115.754	-0.100	-0.120
-150.618	430.146	0.122	0.258
-149.604	-136.618	-0.165	-0.019
-148.589	-15.494	-0.224	-0.140
-147.574	-81.499	0.221	0.071
-146.560	761.268	0.068	-0.181
-145.545	-200.000	0.055	0.276
-144.531	593.646	0.020	0.047
-143.516	677.736	-0.161	0.410
-142.502	1.907	0.133	-0.094
-141.487	800.000	0.048	0.150
-140.472	28.078	-0.107	0.089
-139.458	86.714	-0.142	-0.153
-138.443	106.320	-0.055	-0.064
-137.429	-83.851	-0.492	0.153
-136.414	-44.174	0.162	0.079
-135.399	-200.000	-0.094	0.574
-134.385	315.905	0.175	0.323
-133.370	119.516	-0.091	-0.110
-132.356	251.760	0.083	0.138
-131.341	507.265	-0.063	0.143
-130.326	252.947	0.145	-0.243
-129.312	-155.687	-0.290	-0.018
-128.297	-200.000	-0.049	-0.360
-127.283	800.000	-0.057	0.235
-126.268	-69.642	0.206	0.077
-125.253	82.813	-0.157	0.167
-124.239	150.589	-0.086	-0.115
-123.224	800.000	0.098	-0.356
-122.210	-164.594	0.302	-0.013
-121.195	-137.114	-0.224	-0.025
-120.180	-93.840	0.321	0.086
-119.166	177.394	-0.130	0.186
-118.151	32.259	0.115	0.097
-117.137	800.000	-0.086	-0.338
-116.122	-120.295	-0.250	0.042
-115.107	-129.842	-0.195	0.026
-114.093	-45.033	-0.332	-0.162
-113.078	-200.000	0.033	0.278
-112.064	178.467	-0.082	0.118
-111.049	-99.139	-0.337	0.083
-110.034	49.760	-0.100	0.092
-109.020	800.000	-0.063	0.175
-108.005	-86.150	0.318	0.096
-106.991	-200.000	0.017	0.139
-105.976	800.000	0.083	-0.238
-104.962	-98.552	-0.384	-0.096
-103.947	203.955	0.146	-0.221
-102.932	-126.854	-0.214	0.031
-101.918	-59.681	-0.399	-0.167
-100.903	-88.692	-0.125	-0.036
-99.889	-200.000	0.008	-0.053
-98.874	-54.085	0.185	0.082
-97.859	-22.275	-0.235	-0.139
-96.845	800.000	-0.009	-0.038
-95.830	231.498	-0.237	-0.381
-94.816	-60.414	-0.194	-0.081
-93.801	-37.307	0.046	0.024
-92.786	-17.013	0.467	0.288
-91.772	800.000	0.080	0.291
-90.757	-175.898	0.195	0.005
-89.743	-70.765	-0.276	-0.102
-88.728	-174.546	0.089	-0.002
-87.713	-28.226	-0.023	0.013
-86.699	103.930	-0.097	-0.111
-85.684	-200.000	0.001	0.145
-84.670	-30.571	0.061	0.034
-83.655	-152.251	0.124	0.009
-82.640	-39.275	0.081	-0.042
-81.626	-119.084	0.154	-0.026
-80.611	-200.000	-0.004	0.434
-79.597	800.000	-0.062	-0.169
-78.582	-47.242	0.151	-0.072
-77.567	-46.274	0.095	0.046
-76.553	31.261	-0.201	0.168
-75.538	800.000	0.116	-0.449
-74.524	-200.000	0.009	-0.210
-73.509	-166.317	-0.111	0.005
-72.494	630.459	-0.141	-0.349
-71.480	800.000	-0.084	0.281
-70.465	-180.070	-0.149	-0.003
-69.451	74.298	-0.101	0.103
-68.436	-171.969	0.120	-0.004
-67.422	-26.378	-0.247	-0.141
-66.407	-78.306	0.188	-0.063
-65.392	800.000	0.030	0.112
-64.378	98.582	0.158	-0.178
-63.363	800.000	-0.087	0.264
-62.349	68.772	-0.176	0.177
-61.334	29.538	-1.253	-1.040
-60.319	33.632	0.903	0.766
-59.305	212.010	-0.831	-1.279
-58.290	534.607	0.749	1.732
-57.276	329.769	0.615	1.155
-56.261	-200.000	135.787	630.747
-55.246	345.436	1632.497	3130.143
-54.232	136.191	2779.602	3536.650
-53.217	73.747	2338.509	2392.013
-52.203	24.938	2091.331	1692.418
-51.188	20.689	2011.712	1589.206
-50.173	19.861	1997.757	1570.607
-49.159	37.419	2075.692	1795.767
-48.144	34.347	2085.416	1775.542
-47.130	20.857	2039.324	1612.317
-46.115	18.956	2028.835	1586.435
-45.100	18.901	2025.994	1583.646
-44.086	18.876	2023.473	1581.384
-43.071	18.921	2020.475	1579.391
-42.057	18.857	2018.795	1577.425
-41.042	18.904	2016.885	1576.300
-40.027	18.892	2014.831	1574.530
-39.013	18.922	2013.350	1573.578
-37.998	18.883	2011.711	1571.882
-36.984	18.909	2010.092	1570.793
-35.969	18.941	2007.642	1569.111
-34.954	19.030	2005.999	1568.571
-33.940	18.975	2005.019	1567.240
-32.925	19.019	2003.041	1566.033
-31.911	19.082	2001.549	1565.374
-30.896	18.958	2000.133	1563.080
-29.881	18.949	1998.891	1561.972
-28.867	19.062	1996.565	1561.114
-27.852	19.055	1995.033	1559.786
-26.838	19.032	1993.232	1558.110
-25.823	19.055	1991.260	1556.714
-24.809	19.005	1989.821	1555.082
-23.794	19.042	1987.618	1553.630
-22.779	19.068	1986.262	1552.737
-21.765	18.996	1984.550	1550.694
-20.750	19.049	1983.473	1550.270
-19.736	18.989	1982.158	1548.638
-18.721	19.050	1980.489	1547.823
-17.706	18.982	1978.450	1545.557
-16.692	18.965	1976.906	1544.136
-15.677	18.985	1975.419	1543.087
-14.663	19.008	1974.486	1542.504
-13.648	19.030	1972.853	1541.366
-12.633	19.033	1971.577	1540.339
-11.619	18.990	1970.413	1538.985
-10.604	19.066	1968.795	1538.338
-9.590	19.057	1967.124	1536.890
-8.575	18.962	1966.098	1535.178
-7.560	19.054	1964.164	1534.426
-6.546	19.045	1962.972	1533.356
-5.531	18.981	1962.098	1532.042
-4.517	18.998	1960.917	1531.212
-3.502	19.020	1959.762	1530.445
-2.487	18.976	1958.518	1529.016
-1.473	18.952	1957.985	1528.334
-0.458	19.053	1951.851	1524.378
0.556	17.756	1931.865	1495.696
1.571	13.475	1913.713	1444.237
2.586	9.712	1937.054	1428.446
3.600	8.908	1971.554	1446.506
4.615	8.968	1963.772	1441.207
5.629	7.249	1863.810	1353.056
6.644	3.105	1754.888	1240.497
7.659	0.685	1726.061	1200.798
8.673	0.640	1723.130	1198.297
9.688	0.609	1722.755	1197.681
10.702	0.528	1721.137	1195.808
11.717	0.484	1716.524	1192.151
12.731	0.763	1714.319	1192.718
13.746	4.194	1721.812	1224.974
14.761	10.888	1734.348	1286.916
15.775	15.803	1744.844	1333.636
16.790	17.082	1746.149	1344.657
17.804	16.137	1743.598	1335.099
18.819	15.197	1739.783	1324.630
19.834	14.708	1736.994	1318.530
20.848	14.404	1735.513	1314.885
21.863	14.227	1733.978	1312.210
22.877	13.937	1732.752	1308.883
23.892	13.753	1731.216	1306.157
24.907	13.613	1729.763	1303.845
25.921	13.560	1728.907	1302.670
26.936	13.554	1727.863	1301.720
27.950	13.631	1726.845	1301.445
28.965	13.693	1726.488	1301.544
29.980	13.685	1725.751	1300.814
30.994	13.747	1724.792	1300.458
32.009	13.816	1723.548	1299.947
33.023	13.869	1722.444	1299.411
34.038	13.880	1721.892	1298.968
35.053	13.814	1720.803	1297.512
36.067	13.901	1719.080	1296.780
37.082	13.762	1718.792	1295.360
38.096	13.745	1717.606	1294.225
39.111	13.738	1716.736	1293.402
40.126	13.814	1715.892	1293.238
41.140	13.856	1714.597	1292.477
42.155	13.653	1713.550	1289.996
43.169	13.631	1712.040	1288.572
44.184	13.613	1710.751	1287.345
45.199	13.630	1709.908	1286.728
46.213	13.641	1708.447	1285.603
47.228	13.649	1706.917	1284.397
48.242	13.616	1705.885	1283.257
49.257	13.741	1704.487	1283.057
50.271	13.709	1703.748	1282.143
51.286	13.701	1702.279	1280.859
52.301	13.782	1700.474	1280.014
53.315	13.644	1699.671	1278.230
54.330	13.670	1698.282	1277.272
55.344	13.696	1696.023	1275.658
56.359	13.697	1695.049	1274.827
57.374	13.684	1693.742	1273.632
58.388	13.700	1692.083	1272.392
59.403	13.577	1691.100	1270.593
60.417	13.578	1689.694	1269.433
61.432	13.562	1688.532	1268.328
62.447	13.550	1687.501	1267.348
63.461	13.509	1686.310	1266.030
64.476	13.529	1685.637	1265.565
65.490	13.556	1683.547	1264.087
66.505	13.564	1682.780	1263.462
67.520	13.596	1681.775	1262.838
68.534	13.638	1680.239	1261.891
69.549	13.586	1679.425	1260.774
70.563	13.607	1677.870	1259.655
71.578	13.545	1676.985	1258.411
72.593	13.599	1675.966	1257.940
73.607	13.540	1674.338	1256.162
74.622	13.513	1673.547	1255.254
75.636	13.461	1672.695	1254.112
76.651	13.433	1671.515	1252.902
77.666	13.533	1670.215	1252.570
78.680	13.503	1669.236	1251.502
79.695	13.566	1668.567	1251.368
80.709	13.581	1667.638	1250.670
81.724	13.553	1666.290	1249.336
82.739	13.622	1665.425	1249.095
83.753	13.602	1664.546	1248.181
84.768	13.667	1663.322	1247.642
85.782	13.613	1663.027	1246.903
86.797	13.776	1661.742	1247.050
87.812	13.722	1660.988	1245.973
88.826	13.689	1659.367	1244.398
89.841	13.702	1658.358	1243.625
90.855	13.704	1656.902	1242.436
91.870	13.659	1656.522	1241.706
92.884	13.689	1655.279	1240.891
93.899	13.686	1654.293	1240.022
94.914	13.717	1653.039	1239.203
95.928	13.885	1650.698	1238.590
96.943	13.832	1649.736	1237.366
97.957	13.797	1648.242	1235.874
98.972	13.783	1646.922	1234.669
99.987	13.752	1645.142	1232.997
101.001	13.797	1643.502	1231.995
102.016	13.722	1642.001	1230.203
103.030	13.745	1640.582	1229.201
104.045	13.706	1639.672	1228.123
105.060	13.769	1637.998	1227.225
106.074	13.716	1636.684	1225.742
107.089	13.717	1634.925	1224.319
108.103	13.627	1633.173	1222.238
109.118	13.576	1632.033	1220.896
110.133	13.624	1630.641	1220.104
111.147	13.663	1628.857	1218.945
112.162	13.572	1627.626	1217.247
113.176	13.650	1626.179	1216.635
114.191	13.739	1624.711	1216.080
115.206	13.624	1623.634	1214.323
116.220	13.692	1621.876	1213.401
117.235	13.695	1620.596	1212.359
118.249	13.659	1619.386	1211.082
119.264	13.660	1618.198	1210.091
120.279	13.617	1616.576	1208.459
121.293	13.557	1615.692	1207.256
122.308	13.639	1613.771	1206.310
123.322	13.586	1612.126	1204.587
124.337	13.653	1610.397	1203.674
125.352	13.656	1609.119	1202.638
126.366	13.600	1608.469	1201.640
127.381	13.529	1607.358	1200.185
128.395	13.624	1605.412	1199.313
129.410	13.601	1603.826	1197.853
130.424	13.588	1603.019	1197.054
131.439	13.603	1601.439	1195.875
132.454	13.573	1599.983	1194.468
133.468	13.730	1598.188	1194.149
134.483	13.765	1596.731	1193.211
135.497	13.691	1595.314	1191.511
136.512	13.668	1594.593	1190.701
137.527	13.780	1592.985	1190.199
138.541	13.740	1591.813	1188.935
139.556	13.767	1590.095	1187.742
140.570	13.772	1588.607	1186.562
141.585	13.809	1587.411	1185.822
142.600	13.796	1586.626	1185.043
143.614	13.817	1585.440	1184.198
144.629	13.871	1583.827	1183.272
145.643	14.033	1581.964	1182.928
146.658	13.973	1580.508	1181.310
147.673	13.921	1579.424	1180.028
148.687	13.884	1578.154	1178.712
149.702	13.938	1576.437	1177.709
150.716	13.869	1574.377	1175.576
151.731	13.904	1573.260	1174.884
152.746	13.878	1572.405	1173.960
153.760	13.853	1570.950	1172.593
154.775	13.854	1569.507	1171.415
155.789	13.945	1568.145	1170.938
156.804	13.995	1566.563	1170.005
157.819	13.970	1565.627	1169.032
158.833	13.978	1564.435	1168.089
159.848	14.002	1563.055	1167.128
160.862	14.070	1561.897	1166.635
161.877	14.153	1560.169	1165.820
162.892	14.003	1559.084	1163.861
163.906	14.031	1557.854	1163.035
164.921	14.020	1556.611	1161.925
165.935	13.979	1555.795	1160.931
166.950	14.067	1553.936	1160.049
167.964	14.042	1553.128	1159.169
168.979	14.038	1552.155	1158.312
169.994	14.012	1551.237	1157.349
171.008	14.072	1549.915	1156.678
172.023	14.054	1549.084	1155.828
173.037	14.126	1547.293	1154.890
174.052	14.159	1546.278	1154.256
175.067	14.168	1545.544	1153.671
176.081	14.168	1544.217	1152.577
177.096	14.153	1542.074	1150.769
178.110	14.092	1540.985	1149.437
179.125	14.159	1539.809	1148.920
180.140	14.152	1538.990	1148.158
181.154	14.127	1537.883	1147.062
182.169	14.134	1536.623	1146.063
183.183	14.190	1535.602	1145.587
184.198	14.312	1534.376	1145.412
185.213	14.219	1533.528	1144.037
186.227	14.278	1532.018	1143.216
187.242	14.285	1531.312	1142.633
188.256	14.320	1530.053	1141.836
189.271	14.374	1528.920	1141.259
190.286	14.422	1527.781	1140.635
191.300	14.291	1526.891	1138.975
192.315	14.297	1525.307	1137.737
193.329	14.187	1524.463	1136.252
194.344	14.229	1523.329	1135.595
195.359	14.256	1521.967	1134.663
196.373	14.206	1521.296	1133.723
197.388	14.231	1520.435	1133.145
198.402	14.331	1518.847	1132.547
199.417	14.498	1517.481	1132.562
200.432	14.439	1516.781	1131.537
201.446	14.574	1515.393	1131.314
202.461	14.508	1514.529	1130.121
203.475	14.618	1513.133	1129.726
204.490	14.634	1512.113	1128.972
205.504	14.641	1511.227	1128.260
206.519	14.570	1509.904	1126.694
207.534	14.606	1508.409	1125.724
208.548	14.522	1507.993	1124.742
209.563	14.592	1506.971	1124.357
210.577	14.560	1505.804	1123.166
211.592	14.617	1504.497	1122.478
212.607	14.600	1503.911	1121.830
213.621	14.714	1503.130	1121.913
214.636	14.643	1502.457	1120.836
215.650	14.653	1501.448	1120.047
216.665	14.720	1500.432	1119.640
217.680	14.691	1499.713	1118.810
218.694	14.759	1498.679	1118.394
219.709	14.704	1498.106	1117.500
220.723	14.806	1496.789	1117.102
221.738	14.695	1496.416	1115.984
222.753	14.718	1495.130	1115.078
223.767	14.829	1493.779	1114.710
224.782	14.772	1492.896	1113.573
225.796	14.799	1491.779	1112.822
226.811	14.874	1491.329	1112.890
227.826	14.877	1490.501	1112.190
228.840	14.904	1489.328	1111.394
229.855	14.935	1488.238	1110.688
230.869	14.820	1487.256	1109.095
231.884	14.816	1486.339	1108.290
232.899	14.905	1485.049	1107.819
233.913	14.923	1484.057	1107.101
234.928	14.917	1482.674	1105.929
235.942	14.813	1481.730	1104.443
236.957	14.856	1480.462	1103.684
237.972	14.898	1479.047	1102.808
238.986	14.901	1477.941	1101.906
240.001	14.918	1476.912	1101.154
241.015	14.807	1476.425	1099.957
242.030	14.883	1474.724	1099.096
243.045	14.956	1473.730	1098.734
244.059	15.002	1472.857	1098.289
245.074	14.966	1471.930	1097.267
246.088	15.063	1470.998	1097.111
247.103	15.038	1470.274	1096.306
248.117	15.103	1469.535	1096.085
249.132	15.137	1468.953	1095.774
250.147	15.214	1468.266	1095.673
251.161	15.157	1467.770	1094.833
252.176	15.170	1466.971	1094.222
253.190	15.248	1466.077	1093.968
254.205	15.204	1465.126	1092.873
255.220	15.337	1463.870	1092.710
256.234	15.275	1463.695	1092.080
257.249	15.370	1462.214	1091.493
258.263	15.316	1461.954	1090.853
259.278	15.435	1460.210	1090.228
260.293	15.454	1459.448	1089.686
261.307	15.536	1458.474	1089.396
262.322	15.484	1457.833	1088.480
263.336	15.512	1457.144	1088.053
264.351	15.523	1456.261	1087.366
265.366	15.534	1455.319	1086.637
266.380	15.518	1454.455	1085.796
267.395	15.534	1453.504	1085.090
268.409	15.602	1452.335	1084.564
269.424	15.529	1451.671	1083.499
270.439	15.559	1450.588	1082.787
271.453	15.593	1449.389	1082.015
272.468	15.511	1448.545	1080.761
273.482	15.597	1447.566	1080.490
274.497	15.550	1447.038	1079.698
275.512	15.495	1446.170	1078.601
276.526	15.592	1445.349	1078.515
277.541	15.663	1444.212	1078.030
278.555	15.648	1443.279	1077.141
279.570	15.709	1442.033	1076.506
280.585	15.746	1441.041	1075.906
281.599	15.794	1439.850	1075.232
282.614	15.729	1439.847	1074.715
283.628	15.804	1438.296	1073.939
284.643	15.759	1437.534	1072.990
285.657	15.653	1436.301	1071.299
286.672	15.807	1435.208	1071.373
287.687	15.742	1434.390	1070.254
288.701	15.753	1433.171	1069.316
289.716	15.775	1432.690	1069.001
290.730	15.840	1431.567	1068.482
291.745	15.809	1430.476	1067.376
292.760	15.809	1429.486	1066.548
293.774	15.762	1428.759	1065.612
294.789	15.946	1427.226	1065.537
295.803	15.880	1427.108	1064.939
296.818	15.948	1426.076	1064.504
297.833	15.933	1425.036	1063.539
298.847	15.859	1424.176	1062.334
299.862	15.971	1423.014	1062.080
300.876	15.999	1421.879	1061.313
301.891	16.048	1420.886	1060.786
302.906	16.014	1420.204	1059.973
303.920	16.074	1419.463	1059.705
304.935	16.098	1418.735	1059.214
305.949	16.090	1417.959	1058.493
306.964	16.085	1417.060	1057.695
307.979	16.174	1416.054	1057.407
308.993	16.226	1415.322	1057.098
310.008	16.116	1414.312	1055.556
311.022	16.085	1413.147	1054.404
312.037	16.162	1411.855	1053.823
313.052	16.220	1411.574	1053.882
314.066	16.255	1409.802	1052.689
315.081	16.199	1409.042	1051.680
316.095	16.257	1407.762	1050.990
317.110	16.135	1406.970	1049.546
318.125	16.180	1405.871	1048.916
319.139	16.139	1405.085	1047.983
320.154	16.246	1404.115	1047.830
321.168	16.233	1403.147	1046.932
322.183	16.241	1401.802	1045.886
323.197	16.234	1401.037	1045.180
324.212	16.326	1400.095	1044.951
325.227	16.282	1399.783	1044.355
326.241	16.274	1398.287	1043.099
327.256	16.338	1397.164	1042.563
328.270	16.342	1396.743	1042.183
329.285	16.315	1396.106	1041.445
330.300	16.289	1394.893	1040.289
331.314	16.284	1394.188	1039.642
332.329	16.411	1392.894	1039.368
333.343	16.456	1391.986	1038.874
334.358	16.356	1391.181	1037.569
335.373	16.356	1390.555	1037.009
336.387	16.419	1389.586	1036.579
337.402	16.444	1388.832	1036.078
338.416	16.522	1387.950	1035.804
339.431	16.540	1387.695	1035.636
340.446	16.468	1387.004	1034.585
341.460	16.465	1385.854	1033.621
342.475	16.652	1384.393	1033.583
343.489	16.583	1384.190	1032.917
344.504	16.603	1382.827	1031.929
345.519	16.615	1381.878	1031.200
346.533	16.682	1380.797	1030.713
347.548	16.685	1380.220	1030.207
348.562	16.709	1379.173	1029.480
349.577	16.696	1378.479	1028.795
350.592	16.753	1377.291	1028.161
351.606	16.754	1376.381	1027.397
352.621	16.675	1375.486	1026.162
353.635	16.775	1374.000	1025.570
354.650	16.685	1373.876	1024.836
355.665	16.714	1372.688	1024.039
356.679	16.694	1371.553	1022.979
357.694	16.759	1370.371	1022.402
358.708	16.676	1369.353	1021.046
359.723	16.824	1367.695	1020.616
360.738	16.742	1367.137	1019.615
361.752	16.929	1365.951	1019.763
362.767	16.886	1364.788	1018.545
363.781	16.851	1363.604	1017.365
364.796	17.015	1362.817	1017.670
365.810	16.877	1362.631	1016.611
366.825	17.007	1361.796	1016.675
367.840	17.046	1360.937	1016.183
368.854	17.011	1360.107	1015.260
369.869	17.040	1359.793	1015.113
370.883	17.056	1359.442	1014.856
371.898	17.089	1358.456	1014.224
372.913	17.021	1357.438	1012.969
373.927	17.118	1356.384	1012.672
374.942	17.097	1355.432	1011.745
375.956	17.122	1354.626	1011.206
376.971	17.082	1354.375	1010.689
377.986	17.083	1353.340	1009.836
379.000	17.176	1352.308	1009.527
380.015	17.177	1351.742	1009.023
381.029	17.182	1350.828	1008.282
382.044	17.338	1350.051	1008.535
383.059	17.288	1349.370	1007.639
384.073	17.290	1348.581	1006.975
385.088	17.390	1347.843	1006.925
386.102	17.338	1346.782	1005.739
387.117	17.373	1346.114	1005.357
388.132	17.306	1345.693	1004.558
389.146	17.348	1344.916	1004.135
390.161	17.399	1343.955	1003.628
391.175	17.276	1343.226	1002.272
392.190	17.324	1342.163	1001.676
393.205	17.350	1341.240	1001.046
394.219	17.472	1340.137	1000.854
395.234	17.501	1339.091	1000.153
396.248	17.436	1337.898	998.796
397.263	17.481	1336.169	997.677
398.278	17.430	1335.149	996.531
399.292	17.524	1333.710	995.919
400.307	17.452	1332.818	994.744
401.321	17.515	1332.163	994.535
402.336	17.400	1331.083	992.968
403.350	17.397	1330.299	992.277
404.365	17.445	1329.227	991.668
405.380	17.508	1328.592	991.473
406.394	17.544	1327.550	990.819
407.409	17.620	1326.408	990.320
408.423	17.673	1325.518	989.877
409.438	17.650	1324.947	989.229
410.453	17.600	1324.526	988.536
411.467	17.560	1324.152	987.940
412.482	17.714	1323.214	988.044
413.496	17.757	1322.583	987.738
414.511	17.697	1322.002	986.869
415.526	17.785	1321.029	986.564
416.540	17.817	1320.227	986.063
417.555	17.852	1319.345	985.518
418.569	17.884	1318.672	985.110
419.584	17.854	1318.262	984.547
420.599	17.904	1317.748	984.363
421.613	101.896	1364.872	1493.468
422.628	100.539	1371.642	1493.549
