DTS Sentinel unit serial number:	SN413079Multiplexer serial number:	ORYXHardware model number:	OX4-SRSoftware version number:	ORYX F/W v4.00 Oryx Data Collector v3.7.2.0data status	okinstallation	princeton_trtdifferential loss correction	single-endedforward channel	channel 4reverse channel	N/Adate	2019/09/16time	09:41:34forward acquisition time	60.00reverse acquisition time	0.00gamma	496.2192k internal	0.2305k external	0.2305temperature offset calibration	0.9966default loss term (dB/km)	0.3790temperature slope calibration	1.0000multiplexer offset coefficient	1.0000multiplexer slope coefficient	1.0000fibre end	0.00T internal ref (°C)	32.41T ext. ref 1 (°C)	12.28T ext. ref 2 (°C)	30.49length (m)	temperature (°C)	Stokes	anti-Stokes-747.200	-111.943	0.170	-0.035
-746.185	-200.000	0.017	0.131
-745.171	155.168	0.152	0.213
-744.156	302.080	-0.160	0.300
-743.142	423.072	0.125	0.273
-742.127	149.868	-0.032	0.044
-741.112	409.608	-0.091	-0.197
-740.098	800.000	0.042	0.118
-739.083	217.696	-0.107	0.174
-738.069	794.440	0.021	0.060
-737.054	262.896	-0.200	0.354
-736.039	-99.622	-0.305	-0.078
-735.025	317.269	-0.102	0.196
-734.010	-200.000	0.007	0.086
-732.996	-96.434	-0.145	0.039
-731.981	-100.592	-0.134	-0.034
-730.966	-200.000	0.023	-0.224
-729.952	800.000	-0.073	-0.236
-728.937	-66.379	-0.112	-0.045
-727.923	800.000	0.053	-0.195
-726.908	-25.966	-0.282	-0.169
-725.894	-78.125	0.061	0.021
-724.879	-92.777	0.289	-0.082
-723.864	-66.824	-0.341	-0.137
-722.850	800.000	0.072	0.227
-721.835	-200.000	0.008	-0.173
-720.821	396.727	0.032	0.069
-719.806	-61.646	-0.401	-0.171
-718.791	-162.783	-0.274	-0.014
-717.777	800.000	0.072	0.283
-716.762	-1.056	-0.139	-0.100
-715.748	207.725	-0.072	-0.114
-714.733	800.000	-0.042	-0.160
-713.718	96.262	-0.262	0.305
-712.704	-200.000	-0.041	-0.202
-711.689	507.822	0.151	0.355
-710.675	537.275	-0.071	0.172
-709.660	-200.000	0.002	0.145
-708.645	306.309	-0.168	-0.318
-707.631	-45.501	-0.193	0.097
-706.616	-200.000	-0.019	-0.111
-705.602	96.905	0.071	-0.082
-704.587	51.829	0.169	0.163
-703.572	-154.632	-0.120	0.008
-702.558	48.833	0.201	-0.191
-701.543	800.000	0.031	-0.102
-700.529	171.752	-0.072	0.105
-699.514	-155.113	0.119	-0.008
-698.499	4.765	0.250	0.187
-697.485	-103.206	-0.143	-0.034
-696.470	-88.079	0.245	-0.075
-695.456	-133.178	0.134	-0.017
-694.441	136.166	0.107	0.141
-693.426	-200.000	0.035	-0.164
-692.412	-148.773	0.166	0.014
-691.397	275.647	-0.172	-0.309
-690.383	58.013	-0.085	0.084
-689.368	-51.048	-0.296	0.141
-688.354	7.111	0.283	-0.214
-687.339	-73.087	0.153	0.057
-686.324	-192.554	-0.168	-0.002
-685.310	800.000	0.049	-0.147
-684.295	50.504	0.093	-0.090
-683.281	-76.800	-0.144	-0.051
-682.266	80.121	0.199	0.217
-681.251	60.038	-0.045	-0.045
-680.237	-200.000	-0.016	-0.139
-679.222	161.721	0.147	-0.208
-678.208	90.663	0.121	-0.138
-677.193	-123.011	-0.207	0.034
-676.178	-200.000	0.004	0.292
-675.164	-78.525	-0.146	-0.051
-674.149	-93.648	0.051	0.014
-673.135	249.312	0.029	-0.050
-672.120	-146.299	0.256	-0.023
-671.105	-11.479	-0.338	-0.226
-670.091	52.798	-0.153	-0.148
-669.076	207.712	-0.117	0.185
-668.062	55.671	-0.089	0.087
-667.047	800.000	-0.023	0.088
-666.032	-86.555	0.031	0.010
-665.018	-75.523	-0.039	0.014
-664.003	-121.536	-0.052	-0.009
-662.989	800.000	-0.088	0.253
-661.974	15.089	0.097	0.077
-660.959	239.919	-0.142	0.241
-659.945	800.000	0.111	0.323
-658.930	79.173	0.360	0.391
-657.916	-200.000	-0.043	0.596
-656.901	-83.261	0.187	0.061
-655.886	-200.000	-0.092	0.450
-654.872	-16.631	-0.162	0.104
-653.857	-152.938	-0.233	-0.017
-652.843	-200.000	0.049	-0.392
-651.828	-164.500	-0.251	0.012
-650.814	151.389	0.140	-0.194
-649.799	57.986	0.271	-0.269
-648.784	-148.646	-0.181	0.015
-647.770	457.557	0.076	-0.172
-646.755	527.320	-0.011	-0.025
-645.741	31.176	0.085	0.074
-644.726	-200.000	-0.010	-0.222
-643.711	-100.274	-0.092	-0.023
-642.697	800.000	-0.113	0.337
-641.682	530.307	-0.038	-0.091
-640.668	136.014	0.212	-0.280
-639.653	-200.000	0.032	-0.331
-638.638	-60.803	0.065	0.028
-637.624	-104.243	-0.228	-0.054
-636.609	103.256	0.159	-0.189
-635.595	-200.000	-0.015	0.102
-634.580	-26.278	0.205	0.122
-633.565	-200.000	-0.029	-0.323
-632.551	486.500	-0.138	0.319
-631.536	721.725	0.042	-0.112
-630.522	-200.000	-0.035	-0.227
-629.507	753.283	-0.108	-0.296
-628.492	-139.872	0.087	-0.009
-627.478	-17.720	0.254	-0.162
-626.463	-100.547	-0.140	-0.035
-625.449	31.696	-0.181	0.158
-624.434	-102.562	0.074	0.018
-623.419	-48.354	0.209	-0.102
-622.405	222.942	-0.032	-0.053
-621.390	-69.060	0.175	0.068
-620.376	-146.234	-0.197	-0.018
-619.361	90.426	-0.325	-0.369
-618.346	-27.167	-0.520	0.307
-617.332	286.113	0.223	-0.407
-616.317	51.102	0.040	-0.038
-615.303	-200.000	0.011	-0.188
-614.288	128.460	0.156	-0.201
-613.273	15.666	0.291	-0.232
-612.259	800.000	-0.048	-0.172
-611.244	113.048	-0.231	-0.284
-610.230	-74.213	0.149	-0.054
-609.215	800.000	0.049	-0.159
-608.201	800.000	-0.055	-0.240
-607.186	-139.725	0.377	-0.041
-606.171	-23.300	0.164	0.100
-605.157	-0.555	0.167	-0.120
-604.142	-20.568	-0.175	-0.109
-603.128	-146.352	-0.108	-0.010
-602.113	-89.245	-0.192	0.057
-601.098	69.950	0.009	0.009
-600.084	-135.343	-0.237	0.029
-599.069	22.621	-0.128	-0.106
-598.055	-200.000	-0.015	-0.161
-597.040	252.783	0.200	0.346
-596.025	124.754	-0.118	0.151
-595.011	200.943	0.196	-0.306
-593.996	-64.257	-0.053	-0.022
-592.982	36.275	-0.133	0.119
-591.967	-20.534	-0.059	0.036
-590.952	800.000	-0.062	-0.259
-589.938	-200.000	-0.093	-0.481
-588.923	355.731	0.011	0.023
-587.909	-189.541	-0.256	-0.003
-586.894	-153.690	0.151	-0.010
-585.879	-200.000	-0.025	0.115
-584.865	-52.818	-0.361	0.168
-583.850	33.051	-0.052	-0.045
-582.836	-101.440	0.191	-0.047
-581.821	800.000	-0.116	-0.331
-580.806	-41.703	-0.181	0.094
-579.792	127.436	-0.076	-0.098
-578.777	-47.501	0.173	0.085
-577.763	-200.000	-0.022	0.156
-576.748	639.473	-0.134	-0.344
-575.733	260.271	0.132	-0.231
-574.719	50.561	-0.164	0.157
-573.704	-81.217	-0.177	0.059
-572.690	212.021	-0.227	0.362
-571.675	-169.773	-0.400	-0.015
-570.661	-147.744	-0.297	-0.025
-569.646	156.834	0.106	-0.148
-568.631	144.679	-0.152	-0.206
-567.617	-23.679	0.163	-0.099
-566.602	-200.000	0.025	-0.118
-565.588	800.000	0.030	-0.105
-564.573	-200.000	-0.031	-0.220
-563.558	219.906	0.207	0.335
-562.544	36.668	-0.095	-0.085
-561.529	-143.556	-0.188	0.018
-560.515	-74.485	-0.108	-0.039
-559.500	-200.000	0.033	-0.250
-558.485	200.456	0.043	0.067
-557.471	114.142	-0.016	0.020
-556.456	-70.322	-0.109	-0.042
-555.442	221.541	0.199	-0.322
-554.427	-99.534	0.252	-0.064
-553.412	1.915	-0.176	-0.128
-552.398	-81.859	0.238	-0.079
-551.383	2.324	0.260	0.190
-550.369	800.000	-0.017	0.050
-549.354	-200.000	0.022	-0.397
-548.339	33.427	0.274	-0.240
-547.325	142.999	-0.113	0.151
-546.310	159.691	-0.113	0.159
-545.296	114.611	0.123	-0.151
-544.281	-64.745	-0.285	0.117
-543.266	-104.508	-0.214	-0.050
-542.252	-124.681	-0.207	0.032
-541.237	-35.154	0.250	0.138
-540.223	800.000	0.016	0.060
-539.208	122.351	0.051	-0.065
-538.193	754.680	0.050	-0.137
-537.179	-26.232	0.192	0.114
-536.164	-86.944	-0.177	-0.055
-535.150	-200.000	-0.049	-0.399
-534.135	-200.000	0.001	-0.280
-533.121	403.357	0.024	-0.050
-532.106	-200.000	0.015	0.287
-531.091	142.885	0.105	0.141
-530.077	212.177	0.116	0.184
-529.062	800.000	-0.069	0.219
-528.048	-63.436	-0.267	0.111
-527.033	52.753	-0.180	-0.174
-526.018	-137.848	-0.084	0.010
-525.004	11.198	-0.310	0.239
-523.989	800.000	-0.056	0.188
-522.975	68.998	0.237	0.246
-521.960	800.000	-0.078	-0.329
-520.945	-155.628	0.065	-0.004
-519.931	800.000	-0.037	0.140
-518.916	800.000	-0.006	0.021
-517.902	-64.174	0.225	0.093
-516.887	-200.000	-0.062	-0.410
-515.872	-200.000	0.058	-0.000
-514.858	-200.000	0.010	-0.060
-513.843	92.566	0.218	-0.248
-512.829	-116.503	0.175	-0.033
-511.814	244.397	0.066	0.112
-510.799	22.920	-0.134	-0.110
-509.785	30.349	-0.201	-0.173
-508.770	82.636	0.115	0.126
-507.756	-200.000	-0.012	-0.105
-506.741	800.000	-0.080	0.285
-505.726	434.260	-0.068	-0.148
-504.712	-56.510	-0.203	0.091
-503.697	-200.000	0.028	0.127
-502.683	-72.042	0.334	-0.125
-501.668	96.081	-0.061	-0.070
-500.653	-105.331	0.096	0.022
-499.639	-112.894	-0.088	0.018
-498.624	-200.000	0.004	-0.110
-497.610	136.446	0.051	0.067
-496.595	-200.000	0.015	-0.203
-495.581	205.801	0.117	-0.184
-494.566	96.463	-0.092	0.106
-493.551	145.326	0.269	0.362
-492.537	501.873	0.108	-0.251
-491.522	800.000	-0.017	-0.073
-490.508	-200.000	0.032	-0.167
-489.493	311.764	0.034	0.064
-488.478	55.835	0.110	0.107
-487.464	219.139	0.072	0.116
-486.449	209.890	0.170	0.268
-485.435	314.878	0.202	0.383
-484.420	-200.000	-0.029	-0.141
-483.405	-159.229	-0.189	0.011
-482.391	-159.371	-0.109	-0.006
-481.376	-36.102	0.067	0.037
-480.362	-77.873	-0.369	-0.128
-479.347	-200.000	0.041	-0.228
-478.332	-91.955	0.320	-0.091
-477.318	-62.997	-0.069	-0.029
-476.303	-93.092	-0.260	0.073
-475.289	793.417	0.108	0.299
-474.274	-200.000	-0.109	0.517
-473.259	-200.000	-0.001	-0.153
-472.245	-107.230	-0.093	0.021
-471.230	800.000	-0.050	0.187
-470.216	-134.040	-0.102	0.013
-469.201	-200.000	-0.002	0.045
-468.186	-69.207	0.180	0.070
-467.172	5.168	0.336	-0.249
-466.157	800.000	-0.027	0.084
-465.143	-200.000	-0.034	-0.202
-464.128	-17.185	-0.093	-0.059
-463.113	-117.226	-0.214	0.039
-462.099	64.026	-0.137	0.139
-461.084	457.064	-0.089	-0.198
-460.070	-200.000	-0.006	-0.119
-459.055	-83.718	0.232	0.074
-458.040	37.866	0.129	0.116
-457.026	800.000	0.064	0.187
-456.011	-200.000	-0.026	0.414
-454.997	-64.295	-0.223	0.092
-453.982	-78.551	0.151	0.052
-452.968	52.517	-0.027	0.026
-451.953	154.941	-0.041	0.056
-450.938	-200.000	-0.002	-0.180
-449.924	-14.472	0.346	0.224
-448.909	-85.510	0.068	-0.021
-447.895	164.499	0.118	0.168
-446.880	-154.795	0.141	0.009
-445.865	800.000	0.033	0.096
-444.851	-200.000	-0.024	0.196
-443.836	-11.479	-0.403	-0.266
-442.822	38.992	-0.086	-0.077
-441.807	-9.197	0.044	-0.029
-440.792	-172.502	0.334	-0.011
-439.778	-128.514	0.221	0.032
-438.763	252.066	-0.052	-0.089
-437.749	-106.920	-0.224	0.050
-436.734	-173.552	-0.188	0.006
-435.719	-192.528	0.178	-0.002
-434.705	-200.000	0.079	0.368
-433.690	272.788	0.053	0.095
-432.676	-33.796	-0.056	-0.031
-431.661	-57.828	0.297	0.130
-430.646	-200.000	0.018	-0.297
-429.632	800.000	0.089	0.259
-428.617	-200.000	-0.025	0.133
-427.603	-200.000	0.001	0.114
-426.588	-136.119	0.189	0.022
-425.573	-3.872	-0.148	0.103
-424.559	554.780	0.120	0.290
-423.544	-10.939	-0.274	0.182
-422.530	191.205	-0.125	0.189
-421.515	-84.440	0.276	-0.088
-420.500	800.000	-0.089	0.312
-419.486	284.340	0.061	0.110
-418.471	308.627	0.108	0.203
-417.457	-200.000	-0.021	0.234
-416.442	-78.591	-0.306	-0.105
-415.428	-200.000	-0.055	-0.278
-414.413	800.000	0.046	-0.181
-413.398	-111.696	0.161	0.033
-412.384	-170.485	0.308	-0.011
-411.369	-65.952	-0.070	0.028
-410.355	-128.923	0.305	-0.043
-409.340	77.278	-0.361	-0.385
-408.325	62.287	0.150	0.150
-407.311	-0.455	0.246	0.176
-406.296	87.810	0.102	0.113
-405.282	-68.687	-0.208	0.081
-404.267	234.498	0.073	-0.122
-403.252	-200.000	0.001	-0.088
-402.238	-65.643	-0.063	-0.025
-401.223	-200.000	-0.079	-0.368
-400.209	73.723	-0.068	0.071
-399.194	129.487	-0.119	-0.153
-398.179	54.416	-0.344	0.333
-397.165	-187.024	-0.104	0.001
-396.150	-82.489	-0.441	-0.144
-395.136	8.341	0.122	-0.092
-394.121	-144.596	-0.238	-0.022
-393.106	137.631	0.222	0.291
-392.092	-71.868	0.258	-0.096
-391.077	217.820	0.048	0.077
-390.063	69.046	-0.051	0.053
-389.048	-42.056	0.419	-0.215
-388.033	-70.298	-0.206	-0.079
-387.019	73.134	-0.110	0.115
-386.004	-200.000	0.028	0.170
-384.990	125.086	-0.206	0.260
-383.975	-200.000	0.015	0.101
-382.960	-30.867	0.265	-0.150
-381.946	-23.997	-0.139	0.083
-380.931	-99.948	0.415	-0.104
-379.917	-200.000	-0.041	-0.192
-378.902	210.398	-0.101	0.159
-377.888	168.752	0.048	0.069
-376.873	-105.116	-0.256	0.059
-375.858	800.000	0.123	0.392
-374.844	-200.000	0.015	0.296
-373.829	54.839	-0.092	-0.089
-372.815	-120.234	-0.382	-0.065
-371.800	264.385	-0.023	0.040
-370.785	800.000	0.171	0.498
-369.771	-87.394	-0.255	0.077
-368.756	75.009	-0.016	-0.017
-367.742	-200.000	0.004	0.181
-366.727	800.000	0.118	-0.347
-365.712	-200.000	0.290	0.001
-364.698	-200.000	-0.125	0.000
-363.683	199.007	0.134	-0.206
-362.669	800.000	0.039	0.129
-361.654	-93.327	-0.123	0.034
-360.639	245.242	0.148	0.249
-359.625	16.778	0.389	-0.309
-358.610	-60.372	-0.020	-0.008
-357.596	74.263	-0.086	0.091
-356.581	294.803	-0.114	0.209
-355.566	18.688	-0.204	0.164
-354.552	-49.834	0.146	-0.070
-353.537	-200.000	-0.038	0.349
-352.523	717.038	-0.082	0.217
-351.508	30.381	-0.360	-0.308
-350.493	691.835	-0.108	0.283
-349.479	-117.980	-0.207	0.037
-348.464	195.910	0.148	-0.226
-347.450	-200.000	-0.015	0.225
-346.435	-127.436	0.304	0.044
-345.420	-136.616	-0.330	0.038
-344.406	-142.204	-0.055	0.005
-343.391	195.333	0.069	0.105
-342.377	-200.000	0.022	0.214
-341.362	-200.000	-0.005	-0.091
-340.348	96.165	0.150	-0.172
-339.333	-18.406	-0.099	0.062
-338.318	281.085	-0.123	-0.220
-337.304	-149.539	0.394	-0.031
-336.289	705.584	-0.097	-0.256
-335.275	32.979	-0.177	0.154
-334.260	800.000	-0.062	-0.258
-333.245	133.706	0.170	0.220
-332.231	-5.448	-0.094	0.065
-331.216	480.165	-0.097	0.219
-330.202	-39.392	-0.106	-0.056
-329.187	-200.000	0.040	-0.290
-328.172	800.000	-0.086	-0.304
-327.158	189.920	0.014	-0.022
-326.143	-160.523	-0.081	-0.004
-325.129	-200.000	0.031	-0.187
-324.114	68.212	0.131	-0.135
-323.099	-68.786	0.093	-0.036
-322.085	-200.000	0.001	0.049
-321.070	-200.000	0.020	0.258
-320.056	21.915	-0.226	0.185
-319.041	-8.156	-0.222	-0.150
-318.026	-24.134	0.496	0.296
-317.012	-38.624	0.043	-0.023
-315.997	800.000	0.016	0.054
-314.983	43.276	-0.092	0.084
-313.968	-13.216	-0.293	-0.191
-312.953	690.567	-0.086	-0.227
-311.939	296.051	-0.189	-0.347
-310.924	27.196	0.148	0.124
-309.910	-4.376	-0.119	-0.083
-308.895	-27.142	0.232	-0.135
-307.880	-200.000	-0.041	-0.225
-306.866	-130.946	0.223	0.030
-305.851	-97.659	-0.233	-0.061
-304.837	800.000	-0.060	0.252
-303.822	-117.965	-0.407	-0.073
-302.807	-90.694	-0.016	0.005
-301.793	-36.899	0.381	0.204
-300.778	-145.034	0.284	0.026
-299.764	-23.417	-0.066	0.039
-298.749	-200.000	0.006	0.208
-297.735	-17.859	-0.112	0.071
-296.720	112.363	0.275	-0.333
-295.705	235.603	-0.158	0.262
-294.691	-105.291	-0.134	-0.030
-293.676	358.830	-0.150	0.301
-292.662	293.442	0.117	-0.213
-291.647	-44.856	0.356	0.177
-290.632	800.000	0.037	-0.159
-289.618	-137.973	0.119	0.013
-288.603	-78.333	0.220	0.075
-287.589	800.000	-0.025	-0.102
-286.574	-160.195	0.272	0.015
-285.559	-200.000	0.010	-0.140
-284.545	218.409	0.107	-0.170
-283.530	226.983	0.117	0.189
-282.516	800.000	-0.109	0.309
-281.501	395.069	-0.071	0.148
-280.486	75.469	-0.075	0.079
-279.472	394.341	0.163	-0.340
-278.457	-200.000	-0.003	-0.366
-277.443	73.196	0.204	0.213
-276.428	-103.492	-0.045	0.011
-275.413	431.713	0.154	-0.333
-274.399	472.875	-0.022	0.049
-273.384	-200.000	0.018	0.147
-272.370	-20.051	-0.140	-0.086
-271.355	800.000	0.046	-0.197
-270.340	800.000	0.015	0.061
-269.326	46.737	0.048	-0.045
-268.311	126.503	0.171	0.216
-267.297	-63.302	0.306	-0.126
-266.282	-200.000	-0.030	-0.197
-265.267	-17.357	-0.123	-0.077
-264.253	231.343	-0.020	0.032
-263.238	505.244	0.071	0.163
-262.224	-18.504	0.118	-0.074
-261.209	-200.000	-0.035	0.359
-260.195	144.645	-0.114	0.152
-259.180	-139.850	-0.142	-0.015
-258.165	-200.000	0.020	-0.134
-257.151	-117.606	-0.192	0.035
-256.136	627.808	0.133	0.336
-255.122	-93.618	-0.218	-0.060
-254.107	-63.030	-0.054	-0.022
-253.092	98.920	-0.268	0.309
-252.078	-129.928	0.093	0.013
-251.063	-44.488	0.167	-0.083
-250.049	-12.635	-0.235	0.153
-249.034	-20.401	-0.046	0.028
-248.019	52.046	0.152	0.145
-247.005	213.099	-0.101	0.159
-245.990	-152.269	0.277	-0.020
-244.976	-200.000	0.004	-0.129
-243.961	139.664	0.075	0.099
-242.946	-200.000	0.041	0.324
-241.932	-9.283	-0.240	0.160
-240.917	-88.079	-0.248	0.074
-239.903	293.195	0.107	0.196
-238.888	-8.039	0.059	-0.039
-237.873	10.743	-0.116	-0.088
-236.859	800.000	0.055	0.219
-235.844	-79.621	-0.249	0.084
-234.830	-176.468	-0.211	0.005
-233.815	-92.749	0.192	-0.054
-232.800	800.000	-0.048	0.134
-231.786	-121.104	-0.159	0.027
-230.771	-200.000	0.006	-0.131
-229.757	638.061	0.034	-0.086
-228.742	78.561	0.083	0.088
-227.727	77.723	0.102	-0.108
-226.713	-166.066	0.025	-0.001
-225.698	-200.000	0.030	-0.394
-224.684	-1.297	0.286	0.201
-223.669	277.748	0.087	-0.154
-222.655	-31.814	0.299	-0.167
-221.640	154.005	0.080	0.110
-220.625	100.838	0.063	0.073
-219.611	-200.000	0.015	0.293
-218.596	36.703	-0.292	0.257
-217.582	-200.000	0.253	-0.001
-216.567	-118.029	0.242	-0.043
-215.552	150.986	-0.288	-0.390
-214.538	376.037	-0.160	-0.326
-213.523	800.000	0.085	0.329
-212.509	610.135	-0.147	0.366
-211.494	-180.967	-0.330	-0.007
-210.479	23.642	0.257	0.211
-209.465	-200.000	-0.038	-0.250
-208.450	800.000	-0.038	-0.148
-207.436	654.818	0.057	-0.147
-206.421	-48.013	0.190	-0.091
-205.406	38.833	-0.221	-0.196
-204.392	490.714	-0.108	-0.247
-203.377	134.913	-0.151	0.196
-202.363	-200.000	-0.047	0.288
-201.348	-21.182	-0.360	-0.219
-200.333	800.000	-0.215	-0.625
-199.319	39.042	0.046	-0.041
-198.304	-7.766	-0.257	0.173
-197.290	709.693	-0.176	0.463
-196.275	-200.000	0.008	-0.314
-195.260	-130.812	0.231	0.031
-194.246	458.313	0.044	0.098
-193.231	256.114	-0.084	0.143
-192.217	57.122	-0.104	-0.101
-191.202	-200.000	-0.053	0.288
-190.187	-38.272	0.093	0.049
-189.173	-68.051	-0.097	-0.038
-188.158	-4.059	0.217	0.150
-187.144	-154.449	-0.008	-0.001
-186.129	-200.000	0.070	-0.532
-185.114	133.511	-0.141	-0.181
-184.100	-165.288	0.342	-0.015
-183.085	-200.000	0.018	0.109
-182.071	-61.123	-0.071	0.030
-181.056	105.982	-0.067	0.079
-180.042	800.000	-0.038	0.126
-179.027	39.034	0.228	0.203
-178.012	229.010	0.096	-0.156
-176.998	-118.271	-0.283	-0.050
-175.983	800.000	0.113	0.380
-174.969	800.000	-0.070	0.202
-173.954	-85.257	0.213	0.066
-172.939	-13.405	-0.245	-0.158
-171.925	-200.000	-0.002	0.123
-170.910	800.000	-0.065	0.254
-169.896	604.265	0.050	0.123
-168.881	131.753	0.093	-0.119
-167.866	349.805	-0.232	-0.456
-166.852	-200.000	-0.040	0.192
-165.837	18.636	-0.183	-0.146
-164.823	99.745	0.147	0.169
-163.808	-68.314	0.232	-0.090
-162.793	800.000	0.012	-0.039
-161.779	-200.000	0.017	0.120
-160.764	-82.192	0.226	0.073
-159.750	-112.609	0.282	-0.056
-158.735	-29.358	-0.099	-0.057
-157.720	77.708	0.250	-0.265
-156.706	-56.834	0.211	0.093
-155.691	-47.062	-0.100	0.049
-154.677	45.118	0.047	0.043
-153.662	-82.744	-0.261	-0.084
-152.647	800.000	0.010	-0.028
-151.633	-151.473	0.328	-0.024
-150.618	-106.097	0.340	0.076
-149.604	112.232	0.078	0.094
-148.589	-200.000	-0.026	0.113
-147.574	539.958	0.126	-0.299
-146.560	119.744	-0.151	0.186
-145.545	800.000	0.086	0.345
-144.531	788.487	-0.059	0.160
-143.516	800.000	0.108	-0.314
-142.502	-123.365	-0.252	-0.040
-141.487	439.963	-0.144	0.313
-140.472	173.162	-0.061	0.088
-139.458	-23.206	0.050	-0.030
-138.443	111.350	-0.130	0.156
-137.429	-127.210	-0.228	-0.033
-136.414	800.000	-0.077	0.293
-135.399	687.351	0.058	0.151
-134.385	76.208	-0.048	0.051
-133.370	174.697	-0.277	-0.399
-132.356	-185.570	0.367	0.006
-131.341	-1.228	0.223	0.156
-130.326	-200.000	-0.008	-0.160
-129.312	-103.586	0.184	-0.043
-128.297	-200.000	0.006	-0.227
-127.283	-164.446	-0.295	-0.013
-126.268	528.717	-0.108	-0.252
-125.253	32.565	0.293	0.252
-124.239	-200.000	0.005	0.396
-123.224	26.892	-0.112	-0.093
-122.210	-121.460	0.349	-0.058
-121.195	479.332	-0.088	0.199
-120.180	158.932	0.147	0.203
-119.166	432.946	0.159	0.342
-118.151	-60.760	-0.020	-0.008
-117.137	-148.630	0.106	0.009
-116.122	-188.925	0.329	-0.004
-115.107	-200.000	0.039	-0.422
-114.093	-200.000	-0.026	-0.118
-113.078	277.866	0.114	0.202
-112.064	-48.510	0.151	-0.072
-111.049	-200.000	0.010	-0.344
-110.034	-105.235	0.226	-0.051
-109.020	-26.566	0.193	0.112
-108.005	-9.087	0.153	-0.101
-106.991	48.087	0.094	-0.087
-105.976	44.265	0.084	0.076
-104.962	-200.000	0.111	-0.000
-103.947	238.047	0.196	0.322
-102.932	-39.136	-0.307	0.160
-101.918	-200.000	0.009	-0.388
-100.903	292.533	-0.155	0.280
-99.889	582.618	0.068	0.166
-98.874	800.000	0.065	-0.248
-97.859	62.046	-0.072	0.071
-96.845	127.775	0.136	0.171
-95.830	297.272	0.064	-0.116
-94.816	-200.000	-0.027	0.132
-93.801	-200.000	-0.018	0.087
-92.786	-40.640	0.116	-0.060
-91.772	307.054	0.010	0.018
-90.757	230.799	-0.145	-0.236
-89.743	-92.389	0.148	0.041
-88.728	-108.435	-0.317	0.068
-87.713	291.357	0.119	-0.214
-86.699	-119.331	0.177	-0.031
-85.684	230.872	0.079	0.128
-84.670	795.604	0.067	0.182
-83.655	337.042	-0.021	0.041
-82.640	-200.000	0.018	-0.240
-81.626	-67.723	-0.213	0.083
-80.611	158.997	0.202	0.279
-79.597	-200.000	-0.016	-0.242
-78.582	506.889	-0.130	0.298
-77.567	115.421	-0.107	-0.130
-76.553	25.102	0.286	-0.235
-75.538	-20.230	-0.345	0.211
-74.524	-200.000	0.023	0.293
-73.509	-60.852	0.155	0.065
-72.494	-88.148	0.099	0.029
-71.480	-58.032	0.296	0.128
-70.465	-200.000	-0.001	0.301
-69.451	684.916	0.221	0.572
-68.436	-172.901	-0.399	0.012
-67.422	-1.235	0.088	0.061
-66.407	800.000	-0.068	0.230
-65.392	800.000	-0.040	-0.128
-64.378	-200.000	-0.012	-0.073
-63.363	-66.225	0.375	-0.148
-62.349	-94.531	-0.299	0.081
-61.334	32.158	-1.024	-0.876
-60.319	3.186	0.658	0.475
-59.305	313.995	-0.314	-0.585
-58.290	53.092	0.765	0.725
-57.276	553.625	0.683	1.628
-56.261	-200.000	95.621	566.763
-55.246	508.502	1426.217	3281.651
-54.232	147.212	2626.908	3502.457
-53.217	100.970	2356.690	2715.481
-52.203	38.752	2105.566	1862.045
-51.188	34.053	2019.172	1742.646
-50.173	32.569	2000.506	1712.983
-49.159	47.522	2049.338	1892.690
-48.144	48.703	2067.134	1919.922
-47.130	34.688	2030.171	1757.705
-46.115	32.452	2018.847	1727.337
-45.100	32.328	2016.218	1723.884
-44.086	32.266	2014.000	1721.350
-43.071	32.137	2011.068	1717.599
-42.057	32.152	2008.725	1715.659
-41.042	32.219	2006.819	1714.581
-40.027	32.265	2004.830	1713.234
-39.013	32.286	2002.170	1711.079
-37.998	32.282	2000.748	1709.759
-36.984	32.252	1999.538	1708.387
-35.969	32.333	1997.072	1706.949
-34.954	32.385	1995.417	1705.932
-33.940	32.412	1993.920	1704.830
-32.925	32.430	1992.195	1703.449
-31.911	32.461	1990.521	1702.239
-30.896	32.381	1989.449	1700.529
-29.881	32.397	1988.145	1699.487
-28.867	32.425	1986.303	1698.105
-27.852	32.578	1983.978	1697.422
-26.838	32.445	1982.148	1694.591
-25.823	32.456	1979.869	1692.676
-24.809	32.464	1978.496	1691.506
-23.794	32.401	1977.281	1689.834
-22.779	32.387	1974.958	1687.661
-21.765	32.375	1973.451	1686.200
-20.750	32.419	1971.264	1684.650
-19.736	32.392	1970.377	1683.589
-18.721	32.430	1968.715	1682.437
-17.706	32.492	1966.551	1681.079
-16.692	32.421	1965.232	1679.252
-15.677	32.408	1963.561	1677.639
-14.663	32.376	1962.138	1676.070
-13.648	32.497	1960.655	1675.821
-12.633	32.372	1959.863	1673.964
-11.619	32.414	1958.831	1673.389
-10.604	32.418	1957.175	1671.946
-9.590	32.422	1955.486	1670.467
-8.575	32.504	1953.336	1669.288
-7.560	32.434	1952.591	1667.972
-6.546	32.422	1951.608	1666.956
-5.531	32.487	1950.023	1666.110
-4.517	32.409	1949.099	1664.562
-3.502	32.445	1947.855	1663.751
-2.487	32.371	1946.668	1662.019
-1.473	32.449	1945.593	1661.730
-0.458	32.667	1941.111	1659.752
0.556	30.917	1923.195	1637.117
1.571	27.688	1905.240	1593.537
2.586	24.263	1930.102	1583.818
3.600	23.393	1967.295	1606.311
4.615	22.926	1962.928	1598.378
5.629	20.230	1866.818	1496.756
6.644	15.303	1754.769	1366.727
7.659	12.590	1719.714	1317.610
8.673	12.321	1716.542	1312.909
9.688	12.302	1715.524	1311.868
10.702	12.294	1713.833	1310.392
11.717	12.193	1710.245	1306.732
12.731	12.490	1709.444	1308.363
13.746	15.945	1717.373	1341.890
14.761	19.004	1723.032	1370.605
15.775	18.608	1719.557	1364.567
16.790	17.337	1715.649	1351.259
17.804	16.179	1712.498	1339.466
18.819	15.170	1709.265	1328.822
19.834	14.543	1706.672	1321.717
20.848	14.179	1704.371	1316.942
21.863	13.890	1702.783	1313.312
22.877	13.666	1700.873	1309.948
23.892	13.328	1700.073	1306.548
24.907	13.327	1698.113	1304.918
25.921	13.263	1697.675	1303.962
26.936	13.199	1697.240	1303.006
27.950	13.379	1695.098	1302.665
28.965	13.362	1695.175	1302.473
29.980	13.418	1694.531	1302.306
30.994	13.393	1693.666	1301.328
32.009	13.405	1692.537	1300.439
33.023	13.602	1690.681	1300.445
34.038	13.551	1690.145	1299.520
35.053	13.619	1689.047	1299.097
36.067	13.446	1687.927	1296.760
37.082	13.355	1686.834	1295.096
38.096	13.456	1685.530	1294.769
39.111	13.515	1685.293	1294.935
40.126	13.539	1684.113	1294.100
41.140	13.458	1683.425	1292.825
42.155	13.326	1681.436	1290.153
43.169	13.246	1680.106	1288.397
44.184	13.324	1678.861	1287.933
45.199	13.278	1677.685	1286.561
46.213	13.303	1676.405	1285.661
47.228	13.285	1675.566	1284.757
48.242	13.258	1674.353	1283.506
49.257	13.421	1672.825	1283.486
50.271	13.450	1671.614	1282.672
51.286	13.378	1670.545	1281.177
52.301	13.369	1669.622	1280.287
53.315	13.474	1667.820	1279.602
54.330	13.437	1666.033	1277.833
55.344	13.338	1664.569	1275.837
56.359	13.270	1663.149	1274.105
57.374	13.317	1662.035	1273.505
58.388	13.301	1661.542	1272.894
59.403	13.262	1659.516	1270.927
60.417	13.272	1658.165	1269.859
61.432	13.199	1657.187	1268.438
62.447	13.232	1656.069	1267.718
63.461	13.188	1654.816	1266.311
64.476	13.168	1653.942	1265.377
65.490	13.176	1652.329	1264.095
66.505	13.093	1651.493	1262.709
67.520	13.155	1650.816	1262.550
68.534	13.209	1649.384	1261.753
69.549	13.229	1648.237	1260.918
70.563	13.193	1647.154	1259.704
71.578	13.175	1646.131	1258.675
72.593	13.130	1644.979	1257.339
73.607	13.142	1644.023	1256.590
74.622	13.057	1642.797	1254.892
75.636	12.976	1642.060	1253.606
76.651	13.112	1640.940	1253.674
77.666	13.190	1639.926	1253.380
78.680	13.040	1639.449	1251.763
79.695	13.105	1638.235	1251.220
80.709	13.184	1637.184	1250.903
81.724	13.209	1636.737	1250.640
82.739	13.188	1635.986	1249.794
83.753	13.277	1634.451	1249.189
84.768	13.333	1633.662	1248.892
85.782	13.440	1632.793	1248.929
86.797	13.411	1632.641	1248.484
87.812	13.419	1631.238	1247.363
88.826	13.366	1630.041	1245.937
89.841	13.348	1628.822	1244.756
90.855	13.325	1627.952	1243.807
91.870	13.407	1626.708	1243.364
92.884	13.354	1625.733	1242.112
93.899	13.354	1624.790	1241.284
94.914	13.425	1623.341	1240.596
95.928	13.482	1622.362	1240.169
96.943	13.572	1620.595	1239.380
97.957	13.447	1619.378	1237.404
98.972	13.463	1617.449	1235.939
99.987	13.473	1616.428	1235.128
101.001	13.487	1614.430	1233.590
102.016	13.440	1612.828	1231.909
103.030	13.441	1611.678	1230.929
104.045	13.448	1610.613	1230.059
105.060	13.461	1609.461	1229.166
106.074	13.401	1607.759	1227.318
107.089	13.378	1605.923	1225.634
108.103	13.285	1604.633	1223.854
109.118	13.215	1603.155	1222.099
110.133	13.227	1601.815	1221.061
111.147	13.229	1600.153	1219.697
112.162	13.253	1599.097	1218.960
113.176	13.253	1597.091	1217.330
114.191	13.256	1596.204	1216.567
115.206	13.322	1594.923	1215.966
116.220	13.398	1593.606	1215.412
117.235	13.263	1592.276	1213.299
118.249	13.227	1590.887	1211.867
119.264	13.226	1589.817	1210.940
120.279	13.197	1588.391	1209.538
121.293	13.174	1586.555	1207.860
122.308	13.231	1585.213	1207.151
123.322	13.228	1583.250	1205.525
124.337	13.233	1581.867	1204.405
125.352	13.255	1580.371	1203.318
126.366	13.155	1579.750	1202.012
127.381	13.261	1578.220	1201.507
128.395	13.204	1577.231	1200.235
129.410	13.097	1576.146	1198.530
130.424	13.183	1574.844	1198.052
131.439	13.235	1573.185	1197.068
132.454	13.264	1571.723	1196.054
133.468	13.215	1570.285	1194.500
134.483	13.333	1569.068	1194.321
135.497	13.300	1567.611	1192.869
136.512	13.387	1566.111	1192.249
137.527	13.347	1564.723	1190.798
138.541	13.240	1563.302	1188.840
139.556	13.395	1562.172	1188.992
140.570	13.307	1560.774	1187.195
141.585	13.442	1559.492	1187.077
142.600	13.479	1558.328	1186.356
143.614	13.456	1557.278	1185.285
144.629	13.592	1555.330	1184.673
145.643	13.614	1554.049	1183.746
146.658	13.607	1552.350	1182.297
147.673	13.552	1551.513	1181.165
148.687	13.508	1550.001	1179.591
149.702	13.455	1548.622	1178.061
150.716	13.448	1547.111	1176.762
151.731	13.445	1545.458	1175.377
152.746	13.404	1544.758	1174.451
153.760	13.470	1542.949	1173.441
154.775	13.517	1541.798	1172.792
155.789	13.576	1540.610	1172.201
156.804	13.551	1539.268	1170.902
157.819	13.647	1537.800	1170.361
158.833	13.638	1536.996	1169.579
159.848	13.742	1535.336	1168.947
160.862	13.659	1534.687	1167.762
161.877	13.829	1533.380	1167.865
162.892	13.641	1532.287	1165.603
163.906	13.594	1531.006	1164.200
164.921	13.589	1529.240	1162.716
165.935	13.544	1528.482	1161.718
166.950	13.510	1527.610	1160.715
167.964	13.656	1526.204	1160.565
168.979	13.700	1524.903	1159.784
169.994	13.600	1524.267	1158.496
171.008	13.677	1523.133	1158.071
172.023	13.675	1521.695	1156.862
173.037	13.641	1520.774	1155.824
174.052	13.781	1519.533	1155.750
175.067	13.778	1518.564	1154.896
176.081	13.758	1517.582	1153.906
177.096	13.542	1516.303	1151.331
178.110	13.716	1514.597	1151.139
179.125	13.664	1513.816	1150.086
180.140	13.809	1511.957	1149.571
181.154	13.712	1511.550	1148.490
182.169	13.730	1510.188	1147.481
183.183	13.699	1509.470	1146.619
184.198	13.813	1508.132	1146.290
185.213	13.866	1506.735	1145.486
186.227	13.818	1506.077	1144.554
187.242	13.856	1505.261	1144.095
188.256	13.940	1503.659	1143.356
189.271	13.917	1502.854	1142.486
190.286	13.961	1502.064	1142.085
191.300	13.959	1500.630	1140.879
192.315	13.795	1499.140	1138.523
193.329	13.708	1497.970	1136.939
194.344	13.745	1496.764	1136.176
195.359	13.757	1495.371	1135.100
196.373	13.830	1494.411	1134.769
197.388	13.826	1493.425	1133.893
198.402	13.936	1492.833	1134.095
199.417	14.038	1491.181	1133.430
200.432	14.035	1490.564	1132.846
201.446	14.175	1489.545	1132.925
202.461	14.217	1488.351	1132.199
203.475	14.141	1487.353	1130.823
204.490	14.159	1485.963	1129.787
205.504	14.154	1485.320	1129.166
206.519	14.166	1483.791	1127.982
207.534	14.160	1482.476	1126.848
208.548	14.111	1481.391	1125.588
209.563	14.108	1480.496	1124.792
210.577	14.237	1479.195	1124.571
211.592	14.096	1478.767	1123.195
212.607	14.083	1478.118	1122.516
213.621	14.274	1477.087	1122.919
214.636	14.365	1476.243	1122.796
215.650	14.354	1474.956	1121.640
216.665	14.263	1474.398	1120.504
217.680	14.240	1473.822	1119.816
218.694	14.385	1472.520	1119.703
219.709	14.355	1471.988	1118.993
220.723	14.369	1470.856	1118.131
221.738	14.385	1469.756	1117.303
222.753	14.406	1468.622	1116.480
223.767	14.349	1467.733	1115.327
224.782	14.399	1467.407	1115.310
225.796	14.425	1466.102	1114.394
226.811	14.535	1465.042	1114.230
227.826	14.552	1464.417	1113.764
228.840	14.456	1463.781	1112.544
229.855	14.517	1462.623	1111.970
230.869	14.517	1461.520	1111.034
231.884	14.421	1460.272	1109.349
232.899	14.370	1459.427	1108.269
233.913	14.367	1458.555	1107.492
234.928	14.293	1457.668	1106.224
235.942	14.402	1455.861	1105.477
236.957	14.373	1454.585	1104.223
237.972	14.456	1453.433	1103.798
238.986	14.531	1451.985	1103.100
240.001	14.352	1451.736	1101.624
241.015	14.446	1450.538	1101.238
242.030	14.388	1449.194	1099.739
243.045	14.514	1448.267	1099.769
244.059	14.520	1447.541	1099.161
245.074	14.666	1446.334	1099.111
246.088	14.589	1445.938	1098.205
247.103	14.628	1445.403	1097.955
248.117	14.689	1444.064	1097.242
249.132	14.692	1443.098	1096.430
250.147	14.769	1442.794	1096.612
251.161	14.805	1442.042	1096.176
252.176	14.912	1441.824	1096.617
253.190	14.880	1440.781	1095.517
254.205	14.916	1439.708	1094.841
255.220	14.986	1438.493	1094.276
256.234	15.098	1438.377	1094.824
257.249	15.054	1437.405	1093.697
258.263	14.960	1436.682	1092.440
259.278	15.091	1435.441	1092.256
260.293	14.993	1434.839	1091.061
261.307	14.971	1433.816	1090.039
262.322	15.101	1433.193	1090.318
263.336	15.187	1431.760	1089.691
264.351	15.116	1431.585	1088.999
265.366	15.112	1430.492	1088.048
266.380	15.164	1429.540	1087.563
267.395	15.181	1428.321	1086.651
268.409	15.129	1427.702	1085.744
269.424	15.201	1426.105	1084.903
270.439	15.123	1425.728	1084.010
271.453	15.116	1424.274	1082.769
272.468	15.108	1423.588	1082.097
273.482	15.217	1422.870	1082.158
274.497	15.159	1422.247	1081.218
275.512	15.118	1421.114	1079.993
276.526	15.160	1420.165	1079.452
277.541	15.129	1418.519	1077.902
278.555	15.239	1418.175	1078.254
279.570	15.282	1417.218	1077.708
280.585	15.281	1415.919	1076.618
281.599	15.328	1415.443	1076.464
282.614	15.372	1414.515	1075.946
283.628	15.326	1413.405	1074.712
284.643	15.282	1412.193	1073.412
285.657	15.221	1411.568	1072.452
286.672	15.249	1410.514	1071.736
287.687	15.331	1409.624	1071.485
288.701	15.372	1408.376	1070.702
289.716	15.347	1407.420	1069.722
290.730	15.330	1407.040	1069.235
291.745	15.402	1405.203	1068.201
292.760	15.364	1404.498	1067.329
293.774	15.440	1403.389	1066.873
294.789	15.499	1402.463	1066.451
295.803	15.516	1401.659	1065.849
296.818	15.553	1401.144	1065.601
297.833	15.539	1399.923	1064.492
298.847	15.510	1398.889	1063.426
299.862	15.510	1397.983	1062.644
300.876	15.535	1397.033	1061.987
301.891	15.397	1396.360	1060.507
302.906	15.507	1395.252	1060.268
303.920	15.644	1394.672	1060.595
304.935	15.616	1393.948	1059.772
305.949	15.751	1392.944	1059.766
306.964	15.689	1392.291	1058.787
307.979	15.753	1391.347	1058.378
308.993	15.796	1390.280	1057.741
310.008	15.780	1389.401	1056.878
311.022	15.799	1387.856	1055.730
312.037	15.785	1387.650	1055.392
313.052	15.785	1386.528	1054.445
314.066	15.826	1385.548	1053.866
315.081	15.715	1384.431	1052.227
316.095	15.716	1383.181	1051.190
317.110	15.650	1382.354	1050.056
318.125	15.693	1381.354	1049.472
319.139	15.711	1380.456	1048.808
320.154	15.685	1379.178	1047.582
321.168	15.775	1378.063	1047.205
322.183	15.826	1377.296	1046.846
323.197	15.771	1376.215	1045.592
324.212	15.890	1375.295	1045.539
325.227	15.852	1374.734	1044.784
326.241	15.792	1374.277	1043.973
327.256	15.723	1373.144	1042.590
328.270	15.823	1372.084	1042.313
329.285	15.893	1370.868	1041.728
330.300	15.790	1370.388	1040.638
331.314	15.875	1369.348	1040.281
332.329	15.834	1368.174	1039.045
333.343	15.906	1367.360	1038.776
334.358	15.893	1366.613	1038.037
335.373	15.928	1365.773	1037.523
336.387	15.870	1365.205	1036.644
337.402	15.904	1364.612	1036.311
338.416	16.009	1363.182	1035.775
339.431	15.998	1362.956	1035.446
340.446	16.004	1362.619	1035.137
341.460	16.079	1361.445	1034.610
342.475	16.109	1360.249	1033.792
343.489	16.268	1358.946	1033.685
344.504	16.182	1358.404	1032.659
345.519	16.110	1357.930	1031.763
346.533	16.258	1356.848	1031.756
347.548	16.328	1355.742	1031.249
348.562	16.359	1354.945	1030.745
349.577	16.431	1353.941	1030.329
350.592	16.312	1353.666	1029.304
351.606	16.265	1352.451	1028.003
352.621	16.297	1351.087	1027.066
353.635	16.178	1349.961	1025.399
354.650	16.266	1349.006	1025.119
355.665	16.158	1348.184	1023.745
356.679	16.289	1346.974	1023.532
357.694	16.276	1346.062	1022.669
358.708	16.265	1345.176	1021.840
359.723	16.329	1343.910	1021.171
360.738	16.405	1342.331	1020.343
361.752	16.437	1341.543	1019.845
362.767	16.495	1340.270	1019.138
363.781	16.421	1339.654	1018.130
364.796	16.314	1339.438	1017.234
365.810	16.381	1338.841	1017.093
366.825	16.411	1337.735	1016.342
367.840	16.585	1336.881	1016.652
368.854	16.655	1335.819	1016.170
369.869	16.610	1335.673	1015.701
370.883	16.612	1335.195	1015.261
371.898	16.624	1334.165	1014.461
372.913	16.663	1333.027	1013.740
373.927	16.606	1332.168	1012.653
374.942	16.643	1331.630	1012.378
375.956	16.704	1330.532	1011.818
376.971	16.630	1330.268	1011.086
377.986	16.583	1329.666	1010.257
379.000	16.662	1328.470	1009.729
380.015	16.702	1327.895	1009.441
381.029	16.779	1327.185	1009.272
382.044	16.808	1326.212	1008.614
383.059	16.928	1325.290	1008.538
384.073	16.934	1324.671	1008.014
385.088	16.912	1323.930	1007.230
386.102	16.866	1323.490	1006.532
387.117	16.935	1322.676	1006.236
388.132	16.860	1321.850	1005.072
389.146	16.874	1321.142	1004.531
390.161	16.864	1319.948	1003.471
391.175	16.787	1319.364	1002.486
392.190	16.894	1318.364	1002.266
393.205	16.871	1317.996	1001.762
394.219	16.933	1316.566	1000.951
395.234	17.062	1315.164	1000.559
396.248	16.992	1313.910	999.104
397.263	17.035	1312.753	998.388
398.278	16.996	1311.347	997.003
399.292	16.849	1310.647	995.518
400.307	16.891	1309.213	994.589
401.321	16.948	1308.059	993.958
402.336	16.857	1307.533	992.939
403.350	16.814	1306.479	991.798
404.365	16.916	1305.415	991.499
405.380	16.954	1304.681	991.075
406.394	16.946	1303.928	990.367
407.409	16.924	1303.360	989.721
408.423	17.031	1302.897	989.904
409.438	17.040	1301.874	989.094
410.453	17.229	1301.062	989.490
411.467	17.221	1300.316	988.788
412.482	17.207	1299.742	988.182
413.496	17.248	1299.033	987.797
414.511	17.330	1297.949	987.357
415.526	17.237	1297.478	986.372
416.540	17.305	1296.822	986.183
417.555	17.314	1295.761	985.343
418.569	17.394	1295.244	985.325
419.584	17.444	1294.862	985.237
420.599	17.346	1294.663	984.427
421.613	91.765	1350.275	1454.459
422.628	90.217	1358.323	1454.545
