DTS Sentinel unit serial number:	SN413079Multiplexer serial number:	ORYXHardware model number:	OX4-SRSoftware version number:	ORYX F/W v4.00 Oryx Data Collector v3.7.2.0data status	okinstallation	princeton_trtdifferential loss correction	single-endedforward channel	channel 4reverse channel	N/Adate	2019/09/18time	12:05:34forward acquisition time	60.00reverse acquisition time	0.00gamma	496.2192k internal	0.2309k external	0.2309temperature offset calibration	0.9990default loss term (dB/km)	0.3790temperature slope calibration	1.0000multiplexer offset coefficient	1.0000multiplexer slope coefficient	1.0000fibre end	0.00T internal ref (°C)	31.62T ext. ref 1 (°C)	0.49T ext. ref 2 (°C)	27.17length (m)	temperature (°C)	Stokes	anti-Stokes-747.200	225.246	0.047	0.078
-746.185	423.017	0.219	0.478
-745.171	-93.794	-0.114	0.032
-744.156	-78.556	-0.367	0.128
-743.142	800.000	0.038	-0.157
-742.127	-200.000	0.028	0.144
-741.112	651.557	-0.168	0.437
-740.098	286.148	-0.055	0.101
-739.083	-0.136	-0.186	0.134
-738.069	354.328	0.130	0.262
-737.054	100.829	0.087	0.103
-736.039	-73.010	0.362	0.135
-735.025	-49.609	-0.222	0.108
-734.010	-56.258	-0.148	-0.067
-732.996	-200.000	0.033	-0.209
-731.981	-6.449	-0.184	-0.128
-730.966	-112.474	0.182	0.037
-729.952	56.757	0.136	0.134
-728.937	57.631	-0.129	-0.128
-727.923	-129.745	-0.145	-0.020
-726.908	79.681	-0.170	0.185
-725.894	-63.518	-0.365	-0.152
-724.879	0.184	-0.141	-0.102
-723.864	-58.944	-0.275	-0.121
-722.850	335.009	-0.065	-0.128
-721.835	55.951	0.215	-0.212
-720.821	-115.394	-0.463	0.089
-719.806	-149.821	0.083	-0.007
-718.791	30.361	-0.065	-0.056
-717.777	53.886	-0.140	0.137
-716.762	-155.049	-0.353	0.023
-715.748	102.130	-0.157	-0.186
-714.733	103.653	0.143	-0.170
-713.718	-153.474	0.519	0.037
-712.704	29.266	-0.120	-0.103
-711.689	-48.015	-0.191	0.094
-710.675	29.141	0.025	-0.021
-709.660	69.296	0.038	-0.039
-708.645	-177.101	0.086	-0.002
-707.631	-200.000	-0.041	-0.219
-706.616	-121.016	0.062	-0.010
-705.602	800.000	-0.035	0.100
-704.587	-200.000	-0.018	-0.159
-703.572	800.000	0.032	-0.093
-702.558	800.000	-0.047	0.190
-701.543	-200.000	-0.052	-0.403
-700.529	73.285	-0.091	-0.097
-699.514	-200.000	-0.009	0.082
-698.499	13.370	-0.109	0.086
-697.485	-13.321	-0.113	0.074
-696.470	-58.861	-0.298	0.131
-695.456	800.000	0.076	0.219
-694.441	-200.000	0.045	-0.286
-693.426	-200.000	0.002	-0.172
-692.412	250.705	0.049	0.084
-691.397	-162.105	0.025	-0.001
-690.383	111.836	-0.205	-0.251
-689.368	210.494	-0.143	0.228
-688.354	-96.842	-0.084	-0.022
-687.339	-200.000	-0.093	-0.438
-686.324	557.192	-0.127	-0.309
-685.310	479.699	-0.115	-0.264
-684.295	-83.964	0.237	0.077
-683.281	-46.743	0.263	-0.130
-682.266	297.456	-0.138	-0.256
-681.251	-108.985	0.308	-0.067
-680.237	266.221	0.145	-0.257
-679.222	-76.216	0.173	0.062
-678.208	98.950	-0.091	0.106
-677.193	-34.703	-0.183	-0.101
-676.178	583.855	-0.057	-0.141
-675.164	800.000	0.068	-0.194
-674.149	-200.000	-0.005	-0.227
-673.135	-200.000	-0.010	-0.086
-672.120	45.317	-0.031	0.029
-671.105	-141.327	-0.175	0.018
-670.091	-200.000	-0.046	0.365
-669.076	-200.000	0.060	0.313
-668.062	182.049	-0.094	-0.140
-667.047	226.749	-0.068	0.113
-666.032	-100.376	-0.163	0.041
-665.018	-50.670	0.111	-0.053
-664.003	-13.608	0.433	-0.284
-662.989	105.082	-0.137	0.163
-661.974	125.585	0.151	-0.193
-660.959	129.475	-0.095	0.123
-659.945	127.267	-0.087	-0.112
-658.930	-126.813	0.325	-0.049
-657.916	-10.304	-0.085	0.057
-656.901	-55.244	-0.194	-0.088
-655.886	-118.799	0.176	-0.031
-654.872	-200.000	-0.011	-0.265
-653.857	800.000	0.088	-0.306
-652.843	-115.408	-0.311	-0.059
-651.828	-189.811	0.112	-0.001
-650.814	-115.455	0.128	0.024
-649.799	800.000	-0.030	-0.099
-648.784	174.148	-0.084	0.123
-647.770	145.945	0.150	0.204
-646.755	-200.000	0.004	-0.045
-645.741	-179.330	-0.280	0.006
-644.726	78.796	-0.158	-0.171
-643.711	-69.101	0.511	0.199
-642.697	-45.429	-0.075	-0.037
-641.682	154.200	0.138	0.192
-640.668	702.168	0.096	-0.257
-639.653	800.000	-0.122	-0.461
-638.638	-200.000	0.008	-0.089
-637.624	-200.000	-0.001	0.203
-636.609	720.651	0.077	0.207
-635.595	246.928	-0.151	0.257
-634.580	800.000	0.076	0.306
-633.565	184.331	0.085	-0.127
-632.551	579.600	-0.043	0.106
-631.536	95.528	-0.134	0.155
-630.522	219.845	-0.078	0.127
-629.507	-47.362	-0.130	-0.064
-628.492	-78.369	0.427	-0.148
-627.478	110.761	0.110	0.134
-626.463	-200.000	0.028	0.156
-625.449	-200.000	-0.035	0.193
-624.434	800.000	-0.080	-0.263
-623.419	-94.093	-0.228	-0.063
-622.405	0.772	0.293	-0.213
-621.390	-35.310	0.307	0.169
-620.376	800.000	0.040	0.133
-619.361	82.671	-0.161	0.177
-618.346	130.706	0.089	-0.116
-617.332	221.245	0.117	-0.190
-616.317	-15.699	-0.111	0.071
-615.303	264.429	0.097	-0.171
-614.288	800.000	0.081	0.331
-613.273	-95.479	-0.065	0.018
-612.259	554.056	0.046	0.112
-611.244	-200.000	0.025	-0.128
-610.230	102.563	0.151	-0.178
-609.215	-130.905	0.508	0.069
-608.201	117.787	-0.122	0.151
-607.186	-72.938	-0.155	0.058
-606.171	-88.932	-0.141	0.042
-605.157	136.301	0.082	0.108
-604.142	-74.111	0.060	-0.022
-603.128	40.585	0.097	0.089
-602.113	69.782	0.113	0.118
-601.098	-91.189	0.113	0.033
-600.084	-200.000	-0.095	0.429
-599.069	52.200	-0.161	0.155
-598.055	-115.504	-0.280	0.053
-597.040	174.371	0.039	0.057
-596.025	40.277	0.102	-0.093
-595.011	-78.093	0.220	-0.076
-593.996	-37.946	-0.220	0.118
-592.982	800.000	0.037	-0.136
-591.967	-40.056	-0.195	0.103
-590.952	-200.000	0.016	-0.307
-589.938	76.244	-0.191	0.205
-588.923	-200.000	-0.031	0.147
-587.909	-65.620	0.108	-0.044
-586.894	-181.820	-0.228	-0.004
-585.879	128.725	0.316	0.407
-584.865	-143.995	0.111	-0.010
-583.850	-178.033	-0.404	0.010
-582.836	-30.607	-0.083	0.048
-581.821	-36.262	-0.184	-0.100
-580.806	132.432	-0.142	0.185
-579.792	171.808	0.076	0.110
-578.777	1.214	0.268	0.195
-577.763	34.616	0.026	-0.023
-576.748	358.744	-0.107	0.215
-575.733	-86.827	0.094	-0.029
-574.719	-130.963	0.225	0.030
-573.704	-24.946	-0.101	-0.060
-572.690	-200.000	-0.007	0.169
-571.675	259.650	0.086	0.150
-570.661	227.278	0.057	-0.094
-569.646	-168.945	0.207	-0.008
-568.631	-73.358	0.230	0.085
-567.617	-26.109	-0.404	-0.240
-566.602	45.828	-0.243	-0.227
-565.588	-129.926	-0.231	0.032
-564.573	35.059	0.219	0.194
-563.558	395.426	0.073	-0.154
-562.544	128.118	0.121	-0.155
-561.529	187.500	-0.090	-0.136
-560.515	-200.000	-0.040	-0.245
-559.500	35.198	-0.134	0.118
-558.485	271.408	0.102	0.182
-557.471	137.349	0.275	-0.363
-556.456	-57.627	0.257	0.114
-555.442	-110.245	0.225	0.047
-554.427	800.000	-0.030	-0.085
-553.412	346.665	0.002	-0.005
-552.398	-125.199	0.432	0.067
-551.383	-60.082	0.066	0.028
-550.369	-200.000	0.072	-0.357
-549.354	137.860	-0.025	0.033
-548.339	-96.460	0.155	-0.041
-547.325	-126.626	0.176	0.026
-546.310	-200.000	0.069	-0.464
-545.296	-87.787	0.289	0.088
-544.281	-90.663	0.343	-0.100
-543.266	-111.083	-0.276	0.057
-542.252	800.000	0.119	0.436
-541.237	-83.329	-0.626	-0.202
-540.223	-78.004	-0.159	-0.055
-539.208	800.000	-0.049	-0.167
-538.193	-58.517	0.249	-0.109
-537.179	73.571	0.323	-0.341
-536.164	315.500	-0.018	0.033
-535.150	190.676	-0.039	0.060
-534.135	-200.000	-0.023	-0.134
-533.121	-83.260	-0.110	-0.036
-532.106	323.205	-0.134	0.257
-531.091	-6.700	0.039	0.027
-530.077	125.537	-0.026	0.033
-529.062	635.924	0.101	-0.258
-528.048	283.032	-0.025	-0.045
-527.033	123.667	0.087	-0.109
-526.018	-140.208	-0.053	-0.006
-525.004	-200.000	0.013	-0.119
-523.989	154.187	0.056	0.078
-522.975	-53.079	0.267	-0.124
-521.960	-171.170	-0.193	0.007
-520.945	-21.536	0.119	-0.073
-519.931	54.033	-0.082	-0.079
-518.916	116.946	0.128	0.159
-517.902	-200.000	0.088	0.503
-516.887	-200.000	-0.003	0.067
-515.872	2.298	-0.219	0.160
-514.858	-123.078	-0.341	-0.055
-513.843	77.154	0.109	-0.117
-512.829	79.635	-0.239	0.259
-511.814	-200.000	-0.012	0.159
-510.799	-91.035	0.061	0.018
-509.785	-132.620	-0.311	-0.040
-508.770	-122.521	0.333	0.054
-507.756	-200.000	0.004	-0.123
-506.741	215.305	0.169	0.269
-505.726	480.740	0.124	-0.282
-504.712	85.932	0.109	0.120
-503.697	458.422	-0.113	-0.253
-502.683	-81.573	-0.051	0.017
-501.668	-93.029	-0.409	-0.115
-500.653	-200.000	0.055	-0.405
-499.639	-102.175	-0.076	-0.018
-498.624	358.210	0.058	-0.116
-497.610	-62.863	0.511	-0.213
-496.595	-136.263	-0.097	-0.011
-495.581	800.000	-0.067	-0.260
-494.566	388.442	0.129	-0.268
-493.551	206.672	-0.109	-0.171
-492.537	-200.000	-0.005	-0.126
-491.522	-99.363	-0.069	-0.018
-490.508	800.000	-0.031	0.130
-489.493	-182.343	-0.376	0.007
-488.478	60.311	-0.190	-0.189
-487.464	6.802	0.189	-0.142
-486.449	-50.030	0.172	0.082
-485.435	-200.000	-0.013	0.155
-484.420	800.000	-0.019	-0.062
-483.405	-200.000	-0.028	-0.506
-482.391	379.529	0.158	-0.327
-481.376	-200.000	0.022	0.215
-480.362	-58.810	-0.133	0.058
-479.347	-85.145	-0.113	-0.036
-478.332	-200.000	-0.074	0.328
-477.318	-76.627	-0.165	0.058
-476.303	562.598	-0.095	-0.231
-475.289	-30.482	-0.149	0.085
-474.274	17.022	-0.248	0.197
-473.259	-107.949	-0.337	0.074
-472.245	384.044	-0.061	0.127
-471.230	-200.000	0.028	-0.228
-470.216	86.042	0.179	0.198
-469.201	-67.743	-0.274	-0.108
-468.186	-200.000	0.027	-0.139
-467.172	-137.534	0.087	-0.010
-466.157	-192.131	0.097	0.001
-465.143	-26.584	-0.294	0.173
-464.128	-133.995	0.339	-0.042
-463.113	-200.000	-0.203	-0.000
-462.099	-161.207	0.367	0.019
-461.084	800.000	0.092	-0.394
-460.070	-200.000	-0.079	0.373
-459.055	-200.000	-0.072	-0.372
-458.040	800.000	0.050	-0.151
-457.026	-40.419	-0.186	-0.097
-456.011	-18.090	0.295	0.185
-454.997	-63.748	-0.113	0.046
-453.982	-200.000	0.001	0.251
-452.968	-200.000	0.050	-0.223
-451.953	-158.604	0.447	0.026
-450.938	800.000	-0.005	-0.020
-449.924	-200.000	0.009	-0.062
-448.909	-63.015	0.139	0.058
-447.895	800.000	0.045	-0.181
-446.880	-155.995	-0.167	-0.011
-445.865	-28.964	-0.050	-0.029
-444.851	145.864	0.082	-0.111
-443.836	-173.937	0.309	-0.009
-442.822	800.000	0.081	0.262
-441.807	507.876	-0.104	-0.243
-440.792	-139.500	0.225	-0.024
-439.778	641.154	-0.041	-0.105
-438.763	4.855	0.096	-0.071
-437.749	98.179	-0.133	0.153
-436.734	-27.953	-0.028	-0.016
-435.719	-38.510	0.133	0.071
-434.705	126.951	-0.117	-0.149
-433.690	301.496	0.171	0.318
-432.676	437.855	0.018	0.040
-431.661	-11.378	-0.228	0.151
-430.646	-200.000	0.042	-0.334
-429.632	-128.679	0.083	0.012
-428.617	-167.717	-0.251	0.010
-427.603	800.000	-0.007	-0.025
-426.588	-130.377	0.235	0.032
-425.573	777.794	0.149	0.408
-424.559	0.725	-0.116	-0.083
-423.544	-200.000	-0.058	-0.266
-422.530	-57.333	-0.199	-0.088
-421.515	127.732	-0.117	-0.149
-420.500	-64.612	-0.311	-0.127
-419.486	-114.680	-0.328	0.063
-418.471	-200.000	-0.019	0.137
-417.457	192.604	-0.064	-0.097
-416.442	-200.000	-0.036	0.186
-415.428	-119.701	-0.563	-0.098
-414.413	800.000	0.088	0.292
-413.398	-57.808	0.171	-0.075
-412.384	-68.210	0.164	-0.064
-411.369	-180.232	-0.343	-0.007
-410.355	468.772	0.023	0.051
-409.340	231.013	-0.191	0.314
-408.325	748.826	0.107	-0.288
-407.311	59.909	-0.191	0.189
-406.296	-56.287	-0.105	0.047
-405.282	-190.988	-0.288	0.003
-404.267	470.813	-0.031	0.070
-403.252	800.000	0.101	-0.282
-402.238	-130.512	-0.565	0.077
-401.223	170.536	0.052	0.074
-400.209	29.799	0.100	-0.085
-399.194	-171.319	0.180	-0.006
-398.179	-200.000	-0.019	-0.159
-397.165	232.957	0.093	-0.153
-396.150	244.204	-0.178	0.300
-395.136	-168.622	-0.205	-0.008
-394.121	-148.128	0.158	0.013
-393.106	800.000	-0.092	-0.288
-392.092	94.338	-0.213	0.242
-391.077	-81.308	0.315	0.104
-390.063	298.150	-0.027	0.050
-389.048	-138.410	-0.117	0.013
-388.033	-129.099	0.125	-0.017
-387.019	0.511	0.199	-0.142
-386.004	173.512	-0.204	0.295
-384.990	-200.000	0.008	-0.102
-383.975	-200.000	-0.050	-0.377
-382.960	552.556	0.050	0.120
-381.946	-141.168	0.237	0.024
-380.931	87.618	-0.110	-0.122
-379.917	71.069	-0.109	0.114
-378.902	-200.000	-0.002	-0.182
-377.888	-82.769	-0.220	-0.071
-376.873	-200.000	0.080	-0.431
-375.858	-200.000	-0.057	0.292
-374.844	-56.756	-0.142	-0.063
-373.829	800.000	-0.067	0.260
-372.815	168.842	-0.123	0.175
-371.800	-140.776	-0.137	0.014
-370.785	800.000	0.107	-0.353
-369.771	800.000	-0.019	0.061
-368.756	192.713	0.270	-0.408
-367.742	-114.891	-0.050	0.010
-366.727	125.563	-0.246	-0.311
-365.712	101.126	0.109	0.127
-364.698	800.000	-0.041	-0.124
-363.683	-200.000	0.002	0.325
-362.669	134.901	0.130	-0.168
-361.654	305.636	0.093	-0.174
-360.639	-103.577	0.282	0.066
-359.625	68.314	-0.071	0.073
-358.610	800.000	-0.046	-0.191
-357.596	223.507	0.144	-0.233
-356.581	-200.000	-0.016	-0.191
-355.566	21.404	-0.102	-0.083
-354.552	316.776	-0.171	-0.323
-353.537	100.350	0.194	-0.225
-352.523	-6.958	-0.252	0.171
-351.508	293.529	0.129	-0.237
-350.493	800.000	-0.107	0.417
-349.479	87.379	0.304	0.336
-348.464	497.534	0.098	-0.225
-347.450	19.164	0.098	-0.079
-346.435	800.000	-0.071	0.282
-345.420	186.034	-0.184	0.273
-344.406	-200.000	0.042	0.191
-343.391	-142.238	-0.135	0.013
-342.377	-123.865	0.340	0.054
-341.362	30.918	0.107	-0.092
-340.348	-10.092	-0.050	0.033
-339.333	-158.577	-0.460	-0.027
-338.318	800.000	-0.077	0.271
-337.304	173.713	-0.045	-0.066
-336.289	-60.221	0.347	0.148
-335.275	-91.247	-0.190	-0.055
-334.260	800.000	-0.069	-0.252
-333.245	-200.000	0.043	0.277
-332.231	103.697	-0.261	0.307
-331.216	-80.573	-0.360	-0.120
-330.202	384.701	0.227	-0.467
-329.187	800.000	0.061	-0.179
-328.172	-10.031	0.090	-0.060
-327.158	-96.219	-0.406	0.108
-326.143	-100.512	0.120	-0.030
-325.129	-200.000	0.020	0.217
-324.114	29.630	-0.292	0.249
-323.099	-99.398	-0.103	0.026
-322.085	-200.000	0.035	-0.164
-321.070	-13.309	0.151	-0.098
-320.056	73.450	-0.055	-0.058
-319.041	-200.000	0.005	0.140
-318.026	7.566	0.167	-0.125
-317.012	800.000	-0.013	0.051
-315.997	-29.933	-0.389	-0.221
-314.983	-153.609	-0.090	-0.006
-313.968	-200.000	0.001	0.255
-312.953	-172.846	0.347	-0.011
-311.939	130.781	0.197	0.252
-310.924	-200.000	-0.016	-0.240
-309.910	60.172	0.345	0.341
-308.895	109.872	0.100	-0.120
-307.880	-200.000	0.016	0.089
-306.866	243.575	0.129	-0.217
-305.851	176.308	-0.169	-0.245
-304.837	-46.663	-0.143	0.070
-303.822	-61.768	0.038	0.016
-302.807	25.028	-0.102	0.084
-301.793	-32.849	-0.224	-0.124
-300.778	-8.460	0.215	-0.144
-299.764	-11.122	0.190	0.125
-298.749	428.730	0.052	0.112
-297.735	800.000	0.024	-0.089
-296.720	86.330	-0.186	-0.205
-295.705	-2.953	0.338	-0.235
-294.691	12.290	0.266	0.204
-293.676	-168.509	-0.316	0.012
-292.662	98.940	0.205	0.236
-291.647	105.525	-0.051	-0.060
-290.632	116.804	0.100	-0.122
-289.618	292.139	0.200	0.363
-288.603	-200.000	-0.019	0.215
-287.589	800.000	0.068	0.207
-286.574	-52.888	0.420	-0.193
-285.559	-56.608	0.218	-0.097
-284.545	9.006	-0.129	-0.098
-283.530	-200.000	-0.014	0.068
-282.516	238.678	-0.108	-0.180
-281.501	800.000	0.076	0.241
-280.486	-36.542	0.226	-0.121
-279.472	800.000	0.046	-0.147
-278.457	-2.236	-0.065	0.045
-277.443	650.680	-0.105	0.268
-276.428	-91.860	-0.276	0.078
-275.413	69.501	-0.183	0.188
-274.399	-43.368	0.110	0.056
-273.384	-53.353	-0.333	-0.152
-272.370	656.929	0.038	0.097
-271.355	-95.180	-0.251	-0.067
-270.340	-125.244	0.331	0.050
-269.326	23.273	-0.215	-0.176
-268.311	800.000	-0.091	-0.363
-267.297	-23.139	-0.156	-0.094
-266.282	-94.974	-0.163	0.044
-265.267	-155.153	0.175	-0.011
-264.253	354.657	-0.070	-0.138
-263.238	176.171	-0.111	-0.160
-262.224	158.628	0.055	-0.076
-261.209	-129.697	0.097	-0.013
-260.195	20.997	0.276	0.223
-259.180	-129.501	-0.259	0.036
-258.165	800.000	-0.038	-0.147
-257.151	-74.279	0.369	-0.133
-256.136	-200.000	-0.006	0.146
-255.122	-51.332	-0.137	-0.064
-254.107	-29.864	0.229	-0.130
-253.092	12.013	0.118	0.091
-252.078	413.973	0.024	-0.051
-251.063	-165.224	0.109	0.005
-250.049	9.892	0.061	-0.046
-249.034	237.052	-0.047	-0.078
-248.019	148.544	-0.106	0.143
-247.005	800.000	-0.122	0.350
-245.990	-80.779	0.236	-0.078
-244.976	-129.137	0.124	0.017
-243.961	-200.000	0.005	0.151
-242.946	-52.978	-0.227	0.104
-241.932	800.000	0.112	0.426
-240.917	-142.730	0.120	-0.012
-239.903	800.000	-0.050	0.147
-238.888	-60.378	0.253	-0.107
-237.873	70.417	0.126	0.129
-236.859	471.044	0.077	0.173
-235.844	19.787	-0.085	0.068
-234.830	29.995	0.287	-0.244
-233.815	-200.000	0.027	0.162
-232.800	72.924	-0.212	0.220
-231.786	-200.000	-0.033	0.255
-230.771	127.089	-0.227	0.287
-229.757	800.000	-0.049	0.156
-228.742	-124.244	-0.445	-0.069
-227.727	-162.162	-0.133	-0.007
-226.713	-126.748	-0.060	-0.009
-225.698	182.090	-0.098	-0.143
-224.684	-200.000	-0.000	0.130
-223.669	-200.000	-0.045	0.568
-222.655	-200.000	0.002	0.034
-221.640	-200.000	0.018	0.142
-220.625	308.048	0.095	-0.176
-219.611	276.053	-0.193	-0.341
-218.596	-193.902	0.190	-0.002
-217.582	217.499	0.012	-0.020
-216.567	592.326	-0.188	-0.462
-215.552	440.620	0.128	-0.280
-214.538	-142.075	0.191	0.019
-213.523	-200.000	-0.043	0.415
-212.509	800.000	-0.071	-0.245
-211.494	-200.000	0.045	-0.310
-210.479	270.182	-0.078	-0.136
-209.465	-78.082	-0.151	-0.052
-208.450	48.024	0.134	0.125
-207.436	-200.000	-0.011	0.353
-206.421	-200.000	-0.043	0.310
-205.406	103.520	0.074	-0.086
-204.392	396.750	-0.084	0.174
-203.377	508.235	-0.058	0.133
-202.363	693.861	0.126	0.329
-201.348	-97.727	0.182	0.047
-200.333	163.184	0.141	-0.197
-199.319	-200.000	0.009	-0.107
-198.304	268.721	0.026	0.046
-197.290	-131.772	-0.189	0.025
-196.275	-134.514	-0.228	-0.028
-195.260	45.161	0.236	-0.216
-194.246	-111.608	0.078	0.016
-193.231	71.559	0.161	-0.166
-192.217	85.562	-0.127	-0.138
-191.202	-75.307	-0.299	0.106
-190.187	-106.564	0.283	-0.063
-189.173	800.000	0.049	-0.147
-188.158	15.440	-0.100	0.078
-187.144	-200.000	-0.018	-0.458
-186.129	-182.763	-0.316	0.006
-185.114	278.886	-0.050	0.089
-184.100	-58.214	0.076	0.033
-183.085	-61.500	-0.136	0.057
-182.071	-165.680	-0.447	-0.019
-181.056	12.019	-0.151	-0.116
-180.042	-56.078	0.173	-0.076
-179.027	-74.985	0.177	-0.063
-178.012	-12.880	0.050	-0.033
-176.998	10.209	-0.277	-0.210
-175.983	84.379	0.201	0.219
-174.969	-127.218	0.332	0.048
-173.954	6.337	-0.166	0.123
-172.939	800.000	0.084	0.340
-171.925	666.872	0.092	-0.237
-170.910	300.533	-0.041	0.075
-169.896	-200.000	0.010	0.152
-168.881	-200.000	-0.041	0.239
-167.866	-105.536	-0.081	-0.018
-166.852	344.953	0.158	0.309
-165.837	-128.244	-0.260	0.037
-164.823	-61.222	0.161	-0.067
-163.808	186.946	0.105	0.155
-162.793	236.189	-0.108	-0.178
-161.779	-200.000	0.073	-0.464
-160.764	-200.000	0.019	-0.117
-159.750	-200.000	0.003	0.184
-158.735	-200.000	0.049	-0.230
-157.720	-1.531	0.175	0.123
-156.706	273.116	-0.128	0.224
-155.691	68.265	-0.087	-0.089
-154.677	18.661	0.343	-0.273
-153.662	205.857	0.212	0.327
-152.647	-200.000	0.000	-0.160
-151.633	128.798	-0.162	0.205
-150.618	10.538	0.066	-0.050
-149.604	38.701	-0.206	-0.182
-148.589	-84.941	0.455	-0.142
-147.574	127.437	0.131	0.166
-146.560	-54.058	-0.131	0.059
-145.545	-27.833	0.108	0.062
-144.531	-60.857	-0.206	0.087
-143.516	144.844	0.091	-0.121
-142.502	-200.000	0.003	-0.320
-141.487	-200.000	0.006	-0.256
-140.472	194.942	-0.019	0.028
-139.458	-162.688	-0.537	0.026
-138.443	161.534	-0.055	0.077
-137.429	-18.234	0.200	-0.124
-136.414	211.776	0.262	0.409
-135.399	26.562	-0.055	0.046
-134.385	74.210	0.034	-0.036
-133.370	40.246	-0.177	0.158
-132.356	-57.996	0.261	-0.113
-131.341	173.016	-0.107	0.153
-130.326	147.474	0.178	-0.238
-129.312	220.862	0.135	-0.214
-128.297	-98.556	0.215	-0.055
-127.283	110.042	-0.033	0.040
-126.268	-75.495	0.256	0.090
-125.253	-200.000	-0.038	-0.165
-124.239	-17.976	-0.117	-0.073
-123.224	133.719	-0.064	0.082
-122.210	144.348	-0.146	-0.194
-121.195	382.823	-0.087	0.178
-120.180	-81.497	0.160	-0.052
-119.166	800.000	-0.091	-0.358
-118.151	45.268	-0.088	0.080
-117.137	-200.000	-0.016	-0.102
-116.122	-132.736	0.350	0.044
-115.107	101.549	-0.033	-0.038
-114.093	800.000	0.049	-0.199
-113.078	800.000	-0.015	0.053
-112.064	-200.000	-0.000	-0.320
-111.049	-175.414	0.133	0.004
-110.034	-140.276	-0.341	-0.035
-109.020	185.273	-0.119	0.175
-108.005	800.000	-0.038	-0.132
-106.991	-109.004	0.082	0.017
-105.976	125.668	-0.075	-0.094
-104.962	-79.101	0.423	0.142
-103.947	800.000	0.064	0.248
-102.932	-165.462	0.118	0.005
-101.918	260.823	0.101	0.173
-100.903	-200.000	-0.019	-0.176
-99.889	-33.547	0.179	0.098
-98.874	579.879	-0.149	0.361
-97.859	222.293	0.154	0.246
-96.845	-200.000	0.016	-0.133
-95.830	-151.947	0.033	0.002
-94.816	68.367	0.096	0.097
-93.801	-43.270	0.202	0.101
-92.786	-49.508	0.334	-0.158
-91.772	-149.109	-0.241	0.019
-90.757	443.384	0.077	-0.167
-89.743	490.140	0.128	-0.291
-88.728	69.638	0.407	-0.416
-87.713	-200.000	-0.002	0.438
-86.699	-1.679	-0.264	0.184
-85.684	5.127	-0.154	-0.112
-84.670	-200.000	0.042	0.242
-83.655	76.117	-0.090	0.095
-82.640	-200.000	0.018	0.177
-81.626	326.326	-0.088	0.167
-80.611	-200.000	-0.007	0.173
-79.597	-34.678	-0.194	-0.105
-78.582	-45.326	-0.199	-0.098
-77.567	93.231	0.028	0.031
-76.553	92.344	-0.081	-0.090
-75.538	800.000	0.047	0.128
-74.524	416.749	0.121	0.257
-73.509	-200.000	-0.007	-0.089
-72.494	-93.058	-0.097	-0.027
-71.480	22.173	0.111	0.090
-70.465	6.482	0.035	-0.025
-69.451	112.167	-0.257	0.308
-68.436	-105.236	0.170	0.038
-67.422	-200.000	-0.018	0.315
-66.407	198.114	-0.155	0.235
-65.392	69.043	0.233	-0.237
-64.378	-104.191	0.345	-0.079
-63.363	-79.741	-0.114	0.038
-62.349	460.547	0.153	-0.337
-61.334	150.779	-0.921	-1.238
-60.319	-6.983	0.421	0.283
-59.305	-200.000	-0.038	-1.051
-58.290	403.745	0.473	0.986
-57.276	800.000	0.559	1.887
-56.261	-200.000	94.687	574.552
-55.246	509.567	1405.612	3231.867
-54.232	150.556	2612.701	3510.512
-53.217	101.529	2357.627	2717.596
-52.203	38.279	2116.485	1864.197
-51.188	33.332	2029.946	1742.507
-50.173	31.827	2011.527	1712.891
-49.159	47.142	2060.496	1896.469
-48.144	48.110	2078.219	1921.660
-47.130	33.938	2040.988	1757.312
-46.115	31.678	2030.525	1727.418
-45.100	31.545	2027.619	1723.650
-44.086	31.504	2025.291	1721.229
-43.071	31.403	2022.954	1718.240
-42.057	31.518	2019.776	1716.532
-41.042	31.529	2018.178	1715.207
-40.027	31.591	2015.857	1713.739
-39.013	31.456	2014.518	1711.291
-37.998	31.522	2012.805	1710.374
-36.984	31.551	2010.620	1708.714
-35.969	31.661	2008.001	1707.422
-34.954	31.567	2006.574	1705.284
-33.940	31.643	2005.193	1704.739
-32.925	31.643	2003.432	1703.171
-31.911	31.646	2001.712	1701.672
-30.896	31.564	2000.375	1699.719
-29.881	31.672	1998.551	1699.079
-28.867	31.666	1997.191	1697.808
-27.852	31.760	1994.912	1696.650
-26.838	31.732	1993.002	1694.705
-25.823	31.672	1991.380	1692.721
-24.809	31.627	1989.189	1690.381
-23.794	31.601	1988.020	1689.085
-22.779	31.702	1985.440	1687.736
-21.765	31.579	1983.984	1685.322
-20.750	31.598	1982.356	1684.043
-19.736	31.602	1980.791	1682.683
-18.721	31.650	1979.343	1681.817
-17.706	31.620	1977.743	1680.123
-16.692	31.614	1975.858	1678.407
-15.677	31.692	1974.098	1677.541
-14.663	31.681	1972.918	1676.376
-13.648	31.664	1971.791	1675.198
-12.633	31.653	1970.480	1673.921
-11.619	31.634	1969.070	1672.480
-10.604	31.645	1967.547	1671.221
-9.590	31.622	1966.712	1670.245
-8.575	31.676	1964.594	1668.859
-7.560	31.585	1963.781	1667.290
-6.546	31.642	1962.225	1666.405
-5.531	31.657	1961.350	1665.736
-4.517	31.665	1959.843	1664.459
-3.502	31.618	1958.864	1663.146
-2.487	31.643	1957.278	1661.957
-1.473	31.664	1956.075	1661.048
-0.458	31.786	1951.711	1658.360
0.556	30.156	1931.600	1631.115
1.571	25.850	1911.402	1576.340
2.586	21.493	1933.870	1556.065
3.600	20.221	1968.906	1572.597
4.615	19.491	1963.400	1561.450
5.629	15.159	1860.144	1441.995
6.644	6.135	1738.401	1274.606
7.659	0.974	1699.518	1204.998
8.673	0.576	1695.681	1199.011
9.688	0.558	1693.994	1197.567
10.702	0.542	1692.651	1196.388
11.717	0.294	1689.885	1192.367
12.731	0.932	1688.879	1196.592
13.746	7.109	1702.287	1255.083
14.761	14.969	1718.150	1329.346
15.775	17.316	1720.879	1350.003
16.790	17.042	1718.887	1346.147
17.804	16.124	1715.586	1336.171
18.819	15.112	1712.615	1325.730
19.834	14.481	1710.363	1318.879
20.848	14.255	1708.295	1315.379
21.863	13.947	1706.732	1311.633
22.877	13.650	1705.388	1308.137
23.892	13.522	1703.826	1305.817
24.907	13.381	1702.593	1303.647
25.921	13.342	1701.525	1302.405
26.936	13.297	1700.703	1301.305
27.950	13.494	1699.777	1302.034
28.965	13.466	1699.497	1301.482
29.980	13.552	1698.179	1301.035
30.994	13.485	1697.573	1299.929
32.009	13.633	1696.164	1299.891
33.023	13.589	1696.110	1299.390
34.038	13.610	1694.656	1298.330
35.053	13.637	1693.545	1297.572
36.067	13.556	1692.321	1295.883
37.082	13.535	1691.570	1295.031
38.096	13.499	1690.800	1294.043
39.111	13.529	1690.006	1293.561
40.126	13.537	1688.909	1292.665
41.140	13.495	1688.468	1291.889
42.155	13.517	1686.602	1290.516
43.169	13.407	1685.496	1288.699
44.184	13.403	1684.510	1287.797
45.199	13.364	1683.015	1286.238
46.213	13.359	1681.873	1285.219
47.228	13.449	1679.800	1284.213
48.242	13.391	1679.086	1283.104
49.257	13.395	1677.964	1282.168
50.271	13.517	1676.230	1281.671
51.286	13.454	1675.414	1280.448
52.301	13.521	1673.805	1279.623
53.315	13.486	1672.502	1278.241
54.330	13.482	1670.735	1276.752
55.344	13.418	1669.586	1275.266
56.359	13.392	1667.976	1273.725
57.374	13.377	1667.138	1272.858
58.388	13.355	1665.858	1271.591
59.403	13.338	1664.343	1270.197
60.417	13.409	1662.932	1269.549
61.432	13.307	1661.979	1267.932
62.447	13.366	1660.202	1266.914
63.461	13.357	1659.034	1265.844
64.476	13.241	1658.404	1264.364
65.490	13.310	1657.210	1263.864
66.505	13.345	1655.731	1262.892
67.520	13.307	1654.940	1261.886
68.534	13.423	1653.558	1261.611
69.549	13.290	1652.688	1259.815
70.563	13.349	1651.195	1259.018
71.578	13.400	1649.773	1258.212
72.593	13.355	1648.603	1256.868
73.607	13.260	1648.058	1255.615
74.622	13.235	1646.649	1254.241
75.636	13.217	1645.836	1253.379
76.651	13.258	1644.986	1252.927
77.666	13.310	1643.895	1252.380
78.680	13.164	1643.226	1250.652
79.695	13.198	1641.998	1249.863
80.709	13.263	1640.978	1249.470
81.724	13.326	1639.976	1249.074
82.739	13.322	1639.081	1248.251
83.753	13.320	1638.316	1247.546
84.768	13.382	1637.318	1247.137
85.782	13.453	1636.250	1246.751
86.797	13.432	1635.677	1246.042
87.812	13.501	1634.255	1245.369
88.826	13.478	1632.720	1243.917
89.841	13.391	1631.841	1242.485
90.855	13.398	1630.750	1241.596
91.870	13.418	1630.017	1241.081
92.884	13.416	1628.882	1240.087
93.899	13.532	1627.871	1240.083
94.914	13.503	1626.144	1238.441
95.928	13.493	1625.241	1237.564
96.943	13.552	1623.784	1236.785
97.957	13.555	1622.096	1235.417
98.972	13.578	1620.279	1234.089
99.987	13.530	1619.080	1232.710
101.001	13.479	1617.459	1230.988
102.016	13.457	1615.910	1229.537
103.030	13.471	1614.689	1228.606
104.045	13.509	1613.914	1228.189
105.060	13.525	1612.106	1226.825
106.074	13.439	1610.601	1224.929
107.089	13.436	1609.301	1223.812
108.103	13.379	1607.761	1222.110
109.118	13.403	1606.011	1220.854
110.133	13.332	1604.946	1219.411
111.147	13.325	1603.255	1217.963
112.162	13.428	1601.274	1217.110
113.176	13.387	1600.227	1215.904
114.191	13.422	1599.224	1215.295
115.206	13.428	1597.882	1214.213
116.220	13.493	1596.761	1213.726
117.235	13.466	1595.292	1212.303
118.249	13.389	1593.794	1210.494
119.264	13.391	1592.358	1209.316
120.279	13.410	1591.143	1208.422
121.293	13.348	1589.706	1206.769
122.308	13.340	1587.833	1205.187
123.322	13.347	1586.487	1204.106
124.337	13.339	1585.224	1202.981
125.352	13.380	1583.838	1202.125
126.366	13.359	1582.573	1200.903
127.381	13.419	1581.293	1200.264
128.395	13.361	1580.120	1198.849
129.410	13.331	1579.146	1197.785
130.424	13.484	1577.053	1197.194
131.439	13.318	1576.237	1195.269
132.454	13.432	1574.481	1194.657
133.468	13.495	1572.940	1193.833
134.483	13.524	1571.549	1192.883
135.497	13.532	1570.110	1191.745
136.512	13.555	1568.494	1190.576
137.527	13.460	1567.866	1189.315
138.541	13.444	1566.368	1187.958
139.556	13.440	1564.978	1186.769
140.570	13.474	1563.656	1185.903
141.585	13.499	1562.270	1184.930
142.600	13.655	1560.556	1184.640
143.614	13.582	1559.827	1183.459
144.629	13.631	1558.361	1182.587
145.643	13.686	1557.042	1181.877
146.658	13.723	1555.326	1180.733
147.673	13.655	1553.902	1179.064
148.687	13.682	1552.047	1177.744
149.702	13.748	1550.311	1176.794
150.716	13.604	1549.222	1174.838
151.731	13.646	1547.516	1173.742
152.746	13.587	1546.378	1172.355
153.760	13.518	1545.237	1170.900
154.775	13.563	1544.186	1170.313
155.789	13.705	1542.395	1169.860
156.804	13.757	1541.065	1169.113
157.819	13.683	1539.638	1167.406
158.833	13.755	1538.931	1167.269
159.848	13.739	1537.644	1166.083
160.862	13.777	1536.714	1165.535
161.877	13.854	1535.335	1164.930
162.892	13.815	1534.021	1163.558
163.906	13.766	1532.953	1162.301
164.921	13.640	1531.890	1160.507
165.935	13.637	1531.159	1159.829
166.950	13.797	1529.568	1159.643
167.964	13.694	1528.583	1158.074
168.979	13.806	1527.471	1157.910
169.994	13.785	1526.659	1157.045
171.008	13.746	1526.038	1156.202
172.023	13.810	1524.610	1155.465
173.037	13.862	1523.035	1154.527
174.052	13.772	1521.878	1152.923
175.067	13.886	1520.711	1152.728
176.081	13.894	1519.464	1151.735
177.096	13.839	1518.281	1150.353
178.110	13.857	1516.753	1149.225
179.125	13.824	1515.950	1148.280
180.140	13.798	1514.827	1147.151
181.154	13.874	1513.452	1146.532
182.169	13.904	1512.621	1146.006
183.183	13.874	1511.557	1144.892
184.198	14.010	1510.197	1144.698
185.213	13.921	1509.220	1143.246
186.227	14.018	1507.691	1142.653
187.242	14.046	1506.770	1142.050
188.256	14.023	1505.754	1141.018
189.271	14.005	1505.068	1140.271
190.286	14.098	1503.804	1139.851
191.300	14.107	1502.451	1138.789
192.315	13.960	1501.252	1136.775
193.329	13.971	1499.657	1135.540
194.344	13.927	1498.842	1134.521
195.359	13.940	1497.832	1133.746
196.373	13.911	1496.998	1132.819
197.388	14.075	1495.522	1132.718
198.402	14.186	1494.091	1132.287
199.417	14.166	1493.150	1131.339
200.432	14.205	1492.160	1130.751
201.446	14.215	1490.902	1129.765
202.461	14.263	1490.137	1129.414
203.475	14.321	1488.722	1128.633
204.490	14.358	1487.373	1127.762
205.504	14.251	1487.192	1126.799
206.519	14.249	1485.768	1125.612
207.534	14.329	1483.969	1124.688
208.548	14.244	1483.230	1123.455
209.563	14.270	1482.308	1122.831
210.577	14.273	1481.334	1122.015
211.592	14.297	1480.501	1121.447
212.607	14.276	1479.501	1120.449
213.621	14.362	1479.076	1120.606
214.636	14.372	1477.973	1119.739
215.650	14.442	1476.604	1119.068
216.665	14.471	1475.867	1118.606
217.680	14.414	1474.908	1117.400
218.694	14.383	1474.705	1116.941
219.709	14.478	1473.487	1116.556
220.723	14.568	1472.317	1116.173
221.738	14.509	1471.592	1115.126
222.753	14.432	1470.782	1113.904
223.767	14.479	1469.501	1113.146
224.782	14.514	1468.768	1112.725
225.796	14.482	1467.561	1111.501
226.811	14.597	1466.891	1111.661
227.826	14.653	1465.842	1111.143
228.840	14.623	1465.173	1110.333
229.855	14.566	1464.160	1109.089
230.869	14.570	1462.977	1108.120
231.884	14.555	1462.214	1107.344
232.899	14.545	1460.840	1106.139
233.913	14.642	1459.645	1105.782
234.928	14.501	1458.670	1104.009
235.942	14.533	1457.216	1103.027
236.957	14.492	1456.300	1101.965
237.972	14.563	1455.212	1101.509
238.986	14.580	1453.597	1100.303
240.001	14.559	1453.062	1099.661
241.015	14.631	1452.090	1099.306
242.030	14.531	1451.132	1097.826
243.045	14.690	1449.795	1097.762
244.059	14.680	1448.998	1096.997
245.074	14.706	1448.132	1096.412
246.088	14.778	1447.078	1095.987
247.103	14.776	1446.229	1095.234
248.117	14.755	1445.739	1094.630
249.132	14.841	1444.769	1094.362
250.147	14.815	1444.007	1093.516
251.161	14.958	1443.513	1093.983
252.176	14.959	1442.743	1093.307
253.190	14.986	1442.219	1092.991
254.205	15.029	1440.854	1092.144
255.220	15.074	1439.902	1091.616
256.234	15.088	1438.908	1090.858
257.249	15.152	1438.384	1090.783
258.263	15.070	1437.635	1089.583
259.278	15.125	1436.438	1088.933
260.293	15.037	1435.981	1087.923
261.307	15.212	1434.841	1088.099
262.322	15.170	1434.130	1087.188
263.336	15.221	1433.121	1086.661
264.351	15.295	1432.172	1086.325
265.366	15.213	1431.611	1085.270
266.380	15.330	1430.119	1084.804
267.395	15.292	1429.103	1083.688
268.409	15.310	1428.742	1083.434
269.424	15.247	1427.555	1082.035
270.439	15.215	1426.589	1080.998
271.453	15.356	1425.565	1081.033
272.468	15.324	1424.303	1079.778
273.482	15.375	1423.825	1079.645
274.497	15.317	1422.774	1078.380
275.512	15.311	1421.910	1077.591
276.526	15.371	1420.995	1077.191
277.541	15.371	1419.983	1076.324
278.555	15.333	1419.210	1075.400
279.570	15.355	1418.333	1074.784
280.585	15.379	1417.126	1073.925
281.599	15.508	1416.595	1074.256
282.614	15.439	1415.637	1072.994
283.628	15.410	1414.382	1071.760
284.643	15.400	1413.697	1071.080
285.657	15.464	1412.203	1070.262
286.672	15.432	1411.692	1069.581
287.687	15.472	1409.970	1068.434
288.701	15.509	1408.873	1067.741
289.716	15.556	1408.181	1067.424
290.730	15.523	1407.624	1066.694
291.745	15.526	1406.499	1065.770
292.760	15.557	1405.733	1065.289
293.774	15.642	1404.302	1064.649
294.789	15.539	1403.512	1063.306
295.803	15.712	1403.084	1063.981
296.818	15.648	1402.404	1062.966
297.833	15.642	1401.187	1061.912
298.847	15.608	1400.151	1060.819
299.862	15.638	1399.062	1060.089
300.876	15.728	1398.014	1059.769
301.891	15.636	1397.657	1058.821
302.906	15.738	1396.208	1058.274
303.920	15.760	1395.889	1058.078
304.935	15.767	1395.180	1057.492
305.949	15.724	1394.254	1056.428
306.964	15.897	1393.009	1056.477
307.979	15.812	1392.488	1055.453
308.993	15.880	1391.788	1055.251
310.008	15.937	1390.302	1054.389
311.022	15.850	1389.411	1053.081
312.037	16.006	1388.704	1053.424
313.052	15.896	1387.626	1051.829
314.066	15.955	1386.465	1051.225
315.081	15.891	1385.567	1050.046
316.095	15.829	1384.713	1048.922
317.110	15.856	1383.357	1047.972
318.125	15.964	1382.413	1047.831
319.139	15.950	1381.205	1046.736
320.154	15.914	1380.775	1046.097
321.168	15.910	1379.656	1045.133
322.183	15.899	1378.941	1044.429
323.197	16.007	1377.656	1044.031
324.212	15.989	1376.708	1043.111
325.227	15.962	1376.176	1042.449
326.241	16.040	1374.879	1041.858
327.256	15.952	1374.387	1040.846
328.270	16.021	1373.378	1040.417
329.285	16.082	1372.507	1040.039
330.300	16.112	1371.185	1039.129
331.314	15.915	1370.916	1037.620
332.329	16.021	1369.919	1037.427
333.343	15.964	1368.858	1036.185
334.358	16.078	1368.250	1036.333
335.373	16.102	1367.518	1035.833
336.387	16.045	1366.439	1034.575
337.402	16.136	1365.379	1034.241
338.416	16.229	1364.403	1033.978
339.431	16.199	1364.301	1033.624
340.446	16.319	1363.115	1033.369
341.460	16.327	1362.250	1032.671
342.475	16.344	1361.244	1031.921
343.489	16.390	1360.419	1031.485
344.504	16.432	1359.439	1030.909
345.519	16.381	1359.059	1030.216
346.533	16.501	1357.813	1029.913
347.548	16.486	1356.747	1028.918
348.562	16.537	1356.102	1028.652
349.577	16.489	1355.090	1027.500
350.592	16.506	1353.906	1026.617
351.606	16.435	1353.232	1025.580
352.621	16.467	1352.203	1024.902
353.635	16.427	1351.244	1023.848
354.650	16.448	1350.319	1023.180
355.665	16.474	1349.211	1022.409
356.679	16.521	1348.196	1021.830
357.694	16.464	1347.359	1020.765
358.708	16.557	1346.101	1020.279
359.723	16.522	1344.997	1019.143
360.738	16.458	1344.207	1018.072
361.752	16.561	1342.898	1017.605
362.767	16.574	1342.097	1016.987
363.781	16.530	1341.075	1015.862
364.796	16.596	1340.633	1015.831
365.810	16.596	1339.763	1015.081
366.825	16.647	1339.324	1014.964
367.840	16.663	1338.157	1014.086
368.854	16.749	1337.215	1013.799
369.869	16.727	1337.151	1013.530
370.883	16.714	1336.241	1012.672
371.898	16.748	1335.609	1012.303
372.913	16.755	1334.772	1011.622
373.927	16.785	1333.724	1010.919
374.942	16.814	1332.959	1010.423
375.956	16.809	1332.452	1009.920
376.971	16.894	1331.395	1009.537
377.986	16.841	1330.667	1008.579
379.000	16.850	1330.221	1008.204
380.015	16.889	1329.026	1007.441
381.029	16.954	1328.126	1007.057
382.044	17.033	1327.400	1006.885
383.059	16.978	1326.821	1006.030
384.073	16.956	1326.661	1005.693
385.088	16.934	1325.722	1004.761
386.102	16.994	1324.819	1004.343
387.117	17.094	1323.893	1004.140
388.132	17.034	1323.372	1003.305
389.146	16.978	1322.690	1002.363
390.161	17.112	1321.526	1002.187
391.175	17.053	1320.672	1001.100
392.190	17.038	1320.132	1000.518
393.205	17.104	1318.672	999.708
394.219	17.190	1318.139	999.723
395.234	17.138	1316.982	998.454
396.248	17.136	1315.412	997.161
397.263	17.197	1313.850	996.248
398.278	17.117	1312.870	994.945
399.292	17.198	1311.570	994.347
400.307	17.226	1310.356	993.502
401.321	17.118	1309.574	992.188
402.336	17.179	1308.722	991.814
403.350	17.228	1307.802	991.312
404.365	17.188	1306.940	990.339
405.380	17.048	1306.102	988.804
406.394	17.180	1304.916	988.586
407.409	17.193	1304.419	988.197
408.423	17.251	1303.669	987.877
409.438	17.346	1302.864	987.732
410.453	17.342	1302.169	987.097
411.467	17.376	1301.316	986.560
412.482	17.347	1300.908	985.994
413.496	17.506	1300.384	986.429
414.511	17.491	1299.471	985.563
415.526	17.462	1298.877	984.856
416.540	17.500	1297.987	984.313
417.555	17.508	1297.126	983.624
418.569	17.462	1296.600	982.867
419.584	17.605	1296.053	983.193
420.599	17.499	1295.813	982.314
421.613	93.800	1352.849	1462.492
422.628	92.195	1361.128	1462.594
