DTS Sentinel unit serial number:	SN413079Multiplexer serial number:	ORYXHardware model number:	OX4-SRSoftware version number:	ORYX F/W v4.00 Oryx Data Collector v3.7.2.0data status	okinstallation	princeton_trtdifferential loss correction	single-endedforward channel	channel 4reverse channel	N/Adate	2019/09/11time	18:15:11forward acquisition time	60.00reverse acquisition time	0.00gamma	496.2192k internal	0.2275k external	0.2275temperature offset calibration	1.0022default loss term (dB/km)	0.3790temperature slope calibration	1.0000multiplexer offset coefficient	1.0000multiplexer slope coefficient	1.0000fibre end	0.00T internal ref (°C)	44.00T ext. ref 1 (°C)	1.14T ext. ref 2 (°C)	39.03length (m)	temperature (°C)	Stokes	anti-Stokes-747.200	-169.601	-0.241	0.009
-746.185	-162.417	0.188	0.010
-745.171	512.898	0.027	-0.064
-744.156	-62.530	-0.401	0.172
-743.142	-125.872	0.207	0.032
-742.127	-133.866	-0.261	0.033
-741.112	-111.886	0.347	-0.072
-740.098	-76.149	-0.115	-0.042
-739.083	-163.154	0.197	0.010
-738.069	-86.155	0.088	0.028
-737.054	-200.000	-0.006	-0.059
-736.039	174.192	-0.242	-0.360
-735.025	-40.918	0.313	-0.167
-734.010	-5.538	0.241	0.170
-732.996	-123.274	-0.282	-0.046
-731.981	-30.658	0.086	-0.050
-730.966	-163.903	0.182	-0.009
-729.952	-7.785	-0.124	0.087
-728.937	-200.000	-0.007	-0.195
-727.923	-19.760	-0.100	-0.063
-726.908	111.684	-0.159	-0.198
-725.894	-200.000	0.014	-0.258
-724.879	400.103	0.121	-0.262
-723.864	277.520	-0.059	0.108
-722.850	208.544	0.097	-0.157
-721.835	-106.533	-0.169	-0.039
-720.821	35.372	-0.232	0.210
-719.806	436.269	-0.051	-0.114
-718.791	342.474	-0.089	0.180
-717.777	800.000	0.095	-0.420
-716.762	39.725	-0.158	0.146
-715.748	598.799	0.108	-0.276
-714.733	-16.327	-0.064	0.042
-713.718	645.438	-0.055	0.145
-712.704	132.875	0.206	-0.274
-711.689	3.680	-0.309	0.232
-710.675	-71.544	-0.125	-0.048
-709.660	-200.000	-0.009	-0.125
-708.645	-200.000	0.016	-0.312
-707.631	-88.869	0.315	-0.096
-706.616	-167.121	0.325	0.014
-705.602	-200.000	0.036	0.243
-704.587	428.639	0.106	-0.236
-703.572	-24.780	-0.170	0.104
-702.558	-200.000	0.047	-0.450
-701.543	-44.067	-0.343	0.177
-700.529	-42.325	0.207	0.109
-699.514	23.055	-0.295	0.249
-698.499	-152.825	-0.417	-0.030
-697.485	-200.000	0.003	0.047
-696.470	-200.000	0.005	0.090
-695.456	-158.238	0.328	0.020
-694.441	-65.111	0.270	0.112
-693.426	-113.155	0.224	0.045
-692.412	-152.965	-0.421	-0.031
-691.397	-67.545	-0.204	-0.082
-690.383	31.982	0.083	0.074
-689.368	42.467	0.053	-0.050
-688.354	31.497	-0.111	0.098
-687.339	-126.741	0.228	0.035
-686.324	23.275	-0.164	0.138
-685.310	338.962	0.063	0.126
-684.295	-200.000	0.007	0.042
-683.281	-60.913	0.027	0.012
-682.266	-8.879	0.097	0.067
-681.251	-89.883	-0.317	-0.095
-680.237	-17.616	-0.185	-0.120
-679.222	15.815	-0.105	-0.085
-678.208	49.903	-0.111	-0.108
-677.193	136.396	0.068	0.091
-676.178	-200.000	-0.030	0.343
-675.164	800.000	-0.064	-0.190
-674.149	160.470	-0.139	-0.200
-673.135	56.621	-0.233	0.233
-672.120	60.175	0.083	0.085
-671.105	-109.583	0.118	-0.026
-670.091	52.808	-0.138	0.136
-669.076	223.833	-0.068	-0.113
-668.062	-161.140	0.302	-0.016
-667.047	-200.000	-0.003	0.077
-666.032	773.494	0.079	-0.223
-665.018	-26.734	0.099	0.060
-664.003	-139.100	0.293	0.033
-662.989	-167.596	0.116	-0.005
-661.974	200.395	0.110	0.173
-660.959	800.000	-0.074	0.323
-659.945	800.000	0.036	-0.163
-658.930	-109.139	-0.174	0.038
-657.916	1.279	-0.171	-0.126
-656.901	-200.000	-0.318	-0.001
-655.886	248.961	-0.082	-0.142
-654.872	106.228	-0.106	-0.129
-653.857	221.763	-0.136	-0.225
-652.843	-200.000	-0.028	0.247
-651.828	758.699	-0.022	0.061
-650.814	-181.344	-0.352	-0.007
-649.799	561.417	-0.034	0.085
-648.784	-200.000	0.011	-0.100
-647.770	-101.237	-0.074	-0.019
-646.755	68.194	0.157	-0.165
-645.741	252.557	-0.192	0.336
-644.726	-68.131	-0.222	-0.089
-643.711	-94.245	0.141	-0.040
-642.697	-33.040	-0.105	-0.060
-641.682	26.276	-0.166	0.142
-640.668	800.000	-0.060	-0.208
-639.653	-200.000	-0.018	-0.288
-638.638	800.000	-0.057	-0.216
-637.624	-200.000	-0.006	-0.324
-636.609	-83.406	-0.285	0.094
-635.595	-103.120	-0.117	-0.028
-634.580	129.876	-0.073	-0.096
-633.565	80.454	-0.262	-0.289
-632.551	-104.906	-0.111	0.026
-631.536	-200.000	-0.049	0.309
-630.522	800.000	0.066	0.225
-629.507	-59.651	0.097	-0.043
-628.492	-168.680	-0.576	-0.022
-627.478	-200.000	0.018	-0.305
-626.463	-200.000	0.022	-0.224
-625.449	-200.000	-0.034	0.189
-624.434	-89.950	-0.162	-0.049
-623.419	-99.012	-0.087	-0.023
-622.405	-2.634	-0.106	0.076
-621.390	-200.000	0.078	-0.424
-620.376	-200.000	-0.020	0.132
-619.361	61.053	-0.163	-0.167
-618.346	56.254	0.233	-0.233
-617.332	509.922	0.070	-0.168
-616.317	-100.879	0.168	-0.042
-615.303	800.000	0.078	0.281
-614.288	153.708	-0.098	-0.138
-613.273	-200.000	0.019	-0.224
-612.259	671.020	0.085	-0.225
-611.244	-200.000	0.003	-0.057
-610.230	294.851	0.101	0.189
-609.215	-200.000	-0.026	-0.291
-608.201	-132.166	0.209	0.028
-607.186	-114.061	0.270	-0.054
-606.171	-93.966	-0.170	0.048
-605.157	-112.153	0.299	-0.062
-604.142	137.199	-0.114	-0.152
-603.128	-200.000	0.046	-0.292
-602.113	-200.000	0.010	0.148
-601.098	-71.642	-0.144	-0.055
-600.084	-43.445	0.118	0.061
-599.069	-88.285	-0.169	-0.052
-598.055	48.755	-0.057	-0.055
-597.040	30.602	-0.306	-0.268
-596.025	-93.050	0.342	-0.098
-595.011	-83.679	0.190	0.062
-593.996	800.000	-0.061	0.180
-592.982	-39.293	0.085	-0.046
-591.967	187.108	0.097	-0.148
-590.952	45.073	0.185	-0.174
-589.938	-200.000	-0.088	0.488
-588.923	-200.000	0.008	0.171
-587.909	-200.000	-0.023	0.188
-586.894	88.654	-0.074	0.084
-585.879	-146.730	0.256	-0.023
-584.865	-116.998	-0.103	-0.019
-583.850	800.000	0.042	-0.125
-582.836	27.857	-0.215	0.186
-581.821	800.000	-0.118	0.382
-580.806	317.722	0.118	0.229
-579.792	20.556	-0.261	-0.217
-578.777	-26.446	0.306	0.184
-577.763	-187.254	-0.139	-0.002
-576.748	-125.689	-0.368	0.057
-575.733	201.268	-0.076	-0.120
-574.719	114.336	-0.270	-0.337
-573.704	-200.000	-0.013	0.508
-572.690	-200.000	-0.024	-0.159
-571.675	-52.341	0.399	0.189
-570.661	-5.625	0.129	0.090
-569.646	-95.090	0.404	-0.112
-568.631	-95.456	-0.480	0.132
-567.617	-200.000	0.033	-0.623
-566.602	-154.916	0.142	0.010
-565.588	800.000	0.056	-0.240
-564.573	204.763	-0.049	-0.078
-563.558	350.514	0.011	-0.023
-562.544	233.496	-0.089	0.149
-561.529	107.840	0.027	-0.033
-560.515	800.000	0.097	0.326
-559.500	-61.490	-0.151	0.065
-558.485	85.671	0.332	-0.374
-557.471	-117.648	0.475	-0.088
-556.456	800.000	-0.071	-0.223
-555.442	-129.494	0.171	0.024
-554.427	288.336	-0.014	-0.026
-553.412	-200.000	-0.018	-0.347
-552.398	617.976	0.049	-0.127
-551.383	-200.000	-0.037	0.256
-550.369	800.000	0.060	0.221
-549.354	-61.653	0.103	-0.044
-548.339	-192.652	-0.223	-0.002
-547.325	187.755	-0.115	0.176
-546.310	88.381	-0.190	0.216
-545.296	1.287	0.199	-0.146
-544.281	225.969	0.080	0.132
-543.266	-180.014	0.142	0.003
-542.252	-106.416	0.242	0.055
-541.237	-200.000	0.042	0.283
-540.223	-80.972	0.115	0.039
-539.208	83.674	-0.410	0.458
-538.193	57.731	0.154	0.154
-537.179	-200.000	-0.017	-0.384
-536.164	292.308	-0.033	0.062
-535.150	-129.082	-0.143	0.020
-534.135	35.377	-0.193	-0.173
-533.121	370.081	-0.019	-0.040
-532.106	-107.176	-0.338	0.076
-531.091	156.841	-0.224	0.317
-530.077	398.521	-0.020	0.042
-529.062	5.493	-0.097	0.073
-528.048	-71.814	-0.366	-0.139
-527.033	182.139	0.091	-0.137
-526.018	-121.433	-0.230	-0.039
-525.004	-161.262	-0.089	0.005
-523.989	6.107	0.220	0.167
-522.975	2.042	-0.153	0.113
-521.960	152.752	0.109	-0.153
-520.945	61.380	0.155	-0.158
-519.931	-9.485	0.111	0.076
-518.916	-200.000	-0.026	0.181
-517.902	-127.096	-0.102	-0.015
-516.887	-127.372	0.174	-0.026
-515.872	-7.176	0.143	0.099
-514.858	-106.769	-0.067	-0.015
-513.843	-200.000	-0.047	-0.211
-512.829	370.717	0.063	0.131
-511.814	112.963	-0.099	0.123
-510.799	176.814	-0.118	0.175
-509.785	354.239	0.148	0.301
-508.770	-27.012	0.070	-0.042
-507.756	90.961	0.117	-0.134
-506.741	-200.000	-0.019	0.294
-505.726	166.920	-0.106	-0.154
-504.712	-79.712	0.214	-0.074
-503.697	426.742	0.039	0.085
-502.683	17.862	0.317	-0.258
-501.668	15.649	0.137	-0.110
-500.653	-129.503	-0.366	-0.052
-499.639	800.000	0.061	0.250
-498.624	617.388	-0.024	0.061
-497.610	-200.000	-0.068	0.515
-496.595	136.865	0.164	0.219
-495.581	254.551	0.112	-0.195
-494.566	-200.000	0.009	0.280
-493.551	-110.710	-0.048	0.010
-492.537	-3.971	0.045	0.032
-491.522	683.879	0.083	0.220
-490.508	-47.382	0.211	0.105
-489.493	-191.298	-0.239	0.002
-488.478	800.000	-0.086	0.320
-487.464	-57.157	0.108	-0.048
-486.449	130.515	-0.211	-0.276
-485.435	-88.078	-0.055	0.017
-484.420	35.821	-0.276	0.248
-483.405	-133.607	0.083	-0.011
-482.391	-200.000	-0.038	0.213
-481.376	0.864	0.140	0.102
-480.362	340.338	-0.123	0.245
-479.347	-200.000	-0.062	0.286
-478.332	-200.000	0.000	0.028
-477.318	489.886	-0.058	0.134
-476.303	800.000	0.022	-0.073
-475.289	173.092	-0.238	-0.350
-474.274	61.029	-0.081	0.082
-473.259	-48.802	-0.149	0.073
-472.245	-67.082	0.144	-0.058
-471.230	-37.864	-0.310	0.168
-470.216	-144.145	0.213	-0.020
-469.201	800.000	-0.087	0.281
-468.186	800.000	-0.031	-0.115
-467.172	106.150	0.054	0.065
-466.157	-200.000	-0.010	0.074
-465.143	-87.606	-0.173	-0.053
-464.128	244.470	-0.090	-0.155
-463.113	119.292	0.070	-0.088
-462.099	-14.907	0.168	0.110
-461.084	340.676	0.083	0.165
-460.070	-0.416	0.249	-0.180
-459.055	-136.762	0.294	0.035
-458.040	-2.839	0.088	-0.063
-457.026	68.057	0.176	-0.184
-456.011	93.241	-0.062	-0.072
-454.997	-52.889	0.256	-0.120
-453.982	800.000	-0.045	-0.183
-452.968	-78.452	0.053	-0.019
-451.953	-41.783	0.148	-0.077
-450.938	28.246	-0.081	-0.070
-449.924	51.618	-0.158	-0.153
-448.909	-200.000	0.035	0.303
-447.895	16.465	0.152	-0.122
-446.880	-200.000	-0.010	-0.119
-445.865	217.457	-0.028	-0.046
-444.851	3.826	0.310	-0.231
-443.836	120.719	0.231	-0.292
-442.822	214.238	0.037	-0.060
-441.807	-20.386	0.284	-0.178
-440.792	263.496	-0.119	0.212
-439.778	-124.239	0.193	-0.031
-438.763	611.862	0.109	0.279
-437.749	800.000	-0.068	-0.226
-436.734	-70.708	-0.297	0.114
-435.719	90.227	0.019	-0.022
-434.705	48.980	0.349	-0.334
-433.690	-44.441	-0.318	-0.162
-432.676	-50.892	0.267	0.128
-431.661	17.446	0.286	-0.231
-430.646	-36.752	0.131	-0.071
-429.632	-0.258	-0.243	0.176
-428.617	630.135	-0.111	0.286
-427.603	44.174	-0.133	-0.124
-426.588	265.560	-0.076	0.135
-425.573	-200.000	0.027	-0.170
-424.559	581.997	-0.086	-0.214
-423.544	642.250	0.056	-0.145
-422.530	800.000	-0.083	-0.247
-421.515	730.833	0.122	-0.331
-420.500	-70.296	-0.500	-0.193
-419.486	-114.655	0.362	0.071
-418.471	-200.000	0.015	-0.091
-417.457	-200.000	-0.070	-0.333
-416.442	-200.000	-0.004	0.212
-415.428	23.673	-0.126	-0.106
-414.413	-200.000	-0.029	-0.207
-413.398	800.000	0.022	-0.063
-412.384	156.573	0.157	0.220
-411.369	-200.000	0.013	-0.138
-410.355	-186.809	-0.127	-0.002
-409.340	-75.655	-0.187	-0.067
-408.325	-21.398	0.214	0.133
-407.311	-57.489	0.062	-0.028
-406.296	307.297	-0.076	-0.144
-405.282	800.000	-0.033	-0.102
-404.267	69.870	-0.128	-0.134
-403.252	-53.441	0.133	0.062
-402.238	-88.743	-0.284	0.086
-401.223	-82.015	0.149	-0.050
-400.209	-165.657	-0.279	0.012
-399.194	110.057	-0.099	0.120
-398.179	800.000	-0.060	-0.206
-397.165	800.000	-0.081	-0.304
-396.150	-102.088	0.327	-0.080
-395.136	-200.000	-0.048	0.374
-394.121	-14.824	0.219	-0.143
-393.106	-91.721	-0.089	0.026
-392.092	62.163	-0.063	0.064
-391.077	-200.000	0.018	0.172
-390.063	-200.000	-0.017	0.262
-389.048	-80.263	-0.126	-0.043
-388.033	-76.170	-0.167	-0.060
-387.019	198.754	-0.104	-0.161
-386.004	-82.019	0.165	-0.055
-384.990	800.000	0.091	-0.275
-383.975	800.000	0.038	-0.166
-382.960	18.779	0.136	-0.110
-381.946	-5.543	-0.193	0.135
-380.931	633.116	0.025	0.063
-379.917	726.693	-0.023	0.061
-378.902	-200.000	-0.039	0.246
-377.888	800.000	0.051	-0.206
-376.873	176.439	-0.196	-0.289
-375.858	-200.000	0.024	0.186
-374.844	-200.000	0.058	0.305
-373.829	266.062	-0.241	0.428
-372.815	333.586	-0.099	0.194
-371.800	-83.937	-0.204	-0.066
-370.785	-87.925	0.330	0.101
-369.771	-64.900	0.325	-0.134
-368.756	-131.901	-0.403	-0.054
-367.742	-49.157	-0.172	0.084
-366.727	36.593	-0.237	-0.213
-365.712	239.887	-0.095	0.161
-364.698	8.081	-0.192	-0.146
-363.683	-188.557	0.115	0.001
-362.669	-52.842	0.111	-0.052
-361.654	15.411	-0.262	0.209
-360.639	190.335	0.120	-0.184
-359.625	-200.000	0.013	0.075
-358.610	14.505	0.054	0.043
-357.596	100.180	-0.271	0.319
-356.581	-18.957	-0.218	-0.138
-355.566	660.078	0.145	-0.379
-354.552	-51.389	0.228	0.108
-353.537	-200.000	-0.025	0.434
-352.523	800.000	0.044	0.151
-351.508	32.083	0.027	0.024
-350.493	580.265	0.079	-0.197
-349.479	-200.000	-0.011	0.163
-348.464	-200.000	-0.018	0.229
-347.450	243.066	0.107	-0.181
-346.435	360.823	-0.084	0.171
-345.420	388.931	-0.085	0.178
-344.406	-200.000	0.000	-0.131
-343.391	-200.000	-0.049	-0.412
-342.377	-200.000	0.007	0.213
-341.362	479.519	0.065	0.150
-340.348	-15.402	0.030	-0.019
-339.333	51.453	-0.089	-0.086
-338.318	-126.537	-0.101	-0.015
-337.304	-140.520	-0.354	-0.037
-336.289	133.241	0.195	-0.255
-335.275	-200.000	-0.017	-0.105
-334.260	-200.000	-0.021	0.119
-333.245	59.538	0.218	-0.219
-332.231	140.447	-0.037	-0.050
-331.216	-113.170	0.133	0.027
-330.202	-200.000	-0.003	-0.017
-329.187	-102.675	0.267	-0.065
-328.172	-200.000	0.052	0.584
-327.158	-161.355	-0.201	-0.011
-326.143	-200.000	0.039	0.184
-325.129	759.429	0.069	0.190
-324.114	-200.000	0.003	0.167
-323.099	-200.000	0.079	0.539
-322.085	800.000	-0.086	0.352
-321.070	-177.624	0.143	0.004
-320.056	129.515	0.041	-0.053
-319.041	-0.997	0.172	-0.124
-318.026	-27.815	-0.192	-0.113
-317.012	38.902	0.350	-0.317
-315.997	12.917	0.175	-0.137
-314.983	93.481	-0.188	-0.216
-313.968	161.628	0.177	0.251
-312.953	-165.967	-0.233	-0.010
-311.939	-104.273	-0.395	0.093
-310.924	-134.686	-0.207	-0.026
-309.910	800.000	-0.045	-0.179
-308.895	-80.571	-0.213	0.072
-307.880	-200.000	-0.081	0.425
-306.866	155.196	-0.110	0.153
-305.851	-200.000	-0.019	0.228
-304.837	43.009	0.389	-0.360
-303.822	59.344	-0.181	-0.181
-302.807	166.320	0.158	-0.227
-301.793	-200.000	-0.070	-0.330
-300.778	800.000	0.027	-0.109
-299.764	800.000	-0.025	0.106
-298.749	19.702	-0.143	0.117
-297.735	129.154	-0.109	0.141
-296.720	-200.000	-0.002	-0.137
-295.705	-17.744	0.131	-0.083
-294.691	107.649	0.310	0.374
-293.676	-131.420	-0.224	0.030
-292.662	80.763	0.065	0.071
-291.647	290.756	-0.160	-0.294
-290.632	364.126	0.084	-0.172
-289.618	-86.390	-0.283	-0.088
-288.603	55.951	0.105	-0.103
-287.589	-90.212	0.115	0.034
-286.574	-200.000	0.010	-0.286
-285.559	-200.000	0.017	-0.112
-284.545	647.923	-0.087	-0.224
-283.530	42.362	-0.125	0.115
-282.516	69.051	-0.136	-0.142
-281.501	-200.000	-0.056	0.334
-280.486	226.208	0.075	0.123
-279.472	-200.000	0.003	-0.341
-278.457	186.343	0.187	-0.281
-277.443	-200.000	-0.048	-0.316
-276.428	-200.000	-0.044	-0.302
-275.413	186.489	0.172	0.259
-274.399	616.130	0.075	0.191
-273.384	-200.000	-0.020	0.340
-272.370	184.933	0.175	0.263
-271.355	-200.000	0.000	-0.182
-270.340	311.765	-0.106	0.201
-269.326	-200.000	-0.003	-0.177
-268.311	243.668	-0.123	-0.208
-267.297	-3.275	0.267	0.188
-266.282	-126.439	0.278	0.042
-265.267	800.000	-0.066	0.235
-264.253	-44.517	0.169	-0.086
-263.238	-134.646	-0.238	-0.029
-262.224	140.485	-0.247	0.330
-261.209	-97.798	0.223	-0.058
-260.195	661.416	0.058	0.151
-259.180	398.274	0.015	0.031
-258.165	800.000	-0.019	0.058
-257.151	-67.311	0.164	-0.065
-256.136	-147.246	0.217	-0.019
-255.122	370.797	-0.191	0.393
-254.107	-77.571	0.178	0.062
-253.092	-5.507	-0.142	0.099
-252.078	44.536	0.171	-0.159
-251.063	-29.474	-0.063	0.037
-250.049	-189.019	-0.071	0.001
-249.034	-200.000	0.008	-0.081
-248.019	142.255	0.096	-0.129
-247.005	598.002	0.082	-0.205
-245.990	310.244	0.132	-0.250
-244.976	800.000	-0.075	-0.238
-243.961	39.851	-0.081	-0.074
-242.946	800.000	-0.074	-0.281
-241.932	51.339	-0.222	0.213
-240.917	-200.000	-0.014	-0.255
-239.903	-200.000	-0.016	-0.164
-238.888	205.550	0.226	-0.355
-237.873	54.809	0.046	0.045
-236.859	18.680	-0.130	0.105
-235.844	170.779	0.089	-0.129
-234.830	134.169	-0.193	-0.253
-233.815	-95.789	-0.100	0.027
-232.800	-200.000	0.003	0.158
-231.786	266.647	0.058	0.103
-230.771	138.297	0.136	0.180
-229.757	800.000	-0.048	-0.139
-228.742	125.403	-0.146	0.186
-227.727	-107.615	-0.245	-0.054
-226.713	130.168	-0.267	-0.345
-225.698	19.665	0.410	-0.333
-224.684	639.953	-0.101	0.260
-223.669	56.784	0.039	-0.038
-222.655	163.161	-0.018	0.026
-221.640	-200.000	-0.036	0.191
-220.625	623.164	-0.207	0.528
-219.611	-110.872	-0.191	0.040
-218.596	-132.846	0.329	0.042
-217.582	800.000	-0.033	0.095
-216.567	-56.793	-0.129	-0.058
-215.552	-200.000	0.001	-0.050
-214.538	-200.000	0.005	-0.231
-213.523	21.492	-0.116	-0.095
-212.509	139.059	-0.053	0.070
-211.494	784.210	-0.076	-0.210
-210.479	-112.184	-0.113	0.023
-209.465	61.099	0.247	0.248
-208.450	142.889	0.106	0.142
-207.436	-55.261	-0.149	0.068
-206.421	21.798	0.232	-0.191
-205.406	-0.592	-0.229	0.164
-204.392	-166.214	0.177	-0.008
-203.377	11.700	-0.118	0.092
-202.363	800.000	0.101	0.306
-201.348	17.511	-0.139	0.112
-200.333	-81.582	0.103	0.034
-199.319	-7.853	-0.309	0.211
-198.304	161.370	-0.185	0.262
-197.290	-29.109	-0.062	-0.036
-196.275	-23.280	0.246	0.150
-195.260	186.927	-0.090	0.135
-194.246	-134.032	-0.042	-0.005
-193.231	-200.000	0.035	0.168
-192.217	143.286	0.091	-0.122
-191.202	-52.826	0.080	0.037
-190.187	83.837	0.281	-0.310
-189.173	-81.412	0.294	-0.098
-188.158	68.790	0.227	0.235
-187.144	-150.748	0.168	-0.013
-186.129	-200.000	0.005	-0.107
-185.114	-147.007	0.442	-0.038
-184.100	-168.039	0.520	-0.020
-183.085	73.610	0.229	-0.242
-182.071	-108.444	0.186	0.040
-181.056	-91.064	-0.092	-0.027
-180.042	80.919	-0.312	0.340
-179.027	-80.559	0.183	0.062
-178.012	-200.000	-0.028	0.338
-176.998	-10.668	0.133	0.088
-175.983	-200.000	-0.019	-0.199
-174.969	-129.276	-0.260	0.036
-173.954	-200.000	0.030	0.482
-172.939	800.000	0.130	0.363
-171.925	158.513	-0.156	-0.218
-170.910	-8.258	0.257	0.175
-169.896	-200.000	-0.011	-0.102
-168.881	-129.976	-0.065	0.009
-167.866	165.954	-0.255	0.363
-166.852	536.500	0.062	-0.147
-165.837	-38.921	0.416	-0.221
-164.823	-25.009	0.120	-0.071
-163.808	-101.046	0.230	-0.057
-162.793	800.000	0.019	-0.071
-161.779	800.000	-0.044	-0.151
-160.764	-1.614	-0.275	0.195
-159.750	-24.502	-0.192	-0.115
-158.735	800.000	-0.072	-0.243
-157.720	-22.151	-0.164	-0.100
-156.706	-83.067	0.089	0.029
-155.691	-140.701	-0.099	0.010
-154.677	-200.000	0.027	0.264
-153.662	-12.895	0.157	-0.103
-152.647	800.000	0.072	-0.272
-151.633	800.000	-0.102	0.362
-150.618	287.053	-0.125	0.228
-149.604	118.762	0.109	-0.135
-148.589	139.509	-0.062	0.083
-147.574	125.119	0.038	0.048
-146.560	-77.582	0.265	-0.092
-145.545	-18.546	0.159	0.100
-144.531	-200.000	-0.029	-0.136
-143.516	-104.354	0.095	0.022
-142.502	342.534	-0.098	-0.193
-141.487	-200.000	-0.044	0.217
-140.472	-200.000	0.051	0.274
-139.458	-80.291	0.250	-0.084
-138.443	130.955	-0.123	-0.159
-137.429	-169.577	-0.271	-0.010
-136.414	291.774	-0.049	-0.090
-135.399	800.000	-0.079	0.323
-134.385	38.184	0.167	0.149
-133.370	-99.655	0.273	-0.069
-132.356	51.982	-0.068	0.065
-131.341	-108.403	-0.258	0.056
-130.326	105.423	0.209	0.248
-129.312	231.324	0.261	0.430
-128.297	-151.810	-0.091	-0.007
-127.283	-98.753	-0.073	-0.019
-126.268	-200.000	-0.043	-0.293
-125.253	798.883	0.064	-0.179
-124.239	-200.000	0.009	0.089
-123.224	137.460	-0.139	0.183
-122.210	-24.702	0.081	-0.048
-121.195	23.325	-0.261	0.216
-120.180	239.314	-0.125	0.209
-119.166	-10.917	-0.085	-0.056
-118.151	-145.080	-0.264	0.024
-117.137	800.000	-0.029	0.084
-116.122	-200.000	0.008	0.143
-115.107	-79.121	-0.189	0.064
-114.093	12.691	-0.315	-0.244
-113.078	121.779	-0.078	0.098
-112.064	-200.000	-0.026	0.143
-111.049	125.820	0.071	-0.090
-110.034	-71.187	0.255	-0.096
-109.020	800.000	0.058	0.170
-108.005	236.770	-0.147	-0.245
-106.991	-112.330	0.260	0.052
-105.976	52.867	0.061	0.058
-104.962	-62.094	0.038	-0.016
-103.947	15.818	0.107	0.085
-102.932	-107.823	-0.321	0.070
-101.918	-200.000	0.041	0.236
-100.903	800.000	0.056	0.200
-99.889	-168.587	0.162	0.006
-98.874	-51.054	0.129	0.061
-97.859	166.762	-0.092	0.132
-96.845	-144.647	-0.139	0.013
-95.830	620.605	-0.082	-0.207
-94.816	355.543	-0.064	-0.128
-93.801	-177.513	0.152	-0.004
-92.786	67.888	0.063	-0.065
-91.772	315.202	0.153	-0.291
-90.757	-200.000	-0.020	0.165
-89.743	-200.000	0.144	-0.001
-88.728	445.020	-0.054	-0.119
-87.713	-88.530	0.343	-0.103
-86.699	-57.137	0.274	0.121
-85.684	-200.000	0.009	0.236
-84.670	-200.000	0.069	-0.471
-83.655	-148.080	0.121	-0.010
-82.640	134.657	-0.070	-0.091
-81.626	-72.036	0.284	0.106
-80.611	-122.786	0.153	-0.025
-79.597	-103.834	0.148	0.035
-78.582	56.808	0.414	0.405
-77.567	-200.000	-0.012	-0.136
-76.553	4.222	0.291	0.214
-75.538	-87.252	0.038	0.012
-74.524	126.797	-0.175	-0.223
-73.509	31.140	-0.288	0.248
-72.494	-84.523	-0.019	0.006
-71.480	-200.000	-0.014	-0.252
-70.465	-200.000	-0.014	0.067
-69.451	-75.088	-0.175	-0.063
-68.436	48.976	-0.137	-0.129
-67.422	-71.739	0.433	0.162
-66.407	-35.442	-0.159	0.087
-65.392	331.839	0.106	-0.205
-64.378	57.846	-0.212	0.208
-63.363	800.000	-0.096	0.316
-62.349	320.188	0.152	0.290
-61.334	654.944	-0.398	-1.026
-60.319	-92.091	-0.152	-0.043
-59.305	-200.000	0.125	-0.726
-58.290	200.007	0.303	0.467
-57.276	800.000	0.387	1.616
-56.261	-200.000	71.472	531.364
-55.246	597.176	1270.898	3160.600
-54.232	144.457	2496.727	3346.407
-53.217	112.349	2366.442	2872.801
-52.203	51.516	2104.786	2007.494
-51.188	46.196	2010.717	1869.486
-50.173	44.283	1991.269	1834.072
-49.159	55.838	2026.011	1971.319
-48.144	61.798	2046.696	2045.534
-47.130	46.930	2012.044	1877.098
-46.115	44.089	2001.016	1840.996
-45.100	43.971	1998.287	1837.344
-44.086	43.891	1996.461	1834.870
-43.071	43.873	1993.977	1832.351
-42.057	43.871	1991.988	1830.427
-41.042	43.869	1990.026	1828.535
-40.027	43.956	1988.014	1827.401
-39.013	43.938	1986.327	1825.615
-37.998	44.047	1984.126	1824.501
-36.984	43.886	1982.600	1821.580
-35.969	43.957	1980.870	1820.553
-34.954	44.005	1979.048	1819.237
-33.940	44.024	1977.287	1817.714
-32.925	43.972	1976.274	1816.247
-31.911	44.055	1974.177	1814.989
-30.896	43.979	1972.648	1812.834
-29.881	44.054	1970.647	1811.591
-28.867	44.079	1969.056	1810.284
-27.852	44.070	1967.542	1808.737
-26.838	44.047	1965.762	1806.827
-25.823	44.111	1963.471	1805.220
-24.809	44.061	1961.922	1803.275
-23.794	44.085	1960.195	1801.828
-22.779	43.948	1958.961	1799.411
-21.765	44.001	1956.784	1797.811
-20.750	44.007	1955.128	1796.268
-19.736	43.958	1954.172	1794.882
-18.721	44.075	1952.122	1793.969
-17.706	44.045	1950.457	1792.095
-16.692	43.997	1948.552	1789.858
-15.677	43.966	1947.544	1788.580
-14.663	44.021	1945.452	1787.074
-13.648	44.002	1944.333	1785.808
-12.633	43.926	1943.497	1784.304
-11.619	44.002	1941.769	1783.311
-10.604	43.873	1940.715	1781.140
-9.590	43.992	1938.903	1780.450
-8.575	43.970	1937.508	1778.904
-7.560	44.027	1936.145	1778.089
-6.546	44.041	1934.530	1776.652
-5.531	44.046	1933.497	1775.679
-4.517	43.972	1932.645	1774.175
-3.502	43.869	1931.900	1772.523
-2.487	43.990	1929.991	1771.760
-1.473	44.013	1928.930	1770.911
-0.458	44.139	1924.920	1768.259
0.556	43.315	1905.720	1742.272
1.571	38.932	1884.485	1685.185
2.586	33.893	1903.603	1658.288
3.600	32.088	1939.373	1673.234
4.615	31.033	1936.934	1661.590
5.629	23.247	1831.311	1504.942
6.644	9.304	1698.737	1285.151
7.659	1.818	1652.308	1191.546
8.673	1.245	1648.208	1184.010
9.688	1.226	1646.053	1182.209
10.702	1.125	1644.808	1180.424
11.717	0.964	1641.832	1176.934
12.731	1.365	1641.367	1179.609
13.746	8.919	1660.731	1252.617
14.761	20.056	1684.990	1358.618
15.775	24.544	1692.326	1399.668
16.790	25.048	1692.018	1403.243
17.804	25.118	1691.756	1403.445
18.819	25.061	1691.330	1402.526
19.834	25.151	1690.393	1402.329
20.848	25.387	1689.774	1403.536
21.863	25.364	1689.190	1402.746
22.877	25.395	1687.698	1401.626
23.892	25.358	1687.139	1400.749
24.907	25.435	1685.684	1400.015
25.921	25.399	1685.424	1399.395
26.936	25.366	1684.170	1397.972
27.950	25.464	1682.861	1397.522
28.965	25.361	1682.747	1396.503
29.980	25.357	1681.900	1395.647
30.994	25.389	1680.325	1394.465
32.009	25.359	1679.260	1393.226
33.023	25.384	1678.135	1392.364
34.038	25.309	1677.566	1391.186
35.053	25.328	1676.621	1390.427
36.067	25.476	1675.176	1390.252
37.082	25.380	1674.266	1388.633
38.096	25.370	1673.606	1387.880
39.111	25.422	1672.439	1387.196
40.126	25.321	1671.984	1385.912
41.140	25.340	1671.287	1385.359
42.155	25.428	1669.685	1384.588
43.169	25.406	1668.900	1383.644
44.184	25.389	1667.844	1382.515
45.199	25.366	1666.823	1381.370
46.213	25.385	1665.767	1380.515
47.228	25.413	1664.156	1379.279
48.242	25.313	1663.256	1377.643
49.257	25.367	1661.765	1376.695
50.271	25.342	1661.189	1375.906
51.286	25.382	1659.867	1374.999
52.301	25.418	1658.475	1373.998
53.315	25.343	1657.235	1372.273
54.330	25.418	1655.252	1371.084
55.344	25.395	1654.231	1369.943
56.359	25.420	1652.890	1368.898
57.374	25.363	1652.078	1367.671
58.388	25.382	1651.134	1366.912
59.403	25.455	1649.935	1366.360
60.417	25.448	1648.624	1365.094
61.432	25.398	1647.937	1364.024
62.447	25.427	1646.454	1362.901
63.461	25.350	1646.050	1361.859
64.476	25.368	1644.896	1360.922
65.490	25.456	1644.103	1360.809
66.505	25.464	1642.666	1359.559
67.520	25.458	1641.430	1358.373
68.534	25.453	1640.651	1357.573
69.549	25.397	1640.322	1356.756
70.563	25.413	1639.095	1355.744
71.578	25.460	1637.388	1354.564
72.593	25.397	1636.963	1353.615
73.607	25.417	1636.144	1352.969
74.622	25.463	1634.832	1352.113
75.636	25.454	1633.672	1350.962
76.651	25.531	1633.345	1351.156
77.666	25.391	1632.764	1349.503
78.680	25.545	1630.993	1349.077
79.695	25.497	1630.550	1348.226
80.709	25.551	1629.631	1347.757
81.724	25.434	1628.925	1346.173
82.739	25.493	1627.968	1345.705
83.753	25.447	1627.366	1344.744
84.768	25.435	1626.221	1343.590
85.782	25.398	1625.722	1342.784
86.797	25.391	1624.384	1341.509
87.812	25.364	1624.154	1340.995
88.826	25.509	1622.466	1340.566
89.841	25.473	1621.244	1339.172
90.855	25.420	1620.226	1337.813
91.870	25.496	1619.639	1337.777
92.884	25.452	1618.554	1336.439
93.899	25.513	1617.400	1335.816
94.914	25.484	1616.254	1334.537
95.928	25.453	1615.033	1333.183
96.943	25.449	1614.116	1332.277
97.957	25.464	1612.560	1330.986
98.972	25.495	1611.467	1330.198
99.987	25.543	1610.230	1329.413
101.001	25.504	1608.747	1327.784
102.016	25.483	1607.008	1326.075
103.030	25.457	1606.124	1325.033
104.045	25.451	1604.896	1323.862
105.060	25.529	1603.288	1322.995
106.074	25.464	1601.933	1321.282
107.089	25.493	1601.283	1320.842
108.103	25.537	1600.343	1320.273
109.118	25.504	1599.059	1318.849
110.133	25.544	1597.351	1317.621
111.147	25.535	1596.945	1317.105
112.162	25.504	1595.692	1315.723
113.176	25.477	1594.410	1314.354
114.191	25.493	1593.133	1313.299
115.206	25.567	1592.212	1312.967
116.220	25.463	1591.119	1311.190
117.235	25.490	1589.702	1310.107
118.249	25.507	1588.854	1309.414
119.264	25.539	1587.597	1308.490
120.279	25.453	1586.865	1307.149
121.293	25.572	1585.635	1306.883
122.308	25.597	1584.480	1305.999
123.322	25.633	1583.522	1305.352
124.337	25.628	1581.947	1303.904
125.352	25.542	1581.054	1302.432
126.366	25.569	1580.125	1301.744
127.381	25.530	1579.202	1300.586
128.395	25.601	1577.967	1299.967
129.410	25.625	1577.126	1299.336
130.424	25.614	1575.991	1298.205
131.439	25.565	1574.815	1296.770
132.454	25.568	1573.379	1295.493
133.468	25.640	1572.090	1294.838
134.483	25.612	1570.732	1293.401
135.497	25.632	1569.690	1292.570
136.512	25.725	1568.479	1292.129
137.527	25.680	1567.555	1290.932
138.541	25.676	1566.399	1289.837
139.556	25.661	1564.738	1288.247
140.570	25.672	1564.127	1287.710
141.585	25.678	1562.676	1286.442
142.600	25.556	1561.885	1284.802
143.614	25.634	1560.380	1284.008
144.629	25.718	1559.043	1283.398
145.643	25.652	1558.108	1282.042
146.658	25.609	1556.764	1280.513
147.673	25.557	1555.766	1279.214
148.687	25.601	1554.643	1278.491
149.702	25.591	1553.676	1277.509
150.716	25.536	1552.414	1275.971
151.731	25.556	1551.387	1275.151
152.746	25.612	1549.831	1274.158
153.760	25.586	1549.087	1273.246
154.775	25.613	1547.906	1272.356
155.789	25.602	1546.484	1270.996
156.804	25.723	1545.338	1270.795
157.819	25.718	1544.298	1269.795
158.833	25.626	1543.596	1268.454
159.848	25.671	1542.691	1267.917
160.862	25.673	1541.545	1266.881
161.877	25.691	1540.688	1266.186
162.892	25.771	1539.937	1266.018
163.906	25.714	1538.934	1264.686
164.921	25.699	1538.058	1263.744
165.935	25.689	1537.155	1262.825
166.950	25.731	1536.079	1262.121
167.964	25.664	1535.252	1260.860
168.979	25.626	1534.560	1259.917
169.994	25.780	1533.182	1259.748
171.008	25.648	1532.888	1258.475
172.023	25.649	1531.906	1257.562
173.037	25.733	1530.513	1256.894
174.052	25.836	1529.136	1256.372
175.067	25.743	1528.254	1254.886
176.081	25.802	1527.584	1254.637
177.096	25.833	1526.188	1253.594
178.110	25.708	1525.267	1251.861
179.125	25.700	1524.435	1251.008
180.140	25.791	1523.805	1251.014
181.154	25.801	1522.821	1250.161
182.169	25.827	1521.861	1249.445
183.183	25.817	1520.554	1248.196
184.198	25.807	1519.794	1247.391
185.213	25.662	1519.324	1245.889
186.227	25.717	1518.189	1245.227
187.242	25.855	1517.180	1245.241
188.256	25.894	1516.486	1244.834
189.271	25.788	1515.582	1243.251
190.286	25.753	1514.716	1242.189
191.300	25.884	1513.763	1242.198
192.315	25.852	1512.664	1240.965
193.329	25.765	1512.189	1239.866
194.344	25.786	1511.434	1239.282
195.359	25.787	1510.711	1238.590
196.373	25.823	1509.927	1238.083
197.388	25.793	1508.683	1236.746
198.402	25.788	1507.534	1235.663
199.417	25.759	1506.332	1234.369
200.432	25.796	1505.780	1234.064
201.446	25.833	1505.284	1233.800
202.461	25.778	1504.313	1232.519
203.475	25.778	1503.303	1231.585
204.490	25.882	1502.397	1231.439
205.504	25.758	1501.412	1229.681
206.519	25.816	1501.228	1229.817
207.534	25.876	1500.123	1229.209
208.548	25.890	1499.442	1228.636
209.563	25.955	1498.021	1227.810
210.577	25.865	1497.711	1226.831
211.592	25.843	1496.462	1225.550
212.607	25.898	1495.867	1225.331
213.621	25.940	1495.446	1225.160
214.636	25.990	1494.599	1224.697
215.650	25.945	1493.743	1223.580
216.665	25.982	1492.666	1222.846
217.680	25.979	1492.360	1222.464
218.694	25.872	1491.949	1221.296
219.709	25.900	1491.074	1220.658
220.723	25.904	1489.648	1219.410
221.738	25.979	1488.635	1218.979
222.753	25.898	1488.358	1218.097
223.767	25.848	1487.493	1216.942
224.782	25.888	1486.185	1216.037
225.796	25.979	1485.611	1216.072
226.811	26.025	1485.080	1215.839
227.826	26.005	1484.253	1214.925
228.840	26.087	1482.774	1214.153
229.855	26.000	1482.929	1213.591
230.869	26.007	1481.793	1212.599
231.884	25.964	1481.126	1211.660
232.899	25.998	1479.612	1210.538
233.913	25.978	1478.931	1209.741
234.928	25.983	1477.638	1208.613
235.942	26.016	1476.853	1208.086
236.957	26.042	1475.797	1207.289
237.972	25.971	1475.205	1206.219
238.986	26.083	1473.801	1205.715
240.001	25.962	1473.129	1204.250
241.015	26.092	1471.990	1204.081
242.030	26.220	1470.647	1203.728
243.045	26.283	1469.642	1203.218
244.059	26.250	1468.871	1202.262
245.074	26.213	1468.171	1201.338
246.088	26.212	1467.802	1200.920
247.103	26.288	1466.866	1200.556
248.117	26.300	1465.995	1199.817
249.132	26.207	1465.685	1198.838
250.147	26.278	1464.239	1198.017
251.161	26.252	1464.207	1197.713
252.176	26.260	1463.327	1196.942
253.190	26.350	1462.625	1196.856
254.205	26.284	1461.740	1195.590
255.220	26.297	1461.015	1194.977
256.234	26.361	1459.808	1194.309
257.249	26.342	1458.930	1193.357
258.263	26.413	1458.177	1193.106
259.278	26.335	1457.872	1192.238
260.293	26.280	1457.021	1191.074
261.307	26.449	1455.697	1190.995
262.322	26.353	1455.410	1190.023
263.336	26.407	1454.629	1189.635
264.351	26.385	1453.502	1188.467
265.366	26.374	1452.834	1187.743
266.380	26.405	1451.593	1186.824
267.395	26.412	1450.957	1186.248
268.409	26.420	1450.506	1185.824
269.424	26.368	1449.494	1184.551
270.439	26.365	1448.436	1183.559
271.453	26.389	1447.639	1182.961
272.468	26.480	1446.726	1182.707
273.482	26.470	1446.338	1182.219
274.497	26.359	1445.930	1181.055
275.512	26.372	1444.926	1180.217
276.526	26.382	1444.211	1179.593
277.541	26.419	1443.010	1178.751
278.555	26.308	1442.329	1177.366
279.570	26.344	1441.812	1177.075
280.585	26.491	1440.327	1176.714
281.599	26.497	1439.465	1175.945
282.614	26.539	1438.643	1175.442
283.628	26.425	1438.356	1174.363
284.643	26.513	1437.310	1173.973
285.657	26.501	1435.926	1172.666
286.672	26.499	1435.595	1172.278
287.687	26.441	1434.725	1171.089
288.701	26.509	1433.620	1170.524
289.716	26.567	1433.269	1170.505
290.730	26.643	1432.031	1169.880
291.745	26.552	1431.277	1168.574
292.760	26.558	1430.726	1168.059
293.774	26.547	1430.210	1167.465
294.789	26.678	1428.930	1167.161
295.803	26.709	1427.924	1166.436
296.818	26.681	1427.132	1165.507
297.833	26.587	1426.876	1164.591
298.847	26.557	1425.955	1163.544
299.862	26.616	1425.109	1163.124
300.876	26.738	1424.073	1162.959
301.891	26.681	1423.095	1161.693
302.906	26.693	1423.123	1161.691
303.920	26.737	1422.110	1161.041
304.935	26.773	1421.252	1160.470
305.949	26.733	1420.588	1159.572
306.964	26.712	1419.525	1158.468
307.979	26.752	1418.787	1158.013
308.993	26.752	1418.202	1157.433
310.008	26.758	1416.976	1156.371
311.022	26.740	1415.982	1155.345
312.037	26.749	1415.053	1154.542
313.052	26.830	1414.564	1154.552
314.066	26.821	1413.307	1153.368
315.081	26.853	1412.218	1152.580
316.095	26.825	1411.510	1151.723
317.110	26.814	1410.600	1150.809
318.125	26.759	1409.853	1149.752
319.139	26.867	1409.402	1149.967
320.154	26.918	1408.031	1149.066
321.168	26.973	1407.015	1148.487
322.183	26.920	1406.620	1147.727
323.197	26.863	1405.558	1146.400
324.212	26.974	1404.425	1146.071
325.227	26.898	1404.309	1145.396
326.241	26.898	1403.194	1144.389
327.256	26.930	1402.588	1143.992
328.270	27.039	1401.758	1143.901
329.285	26.983	1401.002	1142.833
330.300	26.967	1400.135	1141.922
331.314	26.946	1399.458	1141.139
332.329	26.957	1398.723	1140.504
333.343	27.003	1397.727	1139.881
334.358	26.989	1397.453	1139.468
335.373	27.087	1396.569	1139.259
336.387	27.124	1395.973	1138.904
337.402	27.102	1395.228	1138.058
338.416	27.151	1394.649	1137.792
339.431	27.028	1394.287	1136.628
340.446	27.154	1393.417	1136.606
341.460	27.154	1392.419	1135.689
342.475	27.129	1391.699	1134.845
343.489	27.044	1391.129	1133.754
344.504	27.209	1389.665	1133.488
345.519	27.123	1388.867	1132.201
346.533	27.203	1387.913	1131.819
347.548	27.232	1386.910	1131.082
348.562	27.200	1386.300	1130.288
349.577	27.174	1385.913	1129.708
350.592	27.157	1385.483	1129.150
351.606	27.181	1384.218	1128.167
352.621	27.156	1383.135	1127.035
353.635	27.048	1382.308	1125.590
354.650	27.225	1381.330	1125.792
355.665	27.253	1380.610	1125.276
356.679	27.267	1379.254	1124.159
357.694	27.273	1378.355	1123.363
358.708	27.308	1377.361	1122.671
359.723	27.329	1376.288	1121.825
360.738	27.314	1375.001	1120.582
361.752	27.289	1374.255	1119.726
362.767	27.261	1373.383	1118.745
363.781	27.330	1372.419	1118.285
364.796	27.329	1371.838	1117.703
365.810	27.462	1371.097	1117.820
366.825	27.386	1370.471	1116.739
367.840	27.440	1369.599	1116.265
368.854	27.544	1368.801	1116.154
369.869	27.466	1368.662	1115.460
370.883	27.505	1368.155	1115.189
371.898	27.486	1367.557	1114.484
372.913	27.489	1366.360	1113.430
373.927	27.553	1365.396	1112.934
374.942	27.452	1364.821	1111.755
375.956	27.517	1364.248	1111.582
376.971	27.571	1363.205	1110.964
377.986	27.522	1362.607	1110.084
379.000	27.584	1361.950	1109.824
380.015	27.538	1361.298	1108.916
381.029	27.571	1360.296	1108.200
382.044	27.592	1359.915	1107.923
383.059	27.574	1359.190	1107.126
384.073	27.570	1358.412	1106.369
385.088	27.779	1357.711	1106.965
386.102	27.675	1357.253	1105.866
387.117	27.538	1357.161	1104.861
388.132	27.658	1356.104	1104.630
389.146	27.492	1355.668	1103.172
390.161	27.575	1354.801	1102.873
391.175	27.578	1353.981	1102.125
392.190	27.658	1353.539	1102.150
393.205	27.691	1352.564	1101.458
394.219	27.755	1351.249	1100.678
395.234	27.586	1350.618	1099.047
396.248	27.780	1349.362	1099.093
397.263	27.731	1348.399	1097.917
398.278	27.712	1347.223	1096.748
399.292	27.753	1346.565	1096.362
400.307	27.887	1345.201	1095.962
401.321	27.754	1344.513	1094.505
402.336	27.845	1343.702	1094.290
403.350	27.807	1342.826	1093.255
404.365	27.759	1342.103	1092.280
405.380	27.845	1340.950	1091.759
406.394	27.805	1340.520	1091.078
407.409	27.823	1339.887	1090.570
408.423	27.805	1339.038	1089.675
409.438	28.001	1338.288	1090.142
410.453	27.879	1337.788	1088.910
411.467	28.012	1336.788	1088.791
412.482	27.988	1336.341	1088.188
413.496	27.931	1335.855	1087.352
414.511	27.986	1334.878	1086.788
415.526	28.060	1334.469	1086.800
416.540	28.012	1333.623	1085.729
417.555	28.074	1332.836	1085.364
418.569	27.944	1332.527	1084.246
419.584	27.960	1331.999	1083.815
420.599	27.986	1331.423	1083.403
421.613	69.401	1307.405	1298.276
422.628	70.092	1303.871	1298.433
