DTS Sentinel unit serial number:	SN413079Multiplexer serial number:	ORYXHardware model number:	OX4-SRSoftware version number:	ORYX F/W v4.00 Oryx Data Collector v3.7.2.0data status	okinstallation	princeton_trtdifferential loss correction	single-endedforward channel	channel 4reverse channel	N/Adate	2019/09/13time	13:01:35forward acquisition time	60.00reverse acquisition time	0.00gamma	496.2192k internal	0.2297k external	0.2297temperature offset calibration	1.0211default loss term (dB/km)	0.3790temperature slope calibration	1.0000multiplexer offset coefficient	1.0000multiplexer slope coefficient	1.0000fibre end	0.00T internal ref (°C)	34.81T ext. ref 1 (°C)	4.57T ext. ref 2 (°C)	31.14length (m)	temperature (°C)	Stokes	anti-Stokes-747.200	-127.336	-0.363	0.054
-746.185	-117.548	0.270	0.050
-745.171	21.478	-0.041	-0.034
-744.156	-112.716	-0.233	0.047
-743.142	784.091	0.086	-0.242
-742.127	-40.441	0.149	-0.079
-741.112	-120.177	0.107	0.019
-740.098	-162.760	0.017	-0.001
-739.083	87.707	0.164	0.186
-738.069	15.522	0.070	0.056
-737.054	89.946	0.205	0.233
-736.039	800.000	-0.110	-0.348
-735.025	249.391	0.119	-0.206
-734.010	-200.000	0.008	0.234
-732.996	-174.585	0.256	-0.007
-731.981	24.013	0.196	0.165
-730.966	543.001	-0.100	0.244
-729.952	473.873	0.153	-0.352
-728.937	800.000	-0.113	-0.363
-727.923	-162.041	-0.235	-0.012
-726.908	130.902	0.125	0.163
-725.894	-66.619	-0.239	-0.097
-724.879	-76.850	-0.284	-0.101
-723.864	-0.766	-0.170	-0.123
-722.850	-95.647	0.105	0.029
-721.835	-157.485	-0.170	0.010
-720.821	-126.678	-0.392	0.059
-719.806	48.529	0.190	-0.181
-718.791	15.722	0.177	-0.142
-717.777	-95.098	-0.093	-0.026
-716.762	-113.844	-0.253	-0.050
-715.748	311.017	-0.131	-0.250
-714.733	92.094	0.159	-0.183
-713.718	353.194	0.109	0.221
-712.704	-200.000	0.000	-0.047
-711.689	-76.925	0.274	0.098
-710.675	114.273	-0.196	-0.243
-709.660	88.170	0.123	0.139
-708.645	332.764	0.161	0.318
-707.631	81.090	-0.072	-0.080
-706.616	312.521	-0.082	-0.157
-705.602	-111.990	0.011	-0.002
-704.587	-88.390	0.207	0.063
-703.572	75.979	0.165	-0.178
-702.558	32.712	-0.163	-0.144
-701.543	-103.018	0.029	-0.007
-700.529	766.054	-0.100	0.277
-699.514	251.327	0.030	-0.051
-698.499	4.469	-0.299	0.224
-697.485	-40.908	-0.267	0.141
-696.470	-200.000	-0.072	-0.374
-695.456	-58.103	0.247	-0.110
-694.441	40.949	-0.133	0.123
-693.426	-91.720	0.182	-0.053
-692.412	329.066	-0.083	-0.163
-691.397	-116.697	0.207	0.039
-690.383	42.852	-0.249	-0.231
-689.368	23.147	0.258	0.216
-688.354	-36.642	-0.118	0.064
-687.339	-198.133	-0.163	-0.001
-686.324	800.000	0.078	0.232
-685.310	-37.070	-0.111	0.061
-684.295	562.963	-0.105	-0.258
-683.281	-200.000	0.000	-0.004
-682.266	112.586	0.068	-0.084
-681.251	-95.447	-0.535	-0.146
-680.237	-13.218	0.232	-0.153
-679.222	-124.074	0.157	0.025
-678.208	-38.095	-0.097	0.052
-677.193	-200.000	0.044	0.228
-676.178	-200.000	-0.038	-0.321
-675.164	-13.797	-0.201	0.132
-674.149	13.107	-0.207	0.163
-673.135	440.921	0.043	-0.096
-672.120	-33.512	-0.163	-0.092
-671.105	-156.661	-0.175	-0.011
-670.091	173.692	0.140	-0.206
-669.076	350.297	0.110	0.221
-668.062	36.286	0.253	0.227
-667.047	-52.646	-0.156	-0.073
-666.032	-200.000	0.044	-0.351
-665.018	60.071	-0.288	-0.290
-664.003	598.698	0.048	0.121
-662.989	800.000	0.057	0.207
-661.974	-111.900	-0.177	0.036
-660.959	78.709	-0.236	-0.257
-659.945	418.200	0.144	-0.314
-658.930	-29.936	0.148	-0.086
-657.916	72.552	0.147	0.157
-656.901	62.379	0.087	0.088
-655.886	800.000	0.052	0.219
-654.872	-96.287	0.260	0.070
-653.857	190.355	-0.218	-0.333
-652.843	-55.074	-0.167	-0.076
-651.828	-117.103	0.240	0.044
-650.814	-110.092	0.167	-0.036
-649.799	-200.000	-0.013	0.316
-648.784	-19.849	-0.200	-0.126
-647.770	570.312	-0.123	0.304
-646.755	-65.057	0.167	0.069
-645.741	-200.000	0.002	0.389
-644.726	-84.061	0.061	0.020
-643.711	-14.464	-0.280	0.183
-642.697	121.108	-0.257	-0.325
-641.682	800.000	0.031	-0.119
-640.668	-200.000	0.036	0.173
-639.653	-153.353	-0.147	-0.010
-638.638	-46.741	-0.220	-0.110
-637.624	15.723	0.142	-0.114
-636.609	316.103	0.061	0.118
-635.595	800.000	0.053	-0.216
-634.580	-200.000	-0.029	-0.154
-633.565	471.817	-0.164	-0.375
-632.551	-106.915	-0.266	-0.060
-631.536	800.000	-0.032	0.123
-630.522	-200.000	0.043	-0.270
-629.507	106.528	-0.242	-0.292
-628.492	-63.737	0.091	-0.038
-627.478	68.867	-0.145	0.152
-626.463	35.233	0.067	-0.060
-625.449	-167.636	0.267	0.011
-624.434	44.182	0.135	0.126
-623.419	-58.635	-0.134	-0.059
-622.405	800.000	-0.090	0.285
-621.390	-36.410	0.379	0.207
-620.376	286.475	-0.222	0.407
-619.361	-86.865	-0.152	-0.047
-618.346	-72.664	-0.077	-0.029
-617.332	-50.776	-0.193	0.092
-616.317	-92.830	0.196	-0.056
-615.303	182.164	-0.345	0.517
-614.288	-11.506	-0.147	0.098
-613.273	84.618	-0.238	-0.265
-612.259	143.884	-0.168	0.227
-611.244	-32.806	-0.089	0.050
-610.230	-47.572	0.041	-0.020
-609.215	6.272	0.084	0.063
-608.201	-200.000	-0.005	0.040
-607.186	-71.436	0.287	-0.109
-606.171	165.137	-0.055	-0.079
-605.157	-200.000	-0.037	-0.378
-604.142	-73.595	-0.162	0.060
-603.128	-200.000	0.028	-0.284
-602.113	153.317	-0.047	-0.065
-601.098	-53.849	-0.127	0.059
-600.084	569.185	0.062	-0.154
-599.069	-9.127	-0.316	-0.215
-598.055	800.000	-0.051	0.203
-597.040	800.000	-0.070	-0.248
-596.025	-43.784	-0.071	-0.037
-595.011	-200.000	-0.007	0.303
-593.996	544.847	0.102	0.247
-592.982	-39.171	0.024	-0.013
-591.967	800.000	-0.061	0.218
-590.952	800.000	0.032	0.121
-589.938	66.574	-0.152	0.157
-588.923	164.699	-0.081	0.116
-587.909	-24.343	-0.344	0.208
-586.894	54.664	-0.157	-0.154
-585.879	529.796	0.044	0.104
-584.865	26.209	-0.199	0.169
-583.850	-200.000	-0.042	0.255
-582.836	-150.801	0.343	-0.026
-581.821	-150.177	0.178	-0.014
-580.806	800.000	-0.006	0.023
-579.792	169.100	-0.093	-0.135
-578.777	162.683	-0.193	0.274
-577.763	-17.144	-0.279	0.178
-576.748	-11.173	0.322	-0.215
-575.733	-200.000	-0.002	-0.149
-574.719	130.464	0.122	0.158
-573.704	-104.653	0.317	0.074
-572.690	-200.000	-0.001	0.157
-571.675	15.553	0.149	0.119
-570.661	224.968	-0.142	-0.233
-569.646	483.254	0.140	-0.323
-568.631	-200.000	-0.046	-0.370
-567.617	106.429	0.165	-0.199
-566.602	-45.438	-0.444	0.223
-565.588	-87.880	-0.269	0.082
-564.573	148.882	0.080	0.110
-563.558	-136.560	0.090	0.011
-562.544	-38.572	-0.132	-0.071
-561.529	229.296	-0.210	-0.348
-560.515	-7.069	-0.318	-0.219
-559.500	800.000	-0.025	-0.093
-558.485	47.492	0.192	0.181
-557.471	-25.402	0.159	-0.095
-556.456	-83.919	-0.441	-0.142
-555.442	283.911	-0.101	-0.184
-554.427	-81.267	0.233	0.078
-553.412	-24.842	-0.157	-0.094
-552.398	-196.312	0.260	-0.002
-551.383	457.033	0.128	0.288
-550.369	-180.629	-0.283	0.006
-549.354	95.759	0.209	0.242
-548.339	259.765	0.078	-0.137
-547.325	138.206	-0.115	0.153
-546.310	800.000	-0.096	-0.294
-545.296	800.000	0.082	-0.239
-544.281	-200.000	0.027	-0.326
-543.266	-200.000	-0.027	-0.174
-542.252	800.000	-0.039	0.147
-541.237	-70.285	-0.150	-0.058
-540.223	44.262	-0.265	-0.246
-539.208	-68.090	0.325	0.128
-538.193	-21.931	-0.169	-0.104
-537.179	800.000	0.103	-0.305
-536.164	281.316	0.040	0.072
-535.150	126.607	0.221	-0.284
-534.135	4.157	0.233	0.173
-533.121	316.261	0.136	0.260
-532.106	800.000	-0.030	-0.115
-531.091	89.704	0.190	-0.215
-530.077	800.000	-0.052	0.195
-529.062	81.274	0.110	-0.120
-528.048	-33.286	0.105	-0.059
-527.033	-100.996	0.160	-0.040
-526.018	-200.000	0.047	-0.240
-525.004	316.406	0.132	-0.253
-523.989	11.533	0.220	0.171
-522.975	-200.000	0.044	0.291
-521.960	800.000	-0.081	-0.288
-520.945	-62.753	-0.315	-0.132
-519.931	-69.566	0.286	0.111
-518.916	-65.114	-0.066	0.027
-517.902	126.740	0.051	-0.065
-516.887	-200.000	-0.008	0.160
-515.872	-2.380	-0.162	0.115
-514.858	154.021	0.045	-0.062
-513.843	-200.000	-0.020	0.513
-512.829	-3.468	0.085	-0.060
-511.814	-118.700	0.175	-0.031
-510.799	-91.846	-0.191	-0.055
-509.785	288.268	0.151	0.277
-508.770	-2.484	-0.151	-0.107
-507.756	-61.624	-0.221	0.094
-506.741	549.706	0.119	0.288
-505.726	-64.031	-0.180	0.075
-504.712	-200.000	0.061	-0.359
-503.697	86.607	0.083	0.093
-502.683	800.000	0.048	-0.173
-501.668	-58.296	0.113	-0.050
-500.653	-114.647	0.276	-0.053
-499.639	-44.534	-0.304	0.154
-498.624	-117.924	-0.070	0.013
-497.610	33.366	0.062	-0.055
-496.595	-131.454	0.308	0.041
-495.581	96.412	-0.060	-0.069
-494.566	-200.000	-0.012	0.177
-493.551	-29.578	-0.192	0.111
-492.537	-200.000	-0.004	-0.383
-491.522	60.126	-0.265	-0.265
-490.508	-200.000	0.013	0.299
-489.493	-15.414	0.098	0.063
-488.478	35.921	-0.143	-0.127
-487.464	121.926	-0.101	0.128
-486.449	-136.766	-0.239	-0.028
-485.435	-81.339	0.415	-0.138
-484.420	6.804	0.451	0.340
-483.405	-133.702	0.099	-0.012
-482.391	37.884	-0.118	-0.106
-481.376	646.953	-0.136	0.352
-480.362	-148.728	-0.111	-0.009
-479.347	-1.537	0.212	0.151
-478.332	86.372	0.192	-0.214
-477.318	14.310	-0.233	-0.184
-476.303	-200.000	0.027	0.164
-475.289	282.547	0.103	0.186
-474.274	-118.938	0.178	0.031
-473.259	178.877	0.137	0.202
-472.245	-180.145	-0.400	-0.009
-471.230	-62.056	0.138	-0.058
-470.216	151.422	0.046	0.064
-469.201	-38.198	0.170	0.091
-468.186	-117.603	0.122	0.022
-467.172	327.074	0.145	-0.280
-466.157	-118.159	0.140	-0.025
-465.143	-76.775	-0.114	-0.040
-464.128	-200.000	-0.040	0.289
-463.113	375.013	0.223	-0.460
-462.099	-200.000	-0.040	-0.247
-461.084	64.875	0.156	-0.159
-460.070	17.772	0.289	0.233
-459.055	126.757	0.153	-0.196
-458.040	-92.498	-0.272	-0.077
-457.026	800.000	-0.029	-0.102
-456.011	-180.011	-0.217	0.005
-454.997	-188.452	0.237	-0.003
-453.982	49.478	-0.200	0.190
-452.968	-200.000	-0.036	0.197
-451.953	254.983	0.140	0.242
-450.938	140.729	-0.156	0.209
-449.924	-62.507	-0.450	-0.189
-448.909	800.000	0.067	0.202
-447.895	-200.000	0.012	0.422
-446.880	595.923	-0.136	-0.339
-445.865	45.667	-0.081	-0.075
-444.851	334.127	-0.199	-0.388
-443.836	1.433	0.140	-0.102
-442.822	-89.632	0.301	0.089
-441.807	-200.000	-0.066	-0.324
-440.792	800.000	0.027	-0.086
-439.778	800.000	-0.048	-0.189
-438.763	-48.548	0.296	-0.144
-437.749	36.634	-0.077	-0.069
-436.734	-200.000	0.061	-0.296
-435.719	-83.672	-0.091	-0.029
-434.705	-42.378	0.199	-0.102
-433.690	27.003	-0.198	0.167
-432.676	-34.145	0.214	0.119
-431.661	-67.343	-0.100	0.040
-430.646	-200.000	-0.005	-0.052
-429.632	728.989	0.092	-0.247
-428.617	-87.266	0.256	0.078
-427.603	-99.032	-0.191	0.049
-426.588	88.784	0.141	-0.158
-425.573	-200.000	-0.024	-0.178
-424.559	46.843	0.164	-0.154
-423.544	32.365	0.106	-0.092
-422.530	288.093	-0.085	-0.155
-421.515	60.452	-0.262	-0.262
-420.500	56.594	0.314	0.308
-419.486	-83.159	0.193	-0.063
-418.471	-30.349	0.098	0.056
-417.457	136.518	-0.171	-0.224
-416.442	-200.000	0.099	-0.441
-415.428	-200.000	-0.001	0.011
-414.413	224.829	0.144	0.235
-413.398	-200.000	-0.008	0.171
-412.384	-138.401	-0.218	0.024
-411.369	-14.298	0.042	0.027
-410.355	-26.620	0.192	0.114
-409.340	507.171	0.120	-0.281
-408.325	52.411	-0.060	-0.058
-407.311	-149.485	0.253	-0.020
-406.296	-125.287	0.292	-0.045
-405.282	45.993	0.034	-0.031
-404.267	800.000	0.026	-0.106
-403.252	-137.461	0.106	-0.012
-402.238	-96.198	0.197	-0.053
-401.223	-106.820	0.369	-0.083
-400.209	800.000	0.080	0.289
-399.194	-200.000	0.008	-0.274
-398.179	-50.105	-0.176	0.084
-397.165	-112.894	-0.096	-0.019
-396.150	-200.000	0.012	-0.057
-395.136	-97.527	-0.172	0.045
-394.121	-9.177	0.219	0.148
-393.106	83.439	-0.149	-0.164
-392.092	-30.757	0.277	-0.158
-391.077	187.510	0.078	0.118
-390.063	238.896	-0.114	0.190
-389.048	30.210	-0.022	0.019
-388.033	388.066	0.148	0.309
-387.019	-8.539	-0.247	0.167
-386.004	-14.878	-0.061	-0.040
-384.990	35.474	-0.080	0.071
-383.975	109.668	-0.114	0.138
-382.960	-93.235	0.135	-0.038
-381.946	-92.965	0.051	0.014
-380.931	315.073	0.057	-0.108
-379.917	142.367	0.179	-0.239
-378.902	-74.396	0.239	0.087
-377.888	60.059	-0.264	0.263
-376.873	76.006	-0.247	0.263
-375.858	-200.000	0.030	0.302
-374.844	319.977	-0.196	-0.374
-373.829	479.223	0.114	-0.259
-372.815	-119.072	-0.277	-0.049
-371.800	313.288	0.162	-0.307
-370.785	800.000	0.037	-0.136
-369.771	549.929	-0.139	0.335
-368.756	-31.195	-0.288	0.164
-367.742	-133.035	0.184	-0.023
-366.727	-200.000	0.031	-0.212
-365.712	71.001	-0.122	0.127
-364.698	800.000	0.074	-0.252
-363.683	-28.827	-0.386	-0.223
-362.669	-53.432	0.368	-0.170
-361.654	163.486	0.088	0.124
-360.639	-59.591	0.320	-0.138
-359.625	-68.157	0.097	0.038
-358.610	175.032	0.171	0.250
-357.596	-116.562	-0.200	0.037
-356.581	-200.000	0.025	0.170
-355.566	56.111	0.223	-0.218
-354.552	230.634	-0.071	0.117
-353.537	82.638	0.269	0.294
-352.523	246.688	-0.111	-0.189
-351.508	-200.000	-0.005	0.044
-350.493	-200.000	-0.004	0.053
-349.479	-133.306	-0.235	0.030
-348.464	-74.490	0.237	-0.086
-347.450	-200.000	-0.017	-0.120
-346.435	-64.482	0.215	0.088
-345.420	-195.935	-0.150	-0.001
-344.406	-200.000	-0.072	0.359
-343.391	-127.923	-0.220	0.032
-342.377	-42.043	0.543	-0.279
-341.362	-29.540	0.380	-0.218
-340.348	-15.208	-0.084	-0.054
-339.333	-200.000	0.013	0.116
-338.318	679.888	0.127	-0.333
-337.304	348.996	0.047	0.094
-336.289	171.740	0.149	0.214
-335.275	-59.808	-0.197	-0.085
-334.260	-16.120	0.132	0.085
-333.245	-136.174	0.180	-0.021
-332.231	41.405	0.131	0.120
-331.216	131.537	0.263	0.340
-330.202	0.342	-0.052	0.038
-329.187	-29.778	-0.040	-0.023
-328.172	60.196	0.033	0.033
-327.158	-41.473	0.035	0.018
-326.143	83.983	0.087	-0.095
-325.129	-6.528	0.219	0.150
-324.114	-165.393	0.368	0.016
-323.099	353.375	-0.144	-0.287
-322.085	241.592	-0.180	0.303
-321.070	-32.176	-0.159	-0.089
-320.056	53.851	0.108	0.104
-319.041	800.000	0.009	0.026
-318.026	800.000	-0.140	-0.426
-317.012	205.585	0.077	0.120
-315.997	-62.447	0.300	-0.125
-314.983	-77.550	-0.284	-0.099
-313.968	-161.082	-0.374	-0.020
-312.953	4.609	0.199	0.147
-311.939	800.000	0.043	-0.168
-310.924	-23.230	0.138	0.083
-309.910	40.678	0.184	0.166
-308.895	-183.172	0.333	0.006
-307.880	619.160	-0.093	0.235
-306.866	53.121	-0.151	-0.145
-305.851	204.231	-0.168	-0.262
-304.837	-200.000	-0.016	0.093
-303.822	800.000	-0.069	-0.247
-302.807	-4.034	-0.440	-0.306
-301.793	-200.000	-0.001	0.242
-300.778	-49.567	-0.125	-0.060
-299.764	176.788	0.256	0.374
-298.749	503.898	-0.074	0.173
-297.735	119.409	-0.217	0.270
-296.720	86.101	0.106	0.118
-295.705	-200.000	-0.002	0.191
-294.691	-145.194	0.338	-0.031
-293.676	-89.601	0.066	-0.020
-292.662	472.396	-0.019	0.043
-291.647	-200.000	-0.023	0.169
-290.632	150.041	0.028	0.038
-289.618	-2.365	-0.220	0.155
-288.603	-200.000	-0.030	0.242
-287.589	95.277	-0.240	-0.275
-286.574	289.519	-0.095	-0.174
-285.559	43.910	-0.479	-0.440
-284.545	33.759	0.118	0.103
-283.530	-133.942	0.179	0.022
-282.516	800.000	0.081	0.248
-281.501	45.932	-0.142	0.132
-280.486	34.186	-0.148	-0.129
-279.472	800.000	0.023	0.100
-278.457	800.000	0.054	-0.152
-277.443	-200.000	0.063	-0.419
-276.428	-200.000	-0.005	-0.243
-275.413	47.379	-0.216	-0.202
-274.399	520.623	0.066	-0.156
-273.384	-144.563	-0.433	-0.040
-272.370	800.000	0.066	0.243
-271.355	-135.575	0.135	-0.016
-270.340	-128.787	0.118	0.017
-269.326	-200.000	0.037	-0.254
-268.311	193.373	-0.089	-0.136
-267.297	-88.105	0.143	0.043
-266.282	-200.000	-0.006	-0.252
-265.267	-9.695	-0.015	-0.010
-264.253	64.183	0.156	0.157
-263.238	-200.000	0.036	0.216
-262.224	70.687	-0.066	-0.069
-261.209	480.131	-0.125	-0.284
-260.195	-117.497	-0.160	-0.029
-259.180	-9.782	0.010	-0.007
-258.165	-11.296	0.054	-0.036
-257.151	771.158	-0.059	0.161
-256.136	800.000	0.023	-0.073
-255.122	49.973	0.248	0.234
-254.107	52.082	0.273	-0.260
-253.092	339.001	-0.120	0.234
-252.078	-31.954	-0.268	0.151
-251.063	-149.213	-0.119	0.010
-250.049	6.576	0.158	0.118
-249.034	42.113	-0.094	-0.086
-248.019	-20.238	-0.086	-0.053
-247.005	3.386	0.202	-0.147
-245.990	-101.487	-0.145	0.035
-244.976	166.168	0.161	0.229
-243.961	30.691	-0.180	-0.154
-242.946	-13.889	0.277	-0.180
-241.932	139.002	0.157	0.207
-240.917	-200.000	-0.011	0.089
-239.903	47.674	-0.186	-0.174
-238.888	-77.836	0.110	-0.038
-237.873	-68.181	-0.486	0.189
-236.859	80.160	-0.064	-0.069
-235.844	-117.499	-0.174	-0.031
-234.830	-200.000	0.020	0.266
-233.815	-200.000	-0.048	0.546
-232.800	49.055	0.098	0.092
-231.786	-149.573	0.143	-0.011
-230.771	-93.530	0.203	-0.056
-229.757	25.307	0.124	0.103
-228.742	-70.382	-0.151	-0.057
-227.727	-73.669	-0.033	-0.012
-226.713	-151.803	0.104	0.008
-225.698	-39.194	-0.212	0.111
-224.684	467.834	0.120	-0.270
-223.669	-200.000	0.449	0.002
-222.655	-16.839	0.330	-0.209
-221.640	-92.202	0.310	-0.087
-220.625	210.634	-0.063	-0.100
-219.611	-27.589	0.114	0.066
-218.596	656.652	-0.038	0.099
-217.582	-104.345	-0.075	-0.017
-216.567	800.000	-0.076	-0.214
-215.552	-36.930	0.488	0.262
-214.538	-92.509	0.016	-0.005
-213.523	-16.322	-0.181	-0.115
-212.509	3.439	-0.253	-0.184
-211.494	800.000	-0.021	0.065
-210.479	-143.740	0.143	-0.014
-209.465	243.318	-0.155	-0.261
-208.450	119.385	0.125	0.155
-207.436	-113.853	0.132	0.026
-206.421	-180.252	0.435	-0.009
-205.406	800.000	0.071	0.264
-204.392	-71.557	-0.238	0.089
-203.377	332.323	-0.233	-0.450
-202.363	-200.000	-0.021	0.130
-201.348	-36.862	-0.296	-0.159
-200.333	-99.010	0.228	0.058
-199.319	-126.231	-0.212	-0.032
-198.304	-200.000	-0.010	-0.245
-197.290	800.000	0.073	0.245
-196.275	-200.000	0.023	-0.319
-195.260	44.650	-0.235	-0.216
-194.246	-121.277	0.166	-0.028
-193.231	-133.132	0.198	0.025
-192.217	-36.499	0.035	0.019
-191.202	91.092	-0.114	0.128
-190.187	543.899	-0.041	-0.097
-189.173	335.204	-0.040	-0.077
-188.158	-87.693	-0.260	-0.079
-187.144	98.970	0.150	0.174
-186.129	-130.661	-0.465	0.063
-185.114	-2.252	0.085	0.060
-184.100	-200.000	-0.004	0.226
-183.085	94.298	-0.170	0.193
-182.071	-76.988	-0.159	0.056
-181.056	132.986	0.250	-0.322
-180.042	141.648	-0.133	0.175
-179.027	-2.748	-0.290	-0.203
-178.012	-200.000	0.016	0.245
-176.998	-105.515	-0.309	-0.070
-175.983	28.619	0.297	0.251
-174.969	0.548	0.104	-0.074
-173.954	-128.181	-0.222	-0.032
-172.939	-179.867	-0.230	-0.005
-171.925	-90.850	-0.143	0.041
-170.910	-96.541	0.220	-0.058
-169.896	503.558	-0.208	0.481
-168.881	-35.989	-0.341	0.184
-167.866	121.528	-0.145	0.180
-166.852	-97.076	-0.356	-0.093
-165.837	-63.957	0.125	0.051
-164.823	492.000	0.054	-0.124
-163.808	33.617	0.421	0.366
-162.793	97.633	0.041	-0.047
-161.779	-118.436	-0.278	-0.049
-160.764	41.376	0.070	0.063
-159.750	-200.000	-0.002	-0.289
-158.735	-86.420	-0.316	0.097
-157.720	-144.986	0.214	-0.020
-156.706	35.069	0.090	-0.079
-155.691	-200.000	-0.001	0.278
-154.677	800.000	0.015	0.058
-153.662	-200.000	-0.061	0.377
-152.647	67.455	-0.136	0.139
-151.633	333.050	-0.214	0.413
-150.618	61.632	0.254	0.252
-149.604	-3.727	0.104	0.072
-148.589	-45.604	0.364	-0.180
-147.574	50.947	0.083	-0.078
-146.560	-200.000	-0.040	0.400
-145.545	-200.000	0.014	0.291
-144.531	87.882	0.180	-0.199
-143.516	800.000	0.023	-0.075
-142.502	-200.000	-0.021	-0.311
-141.487	66.658	0.286	0.290
-140.472	-200.000	-0.040	0.236
-139.458	-10.586	0.254	0.168
-138.443	-73.122	-0.226	-0.083
-137.429	800.000	0.151	-0.490
-136.414	-144.871	-0.195	-0.018
-135.399	233.097	-0.047	0.078
-134.385	365.819	0.087	0.174
-133.370	61.489	0.187	-0.186
-132.356	-200.000	0.005	0.035
-131.341	180.057	-0.095	0.139
-130.326	52.661	0.076	-0.072
-129.312	184.638	0.116	0.171
-128.297	-120.730	0.399	-0.067
-127.283	-200.000	-0.080	-0.376
-126.268	-200.000	0.002	0.171
-125.253	584.684	-0.116	0.285
-124.239	-116.771	-0.204	-0.037
-123.224	255.152	0.056	0.095
-122.210	-97.404	0.422	-0.109
-121.195	-98.803	-0.261	0.066
-120.180	-135.178	0.045	-0.005
-119.166	160.409	-0.147	0.204
-118.151	-137.290	-0.252	0.029
-117.137	-149.324	-0.245	0.019
-116.122	-200.000	0.017	-0.350
-115.107	-199.926	-0.042	0.000
-114.093	79.413	-0.009	0.010
-113.078	490.097	0.045	0.103
-112.064	188.291	-0.043	0.065
-111.049	128.184	0.102	-0.129
-110.034	207.370	0.019	0.030
-109.020	-31.359	-0.185	-0.104
-108.005	-19.743	0.045	0.028
-106.991	304.618	-0.101	-0.187
-105.976	-77.100	0.155	0.054
-104.962	-172.982	-0.210	-0.006
-103.947	-200.000	0.008	0.076
-102.932	-200.000	0.010	-0.103
-101.918	-34.443	-0.299	-0.163
-100.903	332.439	-0.091	0.175
-99.889	204.125	0.169	-0.261
-98.874	800.000	-0.041	-0.156
-97.859	-200.000	-0.019	-0.136
-96.845	277.363	0.104	-0.184
-95.830	-155.215	-0.422	0.027
-94.816	-200.000	-0.087	0.426
-93.801	-31.143	0.471	0.264
-92.786	-68.682	0.174	0.067
-91.772	-102.986	0.119	0.028
-90.757	394.148	0.181	-0.374
-89.743	-25.394	-0.282	0.166
-88.728	-12.897	0.194	-0.126
-87.713	-41.103	0.037	-0.019
-86.699	-6.806	0.157	0.106
-85.684	800.000	-0.054	0.171
-84.670	-200.000	0.014	0.343
-83.655	-6.168	-0.124	0.085
-82.640	-67.627	0.220	0.086
-81.626	691.978	0.079	0.207
-80.611	-102.154	0.325	0.078
-79.597	-5.662	0.022	-0.015
-78.582	-83.260	0.283	0.090
-77.567	-108.079	-0.620	-0.134
-76.553	16.614	-0.219	0.172
-75.538	-200.000	-0.018	0.084
-74.524	800.000	0.058	-0.213
-73.509	-51.934	-0.111	0.051
-72.494	800.000	-0.070	-0.234
-71.480	-200.000	0.011	0.358
-70.465	431.469	0.124	0.267
-69.451	197.629	0.105	0.160
-68.436	257.992	0.134	-0.229
-67.422	-119.481	0.118	0.020
-66.407	-40.965	-0.066	0.034
-65.392	-121.981	0.041	-0.007
-64.378	-34.996	-0.193	0.105
-63.363	-153.325	0.237	0.016
-62.349	724.341	0.080	0.211
-61.334	174.915	-0.643	-0.926
-60.319	261.862	0.214	0.369
-59.305	179.231	-0.378	-0.550
-58.290	800.000	0.379	1.134
-57.276	800.000	0.481	1.615
-56.261	-200.000	95.047	559.773
-55.246	624.421	1386.667	3475.392
-54.232	182.232	2620.135	3838.804
-53.217	111.544	2355.249	2824.442
-52.203	41.648	2101.506	1892.461
-51.188	36.591	2014.062	1767.557
-50.173	34.938	1995.608	1736.306
-49.159	48.760	2046.413	1907.922
-48.144	51.722	2066.395	1953.749
-47.130	37.330	2023.227	1782.105
-46.115	34.819	2011.928	1749.137
-45.100	34.731	2008.901	1745.635
-44.086	34.674	2006.791	1743.214
-43.071	34.627	2003.942	1740.234
-42.057	34.615	2001.927	1738.308
-41.042	34.656	1999.843	1736.808
-40.027	34.690	1998.174	1735.590
-39.013	34.716	1995.593	1733.519
-37.998	34.744	1994.106	1732.414
-36.984	34.652	1992.246	1729.896
-35.969	34.693	1990.463	1728.653
-34.954	34.783	1988.443	1727.636
-33.940	34.768	1986.866	1726.066
-32.925	34.736	1985.969	1724.927
-31.911	34.848	1983.677	1723.881
-30.896	34.854	1981.627	1722.083
-29.881	34.732	1980.449	1719.890
-28.867	34.781	1978.984	1718.995
-27.852	34.843	1976.554	1717.370
-26.838	34.820	1975.340	1716.039
-25.823	34.901	1972.750	1714.454
-24.809	34.737	1971.762	1712.057
-23.794	34.835	1969.989	1711.321
-22.779	34.849	1967.427	1709.160
-21.765	34.795	1966.399	1707.713
-20.750	34.902	1964.052	1706.560
-19.736	34.892	1962.993	1705.482
-18.721	34.822	1961.339	1703.356
-17.706	34.759	1960.494	1701.994
-16.692	34.763	1958.173	1699.948
-15.677	34.824	1956.102	1698.626
-14.663	34.820	1955.322	1697.846
-13.648	34.898	1953.603	1696.976
-12.633	34.965	1951.970	1696.082
-11.619	34.870	1951.081	1694.404
-10.604	34.857	1949.756	1693.072
-9.590	34.904	1948.382	1692.225
-8.575	34.864	1946.364	1690.048
-7.560	34.834	1945.558	1689.020
-6.546	34.930	1944.083	1688.522
-5.531	34.877	1942.896	1686.956
-4.517	34.889	1941.843	1686.081
-3.502	34.818	1940.760	1684.444
-2.487	34.780	1939.748	1683.169
-1.473	34.946	1938.621	1683.578
-0.458	34.970	1934.340	1680.007
0.556	37.584	1914.031	1652.726
1.571	32.883	1893.837	1595.522
2.586	28.272	1915.323	1573.951
3.600	26.757	1951.048	1589.891
4.615	25.231	1943.436	1570.211
5.629	19.257	1841.171	1437.758
6.644	9.920	1720.049	1269.944
7.659	4.957	1681.425	1203.085
8.673	4.597	1677.658	1197.513
9.688	4.595	1676.630	1196.657
10.702	4.538	1675.631	1195.396
11.717	4.570	1672.238	1193.120
12.731	5.330	1672.619	1199.119
13.746	11.922	1688.478	1261.293
14.761	20.355	1706.165	1339.753
15.775	22.935	1709.928	1362.512
16.790	22.613	1706.905	1357.502
17.804	21.581	1704.499	1347.532
18.819	20.644	1700.757	1337.256
19.834	20.052	1698.773	1331.025
20.848	19.813	1697.067	1327.736
21.863	19.757	1695.886	1326.268
22.877	19.474	1694.468	1322.871
23.892	19.360	1693.506	1321.129
24.907	19.255	1692.507	1319.435
25.921	19.240	1691.051	1318.063
26.936	19.189	1690.313	1316.981
27.950	19.226	1689.116	1316.215
28.965	19.307	1688.568	1316.292
29.980	19.284	1688.558	1315.992
30.994	19.449	1687.126	1316.019
32.009	19.634	1686.105	1316.518
33.023	19.626	1685.129	1315.574
34.038	19.691	1684.001	1315.072
35.053	19.596	1682.894	1313.368
36.067	19.453	1681.904	1311.391
37.082	19.367	1680.440	1309.483
38.096	19.442	1679.207	1308.977
39.111	19.424	1679.024	1308.581
40.126	19.551	1678.092	1308.703
41.140	19.532	1676.798	1307.433
42.155	19.341	1675.269	1304.677
43.169	19.070	1673.414	1301.070
44.184	18.963	1672.527	1299.455
45.199	18.924	1671.694	1298.403
46.213	18.981	1670.478	1297.771
47.228	19.029	1668.913	1296.800
48.242	19.292	1667.789	1297.793
49.257	19.362	1667.509	1297.990
50.271	19.385	1666.282	1297.095
51.286	19.368	1664.955	1295.821
52.301	19.349	1663.250	1294.230
53.315	19.342	1662.436	1293.433
54.330	19.278	1660.897	1291.642
55.344	19.116	1658.998	1288.840
56.359	19.064	1657.586	1287.240
57.374	19.104	1655.899	1286.112
58.388	19.093	1654.952	1285.182
59.403	19.026	1653.745	1283.628
60.417	18.914	1652.655	1281.835
61.432	18.945	1651.578	1281.115
62.447	18.955	1649.929	1279.802
63.461	18.830	1648.847	1277.917
64.476	18.765	1647.914	1276.595
65.490	18.785	1646.482	1275.527
66.505	18.695	1645.643	1274.093
67.520	18.759	1644.521	1273.589
68.534	18.805	1643.039	1272.666
69.549	18.738	1642.475	1271.624
70.563	18.810	1641.548	1271.322
71.578	18.795	1640.440	1270.240
72.593	18.593	1639.181	1267.662
73.607	18.644	1637.887	1266.925
74.622	18.595	1636.727	1265.556
75.636	18.611	1635.805	1264.851
76.651	18.578	1635.221	1264.042
77.666	18.604	1634.576	1263.623
78.680	18.749	1633.267	1263.568
79.695	18.714	1632.827	1262.853
80.709	18.764	1631.872	1262.371
81.724	18.797	1631.053	1261.870
82.739	18.929	1630.741	1262.484
83.753	19.103	1629.661	1262.817
84.768	19.160	1629.204	1262.767
85.782	19.301	1628.588	1263.216
86.797	19.402	1627.904	1263.313
87.812	19.541	1626.590	1263.199
88.826	19.459	1625.417	1261.573
89.841	19.359	1624.309	1259.868
90.855	19.411	1623.231	1259.299
91.870	19.417	1622.647	1258.782
92.884	19.512	1621.465	1258.449
93.899	19.558	1620.535	1257.950
94.914	19.526	1619.455	1256.769
95.928	19.580	1618.544	1256.344
96.943	19.618	1617.350	1255.582
97.957	19.589	1616.008	1254.216
98.972	19.606	1613.886	1252.578
99.987	19.434	1612.462	1250.118
101.001	19.489	1610.690	1249.032
102.016	19.453	1609.498	1247.738
103.030	19.506	1608.189	1246.997
104.045	19.420	1607.287	1245.566
105.060	19.451	1605.558	1244.341
106.074	19.507	1603.638	1243.140
107.089	19.261	1601.868	1239.888
108.103	18.999	1600.194	1236.600
109.118	18.755	1599.169	1233.945
110.133	18.728	1597.175	1232.104
111.147	18.733	1595.991	1231.121
112.162	18.867	1594.311	1230.678
113.176	18.808	1593.296	1229.358
114.191	18.939	1592.127	1229.288
115.206	18.979	1591.056	1228.632
116.220	18.951	1589.883	1227.425
117.235	18.945	1588.336	1226.077
118.249	18.883	1587.166	1224.626
119.264	18.941	1585.171	1223.385
120.279	18.877	1583.993	1221.917
121.293	18.788	1581.900	1219.563
122.308	18.777	1580.787	1218.515
123.322	18.703	1578.993	1216.499
124.337	18.539	1578.311	1214.704
125.352	18.524	1576.765	1213.300
126.366	18.492	1575.565	1212.043
127.381	18.564	1574.077	1211.304
128.395	18.576	1573.523	1210.857
129.410	18.646	1571.629	1209.785
130.424	18.686	1570.695	1209.236
131.439	18.690	1569.290	1208.077
132.454	18.856	1568.091	1208.216
133.468	18.894	1566.786	1207.374
134.483	18.998	1564.985	1206.603
135.497	18.918	1564.233	1205.358
136.512	18.943	1562.753	1204.283
137.527	18.990	1561.561	1203.588
138.541	19.038	1560.289	1202.842
139.556	18.936	1559.330	1201.282
140.570	19.100	1557.993	1201.287
141.585	19.154	1556.704	1200.568
142.600	19.281	1555.946	1200.760
143.614	19.354	1554.453	1200.011
144.629	19.454	1553.520	1199.878
145.643	19.544	1552.464	1199.582
146.658	19.551	1551.039	1198.422
147.673	19.435	1549.505	1196.327
148.687	19.367	1547.547	1194.237
149.702	19.162	1546.122	1191.613
150.716	19.214	1544.210	1190.396
151.731	19.097	1543.264	1188.751
152.746	19.059	1541.396	1186.947
153.760	19.012	1540.093	1185.511
154.775	19.161	1538.767	1185.413
155.789	19.104	1538.371	1184.613
156.804	19.368	1536.706	1185.038
157.819	19.298	1535.471	1183.502
158.833	19.264	1535.457	1183.155
159.848	19.439	1533.655	1182.863
160.862	19.534	1532.800	1182.744
161.877	19.699	1531.299	1182.615
162.892	19.484	1530.026	1180.056
163.906	19.167	1528.723	1176.778
164.921	19.061	1527.377	1174.915
165.935	19.117	1526.072	1174.192
166.950	19.118	1524.787	1173.102
167.964	19.291	1523.719	1173.358
168.979	19.289	1523.219	1172.852
169.994	19.191	1522.247	1171.334
171.008	19.143	1520.908	1169.877
172.023	19.159	1519.962	1169.150
173.037	19.301	1518.519	1168.904
174.052	19.463	1517.620	1169.202
175.067	19.537	1516.952	1169.085
176.081	19.349	1515.336	1166.469
177.096	19.210	1513.723	1164.184
178.110	19.119	1512.324	1162.387
179.125	19.177	1510.914	1161.598
180.140	19.195	1510.193	1161.057
181.154	19.242	1509.707	1160.901
182.169	19.407	1508.653	1161.095
183.183	19.424	1507.662	1160.349
184.198	19.466	1506.837	1159.891
185.213	19.529	1505.618	1159.270
186.227	19.542	1504.827	1158.646
187.242	19.539	1503.444	1157.458
188.256	19.662	1502.805	1157.689
189.271	19.688	1501.503	1156.762
190.286	19.815	1500.142	1156.461
191.300	19.714	1499.705	1155.345
192.315	19.500	1498.007	1152.503
193.329	19.066	1496.043	1147.998
194.344	19.014	1495.043	1146.782
195.359	19.243	1494.333	1147.661
196.373	19.330	1493.276	1147.323
197.388	19.366	1492.249	1146.678
198.402	19.335	1491.599	1145.870
199.417	19.593	1490.301	1146.480
200.432	19.736	1489.805	1146.946
201.446	19.849	1489.175	1147.113
202.461	19.986	1488.062	1147.062
203.475	20.035	1487.337	1146.727
204.490	20.105	1486.373	1146.342
205.504	20.044	1484.419	1144.332
206.519	19.763	1482.972	1141.259
207.534	19.702	1481.640	1139.731
208.548	19.662	1480.660	1138.616
209.563	19.748	1479.693	1138.332
210.577	19.699	1478.769	1137.201
211.592	19.719	1478.327	1136.896
212.607	19.721	1477.181	1135.923
213.621	19.933	1476.917	1137.015
214.636	19.925	1476.293	1136.380
215.650	19.793	1475.512	1134.811
216.665	19.827	1474.264	1133.973
217.680	19.851	1473.949	1133.787
218.694	20.044	1473.031	1134.248
219.709	20.239	1471.969	1134.605
220.723	20.129	1471.273	1133.245
221.738	20.125	1469.653	1131.870
222.753	20.080	1469.085	1131.042
223.767	20.003	1468.080	1129.666
224.782	20.044	1466.920	1128.941
225.796	20.060	1466.200	1128.389
226.811	20.201	1465.735	1128.851
227.826	20.356	1464.647	1128.923
228.840	20.220	1463.805	1127.290
229.855	19.942	1463.042	1124.795
230.869	20.010	1461.119	1123.656
231.884	19.945	1460.915	1122.982
232.899	19.996	1458.888	1121.656
233.913	19.828	1457.767	1119.602
234.928	19.870	1456.766	1119.012
235.942	19.708	1455.725	1117.064
236.957	19.766	1454.285	1116.234
237.972	19.658	1453.206	1114.612
238.986	19.728	1452.208	1114.197
240.001	19.847	1451.145	1114.049
241.015	19.778	1450.053	1112.666
242.030	19.757	1448.806	1111.475
243.045	19.835	1448.069	1111.312
244.059	19.985	1447.003	1111.358
245.074	20.027	1446.584	1111.213
246.088	20.103	1445.271	1110.592
247.103	20.078	1445.041	1110.155
248.117	20.172	1444.479	1110.227
249.132	20.240	1443.954	1110.163
250.147	20.286	1443.388	1109.922
251.161	20.593	1442.858	1111.380
252.176	20.781	1442.233	1111.997
253.190	21.001	1441.079	1112.417
254.205	20.959	1440.607	1111.682
255.220	20.928	1439.752	1110.732
256.234	21.029	1439.186	1110.835
257.249	20.974	1438.506	1109.867
258.263	20.958	1437.255	1108.696
259.278	20.869	1436.486	1107.445
260.293	20.948	1435.120	1106.795
261.307	20.920	1435.063	1106.472
262.322	20.928	1434.180	1105.743
263.336	20.992	1433.409	1105.461
264.351	21.057	1432.004	1104.686
265.366	21.058	1431.255	1104.020
266.380	21.125	1430.539	1103.792
267.395	21.095	1429.761	1102.907
268.409	21.038	1428.960	1101.829
269.424	20.994	1427.572	1100.388
270.439	20.824	1426.510	1098.394
271.453	20.868	1425.579	1097.857
272.468	20.891	1424.458	1097.042
273.482	20.886	1423.453	1096.143
274.497	20.715	1422.070	1093.903
275.512	20.835	1421.375	1094.025
276.526	20.789	1420.590	1093.036
277.541	20.716	1419.943	1091.982
278.555	20.732	1418.984	1091.248
279.570	20.823	1418.278	1091.184
280.585	20.829	1417.455	1090.491
281.599	21.052	1416.787	1091.277
282.614	21.167	1415.582	1090.971
283.628	21.029	1414.395	1089.092
284.643	20.917	1413.486	1087.598
285.657	20.839	1411.964	1085.848
286.672	20.786	1411.627	1085.158
287.687	20.882	1410.265	1084.619
288.701	20.781	1409.489	1083.295
289.716	20.851	1408.816	1083.119
290.730	20.937	1407.916	1082.866
291.745	20.970	1406.371	1081.782
292.760	20.948	1405.754	1081.078
293.774	21.011	1404.817	1080.652
294.789	20.951	1404.121	1079.649
295.803	21.213	1403.513	1080.705
296.818	21.301	1402.400	1080.299
297.833	21.085	1401.508	1078.183
298.847	20.999	1400.359	1076.670
299.862	21.025	1398.935	1075.645
300.876	21.043	1398.363	1075.218
301.891	21.033	1397.701	1074.550
302.906	21.066	1397.198	1074.271
303.920	21.116	1396.378	1073.858
304.935	21.374	1395.421	1074.611
305.949	21.391	1395.258	1074.494
306.964	21.488	1394.000	1074.025
307.979	21.633	1393.195	1074.198
308.993	21.552	1391.821	1072.548
310.008	21.315	1390.973	1070.353
311.022	21.284	1389.838	1069.194
312.037	21.498	1388.820	1069.622
313.052	21.490	1388.164	1068.972
314.066	21.458	1386.626	1067.502
315.081	21.216	1386.130	1065.548
316.095	21.237	1384.308	1064.181
317.110	21.075	1382.923	1062.033
318.125	21.037	1382.304	1061.237
319.139	21.046	1381.734	1060.755
320.154	21.116	1380.296	1059.986
321.168	21.100	1379.956	1059.536
322.183	21.035	1378.863	1058.207
323.197	21.191	1377.497	1058.012
324.212	21.137	1377.074	1057.261
325.227	21.271	1376.304	1057.391
326.241	21.233	1375.647	1056.560
327.256	21.256	1374.585	1055.790
328.270	21.294	1373.581	1055.156
329.285	21.221	1372.944	1054.133
330.300	21.064	1372.101	1052.448
331.314	21.139	1371.192	1052.107
332.329	21.243	1369.495	1051.341
333.343	21.169	1369.221	1050.587
334.358	21.218	1368.057	1049.900
335.373	21.324	1367.464	1049.987
336.387	21.391	1366.974	1049.921
337.402	21.458	1366.342	1049.744
338.416	21.543	1365.562	1049.563
339.431	21.638	1364.586	1049.291
340.446	21.707	1364.046	1049.195
341.460	21.604	1363.546	1048.100
342.475	21.812	1362.260	1048.263
343.489	21.931	1361.625	1048.389
344.504	21.874	1361.004	1047.478
345.519	21.966	1360.038	1047.195
346.533	21.976	1358.938	1046.316
347.548	22.033	1357.921	1045.779
348.562	22.165	1356.884	1045.671
349.577	22.177	1356.570	1045.408
350.592	21.997	1355.701	1043.578
351.606	21.842	1354.425	1041.580
352.621	21.765	1352.733	1039.730
353.635	21.547	1351.881	1037.690
354.650	21.506	1351.192	1036.830
355.665	21.480	1350.029	1035.692
356.679	21.610	1349.259	1035.779
357.694	21.622	1348.056	1034.829
358.708	21.730	1346.819	1034.427
359.723	21.805	1346.205	1034.307
360.738	21.871	1345.280	1033.897
361.752	21.823	1344.345	1032.800
362.767	21.807	1343.088	1031.648
363.781	21.921	1342.118	1031.484
364.796	21.843	1341.536	1030.487
365.810	21.980	1340.801	1030.639
366.825	22.119	1340.314	1030.988
367.840	22.113	1339.822	1030.481
368.854	22.179	1339.579	1030.590
369.869	22.392	1339.024	1031.323
370.883	22.523	1337.760	1031.020
371.898	22.386	1336.826	1029.411
372.913	22.183	1336.121	1027.587
373.927	22.160	1335.536	1026.912
374.942	22.187	1334.180	1025.938
375.956	22.272	1333.776	1026.032
376.971	22.341	1333.072	1025.801
377.986	22.315	1331.920	1024.676
379.000	22.333	1331.377	1024.271
380.015	22.361	1330.877	1023.957
381.029	22.571	1329.934	1024.364
382.044	22.552	1329.434	1023.775
383.059	22.585	1329.066	1023.595
384.073	22.569	1328.320	1022.836
385.088	22.347	1327.644	1020.940
386.102	22.529	1326.258	1020.837
387.117	22.532	1325.825	1020.431
388.132	22.508	1324.559	1019.229
389.146	22.284	1323.797	1017.254
390.161	22.090	1322.949	1015.390
391.175	22.197	1322.073	1015.249
392.190	22.207	1321.356	1014.662
393.205	22.270	1320.615	1014.369
394.219	22.435	1319.388	1014.286
395.234	22.516	1318.616	1014.073
396.248	22.406	1317.400	1012.413
397.263	22.357	1315.898	1010.889
398.278	22.275	1314.581	1009.316
399.292	22.264	1313.321	1008.198
400.307	22.123	1312.063	1006.331
401.321	22.125	1310.732	1005.233
402.336	22.084	1309.963	1004.322
403.350	22.069	1308.843	1003.288
404.365	22.133	1308.040	1002.948
405.380	22.136	1307.025	1002.099
406.394	22.315	1306.500	1002.632
407.409	22.338	1305.981	1002.272
408.423	22.345	1305.444	1001.814
409.438	22.566	1304.538	1002.286
410.453	22.576	1304.022	1001.857
411.467	22.739	1303.367	1002.191
412.482	22.734	1303.216	1001.958
413.496	22.740	1302.410	1001.284
414.511	22.852	1301.796	1001.359
415.526	22.955	1300.981	1001.225
416.540	23.067	1300.197	1001.166
417.555	23.037	1299.926	1000.700
418.569	23.144	1299.150	1000.619
419.584	23.052	1298.585	999.579
420.599	22.940	1297.294	997.860
421.613	144.114	1431.464	1791.180
422.628	139.467	1450.998	1791.309
