DTS Sentinel unit serial number:	SN413079Multiplexer serial number:	ORYXHardware model number:	OX4-SRSoftware version number:	ORYX F/W v4.00 Oryx Data Collector v3.7.2.0data status	okinstallation	princeton_trtdifferential loss correction	single-endedforward channel	channel 4reverse channel	N/Adate	2019/09/17time	04:49:35forward acquisition time	60.00reverse acquisition time	0.00gamma	496.2192k internal	0.2312k external	0.2312temperature offset calibration	0.9979default loss term (dB/km)	0.3790temperature slope calibration	1.0000multiplexer offset coefficient	1.0000multiplexer slope coefficient	1.0000fibre end	0.00T internal ref (°C)	29.56T ext. ref 1 (°C)	0.13T ext. ref 2 (°C)	24.02length (m)	temperature (°C)	Stokes	anti-Stokes-747.200	-87.151	-0.308	0.095
-746.185	800.000	-0.082	0.248
-745.171	-200.000	0.069	-0.372
-744.156	259.954	-0.188	-0.330
-743.142	800.000	0.129	-0.402
-742.127	-200.000	0.001	0.307
-741.112	-200.000	0.028	-0.148
-740.098	-77.754	-0.244	0.086
-739.083	40.646	0.199	-0.182
-738.069	-139.684	0.459	0.050
-737.054	800.000	-0.197	-0.590
-736.039	-200.000	0.005	0.127
-735.025	-103.458	0.064	-0.015
-734.010	-117.706	-0.170	0.031
-732.996	800.000	-0.040	-0.156
-731.981	-56.523	0.204	-0.092
-730.966	194.033	-0.210	-0.322
-729.952	-14.981	-0.152	-0.099
-728.937	-6.778	-0.065	-0.045
-727.923	3.991	-0.393	-0.292
-726.908	-75.853	-0.124	0.044
-725.894	699.432	-0.067	-0.179
-724.879	105.129	-0.113	0.135
-723.864	12.422	-0.101	-0.079
-722.850	-200.000	-0.001	-0.148
-721.835	-27.176	-0.201	-0.119
-720.821	102.465	-0.084	0.100
-719.806	-59.045	-0.184	-0.080
-718.791	-177.365	0.435	-0.011
-717.777	-200.000	-0.014	-0.248
-716.762	-200.000	-0.001	-0.368
-715.748	129.986	0.131	-0.169
-714.733	-200.000	0.006	0.243
-713.718	56.992	0.051	0.051
-712.704	-66.322	-0.176	-0.071
-711.689	103.024	0.207	-0.246
-710.675	-83.841	-0.364	-0.117
-709.660	-16.192	-0.125	-0.080
-708.645	141.542	0.031	0.042
-707.631	165.408	0.238	-0.341
-706.616	221.876	-0.125	0.203
-705.602	-58.458	-0.330	-0.145
-704.587	140.793	0.168	-0.225
-703.572	97.383	0.101	-0.118
-702.558	-200.000	-0.033	-0.267
-701.543	-200.000	-0.010	-0.252
-700.529	24.116	-0.058	-0.048
-699.514	-54.761	-0.211	-0.097
-698.499	-50.670	-0.149	-0.071
-697.485	-87.909	0.247	-0.075
-696.470	800.000	-0.122	0.384
-695.456	13.463	-0.086	0.067
-694.441	2.436	0.142	0.104
-693.426	83.523	0.211	0.233
-692.412	95.210	0.231	0.266
-691.397	-112.877	0.290	-0.058
-690.383	362.142	-0.086	-0.176
-689.368	-95.671	-0.110	-0.030
-688.354	-95.597	0.107	-0.029
-687.339	-200.000	-0.012	-0.080
-686.324	36.522	-0.293	0.262
-685.310	-200.000	-0.068	-0.366
-684.295	-178.017	-0.232	0.006
-683.281	-40.843	-0.180	-0.094
-682.266	-200.000	0.006	0.035
-681.251	328.372	-0.070	0.137
-680.237	88.629	-0.117	0.131
-679.222	732.899	0.046	-0.123
-678.208	664.087	0.116	0.304
-677.193	-131.244	-0.271	-0.036
-676.178	309.631	0.078	0.148
-675.164	-200.000	0.025	0.144
-674.149	-18.421	0.105	0.066
-673.135	-82.093	-0.127	-0.042
-672.120	-200.000	0.011	0.092
-671.105	-200.000	0.028	0.233
-670.091	-126.232	0.114	-0.017
-669.076	-0.478	0.387	0.278
-668.062	473.661	0.088	-0.200
-667.047	95.443	-0.120	0.138
-666.032	-171.370	0.380	0.013
-665.018	-200.000	-0.035	0.201
-664.003	-200.000	0.002	-0.051
-662.989	67.055	0.143	-0.148
-661.974	9.310	0.127	-0.097
-660.959	506.858	0.030	-0.070
-659.945	-200.000	-0.013	-0.166
-658.930	-200.000	0.030	-0.226
-657.916	-82.194	-0.143	-0.047
-656.901	117.105	-0.131	-0.163
-655.886	-200.000	0.006	-0.180
-654.872	-82.765	-0.148	-0.048
-653.857	-68.449	-0.070	-0.027
-652.843	94.973	0.150	-0.173
-651.828	-26.609	0.365	0.216
-650.814	800.000	-0.039	-0.160
-649.799	-13.753	0.090	-0.059
-648.784	63.556	-0.022	0.023
-647.770	-74.247	-0.240	-0.088
-646.755	119.498	0.258	0.323
-645.741	11.508	-0.240	-0.186
-644.726	210.821	0.169	0.269
-643.711	16.412	0.149	-0.119
-642.697	800.000	0.043	-0.179
-641.682	-46.668	0.173	-0.086
-640.668	514.495	0.118	-0.279
-639.653	193.837	-0.129	0.197
-638.638	192.849	-0.065	-0.099
-637.624	91.706	-0.113	0.128
-636.609	-170.027	0.144	-0.005
-635.595	523.552	0.083	-0.198
-634.580	-90.227	0.309	0.091
-633.565	116.348	0.095	-0.118
-632.551	-105.121	0.217	-0.050
-631.536	-200.000	0.014	-0.080
-630.522	-98.154	-0.297	0.077
-629.507	-62.988	-0.180	-0.075
-628.492	-50.599	0.329	0.157
-627.478	509.606	-0.115	0.270
-626.463	800.000	0.092	0.267
-625.449	25.922	0.087	0.073
-624.434	-159.131	0.195	0.011
-623.419	-88.800	0.308	0.092
-622.405	-200.000	0.001	0.085
-621.390	-89.630	-0.098	-0.029
-620.376	169.050	0.146	0.210
-619.361	4.869	-0.072	0.053
-618.346	183.323	-0.163	-0.243
-617.332	-15.817	0.184	-0.118
-616.317	39.669	0.267	-0.242
-615.303	-200.000	-0.037	0.237
-614.288	103.807	0.198	0.235
-613.273	302.911	0.127	0.237
-612.259	-119.293	0.137	0.024
-611.244	-126.768	-0.195	-0.029
-610.230	-107.976	-0.154	0.034
-609.215	-25.334	-0.093	-0.056
-608.201	770.855	0.018	-0.050
-607.186	-89.905	-0.388	-0.114
-606.171	-140.251	-0.137	-0.015
-605.157	186.879	0.135	0.202
-604.142	118.027	0.101	-0.125
-603.128	514.416	0.077	-0.180
-602.113	-200.000	0.010	-0.230
-601.098	800.000	0.058	-0.193
-600.084	-43.365	0.108	-0.055
-599.069	-106.411	0.179	-0.040
-598.055	155.102	0.126	0.176
-597.040	1.370	-0.125	0.091
-596.025	-194.362	0.146	0.001
-595.011	-200.000	0.003	-0.175
-593.996	-144.576	0.178	0.017
-592.982	-39.811	-0.499	0.263
-591.967	286.059	-0.151	0.275
-590.952	-150.180	0.083	0.006
-589.938	17.808	-0.055	-0.044
-588.923	-3.738	0.037	0.026
-587.909	7.548	0.237	-0.179
-586.894	800.000	0.105	-0.396
-585.879	278.369	0.245	0.440
-584.865	163.908	-0.079	-0.112
-583.850	196.722	0.163	-0.251
-582.836	227.302	-0.068	-0.111
-581.821	-30.490	-0.275	-0.157
-580.806	-200.000	0.016	0.177
-579.792	-29.738	-0.080	-0.046
-578.777	-44.465	-0.279	-0.141
-577.763	552.070	-0.093	-0.226
-576.748	200.177	-0.100	-0.154
-575.733	-200.000	0.041	-0.196
-574.719	21.660	-0.286	-0.235
-573.704	800.000	0.030	0.128
-572.690	457.585	0.095	0.213
-571.675	800.000	0.064	0.195
-570.661	195.502	0.092	-0.141
-569.646	64.494	-0.048	-0.049
-568.631	-20.805	-0.335	0.207
-567.617	-200.000	-0.012	-0.217
-566.602	536.222	-0.073	0.174
-565.588	800.000	0.034	-0.094
-564.573	-200.000	0.005	0.134
-563.558	-150.913	0.311	0.024
-562.544	639.466	-0.110	0.281
-561.529	-94.516	-0.314	0.086
-560.515	-200.000	-0.069	0.486
-559.500	-26.944	-0.064	0.038
-558.485	10.660	0.085	0.066
-557.471	20.703	0.132	0.108
-556.456	-200.000	0.056	-0.361
-555.442	800.000	-0.030	-0.090
-554.427	-200.000	0.019	-0.185
-553.412	-200.000	-0.006	-0.045
-552.398	800.000	-0.048	-0.195
-551.383	14.817	0.176	-0.139
-550.369	10.979	-0.193	-0.148
-549.354	-71.417	-0.216	-0.081
-548.339	249.017	-0.061	0.103
-547.325	-75.493	-0.138	-0.050
-546.310	-165.221	-0.212	0.009
-545.296	-49.022	-0.153	-0.074
-544.281	287.000	0.160	0.292
-543.266	53.526	0.127	0.122
-542.252	19.487	-0.162	0.131
-541.237	589.393	-0.093	-0.231
-540.223	-200.000	-0.047	0.323
-539.208	800.000	0.086	0.336
-538.193	734.836	0.064	0.173
-537.179	-200.000	0.052	0.255
-536.164	-15.433	-0.319	0.205
-535.150	800.000	-0.052	-0.227
-534.135	-10.517	0.040	-0.027
-533.121	339.848	-0.054	0.106
-532.106	-108.427	0.134	-0.029
-531.091	-77.778	-0.167	-0.058
-530.077	13.839	-0.074	-0.058
-529.062	-200.000	0.011	-0.210
-528.048	-51.602	0.121	0.057
-527.033	145.130	-0.056	-0.076
-526.018	7.445	0.162	-0.122
-525.004	168.224	-0.151	-0.216
-523.989	155.339	-0.198	-0.274
-522.975	-145.146	-0.170	0.016
-521.960	646.886	0.071	0.183
-520.945	-44.247	0.167	0.084
-519.931	-125.147	0.119	-0.018
-518.916	56.896	0.239	-0.234
-517.902	186.032	0.174	0.261
-516.887	-200.000	-0.022	-0.129
-515.872	58.810	-0.302	-0.298
-514.858	-63.844	-0.210	0.087
-513.843	-106.796	0.265	0.059
-512.829	-44.400	0.059	-0.029
-511.814	133.745	0.187	-0.243
-510.799	69.593	0.082	-0.085
-509.785	436.840	0.129	-0.282
-508.770	-200.000	0.058	-0.265
-507.756	-200.000	-0.015	0.113
-506.741	-9.971	-0.139	-0.093
-505.726	-101.999	-0.097	0.024
-504.712	-113.158	-0.186	0.037
-503.697	-59.380	0.245	-0.106
-502.683	566.163	-0.138	-0.337
-501.668	-200.000	-0.032	0.208
-500.653	-62.961	0.251	-0.104
-499.639	284.498	-0.052	-0.095
-498.624	-87.855	-0.098	0.030
-497.610	-19.108	-0.280	0.175
-496.595	41.975	-0.224	-0.204
-495.581	-75.212	0.041	-0.015
-494.566	-187.139	0.410	0.006
-493.551	-109.168	0.148	-0.032
-492.537	213.166	0.027	-0.042
-491.522	109.242	-0.061	0.074
-490.508	80.714	-0.298	0.323
-489.493	800.000	0.076	0.229
-488.478	219.294	-0.110	0.177
-487.464	170.214	0.145	-0.209
-486.449	-200.000	-0.013	0.391
-485.435	-72.723	-0.421	0.156
-484.420	-200.000	0.007	0.201
-483.405	-30.591	0.120	-0.068
-482.391	64.517	0.094	0.095
-481.376	-84.001	-0.066	-0.021
-480.362	-200.000	-0.020	-0.114
-479.347	-200.000	-0.006	0.041
-478.332	178.171	0.085	-0.125
-477.318	-200.000	0.011	0.060
-476.303	-126.521	-0.219	0.033
-475.289	274.645	-0.090	-0.160
-474.274	-100.115	-0.081	-0.020
-473.259	76.789	0.177	-0.189
-472.245	-200.000	0.008	-0.190
-471.230	-6.452	-0.118	-0.081
-470.216	-200.000	-0.016	-0.104
-469.201	556.797	-0.046	0.112
-468.186	662.646	0.055	-0.143
-467.172	661.012	-0.029	-0.076
-466.157	-200.000	-0.012	0.115
-465.143	-200.000	0.005	-0.044
-464.128	-108.634	-0.029	-0.006
-463.113	129.684	-0.029	-0.037
-462.099	-46.958	0.362	-0.177
-461.084	75.976	-0.300	0.319
-460.070	282.484	-0.157	-0.283
-459.055	-74.722	-0.320	-0.116
-458.040	800.000	0.226	0.742
-457.026	-168.390	-0.140	-0.005
-456.011	-73.097	0.075	0.028
-454.997	800.000	0.053	0.202
-453.982	-70.964	0.146	0.055
-452.968	800.000	-0.013	0.050
-451.953	140.781	-0.091	0.121
-450.938	-200.000	-0.003	-0.092
-449.924	66.955	-0.171	0.175
-448.909	-200.000	0.007	0.151
-447.895	-200.000	0.008	-0.038
-446.880	-63.996	0.226	0.093
-445.865	-90.484	-0.455	-0.132
-444.851	138.937	0.370	0.488
-443.836	-200.000	-0.026	0.216
-442.822	218.430	-0.098	0.157
-441.807	-200.000	0.012	0.516
-440.792	-200.000	0.026	-0.144
-439.778	-102.376	-0.112	-0.027
-438.763	-152.192	-0.216	0.016
-437.749	109.849	-0.246	-0.296
-436.734	354.546	0.136	0.270
-435.719	-141.756	0.159	-0.016
-434.705	-31.266	0.279	-0.158
-433.690	-76.838	0.235	0.083
-432.676	597.052	-0.092	0.228
-431.661	11.650	-0.101	-0.078
-430.646	-85.901	-0.137	-0.042
-429.632	97.519	-0.123	0.142
-428.617	-200.000	0.019	-0.227
-427.603	-131.535	-0.145	0.019
-426.588	64.290	-0.108	0.109
-425.573	-108.683	0.150	-0.032
-424.559	-200.000	-0.001	0.432
-423.544	-60.087	0.088	-0.038
-422.530	-200.000	-0.030	-0.265
-421.515	-144.310	0.025	-0.002
-420.500	-6.364	0.005	0.003
-419.486	26.615	-0.162	0.136
-418.471	171.041	-0.107	-0.154
-417.457	205.660	0.135	0.210
-416.442	800.000	-0.023	0.098
-415.428	147.516	-0.082	-0.111
-414.413	-82.251	-0.195	0.064
-413.398	800.000	0.097	0.323
-412.384	-1.243	-0.146	-0.104
-411.369	624.878	-0.037	0.094
-410.355	173.620	0.145	-0.209
-409.340	-110.198	0.094	0.020
-408.325	55.382	-0.078	0.076
-407.311	-200.000	-0.014	-0.195
-406.296	152.587	-0.196	-0.268
-405.282	101.693	0.152	-0.177
-404.267	800.000	-0.027	-0.095
-403.252	-32.509	-0.478	-0.267
-402.238	800.000	-0.082	-0.231
-401.223	66.814	-0.086	-0.087
-400.209	397.738	0.031	0.064
-399.194	388.500	-0.036	-0.074
-398.179	-200.000	0.054	-0.410
-397.165	-200.000	-0.010	-0.143
-396.150	-200.000	-0.022	-0.124
-395.136	-200.000	-0.032	0.320
-394.121	342.368	0.046	-0.090
-393.106	-200.000	0.003	-0.341
-392.092	18.734	0.144	-0.115
-391.077	-63.794	-0.241	-0.099
-390.063	-200.000	-0.033	-0.233
-389.048	107.101	0.200	0.237
-388.033	-35.893	0.082	0.045
-387.019	-200.000	-0.031	0.199
-386.004	-30.698	-0.366	-0.207
-384.990	800.000	0.125	-0.487
-383.975	-200.000	0.021	-0.117
-382.960	-86.643	-0.062	-0.019
-381.946	182.847	-0.179	0.264
-380.931	-16.396	0.181	-0.115
-379.917	28.293	-0.100	-0.085
-378.902	128.427	-0.088	-0.112
-377.888	-124.073	0.555	-0.087
-376.873	-109.047	-0.309	0.066
-375.858	800.000	0.141	0.496
-374.844	158.591	0.173	0.240
-373.829	-6.287	-0.116	-0.079
-372.815	-94.619	0.407	0.111
-371.800	365.200	0.099	0.199
-370.785	-85.618	-0.390	0.121
-369.771	-7.583	0.204	-0.138
-368.756	61.249	0.120	-0.119
-367.742	-200.000	-0.016	0.270
-366.727	461.870	0.049	0.109
-365.712	-89.288	-0.252	-0.074
-364.698	152.090	0.092	-0.126
-363.683	-198.949	0.152	0.001
-362.669	-91.576	-0.367	0.105
-361.654	0.286	-0.166	0.118
-360.639	163.181	-0.046	0.065
-359.625	-200.000	0.005	-0.056
-358.610	484.211	0.131	-0.298
-357.596	-92.487	0.179	-0.050
-356.581	-93.462	-0.223	0.062
-355.566	-134.251	-0.146	-0.018
-354.552	-99.298	-0.170	0.043
-353.537	-200.000	-0.076	-0.359
-352.523	251.497	0.112	-0.191
-351.508	264.907	-0.037	-0.064
-350.493	-200.000	-0.000	-0.015
-349.479	-24.307	0.137	0.081
-348.464	70.344	-0.402	0.415
-347.450	-50.533	0.409	0.193
-346.435	800.000	0.019	0.057
-345.420	76.316	0.146	0.155
-344.406	800.000	0.031	0.119
-343.391	-200.000	-0.015	0.105
-342.377	-200.000	-0.048	0.405
-341.362	-200.000	-0.000	-0.392
-340.348	287.661	-0.104	-0.188
-339.333	-90.767	0.281	-0.081
-338.318	46.571	-0.156	-0.145
-337.304	-155.843	0.218	0.014
-336.289	184.754	-0.174	0.258
-335.275	397.363	0.041	-0.085
-334.260	6.067	-0.113	-0.084
-333.245	-200.000	-0.021	0.238
-332.231	-200.000	-0.039	-0.233
-331.216	800.000	0.066	-0.198
-330.202	195.386	-0.192	-0.291
-329.187	626.156	-0.141	-0.354
-328.172	3.840	0.090	0.066
-327.158	-97.800	-0.256	-0.066
-326.143	19.844	-0.292	0.235
-325.129	-53.019	0.157	0.072
-324.114	-200.000	0.006	-0.074
-323.099	22.685	-0.456	0.372
-322.085	493.694	-0.121	0.278
-321.070	128.949	-0.155	0.197
-320.056	-169.621	-0.270	0.010
-319.041	-175.089	-0.324	0.009
-318.026	-50.787	0.141	-0.066
-317.012	-37.569	-0.115	-0.061
-315.997	66.223	-0.113	-0.115
-314.983	-200.000	0.031	-0.353
-313.968	1.078	0.398	0.285
-312.953	-174.902	-0.369	0.010
-311.939	-100.495	0.144	0.035
-310.924	89.330	0.063	-0.070
-309.910	505.955	0.085	-0.197
-308.895	238.790	0.197	-0.326
-307.880	292.693	-0.084	0.153
-306.866	-200.000	-0.003	-0.251
-305.851	43.718	-0.163	0.149
-304.837	-200.000	-0.012	0.281
-303.822	605.824	0.089	0.222
-302.807	-200.000	-0.006	-0.080
-301.793	95.421	0.156	0.177
-300.778	624.677	0.017	-0.043
-299.764	322.380	-0.083	-0.158
-298.749	77.418	0.207	-0.220
-297.735	-200.000	0.047	-0.285
-296.720	16.921	0.275	-0.218
-295.705	260.127	0.019	0.034
-294.691	-124.683	-0.112	0.017
-293.676	-200.000	0.034	0.180
-292.662	-150.557	0.055	-0.004
-291.647	-200.000	-0.014	0.358
-290.632	-99.724	0.403	0.101
-289.618	-57.441	0.079	-0.035
-288.603	-175.019	0.109	-0.003
-287.589	800.000	-0.093	0.306
-286.574	133.318	0.039	-0.050
-285.559	67.712	0.070	-0.071
-284.545	49.038	0.057	0.053
-283.530	-200.000	-0.005	-0.195
-282.516	-144.650	0.138	0.013
-281.501	-12.244	0.205	0.134
-280.486	-148.140	0.331	-0.027
-279.472	-37.207	0.219	-0.117
-278.457	800.000	-0.044	-0.180
-277.443	-121.329	-0.191	0.032
-276.428	-134.550	0.252	0.031
-275.413	150.004	0.236	-0.319
-274.399	-101.909	0.143	0.034
-273.384	-56.680	0.150	-0.066
-272.370	-199.217	-0.206	-0.001
-271.355	29.788	-0.160	-0.136
-270.340	132.663	0.145	0.186
-269.326	133.901	0.084	-0.108
-268.311	14.683	0.123	-0.096
-267.297	-169.993	-0.096	0.003
-266.282	-40.820	-0.061	-0.031
-265.267	-200.000	-0.042	0.209
-264.253	-154.635	0.034	-0.002
-263.238	-5.518	-0.280	-0.191
-262.224	45.541	-0.149	-0.137
-261.209	800.000	0.063	-0.232
-260.195	-200.000	-0.043	0.307
-259.180	-140.211	-0.163	0.017
-258.165	13.540	-0.204	0.158
-257.151	800.000	-0.013	0.041
-256.136	800.000	0.058	0.200
-255.122	-51.187	0.084	0.039
-254.107	-200.000	-0.037	0.306
-253.092	-200.000	0.030	0.182
-252.078	-90.884	0.192	0.055
-251.063	-200.000	0.015	0.000
-250.049	-67.423	0.151	-0.059
-249.034	-200.000	-0.008	-0.369
-248.019	17.667	0.247	0.196
-247.005	8.183	-0.191	0.142
-245.990	-131.185	-0.168	0.022
-244.976	111.772	-0.158	0.190
-243.961	-118.403	0.125	-0.022
-242.946	69.311	-0.126	0.129
-241.932	-93.103	0.197	-0.054
-240.917	-185.573	0.412	-0.006
-239.903	-117.966	-0.251	-0.045
-238.888	412.735	0.067	-0.141
-237.873	-77.782	-0.259	0.089
-236.859	1.691	-0.083	0.059
-235.844	-126.327	-0.067	-0.010
-234.830	90.821	0.161	-0.179
-233.815	-26.592	-0.159	-0.093
-232.800	148.050	0.194	-0.260
-231.786	13.986	0.236	0.183
-230.771	-125.603	-0.392	-0.059
-229.757	-90.188	0.164	0.048
-228.742	169.678	0.201	0.286
-227.727	-200.000	0.012	-0.224
-226.713	800.000	0.058	0.176
-225.698	190.133	-0.037	0.055
-224.684	-4.089	-0.100	-0.069
-223.669	-62.900	0.020	-0.008
-222.655	-200.000	0.002	0.180
-221.640	5.123	0.031	-0.023
-220.625	-200.000	-0.009	-0.081
-219.611	-96.469	0.224	0.059
-218.596	237.078	-0.129	0.212
-217.582	-200.000	0.001	-0.267
-216.567	-24.302	-0.197	-0.117
-215.552	-124.350	-0.071	0.011
-214.538	35.473	0.248	0.216
-213.523	-49.080	0.113	-0.054
-212.509	-157.546	0.259	0.015
-211.494	117.642	0.252	0.308
-210.479	800.000	0.063	-0.202
-209.465	-73.635	0.327	-0.118
-208.450	-200.000	0.020	-0.316
-207.436	284.477	-0.218	-0.390
-206.421	551.356	0.068	-0.163
-205.406	-182.523	-0.241	0.004
-204.392	-133.270	-0.394	-0.049
-203.377	800.000	0.044	-0.158
-202.363	-41.580	-0.064	0.033
-201.348	409.127	0.181	0.381
-200.333	-199.489	0.230	0.001
-199.319	261.658	-0.061	-0.106
-198.304	213.461	-0.109	0.171
-197.290	-200.000	0.005	-0.260
-196.275	-167.774	0.019	0.001
-195.260	38.200	0.025	0.022
-194.246	47.983	0.159	0.148
-193.231	-65.511	0.053	0.021
-192.217	160.288	0.042	-0.059
-191.202	67.519	0.035	-0.035
-190.187	325.944	-0.080	-0.152
-189.173	-200.000	-0.024	0.304
-188.158	-13.574	0.119	-0.076
-187.144	-122.291	0.146	0.024
-186.129	-200.000	-0.048	-0.297
-185.114	4.124	-0.170	0.123
-184.100	76.956	0.319	-0.336
-183.085	-148.434	0.148	-0.012
-182.071	-165.278	-0.041	-0.002
-181.056	-200.000	-0.007	-0.112
-180.042	181.464	0.107	0.156
-179.027	-13.107	0.054	0.035
-178.012	-162.064	0.300	0.015
-176.998	488.702	0.134	-0.305
-175.983	-101.619	-0.535	-0.129
-174.969	79.398	-0.100	-0.107
-173.954	-107.409	0.135	0.029
-172.939	-6.766	-0.485	0.328
-171.925	-200.000	-0.002	-0.118
-170.910	800.000	0.113	0.346
-169.896	218.491	0.047	0.074
-168.881	-160.029	0.446	0.024
-167.866	800.000	-0.108	0.373
-166.852	52.104	0.162	0.153
-165.837	-77.097	-0.087	0.030
-164.823	800.000	0.043	-0.119
-163.808	-82.210	0.128	-0.042
-162.793	331.375	-0.070	-0.135
-161.779	200.069	0.188	-0.286
-160.764	-107.701	0.133	0.029
-159.750	-48.287	-0.188	-0.090
-158.735	58.071	-0.034	-0.033
-157.720	10.917	-0.307	0.233
-156.706	59.441	0.056	0.054
-155.691	-28.107	-0.066	-0.038
-154.677	17.095	-0.108	0.085
-153.662	16.725	0.184	0.144
-152.647	104.079	-0.165	0.192
-151.633	-200.000	0.012	0.117
-150.618	373.344	0.103	0.208
-149.604	-200.000	0.015	-0.161
-148.589	-88.747	-0.232	0.068
-147.574	800.000	0.035	0.136
-146.560	800.000	-0.051	-0.214
-145.545	152.768	-0.107	-0.146
-144.531	-85.935	-0.204	0.063
-143.516	-82.649	-0.506	-0.162
-142.502	-75.026	0.163	-0.058
-141.487	16.851	0.248	0.195
-140.472	259.440	0.243	-0.416
-139.458	359.313	0.116	-0.229
-138.443	-80.636	-0.209	-0.069
-137.429	800.000	0.031	-0.132
-136.414	-56.819	0.616	-0.270
-135.399	559.063	-0.118	0.282
-134.385	12.450	-0.116	0.088
-133.370	-45.930	0.301	-0.147
-132.356	-87.313	0.241	-0.073
-131.341	134.358	-0.125	-0.161
-130.326	7.852	0.082	-0.061
-129.312	800.000	0.031	0.098
-128.297	-41.750	0.300	0.152
-127.283	800.000	-0.089	-0.280
-126.268	95.181	0.258	-0.291
-125.253	-153.887	-0.094	-0.006
-124.239	-38.100	-0.072	-0.038
-123.224	-33.756	0.241	0.132
-122.210	-200.000	-0.008	-0.060
-121.195	-56.630	0.219	-0.096
-120.180	-38.499	0.316	-0.166
-119.166	-200.000	-0.007	0.246
-118.151	-200.000	-0.011	-0.077
-117.137	-188.470	0.036	-0.000
-116.122	-200.000	-0.021	0.295
-115.107	218.209	-0.069	-0.109
-114.093	-9.207	0.315	-0.208
-113.078	-15.044	-0.030	0.019
-112.064	76.724	-0.166	-0.175
-111.049	144.894	-0.158	0.209
-110.034	-82.964	0.133	-0.042
-109.020	-152.606	0.140	-0.010
-108.005	-172.222	-0.096	0.003
-106.991	440.824	-0.099	-0.215
-105.976	39.850	-0.078	0.069
-104.962	-25.779	0.366	-0.213
-103.947	-101.876	-0.153	-0.037
-102.932	161.567	0.145	-0.201
-101.918	800.000	-0.080	0.293
-100.903	800.000	0.096	0.287
-99.889	80.163	-0.064	0.068
-98.874	800.000	0.126	-0.519
-97.859	699.968	-0.091	0.238
-96.845	-33.627	0.112	-0.061
-95.830	-19.777	-0.136	-0.083
-94.816	-200.000	-0.015	0.195
-93.801	-200.000	-0.074	0.347
-92.786	322.186	-0.196	-0.368
-91.772	-128.464	0.269	0.038
-90.757	800.000	-0.130	-0.367
-89.743	-170.492	0.217	-0.007
-88.728	-2.122	-0.209	-0.145
-87.713	-166.727	0.146	-0.006
-86.699	101.969	-0.130	0.150
-85.684	-99.356	-0.195	-0.049
-84.670	-200.000	-0.023	-0.127
-83.655	438.322	0.103	0.223
-82.640	800.000	0.008	0.025
-81.626	-200.000	-0.010	-0.174
-80.611	-200.000	-0.008	-0.133
-79.597	-63.965	-0.224	-0.090
-78.582	84.536	0.249	-0.270
-77.567	422.579	-0.121	-0.257
-76.553	765.994	-0.040	-0.106
-75.538	58.129	0.220	-0.213
-74.524	637.377	-0.082	-0.205
-73.509	259.874	0.284	-0.485
-72.494	-58.480	-0.042	-0.018
-71.480	-200.000	0.149	-0.000
-70.465	-13.290	-0.157	-0.101
-69.451	-195.951	-0.262	-0.002
-68.436	-200.000	0.013	-0.212
-67.422	-200.000	-0.004	-0.134
-66.407	-200.000	0.028	-0.132
-65.392	800.000	0.069	-0.231
-64.378	-3.235	0.124	-0.086
-63.363	193.720	-0.096	0.143
-62.349	584.444	0.097	-0.235
-61.334	387.003	-0.636	-1.299
-60.319	2.135	0.314	0.224
-59.305	-200.000	-0.216	-1.143
-58.290	438.104	0.575	1.239
-57.276	402.817	0.766	1.592
-56.261	-200.000	108.676	589.476
-55.246	435.481	1485.528	3192.120
-54.232	142.773	2679.733	3517.629
-53.217	95.693	2327.282	2623.340
-52.203	35.754	2078.183	1804.268
-51.188	31.238	1994.370	1690.655
-50.173	29.939	1977.175	1664.346
-49.159	45.633	2033.897	1855.727
-48.144	45.926	2050.793	1873.742
-47.130	31.914	2009.031	1708.972
-46.115	29.630	1998.235	1678.994
-45.100	29.470	1996.191	1675.762
-44.086	29.477	1993.382	1673.400
-43.071	29.485	1990.634	1671.095
-42.057	29.355	1988.776	1668.291
-41.042	29.450	1986.758	1667.392
-40.027	29.406	1985.188	1665.613
-39.013	29.468	1982.788	1664.094
-37.998	29.479	1980.552	1662.244
-36.984	29.484	1978.756	1660.722
-35.969	29.427	1977.517	1659.104
-34.954	29.469	1975.849	1658.014
-33.940	29.541	1973.536	1656.652
-32.925	29.562	1972.123	1655.587
-31.911	29.529	1970.942	1654.234
-30.896	29.572	1968.753	1652.721
-29.881	29.615	1966.884	1651.471
-28.867	29.621	1965.718	1650.477
-27.852	29.694	1963.817	1649.466
-26.838	29.702	1961.323	1647.381
-25.823	29.515	1960.965	1645.348
-24.809	29.624	1958.848	1644.474
-23.794	29.620	1957.074	1642.888
-22.779	29.610	1955.182	1641.139
-21.765	29.545	1953.864	1639.393
-20.750	29.619	1951.781	1638.240
-19.736	29.566	1950.459	1636.593
-18.721	29.574	1949.220	1635.562
-17.706	29.597	1946.969	1633.809
-16.692	29.624	1945.144	1632.450
-15.677	29.614	1943.390	1630.828
-14.663	29.595	1941.957	1629.392
-13.648	29.596	1941.086	1628.608
-12.633	29.541	1940.109	1627.233
-11.619	29.594	1938.256	1626.087
-10.604	29.560	1937.130	1624.778
-9.590	29.524	1936.238	1623.647
-8.575	29.574	1934.209	1622.316
-7.560	29.606	1932.925	1621.459
-6.546	29.540	1931.862	1619.922
-5.531	29.554	1930.494	1618.833
-4.517	29.591	1929.221	1618.026
-3.502	29.593	1928.366	1617.266
-2.487	29.531	1927.274	1615.742
-1.473	29.587	1926.150	1615.229
-0.458	29.639	1920.955	1611.258
0.556	27.668	1900.778	1582.979
1.571	23.342	1881.692	1529.680
2.586	19.417	1904.175	1513.455
3.600	18.412	1939.880	1532.715
4.615	18.308	1934.736	1527.582
5.629	14.391	1834.065	1414.777
6.644	5.735	1713.633	1252.826
7.659	0.678	1675.813	1185.461
8.673	0.165	1672.844	1179.241
9.688	0.146	1671.413	1177.977
10.702	0.157	1669.617	1176.691
11.717	0.053	1666.477	1173.562
12.731	0.529	1666.261	1177.020
13.746	6.960	1679.699	1236.842
14.761	15.014	1696.246	1312.306
15.775	17.540	1699.549	1334.567
16.790	16.968	1696.528	1327.605
17.804	15.948	1692.684	1316.511
18.819	14.971	1689.710	1306.450
19.834	14.344	1687.460	1299.709
20.848	14.125	1685.553	1296.417
21.863	13.912	1684.172	1293.578
22.877	13.610	1682.591	1289.903
23.892	13.309	1681.269	1286.434
24.907	13.211	1680.165	1284.707
25.921	13.198	1679.166	1283.732
26.936	13.199	1677.802	1282.585
27.950	13.207	1677.296	1282.147
28.965	13.350	1677.437	1283.252
29.980	13.385	1676.382	1282.598
30.994	13.399	1675.234	1281.715
32.009	13.557	1674.221	1282.049
33.023	13.409	1673.835	1280.499
34.038	13.524	1672.372	1280.153
35.053	13.501	1671.068	1278.863
36.067	13.492	1670.159	1277.988
37.082	13.510	1668.985	1277.111
38.096	13.425	1668.256	1275.786
39.111	13.507	1667.081	1275.405
40.126	13.472	1666.489	1274.570
41.140	13.509	1665.868	1274.272
42.155	13.409	1664.032	1271.980
43.169	13.319	1663.109	1270.475
44.184	13.239	1661.946	1268.855
45.199	13.180	1660.921	1267.511
46.213	13.188	1659.868	1266.654
47.228	13.230	1658.294	1265.662
48.242	13.397	1656.811	1265.702
49.257	13.344	1655.701	1264.334
50.271	13.378	1654.500	1263.567
51.286	13.325	1653.304	1262.133
52.301	13.342	1651.969	1261.136
53.315	13.328	1650.412	1259.725
54.330	13.318	1649.236	1258.643
55.344	13.241	1647.455	1256.582
56.359	13.355	1645.961	1256.200
57.374	13.334	1644.796	1255.038
58.388	13.254	1643.997	1253.716
59.403	13.228	1642.463	1252.237
60.417	13.205	1640.590	1250.523
61.432	13.234	1639.826	1250.051
62.447	13.284	1638.809	1249.544
63.461	13.188	1637.471	1247.686
64.476	13.178	1636.745	1246.945
65.490	13.153	1635.504	1245.705
66.505	13.075	1634.577	1244.297
67.520	13.165	1633.118	1243.753
68.534	13.236	1632.180	1243.464
69.549	13.225	1631.284	1242.590
70.563	13.192	1629.799	1241.104
71.578	13.185	1628.654	1240.068
72.593	13.180	1627.024	1238.678
73.607	13.084	1626.607	1237.529
74.622	13.084	1625.323	1236.444
75.636	13.122	1623.944	1235.574
76.651	13.097	1623.360	1234.833
77.666	13.140	1622.382	1234.298
78.680	13.101	1621.751	1233.418
79.695	13.117	1620.442	1232.432
80.709	13.239	1619.302	1232.363
81.724	13.110	1619.063	1231.113
82.739	13.198	1617.959	1230.819
83.753	13.284	1616.740	1230.422
84.768	13.372	1615.584	1230.089
85.782	13.369	1615.054	1229.553
86.797	13.365	1614.073	1228.669
87.812	13.407	1613.173	1228.187
88.826	13.307	1611.907	1226.372
89.841	13.285	1610.993	1225.405
90.855	13.373	1609.759	1225.009
91.870	13.380	1608.413	1223.932
92.884	13.377	1607.941	1223.440
93.899	13.455	1606.339	1222.694
94.914	13.424	1605.356	1221.605
95.928	13.473	1603.680	1220.583
96.943	13.516	1602.375	1219.796
97.957	13.402	1601.794	1218.409
98.972	13.428	1600.210	1217.284
99.987	13.407	1598.503	1215.724
101.001	13.429	1597.170	1214.770
102.016	13.381	1595.651	1213.151
103.030	13.457	1593.657	1212.086
104.045	13.371	1592.787	1210.690
105.060	13.446	1591.484	1210.139
106.074	13.371	1590.159	1208.472
107.089	13.251	1588.517	1206.249
108.103	13.293	1587.276	1205.503
109.118	13.186	1586.261	1203.843
110.133	13.198	1584.890	1202.788
111.147	13.159	1583.482	1201.330
112.162	13.211	1582.113	1200.559
113.176	13.314	1580.561	1200.020
114.191	13.352	1579.042	1199.039
115.206	13.298	1577.920	1197.691
116.220	13.334	1577.179	1197.281
117.235	13.314	1575.281	1195.592
118.249	13.282	1574.571	1194.715
119.264	13.309	1573.359	1193.887
120.279	13.330	1571.421	1192.461
121.293	13.313	1569.743	1190.960
122.308	13.221	1568.568	1189.301
123.322	13.270	1566.903	1188.282
124.337	13.195	1566.168	1187.080
125.352	13.261	1564.423	1186.130
126.366	13.245	1563.454	1185.173
127.381	13.144	1562.563	1183.673
128.395	13.255	1560.710	1182.953
129.410	13.205	1560.009	1181.962
130.424	13.250	1558.225	1180.828
131.439	13.284	1557.358	1180.308
132.454	13.249	1555.957	1178.892
133.468	13.298	1554.322	1177.899
134.483	13.276	1552.848	1176.524
135.497	13.424	1551.065	1176.118
136.512	13.369	1549.955	1174.781
137.527	13.403	1548.495	1173.815
138.541	13.329	1547.529	1172.453
139.556	13.311	1546.148	1171.178
140.570	13.386	1544.315	1170.212
141.585	13.399	1543.333	1169.457
142.600	13.471	1542.003	1168.853
143.614	13.517	1540.766	1168.141
144.629	13.532	1540.061	1167.606
145.643	13.452	1538.845	1166.017
146.658	13.558	1537.290	1165.482
147.673	13.524	1535.737	1163.960
148.687	13.531	1533.828	1162.461
149.702	13.488	1532.126	1160.771
150.716	13.453	1530.765	1159.391
151.731	13.483	1529.472	1158.517
152.746	13.466	1528.413	1157.497
153.760	13.444	1526.424	1155.732
154.775	13.509	1525.473	1155.361
155.789	13.588	1524.048	1154.732
156.804	13.547	1523.235	1153.728
157.819	13.714	1521.088	1153.158
158.833	13.616	1520.403	1151.860
159.848	13.691	1519.572	1151.648
160.862	13.656	1518.408	1150.418
161.877	13.715	1517.140	1149.767
162.892	13.580	1516.175	1147.998
163.906	13.603	1514.485	1146.780
164.921	13.617	1513.316	1145.884
165.935	13.595	1512.515	1145.029
166.950	13.581	1511.596	1144.131
167.964	13.603	1510.029	1143.000
168.979	13.717	1509.303	1143.131
169.994	13.639	1508.193	1141.653
171.008	13.634	1506.767	1140.437
172.023	13.660	1506.069	1139.993
173.037	13.779	1504.480	1139.504
174.052	13.743	1503.578	1138.471
175.067	13.768	1502.339	1137.601
176.081	13.761	1501.327	1136.687
177.096	13.735	1499.756	1135.221
178.110	13.735	1498.477	1134.151
179.125	13.672	1497.843	1133.144
180.140	13.704	1496.670	1132.371
181.154	13.725	1495.731	1131.708
182.169	13.777	1494.901	1131.332
183.183	13.791	1493.766	1130.470
184.198	13.841	1492.164	1129.496
185.213	13.837	1491.300	1128.713
186.227	13.915	1489.986	1128.147
187.242	13.926	1488.615	1127.088
188.256	13.889	1487.939	1126.223
189.271	13.899	1487.199	1125.631
190.286	14.009	1485.595	1125.066
191.300	14.034	1484.368	1124.208
192.315	13.835	1483.198	1121.872
193.329	13.780	1481.952	1120.461
194.344	13.756	1480.502	1119.104
195.359	13.725	1480.088	1118.481
196.373	13.782	1478.892	1117.867
197.388	13.877	1477.763	1117.552
198.402	13.999	1476.761	1117.512
199.417	13.967	1475.639	1116.349
200.432	13.972	1474.850	1115.687
201.446	14.093	1473.842	1115.638
202.461	14.168	1472.195	1114.797
203.475	14.159	1471.350	1113.998
204.490	14.203	1470.132	1113.275
205.504	14.158	1469.640	1112.497
206.519	14.096	1468.204	1110.902
207.534	14.134	1466.788	1109.984
208.548	14.040	1465.809	1108.518
209.563	14.129	1465.019	1108.417
210.577	14.085	1464.176	1107.386
211.592	14.089	1463.103	1106.502
212.607	14.269	1462.209	1106.925
213.621	14.233	1461.891	1106.348
214.636	14.257	1460.707	1105.515
215.650	14.338	1459.710	1105.202
216.665	14.128	1459.305	1103.403
217.680	14.265	1457.555	1102.891
218.694	14.279	1457.286	1102.682
219.709	14.403	1456.390	1102.728
220.723	14.385	1455.413	1101.768
221.738	14.346	1454.464	1100.695
222.753	14.386	1453.705	1100.289
223.767	14.351	1452.558	1099.094
224.782	14.309	1451.671	1098.047
225.796	14.353	1450.856	1097.623
226.811	14.371	1450.286	1097.211
227.826	14.413	1449.366	1096.694
228.840	14.502	1448.384	1096.441
229.855	14.345	1447.510	1094.649
230.869	14.417	1446.277	1094.094
231.884	14.462	1445.266	1093.526
232.899	14.429	1443.751	1092.067
233.913	14.380	1443.090	1091.151
234.928	14.424	1441.857	1090.412
235.942	14.437	1440.503	1089.374
236.957	14.481	1438.843	1088.313
237.972	14.498	1437.951	1087.651
238.986	14.469	1436.783	1086.483
240.001	14.484	1436.042	1085.926
241.015	14.480	1435.036	1085.040
242.030	14.442	1434.164	1084.037
243.045	14.475	1433.090	1083.342
244.059	14.497	1432.459	1082.913
245.074	14.625	1431.077	1082.603
246.088	14.532	1430.431	1081.418
247.103	14.564	1430.176	1081.337
248.117	14.606	1429.177	1080.758
249.132	14.722	1427.994	1080.519
250.147	14.644	1428.052	1079.958
251.161	14.815	1426.897	1080.099
252.176	14.807	1426.398	1079.575
253.190	14.876	1425.111	1078.947
254.205	14.943	1424.293	1078.665
255.220	14.861	1424.132	1077.919
256.234	14.994	1422.518	1077.457
257.249	15.015	1421.712	1076.885
258.263	14.966	1421.126	1076.034
259.278	15.020	1420.344	1075.694
260.293	14.971	1419.382	1074.553
261.307	15.043	1418.416	1074.193
262.322	15.078	1417.512	1073.633
263.336	15.087	1416.739	1073.011
264.351	15.107	1416.178	1072.621
265.366	15.192	1414.925	1072.123
266.380	15.180	1413.925	1071.193
267.395	15.106	1413.342	1070.180
268.409	15.182	1412.324	1069.804
269.424	15.196	1410.835	1068.667
270.439	15.086	1410.039	1067.273
271.453	15.222	1408.698	1067.029
272.468	15.219	1408.115	1066.473
273.482	15.181	1407.695	1065.816
274.497	15.163	1407.146	1065.190
275.512	15.085	1406.141	1063.839
276.526	15.068	1405.275	1062.985
277.541	15.152	1404.048	1062.497
278.555	15.169	1403.045	1061.749
279.570	15.135	1402.691	1061.173
280.585	15.189	1401.569	1060.575
281.599	15.355	1400.561	1060.767
282.614	15.410	1399.741	1060.395
283.628	15.283	1398.563	1058.610
284.643	15.342	1397.197	1057.853
285.657	15.251	1396.386	1056.574
286.672	15.280	1395.629	1056.088
287.687	15.310	1394.462	1055.299
288.701	15.394	1393.222	1054.800
289.716	15.435	1393.116	1054.881
290.730	15.413	1392.392	1054.100
291.745	15.427	1391.223	1053.215
292.760	15.355	1390.171	1051.872
293.774	15.418	1389.049	1051.323
294.789	15.458	1388.077	1050.745
295.803	15.512	1386.950	1050.139
296.818	15.602	1386.033	1049.909
297.833	15.553	1385.535	1049.138
298.847	15.494	1384.532	1047.915
299.862	15.525	1383.605	1047.317
300.876	15.488	1382.733	1046.331
301.891	15.581	1381.409	1045.814
302.906	15.549	1380.690	1044.981
303.920	15.611	1380.337	1045.008
304.935	15.703	1379.080	1044.535
305.949	15.663	1378.651	1043.866
306.964	15.666	1377.688	1043.068
307.979	15.800	1376.787	1043.120
308.993	15.756	1375.793	1042.002
310.008	15.721	1375.018	1041.109
311.022	15.762	1374.052	1040.538
312.037	15.685	1373.088	1039.237
313.052	15.836	1371.802	1039.107
314.066	15.757	1370.971	1037.896
315.081	15.708	1369.999	1036.766
316.095	15.644	1368.848	1035.408
317.110	15.670	1367.898	1034.759
318.125	15.726	1366.875	1034.242
319.139	15.845	1365.360	1033.732
320.154	15.843	1364.741	1033.158
321.168	15.766	1363.970	1032.016
322.183	15.799	1362.923	1031.333
323.197	15.749	1362.243	1030.417
324.212	15.814	1361.325	1030.034
325.227	15.827	1360.639	1029.499
326.241	15.826	1359.659	1028.661
327.256	15.873	1358.661	1028.105
328.270	15.863	1357.806	1027.305
329.285	15.927	1357.458	1027.338
330.300	15.809	1356.079	1025.486
331.314	15.828	1355.471	1025.055
332.329	15.918	1354.215	1024.562
333.343	15.936	1353.594	1024.109
334.358	15.926	1352.850	1023.394
335.373	15.961	1351.738	1022.672
336.387	15.988	1350.825	1022.057
337.402	16.000	1350.395	1021.712
338.416	16.102	1349.360	1021.458
339.431	16.098	1348.739	1020.877
340.446	16.081	1348.064	1020.171
341.460	16.114	1347.178	1019.607
342.475	16.206	1346.048	1019.221
343.489	16.313	1345.198	1019.130
344.504	16.185	1344.822	1017.986
345.519	16.237	1343.795	1017.433
346.533	16.292	1342.331	1016.566
347.548	16.318	1341.367	1015.901
348.562	16.275	1341.217	1015.436
349.577	16.376	1340.341	1015.291
350.592	16.391	1339.391	1014.571
351.606	16.292	1338.474	1013.194
352.621	16.323	1337.117	1012.265
353.635	16.237	1336.117	1010.901
354.650	16.337	1335.239	1010.742
355.665	16.297	1334.419	1009.798
356.679	16.326	1333.241	1008.988
357.694	16.316	1332.546	1008.314
358.708	16.299	1331.238	1007.134
359.723	16.466	1329.902	1007.029
360.738	16.366	1329.091	1005.728
361.752	16.372	1328.211	1005.009
362.767	16.425	1326.859	1004.214
363.781	16.436	1326.053	1003.578
364.796	16.468	1325.722	1003.428
365.810	16.480	1325.101	1002.944
366.825	16.388	1324.490	1001.844
367.840	16.608	1323.391	1002.227
368.854	16.559	1322.849	1001.441
369.869	16.655	1321.839	1001.156
370.883	16.560	1321.624	1000.339
371.898	16.667	1320.336	999.911
372.913	16.711	1319.557	999.494
373.927	16.699	1318.656	998.651
374.942	16.623	1318.199	997.767
375.956	16.659	1317.541	997.392
376.971	16.697	1316.451	996.703
377.986	16.680	1315.658	995.914
379.000	16.755	1314.932	995.721
380.015	16.775	1313.835	994.915
381.029	16.797	1313.045	994.359
382.044	16.833	1312.554	994.109
383.059	16.885	1311.667	993.654
384.073	16.779	1311.093	992.514
385.088	16.773	1310.629	992.036
386.102	16.857	1309.980	991.952
387.117	16.936	1309.085	991.649
388.132	16.886	1308.105	990.524
389.146	16.798	1307.234	989.267
390.161	16.794	1306.525	988.618
391.175	16.817	1305.887	988.181
392.190	16.870	1305.033	987.756
393.205	16.955	1303.924	987.324
394.219	16.982	1303.025	986.714
395.234	17.010	1301.584	985.695
396.248	16.910	1300.600	984.284
397.263	16.917	1299.306	983.256
398.278	16.930	1297.912	982.192
399.292	16.990	1296.757	981.579
400.307	16.859	1296.078	980.221
401.321	16.838	1295.144	979.307
402.336	16.982	1294.204	979.337
403.350	16.951	1292.888	978.079
404.365	16.932	1292.058	977.255
405.380	17.077	1290.862	977.096
406.394	16.912	1290.391	975.707
407.409	17.037	1289.590	975.734
408.423	16.935	1289.288	974.832
409.438	17.093	1288.345	974.941
410.453	17.135	1287.648	974.567
411.467	17.262	1286.492	974.334
412.482	17.196	1286.336	973.751
413.496	17.282	1285.691	973.670
414.511	17.243	1284.997	972.834
415.526	17.303	1284.458	972.680
416.540	17.330	1283.744	972.213
417.555	17.445	1282.866	972.119
418.569	17.246	1282.617	970.705
419.584	17.356	1281.931	970.727
420.599	17.433	1280.922	970.317
421.613	95.106	1353.536	1469.767
422.628	93.037	1364.095	1469.864
