DTS Sentinel unit serial number:	SN413079Multiplexer serial number:	ORYXHardware model number:	OX4-SRSoftware version number:	ORYX F/W v4.00 Oryx Data Collector v3.7.2.0data status	okinstallation	princeton_trtdifferential loss correction	single-endedforward channel	channel 4reverse channel	N/Adate	2019/09/13time	01:29:34forward acquisition time	60.00reverse acquisition time	0.00gamma	496.2192k internal	0.2318k external	0.2318temperature offset calibration	1.0169default loss term (dB/km)	0.3790temperature slope calibration	1.0000multiplexer offset coefficient	1.0000multiplexer slope coefficient	1.0000fibre end	0.00T internal ref (°C)	27.81T ext. ref 1 (°C)	3.72T ext. ref 2 (°C)	22.48length (m)	temperature (°C)	Stokes	anti-Stokes-747.200	-200.000	0.068	0.390
-746.185	198.440	0.161	0.249
-745.171	800.000	-0.038	-0.111
-744.156	55.201	0.164	-0.161
-743.142	-200.000	-0.048	-0.369
-742.127	800.000	-0.028	0.117
-741.112	-200.000	0.027	0.138
-740.098	-103.287	-0.562	0.134
-739.083	-40.339	-0.114	-0.060
-738.069	-2.283	-0.238	-0.169
-737.054	-168.640	-0.228	-0.009
-736.039	-89.432	-0.273	0.081
-735.025	800.000	0.070	-0.277
-734.010	59.820	-0.199	0.199
-732.996	-171.730	-0.143	-0.005
-731.981	-129.550	-0.232	0.032
-730.966	334.630	-0.089	-0.174
-729.952	66.033	0.278	-0.285
-728.937	115.275	-0.192	0.237
-727.923	535.869	-0.067	-0.161
-726.908	-93.483	-0.272	0.076
-725.894	-23.895	0.325	0.196
-724.879	-44.450	0.096	-0.049
-723.864	-123.670	-0.204	-0.033
-722.850	-100.781	-0.070	-0.017
-721.835	-200.000	0.036	-0.166
-720.821	118.008	0.069	-0.086
-719.806	-8.292	-0.320	-0.217
-718.791	148.408	-0.065	0.089
-717.777	95.130	-0.147	0.169
-716.762	-200.000	0.005	0.185
-715.748	-200.000	-0.036	0.194
-714.733	104.217	-0.242	-0.287
-713.718	-200.000	-0.047	-0.350
-712.704	280.287	0.065	-0.118
-711.689	-80.503	-0.282	-0.095
-710.675	14.838	-0.060	0.047
-709.660	-28.586	-0.155	0.090
-708.645	727.759	-0.079	0.213
-707.631	800.000	-0.050	-0.173
-706.616	-200.000	-0.069	-0.425
-705.602	-24.834	0.099	-0.059
-704.587	-108.670	0.298	-0.064
-703.572	64.633	0.072	0.073
-702.558	-200.000	-0.013	-0.128
-701.543	61.221	0.079	-0.079
-700.529	-65.359	-0.136	-0.055
-699.514	71.290	0.173	0.182
-698.499	185.856	0.183	-0.275
-697.485	-200.000	0.029	-0.176
-696.470	-113.716	-0.142	0.028
-695.456	82.435	0.276	-0.302
-694.441	800.000	0.052	-0.155
-693.426	-16.511	0.288	0.184
-692.412	-4.686	0.083	-0.058
-691.397	97.734	0.047	0.055
-690.383	-200.000	0.028	-0.197
-689.368	-103.442	0.301	0.072
-688.354	56.829	0.180	0.177
-687.339	-118.340	-0.195	0.035
-686.324	-200.000	0.035	0.305
-685.310	800.000	0.044	0.192
-684.295	-98.627	-0.172	0.044
-683.281	273.222	0.041	-0.073
-682.266	82.575	0.231	0.253
-681.251	236.545	0.082	-0.137
-680.237	-200.000	-0.057	0.258
-679.222	360.813	0.113	0.228
-678.208	800.000	-0.039	-0.155
-677.193	-105.551	-0.176	0.040
-676.178	169.607	-0.221	-0.318
-675.164	-132.504	-0.068	-0.009
-674.149	116.773	0.073	0.091
-673.135	338.955	0.114	0.224
-672.120	-18.217	-0.291	-0.184
-671.105	113.661	0.196	0.240
-670.091	800.000	0.050	0.148
-669.076	32.855	0.129	0.112
-668.062	49.978	-0.178	-0.169
-667.047	623.528	-0.144	-0.367
-666.032	-44.283	-0.174	0.088
-665.018	10.121	0.022	-0.017
-664.003	-200.000	0.008	-0.289
-662.989	115.151	0.052	0.064
-661.974	-107.740	-0.030	-0.007
-660.959	-29.548	-0.076	-0.044
-659.945	28.228	-0.058	0.049
-658.930	242.302	0.059	-0.099
-657.916	111.989	0.139	-0.169
-656.901	51.414	-0.057	-0.054
-655.886	-173.167	-0.312	0.010
-654.872	461.034	-0.237	-0.533
-653.857	-21.076	0.175	-0.108
-652.843	-7.321	0.189	-0.129
-651.828	-200.000	0.028	0.239
-650.814	-18.255	-0.119	-0.075
-649.799	26.959	-0.250	-0.212
-648.784	-200.000	0.025	0.258
-647.770	-200.000	0.012	0.166
-646.755	-200.000	0.017	-0.176
-645.741	800.000	0.012	-0.046
-644.726	-2.709	0.081	0.057
-643.711	-200.000	-0.022	0.101
-642.697	-3.598	0.089	-0.062
-641.682	35.799	-0.125	-0.111
-640.668	-86.480	-0.039	0.012
-639.653	59.608	0.224	0.223
-638.638	800.000	-0.057	-0.166
-637.624	-200.000	-0.020	0.152
-636.609	800.000	-0.008	-0.023
-635.595	-200.000	-0.006	0.082
-634.580	65.225	-0.190	-0.193
-633.565	-200.000	0.007	-0.168
-632.551	-200.000	0.004	-0.168
-631.536	232.564	-0.125	-0.207
-630.522	-171.372	-0.103	-0.003
-629.507	67.268	0.188	0.193
-628.492	80.947	0.240	-0.261
-627.478	-19.800	0.057	0.036
-626.463	800.000	-0.113	0.450
-625.449	-64.082	0.415	0.171
-624.434	158.057	-0.100	0.139
-623.419	-6.729	0.050	-0.034
-622.405	193.080	-0.136	0.207
-621.390	526.521	-0.159	0.378
-620.376	-22.874	-0.186	0.113
-619.361	252.309	-0.093	-0.159
-618.346	123.806	0.061	-0.077
-617.332	-69.891	-0.155	0.060
-616.317	-200.000	0.011	0.062
-615.303	-31.718	-0.281	-0.159
-614.288	-92.714	0.154	-0.043
-613.273	51.970	-0.075	-0.072
-612.259	-163.585	-0.085	-0.004
-611.244	-200.000	0.030	0.256
-610.230	-80.980	0.107	0.036
-609.215	-138.252	-0.399	0.044
-608.201	372.854	-0.089	-0.181
-607.186	285.124	0.044	-0.080
-606.171	110.346	-0.126	0.153
-605.157	-200.000	0.028	0.164
-604.142	-200.000	-0.080	-0.456
-603.128	-146.101	-0.097	0.009
-602.113	-2.561	0.105	0.074
-601.098	800.000	-0.063	-0.264
-600.084	-154.732	-0.048	-0.003
-599.069	-168.562	0.340	0.013
-598.055	-137.642	0.171	0.019
-597.040	77.180	0.055	-0.059
-596.025	-146.245	0.184	-0.016
-595.011	-25.467	-0.111	-0.066
-593.996	-200.000	0.029	-0.289
-592.982	495.238	-0.153	-0.353
-591.967	73.855	-0.109	0.115
-590.952	-200.000	-0.044	-0.241
-589.938	-14.952	-0.175	-0.113
-588.923	-144.405	-0.221	0.021
-587.909	-200.000	0.001	-0.136
-586.894	244.818	-0.150	0.254
-585.879	225.472	0.204	-0.333
-584.865	-9.598	-0.083	0.056
-583.850	-77.809	-0.212	0.074
-582.836	114.665	-0.149	-0.183
-581.821	800.000	-0.032	0.094
-580.806	-126.278	-0.105	0.016
-579.792	-186.268	-0.685	-0.010
-578.777	-200.000	0.017	-0.079
-577.763	-51.137	-0.132	0.062
-576.748	-200.000	0.045	-0.226
-575.733	-112.487	-0.187	-0.038
-574.719	-84.985	-0.302	-0.095
-573.704	-76.652	0.189	0.067
-572.690	252.614	-0.046	0.079
-571.675	-200.000	-0.042	0.000
-570.661	351.321	-0.052	-0.103
-569.646	250.842	-0.053	-0.091
-568.631	-55.268	-0.110	-0.050
-567.617	-10.311	-0.138	0.092
-566.602	194.131	0.143	0.218
-565.588	-44.156	-0.326	0.164
-564.573	157.299	0.276	-0.383
-563.558	14.377	0.093	0.073
-562.544	-200.000	0.045	0.230
-561.529	-92.559	0.074	0.021
-560.515	72.969	0.164	0.172
-559.500	-124.316	-0.201	-0.031
-558.485	193.181	-0.259	0.393
-557.471	-55.594	0.253	0.114
-556.456	27.220	0.266	-0.224
-555.442	-17.963	0.240	-0.151
-554.427	-143.929	0.063	0.006
-553.412	-171.254	-0.116	-0.004
-552.398	-13.595	-0.149	-0.097
-551.383	-200.000	0.006	-0.112
-550.369	107.183	-0.130	0.155
-549.354	-53.462	0.075	-0.034
-548.339	68.333	-0.422	0.434
-547.325	-200.000	-0.046	0.211
-546.310	-200.000	0.003	-0.087
-545.296	-200.000	-0.020	0.145
-544.281	-25.096	0.081	0.048
-543.266	800.000	-0.114	-0.411
-542.252	104.047	0.243	-0.287
-541.237	-195.000	0.046	-0.000
-540.223	800.000	-0.007	0.023
-539.208	409.693	0.016	0.034
-538.193	-45.308	0.130	0.065
-537.179	-200.000	0.013	0.148
-536.164	703.416	-0.111	-0.294
-535.150	-74.106	0.417	-0.152
-534.135	-181.581	0.046	0.001
-533.121	-150.567	0.240	-0.018
-532.106	206.222	-0.132	-0.207
-531.091	122.557	0.031	0.039
-530.077	15.662	0.192	-0.152
-529.062	326.887	-0.045	-0.087
-528.048	-200.000	-0.004	-0.405
-527.033	213.423	0.162	-0.257
-526.018	3.521	-0.162	0.119
-525.004	-90.734	0.066	-0.019
-523.989	-200.000	-0.006	-0.054
-522.975	-112.629	-0.181	-0.036
-521.960	-12.488	-0.139	-0.091
-520.945	-200.000	0.009	-0.292
-519.931	800.000	0.012	-0.039
-518.916	-200.000	0.015	-0.076
-517.902	11.130	-0.237	0.182
-516.887	-57.329	-0.294	0.130
-515.872	656.912	-0.092	0.236
-514.858	-90.276	0.145	-0.042
-513.843	-63.453	0.347	-0.143
-512.829	-139.011	-0.397	-0.043
-511.814	361.184	0.213	0.428
-510.799	15.682	-0.053	0.042
-509.785	-27.434	0.345	-0.201
-508.770	800.000	-0.133	-0.381
-507.756	800.000	-0.052	-0.162
-506.741	308.992	-0.045	0.084
-505.726	118.990	-0.197	0.244
-504.712	-200.000	-0.008	0.078
-503.697	-200.000	-0.001	-0.179
-502.683	-200.000	-0.032	0.208
-501.668	81.344	-0.112	0.122
-500.653	393.528	0.050	-0.105
-499.639	-114.726	0.070	0.013
-498.624	24.172	0.141	-0.117
-497.610	-72.432	0.280	0.104
-496.595	37.245	0.288	-0.256
-495.581	-173.150	0.149	-0.005
-494.566	273.005	-0.089	0.158
-493.551	-49.063	0.095	-0.046
-492.537	-46.762	0.300	-0.147
-491.522	400.927	0.051	-0.108
-490.508	7.343	0.093	-0.070
-489.493	-158.659	0.129	-0.007
-488.478	748.267	-0.067	-0.182
-487.464	-85.011	0.205	0.064
-486.449	373.155	0.107	0.218
-485.435	16.514	0.150	0.119
-484.420	-200.000	0.030	0.222
-483.405	-65.508	-0.086	0.034
-482.391	-200.000	0.012	0.339
-481.376	189.019	0.131	0.196
-480.362	-181.705	-0.157	-0.003
-479.347	341.754	-0.193	-0.378
-478.332	-22.378	0.232	-0.141
-477.318	113.225	-0.197	-0.239
-476.303	126.356	0.265	-0.336
-475.289	-200.000	0.044	-0.417
-474.274	197.237	-0.137	-0.209
-473.259	-84.756	0.108	-0.034
-472.245	-194.938	0.300	0.002
-471.230	598.273	0.061	0.152
-470.216	79.994	0.101	-0.109
-469.201	800.000	-0.080	-0.338
-468.186	-200.000	0.003	-0.043
-467.172	-35.747	-0.263	0.142
-466.157	138.658	-0.116	0.152
-465.143	-45.663	-0.150	-0.074
-464.128	-80.283	-0.098	-0.033
-463.113	26.216	-0.107	0.090
-462.099	800.000	-0.116	0.443
-461.084	197.379	-0.099	0.151
-460.070	-200.000	0.034	0.181
-459.055	148.225	0.249	0.336
-458.040	-8.018	-0.320	0.216
-457.026	-85.499	-0.380	0.118
-456.011	305.676	-0.049	-0.092
-454.997	-200.000	0.027	0.143
-453.982	284.161	-0.095	0.171
-452.968	183.304	-0.076	0.112
-451.953	-69.938	-0.302	0.115
-450.938	518.190	0.037	0.086
-449.924	579.903	0.032	-0.079
-448.909	-200.000	-0.032	0.220
-447.895	346.656	0.048	0.095
-446.880	800.000	0.088	-0.273
-445.865	-106.680	0.482	0.107
-444.851	53.471	-0.174	-0.167
-443.836	-118.156	0.153	0.027
-442.822	99.838	-0.140	0.163
-441.807	-58.648	-0.198	0.086
-440.792	-82.388	0.155	0.050
-439.778	26.251	0.066	0.056
-438.763	-169.815	-0.115	0.004
-437.749	473.836	-0.080	0.179
-436.734	800.000	0.104	0.307
-435.719	113.065	-0.113	0.136
-434.705	-200.000	-0.011	-0.273
-433.690	-139.013	0.150	-0.016
-432.676	279.640	-0.025	0.044
-431.661	317.303	-0.204	-0.386
-430.646	-200.000	0.077	0.513
-429.632	516.528	-0.021	0.050
-428.617	405.944	0.141	-0.297
-427.603	-8.291	0.258	0.174
-426.588	-73.154	0.299	-0.110
-425.573	-66.181	0.317	-0.126
-424.559	-67.507	0.197	-0.077
-423.544	-65.884	0.068	-0.027
-422.530	-3.479	0.236	0.164
-421.515	-200.000	-0.018	-0.276
-420.500	-102.979	0.043	0.010
-419.486	-200.000	-0.009	0.301
-418.471	-108.537	0.452	0.097
-417.457	706.977	-0.135	0.357
-416.442	-142.250	-0.096	0.009
-415.428	800.000	0.043	0.180
-414.413	-200.000	-0.001	0.094
-413.398	18.214	0.102	-0.082
-412.384	-51.510	0.084	0.039
-411.369	3.070	0.097	0.071
-410.355	-184.731	0.130	-0.002
-409.340	0.311	-0.293	0.209
-408.325	-135.246	0.177	0.021
-407.311	-85.421	0.405	-0.126
-406.296	47.194	-0.166	0.154
-405.282	-67.547	-0.096	-0.037
-404.267	507.320	0.045	-0.105
-403.252	800.000	0.048	0.146
-402.238	-42.360	-0.296	-0.151
-401.223	-19.030	-0.284	-0.176
-400.209	-150.137	-0.254	-0.020
-399.194	-24.662	-0.136	0.081
-398.179	96.919	-0.148	0.169
-397.165	800.000	-0.101	0.310
-396.150	53.855	0.087	0.084
-395.136	-152.151	-0.173	-0.013
-394.121	800.000	-0.078	-0.267
-393.106	-200.000	0.030	0.446
-392.092	334.729	0.154	0.297
-391.077	-63.885	0.125	0.051
-390.063	-200.000	0.000	-0.102
-389.048	-82.128	0.154	-0.050
-388.033	168.116	-0.128	-0.181
-387.019	-104.373	0.149	-0.034
-386.004	800.000	0.086	-0.339
-384.990	800.000	-0.049	-0.204
-383.975	-49.833	0.145	0.069
-382.960	-2.623	-0.211	-0.148
-381.946	94.131	-0.166	-0.188
-380.931	800.000	0.139	0.499
-379.917	36.431	0.355	0.312
-378.902	800.000	0.099	0.387
-377.888	-47.528	-0.182	0.088
-376.873	-147.782	-0.241	0.020
-375.858	433.114	0.173	-0.374
-374.844	-130.518	0.077	0.010
-373.829	9.088	-0.246	-0.185
-372.815	-91.261	-0.257	-0.073
-371.800	94.501	0.101	-0.115
-370.785	-200.000	0.008	-0.067
-369.771	800.000	-0.019	-0.062
-368.756	-200.000	0.005	-0.271
-367.742	800.000	-0.030	0.107
-366.727	-103.679	-0.094	0.022
-365.712	-154.733	-0.215	0.014
-364.698	-43.396	-0.108	0.055
-363.683	75.614	-0.278	-0.292
-362.669	-51.677	-0.200	0.093
-361.654	-112.609	0.208	0.041
-360.639	-172.168	0.280	0.009
-359.625	296.821	0.031	-0.058
-358.610	-40.030	-0.055	0.029
-357.596	109.981	-0.045	-0.054
-356.581	92.625	0.069	-0.077
-355.566	-23.141	0.268	-0.161
-354.552	-91.521	0.158	-0.045
-353.537	-110.028	0.144	0.030
-352.523	-60.974	0.130	-0.055
-351.508	-125.858	0.337	-0.051
-350.493	-118.377	-0.319	-0.056
-349.479	325.141	-0.107	0.204
-348.464	800.000	0.039	0.150
-347.450	-198.527	-0.368	0.002
-346.435	-130.331	0.046	-0.006
-345.420	-200.000	-0.051	0.273
-344.406	800.000	0.017	0.048
-343.391	800.000	-0.060	-0.164
-342.377	58.369	-0.213	-0.208
-341.362	-200.000	0.034	-0.210
-340.348	800.000	-0.027	0.110
-339.333	-34.926	-0.089	-0.048
-338.318	12.014	-0.166	-0.127
-337.304	-140.144	0.407	-0.043
-336.289	-153.544	-0.245	0.017
-335.275	800.000	0.112	-0.350
-334.260	-137.567	0.237	0.027
-333.245	-63.392	-0.149	0.061
-332.231	-200.000	0.013	0.184
-331.216	63.398	0.242	-0.242
-330.202	-23.118	-0.100	0.060
-329.187	-199.939	-0.180	0.001
-328.172	-15.210	0.181	0.115
-327.158	-20.892	0.113	-0.069
-326.143	-7.849	-0.159	-0.107
-325.129	-200.000	0.023	0.125
-324.114	-200.000	-0.013	-0.254
-323.099	34.397	-0.281	0.244
-322.085	800.000	-0.079	0.277
-321.070	197.914	-0.246	-0.374
-320.056	-96.925	0.353	-0.092
-319.041	215.085	-0.160	0.252
-318.026	-200.000	-0.054	-0.355
-317.012	17.111	-0.192	0.151
-315.997	-122.085	-0.378	0.062
-314.983	538.641	0.115	0.272
-313.968	-160.251	0.271	-0.015
-312.953	-32.396	-0.014	-0.008
-311.939	-200.000	0.060	0.341
-310.924	29.480	0.043	-0.037
-309.910	34.402	-0.241	0.209
-308.895	-200.000	-0.010	0.252
-307.880	-200.000	0.019	0.133
-306.866	-95.341	-0.094	0.025
-305.851	-146.086	0.384	0.034
-304.837	77.455	-0.074	0.078
-303.822	-61.870	-0.254	-0.106
-302.807	-200.000	-0.039	0.191
-301.793	-34.560	0.048	0.026
-300.778	377.583	0.094	-0.190
-299.764	-200.000	-0.049	0.330
-298.749	-41.009	-0.310	-0.159
-297.735	483.597	-0.016	0.035
-296.720	405.870	-0.061	0.128
-295.705	800.000	0.071	0.287
-294.691	-111.563	0.376	0.076
-293.676	167.228	0.102	-0.144
-292.662	-174.662	-0.352	0.010
-291.647	800.000	-0.092	-0.272
-290.632	309.027	-0.178	-0.331
-289.618	242.454	0.343	-0.570
-288.603	124.444	0.166	0.208
-287.589	-200.000	0.008	0.082
-286.574	279.978	-0.063	-0.112
-285.559	-200.000	0.057	0.270
-284.545	-200.000	0.005	0.066
-283.530	2.314	-0.160	-0.115
-282.516	680.680	0.090	0.233
-281.501	800.000	-0.040	-0.162
-280.486	43.288	-0.274	-0.249
-279.472	3.355	0.377	0.273
-278.457	606.211	-0.116	0.287
-277.443	-107.634	-0.263	0.057
-276.428	-200.000	0.005	0.050
-275.413	-200.000	0.015	0.114
-274.399	2.581	0.193	0.139
-273.384	800.000	-0.100	-0.300
-272.370	152.970	-0.106	0.144
-271.355	91.731	-0.091	-0.102
-270.340	800.000	-0.092	0.312
-269.326	55.932	0.224	-0.215
-268.311	-124.478	0.207	-0.032
-267.297	166.333	0.271	-0.381
-266.282	-200.000	-0.001	-0.030
-265.267	217.282	0.097	0.154
-264.253	-68.894	0.193	-0.074
-263.238	-143.414	-0.081	0.008
-262.224	2.544	0.263	-0.189
-261.209	-114.182	0.249	0.048
-260.195	130.897	0.179	-0.228
-259.180	74.912	0.036	0.038
-258.165	-47.213	-0.343	-0.166
-257.151	53.384	-0.104	0.099
-256.136	15.982	-0.074	0.058
-255.122	72.552	-0.050	-0.052
-254.107	-14.389	0.241	0.154
-253.092	533.562	0.071	-0.167
-252.078	-129.168	-0.107	0.015
-251.063	800.000	0.036	-0.137
-250.049	800.000	0.076	-0.279
-249.034	-30.173	-0.141	-0.080
-248.019	42.642	0.349	0.315
-247.005	98.779	0.135	0.154
-245.990	-134.339	0.258	0.031
-244.976	-83.770	0.143	0.045
-243.961	-200.000	0.022	0.133
-242.946	-29.719	-0.309	-0.175
-241.932	38.885	0.145	-0.129
-240.917	-200.000	-0.089	0.558
-239.903	800.000	0.048	-0.160
-238.888	-43.537	-0.069	0.034
-237.873	800.000	0.023	-0.081
-236.859	83.717	0.119	-0.129
-235.844	565.274	0.042	-0.101
-234.830	313.729	-0.152	0.284
-233.815	800.000	-0.016	0.062
-232.800	38.504	0.199	-0.176
-231.786	-29.790	0.261	0.147
-230.771	20.781	-0.154	0.123
-229.757	-200.000	0.046	0.292
-228.742	-77.740	0.065	-0.022
-227.727	146.869	-0.208	0.277
-226.713	116.896	0.115	0.140
-225.698	-200.000	0.000	0.162
-224.684	-200.000	-0.058	-0.424
-223.669	-70.283	-0.143	0.054
-222.655	-57.307	-0.112	-0.049
-221.640	800.000	0.022	0.076
-220.625	22.161	0.344	0.278
-219.611	306.814	0.135	0.250
-218.596	-189.566	0.289	-0.003
-217.582	-200.000	0.036	-0.201
-216.567	-200.000	-0.042	0.337
-215.552	-200.000	-0.038	0.434
-214.538	800.000	-0.038	0.139
-213.523	-105.853	-0.382	0.086
-212.509	622.349	0.147	-0.366
-211.494	-187.090	0.250	-0.003
-210.479	-139.608	-0.221	0.023
-209.465	-167.202	-0.269	-0.011
-208.450	147.276	-0.239	-0.319
-207.436	-99.481	0.232	-0.058
-206.421	800.000	0.032	-0.112
-205.406	442.661	-0.027	0.059
-204.392	12.243	-0.114	0.087
-203.377	-200.000	-0.008	-0.103
-202.363	-62.910	-0.134	-0.055
-201.348	647.377	0.131	-0.331
-200.333	30.197	-0.029	0.024
-199.319	-200.000	-0.023	0.183
-198.304	337.150	0.064	-0.124
-197.290	205.733	0.114	-0.176
-196.275	222.221	0.057	-0.091
-195.260	800.000	-0.059	0.182
-194.246	-179.365	0.267	-0.006
-193.231	-50.327	-0.143	0.067
-192.217	-131.739	0.269	0.035
-191.202	-17.575	0.195	-0.122
-190.187	731.032	-0.148	-0.391
-189.173	413.416	-0.105	0.222
-188.158	-32.163	-0.148	0.082
-187.144	800.000	0.108	-0.311
-186.129	-36.338	0.094	0.050
-185.114	-89.395	-0.147	0.043
-184.100	-92.736	0.169	-0.047
-183.085	800.000	0.029	0.095
-182.071	-28.149	-0.315	-0.180
-181.056	-67.148	0.208	0.081
-180.042	138.142	-0.242	0.315
-179.027	75.467	0.149	-0.155
-178.012	-115.947	0.205	0.038
-176.998	94.828	0.050	-0.057
-175.983	-31.689	0.117	0.065
-174.969	-141.328	-0.152	0.015
-173.954	-16.956	0.179	0.112
-172.939	800.000	-0.017	0.070
-171.925	244.228	-0.075	0.124
-170.910	-200.000	0.045	-0.198
-169.896	7.131	0.327	-0.242
-168.881	-119.463	0.239	-0.041
-167.866	-26.905	-0.093	0.054
-166.852	-200.000	0.002	-0.185
-165.837	-117.881	0.039	-0.007
-164.823	79.669	0.169	0.180
-163.808	39.050	-0.148	-0.131
-162.793	7.115	-0.304	-0.224
-161.779	-151.308	0.200	-0.015
-160.764	-97.894	0.151	0.039
-159.750	-179.761	-0.192	0.004
-158.735	-52.933	-0.250	-0.114
-157.720	800.000	-0.168	-0.537
-156.706	800.000	0.098	-0.301
-155.691	800.000	-0.130	0.372
-154.677	25.765	-0.139	0.115
-153.662	15.298	0.171	-0.133
-152.647	-135.437	-0.227	-0.027
-151.633	-200.000	0.012	-0.078
-150.618	128.497	-0.162	-0.204
-149.604	622.379	-0.022	0.056
-148.589	-200.000	-0.053	0.328
-147.574	-200.000	0.014	0.143
-146.560	-200.000	0.002	0.008
-145.545	-15.935	-0.073	0.046
-144.531	-64.955	-0.031	0.012
-143.516	-138.189	0.358	0.039
-142.502	-102.166	0.228	-0.054
-141.487	-19.266	-0.172	-0.106
-140.472	-200.000	0.003	-0.077
-139.458	-104.759	0.172	-0.039
-138.443	-120.996	0.113	0.019
-137.429	800.000	0.077	-0.249
-136.414	-66.352	0.161	0.063
-135.399	47.015	-0.135	0.124
-134.385	-158.597	-0.169	-0.010
-133.370	-19.385	0.159	0.097
-132.356	60.724	0.201	0.197
-131.341	-200.000	0.001	0.161
-130.326	-109.485	-0.266	0.055
-129.312	800.000	-0.022	-0.092
-128.297	-200.000	0.020	0.129
-127.283	80.716	-0.087	0.093
-126.268	-82.903	-0.292	-0.093
-125.253	6.119	0.044	0.032
-124.239	185.032	0.054	0.079
-123.224	-160.759	0.208	-0.011
-122.210	-200.000	-0.005	0.076
-121.195	800.000	-0.103	-0.308
-120.180	237.361	-0.072	0.117
-119.166	274.279	0.084	0.147
-118.151	-89.626	-0.216	-0.063
-117.137	-169.344	0.508	-0.018
-116.122	-159.152	0.232	-0.013
-115.107	800.000	0.105	-0.328
-114.093	-128.519	-0.110	-0.015
-113.078	-200.000	-0.032	0.246
-112.064	-8.875	0.138	0.091
-111.049	-109.926	0.343	0.071
-110.034	-6.256	0.233	0.157
-109.020	-200.000	0.011	0.265
-108.005	227.391	0.072	-0.115
-106.991	-11.178	0.093	0.060
-105.976	-148.292	-0.177	0.014
-104.962	-64.981	0.139	0.055
-103.947	124.028	-0.115	0.143
-102.932	92.988	0.149	-0.167
-101.918	-200.000	0.027	-0.133
-100.903	-124.114	0.092	0.014
-99.889	45.725	0.297	-0.271
-98.874	-51.264	0.057	0.026
-97.859	368.590	0.162	0.324
-96.845	-200.000	-0.064	0.316
-95.830	-200.000	0.032	0.164
-94.816	66.401	-0.067	0.067
-93.801	-142.332	0.378	-0.037
-92.786	87.129	-0.184	0.201
-91.772	15.513	-0.118	-0.091
-90.757	-7.762	0.486	0.324
-89.743	51.449	-0.150	-0.141
-88.728	18.672	-0.213	-0.168
-87.713	800.000	-0.058	-0.198
-86.699	800.000	0.030	0.113
-85.684	800.000	0.055	0.173
-84.670	-6.308	0.149	0.100
-83.655	80.231	-0.078	-0.083
-82.640	574.759	-0.073	-0.177
-81.626	29.620	-0.126	-0.106
-80.611	229.777	0.109	-0.175
-79.597	66.428	-0.014	0.014
-78.582	800.000	-0.058	0.215
-77.567	-200.000	-0.389	-0.000
-76.553	15.942	0.073	0.057
-75.538	582.959	-0.023	0.056
-74.524	154.369	-0.181	-0.245
-73.509	18.354	0.148	-0.116
-72.494	-48.953	0.153	0.072
-71.480	200.669	0.026	-0.040
-70.465	-200.000	-0.067	0.431
-69.451	-155.899	-0.201	0.013
-68.436	-37.279	0.575	0.303
-67.422	-200.000	-0.033	0.159
-66.407	40.709	-0.167	0.149
-65.392	-200.000	0.080	0.352
-64.378	664.201	-0.064	0.162
-63.363	58.963	-0.176	0.170
-62.349	-16.442	0.230	-0.143
-61.334	83.227	-0.898	-0.963
-60.319	432.261	0.170	0.364
-59.305	-200.000	-0.256	-1.117
-58.290	579.364	0.520	1.254
-57.276	800.000	0.572	1.622
-56.261	-200.000	113.729	648.993
-55.246	533.279	1519.154	3543.527
-54.232	175.555	2691.651	3844.025
-53.217	100.240	2318.150	2648.597
-52.203	34.382	2064.013	1774.070
-51.188	29.598	1980.204	1659.126
-50.173	28.114	1963.558	1631.879
-49.159	46.306	2021.484	1845.163
-48.144	45.535	2037.357	1852.595
-47.130	30.036	1996.626	1676.582
-46.115	27.749	1985.897	1646.888
-45.100	27.773	1982.858	1644.522
-44.086	27.706	1980.691	1642.056
-43.071	27.732	1978.066	1640.050
-42.057	27.636	1976.181	1637.561
-41.042	27.681	1974.332	1636.367
-40.027	27.687	1972.709	1635.010
-39.013	27.622	1970.972	1632.924
-37.998	27.702	1968.685	1631.676
-36.984	27.764	1966.831	1630.630
-35.969	27.715	1965.029	1628.632
-34.954	27.722	1963.504	1627.370
-33.940	27.800	1961.858	1626.630
-32.925	27.791	1960.602	1625.445
-31.911	27.813	1958.599	1623.916
-30.896	27.837	1956.512	1622.340
-29.881	27.842	1955.751	1621.684
-28.867	27.896	1954.188	1620.808
-27.852	27.873	1952.469	1619.112
-26.838	27.922	1950.222	1617.615
-25.823	27.814	1949.025	1615.603
-24.809	27.853	1947.216	1614.388
-23.794	27.843	1945.216	1612.578
-22.779	27.830	1943.180	1610.708
-21.765	27.852	1941.812	1609.706
-20.750	27.872	1940.129	1608.423
-19.736	27.847	1938.613	1606.882
-18.721	27.885	1937.033	1605.846
-17.706	27.775	1935.763	1603.758
-16.692	27.799	1934.020	1602.463
-15.677	27.781	1932.664	1601.120
-14.663	27.859	1930.905	1600.283
-13.648	27.837	1929.838	1599.143
-12.633	27.855	1928.229	1597.896
-11.619	27.898	1927.009	1597.204
-10.604	27.789	1925.789	1595.172
-9.590	27.789	1924.395	1593.960
-8.575	27.876	1922.929	1593.440
-7.560	27.816	1922.222	1592.264
-6.546	27.860	1920.059	1590.790
-5.531	27.824	1919.101	1589.623
-4.517	27.769	1918.095	1588.247
-3.502	27.834	1916.747	1587.638
-2.487	27.812	1915.590	1586.421
-1.473	27.771	1914.894	1585.424
-0.458	27.839	1909.827	1581.756
0.556	29.300	1890.095	1553.998
1.571	24.978	1871.485	1502.402
2.586	21.036	1893.044	1486.054
3.600	19.781	1928.382	1502.764
4.615	19.435	1921.559	1494.314
5.629	15.319	1822.419	1383.210
6.644	7.737	1708.348	1237.691
7.659	3.964	1674.129	1183.975
8.673	3.700	1670.622	1179.369
9.688	3.708	1669.715	1178.687
10.702	3.734	1668.349	1177.815
11.717	3.729	1664.841	1175.197
12.731	4.140	1664.057	1177.669
13.746	9.498	1676.460	1227.274
14.761	17.863	1695.551	1305.380
15.775	22.493	1702.963	1346.449
16.790	22.915	1702.729	1349.367
17.804	22.170	1700.136	1341.509
18.819	21.199	1697.855	1332.184
19.834	20.829	1695.217	1327.179
20.848	20.759	1694.126	1325.673
21.863	20.815	1692.879	1325.007
22.877	20.634	1691.865	1322.723
23.892	20.523	1690.642	1320.808
24.907	20.507	1689.564	1319.722
25.921	20.405	1688.591	1318.077
26.936	20.280	1687.591	1316.232
27.950	20.375	1686.325	1315.843
28.965	20.377	1686.097	1315.563
29.980	20.489	1685.474	1315.809
30.994	20.664	1684.346	1316.142
32.009	20.715	1683.542	1315.779
33.023	20.737	1683.189	1315.555
34.038	20.832	1681.546	1314.867
35.053	20.720	1680.505	1313.097
36.067	20.527	1679.625	1310.832
37.082	20.513	1678.236	1309.531
38.096	20.513	1677.328	1308.708
39.111	20.677	1675.821	1308.647
40.126	20.703	1676.140	1308.973
41.140	20.619	1674.903	1307.265
42.155	20.440	1672.649	1304.043
43.169	20.058	1671.502	1300.172
44.184	19.937	1670.163	1298.107
45.199	20.031	1669.091	1297.858
46.213	20.102	1668.092	1297.504
47.228	20.221	1667.426	1297.758
48.242	20.348	1666.468	1297.848
49.257	20.489	1665.378	1297.935
50.271	20.491	1664.357	1297.042
51.286	20.394	1663.398	1295.459
52.301	20.404	1661.805	1294.172
53.315	20.364	1660.674	1292.879
54.330	20.389	1658.585	1291.326
55.344	20.240	1656.377	1288.387
56.359	20.084	1655.233	1286.227
57.374	20.102	1654.197	1285.441
58.388	20.165	1652.914	1284.798
59.403	20.012	1651.925	1282.782
60.417	19.901	1650.692	1280.886
61.432	19.911	1649.375	1279.830
62.447	19.869	1648.308	1278.574
63.461	19.832	1647.181	1277.313
64.476	19.699	1646.138	1275.409
65.490	19.595	1644.874	1273.553
66.505	19.555	1643.447	1272.042
67.520	19.601	1642.849	1271.805
68.534	19.748	1641.471	1271.707
69.549	19.757	1639.967	1270.491
70.563	19.662	1638.998	1268.933
71.578	19.574	1637.877	1267.308
72.593	19.565	1636.321	1265.930
73.607	19.421	1635.266	1263.944
74.622	19.375	1634.395	1262.821
75.636	19.358	1633.723	1262.066
76.651	19.461	1633.253	1262.344
77.666	19.421	1632.518	1261.369
78.680	19.528	1631.770	1261.465
79.695	19.597	1631.015	1261.274
80.709	19.671	1630.040	1260.944
81.724	19.813	1629.544	1261.489
82.739	20.119	1628.395	1262.719
83.753	20.146	1628.138	1262.605
84.768	20.186	1627.065	1261.947
85.782	20.372	1627.080	1263.202
86.797	20.531	1626.652	1263.913
87.812	20.730	1625.827	1264.607
88.826	20.581	1624.463	1262.355
89.841	20.422	1623.779	1260.553
90.855	20.480	1622.574	1259.933
91.870	20.546	1621.603	1259.543
92.884	20.682	1620.406	1259.489
93.899	20.765	1619.753	1259.467
94.914	20.755	1618.126	1258.019
95.928	20.732	1617.053	1256.904
96.943	20.823	1615.783	1256.461
97.957	20.773	1614.716	1255.166
98.972	20.616	1613.053	1252.628
99.987	20.691	1611.633	1251.957
101.001	20.667	1610.228	1250.581
102.016	20.721	1608.532	1249.538
103.030	20.670	1607.359	1248.153
104.045	20.535	1606.518	1246.418
105.060	20.621	1604.544	1245.399
106.074	20.532	1602.993	1243.448
107.089	20.259	1600.996	1239.839
108.103	19.903	1599.923	1236.349
109.118	19.659	1597.767	1232.837
110.133	19.557	1596.675	1231.160
111.147	19.640	1595.066	1230.395
112.162	19.668	1593.802	1229.516
113.176	19.784	1592.747	1229.416
114.191	19.765	1591.820	1228.454
115.206	19.905	1589.857	1227.824
116.220	19.930	1589.072	1227.287
117.235	19.895	1587.170	1225.464
118.249	19.817	1586.789	1224.507
119.264	19.733	1585.442	1222.765
120.279	19.701	1583.374	1220.838
121.293	19.604	1582.159	1219.111
122.308	19.552	1581.029	1217.764
123.322	19.505	1578.718	1215.544
124.337	19.339	1577.513	1213.340
125.352	19.280	1576.259	1211.853
126.366	19.303	1575.288	1211.162
127.381	19.240	1574.481	1209.993
128.395	19.250	1573.068	1208.868
129.410	19.278	1571.766	1207.956
130.424	19.235	1570.170	1206.321
131.439	19.323	1568.711	1205.711
132.454	19.478	1567.963	1206.116
133.468	19.707	1567.278	1207.080
134.483	19.743	1565.768	1206.057
135.497	19.858	1564.208	1205.550
136.512	19.821	1563.166	1204.385
137.527	19.928	1562.049	1204.165
138.541	19.879	1560.659	1202.642
139.556	19.995	1559.635	1202.553
140.570	20.014	1558.826	1201.959
141.585	20.068	1557.561	1201.252
142.600	20.242	1556.809	1201.765
143.614	20.377	1555.175	1201.333
144.629	20.475	1554.675	1201.522
145.643	20.555	1553.574	1201.117
146.658	20.566	1552.694	1200.406
147.673	20.537	1550.562	1198.453
148.687	20.331	1548.898	1195.643
149.702	20.194	1547.003	1193.129
150.716	19.851	1546.158	1190.012
151.731	19.964	1544.293	1189.248
152.746	19.834	1543.058	1187.300
153.760	19.876	1541.438	1186.237
154.775	19.902	1540.098	1185.275
155.789	20.051	1539.167	1185.477
156.804	20.251	1537.768	1185.663
157.819	20.230	1536.856	1184.707
158.833	20.264	1536.054	1184.217
159.848	20.378	1535.137	1184.183
160.862	20.510	1534.623	1184.583
161.877	20.642	1533.664	1184.634
162.892	20.334	1531.580	1180.829
163.906	20.031	1529.641	1177.166
164.921	19.883	1528.349	1175.063
165.935	19.836	1527.221	1173.772
166.950	19.792	1526.879	1173.112
167.964	19.897	1525.554	1172.697
168.979	20.093	1524.491	1173.103
169.994	20.030	1523.630	1171.915
171.008	19.969	1522.607	1170.608
172.023	20.061	1520.983	1169.876
173.037	20.013	1520.711	1169.242
174.052	20.306	1519.491	1170.175
175.067	20.430	1518.789	1170.366
176.081	20.226	1517.277	1167.728
177.096	19.905	1515.914	1164.412
178.110	19.786	1514.180	1162.180
179.125	19.744	1513.171	1161.021
180.140	19.903	1512.691	1161.618
181.154	20.048	1511.373	1161.473
182.169	20.186	1510.986	1161.996
183.183	20.307	1509.795	1161.792
184.198	20.503	1508.747	1162.191
185.213	20.412	1508.177	1161.040
186.227	20.432	1507.253	1160.363
187.242	20.517	1506.143	1159.973
188.256	20.513	1505.528	1159.367
189.271	20.762	1504.633	1160.233
190.286	20.751	1503.708	1159.351
191.300	20.734	1502.440	1158.151
192.315	20.251	1500.927	1153.673
193.329	19.889	1499.156	1149.806
194.344	19.857	1498.491	1148.985
195.359	19.958	1496.837	1148.282
196.373	19.995	1496.130	1147.884
197.388	19.999	1495.264	1147.141
198.402	20.172	1494.117	1147.307
199.417	20.362	1493.502	1147.989
200.432	20.496	1493.491	1148.764
201.446	20.787	1492.853	1150.094
202.461	20.945	1491.711	1150.155
203.475	20.929	1491.113	1149.492
204.490	21.020	1489.969	1149.101
205.504	20.851	1488.576	1146.817
206.519	20.601	1486.720	1143.639
207.534	20.432	1485.153	1141.223
208.548	20.333	1484.375	1139.878
209.563	20.403	1483.093	1139.246
210.577	20.347	1482.369	1138.222
211.592	20.292	1481.744	1137.285
212.607	20.400	1481.016	1137.333
213.621	20.583	1480.480	1138.014
214.636	20.766	1479.803	1138.594
215.650	20.688	1478.312	1136.835
216.665	20.546	1477.649	1135.297
217.680	20.741	1476.953	1135.938
218.694	20.893	1476.421	1136.416
219.709	21.096	1475.662	1137.056
220.723	20.985	1474.879	1135.627
221.738	20.895	1473.822	1134.128
222.753	20.833	1473.770	1133.585
223.767	20.793	1472.131	1131.963
224.782	20.752	1470.806	1130.575
225.796	20.762	1470.218	1130.092
226.811	20.989	1469.729	1131.086
227.826	21.130	1468.887	1131.257
228.840	20.981	1467.723	1129.292
229.855	20.765	1466.845	1127.121
230.869	20.595	1465.343	1124.766
231.884	20.604	1464.396	1123.998
232.899	20.538	1463.230	1122.575
233.913	20.481	1461.648	1120.897
234.928	20.418	1460.496	1119.504
235.942	20.258	1459.355	1117.505
236.957	20.272	1457.562	1116.121
237.972	20.137	1456.839	1114.603
238.986	20.139	1455.373	1113.394
240.001	20.239	1454.691	1113.412
241.015	20.291	1453.708	1112.895
242.030	20.305	1452.860	1112.237
243.045	20.461	1451.281	1111.933
244.059	20.617	1450.811	1112.468
245.074	20.639	1450.274	1112.099
246.088	20.652	1449.795	1111.717
247.103	20.827	1449.170	1112.256
248.117	20.910	1448.314	1112.032
249.132	20.998	1447.788	1112.093
250.147	21.136	1447.781	1112.869
251.161	21.346	1447.541	1113.925
252.176	21.571	1447.445	1115.182
253.190	21.790	1446.076	1115.427
254.205	21.809	1445.808	1115.243
255.220	21.908	1444.693	1114.908
256.234	22.027	1443.656	1114.765
257.249	21.953	1443.305	1113.927
258.263	21.966	1441.886	1112.815
259.278	21.886	1441.199	1111.680
260.293	21.816	1440.360	1110.491
261.307	21.757	1439.780	1109.571
262.322	21.893	1439.216	1109.902
263.336	22.017	1438.412	1109.970
264.351	22.000	1437.509	1109.064
265.366	22.080	1435.987	1108.295
266.380	22.022	1435.092	1107.144
267.395	22.064	1434.408	1106.779
268.409	21.980	1433.501	1105.456
269.424	21.811	1432.587	1103.587
270.439	21.845	1430.986	1102.471
271.453	21.606	1430.237	1100.293
272.468	21.688	1429.115	1099.848
273.482	21.527	1428.175	1098.017
274.497	21.431	1427.278	1096.629
275.512	21.470	1426.099	1095.870
276.526	21.447	1425.513	1095.179
277.541	21.430	1424.495	1094.191
278.555	21.465	1423.824	1093.799
279.570	21.502	1422.759	1093.116
280.585	21.661	1422.141	1093.539
281.599	21.882	1421.803	1094.558
282.614	22.100	1421.145	1095.320
283.628	21.865	1419.319	1092.347
284.643	21.613	1418.005	1089.676
285.657	21.522	1417.220	1088.409
286.672	21.552	1416.363	1087.840
287.687	21.517	1415.580	1086.924
288.701	21.510	1414.332	1085.826
289.716	21.423	1414.697	1085.473
290.730	21.509	1413.277	1084.819
291.745	21.580	1411.781	1084.015
292.760	21.642	1411.096	1083.774
293.774	21.596	1410.057	1082.595
294.789	21.652	1409.198	1082.191
295.803	21.860	1408.772	1083.047
296.818	21.944	1408.106	1082.963
297.833	21.891	1405.907	1080.845
298.847	21.625	1405.547	1078.836
299.862	21.618	1404.190	1077.653
300.876	21.643	1403.546	1077.220
301.891	21.787	1402.177	1076.959
302.906	21.675	1402.112	1076.127
303.920	21.880	1401.315	1076.676
304.935	21.975	1401.349	1077.193
305.949	22.204	1400.738	1078.028
306.964	22.297	1399.847	1077.817
307.979	22.341	1399.131	1077.441
308.993	22.220	1398.176	1075.868
310.008	22.101	1396.507	1073.765
311.022	22.182	1395.612	1073.472
312.037	22.179	1395.082	1072.957
313.052	22.155	1394.397	1072.187
314.066	22.111	1392.818	1070.609
315.081	21.883	1391.302	1067.963
316.095	21.707	1389.786	1065.634
317.110	21.524	1388.566	1063.490
318.125	21.524	1387.636	1062.682
319.139	21.520	1386.746	1061.882
320.154	21.536	1385.945	1061.273
321.168	21.420	1385.170	1059.886
322.183	21.509	1384.491	1059.811
323.197	21.552	1383.058	1058.880
324.212	21.574	1382.553	1058.532
325.227	21.676	1381.744	1058.436
326.241	21.706	1380.942	1057.906
327.256	21.786	1379.764	1057.396
328.270	21.708	1378.931	1056.193
329.285	21.698	1378.059	1055.370
330.300	21.701	1376.902	1054.410
331.314	21.603	1376.329	1053.288
332.329	21.666	1375.372	1052.839
333.343	21.605	1374.786	1051.931
334.358	21.600	1374.027	1051.226
335.373	21.781	1373.710	1051.982
336.387	22.081	1372.820	1053.006
337.402	22.005	1372.259	1052.023
338.416	22.139	1371.252	1051.964
339.431	22.136	1371.295	1051.883
340.446	22.199	1370.669	1051.687
341.460	22.345	1369.726	1051.743
342.475	22.533	1368.658	1051.953
343.489	22.723	1367.958	1052.454
344.504	22.756	1366.989	1051.813
345.519	22.766	1366.494	1051.397
346.533	22.836	1365.270	1050.781
347.548	22.850	1364.969	1050.540
348.562	22.906	1363.946	1049.990
349.577	22.975	1363.155	1049.702
350.592	22.713	1362.284	1047.383
351.606	22.423	1360.543	1044.230
352.621	22.130	1359.284	1041.434
353.635	22.073	1357.830	1039.894
354.650	21.940	1357.341	1038.639
355.665	21.905	1356.261	1037.512
356.679	21.974	1355.312	1037.103
357.694	22.044	1354.360	1036.695
358.708	22.178	1353.392	1036.655
359.723	22.250	1352.778	1036.514
360.738	22.373	1351.377	1036.073
361.752	22.381	1350.440	1035.314
362.767	22.347	1349.246	1034.108
363.781	22.336	1348.634	1033.481
364.796	22.421	1347.857	1033.290
365.810	22.556	1347.075	1033.390
366.825	22.738	1346.523	1033.945
367.840	22.852	1346.152	1034.234
368.854	23.018	1345.637	1034.722
369.869	23.121	1345.754	1035.325
370.883	23.188	1344.991	1035.033
371.898	23.073	1344.004	1033.514
372.913	22.786	1343.083	1031.033
373.927	22.752	1341.195	1029.295
374.942	22.792	1341.097	1029.365
375.956	22.932	1340.354	1029.520
376.971	23.082	1339.740	1029.830
377.986	22.894	1338.665	1027.818
379.000	22.944	1337.802	1027.356
380.015	23.085	1337.726	1028.025
381.029	23.198	1336.822	1027.898
382.044	23.286	1336.449	1028.030
383.059	23.351	1335.525	1027.607
384.073	23.194	1335.166	1026.326
385.088	23.122	1334.357	1025.194
386.102	23.072	1333.928	1024.487
387.117	23.244	1332.517	1024.307
388.132	23.134	1331.861	1023.075
389.146	22.745	1330.764	1019.898
390.161	22.637	1329.328	1018.082
391.175	22.691	1328.508	1017.677
392.190	22.705	1327.822	1017.142
393.205	22.748	1326.972	1016.645
394.219	22.921	1326.290	1017.032
395.234	23.166	1325.147	1017.474
396.248	22.973	1323.878	1015.301
397.263	22.816	1322.547	1013.290
398.278	22.730	1321.175	1011.657
399.292	22.743	1319.633	1010.460
400.307	22.610	1318.742	1008.925
401.321	22.487	1317.639	1007.290
402.336	22.430	1316.394	1005.925
403.350	22.469	1315.476	1005.357
404.365	22.432	1314.432	1004.260
405.380	22.463	1313.550	1003.669
406.394	22.628	1312.970	1004.079
407.409	22.765	1312.412	1004.340
408.423	22.958	1312.107	1005.116
409.438	23.149	1311.555	1005.690
410.453	23.307	1310.880	1005.983
411.467	23.180	1310.560	1004.929
412.482	23.401	1310.116	1005.755
413.496	23.348	1309.712	1005.053
414.511	23.544	1308.833	1005.402
415.526	23.600	1308.144	1005.096
416.540	23.641	1307.928	1005.076
417.555	23.775	1307.111	1005.120
418.569	23.792	1306.484	1004.644
419.584	23.665	1305.850	1003.351
420.599	23.543	1304.391	1001.453
421.613	146.285	1435.234	1797.482
422.628	141.709	1454.282	1797.564
