DTS Sentinel unit serial number:	SN413079Multiplexer serial number:	ORYXHardware model number:	OX4-SRSoftware version number:	ORYX F/W v4.00 Oryx Data Collector v3.7.2.0data status	okinstallation	princeton_trtdifferential loss correction	single-endedforward channel	channel 4reverse channel	N/Adate	2019/09/13time	08:53:35forward acquisition time	60.00reverse acquisition time	0.00gamma	496.2192k internal	0.2315k external	0.2315temperature offset calibration	1.0199default loss term (dB/km)	0.3790temperature slope calibration	1.0000multiplexer offset coefficient	1.0000multiplexer slope coefficient	1.0000fibre end	0.00T internal ref (°C)	28.19T ext. ref 1 (°C)	4.34T ext. ref 2 (°C)	25.25length (m)	temperature (°C)	Stokes	anti-Stokes-747.200	1.966	0.234	-0.171
-746.185	800.000	-0.098	0.381
-745.171	239.469	-0.026	0.043
-744.156	45.670	-0.411	0.385
-743.142	-90.744	-0.301	-0.088
-742.127	-50.722	0.104	0.050
-741.112	-112.994	0.224	-0.045
-740.098	416.218	0.039	0.085
-739.083	-82.244	0.216	0.071
-738.069	2.983	0.138	0.102
-737.054	-49.523	0.150	-0.073
-736.039	713.670	-0.088	-0.235
-735.025	-172.760	0.437	-0.014
-734.010	496.131	-0.145	-0.337
-732.996	87.837	0.198	-0.222
-731.981	512.526	-0.092	-0.217
-730.966	800.000	0.147	-0.492
-729.952	92.887	0.286	-0.327
-728.937	-152.816	-0.385	0.028
-727.923	449.793	0.036	0.080
-726.908	165.931	0.133	0.191
-725.894	28.415	-0.349	-0.299
-724.879	183.070	0.235	-0.351
-723.864	157.515	-0.276	-0.387
-722.850	34.353	0.321	0.284
-721.835	-73.937	-0.210	-0.077
-720.821	-25.953	0.289	-0.172
-719.806	-200.000	0.026	-0.228
-718.791	-200.000	0.001	0.080
-717.777	800.000	0.069	0.252
-716.762	-129.377	0.083	-0.012
-715.748	-148.288	-0.230	0.019
-714.733	800.000	0.033	-0.124
-713.718	263.418	0.175	-0.308
-712.704	-200.000	-0.097	-0.439
-711.689	66.171	0.098	0.100
-710.675	0.085	0.130	0.094
-709.660	-200.000	-0.014	-0.175
-708.645	182.537	-0.176	0.263
-707.631	28.631	-0.093	-0.080
-706.616	-4.433	0.171	0.119
-705.602	387.406	0.112	-0.234
-704.587	99.567	-0.119	-0.139
-703.572	-200.000	0.048	-0.366
-702.558	437.064	0.092	0.203
-701.543	89.392	0.105	-0.119
-700.529	-200.000	0.056	-0.304
-699.514	557.143	0.049	-0.119
-698.499	-58.769	0.230	0.101
-697.485	235.268	-0.112	-0.187
-696.470	-150.717	-0.210	-0.016
-695.456	292.591	-0.135	0.249
-694.441	-139.750	0.126	-0.014
-693.426	314.160	-0.074	-0.140
-692.412	-67.631	-0.273	-0.108
-691.397	378.573	0.122	-0.253
-690.383	-80.711	-0.109	-0.037
-689.368	-200.000	0.052	-0.299
-688.354	-145.324	0.241	-0.022
-687.339	13.555	-0.081	-0.064
-686.324	-34.020	0.029	-0.016
-685.310	82.704	0.232	0.254
-684.295	-27.642	-0.351	-0.206
-683.281	-198.906	0.198	-0.001
-682.266	-78.942	-0.173	0.059
-681.251	-200.000	0.003	0.024
-680.237	212.695	0.165	0.264
-679.222	800.000	-0.024	0.068
-678.208	-10.792	-0.078	0.052
-677.193	-94.825	0.330	0.090
-676.178	11.783	-0.157	0.122
-675.164	-31.082	0.042	0.024
-674.149	-92.042	-0.328	-0.094
-673.135	49.405	-0.248	-0.236
-672.120	-54.011	-0.135	-0.062
-671.105	-173.452	0.280	0.009
-670.091	-200.000	-0.025	-0.198
-669.076	161.821	0.020	-0.028
-668.062	-200.000	-0.030	-0.137
-667.047	233.527	-0.101	0.168
-666.032	-200.000	-0.042	-0.361
-665.018	-78.378	-0.155	0.054
-664.003	77.171	-0.052	-0.056
-662.989	800.000	-0.041	-0.149
-661.974	-200.000	0.023	0.295
-660.959	282.992	0.026	0.048
-659.945	555.430	0.049	0.119
-658.930	126.664	0.222	-0.284
-657.916	-200.000	-0.017	0.144
-656.901	347.573	-0.066	0.131
-655.886	-152.077	-0.145	0.011
-654.872	35.815	0.261	-0.232
-653.857	283.915	0.151	-0.273
-652.843	50.545	0.252	-0.241
-651.828	2.604	0.222	0.163
-650.814	-122.807	0.137	0.022
-649.799	-31.759	-0.073	0.041
-648.784	-145.643	0.248	-0.022
-647.770	-200.000	0.081	-0.395
-646.755	33.874	-0.175	-0.154
-645.741	-25.633	-0.190	-0.113
-644.726	-116.363	0.068	0.013
-643.711	-175.579	-0.197	-0.005
-642.697	-184.365	0.319	0.005
-641.682	433.946	-0.092	0.203
-640.668	-200.000	-0.005	0.151
-639.653	-94.027	0.025	-0.007
-638.638	611.401	0.083	-0.210
-637.624	242.739	-0.064	0.108
-636.609	282.520	0.085	0.153
-635.595	-84.852	0.299	0.095
-634.580	-118.772	-0.078	-0.014
-633.565	-139.031	0.234	0.026
-632.551	121.578	-0.117	-0.147
-631.536	109.921	-0.158	-0.192
-630.522	-156.391	0.241	-0.015
-629.507	-63.754	-0.139	0.058
-628.492	-200.000	-0.032	-0.215
-627.478	-24.826	0.317	0.190
-626.463	-200.000	-0.012	0.171
-625.449	185.832	0.201	0.301
-624.434	-21.863	0.168	-0.103
-623.419	-94.156	0.064	-0.018
-622.405	135.721	-0.057	-0.074
-621.390	-184.192	0.148	0.002
-620.376	64.306	-0.246	0.250
-619.361	563.436	0.110	0.268
-618.346	-200.000	0.035	-0.177
-617.332	-200.000	-0.077	-0.424
-616.317	34.700	-0.093	0.082
-615.303	203.790	-0.059	-0.092
-614.288	183.045	-0.090	0.134
-613.273	-200.000	-0.020	-0.127
-612.259	24.633	0.263	0.219
-611.244	236.010	0.065	-0.108
-610.230	426.486	-0.046	-0.101
-609.215	43.603	-0.138	0.128
-608.201	656.235	-0.119	-0.307
-607.186	-82.540	0.022	-0.007
-606.171	800.000	-0.037	0.162
-605.157	269.710	0.224	-0.396
-604.142	800.000	-0.084	0.249
-603.128	-33.879	0.266	-0.148
-602.113	-107.703	-0.035	0.008
-601.098	231.467	0.097	0.161
-600.084	401.735	-0.081	-0.172
-599.069	466.646	-0.065	0.147
-598.055	-0.972	-0.255	-0.182
-597.040	291.718	-0.109	-0.199
-596.025	-49.360	-0.131	-0.063
-595.011	259.800	0.140	-0.244
-593.996	-82.104	-0.138	0.045
-592.982	-200.000	0.022	-0.138
-591.967	-162.632	-0.101	0.005
-590.952	285.904	0.030	0.055
-589.938	282.580	-0.127	-0.229
-588.923	364.140	0.056	-0.114
-587.909	-51.616	0.236	-0.111
-586.894	-38.468	0.432	-0.230
-585.879	17.634	-0.046	-0.037
-584.865	328.907	0.044	-0.085
-583.850	-200.000	-0.061	0.308
-582.836	-200.000	-0.026	0.313
-581.821	-13.718	0.124	-0.081
-580.806	800.000	0.055	-0.160
-579.792	173.618	-0.091	0.132
-578.777	333.603	-0.196	-0.382
-577.763	800.000	-0.043	-0.179
-576.748	800.000	0.037	0.160
-575.733	300.608	-0.028	0.051
-574.719	177.403	0.214	0.313
-573.704	-170.065	-0.255	0.009
-572.690	178.495	-0.151	0.222
-571.675	669.600	0.108	-0.282
-570.661	367.065	0.067	0.136
-569.646	-59.447	0.021	0.009
-568.631	161.296	0.246	0.346
-567.617	50.863	-0.010	-0.010
-566.602	-147.944	0.257	-0.022
-565.588	191.253	0.025	0.037
-564.573	-90.415	0.256	0.075
-563.558	197.815	0.212	-0.326
-562.544	-200.000	-0.003	-0.263
-561.529	8.933	-0.171	0.130
-560.515	19.375	-0.166	0.134
-559.500	115.004	0.050	0.061
-558.485	9.465	-0.044	0.033
-557.471	313.111	0.183	-0.346
-556.456	142.658	-0.164	0.219
-555.442	283.608	0.075	0.136
-554.427	22.480	0.200	-0.165
-553.412	-173.859	0.103	0.003
-552.398	196.573	0.317	0.486
-551.383	800.000	0.082	-0.266
-550.369	265.062	0.053	0.093
-549.354	-76.437	0.287	0.102
-548.339	16.821	-0.142	-0.113
-547.325	-200.000	-0.019	-0.154
-546.310	-47.039	-0.096	-0.047
-545.296	-69.536	-0.275	0.106
-544.281	273.000	0.135	0.239
-543.266	-46.251	0.298	-0.148
-542.252	-175.317	-0.055	-0.002
-541.237	269.177	-0.250	-0.441
-540.223	800.000	0.049	0.182
-539.208	-82.457	-0.236	0.077
-538.193	21.896	-0.102	-0.083
-537.179	-200.000	-0.001	0.101
-536.164	-200.000	-0.032	0.204
-535.150	-117.460	0.148	-0.027
-534.135	-107.573	-0.389	0.086
-533.121	176.552	0.099	0.145
-532.106	-181.113	-0.187	-0.004
-531.091	159.113	0.144	0.201
-530.077	-200.000	0.023	0.144
-529.062	-200.000	-0.012	-0.428
-528.048	110.446	-0.127	-0.153
-527.033	-45.939	-0.155	-0.077
-526.018	-87.047	0.213	-0.065
-525.004	800.000	0.048	0.206
-523.989	-200.000	0.002	-0.232
-522.975	-109.654	-0.129	0.027
-521.960	800.000	-0.035	-0.148
-520.945	-28.125	0.092	0.054
-519.931	304.260	-0.130	0.242
-518.916	800.000	-0.072	-0.245
-517.902	800.000	0.034	-0.121
-516.887	10.735	0.185	-0.142
-515.872	48.796	0.154	0.145
-514.858	-52.743	0.242	0.112
-513.843	-180.457	0.002	0.000
-512.829	-76.356	0.141	-0.050
-511.814	-133.198	-0.302	-0.038
-510.799	240.124	0.191	0.320
-509.785	-27.255	0.134	0.079
-508.770	-157.329	-0.243	0.015
-507.756	-32.055	0.248	-0.139
-506.741	27.399	0.260	0.220
-505.726	-39.232	-0.081	0.043
-504.712	-138.964	-0.125	0.014
-503.697	-135.980	-0.415	-0.049
-502.683	296.092	-0.119	0.219
-501.668	4.280	0.395	-0.290
-500.653	10.674	-0.255	-0.195
-499.639	379.749	-0.086	0.177
-498.624	140.632	0.137	0.182
-497.610	-200.000	0.030	0.246
-496.595	132.023	0.054	-0.069
-495.581	-200.000	-0.008	0.067
-494.566	-200.000	-0.023	-0.281
-493.551	287.330	-0.106	-0.193
-492.537	675.678	-0.030	0.079
-491.522	-97.862	-0.279	-0.072
-490.508	-119.343	0.068	-0.012
-489.493	356.595	0.013	-0.027
-488.478	-69.045	0.050	0.020
-487.464	377.321	-0.061	-0.125
-486.449	-200.000	0.006	-0.210
-485.435	123.089	-0.092	-0.116
-484.420	-117.234	-0.147	0.027
-483.405	800.000	-0.022	-0.064
-482.391	-127.105	-0.117	-0.017
-481.376	800.000	-0.082	0.231
-480.362	-38.393	-0.229	-0.121
-479.347	258.368	0.076	-0.132
-478.332	-13.158	-0.120	0.078
-477.318	-200.000	0.011	-0.110
-476.303	162.064	0.063	0.088
-475.289	800.000	-0.042	0.161
-474.274	-158.740	0.051	0.003
-473.259	-21.923	-0.258	0.157
-472.245	-200.000	0.061	-0.390
-471.230	-110.185	-0.101	-0.021
-470.216	-88.009	-0.158	0.048
-469.201	693.075	-0.069	-0.181
-468.186	375.267	-0.185	0.377
-467.172	7.419	0.154	-0.115
-466.157	22.559	0.317	0.260
-465.143	800.000	-0.063	-0.210
-464.128	590.647	-0.070	0.174
-463.113	86.896	0.269	0.298
-462.099	-167.089	0.503	0.021
-461.084	22.793	0.265	0.218
-460.070	-115.831	0.144	0.027
-459.055	80.371	0.115	0.124
-458.040	-200.000	0.003	0.280
-457.026	313.819	-0.179	-0.338
-456.011	-200.000	-0.010	0.264
-454.997	193.055	0.038	0.057
-453.982	-200.000	-0.020	-0.131
-452.968	-3.450	0.082	0.057
-451.953	-200.000	-0.029	0.402
-450.938	800.000	-0.094	-0.261
-449.924	-42.743	0.034	-0.017
-448.909	-200.000	-0.046	0.319
-447.895	80.986	-0.022	-0.023
-446.880	64.106	-0.082	0.083
-445.865	23.222	0.050	0.041
-444.851	-200.000	0.008	-0.625
-443.836	-200.000	-0.004	-0.042
-442.822	-200.000	0.020	0.245
-441.807	213.450	-0.232	-0.367
-440.792	-83.577	0.229	0.073
-439.778	-200.000	-0.019	-0.099
-438.763	237.912	-0.101	-0.169
-437.749	363.419	0.149	-0.301
-436.734	-200.000	0.007	-0.106
-435.719	99.031	-0.104	0.120
-434.705	-106.857	-0.077	0.017
-433.690	-65.312	0.218	-0.088
-432.676	800.000	0.064	-0.243
-431.661	800.000	0.054	0.187
-430.646	-19.937	-0.130	-0.080
-429.632	797.341	-0.025	-0.069
-428.617	-200.000	-0.012	0.294
-427.603	-200.000	0.018	-0.250
-426.588	-44.464	-0.095	0.048
-425.573	-77.834	0.035	-0.012
-424.559	-71.220	0.145	-0.054
-423.544	-117.197	-0.344	0.063
-422.530	-200.000	-0.009	-0.336
-421.515	-87.830	-0.369	-0.111
-420.500	179.994	-0.111	0.163
-419.486	94.665	0.067	0.076
-418.471	800.000	0.096	0.297
-417.457	-200.000	-0.012	0.075
-416.442	-63.096	-0.385	-0.159
-415.428	-200.000	0.006	0.256
-414.413	-2.951	-0.244	-0.171
-413.398	-110.745	0.072	0.015
-412.384	800.000	0.021	-0.079
-411.369	37.510	0.142	-0.126
-410.355	91.409	-0.106	0.119
-409.340	-200.000	-0.024	-0.117
-408.325	-56.910	-0.236	0.104
-407.311	-200.000	-0.002	-0.098
-406.296	460.966	-0.090	0.200
-405.282	-200.000	0.012	-0.402
-404.267	-47.846	0.280	-0.136
-403.252	-139.650	0.161	0.017
-402.238	800.000	0.112	-0.447
-401.223	-21.963	-0.151	-0.092
-400.209	-70.713	0.262	-0.099
-399.194	-81.697	-0.345	0.113
-398.179	-52.293	-0.274	0.127
-397.165	530.561	-0.061	-0.143
-396.150	61.513	0.118	-0.118
-395.136	-200.000	-0.024	0.118
-394.121	125.507	0.148	0.187
-393.106	-68.700	-0.150	-0.058
-392.092	-200.000	0.015	0.107
-391.077	-200.000	0.049	0.240
-390.063	55.427	-0.094	0.091
-389.048	800.000	-0.087	-0.286
-388.033	251.159	-0.104	0.176
-387.019	97.078	0.188	0.215
-386.004	-176.430	-0.294	-0.008
-384.990	310.526	-0.028	0.053
-383.975	-88.362	0.191	0.057
-382.960	-200.000	0.005	0.249
-381.946	-147.743	-0.128	-0.011
-380.931	69.882	0.151	0.156
-379.917	-20.381	0.065	-0.040
-378.902	800.000	-0.027	-0.083
-377.888	662.476	-0.067	-0.173
-376.873	-200.000	0.009	-0.214
-375.858	-172.387	-0.258	-0.008
-374.844	120.335	0.235	0.291
-373.829	-200.000	0.020	-0.157
-372.815	-95.931	-0.096	0.026
-371.800	94.505	0.097	-0.110
-370.785	65.604	0.025	-0.026
-369.771	-106.638	0.084	-0.019
-368.756	58.739	-0.071	0.069
-367.742	-200.000	-0.033	-0.195
-366.727	-200.000	0.001	0.059
-365.712	-51.802	-0.165	-0.077
-364.698	-94.883	0.123	0.033
-363.683	-75.131	-0.329	-0.117
-362.669	258.039	0.127	-0.219
-361.654	-63.072	0.250	-0.103
-360.639	164.776	-0.095	0.133
-359.625	-75.458	-0.235	-0.084
-358.610	88.691	0.212	0.235
-357.596	-87.058	0.090	0.027
-356.581	-25.970	-0.346	-0.204
-355.566	-37.261	0.299	0.159
-354.552	161.874	-0.040	0.056
-353.537	-25.712	-0.266	0.156
-352.523	687.428	0.084	0.220
-351.508	800.000	-0.140	-0.391
-350.493	720.883	-0.112	0.298
-349.479	-101.673	0.167	-0.040
-348.464	-200.000	0.076	0.337
-347.450	800.000	-0.104	-0.380
-346.435	-13.721	0.159	-0.103
-345.420	17.422	-0.246	0.195
-344.406	-99.347	0.117	-0.030
-343.391	-1.662	-0.227	0.160
-342.377	-59.681	-0.290	0.124
-341.362	7.150	0.190	-0.141
-340.348	-85.661	0.169	-0.052
-339.333	-62.324	-0.067	-0.028
-338.318	-153.005	0.174	0.012
-337.304	-60.728	0.321	-0.136
-336.289	-12.729	0.056	-0.036
-335.275	35.759	-0.255	0.223
-334.260	-200.000	0.007	-0.092
-333.245	-40.563	0.241	-0.125
-332.231	-84.129	-0.201	-0.064
-331.216	-61.182	-0.129	0.054
-330.202	352.880	-0.044	0.086
-329.187	-200.000	-0.041	-0.195
-328.172	-104.556	-0.287	0.066
-327.158	21.863	0.218	-0.177
-326.143	-146.882	-0.401	-0.034
-325.129	295.826	-0.143	0.262
-324.114	-200.000	-0.021	-0.317
-323.099	-200.000	-0.003	0.233
-322.085	409.014	0.123	0.260
-321.070	800.000	-0.059	0.186
-320.056	48.824	-0.239	-0.223
-319.041	-70.326	0.132	0.050
-318.026	362.617	0.106	0.211
-317.012	-96.007	-0.230	-0.061
-315.997	-115.878	0.085	-0.016
-314.983	-25.333	-0.130	-0.077
-313.968	434.990	-0.111	-0.241
-312.953	-200.000	-0.028	0.239
-311.939	451.576	-0.134	0.295
-310.924	-200.000	0.016	-0.177
-309.910	-148.462	0.220	-0.018
-308.895	-106.943	0.134	-0.030
-307.880	-200.000	0.010	-0.388
-306.866	800.000	0.011	-0.045
-305.851	47.527	0.109	-0.101
-304.837	284.606	0.145	0.260
-303.822	60.178	0.147	0.145
-302.807	276.910	-0.112	-0.197
-301.793	-200.000	-0.025	-0.435
-300.778	56.854	-0.292	0.284
-299.764	46.506	0.062	0.057
-298.749	-144.114	-0.100	0.009
-297.735	10.400	-0.048	0.036
-296.720	294.704	0.132	0.241
-295.705	-87.069	-0.285	0.086
-294.691	-200.000	0.007	0.356
-293.676	138.992	-0.120	0.158
-292.662	800.000	0.123	-0.342
-291.647	-143.059	0.272	-0.026
-290.632	77.832	0.084	-0.089
-289.618	800.000	0.094	-0.363
-288.603	241.940	0.063	-0.105
-287.589	97.750	0.022	0.025
-286.574	331.337	0.168	-0.322
-285.559	20.458	0.106	-0.086
-284.545	12.387	0.064	0.049
-283.530	54.864	-0.254	-0.244
-282.516	-200.000	-0.004	0.031
-281.501	-200.000	0.017	-0.160
-280.486	413.739	-0.112	-0.236
-279.472	-200.000	0.030	0.235
-278.457	-66.003	0.167	0.066
-277.443	90.418	-0.186	-0.207
-276.428	0.754	0.251	0.179
-275.413	-72.281	0.083	0.031
-274.399	-200.000	-0.008	-0.086
-273.384	-94.249	0.013	0.004
-272.370	-38.643	-0.050	-0.026
-271.355	800.000	-0.106	-0.372
-270.340	-87.425	0.035	0.010
-269.326	70.789	-0.152	-0.157
-268.311	670.274	-0.169	0.436
-267.297	800.000	0.132	0.468
-266.282	-200.000	0.039	0.438
-265.267	-71.210	0.119	0.044
-264.253	-200.000	-0.013	0.316
-263.238	-61.855	0.365	0.152
-262.224	-76.614	-0.280	-0.098
-261.209	241.470	0.108	0.179
-260.195	800.000	-0.043	0.123
-259.180	-64.880	-0.171	0.069
-258.165	-65.277	-0.130	-0.052
-257.151	-176.026	-0.488	0.013
-256.136	33.674	0.174	0.150
-255.122	-200.000	0.006	0.039
-254.107	350.641	0.060	0.118
-253.092	98.680	0.155	0.177
-252.078	101.813	-0.197	0.229
-251.063	800.000	-0.039	0.136
-250.049	-65.475	0.174	0.069
-249.034	-200.000	0.036	0.185
-248.019	800.000	0.037	0.131
-247.005	80.350	0.193	0.207
-245.990	3.324	0.194	-0.140
-244.976	94.161	-0.234	0.264
-243.961	-164.395	-0.224	0.010
-242.946	-114.349	-0.236	-0.045
-241.932	-50.603	0.059	0.028
-240.917	-200.000	0.023	-0.139
-239.903	-48.404	0.188	-0.090
-238.888	-23.197	-0.039	0.023
-237.873	-200.000	-0.024	-0.239
-236.859	60.237	0.213	0.209
-235.844	216.394	0.050	0.078
-234.830	21.431	-0.011	0.009
-233.815	292.693	-0.172	-0.312
-232.800	-103.096	-0.105	-0.025
-231.786	-139.818	0.193	-0.020
-230.771	148.402	0.057	0.076
-229.757	178.275	-0.036	0.053
-228.742	492.170	-0.150	0.342
-227.727	-149.528	0.272	-0.021
-226.713	-110.635	0.157	0.032
-225.698	800.000	-0.030	-0.102
-224.684	70.133	-0.170	0.174
-223.669	800.000	-0.108	0.310
-222.655	20.016	0.090	0.072
-221.640	13.094	-0.108	-0.083
-220.625	693.976	0.047	-0.123
-219.611	-200.000	-0.002	-0.099
-218.596	-200.000	-0.012	-0.248
-217.582	298.081	0.123	-0.224
-216.567	-200.000	0.030	0.293
-215.552	-107.511	-0.189	0.041
-214.538	-100.607	-0.307	-0.075
-213.523	137.445	-0.130	0.168
-212.509	-200.000	-0.006	0.166
-211.494	41.648	-0.056	-0.050
-210.479	-43.644	0.349	-0.175
-209.465	100.244	-0.189	-0.217
-208.450	190.230	0.200	0.299
-207.436	800.000	0.045	0.177
-206.421	84.664	-0.173	0.188
-205.406	-200.000	0.050	-0.308
-204.392	271.254	-0.022	-0.039
-203.377	25.987	0.216	-0.179
-202.363	-53.767	0.239	0.108
-201.348	301.735	-0.068	0.124
-200.333	-22.229	-0.305	0.184
-199.319	800.000	0.033	-0.105
-198.304	363.067	0.236	-0.471
-197.290	-200.000	0.002	-0.046
-196.275	-38.508	0.177	-0.093
-195.260	-64.651	-0.217	-0.087
-194.246	-200.000	-0.049	-0.254
-193.231	800.000	-0.024	0.083
-192.217	82.367	0.222	-0.238
-191.202	800.000	-0.050	0.175
-190.187	172.766	0.097	0.139
-189.173	212.116	-0.129	0.201
-188.158	6.987	0.156	-0.116
-187.144	265.569	0.113	0.195
-186.129	-200.000	-0.011	0.168
-185.114	-63.352	0.249	-0.102
-184.100	-140.723	-0.212	-0.022
-183.085	226.158	0.107	0.171
-182.071	48.270	0.158	0.146
-181.056	-173.592	-0.166	-0.005
-180.042	-8.385	0.411	-0.274
-179.027	72.211	-0.027	-0.028
-178.012	-127.531	0.133	-0.019
-176.998	17.536	0.199	-0.157
-175.983	-73.234	0.086	-0.031
-174.969	-200.000	-0.011	-0.090
-173.954	-150.463	-0.196	0.015
-172.939	-132.974	0.271	-0.034
-171.925	-4.635	-0.137	0.094
-170.910	51.197	-0.114	-0.108
-169.896	509.655	-0.011	-0.026
-168.881	-18.277	0.224	0.139
-167.866	110.968	-0.129	-0.154
-166.852	800.000	-0.117	0.437
-165.837	113.067	0.080	0.096
-164.823	460.791	0.023	-0.050
-163.808	-200.000	0.003	-0.181
-162.793	556.720	0.099	-0.237
-161.779	142.481	0.113	0.148
-160.764	-200.000	0.018	-0.250
-159.750	-1.740	-0.168	0.117
-158.735	-200.000	-0.016	0.234
-157.720	-152.435	-0.160	0.011
-156.706	92.456	-0.071	-0.079
-155.691	-90.164	0.250	-0.072
-154.677	800.000	-0.018	0.077
-153.662	-19.717	-0.233	-0.143
-152.647	-26.094	-0.183	0.107
-151.633	159.486	-0.191	-0.263
-150.618	-90.659	0.277	-0.079
-149.604	-200.000	0.010	-0.200
-148.589	-18.339	-0.178	0.110
-147.574	-4.937	0.195	0.133
-146.560	-106.389	-0.238	-0.053
-145.545	49.147	0.202	-0.188
-144.531	-172.131	-0.173	-0.006
-143.516	-128.327	-0.139	0.020
-142.502	9.748	0.061	-0.046
-141.487	230.938	-0.166	-0.270
-140.472	-70.164	-0.047	-0.018
-139.458	-53.656	-0.208	-0.094
-138.443	-83.710	0.317	-0.100
-137.429	-91.262	-0.232	0.066
-136.414	-130.227	-0.063	-0.008
-135.399	288.881	-0.041	-0.074
-134.385	416.430	-0.218	0.461
-133.370	-200.000	-0.003	0.080
-132.356	-200.000	0.034	0.439
-131.341	125.208	0.241	0.300
-130.326	708.908	-0.136	-0.355
-129.312	369.439	-0.169	-0.338
-128.297	-190.996	0.105	-0.001
-127.283	-41.339	-0.112	0.057
-126.268	77.493	0.258	0.272
-125.253	-34.783	0.065	-0.035
-124.239	-200.000	0.010	-0.224
-123.224	-69.955	0.100	-0.038
-122.210	-39.021	0.310	-0.161
-121.195	67.306	-0.129	-0.130
-120.180	-200.000	-0.018	-0.174
-119.166	-76.051	-0.277	-0.097
-118.151	76.890	-0.418	-0.439
-117.137	-66.205	0.289	-0.114
-116.122	37.799	-0.037	-0.032
-115.107	-200.000	0.015	-0.105
-114.093	-48.954	-0.296	0.140
-113.078	-94.935	0.253	-0.068
-112.064	-200.000	-0.017	-0.279
-111.049	225.495	0.072	0.115
-110.034	39.466	-0.299	-0.264
-109.020	-33.833	0.126	0.068
-108.005	-200.000	0.010	0.284
-106.991	-71.326	-0.087	0.032
-105.976	-2.259	0.043	-0.030
-104.962	159.152	0.250	-0.343
-103.947	25.448	0.330	-0.271
-102.932	82.908	0.281	-0.302
-101.918	-134.733	0.055	-0.007
-100.903	-200.000	-0.056	0.335
-99.889	-200.000	-0.018	0.102
-98.874	-56.214	0.248	-0.109
-97.859	412.295	-0.021	0.044
-96.845	-66.380	0.285	0.112
-95.830	83.665	0.124	0.134
-94.816	205.646	-0.083	-0.127
-93.801	253.558	-0.183	0.309
-92.786	-112.600	-0.267	0.053
-91.772	-200.000	-0.023	0.241
-90.757	-65.505	0.072	-0.029
-89.743	248.000	0.103	0.172
-88.728	-127.225	0.324	-0.047
-87.713	-52.610	-0.250	-0.114
-86.699	418.206	0.062	-0.131
-85.684	-200.000	-0.047	0.293
-84.670	800.000	-0.089	-0.254
-83.655	800.000	-0.083	-0.330
-82.640	26.448	0.099	-0.082
-81.626	308.331	0.022	0.041
-80.611	-200.000	-0.016	-0.178
-79.597	577.319	-0.037	0.088
-78.582	410.616	0.194	0.405
-77.567	-175.650	0.435	-0.012
-76.553	41.787	-0.233	0.209
-75.538	-53.384	0.201	0.091
-74.524	-75.144	-0.233	-0.082
-73.509	-76.276	0.124	0.043
-72.494	139.241	-0.077	0.101
-71.480	663.192	-0.029	0.073
-70.465	27.026	-0.083	-0.069
-69.451	123.909	0.149	-0.185
-68.436	-150.340	-0.353	-0.027
-67.422	78.350	0.295	-0.311
-66.407	800.000	0.081	-0.338
-65.392	-200.000	0.037	0.347
-64.378	-200.000	-0.014	-0.278
-63.363	-200.000	0.022	-0.430
-62.349	800.000	0.072	0.198
-61.334	-9.017	-1.483	-0.980
-60.319	347.406	0.260	0.505
-59.305	173.966	-0.597	-0.851
-58.290	64.649	1.102	1.097
-57.276	539.492	0.665	1.561
-56.261	-200.000	110.520	603.230
-55.246	490.079	1527.525	3446.586
-54.232	170.071	2722.139	3840.863
-53.217	98.546	2341.392	2663.242
-52.203	34.528	2087.573	1798.567
-51.188	29.944	2003.612	1684.566
-50.173	28.420	1987.646	1657.305
-49.159	44.508	2046.382	1854.487
-48.144	44.285	2063.118	1867.529
-47.130	30.491	2019.492	1702.656
-46.115	28.239	2009.379	1673.508
-45.100	28.158	2006.220	1670.064
-44.086	28.070	2004.094	1667.433
-43.071	28.001	2001.378	1664.480
-42.057	27.912	2000.205	1662.624
-41.042	27.983	1997.749	1661.161
-40.027	28.073	1995.755	1660.260
-39.013	28.143	1993.864	1659.255
-37.998	28.049	1991.746	1656.575
-36.984	28.133	1989.828	1655.671
-35.969	28.036	1988.014	1653.221
-34.954	28.098	1986.471	1652.428
-33.940	28.110	1984.910	1651.170
-32.925	28.252	1983.014	1650.808
-31.911	28.209	1981.614	1649.190
-30.896	28.181	1979.578	1647.179
-29.881	28.154	1978.884	1646.297
-28.867	28.176	1977.020	1644.877
-27.852	28.189	1975.202	1643.414
-26.838	28.237	1973.555	1642.409
-25.823	28.159	1971.890	1640.262
-24.809	28.226	1969.486	1638.794
-23.794	28.212	1967.653	1637.082
-22.779	28.235	1966.113	1635.943
-21.765	28.232	1964.260	1634.307
-20.750	28.275	1962.487	1633.147
-19.736	28.237	1961.206	1631.685
-18.721	28.257	1959.391	1630.284
-17.706	28.183	1958.101	1628.484
-16.692	28.185	1956.132	1626.802
-15.677	28.237	1954.411	1625.773
-14.663	28.180	1953.561	1624.491
-13.648	28.269	1952.603	1624.416
-12.633	28.235	1950.920	1622.656
-11.619	28.183	1950.239	1621.565
-10.604	28.282	1948.281	1620.744
-9.590	28.191	1947.195	1618.972
-8.575	28.192	1945.576	1617.568
-7.560	28.202	1944.412	1616.627
-6.546	28.235	1942.758	1615.477
-5.531	28.233	1941.909	1614.694
-4.517	28.208	1940.631	1613.343
-3.502	28.244	1939.349	1612.531
-2.487	28.211	1938.400	1611.386
-1.473	28.288	1936.943	1610.791
-0.458	28.320	1932.523	1607.335
0.556	30.665	1913.773	1582.939
1.571	26.683	1896.041	1534.485
2.586	23.034	1919.325	1521.846
3.600	22.066	1955.028	1541.525
4.615	21.361	1948.377	1529.973
5.629	16.628	1846.770	1410.698
6.644	8.567	1730.167	1258.322
7.659	4.573	1695.080	1201.862
8.673	4.200	1692.106	1196.765
9.688	4.340	1691.017	1196.974
10.702	4.443	1689.152	1196.339
11.717	4.377	1686.151	1193.596
12.731	4.920	1685.512	1197.211
13.746	10.407	1698.309	1248.579
14.761	18.431	1716.193	1323.859
15.775	22.164	1722.488	1357.485
16.790	22.452	1721.320	1358.667
17.804	21.609	1718.493	1349.816
18.819	20.640	1715.669	1340.022
19.834	20.110	1712.659	1333.470
20.848	19.928	1711.256	1330.865
21.863	19.790	1710.490	1329.094
22.877	19.695	1709.437	1327.426
23.892	19.580	1707.692	1325.066
24.907	19.483	1706.524	1323.306
25.921	19.510	1705.377	1322.499
26.936	19.356	1704.640	1320.632
27.950	19.442	1703.629	1320.395
28.965	19.400	1703.518	1319.870
29.980	19.496	1702.233	1319.488
30.994	19.655	1701.232	1319.809
32.009	19.727	1700.526	1319.695
33.023	19.877	1699.589	1319.999
34.038	19.833	1698.663	1318.823
35.053	19.737	1697.763	1317.276
36.067	19.679	1696.053	1315.392
37.082	19.609	1694.876	1313.829
38.096	19.631	1694.481	1313.577
39.111	19.590	1694.123	1312.872
40.126	19.667	1692.909	1312.396
41.140	19.669	1691.751	1311.403
42.155	19.386	1690.082	1307.846
43.169	19.207	1688.261	1304.966
44.184	19.100	1687.181	1303.201
45.199	19.101	1685.579	1301.857
46.213	19.090	1684.980	1301.195
47.228	19.157	1684.181	1300.971
48.242	19.346	1683.621	1301.856
49.257	19.538	1682.459	1302.288
50.271	19.573	1681.166	1301.436
51.286	19.447	1680.160	1299.593
52.301	19.468	1678.678	1298.485
53.315	19.570	1676.764	1297.660
54.330	19.405	1675.273	1295.150
55.344	19.304	1673.262	1292.725
56.359	19.140	1672.651	1290.909
57.374	19.127	1671.568	1289.859
58.388	19.304	1669.789	1289.698
59.403	19.171	1668.166	1287.338
60.417	19.117	1667.002	1285.921
61.432	18.971	1666.507	1284.339
62.447	18.988	1665.155	1283.306
63.461	18.865	1664.308	1281.623
64.476	18.828	1662.961	1280.201
65.490	18.792	1661.966	1279.053
66.505	18.873	1660.051	1278.069
67.520	18.898	1659.258	1277.529
68.534	18.936	1658.224	1276.902
69.549	19.004	1657.049	1276.388
70.563	18.945	1655.907	1274.955
71.578	18.836	1654.789	1273.176
72.593	18.773	1653.977	1271.969
73.607	18.601	1653.084	1269.898
74.622	18.569	1651.481	1268.323
75.636	18.590	1650.484	1267.596
76.651	18.674	1649.637	1267.454
77.666	18.687	1649.007	1266.953
78.680	18.752	1647.866	1266.442
79.695	18.781	1647.293	1266.105
80.709	18.865	1646.396	1265.924
81.724	19.045	1645.607	1266.532
82.739	19.118	1645.492	1266.864
83.753	19.152	1644.191	1266.001
84.768	19.299	1643.409	1266.366
85.782	19.460	1643.148	1267.239
86.797	19.736	1642.101	1268.342
87.812	19.692	1641.789	1267.669
88.826	19.642	1640.278	1266.020
89.841	19.480	1639.297	1263.964
90.855	19.540	1637.768	1263.115
91.870	19.496	1637.465	1262.451
92.884	19.679	1636.417	1262.864
93.899	19.790	1635.107	1262.555
94.914	19.749	1633.852	1261.175
95.928	19.846	1632.760	1260.926
96.943	19.757	1631.753	1259.392
97.957	19.662	1630.301	1257.466
98.972	19.731	1628.437	1256.420
99.987	19.662	1627.430	1255.029
101.001	19.627	1625.945	1253.520
102.016	19.620	1624.233	1252.034
103.030	19.701	1623.327	1251.818
104.045	19.703	1622.033	1250.718
105.060	19.681	1620.209	1249.044
106.074	19.568	1618.724	1246.972
107.089	19.401	1617.240	1244.511
108.103	19.052	1615.215	1240.330
109.118	18.911	1613.719	1238.059
110.133	18.877	1612.267	1236.588
111.147	18.830	1610.915	1235.104
112.162	18.904	1609.839	1234.703
113.176	18.921	1608.562	1233.736
114.191	19.006	1607.282	1233.256
115.206	19.051	1606.227	1232.656
116.220	19.094	1604.794	1231.760
117.235	19.036	1603.696	1230.392
118.249	19.028	1602.279	1229.134
119.264	19.069	1601.010	1228.347
120.279	18.970	1599.426	1226.318
121.293	18.839	1597.986	1224.175
122.308	18.809	1596.691	1222.858
123.322	18.721	1594.780	1220.664
124.337	18.677	1593.329	1219.130
125.352	18.584	1592.302	1217.577
126.366	18.597	1590.915	1216.502
127.381	18.629	1589.369	1215.434
128.395	18.635	1588.579	1214.770
129.410	18.562	1587.176	1213.070
130.424	18.592	1586.107	1212.360
131.439	18.814	1584.359	1212.482
132.454	18.917	1583.777	1212.657
133.468	18.858	1582.646	1211.268
134.483	18.985	1581.607	1211.262
135.497	19.053	1579.492	1210.009
136.512	19.054	1578.142	1208.875
137.527	19.096	1577.350	1208.457
138.541	19.085	1576.368	1207.521
139.556	19.158	1574.796	1206.724
140.570	19.241	1573.659	1206.326
141.585	19.312	1572.473	1205.807
142.600	19.376	1571.539	1205.428
143.614	19.588	1570.222	1205.793
144.629	19.618	1569.308	1205.195
145.643	19.752	1567.985	1205.002
146.658	19.711	1566.693	1203.619
147.673	19.702	1564.982	1202.138
148.687	19.472	1563.948	1199.636
149.702	19.349	1562.537	1197.597
150.716	19.266	1560.246	1195.155
151.731	19.257	1558.495	1193.648
152.746	19.224	1557.621	1192.645
153.760	19.166	1556.157	1191.019
154.775	19.201	1555.072	1190.324
155.789	19.329	1553.896	1190.202
156.804	19.415	1552.667	1189.751
157.819	19.387	1551.988	1188.928
158.833	19.499	1550.698	1188.607
159.848	19.546	1549.552	1187.948
160.862	19.678	1549.218	1188.492
161.877	19.722	1548.232	1187.934
162.892	19.616	1546.209	1185.553
163.906	19.250	1544.437	1181.579
164.921	19.053	1543.904	1179.713
165.935	19.036	1542.441	1178.372
166.950	19.154	1541.260	1178.175
167.964	19.303	1539.976	1178.111
168.979	19.387	1539.306	1178.064
169.994	19.419	1537.844	1177.064
171.008	19.291	1536.900	1175.363
172.023	19.304	1535.998	1174.655
173.037	19.366	1534.698	1173.981
174.052	19.523	1534.008	1174.417
175.067	19.594	1533.018	1174.040
176.081	19.489	1531.507	1172.061
177.096	19.211	1529.752	1168.728
178.110	19.117	1528.536	1167.063
179.125	19.178	1527.525	1166.597
180.140	19.258	1526.519	1166.267
181.154	19.271	1525.683	1165.614
182.169	19.438	1524.703	1165.895
183.183	19.524	1523.948	1165.794
184.198	19.640	1522.755	1165.558
185.213	19.669	1521.831	1164.942
186.227	19.690	1521.153	1164.465
187.242	19.753	1519.720	1163.691
188.256	19.768	1518.982	1163.122
189.271	19.805	1518.177	1162.648
190.286	19.860	1516.832	1161.886
191.300	19.815	1515.821	1160.705
192.315	19.531	1513.670	1157.052
193.329	19.072	1512.481	1152.966
194.344	19.123	1511.496	1152.456
195.359	19.274	1510.358	1152.501
196.373	19.334	1510.094	1152.596
197.388	19.394	1508.849	1151.947
198.402	19.523	1507.654	1151.789
199.417	19.603	1507.183	1151.860
200.432	19.825	1506.742	1152.904
201.446	20.063	1505.300	1153.282
202.461	20.168	1504.844	1153.528
203.475	20.180	1503.696	1152.626
204.490	20.169	1502.558	1151.577
205.504	20.065	1501.364	1149.873
206.519	19.861	1499.502	1146.992
207.534	19.770	1498.117	1145.229
208.548	19.689	1497.449	1144.080
209.563	19.592	1496.503	1142.618
210.577	19.799	1495.389	1143.029
211.592	19.674	1494.671	1141.554
212.607	19.748	1493.773	1141.258
213.621	20.000	1493.152	1142.347
214.636	20.056	1492.895	1142.416
215.650	19.948	1491.393	1140.458
216.665	19.936	1490.426	1139.537
217.680	20.010	1490.215	1139.760
218.694	20.197	1489.636	1140.443
219.709	20.215	1488.886	1139.890
220.723	20.252	1487.564	1139.016
221.738	20.058	1486.879	1137.119
222.753	20.160	1485.446	1136.593
223.767	20.085	1484.906	1135.590
224.782	20.153	1483.318	1134.718
225.796	20.118	1482.490	1133.756
226.811	20.318	1482.314	1134.827
227.826	20.429	1481.353	1134.719
228.840	20.245	1480.566	1132.810
229.855	20.061	1479.417	1130.633
230.869	20.001	1478.148	1129.171
231.884	19.973	1477.208	1128.170
232.899	20.144	1475.248	1127.690
233.913	19.952	1474.276	1125.594
234.928	19.787	1473.333	1123.702
235.942	19.805	1471.715	1122.489
236.957	19.705	1470.281	1120.647
237.972	19.707	1469.499	1119.965
238.986	19.763	1467.741	1118.885
240.001	19.815	1467.312	1118.801
241.015	19.819	1466.390	1118.024
242.030	19.896	1464.689	1117.124
243.045	19.900	1464.068	1116.579
244.059	20.036	1463.225	1116.714
245.074	20.061	1462.611	1116.302
246.088	20.119	1461.895	1116.032
247.103	20.067	1461.700	1115.452
248.117	20.178	1460.885	1115.447
249.132	20.394	1459.893	1115.977
250.147	20.530	1459.491	1116.444
251.161	20.672	1459.265	1117.084
252.176	20.912	1458.643	1118.049
253.190	20.950	1458.127	1117.801
254.205	21.078	1457.180	1117.794
255.220	21.101	1456.410	1117.254
256.234	21.207	1455.469	1117.108
257.249	21.123	1454.502	1115.731
258.263	21.007	1454.356	1114.778
259.278	21.046	1452.899	1113.809
260.293	20.997	1452.021	1112.729
261.307	21.025	1451.142	1112.132
262.322	21.066	1450.935	1112.141
263.336	21.267	1449.825	1112.466
264.351	21.201	1449.073	1111.374
265.366	21.186	1447.912	1110.291
266.380	21.177	1447.399	1109.741
267.395	21.253	1446.280	1109.266
268.409	21.200	1445.373	1108.138
269.424	21.051	1444.003	1106.044
270.439	20.977	1442.758	1104.524
271.453	21.054	1441.219	1103.739
272.468	20.897	1441.201	1102.629
273.482	20.846	1440.049	1101.328
274.497	20.770	1438.799	1099.798
275.512	20.807	1437.870	1099.222
276.526	20.793	1437.112	1098.454
277.541	20.728	1436.224	1097.269
278.555	20.796	1435.196	1096.817
279.570	20.827	1434.380	1096.289
280.585	20.891	1433.756	1096.122
281.599	21.091	1433.117	1096.790
282.614	21.195	1432.407	1096.804
283.628	21.160	1430.975	1095.390
284.643	21.033	1429.605	1093.446
285.657	20.880	1428.473	1091.528
286.672	21.017	1427.240	1091.345
287.687	20.934	1426.665	1090.292
288.701	20.876	1425.830	1089.195
289.716	20.967	1424.583	1088.715
290.730	21.020	1424.091	1088.571
291.745	21.011	1423.091	1087.656
292.760	21.044	1422.444	1087.272
293.774	21.003	1421.692	1086.346
294.789	21.087	1420.610	1085.947
295.803	21.150	1420.384	1086.069
296.818	21.346	1418.980	1086.119
297.833	21.110	1418.113	1083.893
298.847	21.015	1416.729	1082.149
299.862	21.051	1415.962	1081.690
300.876	20.988	1415.122	1080.563
301.891	21.098	1413.649	1080.019
302.906	21.190	1412.958	1079.968
303.920	21.193	1412.998	1079.919
304.935	21.299	1412.514	1080.112
305.949	21.474	1411.378	1080.226
306.964	21.646	1410.642	1080.632
307.979	21.662	1409.822	1080.004
308.993	21.568	1408.089	1078.005
310.008	21.421	1407.485	1076.540
311.022	21.508	1406.519	1076.241
312.037	21.534	1405.904	1075.837
313.052	21.526	1405.026	1075.016
314.066	21.438	1403.663	1073.341
315.081	21.289	1402.614	1071.531
316.095	21.123	1401.028	1069.209
317.110	20.996	1399.510	1067.174
318.125	21.030	1398.476	1066.504
319.139	21.130	1398.016	1066.669
320.154	20.969	1396.984	1064.805
321.168	21.052	1396.025	1064.486
322.183	21.118	1394.835	1063.886
323.197	21.114	1394.129	1063.225
324.212	21.138	1393.238	1062.598
325.227	21.277	1392.563	1062.840
326.241	21.301	1391.634	1062.182
327.256	21.354	1390.676	1061.675
328.270	21.338	1389.638	1060.693
329.285	21.232	1388.576	1059.143
330.300	21.207	1387.937	1058.411
331.314	21.146	1387.056	1057.279
332.329	21.154	1386.360	1056.701
333.343	21.266	1384.839	1056.125
334.358	21.253	1384.474	1055.679
335.373	21.436	1383.617	1056.035
336.387	21.523	1382.900	1055.920
337.402	21.477	1382.663	1055.365
338.416	21.469	1381.844	1054.602
339.431	21.582	1381.596	1055.000
340.446	21.650	1380.552	1054.519
341.460	21.786	1379.535	1054.468
342.475	21.939	1378.599	1054.577
343.489	21.918	1378.613	1054.365
344.504	22.030	1377.856	1054.369
345.519	22.013	1376.764	1053.338
346.533	22.196	1375.514	1053.382
347.548	22.095	1375.191	1052.440
348.562	22.126	1374.087	1051.687
349.577	22.258	1373.672	1052.068
350.592	22.134	1372.145	1050.061
351.606	21.819	1371.293	1047.437
352.621	21.709	1369.621	1045.409
353.635	21.617	1368.393	1043.830
354.650	21.491	1367.081	1041.985
355.665	21.600	1366.328	1041.972
356.679	21.592	1365.443	1041.154
357.694	21.752	1364.170	1041.044
358.708	21.770	1363.210	1040.327
359.723	21.736	1362.740	1039.673
360.738	21.858	1361.877	1039.645
361.752	21.885	1360.492	1038.656
362.767	21.922	1359.192	1037.788
363.781	21.854	1358.647	1036.880
364.796	21.852	1358.054	1036.325
365.810	21.997	1357.316	1036.528
366.825	22.102	1357.072	1036.870
367.840	22.286	1356.248	1037.231
368.854	22.392	1355.750	1037.382
369.869	22.394	1355.394	1037.031
370.883	22.465	1354.520	1036.687
371.898	22.439	1353.930	1035.989
372.913	22.331	1352.401	1034.096
373.927	22.269	1351.527	1032.971
374.942	22.243	1350.884	1032.238
375.956	22.362	1350.084	1032.230
376.971	22.497	1348.965	1032.075
377.986	22.296	1348.591	1030.523
379.000	22.438	1347.487	1030.416
380.015	22.444	1346.918	1029.926
381.029	22.580	1346.238	1030.111
382.044	22.717	1345.656	1030.374
383.059	22.636	1344.957	1029.276
384.073	22.651	1344.602	1029.002
385.088	22.669	1343.566	1028.223
386.102	22.662	1342.795	1027.500
387.117	22.699	1342.114	1027.104
388.132	22.608	1340.859	1025.521
389.146	22.433	1339.960	1023.727
390.161	22.133	1339.199	1021.311
391.175	22.196	1338.525	1021.069
392.190	22.207	1337.462	1020.236
393.205	22.384	1335.985	1020.045
394.219	22.528	1335.743	1020.601
395.234	22.577	1334.711	1020.007
396.248	22.492	1333.405	1018.428
397.263	22.333	1332.281	1016.562
398.278	22.317	1330.976	1015.384
399.292	22.313	1329.216	1013.929
400.307	22.155	1328.046	1012.036
401.321	22.156	1326.976	1011.133
402.336	22.154	1325.687	1010.053
403.350	21.994	1324.836	1008.395
404.365	22.112	1323.844	1008.227
405.380	22.075	1323.079	1007.344
406.394	22.213	1322.296	1007.452
407.409	22.348	1321.891	1007.829
408.423	22.502	1321.127	1008.037
409.438	22.650	1320.544	1008.346
410.453	22.690	1320.003	1008.077
411.467	22.752	1319.546	1007.992
412.482	22.960	1318.563	1008.338
413.496	22.962	1318.277	1008.039
414.511	22.978	1317.418	1007.384
415.526	23.001	1316.952	1007.074
416.540	23.124	1316.529	1007.360
417.555	23.130	1315.872	1006.801
418.569	23.183	1314.949	1006.309
419.584	23.129	1314.622	1005.663
420.599	22.936	1313.781	1003.834
421.613	146.156	1435.427	1794.615
422.628	141.905	1453.125	1794.694
