DTS Sentinel unit serial number:	SN413079Multiplexer serial number:	ORYXHardware model number:	OX4-SRSoftware version number:	ORYX F/W v4.00 Oryx Data Collector v3.7.2.0data status	okinstallation	princeton_trtdifferential loss correction	single-endedforward channel	channel 4reverse channel	N/Adate	2019/09/11time	10:43:10forward acquisition time	60.00reverse acquisition time	0.00gamma	496.2192k internal	0.2294k external	0.2294temperature offset calibration	0.9970default loss term (dB/km)	0.3790temperature slope calibration	1.0000multiplexer offset coefficient	1.0000multiplexer slope coefficient	1.0000fibre end	0.00T internal ref (°C)	36.75T ext. ref 1 (°C)	0.18T ext. ref 2 (°C)	33.79length (m)	temperature (°C)	Stokes	anti-Stokes-747.200	359.511	0.137	-0.280
-746.185	29.982	0.181	0.158
-745.171	-174.186	-0.182	0.005
-744.156	-54.162	0.193	0.090
-743.142	776.316	-0.094	-0.263
-742.127	491.668	-0.050	0.117
-741.112	-47.600	-0.061	0.030
-740.098	616.018	-0.073	-0.187
-739.083	-14.483	0.216	-0.142
-738.069	404.510	-0.097	0.210
-737.054	-200.000	0.012	0.122
-736.039	-124.109	-0.146	-0.023
-735.025	392.538	-0.099	0.211
-734.010	-76.658	-0.240	0.086
-732.996	33.315	-0.126	-0.112
-731.981	-135.521	0.382	0.047
-730.966	56.656	0.194	-0.193
-729.952	800.000	-0.082	-0.269
-728.937	-200.000	-0.069	-0.317
-727.923	-21.689	-0.200	-0.124
-726.908	33.640	-0.252	-0.224
-725.894	-200.000	-0.032	0.272
-724.879	800.000	-0.100	-0.340
-723.864	800.000	-0.092	-0.293
-722.850	87.147	0.147	-0.166
-721.835	-113.827	-0.244	0.048
-720.821	-74.958	0.106	0.039
-719.806	666.099	0.040	0.105
-718.791	33.981	-0.112	0.100
-717.777	-200.000	-0.002	-0.071
-716.762	-14.069	0.142	-0.094
-715.748	94.007	0.156	0.180
-714.733	-3.637	0.411	0.292
-713.718	-45.562	0.286	0.145
-712.704	-49.231	-0.026	-0.013
-711.689	-200.000	-0.024	-0.280
-710.675	-118.446	-0.462	-0.084
-709.660	183.999	0.089	-0.135
-708.645	-115.748	0.231	-0.044
-707.631	-1.169	-0.112	0.081
-706.616	800.000	-0.052	-0.214
-705.602	-200.000	-0.041	0.182
-704.587	-200.000	-0.018	0.193
-703.572	594.172	-0.096	0.241
-702.558	20.013	-0.225	0.185
-701.543	151.426	-0.102	0.142
-700.529	-83.764	-0.138	0.045
-699.514	-71.831	-0.398	-0.151
-698.499	516.993	-0.050	0.119
-697.485	494.975	-0.052	0.123
-696.470	-156.220	0.308	0.020
-695.456	-36.815	-0.138	-0.076
-694.441	0.077	-0.325	0.237
-693.426	-117.220	0.381	-0.071
-692.412	21.256	0.199	-0.165
-691.397	621.784	-0.117	0.300
-690.383	30.193	0.149	-0.130
-689.368	-93.367	0.162	-0.046
-688.354	-117.360	-0.313	0.058
-687.339	102.022	-0.119	0.141
-686.324	-1.654	-0.046	-0.033
-685.310	-21.555	-0.186	-0.116
-684.295	64.326	-0.121	0.124
-683.281	-200.000	0.013	-0.229
-682.266	-122.161	0.019	0.003
-681.251	-3.605	0.240	-0.170
-680.237	379.766	-0.117	-0.244
-679.222	226.397	0.146	0.241
-678.208	800.000	-0.093	0.268
-677.193	-83.606	0.146	0.048
-676.178	-63.526	-0.215	-0.090
-675.164	453.367	-0.100	-0.227
-674.149	34.221	-0.191	0.170
-673.135	741.488	0.054	0.147
-672.120	800.000	-0.051	-0.186
-671.105	-166.539	0.324	-0.014
-670.091	800.000	-0.053	0.151
-669.076	-200.000	0.015	-0.168
-668.062	-110.256	0.233	0.050
-667.047	362.143	-0.243	-0.497
-666.032	-159.007	0.573	-0.033
-665.018	10.155	-0.200	-0.155
-664.003	0.112	0.202	0.147
-662.989	-122.900	0.142	-0.023
-661.974	-200.000	0.034	-0.304
-660.959	503.929	-0.124	-0.292
-659.945	765.290	-0.025	-0.071
-658.930	-2.436	0.077	-0.055
-657.916	-7.183	0.323	0.223
-656.901	-97.137	0.195	0.052
-655.886	-200.000	0.004	-0.165
-654.872	160.635	0.092	-0.131
-653.857	-52.291	-0.088	0.041
-652.843	-111.937	-0.107	-0.022
-651.828	194.975	-0.200	0.309
-650.814	-86.833	-0.453	-0.141
-649.799	202.349	0.031	0.048
-648.784	-57.913	-0.089	-0.040
-647.770	-103.309	-0.314	-0.076
-646.755	67.554	0.141	-0.147
-645.741	-147.360	-0.260	0.022
-644.726	800.000	0.078	-0.324
-643.711	143.673	0.200	0.271
-642.697	-153.228	0.295	0.021
-641.682	-32.712	0.151	0.086
-640.668	74.538	-0.288	0.308
-639.653	-200.000	0.024	-0.149
-638.638	225.898	-0.127	0.210
-637.624	800.000	-0.013	-0.051
-636.609	-24.407	-0.112	0.068
-635.595	800.000	-0.045	-0.182
-634.580	-66.585	-0.088	-0.035
-633.565	800.000	0.066	-0.224
-632.551	-24.259	-0.184	0.112
-631.536	114.892	0.127	0.158
-630.522	53.150	-0.076	-0.074
-629.507	-48.950	0.166	-0.081
-628.492	-200.000	0.028	0.178
-627.478	-200.000	0.004	-0.020
-626.463	-5.737	-0.108	0.075
-625.449	-42.775	0.020	-0.011
-624.434	20.898	-0.062	-0.051
-623.419	800.000	0.080	-0.233
-622.405	-49.830	-0.227	-0.110
-621.390	60.107	-0.226	0.228
-620.376	-71.802	0.430	-0.163
-619.361	413.132	0.144	-0.311
-618.346	-39.029	-0.250	0.134
-617.332	-22.799	-0.238	-0.146
-616.317	52.971	-0.083	-0.081
-615.303	-200.000	-0.050	-0.315
-614.288	-116.874	0.163	-0.030
-613.273	-133.601	-0.322	0.041
-612.259	60.335	-0.050	-0.050
-611.244	23.396	0.050	-0.042
-610.230	-149.153	-0.105	-0.009
-609.215	287.661	-0.101	0.185
-608.201	65.804	-0.168	-0.173
-607.186	-12.988	0.272	0.180
-606.171	-61.992	-0.259	-0.110
-605.157	-200.000	-0.014	0.098
-604.142	170.431	-0.205	0.299
-603.128	471.718	-0.095	-0.219
-602.113	244.472	0.093	-0.159
-601.098	237.347	0.156	-0.262
-600.084	756.727	0.117	-0.322
-599.069	-59.453	-0.060	0.026
-598.055	402.295	-0.058	0.123
-597.040	-133.490	-0.160	0.020
-596.025	-78.462	-0.406	0.141
-595.011	-200.000	-0.005	0.200
-593.996	125.086	-0.141	0.181
-592.982	-142.808	-0.110	-0.011
-591.967	-200.000	0.038	-0.299
-590.952	-112.873	0.154	0.031
-589.938	39.626	0.088	0.080
-588.923	-62.212	-0.223	0.094
-587.909	-69.861	-0.072	-0.028
-586.894	800.000	0.031	-0.088
-585.879	-200.000	-0.016	0.426
-584.865	23.008	-0.080	-0.067
-583.850	-109.005	-0.153	0.033
-582.836	-200.000	0.047	-0.219
-581.821	313.173	-0.138	-0.264
-580.806	-155.597	0.180	-0.012
-579.792	-200.000	-0.073	0.364
-578.777	13.677	0.245	0.193
-577.763	800.000	-0.071	0.221
-576.748	-21.171	0.075	-0.047
-575.733	800.000	0.059	-0.207
-574.719	800.000	0.047	-0.133
-573.704	-200.000	0.017	0.085
-572.690	-86.886	-0.385	-0.119
-571.675	800.000	0.063	0.211
-570.661	-199.212	-0.094	-0.001
-569.646	-200.000	0.054	-0.247
-568.631	-122.541	-0.325	-0.054
-567.617	-66.991	-0.320	-0.128
-566.602	35.962	0.089	-0.079
-565.588	539.921	0.137	-0.332
-564.573	56.104	0.059	-0.058
-563.558	-200.000	0.007	0.190
-562.544	784.856	-0.097	0.270
-561.529	105.017	-0.190	0.227
-560.515	36.368	0.381	-0.341
-559.500	-69.962	0.261	-0.101
-558.485	87.771	-0.076	0.086
-557.471	-164.657	0.042	-0.002
-556.456	-112.928	-0.326	-0.066
-555.442	126.586	-0.131	-0.169
-554.427	374.417	-0.034	-0.070
-553.412	-80.086	-0.345	0.117
-552.398	-154.009	0.145	0.010
-551.383	-47.579	-0.418	0.206
-550.369	60.206	0.021	0.021
-549.354	733.159	0.070	-0.190
-548.339	-200.000	-0.036	-0.223
-547.325	92.586	0.077	-0.088
-546.310	-53.668	-0.236	0.110
-545.296	23.106	0.205	0.171
-544.281	-57.092	0.154	-0.069
-543.266	365.357	-0.046	0.093
-542.252	42.789	-0.254	0.235
-541.237	-51.635	-0.063	-0.030
-540.223	-36.010	0.245	-0.135
-539.208	-142.065	0.270	-0.027
-538.193	-148.592	0.146	-0.012
-537.179	-133.720	0.433	-0.055
-536.164	-30.136	0.250	0.144
-535.150	592.827	0.028	0.070
-534.135	-123.451	0.379	0.061
-533.121	276.015	0.088	-0.158
-532.106	-91.079	0.304	-0.088
-531.091	110.934	0.052	0.064
-530.077	-200.000	-0.042	0.281
-529.062	-104.300	-0.084	-0.020
-528.048	-200.000	0.022	0.423
-527.033	621.349	0.102	-0.261
-526.018	-200.000	0.023	0.119
-525.004	-195.383	-0.355	-0.003
-523.989	157.768	-0.174	-0.245
-522.975	115.278	0.127	-0.158
-521.960	17.672	-0.140	-0.113
-520.945	800.000	0.051	0.183
-519.931	-152.797	-0.063	-0.005
-518.916	-83.234	0.335	0.109
-517.902	-82.742	0.328	-0.108
-516.887	800.000	-0.015	0.050
-515.872	189.627	-0.125	0.190
-514.858	-162.387	-0.097	-0.005
-513.843	244.179	-0.140	-0.238
-512.829	-25.562	-0.105	0.063
-511.814	-16.435	-0.183	-0.118
-510.799	-16.750	0.273	-0.175
-509.785	496.938	0.102	-0.238
-508.770	-200.000	-0.081	0.000
-507.756	800.000	-0.096	-0.296
-506.741	800.000	-0.025	-0.079
-505.726	-200.000	0.018	0.283
-504.712	-200.000	-0.033	-0.203
-503.697	800.000	0.032	0.140
-502.683	-113.389	-0.340	-0.068
-501.668	224.021	0.102	0.166
-500.653	800.000	0.098	0.305
-499.639	-200.000	0.002	-0.020
-498.624	-8.562	-0.146	0.099
-497.610	-200.000	-0.006	0.044
-496.595	28.784	0.122	-0.105
-495.581	-200.000	0.008	-0.100
-494.566	-198.113	0.125	-0.001
-493.551	25.417	0.007	-0.006
-492.537	109.628	-0.162	0.196
-491.522	-90.541	0.075	-0.022
-490.508	800.000	0.075	0.252
-489.493	-62.830	0.132	0.055
-488.478	42.401	0.165	0.152
-487.464	800.000	0.023	0.065
-486.449	212.633	-0.164	-0.262
-485.435	-1.878	-0.146	-0.104
-484.420	10.938	0.155	-0.120
-483.405	-35.441	0.244	0.134
-482.391	125.401	0.088	-0.112
-481.376	800.000	-0.103	0.311
-480.362	-107.634	0.083	0.018
-479.347	106.964	-0.029	-0.035
-478.332	-200.000	0.063	0.357
-477.318	321.096	-0.101	-0.194
-476.303	14.977	0.381	0.302
-475.289	-4.462	0.197	-0.138
-474.274	-200.000	-0.036	-0.195
-473.259	-174.693	0.297	0.009
-472.245	800.000	-0.031	0.088
-471.230	175.390	-0.145	0.212
-470.216	-200.000	0.036	0.252
-469.201	-115.186	-0.163	-0.031
-468.186	-83.743	0.086	0.028
-467.172	703.441	-0.055	0.145
-466.157	-200.000	-0.022	-0.216
-465.143	-97.287	0.162	0.043
-464.128	-22.352	0.128	-0.079
-463.113	80.035	0.161	-0.175
-462.099	58.222	-0.223	0.222
-461.084	-200.000	0.075	0.392
-460.070	-98.163	0.238	-0.062
-459.055	65.210	0.233	0.238
-458.040	44.306	0.152	-0.141
-457.026	-157.534	-0.236	0.014
-456.011	603.377	-0.081	0.205
-454.997	-75.736	-0.200	-0.072
-453.982	-38.042	0.106	0.057
-452.968	696.270	-0.067	-0.178
-451.953	-200.000	-0.017	-0.116
-450.938	-200.000	-0.038	-0.429
-449.924	223.980	-0.244	-0.398
-448.909	-119.875	-0.436	-0.076
-447.895	-92.030	0.219	-0.063
-446.880	-163.643	0.396	-0.019
-445.865	-59.912	0.086	0.037
-444.851	800.000	-0.146	0.447
-443.836	-172.943	-0.322	-0.010
-442.822	-200.000	-0.017	-0.378
-441.807	800.000	-0.065	0.197
-440.792	-96.280	0.097	-0.026
-439.778	-107.360	0.500	0.111
-438.763	-127.472	-0.169	-0.025
-437.749	508.629	0.104	0.245
-436.734	20.874	0.125	-0.102
-435.719	19.053	-0.300	-0.243
-434.705	800.000	0.056	-0.160
-433.690	-165.552	0.222	0.010
-432.676	-89.764	0.360	-0.107
-431.661	-200.000	0.045	-0.297
-430.646	-200.000	-0.040	0.214
-429.632	153.661	-0.144	-0.199
-428.617	-90.998	-0.348	0.101
-427.603	-47.640	-0.135	-0.066
-426.588	54.662	0.192	0.187
-425.573	122.134	-0.145	-0.183
-424.559	597.758	0.101	0.254
-423.544	-90.719	-0.140	-0.041
-422.530	-200.000	0.010	-0.345
-421.515	704.977	0.012	-0.033
-420.500	-200.000	-0.009	-0.059
-419.486	45.535	-0.310	0.289
-418.471	-117.145	0.312	-0.057
-417.457	249.663	0.096	-0.164
-416.442	-110.078	-0.035	-0.007
-415.428	276.211	0.055	0.098
-414.413	-105.476	0.394	-0.090
-413.398	79.694	-0.110	0.119
-412.384	-50.864	-0.280	0.133
-411.369	-200.000	0.004	0.048
-410.355	800.000	-0.038	0.135
-409.340	17.858	-0.302	0.243
-408.325	-180.711	-0.327	0.007
-407.311	88.639	-0.128	0.143
-406.296	182.982	0.159	0.237
-405.282	7.899	0.084	-0.063
-404.267	302.996	-0.127	0.238
-403.252	-200.000	-0.009	-0.076
-402.238	-200.000	-0.023	0.227
-401.223	-38.234	0.237	0.127
-400.209	-107.568	-0.134	-0.030
-399.194	800.000	-0.098	-0.366
-398.179	-200.000	-0.006	0.094
-397.165	-109.485	-0.061	0.013
-396.150	68.827	0.261	-0.270
-395.136	-119.433	-0.250	-0.044
-394.121	-180.235	-0.382	0.008
-393.106	16.052	-0.144	-0.115
-392.092	90.356	-0.119	-0.134
-391.077	134.409	-0.106	0.139
-390.063	444.862	-0.043	-0.096
-389.048	-200.000	0.019	-0.098
-388.033	358.151	-0.123	0.248
-387.019	-30.342	-0.315	0.180
-386.004	-200.000	-0.007	-0.215
-384.990	-127.334	0.175	0.026
-383.975	308.048	0.131	-0.247
-382.960	-200.000	-0.000	-0.057
-381.946	258.972	0.147	-0.255
-380.931	-200.000	-0.036	-0.186
-379.917	-135.403	-0.043	0.005
-378.902	32.074	-0.249	0.217
-377.888	-200.000	0.021	0.143
-376.873	800.000	0.038	-0.128
-375.858	332.652	0.154	-0.300
-374.844	-200.000	0.016	0.107
-373.829	-200.000	0.015	0.203
-372.815	800.000	-0.075	-0.255
-371.800	-63.307	-0.195	-0.081
-370.785	-200.000	-0.034	-0.288
-369.771	-28.145	0.243	-0.141
-368.756	800.000	0.068	-0.243
-367.742	243.923	-0.154	-0.260
-366.727	69.586	0.092	0.095
-365.712	275.819	0.089	-0.160
-364.698	-131.002	-0.150	-0.020
-363.683	-67.908	0.175	0.069
-362.669	-169.697	-0.110	-0.004
-361.654	381.102	-0.082	0.169
-360.639	36.110	0.178	-0.158
-359.625	800.000	0.040	-0.120
-358.610	-74.171	-0.559	-0.204
-357.596	-79.304	0.181	-0.062
-356.581	-87.357	-0.168	0.051
-355.566	92.150	-0.126	0.143
-354.552	-79.601	0.035	0.012
-353.537	702.440	-0.129	-0.342
-352.523	162.759	0.132	-0.186
-351.508	-22.380	0.058	0.035
-350.493	-200.000	0.006	-0.342
-349.479	-200.000	0.018	-0.172
-348.464	264.520	-0.075	-0.131
-347.450	-97.133	0.259	-0.068
-346.435	107.159	-0.256	-0.307
-345.420	-25.216	0.104	-0.062
-344.406	-200.000	0.007	0.131
-343.391	-87.012	0.109	-0.034
-342.377	-200.000	-0.018	0.306
-341.362	348.934	0.132	-0.262
-340.348	258.932	0.198	0.344
-339.333	22.327	-0.273	0.225
-338.318	684.180	-0.034	-0.090
-337.304	342.632	-0.078	-0.154
-336.289	-159.161	0.068	-0.004
-335.275	-200.000	-0.003	0.247
-334.260	319.857	-0.055	-0.105
-333.245	-42.325	0.101	-0.052
-332.231	156.441	-0.030	0.042
-331.216	800.000	-0.071	0.215
-330.202	-200.000	-0.004	0.193
-329.187	800.000	-0.103	0.350
-328.172	-200.000	0.047	0.350
-327.158	-200.000	-0.002	-0.195
-326.143	223.836	0.167	-0.272
-325.129	-82.649	0.228	0.074
-324.114	-200.000	-0.038	-0.340
-323.099	-20.959	0.194	0.120
-322.085	-137.695	0.125	-0.014
-321.070	-200.000	-0.023	-0.197
-320.056	800.000	0.129	-0.396
-319.041	80.080	0.135	-0.146
-318.026	37.322	-0.068	-0.060
-317.012	256.968	0.080	-0.138
-315.997	-200.000	-0.033	-0.241
-314.983	26.268	-0.222	0.187
-313.968	-82.215	-0.155	0.051
-312.953	82.003	0.207	-0.226
-311.939	800.000	0.085	0.259
-310.924	-200.000	-0.008	0.374
-309.910	-67.179	0.141	0.056
-308.895	223.785	-0.091	-0.147
-307.880	-200.000	0.007	0.104
-306.866	800.000	0.073	-0.219
-305.851	800.000	-0.068	0.300
-304.837	-200.000	-0.009	-0.098
-303.822	-200.000	0.024	-0.182
-302.807	-200.000	-0.045	0.360
-301.793	-200.000	0.017	0.206
-300.778	-200.000	-0.028	0.141
-299.764	171.855	0.235	0.340
-298.749	43.575	0.280	0.258
-297.735	51.187	-0.268	-0.256
-296.720	800.000	-0.061	-0.185
-295.705	-200.000	-0.005	0.064
-294.691	513.683	-0.030	-0.070
-293.676	-62.305	0.400	-0.167
-292.662	-96.061	0.334	0.089
-291.647	-22.921	-0.374	0.227
-290.632	187.294	0.167	0.250
-289.618	800.000	0.041	0.159
-288.603	-110.428	0.338	-0.070
-287.589	800.000	-0.030	-0.128
-286.574	-200.000	0.019	0.082
-285.559	-59.001	0.358	-0.155
-284.545	279.597	-0.186	0.334
-283.530	-49.106	0.234	0.112
-282.516	-200.000	0.011	-0.235
-281.501	-200.000	0.041	-0.254
-280.486	800.000	0.039	-0.118
-279.472	141.845	0.271	0.361
-278.457	-75.823	-0.137	0.049
-277.443	800.000	0.058	-0.164
-276.428	-26.600	0.239	0.141
-275.413	32.320	-0.030	0.026
-274.399	-200.000	-0.001	-0.101
-273.384	-52.422	0.368	-0.171
-272.370	800.000	0.034	0.140
-271.355	219.930	0.062	0.100
-270.340	800.000	-0.062	-0.216
-269.326	166.143	-0.154	-0.220
-268.311	-9.966	0.168	-0.112
-267.297	162.078	0.264	-0.372
-266.282	-110.193	-0.058	-0.012
-265.267	172.559	0.044	-0.064
-264.253	6.300	-0.115	0.086
-263.238	-200.000	-0.014	0.140
-262.224	800.000	-0.081	-0.245
-261.209	-41.916	0.231	-0.119
-260.195	202.683	-0.252	0.391
-259.180	741.197	0.046	0.124
-258.165	-200.000	0.020	0.108
-257.151	22.291	0.255	0.209
-256.136	-39.760	-0.121	0.064
-255.122	800.000	-0.040	-0.158
-254.107	-59.974	-0.354	-0.152
-253.092	-200.000	-0.011	0.122
-252.078	129.504	-0.182	-0.233
-251.063	800.000	-0.016	0.066
-250.049	-73.591	0.117	0.043
-249.034	-200.000	0.016	0.318
-248.019	-63.796	-0.233	0.096
-247.005	211.345	0.221	-0.349
-245.990	-86.295	-0.350	-0.108
-244.976	-200.000	0.003	-0.210
-243.961	800.000	-0.046	-0.180
-242.946	-102.255	0.337	-0.081
-241.932	132.623	0.058	-0.075
-240.917	-200.000	0.011	-0.093
-239.903	66.123	-0.171	0.174
-238.888	-94.267	-0.195	-0.053
-237.873	-124.954	-0.176	-0.027
-236.859	-67.407	0.047	0.019
-235.844	42.651	0.091	-0.083
-234.830	29.114	-0.282	0.240
-233.815	113.843	-0.157	-0.191
-232.800	800.000	0.064	0.223
-231.786	-123.350	-0.154	0.025
-230.771	-200.000	0.045	0.230
-229.757	-200.000	0.009	0.103
-228.742	-200.000	-0.052	0.383
-227.727	60.728	0.103	0.103
-226.713	-200.000	-0.007	-0.103
-225.698	712.895	-0.074	0.197
-224.684	800.000	-0.112	-0.347
-223.669	157.302	0.120	-0.166
-222.655	244.673	0.203	0.341
-221.640	184.801	-0.089	0.132
-220.625	147.155	-0.164	0.222
-219.611	75.468	-0.019	-0.020
-218.596	395.017	-0.082	0.172
-217.582	3.478	-0.289	-0.211
-216.567	-43.506	0.096	0.049
-215.552	-200.000	0.006	0.273
-214.538	-34.424	-0.341	0.187
-213.523	150.813	0.231	-0.314
-212.509	-200.000	0.014	0.461
-211.494	363.443	0.162	-0.326
-210.479	800.000	-0.075	-0.234
-209.465	800.000	0.091	0.297
-208.450	-200.000	0.014	0.086
-207.436	131.582	0.096	0.124
-206.421	-200.000	0.073	-0.492
-205.406	-106.134	0.333	0.075
-204.392	-47.365	0.148	0.072
-203.377	50.972	-0.074	0.070
-202.363	-200.000	-0.008	-0.057
-201.348	-200.000	-0.039	-0.225
-200.333	156.621	-0.034	-0.047
-199.319	-129.791	0.173	0.024
-198.304	-9.688	0.144	0.096
-197.290	579.327	0.046	-0.112
-196.275	59.385	0.190	0.187
-195.260	53.854	-0.262	0.252
-194.246	514.975	0.115	0.270
-193.231	326.890	-0.161	0.308
-192.217	317.645	-0.097	0.183
-191.202	-15.898	0.189	0.120
-190.187	-200.000	0.074	-0.343
-189.173	115.277	-0.183	-0.224
-188.158	-200.000	-0.042	0.193
-187.144	-118.184	-0.218	0.039
-186.129	656.006	0.070	-0.179
-185.114	-9.006	-0.201	0.135
-184.100	-124.703	-0.067	0.010
-183.085	-200.000	-0.005	0.365
-182.071	8.977	-0.307	-0.232
-181.056	292.070	0.140	-0.255
-180.042	198.300	-0.135	0.206
-179.027	-172.273	-0.280	0.009
-178.012	257.830	0.034	0.059
-176.998	10.652	-0.176	0.134
-175.983	-63.798	0.004	-0.002
-174.969	-44.467	0.454	0.227
-173.954	94.246	0.169	0.192
-172.939	-144.035	0.032	0.003
-171.925	-41.968	0.100	-0.051
-170.910	-150.922	0.119	0.009
-169.896	15.156	0.147	-0.115
-168.881	557.055	-0.102	0.245
-167.866	-110.337	0.274	-0.057
-166.852	69.349	-0.094	-0.097
-165.837	105.506	0.116	0.138
-164.823	111.942	-0.095	0.114
-163.808	-200.000	0.035	0.167
-162.793	-46.282	-0.381	0.187
-161.779	-200.000	-0.013	-0.178
-160.764	-108.372	0.088	-0.019
-159.750	-90.097	0.178	0.052
-158.735	-66.336	0.061	-0.024
-157.720	-34.458	0.144	-0.079
-156.706	95.863	0.142	0.162
-155.691	-75.644	-0.151	-0.054
-154.677	5.807	-0.087	0.064
-153.662	-200.000	0.014	-0.233
-152.647	-68.418	0.124	0.048
-151.633	800.000	0.016	0.063
-150.618	-97.024	0.156	0.041
-149.604	-27.905	-0.269	0.156
-148.589	-200.000	-0.048	0.220
-147.574	-200.000	-0.040	-0.213
-146.560	-66.146	-0.120	-0.048
-145.545	-15.087	0.367	0.235
-144.531	63.899	-0.088	0.088
-143.516	-200.000	-0.013	0.068
-142.502	-120.083	0.046	0.008
-141.487	-200.000	0.010	0.114
-140.472	-102.264	-0.097	-0.023
-139.458	-45.174	-0.119	-0.059
-138.443	-200.000	-0.018	0.276
-137.429	476.976	-0.080	0.181
-136.414	-200.000	-0.051	-0.503
-135.399	303.704	-0.052	-0.097
-134.385	-200.000	-0.007	-0.111
-133.370	-102.791	0.243	0.058
-132.356	-61.703	-0.261	-0.109
-131.341	-15.702	0.203	0.129
-130.326	191.826	0.016	0.024
-129.312	409.479	0.084	0.178
-128.297	146.611	0.146	-0.196
-127.283	-62.676	-0.231	0.096
-126.268	-59.875	0.283	-0.121
-125.253	495.430	-0.073	0.169
-124.239	-109.326	-0.379	0.080
-123.224	800.000	0.060	0.213
-122.210	90.218	0.178	0.198
-121.195	-14.949	0.311	-0.199
-120.180	349.986	-0.197	-0.389
-119.166	-44.729	0.134	-0.067
-118.151	-61.137	0.093	-0.039
-117.137	268.388	-0.093	0.163
-116.122	-125.108	-0.311	-0.048
-115.107	-35.930	0.228	0.123
-114.093	449.930	-0.026	-0.057
-113.078	58.677	-0.020	0.020
-112.064	800.000	-0.100	-0.349
-111.049	-143.184	0.211	-0.020
-110.034	207.874	0.028	-0.043
-109.020	800.000	-0.059	-0.189
-108.005	23.627	0.178	0.146
-106.991	-200.000	-0.006	-0.202
-105.976	-200.000	0.020	0.170
-104.962	-200.000	-0.022	0.191
-103.947	3.050	0.212	0.153
-102.932	-66.126	0.061	0.024
-101.918	-80.422	0.291	0.097
-100.903	24.743	0.242	-0.200
-99.889	800.000	-0.036	-0.147
-98.874	-52.744	0.391	-0.180
-97.859	-200.000	0.008	-0.441
-96.845	325.559	0.133	0.253
-95.830	6.935	0.177	-0.132
-94.816	-19.536	-0.101	0.062
-93.801	166.985	-0.177	0.250
-92.786	-1.946	0.243	0.170
-91.772	-178.915	0.082	-0.002
-90.757	-137.209	-0.111	0.013
-89.743	-200.000	-0.031	0.158
-88.728	-30.920	0.217	0.122
-87.713	800.000	0.041	0.144
-86.699	58.438	0.246	0.240
-85.684	-116.609	0.240	-0.044
-84.670	-130.714	0.184	0.025
-83.655	-100.018	0.060	-0.015
-82.640	-99.220	0.251	-0.063
-81.626	276.130	0.112	0.199
-80.611	169.729	0.109	0.155
-79.597	-200.000	-0.027	0.194
-78.582	-6.809	-0.196	0.133
-77.567	103.545	0.171	0.200
-76.553	-136.229	-0.171	-0.020
-75.538	-200.000	0.021	-0.375
-74.524	-200.000	-0.014	-0.288
-73.509	188.130	-0.262	-0.390
-72.494	-155.114	-0.214	-0.014
-71.480	-200.000	0.010	0.084
-70.465	800.000	0.102	0.331
-69.451	800.000	-0.058	-0.233
-68.436	296.495	0.191	0.349
-67.422	-109.937	-0.390	0.081
-66.407	-62.002	-0.089	-0.037
-65.392	-135.436	0.083	0.010
-64.378	15.014	0.152	-0.119
-63.363	-17.044	-0.089	0.056
-62.349	-172.251	0.506	-0.016
-61.334	-36.008	-0.971	-0.523
-60.319	237.406	0.232	0.383
-59.305	-200.000	0.121	-1.228
-58.290	93.786	0.735	0.829
-57.276	152.121	0.936	1.272
-56.261	-200.000	87.488	501.337
-55.246	536.786	1380.322	3263.303
-54.232	181.072	2621.014	3834.921
-53.217	108.506	2387.599	2838.067
-52.203	42.999	2128.777	1932.746
-51.188	38.471	2037.041	1807.688
-50.173	36.969	2017.174	1776.227
-49.159	49.863	2061.974	1935.360
-48.144	53.038	2081.390	1982.936
-47.130	39.279	2042.715	1819.912
-46.115	36.775	2032.015	1787.221
-45.100	36.780	2028.423	1784.039
-44.086	36.735	2026.302	1781.691
-43.071	36.548	2024.374	1778.205
-42.057	36.541	2021.995	1775.981
-41.042	36.634	2019.852	1774.876
-40.027	36.741	2017.703	1773.899
-39.013	36.722	2015.815	1771.995
-37.998	36.624	2014.434	1769.814
-36.984	36.624	2012.903	1768.403
-35.969	36.615	2010.572	1766.203
-34.954	36.708	2008.946	1765.550
-33.940	36.742	2007.137	1764.199
-32.925	36.699	2006.334	1763.036
-31.911	36.769	2003.839	1761.408
-30.896	36.842	2001.743	1760.162
-29.881	36.832	2000.212	1758.655
-28.867	36.791	1998.860	1757.020
-27.852	36.808	1996.847	1755.337
-26.838	36.773	1995.338	1753.625
-25.823	36.797	1992.942	1751.662
-24.809	36.776	1991.572	1750.207
-23.794	36.798	1989.737	1748.716
-22.779	36.818	1987.621	1746.970
-21.765	36.772	1986.368	1745.382
-20.750	36.747	1984.672	1743.598
-19.736	36.647	1983.360	1741.481
-18.721	36.729	1981.866	1740.835
-17.706	36.712	1980.479	1739.392
-16.692	36.763	1978.225	1737.805
-15.677	36.790	1976.571	1736.522
-14.663	36.767	1975.021	1734.892
-13.648	36.800	1973.850	1734.087
-12.633	36.794	1972.777	1733.018
-11.619	36.824	1971.532	1732.128
-10.604	36.825	1969.429	1730.216
-9.590	36.794	1968.372	1728.948
-8.575	36.734	1967.381	1727.465
-7.560	36.764	1966.032	1726.484
-6.546	36.791	1964.317	1725.154
-5.531	36.768	1963.030	1723.749
-4.517	36.801	1961.992	1723.060
-3.502	36.748	1960.956	1721.611
-2.487	36.725	1959.401	1719.976
-1.473	36.723	1958.872	1719.424
-0.458	36.970	1953.674	1716.978
0.556	35.133	1934.803	1691.858
1.571	31.515	1916.191	1643.713
2.586	27.750	1939.832	1630.273
3.600	26.588	1977.618	1651.296
4.615	25.748	1972.535	1639.258
5.629	18.922	1865.055	1490.827
6.644	6.798	1736.043	1289.143
7.659	0.798	1693.302	1209.417
8.673	0.319	1689.094	1202.488
9.688	0.177	1688.085	1200.527
10.702	0.182	1686.246	1199.152
11.717	0.033	1683.345	1195.797
12.731	0.304	1682.597	1197.318
13.746	7.499	1701.059	1267.982
14.761	18.301	1725.643	1373.308
15.775	22.974	1734.321	1417.673
16.790	23.349	1733.961	1420.256
17.804	23.543	1733.177	1421.043
18.819	23.544	1732.465	1420.346
19.834	23.647	1731.137	1419.950
20.848	23.858	1731.295	1421.645
21.863	23.921	1729.830	1420.818
22.877	23.831	1729.517	1419.714
23.892	23.893	1728.312	1419.101
24.907	23.882	1727.313	1418.063
25.921	23.889	1726.737	1417.518
26.936	23.863	1725.196	1415.927
27.950	23.896	1724.500	1415.489
28.965	23.835	1723.826	1414.327
29.980	23.903	1722.850	1413.939
30.994	23.866	1721.209	1412.178
32.009	23.853	1720.106	1411.042
33.023	23.877	1719.111	1410.293
34.038	23.976	1717.872	1409.936
35.053	23.808	1717.656	1408.303
36.067	23.900	1716.051	1407.592
37.082	23.855	1715.303	1406.498
38.096	23.887	1714.764	1406.184
39.111	23.861	1713.608	1404.902
40.126	23.930	1712.346	1404.292
41.140	23.885	1711.575	1403.176
42.155	23.861	1710.134	1401.681
43.169	23.974	1709.143	1401.641
44.184	23.835	1708.842	1400.169
45.199	23.764	1707.348	1398.262
46.213	23.876	1705.888	1397.827
47.228	23.893	1704.790	1396.937
48.242	23.895	1703.492	1395.768
49.257	23.826	1702.555	1394.330
50.271	23.921	1701.144	1393.797
51.286	23.971	1700.016	1393.140
52.301	23.864	1698.691	1391.093
53.315	23.901	1697.322	1390.139
54.330	23.770	1696.033	1387.936
55.344	23.807	1694.841	1387.126
56.359	23.925	1693.083	1386.490
57.374	23.854	1692.248	1385.125
58.388	23.806	1691.633	1384.125
59.403	23.887	1690.194	1383.456
60.417	23.880	1689.134	1382.416
61.432	23.829	1688.144	1381.083
62.447	23.876	1686.770	1380.202
63.461	23.882	1686.033	1379.524
64.476	23.855	1684.974	1378.324
65.490	23.874	1683.662	1377.277
66.505	23.985	1682.666	1377.201
67.520	23.915	1681.782	1375.818
68.534	23.953	1680.836	1375.215
69.549	23.890	1679.826	1373.778
70.563	23.915	1678.365	1372.651
71.578	23.994	1676.677	1371.763
72.593	23.910	1675.999	1370.440
73.607	23.858	1675.452	1369.470
74.622	23.911	1674.208	1368.743
75.636	23.897	1673.362	1367.822
76.651	24.003	1672.143	1367.518
77.666	23.959	1671.450	1366.490
78.680	23.874	1670.696	1365.101
79.695	23.883	1670.118	1364.575
80.709	23.868	1669.135	1363.535
81.724	23.908	1668.394	1363.120
82.739	23.894	1667.592	1362.234
83.753	23.945	1666.360	1361.498
84.768	23.947	1664.856	1360.163
85.782	23.874	1664.526	1359.217
86.797	23.875	1664.080	1358.742
87.812	23.882	1662.523	1357.398
88.826	23.960	1661.151	1356.753
89.841	23.889	1660.556	1355.609
90.855	23.933	1659.675	1355.106
91.870	23.918	1658.751	1354.120
92.884	23.943	1657.781	1353.394
93.899	23.937	1656.639	1352.299
94.914	23.918	1655.458	1351.072
95.928	23.876	1654.255	1349.652
96.943	23.989	1653.091	1349.437
97.957	23.883	1651.897	1347.538
98.972	23.973	1650.258	1346.765
99.987	23.900	1649.222	1345.246
101.001	24.001	1647.131	1344.184
102.016	23.955	1645.724	1342.574
103.030	23.915	1644.893	1341.475
104.045	23.826	1644.158	1340.086
105.060	23.891	1642.694	1339.262
106.074	23.871	1641.178	1337.758
107.089	23.919	1639.974	1337.020
108.103	23.933	1638.728	1335.990
109.118	23.922	1637.594	1334.866
110.133	23.872	1636.759	1333.693
111.147	23.996	1634.878	1332.969
112.162	24.011	1634.015	1332.262
113.176	24.017	1632.294	1330.785
114.191	24.037	1631.541	1330.198
115.206	24.014	1630.347	1328.935
116.220	24.045	1628.901	1327.876
117.235	24.015	1627.968	1326.773
118.249	24.011	1626.436	1325.376
119.264	23.988	1625.538	1324.359
120.279	23.947	1624.584	1323.157
121.293	23.948	1623.450	1322.121
122.308	24.096	1621.852	1321.805
123.322	24.006	1620.740	1320.109
124.337	23.989	1619.371	1318.752
125.352	23.987	1618.402	1317.834
126.366	24.039	1617.320	1317.223
127.381	24.099	1616.131	1316.578
128.395	24.083	1615.684	1315.982
129.410	24.079	1614.689	1315.026
130.424	24.049	1613.302	1313.555
131.439	24.138	1611.570	1312.685
132.454	24.079	1610.768	1311.480
133.468	24.050	1609.066	1309.767
134.483	23.973	1608.516	1308.635
135.497	24.064	1606.766	1307.767
136.512	24.025	1605.872	1306.636
137.527	24.028	1604.639	1305.541
138.541	24.110	1603.450	1305.057
139.556	24.146	1602.100	1304.109
140.570	24.031	1601.090	1302.331
141.585	24.027	1599.710	1301.065
142.600	24.099	1598.687	1300.641
143.614	24.094	1596.997	1299.117
144.629	24.047	1596.375	1298.151
145.643	23.987	1594.933	1296.428
146.658	23.996	1594.133	1295.726
147.673	24.063	1592.072	1294.422
148.687	23.993	1591.492	1293.328
149.702	23.998	1590.604	1292.527
150.716	23.995	1588.704	1290.846
151.731	23.956	1587.805	1289.725
152.746	23.897	1587.219	1288.703
153.760	24.072	1585.602	1288.542
154.775	24.063	1584.447	1287.430
155.789	24.022	1583.313	1286.098
156.804	24.055	1582.202	1285.317
157.819	24.019	1580.996	1283.963
158.833	24.036	1580.143	1283.283
159.848	24.047	1578.824	1282.175
160.862	24.147	1577.977	1282.091
161.877	24.073	1576.976	1280.630
162.892	24.144	1575.806	1280.083
163.906	24.164	1574.901	1279.377
164.921	24.161	1574.298	1278.750
165.935	24.118	1573.812	1277.934
166.950	24.141	1572.524	1276.937
167.964	24.156	1570.986	1275.684
168.979	24.123	1570.276	1274.763
169.994	24.156	1569.665	1274.390
171.008	24.162	1568.378	1273.276
172.023	24.259	1567.236	1272.926
173.037	24.148	1566.682	1271.574
174.052	24.121	1565.397	1270.225
175.067	24.077	1564.707	1269.238
176.081	24.246	1563.449	1269.308
177.096	24.220	1562.338	1268.107
178.110	24.239	1561.023	1267.067
179.125	24.183	1560.410	1266.054
180.140	24.247	1559.497	1265.656
181.154	24.238	1558.730	1264.860
182.169	24.285	1557.763	1264.296
183.183	24.222	1556.906	1263.041
184.198	24.174	1556.220	1262.031
185.213	24.203	1554.922	1261.078
186.227	24.261	1554.035	1260.651
187.242	24.281	1553.748	1260.453
188.256	24.294	1552.410	1259.348
189.271	24.194	1551.562	1257.838
190.286	24.252	1550.914	1257.616
191.300	24.353	1549.605	1257.154
192.315	24.276	1548.753	1255.806
193.329	24.252	1548.016	1254.928
194.344	24.211	1547.037	1253.736
195.359	24.282	1546.007	1253.292
196.373	24.334	1545.152	1252.853
197.388	24.278	1544.442	1251.773
198.402	24.182	1543.313	1250.073
199.417	24.204	1542.378	1249.358
200.432	24.191	1542.055	1248.899
201.446	24.283	1540.956	1248.538
202.461	24.255	1540.331	1247.725
203.475	24.277	1539.154	1246.817
204.490	24.241	1538.362	1245.815
205.504	24.242	1537.154	1244.729
206.519	24.311	1536.364	1244.463
207.534	24.364	1535.010	1243.629
208.548	24.352	1534.318	1242.874
209.563	24.352	1533.631	1242.206
210.577	24.343	1532.998	1241.520
211.592	24.380	1531.878	1240.761
212.607	24.411	1530.991	1240.150
213.621	24.412	1530.628	1239.751
214.636	24.456	1530.127	1239.539
215.650	24.383	1529.195	1238.168
216.665	24.387	1527.802	1236.957
217.680	24.366	1527.552	1236.500
218.694	24.442	1526.613	1236.161
219.709	24.432	1525.433	1235.027
220.723	24.302	1524.766	1233.477
221.738	24.462	1523.915	1233.787
222.753	24.457	1522.973	1232.877
223.767	24.392	1522.067	1231.591
224.782	24.312	1521.585	1230.536
225.796	24.375	1520.624	1230.085
226.811	24.437	1519.565	1229.544
227.826	24.347	1519.288	1228.595
228.840	24.408	1518.635	1228.376
229.855	24.493	1517.707	1228.104
230.869	24.410	1516.504	1226.452
231.884	24.481	1515.813	1226.273
232.899	24.440	1514.474	1224.796
233.913	24.364	1514.393	1224.102
234.928	24.475	1512.368	1223.120
235.942	24.528	1511.529	1222.695
236.957	24.513	1510.638	1221.759
237.972	24.518	1509.122	1220.464
238.986	24.510	1508.194	1219.546
240.001	24.498	1507.593	1218.871
241.015	24.564	1506.314	1218.180
242.030	24.678	1505.038	1217.819
243.045	24.622	1504.556	1216.939
244.059	24.589	1504.084	1216.223
245.074	24.654	1502.755	1215.484
246.088	24.611	1502.299	1214.714
247.103	24.619	1501.817	1214.271
248.117	24.737	1500.666	1214.033
249.132	24.737	1499.799	1213.224
250.147	24.725	1499.370	1212.693
251.161	24.674	1498.567	1211.587
252.176	24.801	1497.887	1211.795
253.190	24.740	1496.877	1210.456
254.205	24.586	1496.723	1209.183
255.220	24.804	1495.271	1209.372
256.234	24.742	1494.327	1208.083
257.249	24.780	1493.587	1207.634
258.263	24.782	1493.125	1207.168
259.278	24.707	1491.926	1205.591
260.293	24.794	1490.920	1205.252
261.307	24.778	1490.542	1204.731
262.322	24.811	1490.159	1204.544
263.336	24.861	1488.835	1203.701
264.351	24.751	1488.066	1202.234
265.366	24.790	1487.093	1201.605
266.380	24.790	1486.040	1200.646
267.395	24.839	1485.240	1200.222
268.409	24.831	1484.576	1199.523
269.424	24.835	1483.364	1198.467
270.439	24.775	1482.752	1197.461
271.453	24.906	1481.793	1197.456
272.468	24.826	1481.054	1196.225
273.482	24.805	1480.613	1195.618
274.497	24.845	1479.807	1195.128
275.512	24.852	1478.717	1194.192
276.526	24.906	1477.878	1193.764
277.541	24.850	1477.203	1192.740
278.555	24.943	1476.105	1192.369
279.570	24.877	1475.866	1191.632
280.585	24.990	1474.443	1191.130
281.599	24.875	1473.734	1189.686
282.614	24.942	1472.870	1189.331
283.628	24.772	1471.921	1187.331
284.643	24.910	1470.928	1187.336
285.657	24.987	1469.913	1186.921
286.672	24.982	1469.017	1186.062
287.687	24.851	1468.627	1184.773
288.701	25.011	1467.204	1184.579
289.716	24.961	1466.679	1183.725
290.730	25.015	1466.063	1183.479
291.745	24.979	1464.892	1182.190
292.760	25.006	1464.121	1181.641
293.774	25.071	1463.158	1181.189
294.789	24.979	1462.816	1180.203
295.803	25.134	1461.617	1180.148
296.818	24.964	1461.014	1178.439
297.833	24.998	1460.047	1177.777
298.847	25.078	1458.799	1177.191
299.862	25.111	1458.035	1176.691
300.876	25.093	1457.885	1176.345
301.891	25.166	1456.433	1175.548
302.906	25.105	1456.140	1174.811
303.920	25.041	1455.848	1174.046
304.935	25.160	1454.809	1173.885
305.949	25.113	1453.845	1172.700
306.964	25.169	1452.958	1172.247
307.979	25.155	1452.065	1171.329
308.993	25.142	1451.399	1170.599
310.008	25.250	1450.373	1170.374
311.022	25.185	1449.503	1169.146
312.037	25.214	1448.404	1168.343
313.052	25.220	1447.701	1167.717
314.066	25.155	1446.777	1166.443
315.081	25.200	1445.690	1165.755
316.095	25.145	1444.904	1164.659
317.110	25.208	1443.772	1164.058
318.125	25.295	1442.726	1163.672
319.139	25.377	1442.064	1163.564
320.154	25.243	1441.390	1162.049
321.168	25.226	1440.434	1161.067
322.183	25.317	1439.124	1160.499
323.197	25.283	1438.512	1159.682
324.212	25.419	1437.955	1160.008
325.227	25.287	1436.679	1158.022
326.241	25.339	1435.938	1157.661
327.256	25.399	1435.168	1157.325
328.270	25.414	1434.544	1156.818
329.285	25.445	1433.922	1156.411
330.300	25.268	1433.139	1154.541
331.314	25.392	1432.187	1154.466
332.329	25.459	1431.097	1153.913
333.343	25.398	1430.803	1153.184
334.358	25.477	1429.733	1152.726
335.373	25.420	1429.256	1151.877
336.387	25.568	1428.340	1151.981
337.402	25.543	1427.794	1151.278
338.416	25.534	1427.298	1150.724
339.431	25.605	1426.453	1150.394
340.446	25.480	1426.189	1149.277
341.460	25.485	1425.269	1148.465
342.475	25.642	1423.807	1148.192
343.489	25.514	1423.328	1146.886
344.504	25.626	1422.280	1146.651
345.519	25.545	1421.435	1145.356
346.533	25.598	1420.307	1144.681
347.548	25.587	1419.405	1143.785
348.562	25.642	1418.697	1143.459
349.577	25.641	1417.950	1142.753
350.592	25.612	1417.426	1142.045
351.606	25.541	1416.841	1141.024
352.621	25.483	1415.720	1139.649
353.635	25.582	1414.481	1139.177
354.650	25.617	1413.769	1138.725
355.665	25.660	1412.823	1138.138
356.679	25.639	1411.994	1137.233
357.694	25.693	1410.712	1136.445
358.708	25.716	1409.812	1135.762
359.723	25.744	1408.742	1134.975
360.738	25.603	1407.494	1132.981
361.752	25.678	1406.531	1132.581
362.767	25.638	1405.250	1131.196
363.781	25.745	1404.546	1131.200
364.796	25.754	1403.984	1130.705
365.810	25.831	1403.105	1130.380
366.825	25.864	1402.404	1129.923
367.840	25.888	1401.474	1129.224
368.854	25.829	1401.133	1128.480
369.869	25.836	1400.372	1127.807
370.883	25.856	1399.725	1127.313
371.898	25.963	1398.903	1127.221
372.913	25.968	1398.002	1126.428
373.927	25.876	1397.760	1125.558
374.942	25.953	1396.412	1124.853
375.956	25.987	1395.607	1124.316
376.971	26.038	1394.854	1123.927
377.986	25.916	1394.398	1122.702
379.000	25.799	1393.767	1121.363
380.015	25.826	1393.111	1120.908
381.029	25.922	1392.277	1120.731
382.044	25.985	1391.417	1120.334
383.059	26.068	1390.673	1120.152
384.073	25.962	1390.646	1119.373
385.088	25.953	1389.963	1118.669
386.102	26.041	1389.274	1118.560
387.117	26.003	1388.465	1117.576
388.132	25.977	1388.041	1116.971
389.146	26.002	1386.795	1116.028
390.161	26.075	1386.210	1115.910
391.175	26.023	1385.320	1114.771
392.190	26.052	1384.873	1114.490
393.205	26.162	1383.601	1114.048
394.219	26.137	1382.707	1113.075
395.234	26.174	1381.592	1112.308
396.248	26.207	1380.720	1111.708
397.263	26.092	1379.754	1110.127
398.278	26.089	1378.855	1109.285
399.292	26.233	1377.713	1109.156
400.307	26.180	1377.267	1108.371
401.321	26.224	1375.818	1107.378
402.336	26.203	1375.236	1106.683
403.350	26.257	1373.787	1105.748
404.365	26.098	1373.358	1104.329
405.380	26.167	1372.722	1104.144
406.394	26.193	1371.866	1103.518
407.409	26.327	1370.564	1103.193
408.423	26.328	1370.085	1102.711
409.438	26.237	1369.861	1101.882
410.453	26.362	1368.606	1101.537
411.467	26.335	1367.935	1100.734
412.482	26.334	1367.456	1100.246
413.496	26.216	1366.930	1099.006
414.511	26.274	1366.040	1098.547
415.526	26.445	1365.114	1098.742
416.540	26.373	1364.651	1097.837
417.555	26.308	1364.127	1096.921
418.569	26.324	1363.423	1096.359
419.584	26.373	1363.304	1096.461
420.599	26.356	1362.415	1095.545
421.613	134.091	1434.461	1787.818
422.628	131.721	1444.965	1787.952
