DTS Sentinel unit serial number:	SN413079Multiplexer serial number:	ORYXHardware model number:	OX4-SRSoftware version number:	ORYX F/W v4.00 Oryx Data Collector v3.7.2.0data status	okinstallation	princeton_trtdifferential loss correction	single-endedforward channel	channel 4reverse channel	N/Adate	2019/09/16time	15:17:35forward acquisition time	60.00reverse acquisition time	0.00gamma	496.2192k internal	0.2288k external	0.2288temperature offset calibration	0.9938default loss term (dB/km)	0.3790temperature slope calibration	1.0000multiplexer offset coefficient	1.0000multiplexer slope coefficient	1.0000fibre end	0.00T internal ref (°C)	41.05T ext. ref 1 (°C)	14.58T ext. ref 2 (°C)	36.70length (m)	temperature (°C)	Stokes	anti-Stokes-747.200	281.751	-0.105	-0.193
-746.185	-200.000	-0.016	0.338
-745.171	0.591	-0.137	-0.100
-744.156	-47.762	0.133	-0.066
-743.142	798.879	0.094	0.266
-742.127	354.516	-0.085	0.172
-741.112	-200.000	0.011	-0.327
-740.098	83.350	0.040	0.044
-739.083	-9.594	-0.216	-0.148
-738.069	-200.000	0.001	0.252
-737.054	-200.000	-0.028	0.394
-736.039	152.459	0.171	0.239
-735.025	-65.785	-0.130	-0.053
-734.010	-122.013	0.409	0.069
-732.996	484.637	0.025	0.059
-731.981	-200.000	0.019	0.281
-730.966	800.000	-0.012	0.045
-729.952	95.133	0.144	0.168
-728.937	17.425	0.077	-0.063
-727.923	3.780	0.267	-0.200
-726.908	-58.985	-0.211	-0.093
-725.894	-200.000	-0.020	-0.164
-724.879	100.891	0.223	-0.266
-723.864	-47.895	-0.266	-0.132
-722.850	-82.056	0.245	0.082
-721.835	-42.351	0.110	0.057
-720.821	-152.271	-0.160	-0.012
-719.806	350.853	0.128	-0.260
-718.791	-103.882	0.146	-0.035
-717.777	-24.735	-0.257	-0.156
-716.762	800.000	0.059	0.200
-715.748	257.144	0.061	-0.108
-714.733	-46.614	-0.212	-0.106
-713.718	-174.518	0.351	-0.010
-712.704	12.410	0.115	0.091
-711.689	-147.473	-0.150	-0.013
-710.675	-200.000	-0.010	0.185
-709.660	-148.519	0.403	-0.034
-708.645	99.844	0.230	-0.272
-707.631	-170.685	0.258	0.009
-706.616	-200.000	-0.004	-0.188
-705.602	-5.987	-0.191	-0.134
-704.587	-64.629	0.201	0.083
-703.572	-200.000	-0.003	0.401
-702.558	362.468	0.109	-0.225
-701.543	340.605	0.092	0.184
-700.529	290.535	0.075	0.140
-699.514	-23.362	-0.220	0.135
-698.499	-86.692	-0.147	-0.046
-697.485	-125.821	0.598	-0.092
-696.470	151.698	-0.067	0.093
-695.456	78.797	-0.200	-0.219
-694.441	-53.461	-0.199	0.093
-693.426	416.957	0.019	-0.042
-692.412	-131.347	0.280	0.038
-691.397	-70.692	-0.300	-0.116
-690.383	-77.731	-0.056	-0.020
-689.368	800.000	-0.031	-0.104
-688.354	-30.328	-0.250	-0.145
-687.339	-177.877	-0.099	-0.002
-686.324	-200.000	-0.024	-0.341
-685.310	687.971	0.067	0.180
-684.295	51.819	-0.234	0.228
-683.281	-168.548	-0.207	-0.008
-682.266	-36.415	0.125	-0.069
-681.251	800.000	0.028	-0.121
-680.237	-133.497	0.097	0.012
-679.222	36.544	0.270	0.244
-678.208	-84.732	-0.281	0.091
-677.193	49.037	-0.225	-0.216
-676.178	94.498	0.053	-0.062
-675.164	229.456	0.132	0.220
-674.149	-179.005	-0.271	0.006
-673.135	19.711	0.140	0.115
-672.120	800.000	-0.021	0.073
-671.105	-168.541	0.033	0.001
-670.091	-63.412	-0.316	-0.133
-669.076	-33.595	0.071	0.040
-668.062	-200.000	0.002	0.195
-667.047	353.728	-0.037	0.075
-666.032	-11.555	-0.398	-0.267
-665.018	-200.000	-0.007	0.140
-664.003	-94.263	-0.189	-0.053
-662.989	231.523	0.126	0.212
-661.974	-35.783	0.355	-0.197
-660.959	265.190	0.103	-0.184
-659.945	-117.502	0.065	-0.012
-658.930	147.011	0.107	0.148
-657.916	270.064	0.026	0.046
-656.901	-200.000	0.033	-0.293
-655.886	-48.964	0.116	0.057
-654.872	-193.662	-0.061	0.001
-653.857	800.000	-0.097	-0.282
-652.843	-154.925	-0.155	-0.010
-651.828	132.422	0.062	-0.081
-650.814	-185.845	0.142	0.002
-649.799	115.856	0.129	0.162
-648.784	178.298	0.216	-0.321
-647.770	162.898	-0.160	0.230
-646.755	-91.950	-0.240	0.070
-645.741	-48.122	-0.220	0.108
-644.726	-128.612	0.483	-0.070
-643.711	800.000	0.065	0.218
-642.697	-57.027	0.165	0.074
-641.682	-48.757	0.064	0.031
-640.668	90.581	-0.157	-0.179
-639.653	-200.000	-0.026	-0.144
-638.638	-118.351	0.223	-0.040
-637.624	48.735	-0.266	-0.255
-636.609	-200.000	0.003	0.192
-635.595	714.871	-0.130	0.351
-634.580	98.718	0.070	0.083
-633.565	-29.082	0.141	0.083
-632.551	-28.837	0.038	-0.022
-631.536	54.125	0.193	0.190
-630.522	299.195	-0.136	-0.256
-629.507	425.903	0.077	-0.169
-628.492	-75.685	-0.087	0.031
-627.478	-48.328	0.235	0.115
-626.463	137.816	-0.117	0.157
-625.449	-64.596	0.290	0.120
-624.434	-8.644	-0.274	0.188
-623.419	120.910	-0.046	0.058
-622.405	-200.000	-0.008	-0.245
-621.390	-200.000	0.029	-0.499
-620.376	-136.721	-0.266	-0.031
-619.361	800.000	0.021	0.072
-618.346	7.443	-0.202	0.154
-617.332	223.152	-0.021	0.035
-616.317	-133.552	0.179	0.023
-615.303	492.879	-0.145	0.339
-614.288	-123.060	0.070	0.011
-613.273	162.221	0.132	0.189
-612.259	160.198	-0.104	-0.147
-611.244	-130.768	-0.206	0.028
-610.230	800.000	-0.014	0.059
-609.215	199.599	-0.136	0.212
-608.201	-200.000	-0.003	-0.174
-607.186	136.402	-0.098	-0.131
-606.171	99.629	-0.143	0.169
-605.157	354.336	-0.073	0.147
-604.142	-200.000	-0.074	-0.364
-603.128	90.149	-0.132	-0.151
-602.113	-200.000	0.004	-0.105
-601.098	106.638	-0.055	0.067
-600.084	340.330	0.033	-0.065
-599.069	760.072	-0.077	0.213
-598.055	82.603	0.148	0.164
-597.040	81.293	-0.025	0.027
-596.025	-200.000	-0.022	-0.368
-595.011	-96.793	-0.378	-0.101
-593.996	-200.000	0.012	0.183
-592.982	-200.000	0.001	0.021
-591.967	800.000	-0.030	-0.101
-590.952	-154.932	-0.254	0.017
-589.938	-200.000	0.027	0.358
-588.923	800.000	0.036	0.105
-587.909	323.627	-0.102	0.199
-586.894	-67.061	-0.394	-0.159
-585.879	-75.989	0.231	0.083
-584.865	800.000	0.075	0.269
-583.850	29.952	0.060	-0.052
-582.836	12.962	-0.057	0.045
-581.821	24.201	0.073	0.061
-580.806	16.843	0.063	0.050
-579.792	182.515	-0.244	-0.366
-578.777	167.954	0.092	0.133
-577.763	83.590	0.138	-0.153
-576.748	710.696	-0.097	0.262
-575.733	27.016	-0.072	-0.062
-574.719	415.276	0.075	0.163
-573.704	-54.350	-0.188	-0.087
-572.690	525.613	0.058	0.138
-571.675	21.864	-0.161	-0.134
-570.661	800.000	-0.116	-0.501
-569.646	-111.324	0.135	-0.028
-568.631	263.095	-0.175	-0.310
-567.617	-200.000	0.027	-0.190
-566.602	101.231	0.197	0.234
-565.588	45.637	0.219	-0.206
-564.573	155.742	0.099	-0.138
-563.558	800.000	0.078	0.223
-562.544	42.120	0.226	0.209
-561.529	-14.133	0.298	-0.196
-560.515	-150.534	-0.152	0.012
-559.500	800.000	0.050	-0.184
-558.485	800.000	0.064	-0.221
-557.471	95.154	-0.165	0.191
-556.456	46.598	0.289	-0.273
-555.442	-200.000	0.007	-0.233
-554.427	-6.262	0.171	-0.119
-553.412	27.961	-0.152	-0.130
-552.398	-116.250	-0.325	0.061
-551.383	602.621	-0.060	0.151
-550.369	-171.629	-0.158	-0.005
-549.354	-112.438	-0.299	-0.061
-548.339	106.409	-0.100	-0.120
-547.325	800.000	-0.025	-0.106
-546.310	-200.000	-0.019	-0.237
-545.296	800.000	-0.032	-0.109
-544.281	-200.000	-0.093	-0.488
-543.266	-34.012	0.164	0.092
-542.252	385.849	-0.061	-0.127
-541.237	-68.699	-0.223	-0.088
-540.223	50.112	-0.239	-0.230
-539.208	-76.614	-0.074	0.026
-538.193	139.735	0.118	0.158
-537.179	393.045	0.082	-0.173
-536.164	-176.165	0.062	0.002
-535.150	-200.000	-0.014	-0.165
-534.135	353.961	0.093	-0.188
-533.121	-97.827	0.108	-0.028
-532.106	114.812	0.338	0.418
-531.091	800.000	0.092	0.319
-530.077	56.223	-0.296	0.293
-529.062	355.343	0.071	0.143
-528.048	121.911	-0.019	0.024
-527.033	361.759	-0.120	-0.244
-526.018	800.000	0.067	-0.260
-525.004	800.000	-0.083	-0.271
-523.989	-164.819	-0.315	0.014
-522.975	800.000	-0.017	-0.051
-521.960	661.185	0.095	-0.249
-520.945	800.000	-0.049	-0.197
-519.931	19.309	0.131	0.107
-518.916	-114.955	-0.302	0.058
-517.902	-101.282	-0.213	0.053
-516.887	-120.720	0.289	0.050
-515.872	369.405	0.030	0.062
-514.858	-40.350	0.159	-0.084
-513.843	-200.000	-0.173	0.001
-512.829	119.047	-0.022	-0.028
-511.814	72.540	-0.052	0.055
-510.799	-200.000	-0.024	-0.130
-509.785	-200.000	0.011	-0.213
-508.770	-200.000	0.023	0.297
-507.756	-142.482	-0.123	-0.012
-506.741	185.532	-0.181	-0.273
-505.726	94.888	0.297	0.344
-504.712	-47.340	-0.114	-0.056
-503.697	534.781	-0.027	-0.064
-502.683	800.000	-0.036	0.154
-501.668	-49.486	0.058	0.028
-500.653	-180.504	-0.096	0.002
-499.639	-10.047	0.060	-0.041
-498.624	191.725	-0.079	-0.121
-497.610	-4.266	0.168	-0.118
-496.595	191.555	0.057	-0.088
-495.581	-200.000	-0.047	0.217
-494.566	79.980	-0.101	0.110
-493.551	29.499	-0.229	-0.198
-492.537	295.577	-0.112	-0.208
-491.522	-27.065	0.271	0.160
-490.508	-100.728	-0.228	-0.057
-489.493	-74.587	-0.119	0.043
-488.478	800.000	0.014	-0.046
-487.464	312.002	0.103	0.197
-486.449	-121.785	-0.079	-0.013
-485.435	-200.000	0.010	0.105
-484.420	491.984	0.123	-0.287
-483.405	-200.000	-0.042	-0.326
-482.391	145.952	-0.119	0.162
-481.376	800.000	0.108	0.472
-480.362	126.477	0.026	0.034
-479.347	-200.000	0.011	-0.158
-478.332	114.937	-0.134	-0.166
-477.318	-162.331	0.209	0.011
-476.303	-65.696	-0.048	0.019
-475.289	-42.111	-0.256	-0.133
-474.274	-69.681	0.196	0.076
-473.259	-134.912	-0.187	0.023
-472.245	-117.735	-0.329	0.060
-471.230	-4.081	-0.093	0.065
-470.216	-25.803	0.198	-0.118
-469.201	-200.000	-0.025	-0.393
-468.186	-148.698	-0.123	0.010
-467.172	54.578	-0.095	-0.093
-466.157	800.000	0.089	-0.364
-465.143	255.715	0.079	0.138
-464.128	-200.000	-0.009	0.062
-463.113	680.437	-0.115	0.304
-462.099	173.548	0.198	0.289
-461.084	-0.525	0.148	0.106
-460.070	102.591	-0.357	0.423
-459.055	800.000	0.111	0.380
-458.040	-99.786	-0.488	-0.124
-457.026	-145.847	0.089	-0.008
-456.011	-160.219	-0.161	0.009
-454.997	154.130	-0.066	-0.091
-453.982	82.912	0.035	0.039
-452.968	-34.550	0.055	0.030
-451.953	-86.101	0.389	-0.122
-450.938	34.246	0.279	-0.247
-449.924	-79.765	0.158	0.054
-448.909	-22.831	-0.111	-0.068
-447.895	473.829	0.050	0.115
-446.880	224.013	0.204	-0.334
-445.865	-48.097	-0.154	-0.075
-444.851	-95.576	0.206	0.056
-443.836	-200.000	0.011	-0.300
-442.822	72.742	0.113	-0.120
-441.807	-184.438	0.068	0.001
-440.792	800.000	-0.013	0.043
-439.778	52.207	0.225	-0.218
-438.763	-200.000	0.085	0.391
-437.749	-126.422	0.275	0.041
-436.734	496.758	-0.080	-0.186
-435.719	380.706	0.087	-0.181
-434.705	-90.678	-0.248	-0.072
-433.690	-136.438	0.348	-0.041
-432.676	-101.495	-0.226	-0.056
-431.661	5.523	0.154	0.115
-430.646	-67.990	-0.230	-0.091
-429.632	9.608	0.351	-0.269
-428.617	800.000	0.096	0.380
-427.603	-68.728	-0.205	-0.080
-426.588	-33.822	-0.154	0.086
-425.573	295.715	-0.053	-0.098
-424.559	-92.462	-0.267	-0.076
-423.544	-67.158	-0.271	0.108
-422.530	-106.322	0.135	0.031
-421.515	59.918	-0.171	-0.171
-420.500	-68.943	-0.215	-0.084
-419.486	-200.000	-0.013	0.164
-418.471	-92.465	0.068	0.019
-417.457	-200.000	0.074	0.521
-416.442	-99.366	-0.383	-0.098
-415.428	33.392	-0.241	0.212
-414.413	-200.000	-0.020	-0.149
-413.398	-24.780	0.163	0.098
-412.384	800.000	-0.035	0.132
-411.369	-200.000	0.022	0.130
-410.355	-200.000	0.002	0.251
-409.340	-42.273	0.021	0.011
-408.325	150.749	-0.093	-0.128
-407.311	76.392	-0.202	0.216
-406.296	381.326	0.060	-0.125
-405.282	-200.000	0.069	0.361
-404.267	-11.991	-0.053	0.035
-403.252	205.069	-0.122	0.192
-402.238	-200.000	0.043	0.192
-401.223	121.028	-0.211	0.265
-400.209	292.536	0.044	-0.082
-399.194	-200.000	0.010	0.412
-398.179	800.000	-0.028	-0.080
-397.165	-8.917	0.339	0.229
-396.150	0.491	-0.203	0.146
-395.136	-200.000	-0.023	-0.119
-394.121	-52.947	-0.143	0.067
-393.106	101.819	0.095	-0.112
-392.092	382.552	-0.178	0.371
-391.077	68.058	-0.128	0.132
-390.063	-200.000	0.020	-0.161
-389.048	100.327	0.150	-0.176
-388.033	-200.000	0.024	-0.330
-387.019	-74.782	-0.323	-0.117
-386.004	538.093	0.042	0.100
-384.990	88.293	-0.048	0.054
-383.975	202.058	0.120	0.188
-382.960	47.859	0.238	-0.225
-381.946	-47.879	0.315	-0.154
-380.931	-94.604	-0.261	0.072
-379.917	-10.548	0.355	0.238
-378.902	379.710	0.102	0.211
-377.888	186.891	-0.066	-0.099
-376.873	513.316	-0.070	-0.164
-375.858	-23.470	0.201	0.122
-374.844	-117.718	0.239	0.043
-373.829	96.666	-0.186	-0.216
-372.815	-42.485	-0.204	0.105
-371.800	4.702	-0.294	-0.219
-370.785	-107.144	-0.163	0.036
-369.771	39.902	0.061	-0.055
-368.756	-99.370	-0.343	-0.087
-367.742	648.457	-0.048	0.124
-366.727	0.105	-0.160	0.116
-365.712	19.985	-0.308	0.251
-364.698	-105.783	-0.268	0.061
-363.683	-200.000	-0.008	-0.204
-362.669	9.190	0.212	0.162
-361.654	-3.493	0.132	-0.092
-360.639	122.282	-0.242	0.305
-359.625	-164.706	0.072	0.003
-358.610	73.882	-0.205	-0.218
-357.596	-48.738	0.186	-0.090
-356.581	73.352	0.105	-0.111
-355.566	713.869	0.047	-0.127
-354.552	47.777	-0.104	-0.098
-353.537	-78.649	0.113	0.039
-352.523	-200.000	0.058	-0.341
-351.508	-71.683	-0.120	0.045
-350.493	800.000	-0.064	0.196
-349.479	800.000	-0.111	-0.314
-348.464	38.160	0.251	0.225
-347.450	523.844	-0.168	0.398
-346.435	-182.387	0.130	-0.002
-345.420	37.044	-0.107	0.095
-344.406	-196.253	-0.094	-0.001
-343.391	-51.104	-0.257	0.122
-342.377	-105.250	-0.328	0.076
-341.362	198.525	0.103	-0.159
-340.348	-109.880	0.232	0.049
-339.333	460.917	0.067	0.151
-338.318	-77.469	0.177	0.062
-337.304	17.983	-0.257	-0.207
-336.289	101.543	-0.025	-0.030
-335.275	800.000	-0.084	-0.253
-334.260	-91.941	-0.097	-0.028
-333.245	-116.711	-0.325	-0.060
-332.231	278.785	0.137	-0.247
-331.216	-200.000	0.044	-0.294
-330.202	-200.000	-0.035	-0.196
-329.187	-11.545	0.369	0.245
-328.172	-196.598	0.294	-0.002
-327.158	-65.232	-0.201	-0.082
-326.143	468.040	0.113	-0.256
-325.129	324.440	0.112	-0.216
-324.114	-200.000	0.016	0.213
-323.099	-200.000	0.006	0.121
-322.085	-46.562	0.247	0.122
-321.070	-61.610	0.288	0.122
-320.056	562.851	-0.083	0.203
-319.041	-85.604	0.319	0.100
-318.026	9.549	-0.152	-0.116
-317.012	377.214	-0.157	-0.324
-315.997	-69.272	-0.024	-0.009
-314.983	-94.515	-0.148	0.041
-313.968	251.805	-0.058	-0.099
-312.953	-112.292	0.125	-0.025
-311.939	1.552	0.097	-0.070
-310.924	-52.531	-0.165	0.077
-309.910	-200.000	0.034	-0.157
-308.895	26.535	-0.239	0.202
-307.880	15.113	-0.141	-0.111
-306.866	-12.340	0.076	0.050
-305.851	-32.492	-0.101	0.057
-304.837	72.098	-0.166	0.174
-303.822	-200.000	-0.037	-0.167
-302.807	-50.461	0.250	0.119
-301.793	618.252	0.046	-0.117
-300.778	-151.728	-0.152	-0.011
-299.764	29.052	0.097	0.083
-298.749	-20.890	0.015	-0.009
-297.735	-53.078	0.167	0.077
-296.720	-31.484	0.160	0.091
-295.705	-176.080	0.181	0.005
-294.691	-83.211	0.243	-0.079
-293.676	15.450	0.386	0.305
-292.662	800.000	-0.091	-0.280
-291.647	207.917	0.045	-0.071
-290.632	-55.921	0.041	-0.019
-289.618	800.000	0.028	-0.093
-288.603	360.101	0.021	-0.043
-287.589	-158.185	0.220	0.013
-286.574	-58.549	0.175	-0.077
-285.559	-200.000	-0.098	-0.488
-284.545	-84.890	0.159	0.050
-283.530	-33.568	-0.165	0.092
-282.516	-35.475	0.148	-0.081
-281.501	-127.199	-0.239	-0.035
-280.486	-118.667	0.265	0.047
-279.472	-129.910	-0.227	-0.031
-278.457	490.741	-0.030	-0.068
-277.443	43.235	-0.174	-0.160
-276.428	-37.398	0.023	0.012
-275.413	212.554	-0.055	-0.087
-274.399	5.664	0.146	-0.109
-273.384	14.010	0.092	-0.072
-272.370	800.000	-0.084	-0.239
-271.355	-59.527	0.470	0.203
-270.340	800.000	0.023	-0.066
-269.326	759.055	-0.053	0.144
-268.311	-39.990	-0.180	-0.095
-267.297	-17.736	0.153	0.097
-266.282	-200.000	0.012	-0.118
-265.267	-17.927	0.100	-0.063
-264.253	180.696	0.113	-0.167
-263.238	-87.361	0.125	0.038
-262.224	-200.000	-0.068	-0.300
-261.209	-200.000	-0.052	0.524
-260.195	-82.374	-0.209	-0.068
-259.180	800.000	0.079	-0.295
-258.165	-35.144	-0.073	0.040
-257.151	800.000	-0.053	0.194
-256.136	-62.544	0.085	-0.035
-255.122	12.001	-0.105	0.081
-254.107	131.215	-0.075	-0.097
-253.092	183.987	0.097	-0.144
-252.078	800.000	-0.030	-0.116
-251.063	800.000	-0.099	0.284
-250.049	17.144	-0.097	-0.077
-249.034	695.867	-0.130	-0.343
-248.019	-143.141	-0.171	-0.017
-247.005	7.326	-0.124	0.093
-245.990	-60.985	0.162	-0.069
-244.976	-200.000	0.005	0.102
-243.961	-200.000	-0.034	-0.153
-242.946	-11.693	0.437	0.289
-241.932	13.492	-0.119	0.092
-240.917	317.936	0.215	-0.408
-239.903	249.194	0.034	-0.059
-238.888	-24.926	-0.197	-0.117
-237.873	-200.000	-0.002	0.092
-236.859	38.207	-0.215	0.193
-235.844	122.318	0.258	0.324
-234.830	800.000	0.039	0.149
-233.815	-23.809	0.262	0.158
-232.800	-92.129	0.204	0.058
-231.786	-30.807	0.184	0.105
-230.771	-200.000	-0.020	0.296
-229.757	313.438	-0.069	0.130
-228.742	-34.226	0.389	-0.215
-227.727	-200.000	0.027	-0.137
-226.713	800.000	0.051	0.201
-225.698	-150.357	0.376	0.029
-224.684	321.192	0.167	0.318
-223.669	-200.000	0.008	-0.222
-222.655	-200.000	0.003	0.157
-221.640	116.201	0.122	0.151
-220.625	800.000	0.069	0.253
-219.611	449.782	0.111	-0.246
-218.596	-99.629	-0.109	-0.027
-217.582	-200.000	0.020	-0.228
-216.567	-193.010	-0.090	-0.001
-215.552	514.123	0.026	-0.060
-214.538	111.955	-0.181	0.219
-213.523	122.260	0.294	0.369
-212.509	-200.000	-0.031	-0.222
-211.494	66.500	-0.048	-0.049
-210.479	-200.000	-0.048	-0.349
-209.465	-17.614	0.316	0.199
-208.450	47.157	-0.240	-0.224
-207.436	-131.039	-0.392	-0.052
-206.421	-200.000	0.009	0.047
-205.406	-130.741	-0.269	0.036
-204.392	-200.000	-0.013	0.170
-203.377	-200.000	0.050	0.282
-202.363	288.399	-0.217	0.395
-201.348	-200.000	0.036	-0.234
-200.333	-200.000	-0.007	-0.129
-199.319	-89.159	0.100	0.030
-198.304	-17.071	0.135	0.085
-197.290	-135.416	0.350	-0.042
-196.275	-200.000	-0.001	-0.021
-195.260	75.539	0.123	0.130
-194.246	24.154	0.263	0.218
-193.231	-15.443	0.227	-0.145
-192.217	-108.179	0.213	0.046
-191.202	-200.000	0.092	-0.501
-190.187	-120.773	0.364	-0.062
-189.173	125.415	0.072	0.091
-188.158	800.000	-0.100	0.329
-187.144	-200.000	-0.041	-0.289
-186.129	-200.000	0.034	0.175
-185.114	251.345	-0.203	0.347
-184.100	125.619	-0.150	-0.190
-183.085	638.070	0.017	0.043
-182.071	-200.000	-0.006	-0.056
-181.056	281.561	-0.088	0.158
-180.042	292.428	-0.133	-0.243
-179.027	102.699	-0.122	0.143
-178.012	-128.822	-0.330	0.047
-176.998	-32.410	0.131	-0.073
-175.983	-65.699	-0.228	0.092
-174.969	800.000	0.096	0.396
-173.954	229.902	0.065	-0.107
-172.939	-154.663	0.315	-0.021
-171.925	-175.134	-0.242	-0.007
-170.910	-200.000	-0.026	-0.170
-169.896	66.764	0.316	0.323
-168.881	53.532	-0.352	-0.339
-167.866	-71.538	0.122	-0.046
-166.852	-138.597	0.362	0.040
-165.837	80.068	0.221	-0.238
-164.823	-185.216	0.151	-0.002
-163.808	163.173	0.121	-0.170
-162.793	759.237	-0.030	-0.080
-161.779	-134.113	-0.092	0.011
-160.764	800.000	-0.045	0.157
-159.750	-200.000	-0.022	0.177
-158.735	12.766	-0.230	0.178
-157.720	-200.000	-0.046	0.314
-156.706	-118.105	-0.095	-0.017
-155.691	11.163	0.171	-0.131
-154.677	226.909	0.140	0.228
-153.662	-75.888	0.092	-0.033
-152.647	300.213	0.027	-0.050
-151.633	-58.269	0.170	0.074
-150.618	-35.254	0.439	0.239
-149.604	72.159	0.111	0.116
-148.589	22.261	-0.038	0.031
-147.574	603.927	-0.144	0.359
-146.560	349.264	-0.229	0.453
-145.545	-200.000	0.014	-0.170
-144.531	-200.000	0.064	-0.362
-143.516	4.185	-0.154	-0.113
-142.502	-200.000	0.025	0.356
-141.487	-171.760	0.169	-0.006
-140.472	-200.000	-0.036	-0.499
-139.458	207.831	-0.229	0.358
-138.443	-164.815	0.234	-0.011
-137.429	-112.268	-0.169	0.034
-136.414	790.079	-0.082	-0.225
-135.399	-103.203	0.225	0.053
-134.385	-139.372	-0.184	0.020
-133.370	-95.818	-0.119	-0.032
-132.356	-13.285	-0.070	-0.045
-131.341	289.598	-0.089	-0.162
-130.326	281.955	0.208	-0.374
-129.312	-200.000	-0.046	-0.292
-128.297	-200.000	0.028	0.360
-127.283	15.511	-0.152	-0.120
-126.268	590.680	-0.063	0.156
-125.253	142.739	0.071	-0.094
-124.239	800.000	-0.121	0.462
-123.224	-200.000	0.023	-0.210
-122.210	390.634	-0.062	0.129
-121.195	152.464	-0.093	0.128
-120.180	800.000	-0.058	-0.165
-119.166	118.927	0.182	0.226
-118.151	-83.404	0.204	0.066
-117.137	-90.940	-0.365	0.105
-116.122	-200.000	0.009	-0.074
-115.107	217.258	0.120	-0.192
-114.093	19.330	0.206	0.165
-113.078	-200.000	0.012	0.073
-112.064	64.326	-0.266	0.267
-111.049	800.000	0.090	0.361
-110.034	-67.725	0.151	0.059
-109.020	-200.000	0.007	-0.258
-108.005	-52.844	-0.198	0.091
-106.991	193.555	0.170	0.257
-105.976	96.001	0.211	0.241
-104.962	-159.216	0.497	0.028
-103.947	8.231	0.104	-0.078
-102.932	723.038	0.084	-0.224
-101.918	-200.000	0.075	0.529
-100.903	-66.319	-0.097	0.038
-99.889	800.000	0.075	0.303
-98.874	800.000	-0.072	0.304
-97.859	-109.306	0.132	0.028
-96.845	41.499	-0.050	0.045
-95.830	-200.000	0.042	0.259
-94.816	-50.618	-0.129	-0.061
-93.801	371.055	0.014	0.028
-92.786	16.426	0.346	-0.273
-91.772	156.353	-0.044	-0.061
-90.757	-131.255	0.234	-0.031
-89.743	-200.000	-0.108	-0.573
-88.728	-68.228	0.440	0.171
-87.713	61.415	-0.235	-0.233
-86.699	-47.024	-0.156	-0.076
-85.684	-77.589	0.257	-0.089
-84.670	-85.368	0.123	-0.038
-83.655	800.000	0.043	0.118
-82.640	-138.828	0.221	-0.024
-81.626	207.888	-0.055	0.086
-80.611	-200.000	0.023	0.137
-79.597	9.637	0.155	0.117
-78.582	158.732	0.167	0.232
-77.567	-15.201	-0.067	0.043
-76.553	-119.237	0.224	0.039
-75.538	-139.730	-0.144	-0.015
-74.524	-122.093	-0.238	0.039
-73.509	-5.256	0.125	-0.086
-72.494	-93.425	-0.223	-0.062
-71.480	-23.481	-0.018	-0.011
-70.465	131.504	-0.066	0.085
-69.451	-200.000	0.005	0.233
-68.436	17.078	-0.183	0.145
-67.422	57.338	-0.141	0.137
-66.407	149.819	-0.200	0.271
-65.392	-200.000	0.001	0.072
-64.378	-108.598	0.137	0.029
-63.363	-85.762	0.307	-0.095
-62.349	800.000	0.020	-0.075
-61.334	71.225	-0.851	-0.881
-60.319	93.970	0.466	0.528
-59.305	798.759	0.184	-0.506
-58.290	-200.000	0.150	0.669
-57.276	800.000	0.547	1.797
-56.261	-200.000	76.710	520.148
-55.246	532.931	1311.157	3097.753
-54.232	147.388	2545.899	3420.693
-53.217	109.320	2374.437	2836.683
-52.203	48.017	2113.074	1970.595
-51.188	42.785	2019.086	1835.305
-50.173	41.116	1999.508	1802.342
-49.159	53.667	2037.612	1951.427
-48.144	58.125	2058.071	2011.631
-47.130	43.813	2022.464	1847.471
-46.115	41.045	2011.185	1811.928
-45.100	40.944	2008.627	1808.636
-44.086	40.938	2005.856	1806.014
-43.071	40.912	2003.211	1803.325
-42.057	40.874	2000.687	1800.642
-41.042	40.882	1998.877	1799.014
-40.027	40.861	1997.295	1797.323
-39.013	40.932	1995.105	1795.928
-37.998	40.904	1993.786	1794.415
-36.984	40.952	1991.796	1792.987
-35.969	40.957	1989.670	1791.047
-34.954	41.017	1987.845	1789.866
-33.940	41.078	1986.430	1789.069
-32.925	41.060	1984.699	1787.283
-31.911	41.090	1982.696	1785.676
-30.896	41.026	1981.112	1783.607
-29.881	41.125	1979.691	1783.140
-28.867	41.024	1978.291	1780.907
-27.852	41.147	1975.842	1779.729
-26.838	41.076	1974.348	1777.681
-25.823	41.151	1972.048	1776.204
-24.809	41.102	1970.397	1774.216
-23.794	41.128	1968.807	1772.944
-22.779	41.103	1967.467	1771.443
-21.765	41.070	1965.193	1769.035
-20.750	41.076	1963.986	1767.926
-19.736	41.102	1961.972	1766.278
-18.721	41.115	1960.765	1765.236
-17.706	41.012	1959.186	1762.834
-16.692	41.061	1957.284	1761.479
-15.677	40.997	1955.599	1759.333
-14.663	41.039	1954.272	1758.440
-13.648	41.083	1952.863	1757.487
-12.633	41.087	1951.603	1756.323
-11.619	41.015	1951.106	1755.171
-10.604	41.036	1949.680	1753.998
-9.590	41.098	1948.127	1753.079
-8.575	41.022	1946.673	1751.033
-7.560	41.088	1945.092	1750.121
-6.546	41.003	1943.883	1748.216
-5.531	41.069	1942.713	1747.673
-4.517	41.072	1940.806	1745.918
-3.502	41.064	1940.240	1745.267
-2.487	41.020	1939.033	1743.730
-1.473	41.054	1938.294	1743.294
-0.458	41.133	1933.524	1739.622
0.556	38.569	1914.006	1712.941
1.571	34.131	1892.982	1655.480
2.586	29.498	1912.959	1631.956
3.600	27.810	1949.427	1647.691
4.615	26.823	1945.831	1635.615
5.629	23.520	1851.632	1527.889
6.644	18.093	1738.203	1390.156
7.659	14.975	1700.174	1334.787
8.673	14.606	1696.659	1328.971
9.688	14.629	1695.317	1327.979
10.702	14.645	1693.471	1326.546
11.717	14.450	1690.749	1322.751
12.731	14.733	1690.108	1324.378
13.746	18.262	1697.629	1358.204
14.761	20.984	1702.086	1383.285
15.775	19.247	1695.670	1364.200
16.790	16.966	1690.130	1341.602
17.804	15.820	1686.682	1329.699
18.819	14.700	1683.307	1318.086
19.834	14.121	1680.124	1310.914
20.848	13.756	1678.310	1306.506
21.863	13.393	1676.908	1302.441
22.877	13.191	1674.839	1299.130
23.892	12.844	1673.895	1295.561
24.907	12.870	1672.596	1294.640
25.921	12.803	1671.384	1293.065
26.936	12.805	1670.424	1292.221
27.950	12.857	1669.594	1291.874
28.965	12.869	1669.373	1291.685
29.980	12.960	1668.568	1291.656
30.994	12.967	1667.481	1290.756
32.009	13.092	1666.208	1290.637
33.023	13.186	1664.838	1290.198
34.038	13.102	1664.504	1289.168
35.053	13.057	1663.052	1287.575
36.067	13.074	1662.099	1286.855
37.082	12.952	1661.267	1285.147
38.096	13.016	1659.687	1284.313
39.111	13.031	1658.988	1283.772
40.126	13.128	1658.143	1283.755
41.140	13.081	1657.288	1282.621
42.155	12.972	1655.622	1280.370
43.169	12.934	1653.885	1278.619
44.184	12.867	1653.120	1277.392
45.199	12.767	1652.412	1275.962
46.213	12.773	1651.254	1274.996
47.228	12.817	1649.875	1274.161
48.242	12.903	1648.481	1273.637
49.257	12.961	1647.490	1273.204
50.271	13.058	1645.732	1272.481
51.286	12.912	1645.343	1270.945
52.301	12.954	1643.786	1269.952
53.315	12.960	1642.176	1268.643
54.330	12.913	1641.304	1267.497
55.344	12.929	1639.242	1265.911
56.359	12.867	1637.595	1264.050
57.374	12.818	1636.894	1263.025
58.388	12.920	1635.522	1262.640
59.403	12.893	1634.075	1261.201
60.417	12.785	1633.078	1259.496
61.432	12.787	1631.674	1258.315
62.447	12.823	1630.534	1257.600
63.461	12.734	1629.397	1255.935
64.476	12.735	1628.545	1255.173
65.490	12.664	1627.766	1253.919
66.505	12.724	1626.007	1252.908
67.520	12.750	1624.848	1252.106
68.534	12.740	1624.158	1251.384
69.549	12.777	1623.401	1250.970
70.563	12.772	1621.436	1249.311
71.578	12.822	1620.335	1248.727
72.593	12.801	1619.337	1247.694
73.607	12.642	1618.115	1245.439
74.622	12.697	1617.503	1245.273
75.636	12.644	1616.076	1243.662
76.651	12.655	1615.672	1243.328
77.666	12.648	1614.614	1242.347
78.680	12.690	1613.678	1241.836
79.695	12.641	1613.011	1240.844
80.709	12.724	1612.243	1240.763
81.724	12.732	1611.352	1240.032
82.739	12.708	1610.276	1238.912
83.753	12.768	1609.452	1238.622
84.768	12.853	1608.160	1238.156
85.782	12.989	1607.586	1238.623
86.797	12.983	1607.152	1238.134
87.812	13.074	1605.744	1237.625
88.826	12.869	1604.694	1235.166
89.841	12.868	1603.603	1234.213
90.855	12.979	1602.098	1233.777
91.870	12.935	1601.498	1232.873
92.884	12.899	1600.760	1231.928
93.899	13.001	1599.472	1231.589
94.914	13.001	1598.206	1230.505
95.928	13.006	1597.173	1229.638
96.943	13.045	1595.826	1228.782
97.957	13.026	1594.681	1227.650
98.972	13.033	1592.777	1226.132
99.987	13.093	1591.023	1225.116
101.001	12.979	1589.995	1223.373
102.016	12.961	1588.277	1221.804
103.030	12.934	1586.658	1220.250
104.045	12.953	1585.706	1219.556
105.060	13.005	1584.758	1219.100
106.074	12.882	1583.538	1217.148
107.089	12.970	1581.711	1216.285
108.103	12.788	1580.472	1213.881
109.118	12.831	1578.507	1212.586
110.133	12.804	1577.204	1211.276
111.147	12.854	1575.594	1210.301
112.162	12.772	1574.718	1208.917
113.176	12.762	1573.612	1207.891
114.191	12.825	1571.915	1206.943
115.206	12.871	1570.579	1206.146
116.220	12.923	1569.120	1205.299
117.235	12.820	1568.136	1203.685
118.249	12.820	1566.819	1202.563
119.264	12.865	1565.193	1201.541
120.279	12.763	1564.181	1199.913
121.293	12.734	1562.916	1198.628
122.308	12.867	1561.112	1198.101
123.322	12.785	1559.467	1196.141
124.337	12.752	1558.441	1195.005
125.352	12.709	1557.227	1193.655
126.366	12.805	1555.801	1193.153
127.381	12.803	1554.564	1192.084
128.395	12.769	1553.638	1191.026
129.410	12.764	1552.717	1190.180
130.424	12.801	1551.336	1189.282
131.439	12.851	1550.080	1188.573
132.454	12.877	1548.656	1187.560
133.468	12.979	1547.025	1186.940
134.483	12.971	1545.564	1185.660
135.497	12.965	1543.787	1184.147
136.512	12.995	1543.027	1183.673
137.527	12.914	1541.552	1181.859
138.541	13.018	1540.359	1181.582
139.556	13.007	1538.564	1180.026
140.570	13.002	1537.833	1179.319
141.585	13.054	1536.113	1178.268
142.600	13.013	1534.841	1176.896
143.614	13.079	1533.541	1176.266
144.629	13.171	1532.523	1176.038
145.643	13.186	1530.876	1174.778
146.658	13.219	1529.772	1174.062
147.673	13.144	1528.042	1172.095
148.687	13.114	1526.741	1170.784
149.702	13.112	1525.378	1169.618
150.716	13.020	1523.814	1167.666
151.731	13.037	1522.384	1166.587
152.746	12.999	1521.482	1165.521
153.760	13.158	1519.399	1164.945
154.775	13.127	1518.501	1163.932
155.789	13.097	1516.979	1162.452
156.804	13.126	1515.728	1161.596
157.819	13.156	1514.494	1160.756
158.833	13.187	1513.867	1160.395
159.848	13.140	1512.478	1158.896
160.862	13.270	1511.031	1158.595
161.877	13.313	1509.887	1157.917
162.892	13.332	1508.385	1156.793
163.906	13.302	1506.741	1155.223
164.921	13.159	1505.966	1153.527
165.935	13.146	1504.919	1152.537
166.950	13.129	1504.072	1151.666
167.964	13.212	1502.856	1151.212
168.979	13.164	1502.048	1150.159
169.994	13.188	1501.118	1149.508
171.008	13.204	1499.722	1148.448
172.023	13.215	1499.041	1147.902
173.037	13.244	1497.746	1147.009
174.052	13.282	1496.503	1146.221
175.067	13.333	1495.486	1145.690
176.081	13.316	1494.508	1144.724
177.096	13.252	1492.864	1142.920
178.110	13.239	1491.224	1141.479
179.125	13.269	1490.444	1140.981
180.140	13.288	1489.089	1139.981
181.154	13.306	1488.156	1139.285
182.169	13.253	1487.363	1138.216
183.183	13.325	1486.041	1137.594
184.198	13.513	1484.482	1137.592
185.213	13.516	1483.940	1137.100
186.227	13.465	1482.355	1135.430
187.242	13.452	1481.826	1134.840
188.256	13.523	1480.570	1134.259
189.271	13.535	1479.494	1133.422
190.286	13.580	1478.539	1132.893
191.300	13.464	1477.228	1131.001
192.315	13.467	1475.519	1129.613
193.329	13.326	1474.861	1128.048
194.344	13.296	1473.349	1126.587
195.359	13.400	1472.323	1126.411
196.373	13.362	1471.697	1125.570
197.388	13.361	1470.496	1124.544
198.402	13.490	1469.253	1124.372
199.417	13.576	1468.455	1124.247
200.432	13.574	1467.591	1123.474
201.446	13.637	1466.397	1122.886
202.461	13.766	1465.133	1122.688
203.475	13.819	1463.534	1121.724
204.490	13.787	1463.291	1121.220
205.504	13.737	1462.250	1119.987
206.519	13.723	1460.651	1118.572
207.534	13.664	1459.674	1117.326
208.548	13.702	1458.185	1116.344
209.563	13.789	1457.623	1116.395
210.577	13.718	1456.648	1115.078
211.592	13.696	1456.309	1114.570
212.607	13.694	1455.468	1113.816
213.621	13.735	1454.808	1113.483
214.636	13.847	1453.756	1113.334
215.650	13.731	1452.865	1111.775
216.665	13.848	1451.898	1111.722
217.680	13.836	1451.354	1111.126
218.694	13.930	1449.977	1110.598
219.709	13.890	1449.365	1109.767
220.723	13.891	1448.637	1109.115
221.738	13.916	1448.039	1108.731
222.753	13.868	1446.571	1107.186
223.767	13.930	1445.389	1106.597
224.782	13.969	1444.515	1106.092
225.796	13.935	1443.940	1105.326
226.811	14.006	1442.940	1104.932
227.826	14.020	1442.278	1104.419
228.840	14.061	1440.956	1103.580
229.855	14.037	1439.920	1102.536
230.869	14.008	1438.951	1101.500
231.884	14.039	1438.125	1100.977
232.899	13.992	1436.903	1099.633
233.913	14.020	1436.087	1099.098
234.928	13.969	1434.849	1097.717
235.942	13.944	1433.606	1096.503
236.957	13.960	1432.406	1095.593
237.972	13.962	1431.105	1094.516
238.986	13.902	1429.854	1093.068
240.001	14.078	1429.108	1093.557
241.015	13.966	1428.209	1092.037
242.030	14.032	1427.032	1091.475
243.045	14.122	1425.821	1091.042
244.059	14.127	1425.212	1090.510
245.074	14.095	1424.158	1089.399
246.088	14.167	1423.533	1089.292
247.103	14.215	1422.797	1088.952
248.117	14.150	1422.262	1088.015
249.132	14.207	1421.446	1087.672
250.147	14.314	1420.722	1087.720
251.161	14.287	1419.988	1086.883
252.176	14.508	1418.916	1087.409
253.190	14.436	1418.502	1086.524
254.205	14.555	1417.275	1086.266
255.220	14.628	1416.427	1085.992
256.234	14.548	1415.902	1084.972
257.249	14.531	1415.402	1084.382
258.263	14.624	1414.293	1084.045
259.278	14.628	1412.997	1082.979
260.293	14.539	1412.236	1081.725
261.307	14.612	1411.149	1081.271
262.322	14.775	1410.246	1081.538
263.336	14.763	1409.424	1080.735
264.351	14.679	1409.000	1079.772
265.366	14.727	1408.037	1079.248
266.380	14.661	1407.489	1078.306
267.395	14.746	1406.164	1077.744
268.409	14.759	1405.444	1077.178
269.424	14.738	1404.196	1075.989
270.439	14.609	1403.459	1074.503
271.453	14.796	1402.176	1074.629
272.468	14.697	1401.709	1073.536
273.482	14.705	1400.744	1072.754
274.497	14.803	1399.582	1072.395
275.512	14.658	1399.039	1070.959
276.526	14.792	1397.961	1070.897
277.541	14.825	1397.051	1070.312
278.555	14.756	1396.326	1069.222
279.570	14.786	1395.442	1068.645
280.585	14.688	1394.569	1067.251
281.599	14.876	1393.137	1067.262
282.614	14.912	1392.609	1066.997
283.628	14.959	1391.256	1066.167
284.643	14.905	1390.413	1065.080
285.657	14.938	1389.098	1064.190
286.672	14.873	1388.777	1063.431
287.687	14.797	1387.541	1061.912
288.701	14.882	1386.515	1061.568
289.716	14.924	1385.798	1061.192
290.730	14.966	1385.210	1060.918
291.745	14.977	1383.776	1059.797
292.760	15.038	1382.786	1059.328
293.774	15.019	1381.964	1058.487
294.789	14.979	1381.322	1057.645
295.803	15.020	1380.348	1057.069
296.818	15.052	1379.643	1056.638
297.833	15.044	1378.259	1055.428
298.847	15.122	1377.204	1055.019
299.862	15.216	1376.012	1054.605
300.876	15.068	1375.632	1053.288
301.891	15.129	1374.429	1052.659
302.906	15.149	1374.014	1052.373
303.920	15.147	1373.261	1051.692
304.935	15.104	1372.574	1050.804
305.949	15.187	1371.806	1050.642
306.964	15.305	1370.685	1050.429
307.979	15.351	1369.813	1049.957
308.993	15.309	1368.850	1048.865
310.008	15.338	1368.069	1048.351
311.022	15.302	1367.043	1047.247
312.037	15.264	1366.125	1046.217
313.052	15.337	1365.426	1046.042
314.066	15.385	1364.166	1045.285
315.081	15.279	1363.285	1043.856
316.095	15.250	1361.629	1042.318
317.110	15.247	1361.377	1042.012
318.125	15.206	1360.113	1040.696
319.139	15.309	1358.891	1040.311
320.154	15.331	1357.864	1039.572
321.168	15.361	1357.006	1039.005
322.183	15.274	1356.281	1037.822
323.197	15.350	1355.060	1037.266
324.212	15.281	1354.932	1036.646
325.227	15.408	1353.837	1036.501
326.241	15.470	1352.911	1036.087
327.256	15.362	1352.098	1034.704
328.270	15.399	1351.093	1034.070
329.285	15.427	1350.576	1033.760
330.300	15.476	1349.068	1032.813
331.314	15.366	1348.493	1031.607
332.329	15.358	1347.944	1031.045
333.343	15.353	1346.683	1029.959
334.358	15.506	1345.644	1030.011
335.373	15.576	1345.069	1029.909
336.387	15.616	1344.070	1029.296
337.402	15.639	1343.233	1028.703
338.416	15.564	1343.118	1028.071
339.431	15.615	1342.202	1027.590
340.446	15.743	1341.118	1027.452
341.460	15.713	1340.247	1026.507
342.475	15.765	1338.920	1025.716
343.489	15.775	1338.295	1025.207
344.504	15.780	1337.646	1024.653
345.519	15.776	1336.688	1023.800
346.533	15.819	1335.836	1023.321
347.548	15.894	1334.749	1022.855
348.562	15.903	1333.731	1022.039
349.577	15.894	1333.278	1021.545
350.592	15.829	1332.752	1020.657
351.606	15.921	1331.633	1020.268
352.621	15.762	1330.781	1018.560
353.635	15.747	1329.149	1017.129
354.650	15.708	1328.513	1016.321
355.665	15.840	1327.507	1016.260
356.679	15.833	1326.270	1015.178
357.694	15.843	1325.599	1014.637
358.708	15.844	1324.465	1013.683
359.723	15.883	1323.499	1013.090
360.738	15.959	1322.479	1012.675
361.752	15.940	1321.287	1011.556
362.767	16.026	1319.847	1010.881
363.781	16.088	1319.268	1010.720
364.796	16.010	1318.516	1009.588
365.810	16.014	1318.403	1009.439
366.825	16.054	1317.428	1008.844
367.840	16.077	1316.734	1008.360
368.854	16.057	1315.978	1007.572
369.869	16.107	1315.501	1007.412
370.883	16.160	1314.531	1006.899
371.898	16.141	1313.626	1006.006
372.913	16.233	1312.935	1005.935
373.927	16.149	1312.083	1004.689
374.942	16.197	1311.202	1004.211
375.956	16.258	1310.339	1003.826
376.971	16.245	1309.880	1003.308
377.986	16.217	1309.478	1002.748
379.000	16.259	1308.567	1002.211
380.015	16.351	1307.469	1001.825
381.029	16.347	1306.384	1000.882
382.044	16.289	1306.268	1000.361
383.059	16.339	1305.798	1000.205
384.073	16.399	1304.896	999.786
385.088	16.354	1304.118	998.830
386.102	16.466	1303.238	998.731
387.117	16.466	1302.535	998.104
388.132	16.382	1301.947	997.070
389.146	16.363	1301.022	996.159
390.161	16.383	1300.096	995.482
391.175	16.300	1299.478	994.430
392.190	16.374	1298.326	993.899
393.205	16.441	1297.443	993.531
394.219	16.516	1296.484	993.148
395.234	16.551	1295.359	992.401
396.248	16.650	1293.908	991.781
397.263	16.488	1292.931	989.995
398.278	16.550	1291.395	989.098
399.292	16.500	1290.563	988.082
400.307	16.422	1289.839	986.984
401.321	16.392	1288.323	985.560
402.336	16.548	1287.366	985.652
403.350	16.501	1286.300	984.474
404.365	16.552	1285.505	984.077
405.380	16.472	1285.230	983.310
406.394	16.562	1284.102	982.884
407.409	16.505	1283.476	981.987
408.423	16.616	1282.816	982.037
409.438	16.568	1282.185	981.191
410.453	16.686	1281.554	981.305
411.467	16.776	1280.327	980.799
412.482	16.857	1280.283	981.147
413.496	16.871	1279.242	980.347
414.511	16.910	1278.641	980.025
415.526	16.882	1277.936	979.237
416.540	16.839	1277.417	978.499
417.555	16.914	1276.501	978.149
418.569	16.934	1275.905	977.718
419.584	16.842	1275.430	976.735
420.599	16.870	1274.887	976.394
421.613	79.191	1324.334	1372.605
422.628	77.886	1331.537	1372.742
