DTS Sentinel unit serial number:	SN413079Multiplexer serial number:	ORYXHardware model number:	OX4-SRSoftware version number:	ORYX F/W v4.00 Oryx Data Collector v3.7.2.0data status	okinstallation	princeton_trtdifferential loss correction	single-endedforward channel	channel 4reverse channel	N/Adate	2019/09/16time	01:01:35forward acquisition time	60.00reverse acquisition time	0.00gamma	496.2192k internal	0.2324k external	0.2324temperature offset calibration	0.9968default loss term (dB/km)	0.3790temperature slope calibration	1.0000multiplexer offset coefficient	1.0000multiplexer slope coefficient	1.0000fibre end	0.00T internal ref (°C)	27.31T ext. ref 1 (°C)	9.75T ext. ref 2 (°C)	21.41length (m)	temperature (°C)	Stokes	anti-Stokes-747.200	-200.000	0.011	-0.157
-746.185	-200.000	-0.009	0.142
-745.171	-200.000	0.010	0.130
-744.156	-200.000	-0.025	0.284
-743.142	105.304	-0.172	-0.205
-742.127	4.867	-0.308	0.229
-741.112	-200.000	0.159	0.000
-740.098	-82.169	0.072	-0.024
-739.083	-19.548	-0.223	-0.139
-738.069	-200.000	0.013	-0.089
-737.054	341.659	-0.040	-0.079
-736.039	630.680	-0.138	-0.352
-735.025	374.918	-0.039	0.080
-734.010	703.700	0.116	-0.309
-732.996	413.046	-0.084	-0.181
-731.981	40.972	0.179	-0.163
-730.966	-200.000	-0.017	0.320
-729.952	163.018	0.138	-0.196
-728.937	658.095	-0.122	0.315
-727.923	-58.124	-0.241	-0.106
-726.908	39.183	0.193	-0.174
-725.894	9.067	-0.163	-0.124
-724.879	-117.345	0.139	-0.025
-723.864	-113.742	-0.569	-0.112
-722.850	-137.534	0.269	-0.031
-721.835	-33.122	-0.219	-0.123
-720.821	-49.717	-0.199	0.096
-719.806	194.519	-0.212	0.324
-718.791	144.592	-0.266	-0.358
-717.777	78.243	0.220	-0.237
-716.762	523.008	0.131	-0.311
-715.748	-58.210	0.078	-0.034
-714.733	800.000	-0.020	-0.081
-713.718	56.693	0.011	0.011
-712.704	178.420	-0.236	-0.348
-711.689	-139.820	-0.356	0.038
-710.675	-200.000	-0.026	-0.297
-709.660	420.994	-0.152	-0.329
-708.645	-94.078	-0.401	-0.111
-707.631	-174.376	-0.118	-0.003
-706.616	-35.761	0.074	0.040
-705.602	-67.724	-0.152	-0.060
-704.587	-3.810	-0.182	-0.128
-703.572	-200.000	0.162	0.001
-702.558	30.754	-0.193	-0.167
-701.543	800.000	0.057	-0.244
-700.529	-42.321	0.172	0.089
-699.514	222.151	0.205	-0.332
-698.499	800.000	-0.047	-0.140
-697.485	-36.832	-0.191	0.103
-696.470	239.317	-0.143	0.240
-695.456	62.701	-0.275	0.277
-694.441	-152.466	0.167	-0.012
-693.426	-64.350	-0.470	0.193
-692.412	-200.000	0.011	0.148
-691.397	-73.330	-0.072	-0.027
-690.383	102.823	-0.161	-0.190
-689.368	-90.627	-0.472	-0.137
-688.354	-54.555	-0.096	-0.044
-687.339	-173.687	-0.310	0.009
-686.324	-0.619	0.266	-0.190
-685.310	-89.896	0.147	-0.043
-684.295	-200.000	-0.153	-0.001
-683.281	-38.383	-0.162	0.086
-682.266	-200.000	0.020	-0.118
-681.251	-139.679	0.394	0.042
-680.237	-3.603	-0.256	0.179
-679.222	-130.252	0.129	-0.018
-678.208	-93.429	-0.412	0.115
-677.193	-155.169	0.237	-0.016
-676.178	-200.000	0.010	-0.269
-675.164	94.393	-0.107	0.122
-674.149	21.456	-0.264	-0.216
-673.135	35.737	0.097	-0.086
-672.120	243.333	-0.169	0.285
-671.105	-200.000	0.001	0.254
-670.091	-39.445	-0.248	-0.131
-669.076	800.000	0.034	0.122
-668.062	800.000	0.027	0.098
-667.047	256.374	-0.081	-0.141
-666.032	121.391	-0.169	0.212
-665.018	329.397	0.032	0.061
-664.003	738.567	0.067	-0.182
-662.989	36.587	-0.357	-0.317
-661.974	-82.027	-0.328	-0.108
-660.959	-200.000	0.029	-0.291
-659.945	-1.953	0.125	0.088
-658.930	-169.452	-0.487	0.018
-657.916	800.000	0.018	0.049
-656.901	58.085	-0.275	-0.271
-655.886	-35.600	0.182	0.100
-654.872	-84.961	0.144	0.045
-653.857	-176.371	0.099	-0.003
-652.843	77.847	-0.079	-0.085
-651.828	-55.250	-0.294	0.133
-650.814	74.198	0.162	0.171
-649.799	-121.537	-0.235	0.039
-648.784	-200.000	-0.009	0.228
-647.770	216.551	-0.021	0.034
-646.755	-167.397	0.268	0.011
-645.741	-14.136	-0.303	-0.196
-644.726	251.790	-0.083	-0.142
-643.711	117.737	0.169	-0.210
-642.697	85.405	0.291	-0.322
-641.682	-200.000	0.019	-0.231
-640.668	-18.434	-0.407	-0.256
-639.653	174.854	0.249	-0.362
-638.638	-200.000	0.037	-0.284
-637.624	-118.903	-0.340	-0.060
-636.609	51.135	-0.072	-0.069
-635.595	-125.723	-0.169	0.026
-634.580	800.000	0.034	0.126
-633.565	-117.429	0.231	0.042
-632.551	-200.000	-0.014	-0.145
-631.536	-200.000	-0.016	0.272
-630.522	592.054	0.064	-0.159
-629.507	-36.620	-0.218	0.118
-628.492	278.098	-0.211	0.378
-627.478	800.000	-0.065	0.207
-626.463	19.326	-0.370	0.298
-625.449	79.972	0.182	-0.196
-624.434	-123.589	0.201	-0.032
-623.419	-200.000	0.020	-0.252
-622.405	-171.501	0.133	0.004
-621.390	4.942	0.063	0.046
-620.376	251.001	0.073	0.124
-619.361	611.218	-0.049	0.122
-618.346	7.216	0.161	0.121
-617.332	-38.868	0.018	0.009
-616.317	73.612	-0.230	0.242
-615.303	78.115	-0.125	-0.134
-614.288	-200.000	0.004	-0.130
-613.273	800.000	-0.017	-0.050
-612.259	-200.000	0.000	-0.163
-611.244	800.000	-0.018	-0.054
-610.230	270.170	-0.058	-0.103
-609.215	800.000	-0.015	0.064
-608.201	8.713	-0.239	-0.181
-607.186	283.065	-0.210	-0.378
-606.171	-145.246	0.222	0.020
-605.157	-185.800	0.291	-0.004
-604.142	-82.910	-0.303	0.098
-603.128	-149.272	0.234	-0.019
-602.113	-26.508	0.055	-0.032
-601.098	-200.000	-0.031	0.243
-600.084	-200.000	0.019	0.146
-599.069	-28.849	0.137	-0.079
-598.055	-100.903	-0.360	0.089
-597.040	-86.518	-0.188	0.058
-596.025	-200.000	0.002	-0.048
-595.011	-159.694	0.437	-0.024
-593.996	-200.000	0.011	0.079
-592.982	405.300	-0.080	-0.169
-591.967	-200.000	0.019	-0.236
-590.952	10.696	-0.289	-0.221
-589.938	-84.287	0.065	0.021
-588.923	32.433	-0.108	0.094
-587.909	-40.414	0.241	-0.126
-586.894	86.859	0.092	-0.102
-585.879	180.982	-0.038	0.056
-584.865	-200.000	0.084	0.421
-583.850	164.762	-0.097	-0.138
-582.836	-46.976	0.300	-0.147
-581.821	-13.753	-0.108	0.070
-580.806	67.737	-0.028	0.028
-579.792	-200.000	-0.053	0.264
-578.777	-200.000	-0.004	-0.036
-577.763	-18.752	0.222	-0.139
-576.748	-200.000	-0.001	0.300
-575.733	199.222	0.181	0.278
-574.719	480.497	0.163	-0.372
-573.704	-23.953	0.270	0.162
-572.690	-139.626	-0.105	-0.011
-571.675	87.364	0.070	0.078
-570.661	92.949	-0.074	-0.084
-569.646	-147.374	-0.469	0.040
-568.631	-71.057	0.087	0.033
-567.617	-200.000	0.046	-0.283
-566.602	-111.321	-0.110	-0.022
-565.588	-200.000	-0.018	-0.161
-564.573	-21.865	0.144	0.088
-563.558	71.120	-0.182	0.189
-562.544	-74.100	0.041	0.015
-561.529	800.000	0.072	0.275
-560.515	22.481	0.144	0.118
-559.500	-177.922	-0.205	-0.005
-558.485	-47.487	0.123	-0.060
-557.471	-11.149	-0.112	-0.074
-556.456	-69.977	-0.148	-0.057
-555.442	-52.720	-0.189	0.087
-554.427	-104.490	-0.252	0.058
-553.412	18.353	-0.322	0.258
-552.398	-107.070	-0.136	0.030
-551.383	89.106	-0.234	-0.262
-550.369	-63.718	0.408	0.168
-549.354	235.043	0.098	0.163
-548.339	147.296	0.089	-0.120
-547.325	-9.339	-0.401	-0.268
-546.310	213.710	0.077	-0.122
-545.296	-103.474	0.062	-0.015
-544.281	-200.000	-0.051	0.248
-543.266	-81.545	-0.185	0.061
-542.252	-71.786	-0.024	0.009
-541.237	15.228	-0.280	0.220
-540.223	-24.540	0.500	-0.298
-539.208	-151.945	0.205	-0.015
-538.193	-200.000	0.007	-0.075
-537.179	-158.962	-0.115	-0.007
-536.164	55.881	0.168	-0.164
-535.150	5.440	-0.307	0.227
-534.135	-89.396	0.025	-0.007
-533.121	17.938	-0.067	0.054
-532.106	127.427	-0.072	-0.092
-531.091	16.579	-0.007	0.005
-530.077	-200.000	-0.015	-0.179
-529.062	-136.262	-0.179	-0.021
-528.048	39.992	-0.123	0.110
-527.033	-200.000	0.049	-0.352
-526.018	-144.064	0.261	0.025
-525.004	306.638	0.077	-0.143
-523.989	143.440	-0.101	-0.135
-522.975	-122.482	0.333	0.054
-521.960	39.008	-0.299	0.267
-520.945	322.317	0.211	0.402
-519.931	57.416	-0.133	0.130
-518.916	131.948	0.228	0.293
-517.902	-132.445	-0.366	-0.047
-516.887	-23.138	0.180	-0.108
-515.872	-187.285	0.235	-0.003
-514.858	800.000	-0.085	-0.302
-513.843	-157.616	0.220	0.013
-512.829	-137.526	0.146	-0.016
-511.814	-139.498	-0.245	0.026
-510.799	-17.562	0.210	0.132
-509.785	77.460	0.157	0.167
-508.770	80.236	-0.034	-0.036
-507.756	-36.587	-0.086	-0.046
-506.741	-200.000	0.016	0.336
-505.726	-200.000	0.014	0.367
-504.712	201.334	-0.269	0.415
-503.697	-150.270	0.463	-0.036
-502.683	45.726	-0.164	-0.152
-501.668	-178.430	-0.341	0.008
-500.653	-94.473	0.290	-0.079
-499.639	430.527	-0.100	0.216
-498.624	-200.000	0.015	0.391
-497.610	98.776	0.077	0.089
-496.595	-68.593	0.136	0.053
-495.581	251.769	0.240	-0.409
-494.566	-109.666	0.335	0.071
-493.551	516.659	-0.094	-0.219
-492.537	8.635	0.060	0.045
-491.522	-30.497	-0.192	-0.109
-490.508	-200.000	0.030	-0.377
-489.493	-126.434	0.052	0.008
-488.478	139.345	-0.089	-0.117
-487.464	-4.654	0.225	-0.155
-486.449	-23.466	-0.282	-0.169
-485.435	-193.130	-0.076	0.001
-484.420	-78.016	0.177	0.061
-483.405	-80.204	-0.477	0.159
-482.391	-200.000	0.082	0.482
-481.376	-200.000	-0.014	-0.096
-480.362	-200.000	0.007	0.074
-479.347	-46.100	-0.200	-0.098
-478.332	800.000	-0.051	-0.202
-477.318	-200.000	-0.002	-0.455
-476.303	-73.029	0.107	0.039
-475.289	43.125	0.298	-0.272
-474.274	-73.672	0.321	-0.117
-473.259	-200.000	-0.119	-0.530
-472.245	161.345	0.157	0.219
-471.230	788.252	-0.114	0.313
-470.216	407.043	-0.102	0.214
-469.201	-200.000	-0.046	-0.332
-468.186	-200.000	-0.010	0.104
-467.172	-20.870	-0.028	-0.017
-466.157	-200.000	-0.023	0.111
-465.143	800.000	-0.077	0.248
-464.128	149.699	-0.125	-0.169
-463.113	13.005	0.114	-0.088
-462.099	141.252	0.074	-0.098
-461.084	-143.521	-0.382	-0.036
-460.070	-61.266	-0.233	0.098
-459.055	-162.871	0.355	-0.017
-458.040	-100.082	0.284	0.071
-457.026	111.961	0.189	-0.228
-456.011	375.718	0.071	0.144
-454.997	525.283	-0.130	0.305
-453.982	10.983	0.232	-0.177
-452.968	11.771	0.214	-0.164
-451.953	173.083	0.197	0.283
-450.938	800.000	0.012	-0.042
-449.924	-5.726	0.233	0.159
-448.909	-25.630	-0.227	0.133
-447.895	800.000	-0.042	-0.159
-446.880	-145.474	0.125	0.011
-445.865	800.000	0.103	0.310
-444.851	800.000	0.027	-0.106
-443.836	-38.386	0.070	0.037
-442.822	800.000	-0.065	0.221
-441.807	800.000	-0.024	-0.072
-440.792	371.494	-0.088	-0.179
-439.778	-16.500	-0.064	-0.040
-438.763	8.868	-0.192	0.144
-437.749	95.441	0.111	0.126
-436.734	542.036	-0.122	-0.290
-435.719	-200.000	-0.061	0.000
-434.705	6.779	0.080	0.060
-433.690	235.027	-0.195	-0.322
-432.676	-197.040	-0.312	0.002
-431.661	-109.283	0.062	-0.013
-430.646	800.000	0.072	-0.228
-429.632	0.637	-0.218	-0.155
-428.617	82.184	-0.178	0.192
-427.603	56.626	0.106	-0.103
-426.588	65.060	0.187	0.188
-425.573	29.518	-0.147	-0.125
-424.559	265.834	0.083	-0.144
-423.544	-117.579	0.203	0.037
-422.530	-48.188	0.155	-0.075
-421.515	-60.878	-0.223	0.094
-420.500	-111.552	-0.296	-0.060
-419.486	800.000	0.025	-0.071
-418.471	128.194	0.112	-0.142
-417.457	-153.958	0.044	-0.003
-416.442	-56.713	-0.190	-0.084
-415.428	800.000	-0.107	-0.398
-414.413	-106.243	-0.388	-0.087
-413.398	37.247	0.132	-0.117
-412.384	-114.914	-0.112	-0.021
-411.369	800.000	-0.009	0.036
-410.355	-200.000	0.022	0.198
-409.340	30.778	-0.062	-0.053
-408.325	-181.083	-0.212	-0.004
-407.311	-148.897	-0.276	-0.022
-406.296	2.591	-0.244	0.176
-405.282	173.331	-0.116	-0.166
-404.267	-5.523	-0.387	-0.265
-403.252	-200.000	-0.018	-0.139
-402.238	652.831	0.100	-0.255
-401.223	800.000	0.085	-0.304
-400.209	7.636	-0.098	-0.073
-399.194	800.000	0.123	-0.487
-398.179	-200.000	0.034	-0.316
-397.165	69.790	-0.151	-0.155
-396.150	-64.569	0.261	-0.106
-395.136	-125.501	-0.184	-0.028
-394.121	800.000	0.069	0.200
-393.106	-142.899	0.137	-0.013
-392.092	594.471	-0.008	0.020
-391.077	-200.000	-0.005	0.115
-390.063	76.314	0.123	-0.129
-389.048	-159.975	0.090	0.005
-388.033	537.142	-0.131	0.310
-387.019	45.908	0.151	-0.139
-386.004	-167.778	0.164	-0.006
-384.990	226.678	0.054	-0.087
-383.975	-200.000	0.052	0.352
-382.960	-200.000	0.011	0.157
-381.946	-74.534	-0.058	-0.021
-380.931	-200.000	0.019	0.312
-379.917	-59.490	-0.301	-0.129
-378.902	473.524	-0.251	-0.563
-377.888	94.152	0.021	0.024
-376.873	-155.450	-0.157	-0.010
-375.858	605.666	-0.108	0.268
-374.844	-200.000	-0.024	-0.208
-373.829	59.993	0.138	0.135
-372.815	-200.000	0.030	-0.221
-371.800	-182.654	-0.103	0.002
-370.785	-144.144	0.073	0.007
-369.771	-90.128	-0.156	-0.045
-368.756	197.538	-0.249	-0.378
-367.742	336.507	0.036	0.070
-366.727	65.707	0.051	-0.052
-365.712	-20.828	-0.074	-0.045
-364.698	86.991	-0.052	-0.057
-363.683	-124.779	-0.231	0.036
-362.669	-60.038	-0.102	-0.043
-361.654	800.000	0.054	-0.183
-360.639	44.747	0.232	0.213
-359.625	513.152	-0.058	0.134
-358.610	-49.088	0.115	0.055
-357.596	329.828	0.168	0.321
-356.581	41.531	-0.202	0.182
-355.566	105.528	0.192	0.225
-354.552	11.542	0.103	0.079
-353.537	-33.688	0.308	-0.169
-352.523	-200.000	0.013	0.159
-351.508	13.560	-0.052	0.040
-350.493	-150.357	-0.151	0.012
-349.479	126.469	-0.088	0.110
-348.464	600.070	-0.122	-0.302
-347.450	776.394	-0.075	-0.205
-346.435	191.989	-0.071	0.106
-345.420	800.000	-0.037	0.132
-344.406	-139.397	0.200	-0.021
-343.391	-50.342	-0.049	-0.023
-342.377	76.496	0.232	0.244
-341.362	-26.252	-0.153	-0.089
-340.348	-200.000	-0.001	-0.442
-339.333	598.678	0.079	0.194
-338.318	357.666	0.188	0.373
-337.304	30.491	0.158	0.134
-336.289	12.356	0.102	-0.078
-335.275	16.258	-0.272	-0.213
-334.260	-200.000	-0.026	0.184
-333.245	-91.733	-0.589	0.166
-332.231	-89.118	0.206	-0.060
-331.216	-19.564	-0.073	0.045
-330.202	131.280	0.084	0.107
-329.187	800.000	-0.073	0.212
-328.172	198.185	-0.067	-0.102
-327.158	-26.849	-0.198	0.115
-326.143	176.473	0.081	-0.117
-325.129	719.883	-0.116	-0.306
-324.114	-111.253	0.111	0.023
-323.099	249.518	-0.067	0.112
-322.085	288.531	0.039	-0.070
-321.070	341.320	0.121	0.236
-320.056	-93.656	0.106	0.029
-319.041	800.000	0.077	0.309
-318.026	-52.275	-0.284	0.131
-317.012	78.251	-0.202	0.214
-315.997	-7.162	0.305	0.205
-314.983	-134.970	0.222	0.027
-313.968	-196.299	0.259	0.002
-312.953	-113.003	-0.143	0.028
-311.939	-23.284	0.086	-0.051
-310.924	-67.403	-0.130	0.051
-309.910	800.000	-0.111	0.372
-308.895	-59.292	-0.122	-0.052
-307.880	429.707	0.078	0.167
-306.866	-200.000	0.061	-0.289
-305.851	351.883	0.055	-0.108
-304.837	800.000	-0.047	0.202
-303.822	-200.000	0.028	-0.149
-302.807	19.468	0.186	-0.148
-301.793	-20.118	0.174	-0.107
-300.778	-71.532	0.214	-0.079
-299.764	-200.000	0.043	0.322
-298.749	81.564	-0.125	-0.134
-297.735	-10.889	-0.312	-0.205
-296.720	-200.000	0.026	-0.178
-295.705	-200.000	0.020	-0.088
-294.691	-29.465	0.338	0.192
-293.676	-105.316	-0.154	-0.035
-292.662	-2.305	-0.198	-0.138
-291.647	800.000	-0.075	-0.224
-290.632	131.529	-0.126	0.161
-289.618	249.045	0.110	-0.185
-288.603	-69.228	-0.176	0.067
-287.589	-123.049	-0.341	-0.054
-286.574	10.202	0.153	-0.115
-285.559	-199.586	0.172	0.001
-284.545	-200.000	0.017	-0.130
-283.530	-38.379	0.165	0.087
-282.516	-79.541	-0.369	-0.124
-281.501	70.217	-0.112	0.115
-280.486	92.855	-0.071	-0.080
-279.472	-65.577	-0.301	-0.120
-278.457	-111.903	0.274	0.055
-277.443	89.311	0.401	0.443
-276.428	-153.648	-0.131	-0.009
-275.413	86.287	-0.211	-0.231
-274.399	-200.000	-0.037	0.168
-273.384	159.852	-0.139	0.192
-272.370	37.331	0.327	0.288
-271.355	604.110	-0.041	-0.100
-270.340	76.885	0.390	0.411
-269.326	123.923	0.159	-0.198
-268.311	-90.537	0.260	0.074
-267.297	-115.525	-0.432	0.081
-266.282	12.461	-0.124	-0.095
-265.267	23.301	-0.236	0.192
-264.253	-52.718	0.223	0.102
-263.238	-138.035	-0.361	0.040
-262.224	-200.000	0.029	-0.159
-261.209	-200.000	-0.004	-0.038
-260.195	-200.000	-0.029	-0.350
-259.180	-139.858	-0.014	0.001
-258.165	-119.018	0.376	-0.065
-257.151	-200.000	-0.020	0.425
-256.136	232.033	-0.142	0.230
-255.122	-162.657	0.213	0.010
-254.107	-26.736	0.141	-0.082
-253.092	800.000	-0.026	-0.107
-252.078	44.325	0.071	-0.065
-251.063	-15.042	-0.087	0.055
-250.049	-200.000	-0.060	0.293
-249.034	-200.000	0.007	-0.068
-248.019	104.616	-0.074	-0.086
-247.005	-94.211	-0.057	-0.016
-245.990	-149.277	0.421	-0.033
-244.976	800.000	0.028	-0.097
-243.961	-54.481	-0.164	0.073
-242.946	-200.000	0.011	0.063
-241.932	356.433	-0.049	0.097
-240.917	800.000	0.069	-0.239
-239.903	-22.440	-0.192	-0.115
-238.888	305.876	-0.062	-0.114
-237.873	-151.244	0.159	-0.012
-236.859	786.894	-0.053	-0.144
-235.844	545.156	0.012	0.028
-234.830	61.917	0.101	0.100
-233.815	800.000	-0.068	-0.222
-232.800	107.850	-0.178	-0.210
-231.786	-85.833	0.134	0.041
-230.771	800.000	0.003	-0.009
-229.757	30.463	-0.238	0.201
-228.742	800.000	0.076	0.239
-227.727	-200.000	0.028	-0.226
-226.713	197.710	-0.126	-0.190
-225.698	270.716	0.097	0.168
-224.684	-143.541	-0.204	0.019
-223.669	800.000	-0.110	0.365
-222.655	170.995	0.180	0.255
-221.640	36.732	-0.260	0.227
-220.625	161.281	0.084	-0.117
-219.611	299.519	0.078	0.142
-218.596	110.200	0.134	0.159
-217.582	-46.379	-0.073	-0.036
-216.567	-200.000	0.009	0.145
-215.552	369.092	-0.108	0.217
-214.538	38.355	-0.168	0.148
-213.523	56.380	0.186	0.179
-212.509	87.811	-0.175	0.192
-211.494	-55.876	0.219	-0.097
-210.479	-167.067	0.239	0.010
-209.465	124.919	-0.025	0.031
-208.450	-200.000	0.043	-0.203
-207.436	-2.058	0.081	-0.057
-206.421	-155.413	0.225	-0.014
-205.406	-65.856	-0.181	0.071
-204.392	146.898	-0.138	-0.183
-203.377	244.895	0.117	0.195
-202.363	223.800	-0.122	0.195
-201.348	113.337	0.065	0.078
-200.333	547.856	-0.095	-0.225
-199.319	-200.000	-0.030	0.280
-198.304	-17.690	0.155	-0.096
-197.290	-72.403	0.359	-0.131
-196.275	97.634	-0.185	0.210
-195.260	-200.000	0.022	0.230
-194.246	-76.188	0.215	0.075
-193.231	-11.587	0.161	-0.104
-192.217	249.635	-0.051	0.086
-191.202	151.748	-0.106	0.142
-190.187	800.000	0.092	-0.347
-189.173	66.434	0.265	-0.266
-188.158	-123.011	0.246	-0.039
-187.144	17.586	-0.080	-0.063
-186.129	-66.461	0.114	-0.045
-185.114	395.026	-0.072	0.148
-184.100	-68.086	-0.201	-0.077
-183.085	-200.000	-0.005	0.057
-182.071	575.067	0.120	-0.288
-181.056	-4.748	0.031	-0.021
-180.042	301.844	-0.028	0.052
-179.027	-126.186	0.381	-0.056
-178.012	-83.825	-0.309	-0.097
-176.998	-94.734	0.118	-0.032
-175.983	-3.220	0.289	-0.199
-174.969	-91.425	0.271	0.076
-173.954	-126.046	-0.260	-0.039
-172.939	-200.000	-0.022	-0.346
-171.925	-62.369	0.366	0.150
-170.910	-108.533	0.299	-0.064
-169.896	800.000	0.010	-0.043
-168.881	94.278	-0.238	0.266
-167.866	-11.959	-0.179	-0.116
-166.852	69.017	0.189	-0.192
-165.837	-108.897	0.058	0.012
-164.823	800.000	0.042	-0.133
-163.808	200.550	-0.012	0.019
-162.793	-57.314	0.195	-0.084
-161.779	-200.000	-0.004	0.402
-160.764	786.330	-0.174	0.470
-159.750	-83.868	0.274	0.086
-158.735	375.963	-0.201	-0.404
-157.720	-95.702	0.305	-0.080
-156.706	-93.664	0.313	0.085
-155.691	53.265	0.153	0.145
-154.677	201.281	0.131	0.199
-153.662	800.000	0.037	0.111
-152.647	-157.886	-0.192	-0.011
-151.633	130.515	-0.145	0.184
-150.618	-181.578	0.228	-0.004
-149.604	-162.855	0.447	-0.022
-148.589	-29.821	0.193	-0.109
-147.574	-200.000	-0.019	0.105
-146.560	-200.000	-0.015	-0.363
-145.545	-120.450	-0.096	-0.016
-144.531	-7.836	-0.179	0.119
-143.516	-138.711	0.323	0.035
-142.502	190.814	0.063	-0.093
-141.487	-155.339	-0.257	0.016
-140.472	-97.210	0.170	0.044
-139.458	-120.837	0.312	0.052
-138.443	-44.899	0.233	-0.114
-137.429	30.695	0.285	0.241
-136.414	141.426	0.056	0.073
-135.399	-200.000	-0.016	-0.249
-134.385	-102.239	0.152	0.036
-133.370	603.724	-0.098	-0.240
-132.356	800.000	-0.028	0.078
-131.341	-92.279	0.207	-0.058
-130.326	-200.000	0.046	0.299
-129.312	-10.365	-0.225	0.147
-128.297	-137.184	0.096	-0.011
-127.283	33.927	-0.077	-0.066
-126.268	80.769	-0.134	-0.142
-125.253	-27.926	0.233	0.133
-124.239	-200.000	0.012	-0.158
-123.224	-78.172	-0.104	-0.035
-122.210	-200.000	-0.016	-0.106
-121.195	-138.841	0.147	-0.016
-120.180	-200.000	0.030	0.230
-119.166	233.986	0.098	0.159
-118.151	119.212	0.180	-0.220
-117.137	-200.000	0.031	0.316
-116.122	-124.599	0.504	-0.077
-115.107	-6.289	0.206	-0.138
-114.093	-200.000	-0.008	0.089
-113.078	23.283	0.035	-0.028
-112.064	800.000	-0.098	-0.357
-111.049	-84.904	0.252	-0.078
-110.034	-44.984	0.262	0.129
-109.020	35.428	-0.314	-0.271
-108.005	149.723	-0.045	0.061
-106.991	-200.000	-0.003	0.125
-105.976	-96.929	-0.213	0.055
-104.962	-136.191	-0.193	-0.022
-103.947	337.471	0.103	0.198
-102.932	53.328	0.054	0.051
-101.918	2.987	-0.126	-0.090
-100.903	70.614	-0.203	-0.207
-99.889	-9.078	-0.032	0.021
-98.874	800.000	-0.037	-0.107
-97.859	-200.000	0.002	0.054
-96.845	-200.000	0.015	-0.351
-95.830	-151.279	0.350	0.026
-94.816	-14.042	0.122	-0.078
-93.801	115.648	-0.129	0.156
-92.786	-38.476	-0.070	-0.037
-91.772	-200.000	-0.028	-0.154
-90.757	698.425	0.143	0.370
-89.743	-17.958	0.343	-0.212
-88.728	126.068	-0.224	0.279
-87.713	42.728	0.141	0.126
-86.699	279.195	0.181	0.317
-85.684	-23.514	0.253	0.150
-84.670	6.723	0.231	0.169
-83.655	-31.716	0.131	-0.072
-82.640	-155.937	-0.228	-0.014
-81.626	523.406	0.060	-0.139
-80.611	19.550	0.185	-0.146
-79.597	147.001	0.193	0.256
-78.582	-17.643	-0.182	-0.113
-77.567	167.685	0.089	-0.125
-76.553	-94.099	0.299	-0.081
-75.538	-188.286	-0.244	-0.003
-74.524	-200.000	0.007	0.093
-73.509	-200.000	0.034	-0.278
-72.494	-36.803	-0.224	-0.118
-71.480	-92.528	0.269	0.074
-70.465	-99.711	0.117	-0.029
-69.451	-200.000	-0.098	0.000
-68.436	84.792	0.307	0.330
-67.422	-200.000	0.037	-0.230
-66.407	-200.000	0.012	-0.403
-65.392	-200.000	-0.012	0.155
-64.378	-83.316	0.157	0.049
-63.363	3.285	-0.272	0.194
-62.349	72.552	0.104	-0.107
-61.334	205.216	-0.805	-1.229
-60.319	21.726	0.612	0.490
-59.305	369.894	-0.573	-1.141
-58.290	-200.000	0.225	1.189
-57.276	800.000	0.631	2.120
-56.261	-200.000	114.155	641.509
-55.246	471.123	1498.855	3313.737
-54.232	146.603	2669.873	3525.119
-53.217	93.034	2310.708	2566.280
-52.203	33.552	2061.083	1759.947
-51.188	29.067	1976.908	1647.956
-50.173	27.715	1959.430	1621.314
-49.159	45.342	2017.618	1828.949
-48.144	44.535	2033.686	1836.167
-47.130	29.604	1993.483	1666.359
-46.115	27.331	1983.690	1637.677
-45.100	27.250	1980.525	1634.264
-44.086	27.257	1977.899	1632.099
-43.071	27.205	1975.370	1629.484
-42.057	27.119	1973.414	1627.034
-41.042	27.088	1972.275	1625.751
-40.027	27.168	1969.711	1624.289
-39.013	27.233	1967.504	1622.988
-37.998	27.115	1966.607	1621.124
-36.984	27.279	1964.223	1620.560
-35.969	27.168	1962.698	1618.251
-34.954	27.248	1960.718	1617.259
-33.940	27.190	1959.560	1615.726
-32.925	27.305	1957.592	1615.065
-31.911	27.308	1955.647	1613.417
-30.896	27.350	1954.344	1612.655
-29.881	27.354	1952.660	1611.239
-28.867	27.357	1951.112	1609.921
-27.852	27.315	1950.100	1608.651
-26.838	27.353	1947.529	1606.797
-25.823	27.377	1946.068	1605.744
-24.809	27.392	1943.937	1604.052
-23.794	27.388	1942.165	1602.489
-22.779	27.362	1940.892	1601.151
-21.765	27.302	1939.189	1599.156
-20.750	27.403	1936.693	1597.924
-19.736	27.402	1935.750	1597.068
-18.721	27.380	1933.406	1594.877
-17.706	27.379	1932.310	1593.901
-16.692	27.363	1930.674	1592.353
-15.677	27.356	1928.973	1590.820
-14.663	27.399	1927.605	1590.008
-13.648	27.362	1926.789	1588.947
-12.633	27.320	1925.603	1587.539
-11.619	27.300	1924.427	1586.336
-10.604	27.343	1923.040	1585.501
-9.590	27.277	1921.551	1583.635
-8.575	27.295	1920.470	1582.836
-7.560	27.253	1919.466	1581.586
-6.546	27.336	1917.264	1580.429
-5.531	27.289	1916.392	1579.242
-4.517	27.230	1915.521	1577.944
-3.502	27.303	1913.723	1577.039
-2.487	27.255	1913.049	1576.001
-1.473	27.400	1911.606	1576.001
-0.458	27.331	1907.468	1571.933
0.556	25.223	1886.524	1543.948
1.571	20.996	1868.276	1492.772
2.586	17.193	1890.983	1477.770
3.600	16.340	1926.036	1497.463
4.615	16.262	1920.516	1492.350
5.629	14.761	1828.564	1408.130
6.644	11.689	1724.665	1303.545
7.659	9.953	1693.708	1266.431
8.673	9.778	1690.982	1262.914
9.688	9.825	1689.196	1261.833
10.702	9.774	1687.939	1260.384
11.717	9.624	1684.991	1256.900
12.731	9.814	1683.301	1257.016
13.746	12.148	1687.337	1278.120
14.761	15.534	1694.522	1309.899
15.775	17.406	1697.094	1326.378
16.790	17.098	1695.056	1322.272
17.804	16.071	1691.980	1311.766
18.819	15.017	1688.355	1300.651
19.834	14.416	1685.563	1293.724
20.848	13.984	1683.873	1288.962
21.863	13.818	1682.661	1286.632
22.877	13.558	1681.313	1283.477
23.892	13.309	1679.674	1280.179
24.907	13.308	1678.355	1279.055
25.921	13.214	1677.816	1277.807
26.936	13.171	1676.837	1276.617
27.950	13.205	1675.729	1275.920
28.965	13.299	1675.029	1276.002
29.980	13.283	1674.541	1275.394
30.994	13.446	1673.308	1275.599
32.009	13.461	1671.585	1274.283
33.023	13.481	1671.351	1274.146
34.038	13.483	1670.201	1273.175
35.053	13.534	1668.569	1272.208
36.067	13.476	1667.333	1270.707
37.082	13.441	1666.345	1269.577
38.096	13.387	1665.953	1268.748
39.111	13.389	1664.787	1267.765
40.126	13.441	1664.077	1267.513
41.140	13.427	1663.468	1266.825
42.155	13.351	1661.248	1264.445
43.169	13.289	1659.939	1262.863
44.184	13.262	1658.803	1261.678
45.199	13.186	1657.901	1260.300
46.213	13.161	1656.477	1258.917
47.228	13.203	1655.223	1258.172
48.242	13.292	1654.045	1257.841
49.257	13.297	1653.292	1257.201
50.271	13.257	1652.076	1255.858
51.286	13.261	1650.559	1254.621
52.301	13.283	1649.380	1253.784
53.315	13.305	1647.645	1252.523
54.330	13.241	1646.282	1250.889
55.344	13.259	1644.543	1249.595
56.359	13.203	1643.321	1248.133
57.374	13.262	1641.760	1247.282
58.388	13.220	1641.315	1246.515
59.403	13.191	1639.566	1244.858
60.417	13.068	1638.829	1243.265
61.432	13.134	1637.131	1242.357
62.447	13.116	1636.122	1241.352
63.461	13.158	1634.854	1240.590
64.476	13.030	1633.958	1238.842
65.490	13.061	1632.236	1237.663
66.505	13.061	1631.611	1237.076
67.520	13.113	1630.417	1236.452
68.534	13.056	1629.826	1235.467
69.549	13.098	1628.608	1234.750
70.563	13.185	1626.814	1233.929
71.578	13.210	1625.674	1233.140
72.593	13.086	1625.104	1231.673
73.607	13.042	1623.819	1230.261
74.622	13.004	1622.889	1229.171
75.636	12.920	1622.152	1227.872
76.651	12.992	1621.094	1227.498
77.666	13.039	1620.404	1227.219
78.680	12.979	1619.509	1225.987
79.695	13.089	1618.035	1225.577
80.709	12.985	1617.767	1224.494
81.724	13.091	1616.627	1224.311
82.739	13.133	1615.962	1224.007
83.753	13.228	1614.637	1223.599
84.768	13.186	1614.524	1223.094
85.782	13.379	1612.954	1223.225
86.797	13.454	1611.676	1222.701
87.812	13.398	1611.455	1222.015
88.826	13.316	1609.791	1220.041
89.841	13.282	1608.868	1218.983
90.855	13.312	1608.161	1218.561
91.870	13.269	1606.889	1217.173
92.884	13.438	1605.570	1217.306
93.899	13.364	1604.869	1216.122
94.914	13.350	1603.252	1214.685
95.928	13.397	1602.510	1214.363
96.943	13.459	1600.891	1213.479
97.957	13.436	1599.658	1212.269
98.972	13.414	1598.048	1210.783
99.987	13.370	1596.491	1209.174
101.001	13.325	1595.449	1207.949
102.016	13.373	1593.421	1206.659
103.030	13.295	1592.109	1204.992
104.045	13.435	1590.820	1204.929
105.060	13.353	1589.632	1203.321
106.074	13.317	1588.372	1202.001
107.089	13.287	1586.554	1200.300
108.103	13.184	1585.132	1198.376
109.118	13.129	1583.406	1196.561
110.133	13.081	1581.430	1194.619
111.147	13.078	1580.631	1193.889
112.162	13.118	1579.619	1193.302
113.176	13.143	1577.936	1192.111
114.191	13.164	1576.262	1190.890
115.206	13.198	1575.284	1190.291
116.220	13.233	1573.702	1189.239
117.235	13.169	1572.716	1187.931
118.249	13.237	1571.352	1187.282
119.264	13.213	1570.255	1186.179
120.279	13.208	1568.247	1184.521
121.293	13.153	1567.140	1183.189
122.308	13.082	1566.047	1181.749
123.322	13.144	1564.084	1180.606
124.337	13.193	1562.057	1179.323
125.352	13.174	1560.740	1178.087
126.366	13.119	1559.865	1176.932
127.381	13.023	1559.323	1175.736
128.395	13.124	1557.573	1175.030
129.410	13.145	1556.088	1173.956
130.424	13.177	1554.342	1172.763
131.439	13.121	1553.432	1171.575
132.454	13.161	1552.221	1170.835
133.468	13.167	1550.798	1169.705
134.483	13.189	1549.517	1168.787
135.497	13.249	1548.093	1168.039
136.512	13.317	1546.721	1167.376
137.527	13.159	1545.493	1165.231
138.541	13.256	1543.846	1164.569
139.556	13.223	1542.755	1163.415
140.570	13.261	1541.521	1162.648
141.585	13.394	1539.719	1162.117
142.600	13.442	1538.623	1161.524
143.614	13.471	1537.429	1160.724
144.629	13.471	1536.478	1159.904
145.643	13.517	1534.936	1158.962
146.658	13.535	1533.845	1158.158
147.673	13.546	1531.944	1156.699
148.687	13.376	1530.899	1154.621
149.702	13.431	1528.908	1153.398
150.716	13.319	1527.757	1151.653
151.731	13.426	1526.049	1151.004
152.746	13.368	1524.704	1149.485
153.760	13.408	1523.548	1148.789
154.775	13.383	1522.864	1148.000
155.789	13.395	1521.854	1147.219
156.804	13.496	1520.052	1146.460
157.819	13.540	1518.671	1145.619
158.833	13.557	1517.773	1144.956
159.848	13.615	1516.952	1144.637
160.862	13.591	1515.914	1143.591
161.877	13.685	1514.490	1143.063
162.892	13.619	1513.387	1141.672
163.906	13.497	1512.235	1139.864
164.921	13.515	1511.027	1138.979
165.935	13.506	1510.043	1138.069
166.950	13.491	1508.804	1136.936
167.964	13.575	1507.592	1136.496
168.979	13.673	1506.732	1136.421
169.994	13.630	1505.404	1135.025
171.008	13.530	1504.197	1133.327
172.023	13.610	1503.486	1133.238
173.037	13.595	1502.274	1132.122
174.052	13.703	1500.605	1131.505
175.067	13.654	1500.355	1130.878
176.081	13.694	1499.072	1130.086
177.096	13.590	1497.540	1128.125
178.110	13.626	1496.032	1127.133
179.125	13.569	1495.516	1126.257
180.140	13.670	1493.799	1125.547
181.154	13.715	1492.934	1125.101
182.169	13.627	1492.056	1123.743
183.183	13.778	1490.447	1123.452
184.198	13.817	1489.455	1122.874
185.213	13.809	1488.963	1122.346
186.227	13.877	1487.317	1121.465
187.242	13.876	1486.217	1120.534
188.256	13.967	1485.065	1120.179
189.271	13.950	1484.110	1119.245
190.286	13.808	1483.805	1117.960
191.300	13.827	1482.012	1116.635
192.315	13.764	1480.747	1115.163
193.329	13.571	1479.380	1112.739
194.344	13.615	1478.031	1111.917
195.359	13.620	1477.236	1111.255
196.373	13.710	1476.236	1111.005
197.388	13.762	1475.276	1110.533
198.402	13.835	1474.553	1110.378
199.417	13.886	1473.171	1109.583
200.432	14.034	1472.409	1109.897
201.446	14.044	1471.322	1109.046
202.461	14.168	1469.775	1108.607
203.475	14.095	1469.032	1107.465
204.490	14.084	1467.946	1106.474
205.504	14.086	1467.087	1105.744
206.519	14.124	1465.573	1104.757
207.534	13.941	1464.891	1102.928
208.548	13.931	1463.666	1101.843
209.563	13.992	1462.501	1101.275
210.577	14.026	1461.533	1100.674
211.592	14.038	1460.796	1100.100
212.607	14.130	1459.365	1099.535
213.621	14.186	1459.390	1099.827
214.636	14.227	1458.405	1099.255
215.650	14.169	1457.452	1098.057
216.665	14.239	1456.271	1097.533
217.680	14.207	1455.876	1096.929
218.694	14.278	1454.620	1096.353
219.709	14.244	1454.294	1095.786
220.723	14.259	1453.478	1095.174
221.738	14.296	1452.386	1094.496
222.753	14.231	1451.191	1093.068
223.767	14.245	1450.524	1092.564
224.782	14.268	1449.142	1091.575
225.796	14.308	1448.312	1091.116
226.811	14.387	1447.721	1091.094
227.826	14.400	1446.793	1090.384
228.840	14.435	1445.597	1089.613
229.855	14.330	1444.843	1088.264
230.869	14.377	1443.643	1087.568
231.884	14.313	1443.049	1086.608
232.899	14.247	1442.024	1085.311
233.913	14.222	1440.508	1083.911
234.928	14.305	1439.233	1083.395
235.942	14.357	1438.485	1083.072
236.957	14.293	1436.948	1081.403
237.972	14.277	1435.793	1080.334
238.986	14.325	1434.752	1079.766
240.001	14.327	1434.022	1079.133
241.015	14.356	1433.162	1078.581
242.030	14.386	1431.810	1077.661
243.045	14.488	1430.656	1077.359
244.059	14.382	1430.103	1076.160
245.074	14.505	1428.998	1076.025
246.088	14.434	1428.694	1075.248
247.103	14.555	1427.859	1075.302
248.117	14.567	1426.350	1074.150
249.132	14.571	1426.118	1073.903
250.147	14.665	1425.269	1073.772
251.161	14.771	1424.928	1074.100
252.176	14.839	1423.968	1073.724
253.190	14.747	1423.618	1072.772
254.205	14.852	1422.337	1072.385
255.220	14.873	1421.722	1071.959
256.234	14.930	1420.687	1071.454
257.249	14.914	1419.982	1070.724
258.263	14.992	1418.986	1070.376
259.278	15.088	1418.156	1070.267
260.293	14.952	1417.668	1068.939
261.307	14.986	1416.581	1068.240
262.322	15.033	1416.226	1068.180
263.336	15.123	1414.935	1067.684
264.351	14.995	1414.108	1066.148
265.366	15.163	1413.109	1066.368
266.380	15.205	1411.888	1065.622
267.395	15.064	1411.369	1064.240
268.409	15.089	1410.868	1063.927
269.424	15.117	1409.193	1062.749
270.439	15.087	1407.719	1061.352
271.453	15.100	1407.174	1060.930
272.468	15.102	1406.356	1060.232
273.482	15.068	1405.731	1059.452
274.497	15.085	1404.872	1058.817
275.512	15.092	1403.640	1057.838
276.526	15.117	1402.834	1057.294
277.541	15.140	1401.734	1056.516
278.555	15.112	1400.877	1055.605
279.570	15.101	1400.554	1055.199
280.585	15.212	1399.543	1055.040
281.599	15.299	1398.668	1054.836
282.614	15.223	1397.725	1053.555
283.628	15.239	1396.756	1052.832
284.643	15.159	1395.868	1051.563
285.657	15.266	1393.968	1050.708
286.672	15.165	1393.693	1049.780
287.687	15.228	1392.759	1049.373
288.701	15.241	1391.929	1048.738
289.716	15.348	1390.694	1048.382
290.730	15.361	1389.785	1047.685
291.745	15.334	1388.698	1046.606
292.760	15.267	1388.307	1045.800
293.774	15.338	1386.867	1045.067
294.789	15.379	1386.042	1044.607
295.803	15.417	1385.451	1044.308
296.818	15.383	1384.432	1043.234
297.833	15.402	1383.195	1042.330
298.847	15.406	1382.272	1041.568
299.862	15.434	1381.273	1040.893
300.876	15.462	1380.327	1040.260
301.891	15.486	1379.677	1039.830
302.906	15.419	1379.075	1038.868
303.920	15.502	1377.955	1038.445
304.935	15.540	1377.768	1038.447
305.949	15.577	1376.771	1037.831
306.964	15.682	1376.024	1037.828
307.979	15.728	1374.842	1037.126
308.993	15.636	1373.578	1035.513
310.008	15.582	1373.059	1034.702
311.022	15.697	1371.635	1034.242
312.037	15.698	1371.295	1033.899
313.052	15.662	1369.968	1032.585
314.066	15.756	1369.004	1032.349
315.081	15.668	1367.713	1030.740
316.095	15.700	1367.180	1030.444
317.110	15.646	1365.181	1028.519
318.125	15.551	1364.843	1027.593
319.139	15.721	1363.555	1027.569
320.154	15.585	1362.738	1026.031
321.168	15.703	1361.596	1025.804
322.183	15.597	1360.985	1024.601
323.197	15.663	1360.323	1024.415
324.212	15.585	1359.328	1023.100
325.227	15.704	1358.440	1023.066
326.241	15.847	1357.078	1022.820
327.256	15.733	1356.752	1021.791
328.270	15.727	1356.358	1021.367
329.285	15.697	1354.864	1019.972
330.300	15.653	1354.095	1019.033
331.314	15.733	1353.191	1018.751
332.329	15.733	1352.425	1018.081
333.343	15.778	1351.130	1017.287
334.358	15.755	1350.464	1016.559
335.373	15.837	1349.591	1016.308
336.387	15.929	1348.793	1016.174
337.402	15.850	1348.136	1015.108
338.416	15.930	1347.781	1015.234
339.431	15.948	1347.007	1014.673
340.446	16.044	1346.076	1014.457
341.460	16.055	1345.191	1013.769
342.475	16.062	1344.227	1012.990
343.489	16.092	1343.687	1012.677
344.504	16.100	1342.573	1011.792
345.519	16.165	1341.506	1011.292
346.533	16.188	1340.732	1010.756
347.548	16.241	1339.854	1010.321
348.562	16.301	1338.933	1009.897
349.577	16.304	1338.297	1009.348
350.592	16.287	1337.057	1008.221
351.606	16.221	1336.188	1007.080
352.621	16.159	1335.701	1006.254
353.635	16.175	1333.912	1004.911
354.650	16.131	1333.474	1004.233
355.665	16.023	1332.658	1002.885
356.679	16.106	1331.613	1002.505
357.694	16.287	1330.175	1002.408
358.708	16.246	1329.076	1001.248
359.723	16.385	1327.908	1001.101
360.738	16.278	1327.340	999.950
361.752	16.257	1326.424	999.050
362.767	16.324	1324.897	998.209
363.781	16.303	1324.493	997.692
364.796	16.274	1323.963	997.035
365.810	16.320	1323.059	996.537
366.825	16.349	1322.708	996.354
367.840	16.433	1321.251	995.661
368.854	16.415	1320.668	995.028
369.869	16.496	1320.228	995.087
370.883	16.628	1319.430	995.173
371.898	16.546	1318.994	994.274
372.913	16.391	1318.495	992.901
373.927	16.446	1317.699	992.536
374.942	16.502	1316.451	991.837
375.956	16.616	1315.501	991.701
376.971	16.661	1314.726	991.293
377.986	16.668	1313.759	990.513
379.000	16.544	1313.445	989.465
380.015	16.696	1312.537	989.585
381.029	16.765	1311.327	988.985
382.044	16.775	1311.044	988.744
383.059	16.798	1310.361	988.278
384.073	16.786	1309.709	987.624
385.088	16.761	1309.039	986.890
386.102	16.772	1308.348	986.345
387.117	16.828	1307.418	985.883
388.132	16.833	1306.905	985.434
389.146	16.753	1305.520	983.839
390.161	16.757	1304.960	983.355
391.175	16.783	1303.695	982.461
392.190	16.762	1303.519	982.125
393.205	16.801	1302.636	981.598
394.219	16.881	1301.332	980.993
395.234	16.931	1300.049	980.225
396.248	16.867	1299.111	979.063
397.263	16.875	1297.617	977.897
398.278	16.849	1296.366	976.718
399.292	16.791	1295.242	975.450
400.307	16.812	1294.131	974.646
401.321	16.807	1292.824	973.549
402.336	16.747	1292.298	972.724
403.350	16.959	1291.132	972.973
404.365	16.771	1290.259	971.152
405.380	16.910	1289.183	971.051
406.394	16.904	1288.423	970.362
407.409	16.959	1287.900	970.192
408.423	16.912	1287.319	969.399
409.438	17.058	1286.543	969.569
410.453	17.084	1286.012	969.229
411.467	17.143	1285.074	968.772
412.482	17.169	1284.746	968.589
413.496	17.231	1284.121	968.387
414.511	17.192	1283.322	967.473
415.526	17.195	1282.461	966.758
416.540	17.255	1281.821	966.529
417.555	17.342	1280.899	966.241
418.569	17.311	1280.644	965.788
419.584	17.340	1279.953	965.345
420.599	17.296	1279.566	964.719
421.613	97.042	1356.436	1477.529
422.628	94.838	1367.575	1477.616
