DTS Sentinel unit serial number:	SN413079Multiplexer serial number:	ORYXHardware model number:	OX4-SRSoftware version number:	ORYX F/W v4.00 Oryx Data Collector v3.7.2.0data status	okinstallation	princeton_trtdifferential loss correction	single-endedforward channel	channel 4reverse channel	N/Adate	2019/09/16time	15:29:34forward acquisition time	60.00reverse acquisition time	0.00gamma	496.2192k internal	0.2288k external	0.2288temperature offset calibration	0.9936default loss term (dB/km)	0.3790temperature slope calibration	1.0000multiplexer offset coefficient	1.0000multiplexer slope coefficient	1.0000fibre end	0.00T internal ref (°C)	41.12T ext. ref 1 (°C)	14.67T ext. ref 2 (°C)	37.24length (m)	temperature (°C)	Stokes	anti-Stokes-747.200	-168.425	-0.346	-0.014
-746.185	300.582	0.093	0.176
-745.171	-153.763	0.158	0.011
-744.156	102.068	-0.083	-0.100
-743.142	800.000	0.031	-0.092
-742.127	-80.641	-0.182	-0.062
-741.112	15.153	-0.122	0.098
-740.098	-200.000	0.059	0.311
-739.083	-54.703	-0.253	0.117
-738.069	24.953	-0.341	0.290
-737.054	7.177	-0.159	-0.121
-736.039	-82.631	0.047	0.016
-735.025	-32.656	0.205	-0.117
-734.010	-50.081	-0.317	-0.154
-732.996	183.905	-0.071	-0.108
-731.981	-95.843	-0.305	0.083
-730.966	-29.048	-0.385	0.226
-729.952	113.897	-0.182	-0.227
-728.937	-200.000	-0.046	-0.368
-727.923	568.517	-0.149	-0.372
-726.908	267.571	-0.209	0.375
-725.894	-113.798	-0.151	-0.030
-724.879	-102.949	-0.147	0.036
-723.864	18.608	-0.067	0.055
-722.850	-44.270	-0.282	0.145
-721.835	-90.929	0.030	-0.009
-720.821	800.000	-0.064	-0.244
-719.806	-200.000	0.000	0.245
-718.791	-54.269	0.261	0.122
-717.777	-131.096	0.489	-0.067
-716.762	75.096	-0.183	-0.197
-715.748	348.099	0.236	-0.476
-714.733	-200.000	0.012	-0.378
-713.718	-71.201	0.214	0.082
-712.704	800.000	-0.080	0.239
-711.689	800.000	-0.116	0.334
-710.675	-117.588	-0.046	0.008
-709.660	-79.579	-0.211	0.073
-708.645	65.599	-0.109	-0.113
-707.631	36.995	0.074	-0.067
-706.616	-159.319	-0.326	0.019
-705.602	-123.512	-0.226	-0.037
-704.587	-198.742	-0.151	-0.001
-703.572	13.297	0.132	-0.105
-702.558	94.852	0.310	-0.361
-701.543	-32.799	0.322	0.183
-700.529	-68.237	-0.154	-0.061
-699.514	46.151	0.094	-0.089
-698.499	-200.000	-0.005	0.117
-697.485	138.439	0.172	-0.231
-696.470	-200.000	-0.049	0.259
-695.456	-200.000	-0.007	0.042
-694.441	61.080	0.279	-0.284
-693.426	-138.904	-0.231	0.026
-692.412	-75.955	-0.436	-0.158
-691.397	-95.311	-0.117	-0.032
-690.383	-200.000	-0.047	0.345
-689.368	-54.234	-0.089	-0.041
-688.354	-200.000	-0.049	0.251
-687.339	-129.979	0.201	0.028
-686.324	538.926	0.105	0.257
-685.310	335.741	-0.102	0.202
-684.295	75.769	-0.052	0.056
-683.281	-133.443	-0.268	-0.034
-682.266	131.833	0.185	-0.243
-681.251	-200.000	-0.041	-0.188
-680.237	-155.082	0.181	-0.012
-679.222	19.268	-0.162	-0.133
-678.208	30.172	-0.270	-0.236
-677.193	-127.941	0.130	0.019
-676.178	-200.000	-0.017	-0.230
-675.164	800.000	0.050	0.186
-674.149	-167.660	0.315	0.013
-673.135	21.406	-0.156	0.130
-672.120	-32.117	0.092	0.052
-671.105	-84.786	-0.092	-0.029
-670.091	-22.341	-0.063	-0.039
-669.076	96.866	0.192	-0.224
-668.062	434.948	-0.085	-0.189
-667.047	800.000	0.073	-0.280
-666.032	345.642	-0.077	-0.155
-665.018	-48.509	-0.355	0.174
-664.003	-33.962	0.167	0.094
-662.989	164.923	0.133	0.192
-661.974	-122.708	-0.212	0.035
-660.959	-110.161	-0.091	0.019
-659.945	566.783	-0.035	-0.088
-658.930	-106.714	-0.170	0.039
-657.916	-89.330	0.262	0.079
-656.901	-43.905	0.225	-0.116
-655.886	800.000	0.044	-0.172
-654.872	91.592	0.110	-0.126
-653.857	-67.850	-0.312	0.125
-652.843	-36.797	0.434	0.238
-651.828	257.650	-0.160	-0.281
-650.814	-40.132	0.189	0.101
-649.799	-94.506	0.339	0.094
-648.784	-136.003	-0.467	0.056
-647.770	-126.030	-0.123	-0.019
-646.755	-200.000	-0.023	0.166
-645.741	47.463	0.247	-0.235
-644.726	147.419	-0.091	-0.125
-643.711	459.951	-0.081	0.184
-642.697	-200.000	-0.027	0.166
-641.682	-200.000	-0.020	0.102
-640.668	6.997	-0.286	0.217
-639.653	545.881	0.114	0.278
-638.638	264.089	0.089	-0.157
-637.624	-200.000	-0.075	0.373
-636.609	-80.451	-0.055	-0.019
-635.595	800.000	0.079	-0.244
-634.580	116.390	0.068	-0.085
-633.565	145.279	0.240	0.328
-632.551	800.000	-0.051	-0.212
-631.536	366.728	-0.020	0.041
-630.522	556.097	0.109	-0.267
-629.507	-98.989	-0.081	-0.021
-628.492	800.000	-0.036	-0.143
-627.478	-51.181	-0.065	0.031
-626.463	800.000	-0.063	0.186
-625.449	142.499	0.156	0.212
-624.434	343.847	0.074	0.149
-623.419	186.317	0.064	0.097
-622.405	442.721	-0.035	0.078
-621.390	279.684	0.067	0.123
-620.376	-26.411	-0.055	-0.033
-619.361	-200.000	0.002	-0.305
-618.346	228.688	0.091	0.151
-617.332	800.000	0.102	0.345
-616.317	711.870	0.051	-0.138
-615.303	756.469	-0.079	0.218
-614.288	16.873	-0.075	-0.060
-613.273	202.717	-0.120	-0.189
-612.259	-78.427	-0.146	-0.051
-611.244	268.369	-0.157	0.281
-610.230	-94.971	-0.429	0.118
-609.215	601.775	-0.059	-0.149
-608.201	132.507	-0.226	0.298
-607.186	26.070	-0.167	0.142
-606.171	-4.569	0.127	0.090
-605.157	-5.368	-0.028	-0.020
-604.142	118.520	-0.120	-0.151
-603.128	800.000	-0.019	0.082
-602.113	-62.862	-0.157	0.066
-601.098	-49.506	0.242	0.117
-600.084	50.908	0.106	0.102
-599.069	166.610	-0.063	0.091
-598.055	-200.000	-0.006	0.166
-597.040	233.388	0.061	-0.103
-596.025	735.875	0.088	-0.240
-595.011	-35.662	0.394	-0.218
-593.996	183.569	0.108	0.163
-592.982	-200.000	-0.003	-0.021
-591.967	708.561	0.094	-0.254
-590.952	-200.000	0.013	0.186
-589.938	70.228	-0.199	0.209
-588.923	78.834	0.068	-0.074
-587.909	-70.083	0.202	0.078
-586.894	-191.847	-0.160	-0.002
-585.879	41.181	0.135	-0.124
-584.865	-200.000	-0.056	-0.273
-583.850	173.239	0.109	-0.160
-582.836	248.413	-0.075	-0.129
-581.821	76.701	-0.159	-0.172
-580.806	-114.144	-0.075	0.015
-579.792	-110.320	-0.291	0.062
-578.777	-200.000	0.026	0.221
-577.763	280.055	0.156	0.285
-576.748	116.487	0.156	0.195
-575.733	-89.896	0.346	-0.103
-574.719	-35.506	-0.117	0.065
-573.704	-46.931	0.211	-0.105
-572.690	118.706	-0.329	-0.413
-571.675	-200.000	0.034	-0.178
-570.661	187.639	0.084	0.128
-569.646	-114.064	0.174	0.034
-568.631	-24.056	-0.218	-0.133
-567.617	195.074	-0.082	0.127
-566.602	-34.797	-0.214	-0.119
-565.588	-200.000	-0.017	-0.198
-564.573	97.942	0.069	-0.080
-563.558	-5.296	-0.145	0.102
-562.544	60.160	-0.102	0.102
-561.529	-100.172	0.149	0.038
-560.515	605.459	-0.094	-0.238
-559.500	-96.476	0.199	-0.054
-558.485	-113.256	-0.272	0.054
-557.471	-19.391	0.223	-0.141
-556.456	144.779	0.021	-0.029
-555.442	-200.000	-0.026	0.124
-554.427	627.305	0.100	0.257
-553.412	-38.667	-0.263	-0.141
-552.398	-139.402	-0.062	-0.007
-551.383	800.000	0.026	-0.112
-550.369	85.584	0.017	0.019
-549.354	-79.334	0.185	-0.064
-548.339	-130.885	-0.093	-0.013
-547.325	-35.296	-0.208	0.115
-546.310	74.459	0.116	-0.124
-545.296	-42.627	0.105	0.054
-544.281	-200.000	-0.067	-0.396
-543.266	-21.005	-0.185	0.115
-542.252	39.190	-0.133	0.121
-541.237	-16.549	0.258	-0.166
-540.223	19.883	-0.162	-0.133
-539.208	-159.444	-0.257	-0.015
-538.193	208.509	0.259	0.412
-537.179	-200.000	-0.030	-0.151
-536.164	-100.080	-0.202	-0.051
-535.150	-112.036	0.543	0.111
-534.135	-200.000	-0.017	0.127
-533.121	130.349	-0.152	0.198
-532.106	800.000	-0.104	0.301
-531.091	-58.966	0.111	-0.049
-530.077	47.548	-0.151	-0.143
-529.062	800.000	-0.070	-0.214
-528.048	97.415	0.111	-0.129
-527.033	-50.303	0.159	0.077
-526.018	-119.439	-0.332	0.059
-525.004	245.337	-0.107	0.183
-523.989	115.690	0.045	-0.056
-522.975	49.671	-0.081	-0.077
-521.960	42.694	-0.253	-0.234
-520.945	-200.000	-0.019	-0.239
-519.931	-200.000	0.062	-0.492
-518.916	92.611	-0.163	-0.187
-517.902	163.217	0.151	0.216
-516.887	104.945	0.164	-0.197
-515.872	-200.000	-0.028	-0.126
-514.858	800.000	-0.018	-0.072
-513.843	705.828	0.079	0.212
-512.829	581.820	-0.053	-0.132
-511.814	206.461	0.069	0.110
-510.799	-200.000	0.032	0.178
-509.785	18.057	0.267	-0.217
-508.770	-64.063	0.236	0.098
-507.756	-49.646	0.174	-0.084
-506.741	41.126	0.166	0.153
-505.726	-0.615	0.323	-0.233
-504.712	645.686	-0.123	-0.320
-503.697	800.000	0.057	0.170
-502.683	-80.213	-0.072	0.025
-501.668	-65.834	-0.037	0.015
-500.653	-200.000	-0.034	0.163
-499.639	32.910	-0.142	-0.125
-498.624	282.924	-0.084	0.154
-497.610	211.330	-0.022	0.035
-496.595	-200.000	0.046	0.504
-495.581	-25.567	-0.237	0.142
-494.566	-110.897	-0.159	-0.033
-493.551	193.816	-0.081	-0.124
-492.537	78.470	-0.186	0.202
-491.522	335.754	0.151	-0.297
-490.508	58.401	-0.148	-0.147
-489.493	-200.000	0.008	0.118
-488.478	383.553	0.151	0.316
-487.464	-56.296	-0.388	0.175
-486.449	-153.060	-0.449	0.032
-485.435	-23.421	0.165	-0.100
-484.420	17.865	-0.353	0.285
-483.405	800.000	0.146	-0.426
-482.391	-94.773	-0.043	-0.012
-481.376	63.732	-0.073	0.075
-480.362	-124.221	0.314	-0.050
-479.347	-123.730	-0.152	0.024
-478.332	-123.650	0.492	-0.079
-477.318	793.652	-0.024	0.067
-476.303	20.786	-0.216	-0.177
-475.289	290.310	0.098	0.180
-474.274	-90.261	-0.270	0.080
-473.259	1.805	0.286	0.210
-472.245	362.504	0.051	0.103
-471.230	80.704	0.151	-0.165
-470.216	-200.000	0.027	0.283
-469.201	-149.795	0.521	-0.041
-468.186	-30.420	0.417	0.240
-467.172	-200.000	-0.026	0.124
-466.157	-200.000	-0.048	0.345
-465.143	-200.000	0.058	-0.288
-464.128	224.080	0.090	-0.147
-463.113	800.000	0.056	-0.176
-462.099	-89.430	-0.200	-0.060
-461.084	53.602	-0.281	-0.274
-460.070	-200.000	-0.018	0.146
-459.055	-20.757	-0.092	0.057
-458.040	-100.001	-0.189	0.048
-457.026	-130.827	0.246	0.034
-456.011	-90.779	0.263	-0.077
-454.997	59.896	-0.070	0.071
-453.982	147.312	0.107	0.146
-452.968	171.444	-0.194	0.282
-451.953	-200.000	0.011	0.279
-450.938	-7.207	-0.283	-0.195
-449.924	331.132	0.043	0.085
-448.909	-200.000	0.040	-0.273
-447.895	-14.198	0.131	0.086
-446.880	800.000	-0.129	0.409
-445.865	171.938	0.191	-0.279
-444.851	-143.715	-0.385	-0.037
-443.836	200.834	0.235	-0.367
-442.822	800.000	0.093	-0.338
-441.807	-52.724	0.238	-0.111
-440.792	-18.318	0.278	-0.176
-439.778	-59.758	-0.044	-0.019
-438.763	-138.733	0.063	0.007
-437.749	23.168	-0.161	0.134
-436.734	-82.871	-0.232	0.076
-435.719	-200.000	-0.037	-0.225
-434.705	38.259	-0.220	0.199
-433.690	-200.000	0.032	-0.229
-432.676	-99.885	-0.065	-0.016
-431.661	-200.000	-0.068	-0.342
-430.646	-81.796	-0.111	-0.037
-429.632	800.000	0.025	0.106
-428.617	315.972	0.155	0.297
-427.603	800.000	0.035	0.108
-426.588	12.111	-0.175	-0.136
-425.573	-36.639	0.109	0.059
-424.559	203.368	0.114	0.179
-423.544	-142.245	-0.237	-0.024
-422.530	-102.860	-0.378	-0.091
-421.515	800.000	0.040	0.135
-420.500	-200.000	-0.036	-0.167
-419.486	-200.000	0.014	-0.303
-418.471	-200.000	-0.070	-0.414
-417.457	-128.089	0.172	-0.025
-416.442	61.996	0.151	-0.152
-415.428	-77.026	0.208	-0.074
-414.413	-152.607	0.330	0.024
-413.398	-80.543	-0.059	0.020
-412.384	-83.030	0.219	0.071
-411.369	-36.543	-0.172	0.093
-410.355	-3.642	0.169	0.119
-409.340	187.338	0.126	0.190
-408.325	-200.000	-0.022	0.167
-407.311	-41.689	-0.095	0.049
-406.296	11.293	0.176	-0.136
-405.282	63.262	0.103	0.104
-404.267	451.478	-0.029	0.065
-403.252	-107.826	0.146	0.032
-402.238	-200.000	-0.032	-0.363
-401.223	116.872	0.221	0.275
-400.209	800.000	0.056	-0.174
-399.194	800.000	0.077	0.247
-398.179	68.639	0.069	0.072
-397.165	-69.643	-0.204	-0.079
-396.150	-27.324	-0.156	0.092
-395.136	124.230	0.124	-0.158
-394.121	-181.151	-0.156	0.003
-393.106	37.306	-0.416	-0.373
-392.092	-200.000	-0.038	0.194
-391.077	-25.876	-0.075	-0.045
-390.063	-200.000	-0.018	0.376
-389.048	78.595	-0.109	0.118
-388.033	-200.000	-0.038	-0.315
-387.019	-61.855	0.144	-0.061
-386.004	-74.594	-0.353	0.128
-384.990	-180.214	-0.387	-0.008
-383.975	-13.322	0.054	-0.036
-382.960	-122.207	0.203	0.034
-381.946	-72.983	-0.300	0.111
-380.931	-8.198	0.380	-0.259
-379.917	-68.889	-0.204	-0.080
-378.902	-15.310	0.070	0.045
-377.888	-90.001	-0.173	0.051
-376.873	-150.642	-0.103	-0.008
-375.858	-53.089	0.254	-0.118
-374.844	800.000	0.035	0.155
-373.829	86.896	0.321	0.358
-372.815	-108.792	-0.259	-0.056
-371.800	800.000	-0.026	0.082
-370.785	800.000	-0.113	0.341
-369.771	800.000	0.062	-0.241
-368.756	87.706	0.329	-0.368
-367.742	-70.059	-0.363	-0.140
-366.727	13.053	0.292	-0.228
-365.712	-200.000	-0.006	-0.123
-364.698	4.125	-0.210	0.155
-363.683	-195.423	0.083	0.001
-362.669	132.179	-0.092	-0.120
-361.654	389.600	0.065	0.137
-360.639	45.114	0.045	-0.042
-359.625	-6.872	0.131	0.090
-358.610	-124.938	-0.165	-0.026
-357.596	-41.686	-0.363	0.188
-356.581	166.115	-0.224	0.320
-355.566	-10.299	0.143	0.096
-354.552	-68.558	-0.015	-0.006
-353.537	220.187	0.065	0.105
-352.523	-97.465	0.047	-0.012
-351.508	173.261	0.156	0.227
-350.493	207.933	0.079	0.125
-349.479	132.526	-0.041	0.053
-348.464	209.365	0.160	-0.253
-347.450	-200.000	-0.008	0.319
-346.435	-21.209	0.111	-0.069
-345.420	-200.000	-0.100	0.555
-344.406	703.956	-0.104	-0.277
-343.391	162.397	0.100	0.142
-342.377	196.106	0.144	0.221
-341.362	29.790	-0.050	0.043
-340.348	800.000	0.064	-0.223
-339.333	-200.000	-0.021	-0.135
-338.318	-109.553	-0.391	0.083
-337.304	-200.000	-0.023	-0.138
-336.289	-120.479	-0.218	0.037
-335.275	73.492	0.109	0.115
-334.260	269.401	-0.045	-0.080
-333.245	800.000	0.157	0.618
-332.231	-118.308	-0.152	0.027
-331.216	-50.374	0.244	-0.116
-330.202	-126.440	-0.244	0.037
-329.187	-35.388	-0.266	0.146
-328.172	-56.899	-0.127	-0.057
-327.158	800.000	-0.098	-0.303
-326.143	-44.334	0.421	-0.213
-325.129	73.572	-0.192	-0.203
-324.114	-200.000	0.011	-0.235
-323.099	-179.693	0.121	-0.003
-322.085	-81.862	0.329	-0.109
-321.070	-200.000	0.015	-0.285
-320.056	165.540	0.078	-0.112
-319.041	83.167	0.053	0.058
-318.026	93.677	0.252	-0.288
-317.012	800.000	0.138	0.499
-315.997	-46.767	0.133	0.066
-314.983	800.000	-0.034	-0.125
-313.968	365.771	-0.126	0.256
-312.953	-200.000	-0.001	-0.387
-311.939	-200.000	-0.027	-0.203
-310.924	334.163	0.174	-0.340
-309.910	-10.113	-0.188	-0.126
-308.895	93.050	-0.098	-0.112
-307.880	2.184	-0.036	0.026
-306.866	132.861	0.247	-0.321
-305.851	13.982	0.383	0.300
-304.837	-165.553	0.226	-0.010
-303.822	-20.467	-0.100	0.062
-302.807	104.978	-0.273	-0.325
-301.793	800.000	0.042	0.152
-300.778	113.247	-0.189	-0.231
-299.764	193.899	0.191	0.292
-298.749	56.931	0.224	0.220
-297.735	-200.000	0.005	0.257
-296.720	800.000	-0.171	-0.662
-295.705	-200.000	0.031	0.341
-294.691	-200.000	0.005	-0.281
-293.676	-53.621	0.093	-0.043
-292.662	-122.036	0.131	0.022
-291.647	-175.784	0.091	-0.002
-290.632	-93.091	0.207	0.058
-289.618	47.789	-0.135	0.127
-288.603	-102.763	-0.258	-0.062
-287.589	-85.639	0.266	-0.083
-286.574	-16.245	-0.251	0.161
-285.559	-149.900	-0.144	0.011
-284.545	-200.000	-0.081	0.404
-283.530	159.014	-0.168	-0.236
-282.516	-200.000	-0.005	-0.063
-281.501	-120.017	0.236	0.041
-280.486	-84.013	-0.227	0.073
-279.472	-120.446	-0.307	-0.053
-278.457	-56.760	0.216	-0.096
-277.443	-91.479	-0.220	0.063
-276.428	773.672	0.050	0.138
-275.413	800.000	-0.053	0.227
-274.399	297.145	0.123	-0.227
-273.384	-65.670	-0.241	-0.097
-272.370	-200.000	-0.020	-0.134
-271.355	800.000	-0.060	-0.224
-270.340	-76.782	-0.181	-0.064
-269.326	310.120	-0.202	-0.381
-268.311	130.691	0.309	0.398
-267.297	800.000	-0.006	0.026
-266.282	253.166	0.137	0.236
-265.267	-38.440	-0.257	-0.137
-264.253	-32.432	0.219	0.123
-263.238	-156.980	-0.271	-0.017
-262.224	-120.923	0.091	0.015
-261.209	233.252	-0.144	-0.238
-260.195	-200.000	0.037	-0.229
-259.180	-99.835	0.375	0.094
-258.165	44.263	0.256	-0.237
-257.151	-200.000	0.353	0.000
-256.136	-99.658	0.037	0.009
-255.122	-116.053	0.250	-0.047
-254.107	410.330	0.063	0.134
-253.092	-64.429	-0.172	0.070
-252.078	77.730	-0.173	0.186
-251.063	267.256	-0.242	-0.426
-250.049	18.491	0.234	-0.188
-249.034	402.842	0.065	0.137
-248.019	-64.497	0.169	-0.069
-247.005	-142.249	-0.260	-0.026
-245.990	251.203	-0.073	-0.125
-244.976	-200.000	-0.001	0.051
-243.961	-5.295	-0.197	-0.136
-242.946	-200.000	-0.039	-0.179
-241.932	11.669	-0.186	-0.144
-240.917	292.165	0.088	-0.162
-239.903	177.816	0.135	0.198
-238.888	-125.702	0.570	0.087
-237.873	-20.691	-0.176	0.108
-236.859	11.250	-0.045	-0.035
-235.844	-200.000	0.024	0.286
-234.830	-83.233	0.061	-0.020
-233.815	323.212	-0.070	-0.134
-232.800	373.043	-0.077	-0.156
-231.786	-97.827	0.278	-0.072
-230.771	-200.000	-0.004	0.316
-229.757	115.709	-0.282	0.346
-228.742	680.523	0.133	0.348
-227.727	800.000	0.033	-0.093
-226.713	10.628	0.050	-0.038
-225.698	187.156	0.080	0.119
-224.684	-200.000	0.009	0.202
-223.669	-164.346	-0.257	-0.012
-222.655	-79.196	0.238	-0.081
-221.640	213.316	-0.039	-0.062
-220.625	-200.000	-0.001	0.180
-219.611	-117.313	0.381	0.069
-218.596	-57.487	0.056	0.025
-217.582	408.134	0.063	-0.134
-216.567	-72.471	-0.331	-0.123
-215.552	-58.351	0.383	-0.167
-214.538	187.675	-0.218	0.327
-213.523	99.052	-0.085	-0.099
-212.509	-50.840	0.193	-0.091
-211.494	-31.586	-0.139	-0.078
-210.479	-200.000	-0.000	0.132
-209.465	-200.000	0.013	0.098
-208.450	351.225	-0.091	0.181
-207.436	-200.000	0.022	-0.101
-206.421	-157.549	-0.321	0.019
-205.406	-149.457	-0.051	0.004
-204.392	88.644	0.054	-0.060
-203.377	-54.455	0.169	0.077
-202.363	587.469	0.135	-0.335
-201.348	800.000	0.073	-0.228
-200.333	53.559	0.068	-0.065
-199.319	-126.118	0.108	-0.016
-198.304	49.476	-0.172	0.162
-197.290	-83.209	0.185	-0.060
-196.275	-148.692	0.197	-0.016
-195.260	-182.742	0.165	0.003
-194.246	-60.112	0.190	-0.081
-193.231	-200.000	-0.003	0.149
-192.217	-2.966	-0.253	-0.177
-191.202	-200.000	0.004	-0.026
-190.187	14.954	0.098	-0.077
-189.173	-109.737	0.128	-0.027
-188.158	-95.360	-0.186	0.050
-187.144	-107.299	0.154	-0.034
-186.129	0.976	-0.089	0.064
-185.114	244.638	0.047	0.079
-184.100	-141.344	0.145	-0.015
-183.085	-200.000	-0.007	-0.196
-182.071	800.000	-0.045	0.173
-181.056	168.621	-0.251	0.359
-180.042	-32.901	0.246	-0.137
-179.027	-200.000	-0.003	-0.042
-178.012	-21.542	-0.172	-0.105
-176.998	-97.000	0.255	-0.067
-175.983	-200.000	-0.029	0.146
-174.969	20.678	-0.290	-0.236
-173.954	-157.489	0.248	-0.015
-172.939	-6.339	0.112	0.077
-171.925	-72.354	-0.069	0.026
-170.910	-77.585	-0.164	-0.057
-169.896	-102.103	0.205	-0.050
-168.881	188.331	-0.097	0.145
-167.866	246.504	-0.151	0.256
-166.852	136.609	0.059	-0.077
-165.837	800.000	-0.021	-0.082
-164.823	-71.307	-0.275	0.103
-163.808	800.000	0.016	-0.061
-162.793	85.513	-0.291	0.321
-161.779	-200.000	-0.013	0.195
-160.764	115.783	-0.161	-0.198
-159.750	108.060	-0.070	0.083
-158.735	800.000	0.097	0.310
-157.720	-63.670	0.097	-0.040
-156.706	-6.031	-0.076	0.052
-155.691	-76.617	-0.152	-0.053
-154.677	-6.571	0.155	0.106
-153.662	94.330	-0.125	-0.142
-152.647	157.149	-0.131	-0.182
-151.633	-200.000	0.051	-0.281
-150.618	643.888	0.092	0.236
-149.604	278.238	-0.077	-0.137
-148.589	10.293	0.143	0.109
-147.574	-63.982	0.170	-0.070
-146.560	-200.000	-0.032	-0.316
-145.545	-58.381	0.244	0.106
-144.531	165.881	-0.185	-0.262
-143.516	-56.177	-0.364	0.162
-142.502	800.000	-0.076	0.263
-141.487	667.232	0.059	0.154
-140.472	-57.325	-0.273	-0.120
-139.458	208.301	0.116	0.181
-138.443	-105.099	-0.336	-0.077
-137.429	-8.471	-0.141	0.095
-136.414	63.118	-0.011	-0.011
-135.399	800.000	-0.138	-0.404
-134.385	310.809	0.075	-0.141
-133.370	1.508	0.570	0.410
-132.356	800.000	0.018	-0.054
-131.341	72.913	0.172	-0.180
-130.326	18.776	-0.247	0.198
-129.312	-108.035	-0.442	-0.096
-128.297	0.917	0.258	0.185
-127.283	17.471	0.025	-0.020
-126.268	510.705	0.040	-0.093
-125.253	-72.394	-0.211	0.078
-124.239	800.000	0.095	-0.372
-123.224	-102.874	0.448	-0.106
-122.210	-72.360	0.190	-0.071
-121.195	-165.653	-0.275	-0.012
-120.180	-118.635	-0.368	0.065
-119.166	-138.162	0.130	0.014
-118.151	176.727	0.042	-0.062
-117.137	-119.759	-0.251	0.043
-116.122	-200.000	-0.034	-0.288
-115.107	5.400	0.190	-0.140
-114.093	74.369	-0.270	0.284
-113.078	-200.000	0.020	0.111
-112.064	-200.000	-0.001	-0.081
-111.049	-74.303	-0.343	-0.124
-110.034	800.000	0.060	0.167
-109.020	-21.956	0.136	-0.083
-108.005	-95.517	0.324	-0.087
-106.991	41.165	-0.254	0.230
-105.976	-125.140	-0.197	0.030
-104.962	-40.839	-0.162	-0.084
-103.947	800.000	0.033	-0.101
-102.932	322.488	-0.149	0.284
-101.918	800.000	-0.106	-0.391
-100.903	-200.000	-0.046	-0.276
-99.889	-200.000	0.007	0.194
-98.874	30.645	0.308	0.263
-97.859	-7.486	0.219	-0.148
-96.845	-200.000	-0.016	-0.106
-95.830	-200.000	0.004	0.140
-94.816	303.340	0.070	-0.129
-93.801	800.000	-0.110	-0.323
-92.786	371.668	0.110	0.223
-91.772	-200.000	-0.028	0.379
-90.757	235.077	0.088	0.145
-89.743	-162.881	0.255	-0.012
-88.728	-35.865	0.304	0.165
-87.713	109.021	0.120	-0.144
-86.699	800.000	0.088	-0.323
-85.684	-170.327	-0.140	0.005
-84.670	758.560	-0.085	0.229
-83.655	10.544	0.239	0.182
-82.640	-30.674	0.043	0.025
-81.626	49.881	-0.147	0.139
-80.611	-28.607	-0.150	0.087
-79.597	-88.340	0.137	-0.041
-78.582	-117.609	-0.119	0.021
-77.567	135.989	-0.101	-0.132
-76.553	-137.805	0.349	0.039
-75.538	71.772	0.284	0.295
-74.524	-27.878	-0.142	-0.082
-73.509	-125.946	0.250	0.038
-72.494	98.775	-0.167	0.192
-71.480	-36.171	0.255	0.138
-70.465	-39.043	0.100	0.053
-69.451	800.000	-0.065	0.215
-68.436	157.528	-0.052	0.072
-67.422	54.349	-0.138	-0.133
-66.407	-200.000	-0.004	-0.070
-65.392	-151.791	0.326	0.024
-64.378	51.449	-0.147	-0.140
-63.363	182.657	-0.052	-0.077
-62.349	800.000	-0.104	0.358
-61.334	58.396	-0.754	-0.738
-60.319	-85.962	0.421	0.130
-59.305	800.000	-0.232	-0.829
-58.290	332.770	0.420	0.811
-57.276	800.000	0.599	1.738
-56.261	-200.000	76.111	521.198
-55.246	533.652	1313.696	3106.307
-54.232	146.840	2545.463	3415.778
-53.217	109.734	2373.425	2840.227
-52.203	48.125	2112.147	1971.289
-51.188	42.902	2018.010	1835.900
-50.173	41.182	1998.193	1802.244
-49.159	53.486	2036.921	1949.656
-48.144	58.173	2056.912	2011.480
-47.130	43.939	2021.447	1848.195
-46.115	41.079	2010.115	1811.775
-45.100	41.000	2007.523	1808.645
-44.086	40.965	2005.312	1806.263
-43.071	40.975	2002.028	1803.325
-42.057	40.975	1999.825	1801.266
-41.042	40.934	1998.194	1799.359
-40.027	40.994	1996.384	1798.197
-39.013	41.094	1993.663	1796.583
-37.998	41.025	1992.547	1794.881
-36.984	40.982	1990.473	1792.552
-35.969	41.008	1988.900	1791.301
-34.954	41.069	1986.693	1789.790
-33.940	41.138	1985.434	1789.207
-32.925	41.120	1983.645	1787.359
-31.911	41.134	1981.510	1785.489
-30.896	41.136	1979.881	1783.969
-29.881	41.146	1979.240	1783.408
-28.867	41.283	1977.095	1782.636
-27.852	41.187	1975.040	1779.849
-26.838	41.188	1973.034	1777.982
-25.823	41.266	1970.799	1776.593
-24.809	41.148	1969.510	1774.313
-23.794	41.173	1967.813	1772.930
-22.779	41.189	1966.226	1771.575
-21.765	41.126	1965.032	1769.866
-20.750	41.125	1962.695	1767.686
-19.736	41.134	1961.072	1766.233
-18.721	41.192	1959.859	1765.584
-17.706	41.141	1958.270	1763.631
-16.692	41.056	1956.731	1761.420
-15.677	41.168	1954.238	1760.100
-14.663	41.154	1952.871	1758.671
-13.648	41.087	1952.642	1757.809
-12.633	41.131	1950.742	1756.416
-11.619	41.024	1950.217	1754.924
-10.604	41.144	1948.251	1754.142
-9.590	41.127	1947.159	1752.943
-8.575	41.131	1945.465	1751.382
-7.560	41.153	1944.374	1750.523
-6.546	41.164	1942.962	1749.283
-5.531	41.170	1941.013	1747.511
-4.517	41.157	1939.923	1746.348
-3.502	41.149	1939.098	1745.464
-2.487	41.243	1937.371	1744.659
-1.473	41.110	1937.007	1743.098
-0.458	41.239	1932.459	1740.064
0.556	38.695	1913.189	1714.118
1.571	34.478	1892.345	1658.720
2.586	29.688	1912.765	1634.236
3.600	27.995	1948.270	1649.166
4.615	26.895	1945.632	1636.861
5.629	23.634	1850.941	1529.028
6.644	18.166	1737.460	1390.811
7.659	15.066	1699.404	1335.538
8.673	14.744	1695.609	1329.868
9.688	14.720	1694.097	1328.380
10.702	14.650	1692.323	1326.311
11.717	14.576	1689.516	1323.411
12.731	14.838	1688.897	1324.883
13.746	18.285	1696.561	1358.180
14.761	20.916	1700.668	1382.244
15.775	19.190	1694.171	1363.187
16.790	17.039	1688.385	1341.430
17.804	15.796	1684.917	1328.743
18.819	14.838	1681.591	1318.451
19.834	14.117	1678.548	1310.270
20.848	13.661	1677.294	1305.584
21.863	13.360	1675.476	1301.688
22.877	13.169	1673.929	1298.870
23.892	12.872	1672.651	1295.427
24.907	12.798	1671.521	1293.860
25.921	12.803	1670.325	1292.856
26.936	12.716	1669.845	1291.688
27.950	12.806	1668.139	1290.956
28.965	12.914	1668.073	1291.637
29.980	12.804	1667.745	1290.411
30.994	12.844	1666.537	1289.678
32.009	13.021	1665.072	1289.807
33.023	13.011	1664.612	1289.261
34.038	13.071	1663.407	1288.678
35.053	13.051	1661.965	1287.297
36.067	13.081	1660.579	1286.344
37.082	13.012	1659.657	1284.978
38.096	12.997	1658.328	1283.720
39.111	12.964	1658.195	1283.242
40.126	12.946	1657.483	1282.438
41.140	12.943	1656.516	1281.551
42.155	12.851	1654.981	1279.540
43.169	12.860	1653.245	1278.151
44.184	12.861	1651.868	1276.980
45.199	12.749	1651.507	1275.721
46.213	12.757	1650.116	1274.596
47.228	12.787	1648.879	1273.762
48.242	12.851	1647.330	1272.950
49.257	12.933	1646.813	1273.068
50.271	13.007	1644.808	1271.973
51.286	12.928	1644.319	1270.877
52.301	12.874	1643.292	1269.552
53.315	12.846	1641.770	1268.050
54.330	12.884	1640.237	1267.050
55.344	12.792	1638.772	1265.095
56.359	12.815	1636.954	1263.754
57.374	12.786	1635.882	1262.595
58.388	12.742	1634.968	1261.445
59.403	12.820	1633.447	1260.750
60.417	12.737	1631.982	1258.879
61.432	12.764	1631.089	1258.280
62.447	12.717	1630.425	1257.302
63.461	12.672	1629.230	1255.923
64.476	12.641	1627.692	1254.389
65.490	12.636	1627.123	1253.800
66.505	12.740	1625.358	1253.125
67.520	12.687	1624.499	1251.946
68.534	12.751	1623.615	1251.641
69.549	12.700	1623.026	1250.688
70.563	12.746	1621.368	1249.650
71.578	12.677	1620.124	1248.055
72.593	12.695	1618.766	1247.035
73.607	12.670	1618.085	1246.214
74.622	12.695	1616.621	1245.162
75.636	12.662	1615.734	1244.125
76.651	12.574	1615.005	1242.788
77.666	12.610	1614.084	1242.237
78.680	12.644	1613.596	1242.012
79.695	12.647	1612.167	1240.824
80.709	12.648	1611.331	1240.074
81.724	12.697	1610.321	1239.562
82.739	12.796	1609.423	1239.501
83.753	12.784	1608.945	1238.934
84.768	12.832	1607.960	1238.429
85.782	12.954	1607.056	1238.536
86.797	12.961	1606.287	1237.885
87.812	12.933	1605.501	1236.960
88.826	12.897	1603.918	1235.365
89.841	12.847	1602.765	1233.991
90.855	12.846	1602.115	1233.374
91.870	12.878	1601.110	1232.729
92.884	12.914	1599.986	1232.025
93.899	12.935	1599.322	1231.562
94.914	12.935	1597.367	1229.945
95.928	12.954	1596.099	1229.003
96.943	13.051	1595.214	1228.933
97.957	12.985	1593.542	1227.048
98.972	12.919	1592.366	1225.542
99.987	12.888	1590.845	1224.038
101.001	13.001	1589.096	1223.420
102.016	12.927	1587.750	1221.729
103.030	12.865	1586.707	1220.357
104.045	12.910	1585.254	1219.461
105.060	12.932	1583.697	1218.319
106.074	12.983	1582.505	1217.670
107.089	12.884	1580.938	1215.631
108.103	12.850	1579.374	1214.069
109.118	12.746	1577.948	1212.099
110.133	12.735	1576.596	1210.877
111.147	12.761	1575.141	1209.837
112.162	12.738	1574.344	1208.949
113.176	12.801	1572.313	1207.750
114.191	12.863	1570.942	1207.039
115.206	12.857	1570.282	1206.384
116.220	12.839	1568.370	1204.679
117.235	12.858	1567.373	1203.942
118.249	12.824	1566.624	1203.011
119.264	12.796	1564.848	1201.335
120.279	12.845	1563.292	1200.397
121.293	12.725	1561.931	1198.372
122.308	12.786	1560.515	1197.624
123.322	12.731	1559.278	1196.168
124.337	12.632	1558.234	1194.539
125.352	12.763	1556.316	1193.911
126.366	12.726	1555.224	1192.706
127.381	12.693	1554.504	1191.806
128.395	12.714	1553.155	1190.822
129.410	12.752	1551.554	1189.761
130.424	12.717	1550.518	1188.611
131.439	12.734	1549.188	1187.604
132.454	12.811	1547.507	1186.765
133.468	12.851	1546.408	1186.106
134.483	13.000	1544.382	1185.517
135.497	12.910	1543.289	1183.929
136.512	12.967	1542.305	1183.476
137.527	13.022	1540.358	1182.275
138.541	12.964	1539.625	1181.188
139.556	12.871	1538.021	1179.192
140.570	12.982	1536.804	1178.944
141.585	13.006	1535.677	1178.149
142.600	13.010	1534.192	1176.933
143.614	13.019	1533.213	1176.143
144.629	13.073	1531.895	1175.415
145.643	13.234	1530.237	1175.182
146.658	13.240	1528.988	1174.158
147.673	13.178	1527.545	1172.511
148.687	13.133	1525.723	1170.687
149.702	12.972	1524.922	1168.825
150.716	12.977	1523.294	1167.515
151.731	13.078	1521.281	1166.582
152.746	12.934	1520.865	1165.139
153.760	12.987	1518.791	1163.823
154.775	13.012	1517.784	1163.127
155.789	13.043	1516.823	1162.501
156.804	13.060	1515.481	1161.490
157.819	13.100	1514.366	1160.812
158.833	13.200	1512.953	1160.333
159.848	13.121	1511.927	1158.890
160.862	13.164	1510.950	1158.339
161.877	13.347	1509.093	1158.091
162.892	13.159	1508.629	1156.316
163.906	13.206	1506.661	1155.033
164.921	13.132	1505.801	1153.757
165.935	13.080	1504.707	1152.456
166.950	13.150	1503.418	1151.854
167.964	13.190	1502.658	1151.450
168.979	13.156	1501.623	1150.315
169.994	13.267	1500.368	1150.027
171.008	13.138	1499.588	1148.429
172.023	13.188	1498.393	1147.756
173.037	13.187	1497.498	1146.968
174.052	13.325	1496.168	1146.806
175.067	13.355	1494.996	1146.007
176.081	13.324	1493.367	1144.447
177.096	13.246	1492.437	1143.092
178.110	13.261	1490.448	1141.572
179.125	13.133	1490.026	1140.266
180.140	13.290	1488.978	1140.445
181.154	13.310	1487.956	1139.695
182.169	13.293	1486.675	1138.501
183.183	13.195	1485.927	1137.153
184.198	13.325	1484.714	1137.015
185.213	13.339	1483.697	1136.233
186.227	13.431	1482.475	1135.829
187.242	13.462	1481.453	1135.157
188.256	13.507	1480.476	1134.618
189.271	13.524	1479.145	1133.614
190.286	13.514	1478.457	1132.914
191.300	13.515	1477.459	1132.058
192.315	13.349	1475.804	1129.556
193.329	13.198	1474.874	1127.713
194.344	13.284	1473.502	1127.151
195.359	13.298	1472.649	1126.495
196.373	13.343	1471.517	1125.835
197.388	13.443	1470.295	1125.478
198.402	13.522	1469.356	1125.198
199.417	13.569	1468.016	1124.393
200.432	13.541	1467.942	1124.048
201.446	13.552	1466.891	1123.215
202.461	13.726	1464.946	1122.806
203.475	13.622	1464.409	1121.590
204.490	13.754	1462.987	1121.293
205.504	13.722	1462.280	1120.440
206.519	13.681	1460.849	1118.966
207.534	13.628	1460.090	1117.931
208.548	13.694	1458.763	1117.257
209.563	13.652	1457.863	1116.186
210.577	13.650	1456.809	1115.270
211.592	13.630	1455.648	1114.148
212.607	13.727	1454.951	1114.164
213.621	13.781	1454.276	1113.911
214.636	13.757	1453.652	1113.175
215.650	13.811	1452.425	1112.497
216.665	13.715	1451.732	1111.225
217.680	13.870	1451.305	1111.836
218.694	13.860	1450.535	1111.086
219.709	13.873	1449.511	1110.289
220.723	13.919	1448.253	1109.534
221.738	13.878	1447.386	1108.496
222.753	13.922	1446.404	1107.940
223.767	13.905	1445.556	1107.079
224.782	13.854	1444.627	1105.930
225.796	13.996	1443.464	1105.888
226.811	14.093	1442.430	1105.643
227.826	14.062	1441.908	1104.936
228.840	13.884	1441.239	1103.146
229.855	13.965	1440.464	1102.994
230.869	14.134	1438.810	1102.753
231.884	13.921	1438.245	1100.810
232.899	13.934	1437.198	1099.996
233.913	13.961	1435.890	1099.077
234.928	13.923	1434.794	1097.890
235.942	13.825	1433.808	1096.389
236.957	13.919	1432.221	1095.696
237.972	13.831	1431.556	1094.512
238.986	13.945	1429.939	1093.929
240.001	13.994	1428.799	1093.283
241.015	13.962	1428.101	1092.444
242.030	13.983	1426.985	1091.628
243.045	14.013	1425.697	1090.743
244.059	14.076	1424.859	1090.421
245.074	14.075	1424.318	1089.902
246.088	14.199	1423.099	1089.685
247.103	14.157	1422.329	1088.723
248.117	14.148	1421.919	1088.259
249.132	14.203	1420.975	1087.798
250.147	14.223	1420.345	1087.351
251.161	14.431	1419.659	1088.087
252.176	14.438	1419.105	1087.610
253.190	14.415	1418.223	1086.688
254.205	14.461	1417.361	1086.233
255.220	14.500	1416.710	1085.891
256.234	14.488	1416.010	1085.179
257.249	14.564	1414.691	1084.568
258.263	14.640	1413.911	1084.366
259.278	14.527	1413.264	1083.042
260.293	14.495	1412.601	1082.227
261.307	14.552	1411.591	1081.727
262.322	14.581	1410.827	1081.233
263.336	14.639	1410.085	1080.945
264.351	14.708	1408.518	1080.099
265.366	14.651	1407.782	1079.066
266.380	14.634	1407.333	1078.520
267.395	14.655	1406.400	1077.842
268.409	14.730	1405.568	1077.597
269.424	14.638	1404.213	1075.866
270.439	14.611	1403.393	1074.968
271.453	14.719	1402.483	1074.876
272.468	14.691	1401.370	1073.743
273.482	14.684	1400.504	1072.942
274.497	14.692	1399.741	1072.313
275.512	14.666	1398.887	1071.400
276.526	14.713	1397.855	1070.812
277.541	14.741	1396.798	1070.086
278.555	14.720	1396.522	1069.649
279.570	14.730	1395.519	1068.846
280.585	14.747	1394.177	1067.835
281.599	14.745	1394.107	1067.671
282.614	14.836	1392.874	1067.215
283.628	14.837	1391.760	1066.278
284.643	14.802	1390.804	1065.228
285.657	14.850	1389.333	1064.310
286.672	14.805	1388.821	1063.539
287.687	14.821	1387.849	1062.800
288.701	14.742	1387.141	1061.663
289.716	14.889	1386.214	1061.794
290.730	14.886	1385.186	1060.894
291.745	14.985	1384.126	1060.617
292.760	14.937	1383.081	1059.413
293.774	14.882	1382.129	1058.246
294.789	15.046	1381.173	1058.456
295.803	15.029	1380.331	1057.611
296.818	15.090	1379.883	1057.555
297.833	15.096	1378.408	1056.370
298.847	15.059	1377.251	1055.158
299.862	15.065	1376.366	1054.427
300.876	15.049	1375.345	1053.447
301.891	15.110	1374.607	1053.172
302.906	15.107	1373.860	1052.491
303.920	15.100	1373.356	1051.965
304.935	15.152	1372.329	1051.416
305.949	15.230	1371.864	1051.451
306.964	15.315	1370.837	1051.108
307.979	15.304	1369.410	1049.850
308.993	15.281	1368.670	1049.043
310.008	15.341	1367.849	1048.699
311.022	15.248	1367.104	1047.456
312.037	15.371	1365.676	1047.035
313.052	15.301	1364.990	1045.980
314.066	15.327	1364.186	1045.430
315.081	15.314	1362.768	1044.171
316.095	15.200	1361.925	1042.725
317.110	15.268	1361.117	1042.434
318.125	15.233	1359.999	1041.268
319.139	15.236	1359.371	1040.714
320.154	15.328	1358.037	1040.173
321.168	15.280	1356.974	1038.968
322.183	15.229	1356.342	1038.081
323.197	15.208	1355.473	1037.192
324.212	15.305	1354.344	1036.837
325.227	15.246	1354.003	1036.117
326.241	15.428	1352.755	1036.198
327.256	15.338	1352.218	1035.139
328.270	15.368	1351.126	1034.394
329.285	15.317	1350.222	1033.297
330.300	15.424	1348.981	1032.914
331.314	15.411	1348.280	1032.206
332.329	15.335	1347.792	1031.274
333.343	15.493	1346.455	1031.128
334.358	15.520	1345.372	1030.372
335.373	15.392	1345.481	1029.579
336.387	15.441	1344.153	1028.775
337.402	15.520	1343.220	1028.455
338.416	15.591	1342.427	1028.192
339.431	15.647	1342.222	1028.286
340.446	15.604	1341.528	1027.399
341.460	15.651	1340.543	1026.843
342.475	15.667	1339.212	1025.827
343.489	15.567	1338.656	1024.702
344.504	15.674	1337.488	1024.368
345.519	15.755	1336.484	1024.002
346.533	15.857	1335.359	1023.668
347.548	15.814	1334.698	1022.808
348.562	15.891	1333.909	1022.581
349.577	15.928	1333.218	1022.189
350.592	15.840	1332.500	1021.015
351.606	15.818	1331.795	1020.247
352.621	15.694	1330.598	1018.491
353.635	15.743	1329.286	1017.695
354.650	15.723	1328.275	1016.708
355.665	15.676	1327.513	1015.751
356.679	15.653	1326.777	1014.960
357.694	15.874	1325.445	1015.182
358.708	15.832	1324.682	1014.255
359.723	15.850	1323.852	1013.641
360.738	15.850	1322.562	1012.559
361.752	15.962	1321.232	1012.125
362.767	15.930	1320.534	1011.309
363.781	15.852	1319.684	1010.104
364.796	15.948	1318.971	1010.042
365.810	16.014	1318.060	1009.652
366.825	16.031	1317.544	1009.267
367.840	16.128	1316.761	1009.157
368.854	16.088	1316.013	1008.259
369.869	16.076	1315.553	1007.746
370.883	16.225	1314.259	1007.555
371.898	16.163	1314.039	1006.928
372.913	16.072	1313.471	1005.861
373.927	16.150	1312.220	1005.274
374.942	16.220	1311.617	1005.140
375.956	16.213	1310.622	1004.249
376.971	16.270	1309.560	1003.687
377.986	16.200	1309.290	1002.972
379.000	16.231	1308.115	1002.171
380.015	16.309	1307.698	1002.226
381.029	16.406	1306.600	1001.869
382.044	16.391	1306.136	1001.337
383.059	16.378	1305.362	1000.579
384.073	16.476	1304.414	1000.342
385.088	16.350	1304.258	999.388
386.102	16.422	1303.311	998.999
387.117	16.593	1302.436	999.249
388.132	16.417	1302.008	997.793
389.146	16.351	1300.925	996.485
390.161	16.370	1299.766	995.620
391.175	16.303	1298.998	994.553
392.190	16.339	1298.265	994.114
393.205	16.408	1297.219	993.634
394.219	16.461	1296.350	993.187
395.234	16.488	1295.361	992.501
396.248	16.441	1294.130	991.196
397.263	16.521	1292.735	990.509
398.278	16.472	1291.762	989.391
399.292	16.392	1290.540	987.899
400.307	16.423	1289.629	987.292
401.321	16.422	1288.542	986.366
402.336	16.542	1286.833	985.669
403.350	16.371	1286.658	984.456
404.365	16.476	1285.493	984.089
405.380	16.437	1284.589	983.080
406.394	16.444	1284.338	982.840
407.409	16.421	1283.495	981.976
408.423	16.563	1282.672	982.088
409.438	16.648	1281.818	981.837
410.453	16.676	1281.450	981.632
411.467	16.722	1280.297	980.927
412.482	16.697	1279.980	980.455
413.496	16.758	1279.248	980.158
414.511	16.910	1278.250	980.183
415.526	16.894	1277.535	979.457
416.540	16.821	1277.330	978.794
417.555	16.862	1276.490	978.300
418.569	16.897	1275.669	977.785
419.584	16.848	1275.535	977.313
420.599	16.925	1274.501	976.879
421.613	78.394	1323.147	1367.648
422.628	77.114	1330.256	1367.803
