DTS Sentinel unit serial number:	SN413079Multiplexer serial number:	ORYXHardware model number:	OX4-SRSoftware version number:	ORYX F/W v4.00 Oryx Data Collector v3.7.2.0data status	okinstallation	princeton_trtdifferential loss correction	single-endedforward channel	channel 4reverse channel	N/Adate	2019/09/19time	14:21:34forward acquisition time	60.00reverse acquisition time	0.00gamma	496.2192k internal	0.2307k external	0.2307temperature offset calibration	1.0018default loss term (dB/km)	0.3790temperature slope calibration	1.0000multiplexer offset coefficient	1.0000multiplexer slope coefficient	1.0000fibre end	0.00T internal ref (°C)	31.87T ext. ref 1 (°C)	1.05T ext. ref 2 (°C)	29.19length (m)	temperature (°C)	Stokes	anti-Stokes-747.200	93.804	-0.212	-0.244
-746.185	-63.893	-0.274	0.114
-745.171	-48.214	-0.010	-0.005
-744.156	53.795	0.088	0.086
-743.142	104.537	-0.043	0.051
-742.127	162.447	0.199	0.284
-741.112	800.000	0.087	0.332
-740.098	228.906	-0.077	0.127
-739.083	-119.097	0.228	-0.041
-738.069	67.037	-0.184	0.191
-737.054	-0.976	0.069	-0.049
-736.039	267.649	-0.090	-0.160
-735.025	-200.000	-0.031	-0.276
-734.010	223.120	-0.037	-0.061
-732.996	-129.891	-0.210	0.029
-731.981	-200.000	-0.024	0.173
-730.966	181.817	-0.189	-0.284
-729.952	30.504	0.062	-0.054
-728.937	36.211	-0.233	-0.208
-727.923	-200.000	-0.020	-0.140
-726.908	-200.000	0.023	-0.191
-725.894	81.571	0.248	-0.273
-724.879	169.829	-0.130	-0.189
-723.864	800.000	-0.039	0.164
-722.850	67.363	-0.197	0.204
-721.835	122.240	0.201	0.255
-720.821	312.026	0.114	-0.217
-719.806	800.000	0.021	-0.068
-718.791	-135.142	0.259	0.032
-717.777	178.729	-0.160	0.237
-716.762	-200.000	0.035	0.218
-715.748	-26.456	-0.204	-0.121
-714.733	119.537	-0.323	-0.406
-713.718	-53.068	-0.132	0.061
-712.704	-200.000	0.009	0.051
-711.689	-74.365	0.221	0.081
-710.675	-200.000	-0.034	-0.419
-709.660	131.452	-0.098	0.128
-708.645	-42.997	0.392	-0.202
-707.631	229.028	0.054	0.090
-706.616	-129.240	0.204	0.029
-705.602	5.637	-0.163	0.122
-704.587	-200.000	-0.038	-0.288
-703.572	-157.704	-0.190	-0.011
-702.558	-149.169	0.247	0.020
-701.543	800.000	0.065	-0.211
-700.529	-87.529	0.380	-0.117
-699.514	800.000	-0.123	0.366
-698.499	800.000	-0.033	0.143
-697.485	-84.989	0.157	-0.050
-696.470	-17.634	-0.121	0.077
-695.456	436.204	-0.069	0.153
-694.441	-38.111	-0.346	-0.186
-693.426	-69.534	-0.151	-0.059
-692.412	-104.586	-0.143	0.033
-691.397	-200.000	-0.025	0.325
-690.383	-85.343	-0.292	-0.092
-689.368	-120.396	0.291	-0.050
-688.354	800.000	0.132	0.408
-687.339	209.984	-0.105	0.167
-686.324	-111.524	0.412	0.085
-685.310	-111.167	0.050	0.010
-684.295	-200.000	-0.000	0.032
-683.281	151.332	-0.097	0.134
-682.266	-200.000	0.000	-0.113
-681.251	-108.977	0.268	-0.058
-680.237	531.997	-0.161	0.387
-679.222	272.789	-0.056	-0.100
-678.208	297.720	-0.175	-0.327
-677.193	-7.941	-0.191	0.131
-676.178	129.298	0.197	0.256
-675.164	-55.454	0.221	0.100
-674.149	-29.721	-0.180	0.104
-673.135	800.000	-0.053	-0.185
-672.120	800.000	0.047	-0.193
-671.105	201.631	0.138	0.215
-670.091	114.623	-0.274	-0.338
-669.076	67.203	-0.261	-0.270
-668.062	800.000	0.033	-0.114
-667.047	-113.635	0.115	-0.023
-666.032	467.695	-0.101	-0.230
-665.018	-188.126	-0.315	-0.004
-664.003	-71.362	-0.069	0.026
-662.989	-200.000	-0.068	0.309
-661.974	-65.594	-0.174	0.071
-660.959	-200.000	-0.009	0.073
-659.945	-200.000	0.023	0.123
-658.930	5.310	-0.237	-0.177
-657.916	-138.959	0.035	-0.004
-656.901	-68.592	-0.177	0.069
-655.886	-77.200	-0.181	0.064
-654.872	33.844	-0.220	-0.194
-653.857	800.000	0.035	-0.113
-652.843	69.850	-0.200	-0.209
-651.828	-6.594	-0.274	-0.189
-650.814	800.000	0.085	0.370
-649.799	800.000	-0.154	0.459
-648.784	211.219	0.200	-0.319
-647.770	500.940	0.225	-0.525
-646.755	800.000	-0.075	-0.244
-645.741	457.169	-0.044	0.098
-644.726	42.955	-0.298	-0.275
-643.711	-200.000	-0.021	0.387
-642.697	482.669	0.107	0.246
-641.682	800.000	0.066	-0.184
-640.668	627.720	-0.074	-0.190
-639.653	-200.000	-0.009	0.193
-638.638	-50.482	-0.190	0.091
-637.624	-91.935	-0.199	-0.057
-636.609	-115.949	0.205	-0.039
-635.595	-109.456	0.028	-0.006
-634.580	-200.000	0.010	-0.255
-633.565	416.679	-0.073	-0.159
-632.551	483.436	0.022	0.051
-631.536	-178.690	0.303	0.007
-630.522	-140.984	-0.032	-0.003
-629.507	-200.000	0.045	0.323
-628.492	-200.000	-0.036	0.326
-627.478	99.195	-0.260	0.304
-626.463	-200.000	0.039	-0.268
-625.449	58.989	-0.335	-0.334
-624.434	123.367	0.142	0.180
-623.419	-106.888	-0.161	0.036
-622.405	65.790	-0.108	-0.111
-621.390	10.883	-0.199	-0.154
-620.376	38.303	0.231	-0.209
-619.361	374.551	-0.021	-0.044
-618.346	655.041	-0.041	0.107
-617.332	-72.505	-0.083	0.031
-616.317	7.701	0.325	0.246
-615.303	124.236	-0.119	-0.151
-614.288	800.000	-0.087	-0.255
-613.273	19.955	-0.143	0.117
-612.259	800.000	0.123	-0.343
-611.244	-200.000	0.006	0.135
-610.230	-41.045	0.251	0.131
-609.215	171.040	-0.062	0.090
-608.201	41.156	0.148	0.135
-607.186	-10.316	-0.115	-0.077
-606.171	16.976	0.116	-0.093
-605.157	-128.704	0.118	-0.017
-604.142	-140.086	0.263	-0.028
-603.128	800.000	-0.115	-0.470
-602.113	155.472	-0.166	0.231
-601.098	-200.000	-0.019	-0.412
-600.084	224.635	0.076	0.124
-599.069	272.877	0.014	0.025
-598.055	-121.934	-0.209	-0.035
-597.040	-124.378	0.166	-0.026
-596.025	20.345	-0.031	0.025
-595.011	-43.719	-0.225	-0.115
-593.996	-97.010	-0.359	0.095
-592.982	-26.337	-0.212	-0.126
-591.967	-64.123	-0.117	0.048
-590.952	22.100	0.171	0.141
-589.938	-72.683	0.255	0.095
-588.923	-14.320	-0.221	-0.144
-587.909	-29.274	-0.331	0.192
-586.894	654.876	0.084	-0.218
-585.879	-197.108	0.148	0.001
-584.865	-100.989	-0.165	0.041
-583.850	48.543	0.095	-0.090
-582.836	-135.695	0.133	0.016
-581.821	511.622	-0.082	-0.194
-580.806	-101.314	-0.174	0.043
-579.792	91.719	-0.181	-0.206
-578.777	-97.833	0.341	-0.089
-577.763	-200.000	-0.030	-0.214
-576.748	28.570	-0.186	0.159
-575.733	800.000	0.053	0.199
-574.719	-25.207	-0.142	-0.085
-573.704	79.317	-0.139	-0.150
-572.690	81.377	0.266	0.290
-571.675	61.189	0.184	-0.185
-570.661	678.488	0.183	0.482
-569.646	-99.354	-0.152	0.039
-568.631	-87.831	0.243	0.074
-567.617	80.243	0.188	0.205
-566.602	158.460	-0.218	-0.306
-565.588	-163.133	-0.130	-0.006
-564.573	-102.215	0.278	-0.067
-563.558	-25.310	0.113	-0.068
-562.544	-14.153	0.358	0.233
-561.529	123.062	0.197	-0.249
-560.515	203.020	-0.038	0.059
-559.500	-62.056	0.285	-0.120
-558.485	14.600	-0.218	0.172
-557.471	428.148	0.169	0.369
-556.456	225.572	-0.108	0.176
-555.442	-200.000	0.017	-0.106
-554.427	382.361	-0.091	-0.188
-553.412	-200.000	0.006	-0.060
-552.398	-151.535	-0.035	-0.003
-551.383	-200.000	0.043	-0.239
-550.369	800.000	0.116	-0.339
-549.354	-83.330	-0.163	0.053
-548.339	-35.925	0.137	0.075
-547.325	-128.648	0.290	0.041
-546.310	-200.000	-0.013	0.127
-545.296	-76.744	0.275	0.097
-544.281	800.000	-0.094	-0.346
-543.266	32.695	-0.033	-0.029
-542.252	-57.422	0.374	0.166
-541.237	-130.696	-0.373	0.051
-540.223	49.097	0.142	-0.135
-539.208	-200.000	-0.039	0.238
-538.193	12.089	0.050	-0.039
-537.179	-171.060	0.180	-0.006
-536.164	-200.000	-0.045	0.404
-535.150	-127.186	0.028	0.004
-534.135	-40.517	-0.269	-0.141
-533.121	74.102	0.069	-0.073
-532.106	-97.716	0.355	0.093
-531.091	118.225	0.162	0.202
-530.077	43.544	0.231	-0.213
-529.062	800.000	0.052	0.167
-528.048	-51.988	0.165	0.077
-527.033	-200.000	-0.011	-0.065
-526.018	-91.419	0.060	0.017
-525.004	-200.000	-0.011	0.230
-523.989	131.312	-0.084	0.109
-522.975	80.744	-0.264	0.287
-521.960	-18.879	-0.231	-0.145
-520.945	276.889	-0.170	0.304
-519.931	308.627	-0.103	0.193
-518.916	490.147	-0.038	0.088
-517.902	248.627	-0.088	-0.150
-516.887	-94.267	-0.240	0.066
-515.872	-26.250	0.402	-0.238
-514.858	-69.991	0.141	-0.054
-513.843	409.599	-0.056	-0.119
-512.829	150.159	0.100	-0.137
-511.814	-91.959	-0.217	0.062
-510.799	-25.907	-0.206	-0.122
-509.785	148.287	0.160	-0.218
-508.770	-200.000	-0.020	-0.301
-507.756	-8.172	0.235	0.159
-506.741	-36.201	-0.273	-0.149
-505.726	213.395	-0.110	0.175
-504.712	0.318	0.134	-0.096
-503.697	1.959	-0.288	0.209
-502.683	-40.523	0.267	0.140
-501.668	800.000	-0.013	-0.043
-500.653	-200.000	0.000	-0.526
-499.639	-27.400	0.254	0.149
-498.624	-24.775	0.177	-0.106
-497.610	249.964	0.117	0.200
-496.595	471.232	0.012	0.028
-495.581	77.478	-0.054	0.058
-494.566	-58.776	-0.236	0.103
-493.551	-200.000	-0.038	0.208
-492.537	-13.042	0.093	-0.061
-491.522	-41.529	-0.273	-0.141
-490.508	-7.693	0.246	0.167
-489.493	52.301	-0.244	0.234
-488.478	10.360	0.374	0.287
-487.464	-200.000	0.007	0.173
-486.449	-200.000	-0.003	0.184
-485.435	-187.320	-0.235	-0.003
-484.420	12.579	-0.163	-0.127
-483.405	-129.628	0.174	0.024
-482.391	22.776	-0.050	0.041
-481.376	-112.611	-0.096	0.019
-480.362	-70.899	-0.355	0.135
-479.347	-151.304	-0.261	0.020
-478.332	-200.000	-0.026	0.147
-477.318	-64.184	-0.397	0.163
-476.303	-112.061	0.209	-0.042
-475.289	318.079	0.072	0.136
-474.274	-99.908	-0.112	-0.028
-473.259	-135.400	-0.292	-0.035
-472.245	-107.197	0.220	-0.049
-471.230	93.312	0.116	-0.132
-470.216	30.575	-0.263	0.226
-469.201	-200.000	0.030	0.142
-468.186	55.271	-0.111	-0.108
-467.172	-200.000	-0.032	0.319
-466.157	800.000	-0.045	0.185
-465.143	-21.053	-0.406	-0.250
-464.128	-200.000	0.030	-0.149
-463.113	-122.031	-0.205	-0.034
-462.099	800.000	0.071	0.296
-461.084	112.349	-0.084	-0.102
-460.070	-147.318	-0.430	0.037
-459.055	39.662	-0.146	-0.132
-458.040	99.223	0.417	-0.484
-457.026	128.241	-0.163	-0.208
-456.011	800.000	-0.053	0.182
-454.997	9.353	-0.168	0.128
-453.982	-200.000	-0.005	0.472
-452.968	117.886	0.180	0.222
-451.953	-97.141	0.124	-0.033
-450.938	800.000	-0.029	-0.084
-449.924	-200.000	0.033	0.305
-448.909	-179.659	-0.125	0.003
-447.895	25.993	0.310	0.260
-446.880	147.484	-0.129	0.175
-445.865	-46.348	0.188	-0.093
-444.851	297.216	-0.151	-0.278
-443.836	-17.750	0.090	-0.057
-442.822	154.327	0.225	0.310
-441.807	123.987	-0.202	0.255
-440.792	800.000	0.151	0.509
-439.778	-149.437	-0.232	0.018
-438.763	477.782	0.103	-0.234
-437.749	800.000	-0.149	-0.444
-436.734	188.046	0.131	-0.197
-435.719	15.193	0.309	-0.244
-434.705	-88.302	0.323	0.097
-433.690	-100.498	0.139	-0.034
-432.676	252.561	-0.165	-0.283
-431.661	345.350	-0.083	0.164
-430.646	800.000	-0.098	-0.276
-429.632	-97.687	-0.250	-0.065
-428.617	800.000	-0.043	0.149
-427.603	-68.924	0.254	0.098
-426.588	-138.429	0.292	-0.032
-425.573	314.948	0.169	-0.320
-424.559	68.926	-0.131	0.135
-423.544	800.000	-0.062	0.212
-422.530	-26.861	-0.144	-0.085
-421.515	-41.280	0.175	-0.091
-420.500	-34.801	0.133	-0.073
-419.486	-129.465	0.079	-0.011
-418.471	-184.389	-0.166	0.003
-417.457	-200.000	-0.002	0.166
-416.442	-200.000	0.033	0.355
-415.428	298.729	0.128	-0.237
-414.413	-200.000	0.012	-0.401
-413.398	-106.934	-0.215	-0.048
-412.384	-88.112	0.291	-0.088
-411.369	800.000	-0.044	-0.180
-410.355	-23.073	-0.125	-0.076
-409.340	-162.739	-0.367	-0.018
-408.325	70.305	0.147	0.153
-407.311	-70.139	-0.568	0.217
-406.296	652.576	-0.033	-0.084
-405.282	-113.012	-0.202	-0.040
-404.267	-200.000	-0.002	-0.128
-403.252	454.028	-0.059	-0.132
-402.238	65.541	0.362	-0.368
-401.223	-200.000	0.035	-0.300
-400.209	-97.709	0.052	-0.013
-399.194	-137.737	0.284	0.032
-398.179	-200.000	-0.031	-0.232
-397.165	140.742	0.297	0.393
-396.150	335.140	-0.097	0.188
-395.136	-0.642	-0.140	-0.100
-394.121	225.698	-0.009	0.015
-393.106	-121.902	-0.169	-0.028
-392.092	128.208	-0.130	-0.167
-391.077	82.977	0.232	-0.253
-390.063	41.704	-0.189	0.172
-389.048	166.330	0.237	0.337
-388.033	-61.889	-0.132	-0.055
-387.019	-72.641	-0.077	-0.028
-386.004	-200.000	0.002	0.102
-384.990	327.557	-0.046	-0.089
-383.975	387.009	-0.170	-0.353
-382.960	87.377	0.034	0.038
-381.946	237.032	-0.144	-0.239
-380.931	-50.979	0.397	0.187
-379.917	325.392	0.059	-0.113
-378.902	187.226	-0.211	-0.316
-377.888	-75.642	0.164	0.058
-376.873	498.638	-0.189	0.436
-375.858	-35.711	-0.107	-0.058
-374.844	4.885	0.151	0.111
-373.829	-200.000	0.049	0.406
-372.815	-8.219	-0.266	0.179
-371.800	-86.105	0.117	-0.036
-370.785	441.763	-0.005	-0.012
-369.771	-63.765	0.308	0.127
-368.756	-200.000	0.012	-0.256
-367.742	-200.000	0.041	0.239
-366.727	25.343	0.300	0.250
-365.712	-200.000	-0.065	-0.304
-364.698	-200.000	0.017	-0.354
-363.683	55.284	0.260	0.252
-362.669	-63.702	-0.141	0.058
-361.654	-33.496	-0.028	0.016
-360.639	404.825	0.082	-0.174
-359.625	-104.693	0.066	-0.015
-358.610	-200.000	0.027	0.129
-357.596	-200.000	0.021	-0.182
-356.581	-51.558	-0.388	-0.181
-355.566	210.771	-0.045	0.070
-354.552	-153.726	0.092	0.006
-353.537	60.048	-0.058	0.057
-352.523	-59.170	-0.145	-0.063
-351.508	-200.000	0.032	0.496
-350.493	161.185	-0.161	-0.225
-349.479	291.276	0.131	-0.239
-348.464	-13.029	0.052	0.034
-347.450	159.588	-0.052	-0.072
-346.435	34.565	0.145	0.127
-345.420	337.967	0.138	-0.269
-344.406	630.919	-0.027	0.069
-343.391	-6.917	-0.189	-0.128
-342.377	-79.115	0.105	-0.036
-341.362	34.801	-0.280	0.245
-340.348	21.155	-0.151	-0.122
-339.333	-121.294	0.047	0.008
-338.318	100.493	0.164	0.190
-337.304	-200.000	0.017	0.252
-336.289	-121.527	0.361	0.060
-335.275	130.241	-0.160	-0.205
-334.260	511.379	0.063	-0.148
-333.245	787.071	0.079	0.217
-332.231	48.025	-0.223	-0.209
-331.216	-104.427	-0.215	0.050
-330.202	348.405	-0.039	0.076
-329.187	40.458	0.294	0.265
-328.172	800.000	0.086	-0.336
-327.158	-118.622	-0.355	-0.063
-326.143	262.546	0.134	0.232
-325.129	-200.000	0.082	0.434
-324.114	-200.000	-0.009	-0.110
-323.099	355.378	-0.036	0.072
-322.085	-64.349	-0.197	0.080
-321.070	198.274	-0.104	0.158
-320.056	706.897	-0.075	-0.199
-319.041	800.000	-0.091	-0.301
-318.026	129.086	-0.149	0.190
-317.012	-16.006	-0.288	-0.183
-315.997	112.110	-0.127	0.154
-314.983	-146.604	0.080	-0.007
-313.968	85.879	-0.101	-0.111
-312.953	170.598	-0.091	-0.130
-311.939	-89.191	0.245	0.072
-310.924	-200.000	0.068	-0.347
-309.910	-141.305	0.125	-0.013
-308.895	731.753	-0.096	-0.257
-307.880	-83.207	0.445	-0.143
-306.866	165.687	-0.026	0.037
-305.851	-200.000	0.010	0.132
-304.837	182.574	-0.033	0.048
-303.822	-56.717	-0.184	-0.081
-302.807	19.159	0.250	-0.200
-301.793	119.539	-0.178	0.221
-300.778	563.146	-0.058	0.141
-299.764	64.834	-0.064	0.065
-298.749	800.000	-0.031	0.095
-297.735	351.898	-0.058	0.114
-296.720	87.799	-0.131	-0.146
-295.705	-139.403	0.196	0.021
-294.691	291.081	0.039	0.071
-293.676	-11.428	-0.059	0.039
-292.662	41.588	0.117	-0.106
-291.647	33.929	0.081	-0.070
-290.632	-159.620	0.205	0.011
-289.618	-41.034	-0.249	0.128
-288.603	10.832	0.145	0.111
-287.589	-200.000	-0.046	0.501
-286.574	5.136	0.169	-0.124
-285.559	-200.000	-0.065	0.378
-284.545	316.586	-0.111	0.209
-283.530	74.566	-0.111	-0.117
-282.516	-137.753	-0.091	0.010
-281.501	800.000	0.041	0.114
-280.486	-105.685	-0.223	0.050
-279.472	238.157	0.321	0.532
-278.457	-134.554	0.184	0.022
-277.443	748.838	-0.046	-0.123
-276.428	5.758	0.165	0.122
-275.413	-151.000	-0.182	-0.014
-274.399	360.407	-0.059	0.118
-273.384	118.927	-0.377	0.465
-272.370	-3.864	0.139	-0.096
-271.355	-114.475	0.248	-0.048
-270.340	252.365	-0.133	-0.227
-269.326	87.002	0.075	0.083
-268.311	-192.096	0.284	0.003
-267.297	105.923	-0.039	-0.046
-266.282	35.797	-0.231	0.203
-265.267	-120.106	0.238	0.041
-264.253	73.177	0.088	0.091
-263.238	800.000	-0.094	-0.346
-262.224	67.457	-0.120	-0.123
-261.209	-54.670	0.178	0.080
-260.195	139.295	0.055	-0.072
-259.180	-200.000	-0.013	0.090
-258.165	-54.069	-0.126	-0.057
-257.151	76.963	0.157	0.167
-256.136	-200.000	-0.009	-0.082
-255.122	500.401	-0.107	-0.247
-254.107	-200.000	0.042	-0.245
-253.092	-88.424	0.061	-0.018
-252.078	212.829	0.063	-0.099
-251.063	109.491	-0.106	0.127
-250.049	-21.532	-0.190	-0.115
-249.034	-9.995	0.298	-0.198
-248.019	-200.000	0.000	-0.040
-247.005	-94.633	0.235	-0.064
-245.990	112.379	-0.278	-0.336
-244.976	2.568	-0.166	0.120
-243.961	191.310	0.052	0.078
-242.946	-200.000	-0.045	0.246
-241.932	-48.435	-0.380	0.183
-240.917	50.821	-0.354	0.334
-239.903	32.000	-0.005	0.005
-238.888	-200.000	0.024	0.266
-237.873	-200.000	0.027	-0.299
-236.859	-136.831	0.033	0.004
-235.844	445.491	-0.081	0.177
-234.830	-200.000	0.018	-0.169
-233.815	-119.260	0.317	0.055
-232.800	333.991	0.025	-0.049
-231.786	-127.485	-0.160	-0.023
-230.771	-95.848	-0.087	0.023
-229.757	-22.401	0.156	-0.094
-228.742	-116.919	-0.083	0.015
-227.727	-129.712	0.202	0.028
-226.713	-200.000	-0.033	-0.244
-225.698	-200.000	0.022	0.144
-224.684	-85.637	0.189	-0.059
-223.669	54.019	0.188	-0.180
-222.655	-87.234	-0.311	0.094
-221.640	310.221	0.256	0.477
-220.625	-80.216	0.070	-0.023
-219.611	-41.178	0.050	-0.026
-218.596	-161.451	-0.385	0.020
-217.582	274.508	0.076	-0.135
-216.567	-73.769	-0.161	0.059
-215.552	-35.851	0.224	-0.121
-214.538	169.250	-0.111	-0.158
-213.523	-28.151	0.120	0.069
-212.509	65.219	-0.059	-0.060
-211.494	105.988	0.307	-0.362
-210.479	-18.226	0.149	0.093
-209.465	162.834	0.057	-0.080
-208.450	101.107	-0.057	-0.066
-207.436	203.820	0.063	-0.097
-206.421	298.019	0.215	-0.394
-205.406	-200.000	0.041	-0.239
-204.392	193.342	0.150	-0.225
-203.377	-110.662	-0.222	0.046
-202.363	237.898	0.031	-0.051
-201.348	-12.919	0.264	-0.171
-200.333	20.717	-0.271	0.218
-199.319	-117.262	-0.276	-0.050
-198.304	-68.105	-0.137	0.053
-197.290	800.000	-0.110	0.401
-196.275	187.730	-0.027	0.041
-195.260	800.000	-0.024	-0.069
-194.246	-54.076	-0.218	0.099
-193.231	216.133	0.114	0.181
-192.217	-107.460	-0.120	0.026
-191.202	632.627	-0.103	0.261
-190.187	-3.523	0.046	-0.032
-189.173	4.588	0.519	0.379
-188.158	-41.336	0.290	-0.149
-187.144	-19.767	-0.276	-0.169
-186.129	-52.548	0.122	0.056
-185.114	263.950	0.081	-0.140
-184.100	-42.719	0.240	0.121
-183.085	48.646	0.258	0.241
-182.071	154.706	-0.104	-0.142
-181.056	175.038	-0.093	0.134
-180.042	-131.046	-0.321	-0.043
-179.027	357.127	0.269	0.534
-178.012	800.000	0.073	-0.283
-176.998	-200.000	0.044	-0.279
-175.983	-149.280	-0.216	-0.017
-174.969	-90.642	0.287	-0.083
-173.954	-38.066	-0.237	-0.125
-172.939	97.900	0.021	-0.024
-171.925	800.000	-0.051	0.208
-170.910	67.462	0.047	0.048
-169.896	-200.000	0.006	-0.354
-168.881	-200.000	0.021	-0.124
-167.866	-101.903	0.081	-0.020
-166.852	-77.429	0.157	0.054
-165.837	-200.000	0.090	-0.507
-164.823	10.818	0.181	0.137
-163.808	-98.901	0.213	0.054
-162.793	127.528	0.081	-0.102
-161.779	38.952	-0.120	-0.106
-160.764	-58.001	0.299	-0.130
-159.750	0.617	-0.108	-0.077
-158.735	-149.541	-0.250	-0.020
-157.720	-200.000	-0.045	-0.285
-156.706	305.976	0.103	-0.190
-155.691	-55.673	-0.057	-0.025
-154.677	280.283	-0.118	0.209
-153.662	-200.000	-0.007	-0.082
-152.647	-87.631	-0.242	-0.073
-151.633	800.000	0.017	0.048
-150.618	168.050	0.180	0.255
-149.604	800.000	-0.027	-0.099
-148.589	360.609	0.099	0.198
-147.574	164.067	0.119	-0.166
-146.560	800.000	0.077	-0.322
-145.545	-139.702	0.154	0.016
-144.531	179.831	0.192	0.280
-143.516	-53.781	-0.215	0.098
-142.502	-200.000	0.033	0.162
-141.487	-37.828	0.104	0.055
-140.472	800.000	-0.038	-0.138
-139.458	25.347	0.185	0.153
-138.443	59.121	0.232	0.226
-137.429	343.664	0.178	0.347
-136.414	-164.803	-0.524	-0.023
-135.399	-63.048	-0.135	0.055
-134.385	395.705	0.038	-0.078
-133.370	380.068	0.054	-0.110
-132.356	191.319	-0.071	-0.106
-131.341	-193.614	-0.375	0.003
-130.326	-52.151	0.205	0.095
-129.312	-78.393	0.100	-0.034
-128.297	-200.000	0.033	-0.243
-127.283	17.957	-0.120	0.095
-126.268	-113.932	0.496	-0.096
-125.253	373.034	-0.075	-0.150
-124.239	800.000	0.099	-0.322
-123.224	222.729	0.135	0.216
-122.210	9.699	-0.037	0.028
-121.195	-52.575	0.362	0.166
-120.180	594.488	0.142	-0.349
-119.166	-200.000	-0.004	-0.074
-118.151	-43.044	0.187	0.094
-117.137	-108.600	0.267	0.057
-116.122	336.386	0.108	-0.208
-115.107	190.633	-0.096	-0.144
-114.093	756.796	-0.008	0.022
-113.078	-67.825	0.232	0.090
-112.064	275.456	-0.131	-0.230
-111.049	-200.000	-0.046	-0.217
-110.034	96.724	-0.059	-0.067
-109.020	-4.572	-0.097	-0.066
-108.005	-62.280	-0.158	0.065
-106.991	-18.016	-0.061	-0.038
-105.976	-96.217	0.195	0.051
-104.962	-101.773	-0.359	-0.086
-103.947	800.000	-0.023	-0.088
-102.932	93.372	-0.213	0.239
-101.918	206.670	-0.191	0.295
-100.903	285.217	0.111	-0.198
-99.889	0.178	0.028	0.020
-98.874	-17.541	0.310	0.193
-97.859	-200.000	0.048	0.244
-96.845	226.775	0.168	-0.271
-95.830	-200.000	0.023	0.149
-94.816	-89.298	-0.253	-0.074
-93.801	77.719	-0.074	0.078
-92.786	-69.257	-0.286	0.109
-91.772	14.334	0.075	-0.058
-90.757	92.143	-0.347	0.387
-89.743	800.000	0.046	-0.178
-88.728	438.463	0.061	-0.132
-87.713	114.289	0.024	0.028
-86.699	-123.329	0.201	0.032
-85.684	486.359	0.153	-0.346
-84.670	38.844	0.230	-0.203
-83.655	-93.083	-0.272	-0.075
-82.640	-176.907	-0.169	-0.004
-81.626	800.000	-0.037	-0.131
-80.611	-42.872	-0.253	-0.127
-79.597	800.000	-0.030	0.088
-78.582	800.000	0.087	-0.299
-77.567	14.662	-0.062	-0.048
-76.553	-200.000	0.032	0.292
-75.538	390.129	0.077	-0.159
-74.524	89.794	-0.118	0.131
-73.509	800.000	0.104	-0.426
-72.494	-128.019	-0.521	-0.074
-71.480	425.741	-0.207	0.441
-70.465	62.855	0.080	-0.080
-69.451	4.000	0.190	0.137
-68.436	-200.000	0.051	-0.339
-67.422	109.573	0.071	-0.085
-66.407	155.524	0.012	-0.016
-65.392	50.249	0.254	0.237
-64.378	-138.687	-0.385	0.042
-63.363	-200.000	-0.012	0.079
-62.349	-40.758	-0.191	-0.098
-61.334	20.497	-1.069	-0.856
-60.319	70.733	0.431	0.441
-59.305	800.000	-0.285	-1.011
-58.290	326.482	0.677	1.284
-57.276	248.860	0.739	1.238
-56.261	-200.000	93.734	565.904
-55.246	504.706	1405.295	3220.912
-54.232	148.984	2621.574	3509.880
-53.217	100.765	2364.580	2720.398
-52.203	38.554	2122.620	1873.723
-51.188	33.663	2035.531	1751.745
-50.173	32.021	2017.401	1721.035
-49.159	46.901	2066.208	1901.016
-48.144	47.939	2084.469	1927.376
-47.130	34.266	2046.721	1766.696
-46.115	31.903	2036.340	1735.822
-45.100	31.856	2033.037	1732.503
-44.086	31.788	2030.834	1729.927
-43.071	31.753	2027.861	1727.007
-42.057	31.686	2025.720	1724.497
-41.042	31.688	2023.592	1722.637
-40.027	31.782	2021.655	1721.777
-39.013	31.712	2019.759	1719.454
-37.998	31.836	2017.416	1718.531
-36.984	31.918	2016.119	1718.109
-35.969	31.855	2013.760	1715.449
-34.954	31.863	2012.564	1714.435
-33.940	31.889	2010.727	1713.040
-32.925	31.889	2009.305	1711.765
-31.911	31.936	2007.496	1710.581
-30.896	31.960	2005.616	1709.132
-29.881	31.893	2004.648	1707.632
-28.867	31.988	2002.556	1706.644
-27.852	31.924	2000.604	1704.330
-26.838	31.931	1998.269	1702.340
-25.823	31.962	1996.349	1700.916
-24.809	31.882	1994.890	1698.883
-23.794	31.886	1993.608	1697.757
-22.779	31.840	1991.386	1695.381
-21.765	31.818	1989.942	1693.887
-20.750	31.796	1988.294	1692.216
-19.736	31.792	1986.470	1690.562
-18.721	31.892	1984.669	1689.866
-17.706	31.917	1983.300	1688.856
-16.692	31.912	1981.400	1687.122
-15.677	31.880	1979.565	1685.210
-14.663	31.825	1978.523	1683.756
-13.648	31.864	1977.206	1682.923
-12.633	31.944	1975.805	1682.382
-11.619	31.876	1974.788	1680.840
-10.604	31.833	1973.336	1679.148
-9.590	31.855	1971.695	1677.889
-8.575	31.856	1970.279	1676.623
-7.560	31.909	1969.205	1676.112
-6.546	31.896	1968.016	1674.920
-5.531	31.969	1966.274	1674.026
-4.517	31.951	1965.287	1672.961
-3.502	32.001	1963.653	1671.946
-2.487	31.956	1962.370	1670.381
-1.473	31.947	1962.172	1670.073
-0.458	32.042	1957.234	1666.645
0.556	31.288	1938.335	1643.447
1.571	27.344	1918.673	1592.208
2.586	22.945	1940.252	1570.952
3.600	21.140	1975.737	1583.182
4.615	20.072	1969.007	1567.992
5.629	15.485	1865.696	1446.169
6.644	6.409	1744.091	1278.408
7.659	1.599	1704.478	1211.036
8.673	1.152	1700.824	1204.782
9.688	1.070	1699.635	1203.185
10.702	1.033	1698.407	1201.913
11.717	0.945	1694.376	1198.261
12.731	1.410	1693.792	1201.417
13.746	7.170	1706.806	1256.339
14.761	14.612	1721.206	1326.174
15.775	17.385	1724.884	1350.942
16.790	17.461	1724.048	1350.770
17.804	16.513	1721.257	1340.947
18.819	15.491	1717.922	1330.137
19.834	14.890	1715.224	1323.180
20.848	14.602	1713.887	1319.757
21.863	14.361	1712.028	1316.301
22.877	14.116	1710.481	1313.060
23.892	13.912	1709.136	1310.306
24.907	13.705	1707.520	1307.315
25.921	13.769	1706.335	1306.798
26.936	13.783	1705.366	1306.052
27.950	13.788	1704.785	1305.526
28.965	13.835	1704.509	1305.570
29.980	13.862	1703.585	1304.961
30.994	13.853	1702.448	1303.905
32.009	13.879	1701.843	1303.530
33.023	13.943	1700.955	1303.233
34.038	14.020	1699.831	1302.864
35.053	14.059	1698.281	1301.866
36.067	13.904	1697.669	1300.065
37.082	13.965	1696.569	1299.585
38.096	13.894	1695.638	1298.205
39.111	13.864	1694.966	1297.340
40.126	13.873	1694.430	1296.884
41.140	13.877	1693.490	1296.083
42.155	13.961	1691.542	1295.135
43.169	13.773	1690.801	1292.986
44.184	13.816	1689.364	1292.110
45.199	13.758	1688.347	1290.765
46.213	13.783	1686.695	1289.578
47.228	13.738	1686.148	1288.702
48.242	13.773	1684.238	1287.399
49.257	13.941	1682.694	1287.407
50.271	13.852	1681.829	1285.937
51.286	13.835	1680.465	1284.649
52.301	13.869	1679.079	1283.740
53.315	13.886	1677.269	1282.373
54.330	13.873	1676.063	1281.240
55.344	13.864	1674.312	1279.719
56.359	13.722	1673.158	1277.628
57.374	13.834	1672.028	1277.516
58.388	13.779	1670.983	1276.182
59.403	13.721	1669.654	1274.609
60.417	13.748	1668.266	1273.642
61.432	13.801	1666.744	1272.776
62.447	13.748	1665.586	1271.370
63.461	13.792	1664.267	1270.586
64.476	13.706	1663.610	1269.315
65.490	13.620	1662.625	1267.795
66.505	13.642	1661.406	1266.920
67.520	13.703	1660.027	1266.225
68.534	13.693	1659.121	1265.344
69.549	13.719	1658.312	1264.812
70.563	13.766	1656.382	1263.590
71.578	13.751	1654.982	1262.295
72.593	13.613	1654.530	1260.785
73.607	13.662	1653.629	1260.357
74.622	13.653	1652.063	1258.984
75.636	13.691	1651.108	1258.432
76.651	13.670	1650.043	1257.354
77.666	13.714	1649.213	1256.940
78.680	13.641	1648.472	1255.716
79.695	13.579	1647.402	1254.315
80.709	13.659	1646.228	1253.918
81.724	13.741	1645.249	1253.682
82.739	13.669	1644.681	1252.596
83.753	13.745	1643.444	1252.119
84.768	13.853	1641.962	1251.693
85.782	13.799	1641.867	1251.100
86.797	13.886	1640.472	1250.578
87.812	13.888	1639.480	1249.729
88.826	13.759	1637.958	1247.490
89.841	13.705	1637.250	1246.435
90.855	13.739	1636.139	1245.731
91.870	13.845	1635.033	1245.573
92.884	13.783	1633.568	1243.888
93.899	13.846	1632.523	1243.450
94.914	13.915	1631.035	1242.723
95.928	13.879	1630.090	1241.623
96.943	13.918	1628.470	1240.572
97.957	13.897	1626.798	1239.034
98.972	13.812	1625.969	1237.660
99.987	13.900	1624.581	1237.144
101.001	13.844	1622.518	1235.047
102.016	13.867	1620.664	1233.698
103.030	13.889	1619.514	1232.879
104.045	13.872	1618.622	1231.966
105.060	13.944	1616.286	1230.610
106.074	13.917	1615.329	1229.577
107.089	13.748	1614.071	1227.258
108.103	13.785	1612.598	1226.301
109.118	13.723	1611.000	1224.522
110.133	13.745	1609.575	1223.489
111.147	13.646	1608.394	1221.755
112.162	13.789	1606.738	1221.443
113.176	13.762	1605.363	1220.093
114.191	13.830	1603.946	1219.407
115.206	13.804	1603.313	1218.625
116.220	13.803	1601.750	1217.324
117.235	13.816	1599.869	1215.878
118.249	13.834	1599.031	1215.270
119.264	13.811	1597.331	1213.702
120.279	13.760	1596.659	1212.711
121.293	13.761	1594.717	1211.130
122.308	13.812	1592.955	1210.063
123.322	13.837	1591.333	1208.906
124.337	13.820	1589.519	1207.294
125.352	13.717	1589.081	1206.108
126.366	13.795	1587.582	1205.431
127.381	13.875	1586.369	1204.981
128.395	13.740	1585.457	1203.204
129.410	13.755	1583.630	1201.822
130.424	13.783	1582.421	1200.994
131.439	13.837	1580.954	1200.166
132.454	13.891	1580.003	1199.731
133.468	13.906	1578.058	1198.252
134.483	13.907	1576.740	1197.154
135.497	13.920	1574.938	1195.774
136.512	13.841	1573.880	1194.299
137.527	13.901	1572.217	1193.363
138.541	13.892	1571.278	1192.481
139.556	13.886	1569.171	1190.734
140.570	13.859	1568.199	1189.698
141.585	13.984	1566.192	1188.964
142.600	14.006	1565.603	1188.569
143.614	13.994	1564.402	1187.464
144.629	14.107	1562.918	1187.041
145.643	14.084	1561.622	1185.787
146.658	14.104	1560.181	1184.726
147.673	14.027	1558.326	1182.670
148.687	14.001	1557.273	1181.581
149.702	14.001	1555.896	1180.431
150.716	14.027	1554.392	1179.367
151.731	13.980	1552.832	1177.749
152.746	14.052	1551.468	1177.121
153.760	13.993	1549.694	1175.250
154.775	13.972	1548.686	1174.235
155.789	14.061	1547.333	1173.731
156.804	14.059	1546.150	1172.721
157.819	14.057	1544.664	1171.475
158.833	14.186	1543.759	1171.589
159.848	14.231	1542.668	1170.975
160.862	14.199	1541.192	1169.527
161.877	14.229	1539.860	1168.624
162.892	14.177	1538.681	1167.258
163.906	14.217	1537.241	1166.344
164.921	14.149	1536.303	1165.052
165.935	14.148	1535.118	1164.043
166.950	14.148	1534.182	1163.233
167.964	14.163	1532.891	1162.253
168.979	14.119	1532.336	1161.423
169.994	14.173	1530.622	1160.397
171.008	14.100	1529.788	1159.159
172.023	14.158	1528.994	1158.857
173.037	14.281	1527.420	1158.420
174.052	14.320	1525.723	1157.301
175.067	14.404	1524.929	1157.177
176.081	14.279	1523.950	1155.464
177.096	14.226	1522.739	1154.079
178.110	14.237	1521.448	1153.070
179.125	14.282	1520.212	1152.346
180.140	14.252	1519.381	1151.406
181.154	14.282	1518.133	1150.568
182.169	14.332	1517.076	1150.007
183.183	14.287	1516.051	1148.817
184.198	14.349	1514.516	1147.982
185.213	14.453	1513.493	1147.818
186.227	14.418	1512.759	1146.917
187.242	14.429	1511.536	1145.971
188.256	14.450	1510.126	1144.941
189.271	14.442	1509.401	1144.233
190.286	14.484	1508.451	1143.701
191.300	14.456	1507.328	1142.555
192.315	14.430	1505.659	1141.015
193.329	14.373	1504.572	1139.702
194.344	14.346	1503.454	1138.569
195.359	14.362	1502.566	1137.901
196.373	14.333	1501.885	1137.089
197.388	14.413	1500.483	1136.469
198.402	14.469	1499.345	1135.894
199.417	14.493	1498.091	1135.002
200.432	14.672	1496.874	1135.199
201.446	14.563	1496.036	1133.721
202.461	14.641	1494.915	1133.302
203.475	14.689	1493.677	1132.587
204.490	14.695	1492.417	1131.576
205.504	14.644	1491.554	1130.472
206.519	14.626	1490.426	1129.396
207.534	14.661	1489.488	1128.825
208.548	14.579	1488.304	1127.273
209.563	14.609	1487.152	1126.504
210.577	14.751	1485.926	1126.432
211.592	14.555	1485.685	1124.831
212.607	14.594	1484.673	1124.226
213.621	14.775	1483.636	1124.556
214.636	14.807	1482.535	1123.842
215.650	14.811	1481.268	1122.808
216.665	14.838	1480.005	1121.933
217.680	14.756	1479.787	1121.113
218.694	14.880	1478.909	1121.183
219.709	14.881	1478.022	1120.418
220.723	14.866	1477.157	1119.563
221.738	14.839	1476.339	1118.664
222.753	14.860	1475.125	1117.785
223.767	14.890	1473.944	1116.995
224.782	14.884	1473.004	1116.141
225.796	14.895	1472.028	1115.375
226.811	14.871	1471.346	1114.597
227.826	14.952	1470.361	1114.296
228.840	14.928	1469.724	1113.551
229.855	15.050	1468.693	1113.488
230.869	14.906	1467.815	1111.765
231.884	14.986	1466.363	1111.099
232.899	14.946	1465.584	1110.140
233.913	15.067	1464.128	1109.746
234.928	14.980	1462.463	1107.811
235.942	15.044	1461.929	1107.725
236.957	15.005	1460.998	1106.669
237.972	14.953	1459.855	1105.363
238.986	14.992	1458.280	1104.327
240.001	14.967	1457.609	1103.554
241.015	15.041	1456.442	1103.061
242.030	15.063	1455.410	1102.326
243.045	15.092	1454.372	1101.636
244.059	15.115	1453.133	1100.751
245.074	15.038	1452.969	1100.021
246.088	15.142	1451.827	1099.742
247.103	15.172	1451.167	1099.345
248.117	15.220	1450.177	1098.809
249.132	15.208	1449.285	1097.957
250.147	15.197	1448.657	1097.317
251.161	15.295	1448.154	1097.477
252.176	15.400	1447.515	1097.580
253.190	15.345	1446.749	1096.549
254.205	15.397	1445.534	1095.865
255.220	15.369	1444.469	1094.783
256.234	15.468	1443.857	1094.868
257.249	15.537	1442.842	1094.449
258.263	15.542	1442.292	1093.969
259.278	15.484	1441.230	1092.690
260.293	15.633	1439.276	1092.075
261.307	15.563	1439.391	1091.614
262.322	15.563	1438.540	1090.870
263.336	15.665	1437.674	1090.782
264.351	15.636	1436.408	1089.536
265.366	15.533	1435.542	1088.114
266.380	15.660	1434.674	1088.183
267.395	15.685	1433.636	1087.461
268.409	15.695	1432.436	1086.519
269.424	15.673	1431.757	1085.765
270.439	15.768	1430.340	1085.208
271.453	15.644	1430.058	1084.098
272.468	15.736	1428.814	1083.650
273.482	15.659	1428.326	1082.690
274.497	15.718	1427.493	1082.344
275.512	15.744	1426.109	1081.362
276.526	15.742	1425.499	1080.791
277.541	15.729	1424.421	1079.795
278.555	15.633	1423.982	1078.750
279.570	15.699	1423.165	1078.465
280.585	15.834	1421.665	1078.092
281.599	15.793	1421.131	1077.329
282.614	15.810	1420.175	1076.619
283.628	15.818	1419.030	1075.706
284.643	15.811	1417.806	1074.642
285.657	15.932	1416.654	1074.442
286.672	15.960	1415.931	1073.979
287.687	15.938	1414.764	1072.861
288.701	15.873	1414.127	1071.867
289.716	15.914	1413.449	1071.521
290.730	15.905	1412.239	1070.453
291.745	15.975	1411.219	1070.027
292.760	15.950	1410.616	1069.318
293.774	15.956	1410.134	1068.892
294.789	16.032	1408.495	1068.041
295.803	16.063	1407.974	1067.745
296.818	16.124	1406.723	1067.090
297.833	16.095	1405.483	1065.868
298.847	16.086	1404.908	1065.280
299.862	16.072	1404.009	1064.418
300.876	16.100	1403.040	1063.767
301.891	16.025	1402.151	1062.526
302.906	16.167	1401.541	1062.866
303.920	16.169	1400.689	1062.134
304.935	16.207	1400.145	1061.867
305.949	16.246	1398.477	1060.754
306.964	16.161	1398.359	1060.040
307.979	16.256	1397.130	1059.610
308.993	16.257	1396.053	1058.705
310.008	16.265	1395.189	1058.004
311.022	16.261	1393.882	1056.899
312.037	16.341	1392.953	1056.595
313.052	16.252	1392.389	1055.523
314.066	16.433	1390.906	1055.433
315.081	16.347	1389.780	1053.951
316.095	16.414	1388.961	1053.651
317.110	16.412	1387.898	1052.742
318.125	16.354	1386.814	1051.467
319.139	16.258	1386.294	1050.380
320.154	16.268	1385.444	1049.706
321.168	16.293	1384.317	1048.913
322.183	16.289	1383.505	1048.182
323.197	16.409	1382.345	1047.950
324.212	16.388	1381.514	1047.099
325.227	16.391	1380.872	1046.541
326.241	16.371	1379.917	1045.600
327.256	16.429	1378.899	1045.095
328.270	16.421	1378.092	1044.343
329.285	16.471	1377.225	1043.898
330.300	16.460	1376.209	1042.970
331.314	16.501	1375.106	1042.295
332.329	16.476	1374.351	1041.473
333.343	16.487	1373.600	1040.883
334.358	16.524	1372.374	1040.091
335.373	16.571	1371.834	1039.879
336.387	16.677	1370.749	1039.614
337.402	16.661	1370.066	1038.906
338.416	16.565	1369.326	1037.664
339.431	16.609	1368.957	1037.559
340.446	16.685	1368.120	1037.297
341.460	16.747	1366.592	1036.431
342.475	16.721	1365.864	1035.629
343.489	16.770	1365.070	1035.230
344.504	16.764	1364.322	1034.539
345.519	16.794	1363.499	1034.003
346.533	16.866	1362.050	1033.253
347.548	16.837	1361.555	1032.612
348.562	16.766	1360.815	1031.524
349.577	16.924	1359.608	1031.478
350.592	16.852	1358.613	1030.193
351.606	16.883	1358.075	1029.883
352.621	16.851	1356.949	1028.744
353.635	16.860	1356.055	1028.029
354.650	16.835	1354.931	1026.935
355.665	16.787	1354.408	1026.157
356.679	16.860	1352.906	1025.372
357.694	16.919	1351.656	1024.692
358.708	16.890	1350.668	1023.674
359.723	16.942	1349.618	1023.102
360.738	16.869	1348.930	1022.051
361.752	16.895	1347.855	1021.303
362.767	16.995	1346.459	1020.754
363.781	17.113	1345.466	1020.624
364.796	17.013	1344.888	1019.494
365.810	17.041	1344.151	1019.013
366.825	17.058	1343.683	1018.668
367.840	17.128	1342.628	1018.201
368.854	17.143	1341.789	1017.564
369.869	17.158	1341.671	1017.474
370.883	17.208	1340.803	1017.022
371.898	17.150	1340.553	1016.399
372.913	17.151	1339.033	1015.159
373.927	17.185	1337.885	1014.406
374.942	17.321	1336.946	1014.413
375.956	17.213	1336.407	1013.268
376.971	17.254	1335.608	1012.819
377.986	17.257	1335.275	1012.493
379.000	17.266	1333.770	1011.317
380.015	17.315	1333.131	1011.037
381.029	17.327	1332.553	1010.580
382.044	17.419	1331.667	1010.361
383.059	17.365	1331.044	1009.478
384.073	17.452	1330.034	1009.143
385.088	17.457	1329.739	1008.857
386.102	17.440	1329.327	1008.356
387.117	17.410	1328.133	1007.183
388.132	17.481	1327.132	1006.753
389.146	17.479	1326.395	1006.095
390.161	17.463	1325.376	1005.139
391.175	17.367	1325.123	1004.290
392.190	17.527	1324.179	1004.433
393.205	17.490	1323.613	1003.695
394.219	17.515	1322.157	1002.647
395.234	17.478	1321.284	1001.681
396.248	17.560	1319.638	1000.826
397.263	17.597	1318.217	999.875
398.278	17.526	1316.954	998.416
399.292	17.638	1315.594	997.947
400.307	17.566	1314.924	996.933
401.321	17.515	1313.898	995.768
402.336	17.631	1312.779	995.511
403.350	17.607	1311.893	994.610
404.365	17.547	1310.681	993.251
405.380	17.664	1310.194	993.477
406.394	17.754	1309.373	993.290
407.409	17.710	1308.588	992.352
408.423	17.635	1308.157	991.502
409.438	17.678	1307.202	990.941
410.453	17.820	1305.938	990.718
411.467	17.776	1305.687	990.185
412.482	17.759	1305.460	989.826
413.496	17.839	1304.374	989.378
414.511	17.828	1303.826	988.810
415.526	17.868	1303.210	988.487
416.540	17.888	1302.233	987.775
417.555	17.914	1301.590	987.352
418.569	17.990	1301.128	987.355
419.584	17.853	1300.411	985.930
420.599	17.908	1299.612	985.555
421.613	94.198	1352.994	1461.817
422.628	92.701	1360.732	1461.947
