DTS Sentinel unit serial number:	SN413079Multiplexer serial number:	ORYXHardware model number:	OX4-SRSoftware version number:	ORYX F/W v4.00 Oryx Data Collector v3.7.2.0data status	okinstallation	princeton_trtdifferential loss correction	single-endedforward channel	channel 4reverse channel	N/Adate	2019/09/19time	05:21:35forward acquisition time	60.00reverse acquisition time	0.00gamma	496.2192k internal	0.2340k external	0.2340temperature offset calibration	1.0028default loss term (dB/km)	0.3790temperature slope calibration	1.0000multiplexer offset coefficient	1.0000multiplexer slope coefficient	1.0000fibre end	0.00T internal ref (°C)	19.44T ext. ref 1 (°C)	0.59T ext. ref 2 (°C)	12.94length (m)	temperature (°C)	Stokes	anti-Stokes-747.200	-131.768	-0.128	0.017
-746.185	308.677	0.102	-0.191
-745.171	-86.988	0.095	-0.029
-744.156	194.731	-0.190	0.288
-743.142	-200.000	-0.033	0.298
-742.127	785.062	-0.062	0.171
-741.112	25.980	0.132	0.110
-740.098	-3.834	-0.021	0.015
-739.083	69.771	0.129	-0.133
-738.069	294.037	-0.085	0.156
-737.054	-66.993	0.153	-0.060
-736.039	-200.000	-0.024	-0.146
-735.025	800.000	0.102	0.351
-734.010	800.000	-0.048	-0.156
-732.996	-96.831	-0.164	0.043
-731.981	-200.000	-0.005	-0.297
-730.966	-148.975	-0.244	-0.020
-729.952	407.002	-0.189	-0.401
-728.937	-98.079	-0.263	0.068
-727.923	-200.000	-0.034	0.312
-726.908	-106.703	-0.659	0.147
-725.894	800.000	0.016	-0.062
-724.879	76.523	-0.077	0.082
-723.864	-74.677	0.135	0.049
-722.850	-131.890	-0.111	-0.015
-721.835	800.000	-0.021	-0.071
-720.821	-46.510	-0.085	0.042
-719.806	-99.967	-0.021	-0.005
-718.791	-25.725	-0.300	-0.177
-717.777	-63.329	-0.092	-0.038
-716.762	716.870	0.045	0.119
-715.748	-142.977	-0.377	-0.037
-714.733	-118.932	0.070	0.012
-713.718	28.864	-0.101	-0.085
-712.704	152.503	0.280	-0.383
-711.689	49.019	-0.276	0.259
-710.675	-74.041	-0.141	-0.051
-709.660	-122.582	-0.409	-0.067
-708.645	800.000	0.028	-0.098
-707.631	48.449	-0.128	-0.120
-706.616	174.602	-0.170	0.246
-705.602	-200.000	-0.020	-0.198
-704.587	-46.362	0.193	-0.095
-703.572	-83.841	0.296	0.095
-702.558	800.000	0.074	0.265
-701.543	-63.055	0.454	0.188
-700.529	-200.000	-0.086	-0.384
-699.514	21.959	-0.163	-0.133
-698.499	387.214	-0.124	0.256
-697.485	-1.810	-0.432	0.304
-696.470	-200.000	-0.022	-0.254
-695.456	-200.000	-0.007	0.067
-694.441	-87.452	-0.194	-0.059
-693.426	800.000	-0.097	0.331
-692.412	163.555	-0.091	-0.128
-691.397	359.039	-0.109	0.218
-690.383	-80.732	-0.148	-0.049
-689.368	28.922	-0.081	-0.068
-688.354	-200.000	0.122	-0.609
-687.339	281.005	0.124	-0.222
-686.324	255.586	0.074	-0.127
-685.310	-200.000	0.014	0.200
-684.295	665.387	-0.060	0.155
-683.281	-116.845	0.195	0.036
-682.266	249.048	-0.162	-0.274
-681.251	-85.927	0.146	0.045
-680.237	39.015	0.020	-0.018
-679.222	-200.000	-0.040	0.182
-678.208	-20.439	0.092	0.057
-677.193	24.682	-0.116	0.096
-676.178	-83.404	-0.045	0.014
-675.164	144.822	0.117	0.156
-674.149	179.967	0.035	-0.051
-673.135	60.765	0.119	-0.118
-672.120	37.444	0.192	-0.170
-671.105	-200.000	0.022	-0.239
-670.091	800.000	-0.029	0.089
-669.076	-200.000	0.026	0.207
-668.062	-17.615	-0.358	-0.225
-667.047	-106.797	0.141	0.031
-666.032	-200.000	0.054	-0.278
-665.018	-109.850	0.129	0.027
-664.003	56.570	-0.124	-0.120
-662.989	-187.165	-0.115	-0.002
-661.974	-150.472	-0.259	-0.020
-660.959	9.315	-0.112	-0.084
-659.945	-170.482	0.226	0.008
-658.930	-32.743	0.236	-0.131
-657.916	133.202	-0.131	-0.170
-656.901	179.672	-0.065	0.095
-655.886	-200.000	0.023	0.251
-654.872	340.970	0.060	-0.117
-653.857	112.888	-0.148	-0.179
-652.843	582.804	0.078	-0.192
-651.828	-54.574	-0.222	-0.100
-650.814	800.000	0.035	-0.133
-649.799	53.744	-0.193	-0.185
-648.784	-200.000	-0.002	-0.169
-647.770	343.577	0.223	-0.437
-646.755	-132.326	0.053	0.007
-645.741	5.510	0.352	-0.259
-644.726	-154.043	-0.270	0.018
-643.711	-200.000	-0.008	0.147
-642.697	-102.838	-0.208	-0.049
-641.682	-35.713	-0.138	-0.075
-640.668	73.996	0.068	0.071
-639.653	-200.000	-0.007	0.232
-638.638	65.293	-0.139	0.140
-637.624	586.180	-0.044	-0.108
-636.609	105.704	-0.210	-0.248
-635.595	273.849	0.063	0.110
-634.580	-25.262	0.134	-0.079
-633.565	-200.000	-0.014	-0.180
-632.551	57.097	-0.111	0.108
-631.536	-62.937	-0.109	0.045
-630.522	78.174	-0.064	0.068
-629.507	-200.000	0.019	0.193
-628.492	-77.312	-0.289	0.100
-627.478	307.994	-0.141	-0.262
-626.463	45.627	-0.167	0.154
-625.449	152.791	-0.239	-0.326
-624.434	328.064	-0.093	-0.178
-623.419	-3.611	-0.318	-0.220
-622.405	800.000	0.063	-0.245
-621.390	800.000	0.042	0.163
-620.376	120.426	-0.078	0.096
-619.361	561.039	-0.016	-0.039
-618.346	485.305	-0.125	-0.285
-617.332	113.656	0.114	0.138
-616.317	-52.946	-0.635	-0.291
-615.303	-109.804	0.275	-0.058
-614.288	-92.756	0.281	0.078
-613.273	-44.592	-0.205	-0.102
-612.259	-148.602	0.274	0.022
-611.244	-7.703	0.145	0.098
-610.230	-129.024	0.098	-0.014
-609.215	97.348	-0.279	0.320
-608.201	800.000	-0.050	0.186
-607.186	-52.946	0.186	-0.086
-606.171	-200.000	-0.024	0.275
-605.157	458.938	-0.122	-0.271
-604.142	-200.000	0.024	-0.236
-603.128	-85.117	-0.257	-0.080
-602.113	730.707	-0.034	0.090
-601.098	34.640	0.044	-0.038
-600.084	69.431	0.050	-0.052
-599.069	-41.759	-0.484	-0.248
-598.055	181.206	0.114	0.167
-597.040	157.925	0.090	0.124
-596.025	-26.763	-0.059	0.034
-595.011	-81.140	-0.185	-0.061
-593.996	-82.534	0.308	0.100
-592.982	286.838	0.163	-0.293
-591.967	494.518	-0.066	0.152
-590.952	59.354	-0.156	-0.153
-589.938	51.784	0.130	0.123
-588.923	-200.000	-0.058	-0.267
-587.909	218.101	-0.085	0.135
-586.894	700.409	-0.187	-0.492
-585.879	139.193	-0.265	-0.347
-584.865	324.073	0.187	0.356
-583.850	-121.976	0.142	0.023
-582.836	83.317	0.150	-0.163
-581.821	131.464	-0.104	-0.134
-580.806	79.370	0.242	0.258
-579.792	534.798	0.166	0.393
-578.777	246.836	-0.146	-0.246
-577.763	-200.000	0.020	0.106
-576.748	27.184	0.157	0.132
-575.733	-109.253	-0.140	-0.030
-574.719	362.966	0.083	0.167
-573.704	511.025	0.075	-0.174
-572.690	108.258	-0.076	-0.090
-571.675	-54.601	-0.115	0.052
-570.661	-175.461	0.054	-0.001
-569.646	800.000	0.031	0.112
-568.631	-162.563	-0.136	0.007
-567.617	-200.000	0.032	0.191
-566.602	96.206	-0.090	0.103
-565.588	73.871	-0.146	-0.152
-564.573	-56.347	0.189	-0.084
-563.558	-32.891	-0.015	-0.008
-562.544	-200.000	-0.023	0.246
-561.529	-145.936	-0.115	-0.010
-560.515	178.823	-0.139	0.203
-559.500	350.161	0.108	-0.212
-558.485	-149.740	0.083	-0.007
-557.471	-56.269	-0.106	0.047
-556.456	800.000	0.056	0.216
-555.442	-120.724	0.380	0.064
-554.427	-45.207	-0.176	-0.087
-553.412	201.675	0.047	-0.072
-552.398	-148.023	0.225	0.019
-551.383	-0.586	0.049	-0.035
-550.369	-92.525	-0.159	-0.044
-549.354	800.000	-0.091	-0.329
-548.339	-200.000	-0.066	-0.299
-547.325	-200.000	-0.029	-0.520
-546.310	285.862	0.079	-0.142
-545.296	485.104	0.044	-0.099
-544.281	25.991	0.111	0.092
-543.266	-200.000	-0.023	0.104
-542.252	-120.281	-0.237	0.040
-541.237	-27.826	0.228	0.131
-540.223	226.483	-0.036	-0.058
-539.208	263.280	0.098	0.169
-538.193	116.132	0.074	0.090
-537.179	481.919	0.084	-0.189
-536.164	-200.000	-0.027	0.125
-535.150	-101.182	0.248	-0.060
-534.135	-200.000	-0.006	-0.196
-533.121	67.243	-0.130	-0.131
-532.106	800.000	0.055	0.217
-531.091	-153.873	-0.470	-0.032
-530.077	-12.037	-0.099	0.064
-529.062	47.581	-0.087	0.081
-528.048	-200.000	-0.020	0.335
-527.033	202.480	-0.089	-0.136
-526.018	-59.723	0.033	0.014
-525.004	554.703	-0.117	0.280
-523.989	800.000	-0.073	0.258
-522.975	159.380	0.053	-0.073
-521.960	-200.000	0.047	-0.250
-520.945	11.388	-0.240	-0.183
-519.931	16.880	0.082	0.065
-518.916	220.804	-0.160	0.255
-517.902	-200.000	-0.023	-0.167
-516.887	193.614	-0.076	0.114
-515.872	-19.808	-0.239	0.147
-514.858	-114.896	0.087	0.017
-513.843	333.425	0.030	-0.058
-512.829	-45.785	0.142	-0.070
-511.814	-90.687	0.178	0.051
-510.799	223.804	-0.027	-0.043
-509.785	55.836	0.133	-0.128
-508.770	-69.942	0.225	0.085
-507.756	-137.829	-0.140	-0.016
-506.741	-78.372	0.095	-0.032
-505.726	-200.000	-0.015	0.104
-504.712	-22.346	0.288	0.173
-503.697	-115.614	-0.316	-0.059
-502.683	313.845	0.069	0.128
-501.668	19.278	-0.222	0.177
-500.653	800.000	0.061	-0.181
-499.639	-200.000	0.029	-0.243
-498.624	-71.781	-0.185	-0.068
-497.610	-22.577	0.159	0.095
-496.595	-200.000	0.073	-0.519
-495.581	-107.835	0.118	0.026
-494.566	-10.313	-0.203	0.134
-493.551	366.012	-0.122	0.243
-492.537	800.000	0.125	-0.422
-491.522	-10.456	0.119	-0.078
-490.508	222.355	0.271	0.434
-489.493	-200.000	0.130	0.570
-488.478	800.000	-0.023	0.087
-487.464	137.485	-0.233	-0.303
-486.449	-17.893	0.107	-0.067
-485.435	-60.551	-0.179	-0.076
-484.420	68.487	0.211	-0.215
-483.405	-110.927	-0.530	-0.108
-482.391	-200.000	0.008	-0.116
-481.376	-139.153	0.233	0.025
-480.362	81.627	0.074	-0.080
-479.347	77.132	-0.068	-0.071
-478.332	-111.701	0.141	-0.028
-477.318	43.642	-0.085	0.077
-476.303	-200.000	-0.012	-0.073
-475.289	800.000	-0.046	-0.130
-474.274	-86.755	-0.346	-0.105
-473.259	31.954	-0.129	-0.110
-472.245	-200.000	-0.020	0.239
-471.230	77.243	0.253	0.267
-470.216	-20.673	0.187	0.114
-469.201	-188.916	0.113	0.001
-468.186	-200.000	0.068	-0.312
-467.172	500.201	-0.057	-0.130
-466.157	-200.000	-0.013	0.103
-465.143	113.327	-0.101	-0.121
-464.128	-200.000	-0.033	-0.457
-463.113	260.975	0.069	-0.118
-462.099	375.860	0.040	0.081
-461.084	199.603	0.067	-0.102
-460.070	-195.752	-0.178	-0.001
-459.055	54.949	-0.101	-0.097
-458.040	9.893	-0.160	0.120
-457.026	-156.996	0.337	-0.020
-456.011	99.216	0.171	-0.196
-454.997	122.098	-0.271	-0.336
-453.982	228.348	0.130	0.211
-452.968	74.688	0.138	-0.144
-451.953	800.000	-0.107	-0.299
-450.938	456.791	-0.072	-0.158
-449.924	59.164	0.134	-0.131
-448.909	313.239	0.055	-0.103
-447.895	554.041	0.041	0.098
-446.880	95.948	0.139	-0.158
-445.865	-60.202	-0.190	-0.080
-444.851	84.321	-0.190	-0.206
-443.836	800.000	0.045	-0.175
-442.822	-60.430	0.366	-0.154
-441.807	723.106	-0.156	0.412
-440.792	445.909	-0.137	-0.299
-439.778	568.929	-0.023	0.056
-438.763	-42.863	-0.237	0.119
-437.749	-96.200	0.259	-0.068
-436.734	-47.098	-0.074	0.036
-435.719	-38.755	-0.138	-0.072
-434.705	-173.859	0.308	-0.009
-433.690	359.800	-0.050	0.099
-432.676	8.748	-0.407	-0.304
-431.661	-147.436	0.091	0.008
-430.646	-116.337	-0.295	0.054
-429.632	-200.000	-0.007	0.193
-428.617	99.993	0.335	-0.385
-427.603	-200.000	0.003	-0.227
-426.588	800.000	-0.070	0.201
-425.573	800.000	0.052	-0.206
-424.559	-200.000	-0.074	0.480
-423.544	118.350	0.163	0.199
-422.530	218.959	-0.042	-0.066
-421.515	-78.936	-0.154	-0.052
-420.500	-154.757	0.077	0.005
-419.486	800.000	0.097	0.327
-418.471	-167.426	-0.381	-0.015
-417.457	67.005	0.189	0.191
-416.442	-81.419	0.259	0.085
-415.428	5.356	-0.239	-0.175
-414.413	800.000	0.107	0.299
-413.398	800.000	0.072	-0.291
-412.384	-200.000	0.021	0.138
-411.369	462.871	-0.133	0.294
-410.355	44.958	0.284	0.258
-409.340	-76.028	0.277	-0.097
-408.325	-111.562	-0.153	0.031
-407.311	64.121	-0.096	0.096
-406.296	331.297	0.125	0.238
-405.282	-66.388	-0.091	0.036
-404.267	-26.926	-0.083	0.048
-403.252	-200.000	0.036	-0.261
-402.238	-42.346	-0.320	0.162
-401.223	-200.000	0.000	0.211
-400.209	478.215	0.114	0.256
-399.194	3.332	-0.175	-0.126
-398.179	-200.000	0.010	-0.088
-397.165	-200.000	0.022	0.166
-396.150	269.910	-0.102	-0.177
-395.136	138.421	0.100	-0.130
-394.121	451.240	-0.086	-0.188
-393.106	-102.520	-0.021	0.005
-392.092	520.363	0.088	0.203
-391.077	-66.124	0.208	0.082
-390.063	800.000	-0.012	0.049
-389.048	-106.501	-0.243	-0.054
-388.033	-200.000	-0.027	-0.477
-387.019	131.386	-0.171	0.217
-386.004	387.857	-0.073	0.150
-384.990	-200.000	0.184	-0.000
-383.975	319.976	0.152	0.285
-382.960	557.999	-0.076	0.181
-381.946	62.288	0.407	0.402
-380.931	-12.747	0.074	-0.048
-379.917	-62.820	-0.359	0.147
-378.902	764.423	-0.040	-0.106
-377.888	209.370	-0.133	-0.206
-376.873	-127.873	0.164	-0.023
-375.858	154.439	-0.046	-0.062
-374.844	163.834	0.087	0.121
-373.829	-143.896	0.346	0.032
-372.815	800.000	-0.083	0.318
-371.800	84.204	-0.197	-0.212
-370.785	-200.000	-0.003	0.200
-369.771	156.874	0.063	-0.086
-368.756	-200.000	0.019	-0.301
-367.742	800.000	0.066	-0.257
-366.727	800.000	0.047	-0.183
-365.712	-22.283	0.209	-0.125
-364.698	121.695	-0.067	-0.083
-363.683	-160.339	0.126	0.007
-362.669	131.612	-0.206	-0.262
-361.654	-156.442	-0.378	-0.023
-360.639	68.404	-0.062	0.063
-359.625	350.246	0.130	0.253
-358.610	169.771	-0.187	0.265
-357.596	-100.096	0.160	-0.039
-356.581	225.456	-0.122	-0.195
-355.566	-103.667	-0.113	0.026
-354.552	487.257	0.177	-0.398
-353.537	-80.599	-0.126	0.042
-352.523	800.000	0.036	0.103
-351.508	-44.690	-0.275	-0.136
-350.493	4.743	0.227	-0.165
-349.479	313.687	0.132	0.244
-348.464	-200.000	0.001	0.037
-347.450	-44.592	-0.108	0.053
-346.435	-200.000	0.051	-0.262
-345.420	-200.000	-0.044	-0.320
-344.406	-200.000	-0.019	-0.304
-343.391	-200.000	0.015	0.187
-342.377	52.048	0.288	0.271
-341.362	-200.000	0.012	0.274
-340.348	765.975	-0.056	0.151
-339.333	-200.000	-0.040	-0.220
-338.318	-5.154	0.329	-0.223
-337.304	-150.269	0.187	-0.014
-336.289	-87.073	-0.230	-0.069
-335.275	-119.386	0.254	0.044
-334.260	129.238	0.215	0.270
-333.245	95.632	-0.025	0.028
-332.231	-112.905	-0.195	-0.038
-331.216	293.363	0.076	-0.136
-330.202	-5.810	-0.220	-0.148
-329.187	-136.002	0.146	0.017
-328.172	-200.000	0.025	0.133
-327.158	-130.944	0.170	-0.022
-326.143	-200.000	-0.039	0.190
-325.129	-94.628	-0.133	0.036
-324.114	800.000	-0.087	0.268
-323.099	73.581	0.136	0.140
-322.085	-200.000	-0.029	-0.180
-321.070	800.000	0.218	-0.607
-320.056	431.195	0.170	0.364
-319.041	611.593	-0.028	0.068
-318.026	800.000	-0.037	-0.125
-317.012	-131.936	0.194	-0.025
-315.997	-19.092	0.133	-0.082
-314.983	-27.011	0.110	-0.063
-313.968	-83.219	0.115	0.036
-312.953	800.000	-0.061	-0.209
-311.939	181.461	-0.149	-0.217
-310.924	745.148	-0.028	0.075
-309.910	-200.000	-0.010	0.368
-308.895	800.000	-0.048	-0.137
-307.880	-200.000	0.021	0.287
-306.866	-111.890	0.259	0.051
-305.851	325.330	0.140	0.264
-304.837	-74.677	-0.346	0.123
-303.822	-200.000	0.003	0.150
-302.807	-200.000	0.020	0.172
-301.793	122.412	0.141	0.174
-300.778	77.480	-0.428	0.449
-299.764	31.219	-0.141	0.119
-298.749	-148.611	0.174	0.014
-297.735	-92.248	-0.207	-0.058
-296.720	33.675	-0.262	-0.224
-295.705	-200.000	-0.016	-0.137
-294.691	-57.324	-0.340	0.147
-293.676	205.429	-0.129	0.198
-292.662	-136.652	0.103	-0.012
-291.647	608.835	-0.061	0.149
-290.632	-151.357	-0.388	0.028
-289.618	-200.000	-0.007	0.057
-288.603	-72.435	0.108	0.039
-287.589	800.000	0.031	-0.093
-286.574	-134.072	-0.109	0.013
-285.559	-68.192	-0.169	0.065
-284.545	498.275	0.123	0.279
-283.530	-18.577	-0.065	0.040
-282.516	544.524	-0.110	-0.260
-281.501	-10.474	0.507	0.331
-280.486	37.098	-0.043	0.037
-279.472	-200.000	0.022	0.141
-278.457	138.546	0.160	0.207
-277.443	325.928	0.069	-0.130
-276.428	431.339	0.023	0.048
-275.413	762.088	-0.140	-0.374
-274.399	-97.280	0.120	-0.031
-273.384	-200.000	0.005	0.165
-272.370	800.000	0.026	-0.109
-271.355	125.042	0.065	-0.080
-270.340	274.586	-0.059	-0.104
-269.326	-48.729	-0.124	-0.059
-268.311	15.935	0.077	-0.060
-267.297	-97.742	-0.058	0.015
-266.282	-30.736	0.288	0.160
-265.267	-87.088	-0.248	0.074
-264.253	-52.613	0.166	-0.075
-263.238	30.765	-0.214	0.181
-262.224	-42.876	-0.288	-0.144
-261.209	679.834	-0.125	-0.320
-260.195	329.436	0.079	0.150
-259.180	15.564	-0.061	0.047
-258.165	-200.000	-0.000	-0.250
-257.151	-96.876	-0.463	-0.119
-256.136	-77.058	0.067	0.023
-255.122	-14.808	-0.087	0.055
-254.107	46.395	0.091	-0.083
-253.092	252.683	0.101	-0.169
-252.078	45.703	-0.182	0.166
-251.063	-96.595	0.519	-0.134
-250.049	7.683	0.103	-0.076
-249.034	-179.713	-0.004	0.000
-248.019	-200.000	-0.025	0.195
-247.005	-58.929	0.145	-0.061
-245.990	37.710	0.084	0.073
-244.976	800.000	0.051	-0.190
-243.961	-200.000	-0.014	-0.072
-242.946	543.529	0.064	0.150
-241.932	-200.000	-0.027	0.326
-240.917	378.122	-0.210	0.421
-239.903	-153.299	0.357	-0.024
-238.888	-98.893	0.265	0.066
-237.873	-96.666	0.023	0.006
-236.859	-23.170	-0.131	-0.077
-235.844	375.974	-0.174	-0.349
-234.830	-137.712	0.010	-0.001
-233.815	-97.677	0.515	-0.131
-232.800	-200.000	-0.002	-0.272
-231.786	472.868	0.208	0.461
-230.771	515.889	-0.045	0.102
-229.757	800.000	-0.015	0.047
-228.742	-200.000	0.023	-0.189
-227.727	-11.699	0.595	-0.384
-226.713	-120.492	-0.184	0.031
-225.698	-75.446	0.382	-0.134
-224.684	-200.000	0.033	0.224
-223.669	800.000	0.062	0.229
-222.655	800.000	-0.103	-0.307
-221.640	-125.994	0.263	-0.039
-220.625	-74.272	-0.068	0.024
-219.611	94.111	-0.089	-0.099
-218.596	183.424	-0.253	-0.368
-217.582	38.692	0.271	-0.238
-216.567	800.000	-0.036	-0.114
-215.552	136.899	-0.200	0.256
-214.538	152.419	0.173	-0.232
-213.523	264.259	-0.189	-0.323
-212.509	12.199	0.208	-0.158
-211.494	800.000	0.034	0.093
-210.479	-98.281	0.497	0.125
-209.465	-200.000	0.030	0.400
-208.450	-28.266	0.173	0.098
-207.436	269.809	0.081	0.140
-206.421	-200.000	-0.059	0.308
-205.406	800.000	-0.070	-0.193
-204.392	63.543	-0.197	-0.194
-203.377	590.872	0.133	-0.322
-202.363	800.000	-0.031	0.131
-201.348	-76.866	0.078	-0.027
-200.333	-123.610	0.278	0.043
-199.319	-200.000	0.014	0.245
-198.304	-200.000	0.014	0.096
-197.290	-69.857	-0.164	-0.062
-196.275	800.000	0.043	0.154
-195.260	-170.377	-0.212	0.007
-194.246	-200.000	-0.048	-0.205
-193.231	-153.699	-0.009	0.001
-192.217	5.224	0.107	-0.077
-191.202	338.308	0.062	0.118
-190.187	-98.887	0.101	0.025
-189.173	800.000	0.095	0.339
-188.158	-200.000	0.018	0.282
-187.144	-197.726	-0.276	0.002
-186.129	-180.851	0.264	0.005
-185.114	-200.000	0.085	0.490
-184.100	-74.254	0.255	0.090
-183.085	21.007	0.170	0.135
-182.071	587.198	0.047	-0.113
-181.056	-169.265	0.058	0.002
-180.042	-16.632	0.041	0.026
-179.027	-200.000	0.009	0.264
-178.012	800.000	-0.082	0.233
-176.998	60.389	0.200	0.194
-175.983	598.165	0.162	0.395
-174.969	-75.676	-0.186	-0.065
-173.954	12.969	0.065	0.049
-172.939	-21.325	0.106	0.063
-171.925	-162.175	0.174	-0.009
-170.910	120.738	-0.130	0.158
-169.896	-111.449	-0.267	0.053
-168.881	153.998	-0.061	0.082
-167.866	-179.456	-0.259	-0.006
-166.852	433.936	0.091	0.194
-165.837	117.157	-0.060	-0.073
-164.823	606.308	0.060	0.147
-163.808	166.179	-0.093	0.130
-162.793	-80.582	-0.167	-0.054
-161.779	-138.187	-0.081	-0.009
-160.764	18.522	-0.224	0.175
-159.750	-200.000	0.011	-0.052
-158.735	50.368	0.243	0.225
-157.720	-51.998	-0.314	0.143
-156.706	324.903	-0.236	-0.442
-155.691	-200.000	0.016	0.143
-154.677	53.908	-0.142	-0.134
-153.662	-200.000	-0.006	-0.269
-152.647	-90.568	0.065	0.018
-151.633	-195.688	0.218	0.002
-150.618	49.637	-0.138	0.127
-149.604	800.000	0.119	-0.422
-148.589	-200.000	-0.020	0.111
-147.574	-159.576	-0.250	-0.014
-146.560	-68.001	0.095	0.036
-145.545	-132.600	0.298	-0.037
-144.531	800.000	0.087	-0.246
-143.516	-130.035	-0.182	-0.024
-142.502	259.764	0.119	0.201
-141.487	49.905	-0.110	-0.102
-140.472	-77.381	0.222	-0.076
-139.458	-82.868	-0.065	-0.021
-138.443	800.000	-0.049	-0.157
-137.429	-110.396	-0.103	0.021
-136.414	577.601	0.113	0.271
-135.399	-163.023	0.071	-0.003
-134.385	-91.554	0.067	0.019
-133.370	301.179	0.026	-0.047
-132.356	-200.000	0.009	0.355
-131.341	-126.192	0.182	-0.027
-130.326	86.283	-0.209	0.225
-129.312	-156.542	0.499	-0.030
-128.297	-195.530	-0.436	0.003
-127.283	313.018	0.201	0.369
-126.268	-152.352	0.084	0.006
-125.253	-23.418	0.213	-0.125
-124.239	-21.810	0.169	0.101
-123.224	-24.834	-0.268	-0.156
-122.210	51.052	-0.052	-0.048
-121.195	-200.000	-0.011	0.072
-120.180	-31.334	0.188	-0.104
-119.166	-200.000	0.058	-0.327
-118.151	800.000	0.047	-0.196
-117.137	-46.306	-0.339	-0.163
-116.122	147.520	-0.080	-0.105
-115.107	508.658	0.137	-0.311
-114.093	-79.594	0.162	0.054
-113.078	44.357	-0.094	0.085
-112.064	-64.104	0.283	0.113
-111.049	-131.630	-0.315	0.041
-110.034	600.338	-0.077	-0.186
-109.020	103.391	0.126	0.144
-108.005	17.925	-0.275	0.214
-106.991	21.913	-0.088	-0.070
-105.976	-200.000	0.007	0.212
-104.962	-147.057	0.336	-0.028
-103.947	-12.809	-0.283	-0.180
-102.932	-200.000	0.031	0.214
-101.918	-141.983	0.116	0.011
-100.903	800.000	0.045	-0.123
-99.889	800.000	-0.033	-0.104
-98.874	-200.000	0.030	0.391
-97.859	-200.000	0.010	0.178
-96.845	-33.450	-0.176	-0.095
-95.830	-26.196	-0.257	0.148
-94.816	-112.275	-0.120	-0.024
-93.801	-22.392	-0.186	0.110
-92.786	-200.000	0.059	0.316
-91.772	-61.148	-0.282	-0.116
-90.757	-200.000	0.002	0.027
-89.743	-200.000	-0.035	0.167
-88.728	118.846	0.108	-0.130
-87.713	215.079	-0.340	-0.526
-86.699	-25.013	0.074	-0.043
-85.684	-91.847	-0.113	0.031
-84.670	467.031	0.028	-0.060
-83.655	-132.456	-0.155	0.019
-82.640	-53.051	-0.167	0.075
-81.626	-43.771	0.327	-0.161
-80.611	485.538	0.052	0.116
-79.597	-155.485	0.540	-0.034
-78.582	292.589	0.146	0.261
-77.567	-200.000	0.012	0.200
-76.553	-118.361	-0.117	0.020
-75.538	-2.029	-0.071	0.049
-74.524	800.000	-0.093	0.271
-73.509	-200.000	0.038	0.235
-72.494	735.491	0.061	0.159
-71.480	163.542	0.094	-0.130
-70.465	620.910	0.034	-0.084
-69.451	-6.288	0.286	0.191
-68.436	92.979	0.054	0.060
-67.422	-200.000	0.005	-0.138
-66.407	-147.765	0.231	-0.019
-65.392	141.609	0.121	0.156
-64.378	245.643	0.094	-0.154
-63.363	583.816	-0.018	-0.044
-62.349	-163.459	-0.171	0.008
-61.334	92.882	-1.271	-1.402
-60.319	376.103	0.632	1.259
-59.305	196.384	-0.894	-1.329
-58.290	191.993	1.046	1.539
-57.276	474.589	0.516	1.135
-56.261	-200.000	136.425	629.562
-55.246	341.445	1640.674	3129.054
-54.232	135.407	2785.211	3535.078
-53.217	74.727	2337.168	2399.963
-52.203	25.306	2087.441	1692.518
-51.188	21.042	2007.589	1588.947
-50.173	20.144	1993.960	1569.972
-49.159	37.839	2071.623	1795.877
-48.144	34.795	2081.198	1775.874
-47.130	21.361	2034.204	1612.705
-46.115	19.433	2024.176	1586.970
-45.100	19.451	2020.055	1583.838
-44.086	19.434	2018.027	1582.034
-43.071	19.271	2015.412	1578.424
-42.057	19.255	2013.394	1576.635
-41.042	19.387	2011.290	1576.134
-40.027	19.350	2009.827	1574.587
-39.013	19.350	2007.820	1572.949
-37.998	19.366	2006.244	1571.803
-36.984	19.474	2004.421	1571.292
-35.969	19.363	2002.813	1568.961
-34.954	19.467	2001.003	1568.422
-33.940	19.324	2000.022	1566.300
-32.925	19.488	1997.728	1565.927
-31.911	19.473	1996.397	1564.688
-30.896	19.493	1994.810	1563.563
-29.881	19.424	1993.206	1561.612
-28.867	19.470	1991.526	1560.652
-27.852	19.419	1989.953	1558.901
-26.838	19.545	1987.767	1558.263
-25.823	19.500	1985.942	1556.358
-24.809	19.528	1983.668	1554.767
-23.794	19.483	1982.531	1553.416
-22.779	19.418	1981.569	1552.011
-21.765	19.456	1979.524	1550.686
-20.750	19.422	1978.052	1549.169
-19.736	19.470	1976.526	1548.344
-18.721	19.496	1974.689	1547.079
-17.706	19.420	1973.062	1545.065
-16.692	19.423	1971.944	1544.151
-15.677	19.459	1969.997	1542.884
-14.663	19.493	1968.778	1542.174
-13.648	19.455	1967.633	1540.880
-12.633	19.505	1966.120	1540.082
-11.619	19.408	1965.144	1538.384
-10.604	19.369	1963.621	1536.782
-9.590	19.410	1962.466	1536.184
-8.575	19.424	1961.032	1535.131
-7.560	19.443	1959.314	1533.890
-6.546	19.384	1958.330	1532.539
-5.531	19.464	1956.698	1531.907
-4.517	19.445	1955.719	1530.913
-3.502	19.436	1954.951	1530.168
-2.487	19.458	1952.733	1528.567
-1.473	19.371	1952.907	1527.871
-0.458	19.410	1946.865	1523.434
0.556	18.056	1925.997	1493.331
1.571	13.627	1906.922	1440.006
2.586	9.806	1929.345	1423.167
3.600	8.952	1963.633	1440.665
4.615	8.977	1955.905	1435.086
5.629	7.280	1856.537	1347.645
6.644	3.084	1747.973	1235.072
7.659	0.893	1718.130	1196.573
8.673	0.611	1715.912	1192.693
9.688	0.608	1714.232	1191.396
10.702	0.622	1712.595	1190.267
11.717	0.519	1708.867	1186.762
12.731	0.814	1706.838	1187.559
13.746	4.348	1713.745	1220.087
14.761	10.965	1727.090	1281.763
15.775	15.951	1736.926	1328.363
16.790	17.065	1738.560	1338.280
17.804	16.210	1735.344	1328.961
18.819	15.244	1731.864	1318.578
19.834	14.702	1729.426	1312.347
20.848	14.419	1727.816	1308.789
21.863	14.306	1726.315	1306.650
22.877	13.996	1725.028	1303.128
23.892	13.703	1723.821	1299.801
24.907	13.618	1722.265	1297.851
25.921	13.627	1721.374	1297.134
26.936	13.626	1720.356	1296.241
27.950	13.637	1719.146	1295.308
28.965	13.655	1718.900	1295.147
29.980	13.684	1717.760	1294.396
30.994	13.717	1716.827	1293.840
32.009	13.813	1715.789	1293.692
33.023	13.905	1714.371	1293.220
34.038	13.909	1713.721	1292.650
35.053	13.886	1712.515	1291.446
36.067	13.828	1711.831	1290.366
37.082	13.755	1710.858	1288.952
38.096	13.762	1709.972	1288.226
39.111	13.766	1709.322	1287.646
40.126	13.702	1708.918	1286.733
41.140	13.784	1707.545	1286.223
42.155	13.756	1705.559	1284.398
43.169	13.583	1704.836	1282.403
44.184	13.614	1703.313	1281.379
45.199	13.597	1702.050	1280.187
46.213	13.608	1700.974	1279.344
47.228	13.616	1700.142	1278.669
48.242	13.667	1698.363	1277.613
49.257	13.738	1696.925	1276.964
50.271	13.677	1696.215	1275.847
51.286	13.715	1694.036	1274.384
52.301	13.780	1692.613	1273.707
53.315	13.722	1691.674	1272.439
54.330	13.638	1690.300	1270.646
55.344	13.708	1688.336	1269.596
56.359	13.695	1687.215	1268.542
57.374	13.625	1685.779	1266.817
58.388	13.670	1684.376	1265.993
59.403	13.541	1684.138	1264.717
60.417	13.638	1681.626	1263.456
61.432	13.549	1680.718	1261.987
62.447	13.580	1679.604	1261.270
63.461	13.578	1678.066	1259.988
64.476	13.577	1677.130	1259.172
65.490	13.610	1675.448	1258.043
66.505	13.531	1674.513	1256.629
67.520	13.559	1673.648	1256.084
68.534	13.564	1672.704	1255.305
69.549	13.586	1671.012	1254.087
70.563	13.634	1669.529	1253.231
71.578	13.615	1668.689	1252.340
72.593	13.605	1667.311	1251.120
73.607	13.574	1666.405	1250.097
74.622	13.534	1665.138	1248.732
75.636	13.519	1664.583	1248.093
76.651	13.567	1663.405	1247.461
77.666	13.453	1662.772	1246.020
78.680	13.499	1661.438	1245.259
79.695	13.488	1660.218	1244.146
80.709	13.563	1659.007	1243.696
81.724	13.522	1658.457	1242.865
82.739	13.592	1656.941	1242.143
83.753	13.570	1656.604	1241.617
84.768	13.675	1655.287	1241.305
85.782	13.602	1654.633	1240.161
86.797	13.772	1653.295	1240.314
87.812	13.718	1652.687	1239.345
88.826	13.649	1651.429	1237.775
89.841	13.724	1649.397	1236.708
90.855	13.682	1649.171	1236.110
91.870	13.724	1647.760	1235.257
92.884	13.683	1646.885	1234.191
93.899	13.777	1645.318	1233.603
94.914	13.743	1644.640	1232.735
95.928	13.811	1642.857	1231.795
96.943	13.793	1641.545	1230.569
97.957	13.887	1639.870	1229.897
98.972	13.773	1638.463	1227.894
99.987	13.767	1637.061	1226.692
101.001	13.809	1635.467	1225.696
102.016	13.810	1633.048	1223.783
103.030	13.668	1632.714	1222.374
104.045	13.708	1631.590	1221.723
105.060	13.770	1629.616	1220.592
106.074	13.728	1628.218	1219.130
107.089	13.803	1626.268	1218.106
108.103	13.672	1625.108	1216.174
109.118	13.642	1623.797	1214.859
110.133	13.633	1622.240	1213.529
111.147	13.636	1620.555	1212.182
112.162	13.597	1619.560	1211.043
113.176	13.561	1618.005	1209.508
114.191	13.711	1616.449	1209.334
115.206	13.730	1615.554	1208.693
116.220	13.617	1614.097	1206.679
117.235	13.656	1612.973	1206.013
118.249	13.640	1611.229	1204.490
119.264	13.663	1609.962	1203.596
120.279	13.661	1608.913	1202.690
121.293	13.667	1607.407	1201.504
122.308	13.687	1605.627	1200.211
123.322	13.607	1603.855	1198.205
124.337	13.550	1602.752	1196.864
125.352	13.585	1601.452	1196.041
126.366	13.594	1600.130	1195.011
127.381	13.633	1598.476	1193.948
128.395	13.604	1597.675	1193.037
129.410	13.580	1596.236	1191.682
130.424	13.565	1595.160	1190.671
131.439	13.592	1593.351	1189.403
132.454	13.703	1591.872	1188.995
133.468	13.783	1589.982	1188.051
134.483	13.711	1588.944	1186.656
135.497	13.753	1587.572	1185.827
136.512	13.713	1585.963	1184.228
137.527	13.656	1584.782	1182.835
138.541	13.702	1583.960	1182.447
139.556	13.778	1582.225	1181.588
140.570	13.823	1580.721	1180.681
141.585	13.774	1579.912	1179.623
142.600	13.802	1578.445	1178.624
143.614	13.811	1577.403	1177.804
144.629	13.819	1575.902	1176.634
145.643	13.911	1574.469	1176.113
146.658	13.947	1573.188	1175.311
147.673	13.851	1571.774	1173.467
148.687	13.937	1570.270	1172.851
149.702	13.909	1568.635	1171.327
150.716	13.818	1566.848	1169.250
151.731	13.851	1565.739	1168.550
152.746	13.852	1564.354	1167.423
153.760	13.843	1562.327	1165.743
154.775	13.893	1561.338	1165.254
155.789	13.945	1560.247	1164.701
156.804	13.983	1558.837	1163.808
157.819	13.997	1557.676	1162.936
158.833	14.028	1556.629	1162.269
159.848	14.133	1554.814	1161.546
160.862	14.130	1553.895	1160.735
161.877	14.127	1552.572	1159.624
162.892	14.043	1551.330	1158.007
163.906	14.037	1550.376	1157.150
164.921	13.940	1548.923	1155.287
165.935	14.021	1547.360	1154.583
166.950	14.012	1546.713	1153.935
167.964	14.052	1545.186	1152.969
168.979	14.016	1544.513	1152.122
169.994	14.142	1543.229	1151.932
171.008	14.174	1541.777	1150.970
172.023	14.137	1541.256	1150.218
173.037	14.080	1540.124	1148.881
174.052	14.153	1538.519	1148.084
175.067	14.192	1537.657	1147.613
176.081	14.125	1536.616	1146.270
177.096	14.105	1535.283	1145.033
178.110	14.096	1534.118	1144.006
179.125	14.106	1532.438	1142.718
180.140	14.042	1531.715	1141.639
181.154	14.149	1530.395	1141.291
182.169	14.194	1528.997	1140.452
183.183	14.278	1527.525	1139.830
184.198	14.228	1526.805	1138.851
185.213	14.252	1525.624	1138.028
186.227	14.302	1524.578	1137.489
187.242	14.340	1523.673	1136.974
188.256	14.330	1522.011	1135.566
189.271	14.291	1521.334	1134.696
190.286	14.381	1520.076	1134.272
191.300	14.362	1518.547	1132.900
192.315	14.324	1517.581	1131.819
193.329	14.295	1516.174	1130.475
194.344	14.197	1515.425	1129.147
195.359	14.218	1514.864	1128.774
196.373	14.242	1513.564	1127.871
197.388	14.269	1512.678	1127.288
198.402	14.354	1511.276	1126.725
199.417	14.412	1510.042	1126.093
200.432	14.368	1509.079	1124.977
201.446	14.467	1508.252	1124.933
202.461	14.623	1506.403	1124.502
203.475	14.493	1505.528	1122.873
204.490	14.570	1504.124	1122.246
205.504	14.629	1503.159	1121.821
206.519	14.490	1502.429	1120.249
207.534	14.522	1501.109	1119.379
208.548	14.538	1500.054	1118.600
209.563	14.620	1498.500	1117.890
210.577	14.613	1497.601	1117.077
211.592	14.617	1496.607	1116.263
212.607	14.610	1495.689	1115.434
213.621	14.603	1495.588	1115.211
214.636	14.737	1494.083	1114.885
215.650	14.635	1493.251	1113.483
216.665	14.671	1492.371	1112.969
217.680	14.623	1491.821	1112.143
218.694	14.723	1490.551	1111.758
219.709	14.753	1489.565	1111.130
220.723	14.767	1488.881	1110.608
221.738	14.755	1487.685	1109.538
222.753	14.756	1486.919	1108.876
223.767	14.741	1485.835	1107.870
224.782	14.748	1484.820	1107.065
225.796	14.782	1483.655	1106.321
226.811	14.825	1482.896	1105.942
227.826	14.907	1481.881	1105.632
228.840	14.939	1480.930	1105.037
229.855	14.815	1480.224	1103.593
230.869	14.825	1479.029	1102.667
231.884	14.947	1477.646	1102.342
232.899	14.843	1477.277	1101.286
233.913	14.800	1476.050	1099.991
234.928	14.885	1474.189	1099.064
235.942	14.821	1473.491	1098.024
236.957	14.903	1472.400	1097.653
237.972	14.835	1471.091	1096.139
238.986	14.895	1469.996	1095.615
240.001	14.901	1469.154	1094.930
241.015	14.893	1467.872	1093.825
242.030	14.783	1467.278	1092.568
243.045	15.020	1465.671	1092.821
244.059	15.007	1464.631	1091.868
245.074	14.958	1464.375	1091.258
246.088	15.028	1463.189	1090.732
247.103	15.026	1462.652	1090.225
248.117	15.023	1461.878	1089.530
249.132	15.129	1460.735	1089.274
250.147	15.116	1460.722	1089.083
251.161	15.176	1459.681	1088.601
252.176	15.291	1458.926	1088.686
253.190	15.167	1458.143	1087.198
254.205	15.268	1456.976	1086.890
255.220	15.409	1455.788	1086.820
256.234	15.367	1455.361	1086.132
257.249	15.369	1454.419	1085.347
258.263	15.428	1453.633	1085.050
259.278	15.343	1452.632	1083.655
260.293	15.341	1451.763	1082.900
261.307	15.490	1450.774	1083.026
262.322	15.509	1449.838	1082.354
263.336	15.530	1448.869	1081.670
264.351	15.458	1448.000	1080.461
265.366	15.553	1446.902	1080.159
266.380	15.493	1446.115	1079.091
267.395	15.619	1445.259	1079.161
268.409	15.662	1444.118	1078.495
269.424	15.505	1443.761	1077.124
270.439	15.576	1442.326	1076.410
271.453	15.500	1441.480	1075.198
272.468	15.527	1440.741	1074.728
273.482	15.692	1439.324	1074.627
274.497	15.607	1438.607	1073.454
275.512	15.590	1438.181	1072.931
276.526	15.533	1437.530	1071.988
277.541	15.622	1436.284	1071.532
278.555	15.599	1435.133	1070.433
279.570	15.717	1434.040	1070.274
280.585	15.702	1433.216	1069.469
281.599	15.720	1432.330	1068.828
282.614	15.625	1431.964	1067.857
283.628	15.684	1430.535	1067.071
284.643	15.721	1429.523	1066.458
285.657	15.621	1428.753	1065.154
286.672	15.825	1427.112	1065.124
287.687	15.800	1426.367	1064.318
288.701	15.795	1425.374	1063.454
289.716	15.772	1424.422	1062.503
290.730	15.878	1423.962	1062.734
291.745	15.813	1422.896	1061.432
292.760	15.860	1421.607	1060.675
293.774	15.795	1420.954	1059.684
294.789	15.821	1419.710	1058.825
295.803	15.928	1418.683	1058.639
296.818	15.987	1417.662	1058.156
297.833	15.907	1417.245	1057.248
298.847	15.961	1415.613	1056.277
299.862	15.921	1415.360	1055.742
300.876	15.927	1414.445	1055.003
301.891	15.903	1413.229	1053.854
302.906	15.918	1412.834	1053.561
303.920	16.095	1411.531	1053.603
304.935	16.106	1410.999	1053.178
305.949	16.082	1410.175	1052.320
306.964	16.181	1409.279	1052.179
307.979	16.146	1408.129	1051.008
308.993	16.228	1406.743	1050.386
310.008	16.231	1406.193	1049.906
311.022	16.197	1404.952	1048.673
312.037	16.236	1404.170	1048.240
313.052	16.318	1403.174	1047.910
314.066	16.270	1402.007	1046.649
315.081	16.284	1400.868	1045.797
316.095	16.083	1400.371	1044.089
317.110	16.204	1399.079	1043.780
318.125	16.193	1397.807	1042.671
319.139	16.166	1396.996	1041.807
320.154	16.189	1396.291	1041.332
321.168	16.213	1395.709	1040.954
322.183	16.244	1394.324	1040.019
323.197	16.209	1393.263	1038.920
324.212	16.285	1392.049	1038.386
325.227	16.352	1391.800	1038.521
326.241	16.271	1390.691	1037.106
327.256	16.321	1390.276	1037.010
328.270	16.359	1388.919	1036.142
329.285	16.359	1388.117	1035.450
330.300	16.361	1387.056	1034.580
331.314	16.381	1386.141	1033.928
332.329	16.314	1385.160	1032.695
333.343	16.317	1384.326	1032.002
334.358	16.432	1383.551	1032.032
335.373	16.444	1382.738	1031.411
336.387	16.438	1381.691	1030.499
337.402	16.330	1381.457	1029.577
338.416	16.427	1380.652	1029.474
339.431	16.452	1379.903	1028.978
340.446	16.508	1379.191	1028.700
341.460	16.563	1378.134	1028.150
342.475	16.574	1376.791	1027.124
343.489	16.622	1376.199	1026.884
344.504	16.698	1375.253	1026.550
345.519	16.762	1374.009	1025.919
346.533	16.719	1373.527	1025.207
347.548	16.767	1372.237	1024.442
348.562	16.721	1371.526	1023.547
349.577	16.742	1370.866	1023.088
350.592	16.740	1370.375	1022.618
351.606	16.789	1369.292	1022.017
352.621	16.807	1367.783	1020.906
353.635	16.707	1367.021	1019.644
354.650	16.678	1366.143	1018.726
355.665	16.650	1365.241	1017.796
356.679	16.753	1364.093	1017.468
357.694	16.719	1363.145	1016.469
358.708	16.793	1361.725	1015.764
359.723	16.915	1360.719	1015.654
360.738	16.880	1359.680	1014.575
361.752	16.845	1358.931	1013.722
362.767	16.752	1358.218	1012.543
363.781	16.819	1356.808	1011.804
364.796	16.940	1355.901	1011.758
365.810	16.904	1355.396	1011.075
366.825	16.893	1354.949	1010.586
367.840	17.053	1353.611	1010.453
368.854	16.965	1353.249	1009.572
369.869	17.011	1352.750	1009.382
370.883	17.053	1352.231	1009.154
371.898	17.067	1351.485	1008.595
372.913	17.066	1350.417	1007.703
373.927	16.991	1349.624	1006.572
374.942	17.074	1348.603	1006.219
375.956	17.153	1347.715	1005.934
376.971	17.102	1346.895	1004.930
377.986	17.130	1346.351	1004.598
379.000	17.258	1345.024	1004.275
380.015	17.155	1344.268	1003.014
381.029	17.280	1343.435	1003.043
382.044	17.293	1342.805	1002.564
383.059	17.310	1342.012	1001.980
384.073	17.230	1341.572	1001.092
385.088	17.347	1340.541	1000.926
386.102	17.262	1340.058	999.970
387.117	17.333	1339.404	999.816
388.132	17.335	1338.418	999.001
389.146	17.255	1337.942	998.088
390.161	17.313	1337.008	997.641
391.175	17.343	1336.276	997.184
392.190	17.391	1335.200	996.577
393.205	17.391	1334.276	995.799
394.219	17.436	1333.124	995.111
395.234	17.422	1332.024	994.121
396.248	17.503	1330.590	993.434
397.263	17.457	1329.247	992.075
398.278	17.502	1327.860	991.215
399.292	17.562	1326.958	990.806
400.307	17.470	1326.090	989.532
401.321	17.356	1325.197	988.115
402.336	17.476	1323.927	987.776
403.350	17.412	1323.060	986.676
404.365	17.522	1322.077	986.491
405.380	17.558	1320.824	985.675
406.394	17.571	1320.205	985.205
407.409	17.548	1319.741	984.639
408.423	17.476	1318.893	983.503
409.438	17.719	1317.922	984.090
410.453	17.661	1317.285	983.197
411.467	17.597	1316.818	982.390
412.482	17.726	1316.199	982.584
413.496	17.725	1315.847	982.229
414.511	17.733	1314.672	981.312
415.526	17.865	1313.654	981.226
416.540	17.729	1313.207	980.020
417.555	17.824	1312.397	979.879
418.569	17.854	1312.202	979.816
419.584	17.827	1311.461	979.023
420.599	17.851	1310.719	978.518
421.613	101.607	1364.610	1491.218
422.628	100.039	1372.397	1491.279
