DTS Sentinel unit serial number:	SN413079Multiplexer serial number:	ORYXHardware model number:	OX4-SRSoftware version number:	ORYX F/W v4.00 Oryx Data Collector v3.7.2.0data status	okinstallation	princeton_trtdifferential loss correction	single-endedforward channel	channel 4reverse channel	N/Adate	2019/09/17time	14:09:34forward acquisition time	60.00reverse acquisition time	0.00gamma	496.2192k internal	0.2296k external	0.2296temperature offset calibration	0.9986default loss term (dB/km)	0.3790temperature slope calibration	1.0000multiplexer offset coefficient	1.0000multiplexer slope coefficient	1.0000fibre end	0.00T internal ref (°C)	35.84T ext. ref 1 (°C)	0.41T ext. ref 2 (°C)	32.76length (m)	temperature (°C)	Stokes	anti-Stokes-747.200	-78.824	0.224	0.078
-746.185	561.160	-0.101	0.251
-745.171	-158.485	-0.291	0.017
-744.156	-88.383	0.322	0.098
-743.142	19.304	-0.128	-0.105
-742.127	-200.000	0.048	0.415
-741.112	-25.979	0.271	0.163
-740.098	288.601	0.205	0.379
-739.083	668.771	-0.087	0.229
-738.069	-200.000	-0.007	0.090
-737.054	577.150	0.067	-0.166
-736.039	-69.207	0.195	-0.077
-735.025	-200.000	-0.048	0.363
-734.010	78.502	0.186	0.202
-732.996	-102.028	-0.334	0.082
-731.981	-94.970	0.075	0.021
-730.966	-168.646	0.267	0.010
-729.952	-87.256	0.302	-0.094
-728.937	138.553	0.139	-0.187
-727.923	-110.058	-0.286	-0.061
-726.908	-12.068	0.075	-0.050
-725.894	-80.029	-0.421	0.144
-724.879	800.000	0.028	0.097
-723.864	-19.553	0.003	-0.002
-722.850	404.865	-0.131	-0.281
-721.835	0.592	-0.109	-0.080
-720.821	-43.115	-0.150	-0.078
-719.806	-21.894	-0.320	0.198
-718.791	586.893	0.140	0.352
-717.777	-27.078	0.135	-0.080
-716.762	30.037	-0.068	0.059
-715.748	-180.802	-0.366	-0.008
-714.733	-200.000	-0.012	-0.054
-713.718	42.491	-0.184	-0.171
-712.704	59.101	0.118	0.119
-711.689	125.205	0.089	-0.115
-710.675	356.395	-0.083	0.169
-709.660	-64.286	0.292	-0.121
-708.645	-59.684	0.181	0.079
-707.631	-82.380	0.242	-0.080
-706.616	613.928	-0.024	-0.060
-705.602	286.534	0.067	0.124
-704.587	66.060	-0.197	0.204
-703.572	-132.366	-0.169	-0.022
-702.558	800.000	-0.124	-0.357
-701.543	-200.000	0.028	-0.140
-700.529	426.618	0.016	-0.036
-699.514	-92.639	-0.214	-0.061
-698.499	-148.374	0.106	-0.009
-697.485	-108.262	0.332	-0.073
-696.470	40.947	-0.204	-0.188
-695.456	800.000	0.045	-0.154
-694.441	-9.928	0.486	0.330
-693.426	-68.046	0.050	0.020
-692.412	-85.774	-0.100	0.032
-691.397	-74.394	-0.345	-0.127
-690.383	283.283	-0.149	0.273
-689.368	70.390	0.009	0.009
-688.354	-105.657	-0.344	-0.080
-687.339	-38.647	-0.343	-0.185
-686.324	-20.997	-0.099	0.062
-685.310	-83.054	-0.271	0.089
-684.295	800.000	-0.062	-0.213
-683.281	699.801	-0.092	0.247
-682.266	-28.320	0.294	-0.173
-681.251	-200.000	0.026	0.269
-680.237	-86.021	-0.099	-0.031
-679.222	-200.000	-0.033	0.183
-678.208	-78.565	-0.520	0.181
-677.193	26.354	0.168	-0.143
-676.178	-74.996	-0.224	0.082
-675.164	-110.197	0.205	-0.043
-674.149	198.759	0.078	0.122
-673.135	783.434	0.099	-0.276
-672.120	-9.295	0.067	-0.046
-671.105	-200.000	0.008	0.132
-670.091	11.183	0.204	-0.159
-669.076	-50.203	0.161	0.077
-668.062	-150.732	0.323	0.025
-667.047	800.000	0.089	-0.379
-666.032	-26.287	-0.064	-0.038
-665.018	-200.000	-0.039	0.362
-664.003	-69.227	-0.151	-0.059
-662.989	125.160	0.165	-0.212
-661.974	800.000	-0.067	0.257
-660.959	-171.979	-0.247	-0.008
-659.945	-103.204	-0.067	-0.016
-658.930	36.694	-0.057	0.051
-657.916	544.407	0.099	0.240
-656.901	293.251	0.047	0.086
-655.886	-134.887	-0.350	0.043
-654.872	68.262	-0.104	-0.108
-653.857	800.000	0.133	-0.382
-652.843	-200.000	-0.039	0.270
-651.828	14.312	-0.312	-0.247
-650.814	-62.143	-0.154	0.065
-649.799	-200.000	0.059	0.420
-648.784	159.586	0.062	-0.088
-647.770	188.210	-0.088	-0.134
-646.755	-37.202	-0.214	-0.116
-645.741	-200.000	-0.045	-0.234
-644.726	-200.000	-0.032	-0.247
-643.711	50.161	0.154	-0.148
-642.697	-107.434	-0.290	-0.065
-641.682	-200.000	0.037	-0.211
-640.668	-109.329	0.199	0.043
-639.653	114.528	-0.096	0.119
-638.638	240.711	-0.082	0.139
-637.624	291.586	0.032	-0.059
-636.609	800.000	0.074	-0.282
-635.595	30.919	0.147	-0.128
-634.580	-75.772	0.299	-0.108
-633.565	-151.139	0.064	-0.005
-632.551	528.710	0.103	0.247
-631.536	2.806	0.073	-0.054
-630.522	297.681	0.119	0.222
-629.507	287.367	-0.269	-0.495
-628.492	-107.474	0.129	-0.029
-627.478	-200.000	-0.029	0.187
-626.463	-62.980	0.207	0.087
-625.449	-81.652	0.101	0.034
-624.434	-73.416	-0.261	-0.097
-623.419	64.527	0.228	0.234
-622.405	344.398	-0.185	0.369
-621.390	-200.000	0.004	0.023
-620.376	800.000	0.118	-0.346
-619.361	-200.000	0.033	0.233
-618.346	-19.685	-0.298	0.187
-617.332	-74.949	-0.151	0.055
-616.317	-55.847	0.169	0.077
-615.303	800.000	0.101	-0.284
-614.288	-25.569	0.239	-0.143
-613.273	631.504	-0.022	0.057
-612.259	-151.764	-0.194	0.015
-611.244	-4.983	-0.083	0.058
-610.230	-28.424	-0.103	-0.061
-609.215	79.420	0.235	-0.256
-608.201	352.137	0.116	-0.233
-607.186	31.058	-0.023	-0.020
-606.171	800.000	-0.046	0.175
-605.157	-56.788	0.080	-0.036
-604.142	-200.000	-0.006	-0.107
-603.128	-130.057	0.207	0.029
-602.113	33.318	-0.095	-0.084
-601.098	18.675	0.136	-0.111
-600.084	118.901	0.299	-0.376
-599.069	800.000	0.106	-0.407
-598.055	63.754	-0.028	-0.029
-597.040	-164.855	-0.247	0.011
-596.025	-67.030	-0.115	0.046
-595.011	359.930	0.049	0.099
-593.996	664.004	-0.016	0.043
-592.982	482.669	0.058	0.134
-591.967	106.486	-0.086	0.104
-590.952	-147.088	-0.138	0.012
-589.938	-45.768	0.267	-0.134
-588.923	-200.000	-0.018	-0.122
-587.909	270.341	0.058	-0.103
-586.894	291.964	0.089	-0.164
-585.879	174.698	-0.109	-0.160
-584.865	-117.623	0.126	0.023
-583.850	2.616	0.304	0.223
-582.836	11.907	-0.151	0.118
-581.821	-24.051	0.110	0.067
-580.806	101.583	0.184	-0.218
-579.792	800.000	0.064	-0.201
-578.777	438.209	-0.042	0.092
-577.763	-134.678	0.312	-0.039
-576.748	800.000	0.066	-0.291
-575.733	-200.000	-0.309	-0.001
-574.719	-53.985	0.171	-0.079
-573.704	-76.374	-0.250	0.089
-572.690	-60.567	-0.160	-0.069
-571.675	56.837	-0.039	-0.039
-570.661	800.000	0.016	-0.053
-569.646	57.679	0.162	-0.161
-568.631	-89.477	-0.217	0.065
-567.617	-29.597	-0.264	0.153
-566.602	-143.766	0.144	0.014
-565.588	92.229	-0.321	0.367
-564.573	-51.855	0.191	0.090
-563.558	140.296	0.051	-0.068
-562.544	127.084	0.116	-0.150
-561.529	-98.390	0.090	-0.023
-560.515	62.374	-0.123	0.124
-559.500	167.089	-0.063	0.090
-558.485	-30.797	-0.343	0.197
-557.471	207.173	0.160	0.254
-556.456	491.962	-0.092	-0.215
-555.442	-107.009	-0.242	-0.054
-554.427	-91.242	-0.152	0.044
-553.412	7.637	-0.054	-0.041
-552.398	-200.000	-0.017	-0.222
-551.383	-200.000	0.024	0.122
-550.369	800.000	-0.072	-0.274
-549.354	569.773	-0.046	0.114
-548.339	120.105	-0.094	-0.119
-547.325	47.101	-0.278	-0.262
-546.310	-79.787	-0.284	0.097
-545.296	-55.250	-0.085	-0.039
-544.281	800.000	0.127	-0.365
-543.266	-141.583	-0.217	0.022
-542.252	-19.461	-0.067	-0.042
-541.237	-118.935	0.082	-0.015
-540.223	66.046	-0.213	0.219
-539.208	284.724	-0.171	0.312
-538.193	-124.073	0.149	0.024
-537.179	-200.000	-0.026	0.316
-536.164	55.772	-0.344	-0.338
-535.150	76.003	-0.128	-0.137
-534.135	800.000	-0.023	-0.092
-533.121	5.067	-0.039	-0.029
-532.106	-85.607	-0.356	0.112
-531.091	364.146	-0.105	-0.214
-530.077	-133.529	-0.119	0.015
-529.062	-5.211	0.332	-0.231
-528.048	-200.000	-0.003	-0.042
-527.033	-103.662	-0.124	0.029
-526.018	421.864	0.136	0.295
-525.004	-200.000	0.090	0.000
-523.989	-200.000	-0.018	-0.161
-522.975	-200.000	0.002	0.077
-521.960	-123.166	0.220	-0.036
-520.945	288.764	-0.027	0.050
-519.931	429.315	0.033	0.071
-518.916	-200.000	-0.011	-0.415
-517.902	-60.818	-0.242	0.104
-516.887	-113.647	-0.190	0.038
-515.872	648.991	0.106	-0.275
-514.858	-73.580	0.067	-0.025
-513.843	-19.444	0.247	-0.155
-512.829	-125.922	0.364	0.055
-511.814	609.066	0.032	-0.082
-510.799	26.061	0.168	0.142
-509.785	-70.854	-0.150	-0.057
-508.770	-200.000	0.021	0.170
-507.756	34.431	-0.143	-0.126
-506.741	-144.792	0.142	0.013
-505.726	-25.175	-0.033	-0.020
-504.712	81.496	0.197	0.215
-503.697	-200.000	-0.009	-0.354
-502.683	23.660	0.114	0.095
-501.668	4.394	0.116	-0.086
-500.653	-136.386	-0.308	0.036
-499.639	-24.862	0.215	0.129
-498.624	-50.241	0.367	0.176
-497.610	800.000	0.113	0.335
-496.595	583.929	-0.138	0.342
-495.581	800.000	-0.058	0.195
-494.566	-24.057	-0.279	-0.169
-493.551	-200.000	-0.044	0.320
-492.537	225.062	-0.043	0.070
-491.522	152.705	0.090	0.125
-490.508	53.693	0.328	0.318
-489.493	43.808	0.252	-0.233
-488.478	800.000	0.031	-0.111
-487.464	228.465	-0.162	-0.267
-486.449	-15.246	-0.275	-0.178
-485.435	800.000	0.012	0.033
-484.420	774.634	0.082	-0.227
-483.405	-134.189	-0.181	-0.023
-482.391	30.255	0.104	0.090
-481.376	760.173	-0.112	0.306
-480.362	93.958	0.187	-0.214
-479.347	-127.996	0.160	-0.023
-478.332	-84.284	0.139	0.045
-477.318	290.389	0.076	-0.140
-476.303	-78.758	-0.040	0.014
-475.289	329.458	-0.148	0.288
-474.274	-200.000	0.098	0.533
-473.259	137.095	0.046	-0.061
-472.245	-155.908	-0.139	-0.009
-471.230	94.596	0.233	0.268
-470.216	800.000	0.063	-0.240
-469.201	-101.009	0.270	0.067
-468.186	242.770	-0.095	0.160
-467.172	-130.172	0.440	-0.061
-466.157	78.714	0.137	-0.148
-465.143	-105.850	0.237	0.054
-464.128	800.000	0.008	-0.031
-463.113	2.228	0.103	-0.075
-462.099	-137.122	0.051	0.006
-461.084	544.921	-0.035	0.085
-460.070	144.559	0.109	0.147
-459.055	182.570	-0.135	0.202
-458.040	125.621	0.070	-0.089
-457.026	-189.158	-0.347	-0.004
-456.011	-10.601	-0.053	0.036
-454.997	-113.098	0.092	-0.018
-453.982	119.439	-0.208	0.260
-452.968	-119.559	-0.115	-0.020
-451.953	-29.214	0.344	0.199
-450.938	115.760	-0.059	0.073
-449.924	-58.976	0.284	-0.124
-448.909	212.096	-0.077	-0.123
-447.895	-28.882	-0.429	-0.249
-446.880	28.437	0.228	-0.194
-445.865	9.578	-0.256	-0.196
-444.851	11.013	-0.153	0.118
-443.836	-200.000	0.018	0.247
-442.822	-58.262	0.008	0.004
-441.807	800.000	0.070	-0.301
-440.792	36.641	0.075	-0.066
-439.778	95.190	0.020	-0.023
-438.763	-91.211	-0.172	0.050
-437.749	-200.000	0.077	-0.398
-436.734	425.355	-0.115	-0.250
-435.719	-129.356	0.219	0.031
-434.705	-45.661	0.495	0.247
-433.690	375.517	0.053	-0.109
-432.676	92.411	-0.174	0.198
-431.661	-79.715	-0.068	-0.023
-430.646	673.739	-0.091	-0.239
-429.632	92.814	0.138	0.158
-428.617	-52.427	0.196	-0.091
-427.603	241.952	0.060	0.101
-426.588	-109.272	-0.408	0.087
-425.573	-35.256	-0.308	0.169
-424.559	401.048	0.070	-0.149
-423.544	415.114	0.048	-0.104
-422.530	-200.000	0.019	-0.243
-421.515	87.336	-0.262	-0.293
-420.500	-194.424	0.145	0.001
-419.486	-91.979	-0.280	0.080
-418.471	-156.417	0.134	-0.008
-417.457	253.036	-0.035	-0.060
-416.442	800.000	0.028	0.103
-415.428	284.508	0.064	0.116
-414.413	66.926	0.150	-0.154
-413.398	-200.000	-0.000	0.004
-412.384	-171.881	0.109	-0.004
-411.369	382.600	0.178	-0.368
-410.355	6.595	-0.200	-0.150
-409.340	-77.960	0.158	0.055
-408.325	-200.000	-0.015	0.324
-407.311	-127.285	0.224	0.033
-406.296	72.196	-0.123	0.130
-405.282	800.000	-0.083	-0.246
-404.267	-134.667	0.331	0.041
-403.252	-132.917	0.201	0.026
-402.238	1.559	-0.120	0.087
-401.223	-66.702	-0.146	-0.058
-400.209	-27.609	0.215	-0.126
-399.194	-9.588	-0.287	0.193
-398.179	-200.000	0.005	0.278
-397.165	72.043	-0.151	-0.159
-396.150	-152.675	-0.361	0.026
-395.136	196.398	0.146	0.224
-394.121	797.628	0.174	0.482
-393.106	800.000	-0.070	-0.236
-392.092	-95.891	0.109	0.029
-391.077	-72.404	0.288	-0.107
-390.063	-200.000	0.029	-0.158
-389.048	800.000	0.041	-0.170
-388.033	531.978	0.033	0.078
-387.019	123.081	-0.087	0.109
-386.004	-39.521	-0.157	-0.083
-384.990	-82.445	-0.238	0.078
-383.975	-176.793	-0.046	0.001
-382.960	46.691	0.073	0.069
-381.946	-9.606	-0.180	-0.121
-380.931	-81.437	-0.371	-0.123
-379.917	396.921	-0.060	0.126
-378.902	-200.000	-0.007	0.085
-377.888	-23.705	-0.300	-0.181
-376.873	-140.046	-0.174	-0.018
-375.858	-117.371	0.348	0.063
-374.844	-90.069	0.206	-0.061
-373.829	-200.000	0.035	0.212
-372.815	28.857	0.078	-0.067
-371.800	464.671	0.039	0.087
-370.785	23.770	0.076	-0.063
-369.771	-200.000	0.004	0.166
-368.756	-155.517	-0.242	-0.016
-367.742	-28.973	-0.075	-0.043
-366.727	-106.245	-0.036	0.008
-365.712	-52.081	0.268	0.125
-364.698	-99.633	-0.299	0.076
-363.683	294.324	-0.096	-0.176
-362.669	426.829	-0.060	0.129
-361.654	240.972	-0.037	0.063
-360.639	133.598	-0.042	-0.054
-359.625	113.233	-0.112	0.137
-358.610	-104.160	0.273	0.064
-357.596	800.000	-0.106	0.362
-356.581	12.328	0.088	0.069
-355.566	-200.000	0.076	0.502
-354.552	366.554	0.047	0.095
-353.537	759.617	0.098	-0.266
-352.523	28.768	-0.131	0.111
-351.508	28.769	-0.058	0.049
-350.493	800.000	0.080	-0.226
-349.479	-9.599	-0.316	-0.212
-348.464	-10.236	-0.209	-0.140
-347.450	-30.513	-0.220	0.126
-346.435	-200.000	-0.029	0.344
-345.420	-200.000	-0.017	0.117
-344.406	-63.163	-0.030	-0.013
-343.391	478.031	-0.126	0.287
-342.377	-200.000	0.053	-0.337
-341.362	118.646	-0.118	0.146
-340.348	85.835	-0.109	-0.121
-339.333	-200.000	-0.022	-0.316
-338.318	322.219	0.058	-0.111
-337.304	-47.197	-0.109	0.053
-336.289	-125.729	-0.464	-0.071
-335.275	-49.092	0.128	0.062
-334.260	162.889	0.110	0.155
-333.245	-57.635	-0.061	0.027
-332.231	480.455	-0.047	0.108
-331.216	161.263	0.108	0.152
-330.202	179.393	-0.120	-0.176
-329.187	166.403	0.234	-0.333
-328.172	-10.972	0.129	-0.086
-327.158	10.204	-0.102	0.078
-326.143	-27.916	-0.170	0.099
-325.129	-200.000	-0.001	0.224
-324.114	800.000	-0.029	0.114
-323.099	-66.873	0.232	-0.092
-322.085	-131.708	0.112	-0.015
-321.070	111.118	-0.176	-0.213
-320.056	-153.477	0.286	-0.020
-319.041	-132.316	0.173	0.023
-318.026	-200.000	-0.040	0.259
-317.012	29.315	0.323	0.275
-315.997	800.000	-0.028	-0.078
-314.983	-200.000	0.045	-0.268
-313.968	-200.000	-0.019	-0.229
-312.953	-57.434	0.108	-0.047
-311.939	800.000	0.099	0.315
-310.924	143.806	0.134	-0.180
-309.910	-200.000	0.019	-0.429
-308.895	31.666	0.178	-0.154
-307.880	-200.000	0.050	0.282
-306.866	92.466	-0.096	0.108
-305.851	-200.000	0.059	-0.318
-304.837	-138.676	0.354	-0.039
-303.822	-60.606	-0.159	0.068
-302.807	229.896	-0.109	-0.179
-301.793	322.127	0.147	0.281
-300.778	286.505	-0.083	-0.150
-299.764	-152.186	0.124	0.009
-298.749	-11.313	0.215	-0.142
-297.735	-200.000	-0.005	0.104
-296.720	-151.302	-0.073	0.005
-295.705	-200.000	0.017	0.150
-294.691	12.547	-0.203	-0.157
-293.676	-102.409	-0.128	0.031
-292.662	4.050	-0.156	0.114
-291.647	134.425	0.191	0.248
-290.632	-64.270	-0.121	0.049
-289.618	428.946	0.132	0.286
-288.603	-200.000	-0.018	0.119
-287.589	236.975	-0.178	-0.295
-286.574	800.000	-0.035	0.102
-285.559	341.101	0.140	0.275
-284.545	-127.496	-0.099	-0.014
-283.530	-63.159	0.321	0.133
-282.516	182.524	0.032	-0.047
-281.501	446.168	-0.039	0.085
-280.486	-200.000	0.049	-0.240
-279.472	277.670	-0.038	0.069
-278.457	67.290	0.111	-0.114
-277.443	-96.060	-0.191	0.051
-276.428	-88.408	0.347	-0.104
-275.413	-200.000	-0.019	-0.155
-274.399	-200.000	-0.008	-0.202
-273.384	624.549	0.067	0.171
-272.370	115.638	0.209	0.257
-271.355	40.274	0.272	-0.246
-270.340	-198.061	0.278	-0.002
-269.326	-200.000	0.002	0.082
-268.311	-200.000	-0.037	0.353
-267.297	-90.865	0.196	-0.057
-266.282	114.276	-0.096	0.117
-265.267	-35.525	0.085	0.046
-264.253	-32.427	-0.231	-0.129
-263.238	-200.000	0.037	-0.206
-262.224	206.958	-0.053	-0.084
-261.209	191.787	-0.149	-0.225
-260.195	800.000	-0.033	-0.144
-259.180	-200.000	-0.031	-0.233
-258.165	-64.781	-0.145	-0.059
-257.151	-200.000	-0.054	0.345
-256.136	6.024	-0.293	0.218
-255.122	-200.000	0.018	-0.319
-254.107	-200.000	0.066	-0.371
-253.092	560.670	-0.049	-0.119
-252.078	-200.000	-0.074	0.425
-251.063	111.293	-0.123	0.148
-250.049	800.000	0.116	0.402
-249.034	-113.961	-0.345	0.067
-248.019	165.775	0.076	0.108
-247.005	101.257	0.163	0.190
-245.990	-12.471	-0.283	0.185
-244.976	-189.540	0.180	-0.002
-243.961	36.526	-0.103	0.091
-242.946	-124.634	-0.278	0.043
-241.932	-82.494	-0.199	-0.065
-240.917	-9.836	-0.206	0.137
-239.903	-200.000	0.003	0.388
-238.888	800.000	-0.127	-0.514
-237.873	800.000	0.118	0.361
-236.859	146.215	0.058	0.078
-235.844	58.194	0.062	0.061
-234.830	-95.473	-0.123	-0.033
-233.815	785.814	0.106	-0.290
-232.800	-200.000	0.011	-0.095
-231.786	504.892	-0.184	0.427
-230.771	48.889	0.209	0.196
-229.757	-200.000	-0.006	0.119
-228.742	16.651	-0.047	-0.037
-227.727	-200.000	-0.018	-0.190
-226.713	279.481	0.168	0.300
-225.698	441.215	-0.296	-0.649
-224.684	-43.778	0.107	0.054
-223.669	-93.572	-0.197	-0.055
-222.655	195.636	-0.010	0.016
-221.640	332.855	0.016	-0.031
-220.625	29.417	0.376	-0.320
-219.611	138.695	-0.091	0.119
-218.596	180.046	-0.197	-0.289
-217.582	104.176	-0.073	-0.086
-216.567	-3.736	0.063	0.044
-215.552	2.620	-0.169	-0.122
-214.538	-200.000	0.014	-0.078
-213.523	242.564	0.050	0.084
-212.509	-43.410	-0.072	0.037
-211.494	77.447	-0.183	0.194
-210.479	-84.672	-0.135	-0.043
-209.465	-28.759	0.365	0.210
-208.450	485.451	0.085	0.194
-207.436	-167.278	-0.091	0.004
-206.421	-53.061	-0.108	0.050
-205.406	-200.000	-0.022	-0.105
-204.392	696.351	0.091	-0.238
-203.377	275.376	-0.101	-0.178
-202.363	-97.031	-0.185	-0.049
-201.348	283.081	0.136	-0.244
-200.333	-200.000	-0.016	0.185
-199.319	-200.000	0.023	0.142
-198.304	-200.000	-0.001	-0.193
-197.290	-158.916	-0.138	-0.008
-196.275	286.565	0.062	0.112
-195.260	-101.543	-0.278	0.068
-194.246	800.000	-0.058	0.239
-193.231	800.000	-0.081	-0.288
-192.217	800.000	0.056	-0.181
-191.202	-77.693	-0.122	-0.042
-190.187	-200.000	-0.020	0.151
-189.173	108.840	0.176	0.210
-188.158	-88.286	-0.220	-0.066
-187.144	-200.000	-0.019	0.245
-186.129	-200.000	0.271	-0.000
-185.114	448.453	-0.061	-0.135
-184.100	-149.293	0.045	-0.004
-183.085	-160.721	0.257	0.014
-182.071	-55.862	0.135	0.060
-181.056	32.391	0.255	-0.220
-180.042	-2.310	0.134	-0.094
-179.027	-200.000	0.038	0.188
-178.012	210.490	0.183	0.288
-176.998	800.000	-0.030	0.094
-175.983	259.701	0.013	0.023
-174.969	-200.000	0.001	0.249
-173.954	185.774	-0.089	-0.133
-172.939	94.635	-0.015	-0.017
-171.925	632.483	-0.028	0.071
-170.910	800.000	0.124	0.348
-169.896	65.623	-0.212	0.215
-168.881	-200.000	0.005	-0.159
-167.866	173.597	0.181	0.261
-166.852	-114.967	-0.183	0.035
-165.837	800.000	-0.096	-0.358
-164.823	-90.881	0.177	-0.051
-163.808	-84.938	-0.237	-0.074
-162.793	531.608	-0.135	-0.319
-161.779	-200.000	0.018	0.242
-160.764	-137.309	0.328	-0.037
-159.750	65.839	-0.230	-0.233
-158.735	-200.000	0.026	-0.167
-157.720	-200.000	0.006	0.086
-156.706	-53.233	-0.109	0.050
-155.691	517.691	-0.142	-0.332
-154.677	-112.119	0.319	-0.064
-153.662	75.193	0.057	0.060
-152.647	-42.888	-0.304	0.154
-151.633	-11.630	0.379	0.248
-150.618	-133.066	0.249	0.032
-149.604	-200.000	0.004	0.109
-148.589	746.821	0.069	0.186
-147.574	-167.584	-0.347	0.014
-146.560	-109.938	-0.255	0.053
-145.545	800.000	-0.076	0.273
-144.531	321.604	0.196	0.372
-143.516	297.362	0.102	-0.187
-142.502	-10.262	0.076	-0.050
-141.487	-200.000	-0.003	0.168
-140.472	57.630	0.185	0.180
-139.458	-160.236	-0.096	0.005
-138.443	-121.845	0.117	-0.019
-137.429	362.113	0.031	0.062
-136.414	-43.684	-0.127	-0.064
-135.399	800.000	-0.040	-0.153
-134.385	87.043	0.087	0.096
-133.370	-200.000	-0.272	-0.001
-132.356	131.494	-0.226	0.290
-131.341	202.646	-0.105	0.162
-130.326	-102.130	0.307	0.074
-129.312	58.563	-0.066	0.065
-128.297	-200.000	-0.007	0.156
-127.283	-200.000	-0.052	0.303
-126.268	-14.447	0.163	-0.105
-125.253	-191.640	-0.207	0.002
-124.239	-146.459	0.084	-0.007
-123.224	-200.000	0.063	0.313
-122.210	476.641	0.073	-0.164
-121.195	-94.113	-0.440	-0.120
-120.180	-141.629	-0.315	0.032
-119.166	187.904	0.024	0.036
-118.151	-115.342	-0.511	-0.096
-117.137	186.862	-0.020	0.029
-116.122	-200.000	-0.035	-0.193
-115.107	-30.483	-0.249	0.141
-114.093	109.842	0.191	0.228
-113.078	111.587	0.123	-0.147
-112.064	-88.281	-0.300	0.090
-111.049	-200.000	-0.031	-0.205
-110.034	435.938	-0.115	-0.250
-109.020	30.992	-0.097	-0.083
-108.005	-164.037	-0.336	0.016
-106.991	62.157	0.195	0.194
-105.976	216.841	0.175	0.278
-104.962	93.281	-0.100	-0.113
-103.947	-68.148	0.103	0.040
-102.932	-200.000	-0.044	-0.324
-101.918	140.692	-0.040	-0.053
-100.903	-84.321	0.253	-0.080
-99.889	-13.486	0.297	-0.192
-98.874	543.673	0.077	-0.184
-97.859	8.317	0.038	0.028
-96.845	208.236	0.130	0.202
-95.830	-200.000	-0.011	0.121
-94.816	800.000	0.034	-0.146
-93.801	-187.982	0.462	-0.006
-92.786	30.116	0.117	0.100
-91.772	381.388	0.026	-0.053
-90.757	132.259	0.056	-0.072
-89.743	8.119	-0.024	-0.018
-88.728	-74.162	0.264	-0.095
-87.713	-131.852	0.119	-0.015
-86.699	179.227	-0.127	0.184
-85.684	-39.412	-0.428	0.224
-84.670	-97.491	0.385	0.100
-83.655	800.000	0.050	0.152
-82.640	75.132	0.160	-0.168
-81.626	74.078	0.213	0.222
-80.611	800.000	-0.009	-0.031
-79.597	175.964	-0.149	-0.215
-78.582	-200.000	0.070	-0.332
-77.567	-45.472	0.097	0.048
-76.553	-179.241	0.504	-0.011
-75.538	-47.303	-0.174	-0.084
-74.524	302.921	-0.064	-0.119
-73.509	104.106	0.146	-0.171
-72.494	-156.534	0.486	0.030
-71.480	235.170	-0.067	-0.109
-70.465	40.221	-0.083	-0.075
-69.451	-126.731	-0.069	0.010
-68.436	142.006	-0.223	0.294
-67.422	-20.201	0.221	0.135
-66.407	-200.000	-0.010	-0.230
-65.392	-200.000	-0.035	-0.171
-64.378	800.000	-0.104	-0.304
-63.363	-103.135	0.115	-0.027
-62.349	366.945	-0.087	0.175
-61.334	72.275	-0.840	-0.870
-60.319	-68.938	0.419	0.161
-59.305	686.386	-0.277	-0.720
-58.290	46.059	0.803	0.739
-57.276	-200.000	0.097	1.269
-56.261	-200.000	91.242	520.670
-55.246	450.468	1423.777	3124.899
-54.232	142.389	2635.883	3479.391
-53.217	101.321	2387.900	2765.029
-52.203	42.037	2127.348	1919.818
-51.188	37.435	2037.065	1795.881
-50.173	36.017	2017.622	1765.681
-49.159	49.062	2066.102	1929.421
-48.144	51.667	2086.142	1972.269
-47.130	38.372	2044.325	1810.673
-46.115	35.851	2033.099	1777.411
-45.100	35.825	2030.254	1774.617
-44.086	35.743	2028.173	1771.971
-43.071	35.749	2025.059	1769.235
-42.057	35.667	2023.036	1766.638
-41.042	35.807	2020.132	1765.315
-40.027	35.763	2018.750	1763.640
-39.013	35.769	2016.682	1761.817
-37.998	35.784	2014.875	1760.306
-36.984	35.811	2012.886	1758.746
-35.969	35.771	2011.007	1756.671
-34.954	35.788	2009.455	1755.394
-33.940	35.882	2007.491	1754.473
-32.925	35.889	2005.964	1753.126
-31.911	35.870	2004.681	1751.761
-30.896	35.883	2002.585	1749.985
-29.881	35.810	2001.270	1748.097
-28.867	35.891	1999.776	1747.466
-27.852	35.940	1997.476	1745.826
-26.838	35.870	1995.579	1743.467
-25.823	35.884	1993.354	1741.576
-24.809	35.838	1992.103	1740.000
-23.794	35.810	1990.245	1738.055
-22.779	35.844	1988.569	1736.833
-21.765	35.860	1986.890	1735.438
-20.750	35.928	1984.838	1734.187
-19.736	35.958	1983.321	1733.066
-18.721	35.919	1982.027	1731.519
-17.706	35.868	1980.683	1729.812
-16.692	35.814	1978.888	1727.695
-15.677	35.888	1977.058	1726.691
-14.663	35.784	1976.097	1724.856
-13.648	35.822	1974.681	1723.883
-12.633	35.856	1973.333	1722.947
-11.619	35.877	1971.941	1721.854
-10.604	35.824	1970.628	1720.162
-9.590	35.843	1968.965	1718.809
-8.575	35.795	1967.873	1717.364
-7.560	35.868	1966.287	1716.558
-6.546	35.893	1964.936	1715.537
-5.531	35.803	1963.849	1713.718
-4.517	35.844	1962.735	1713.042
-3.502	35.871	1961.385	1712.035
-2.487	35.907	1959.874	1710.971
-1.473	35.887	1958.748	1709.739
-0.458	36.045	1954.814	1707.637
0.556	34.609	1935.194	1682.767
1.571	30.638	1916.010	1631.198
2.586	26.119	1937.656	1609.286
3.600	24.430	1973.160	1623.285
4.615	23.486	1968.718	1610.912
5.629	18.156	1864.178	1479.262
6.644	7.422	1735.851	1290.416
7.659	1.086	1692.925	1208.006
8.673	0.526	1688.930	1200.595
9.688	0.466	1687.471	1198.973
10.702	0.429	1686.207	1197.677
11.717	0.221	1682.980	1193.630
12.731	0.937	1682.517	1198.873
13.746	8.001	1699.312	1267.078
14.761	16.442	1716.361	1347.229
15.775	18.261	1716.359	1361.596
16.790	17.215	1713.845	1351.171
17.804	16.170	1710.062	1339.772
18.819	15.207	1706.812	1329.472
19.834	14.621	1704.552	1322.947
20.848	14.401	1702.376	1319.401
21.863	14.047	1700.682	1315.170
22.877	13.751	1699.033	1311.440
23.892	13.437	1698.406	1308.357
24.907	13.390	1696.722	1306.569
25.921	13.388	1695.913	1305.815
26.936	13.448	1694.542	1305.116
27.950	13.404	1693.978	1304.221
28.965	13.483	1693.010	1303.983
29.980	13.561	1692.443	1304.044
30.994	13.606	1691.351	1303.441
32.009	13.654	1690.378	1302.954
33.023	13.639	1689.825	1302.293
34.038	13.654	1689.084	1301.723
35.053	13.637	1688.191	1300.791
36.067	13.594	1687.016	1299.431
37.082	13.574	1686.123	1298.472
38.096	13.571	1684.889	1297.388
39.111	13.515	1684.365	1296.426
40.126	13.592	1683.332	1296.123
41.140	13.641	1682.355	1295.633
42.155	13.500	1681.147	1293.487
43.169	13.449	1679.785	1291.928
44.184	13.482	1678.336	1290.960
45.199	13.394	1676.996	1289.130
46.213	13.380	1676.008	1288.146
47.228	13.370	1675.165	1287.308
48.242	13.399	1674.182	1286.659
49.257	13.525	1672.431	1286.179
50.271	13.497	1671.266	1284.950
51.286	13.453	1670.297	1283.757
52.301	13.505	1668.628	1282.764
53.315	13.579	1667.160	1282.094
54.330	13.499	1665.611	1280.170
55.344	13.443	1664.433	1278.713
56.359	13.470	1662.347	1277.212
57.374	13.430	1661.816	1276.383
58.388	13.453	1660.461	1275.402
59.403	13.402	1659.248	1273.966
60.417	13.313	1657.700	1271.981
61.432	13.288	1656.586	1270.819
62.447	13.342	1655.136	1270.010
63.461	13.361	1654.089	1269.240
64.476	13.283	1653.307	1267.927
65.490	13.284	1652.068	1266.874
66.505	13.337	1650.056	1265.627
67.520	13.376	1649.556	1265.426
68.534	13.323	1648.609	1264.189
69.549	13.414	1647.257	1263.731
70.563	13.417	1646.010	1262.689
71.578	13.331	1644.482	1260.749
72.593	13.363	1643.647	1260.242
73.607	13.334	1642.293	1258.868
74.622	13.356	1641.035	1257.957
75.636	13.266	1640.571	1256.811
76.651	13.240	1639.702	1255.837
77.666	13.275	1638.799	1255.295
78.680	13.286	1637.089	1253.961
79.695	13.272	1636.276	1253.123
80.709	13.286	1635.424	1252.462
81.724	13.253	1634.244	1251.199
82.739	13.343	1633.437	1251.152
83.753	13.322	1632.596	1250.240
84.768	13.421	1631.594	1250.109
85.782	13.478	1630.923	1249.910
86.797	13.523	1629.893	1249.351
87.812	13.513	1628.724	1248.272
88.826	13.334	1628.253	1246.446
89.841	13.470	1626.283	1245.854
90.855	13.514	1625.481	1245.461
91.870	13.496	1624.180	1244.221
92.884	13.558	1623.322	1243.919
93.899	13.563	1622.016	1242.841
94.914	13.458	1621.073	1241.225
95.928	13.612	1619.501	1241.062
96.943	13.616	1618.486	1240.206
97.957	13.590	1616.848	1238.650
98.972	13.629	1615.314	1237.654
99.987	13.504	1614.185	1235.749
101.001	13.599	1612.284	1234.893
102.016	13.555	1610.567	1233.141
103.030	13.486	1609.436	1231.652
104.045	13.450	1608.410	1230.486
105.060	13.569	1606.781	1230.015
106.074	13.459	1605.730	1228.286
107.089	13.457	1603.843	1226.717
108.103	13.337	1602.650	1224.809
109.118	13.337	1601.051	1223.479
110.133	13.385	1599.303	1222.389
111.147	13.351	1597.877	1220.939
112.162	13.399	1596.080	1219.814
113.176	13.405	1595.336	1219.180
114.191	13.385	1593.703	1217.682
115.206	13.429	1592.405	1216.905
116.220	13.433	1591.389	1216.047
117.235	13.484	1589.880	1215.164
118.249	13.455	1588.433	1213.740
119.264	13.368	1587.373	1212.180
120.279	13.390	1585.805	1211.035
121.293	13.398	1584.687	1210.137
122.308	13.408	1582.662	1208.555
123.322	13.448	1580.811	1207.329
124.337	13.380	1579.750	1205.913
125.352	13.508	1578.004	1205.405
126.366	13.440	1577.079	1204.095
127.381	13.485	1575.827	1203.361
128.395	13.433	1574.586	1201.931
129.410	13.406	1573.311	1200.658
130.424	13.452	1571.917	1199.817
131.439	13.453	1570.625	1198.735
132.454	13.437	1569.594	1197.727
133.468	13.524	1568.118	1197.119
134.483	13.564	1566.172	1195.820
135.497	13.532	1565.050	1194.622
136.512	13.560	1563.636	1193.642
137.527	13.576	1562.394	1192.706
138.541	13.561	1560.680	1191.181
139.556	13.464	1559.805	1189.709
140.570	13.514	1558.341	1188.847
141.585	13.542	1557.352	1188.193
142.600	13.660	1555.699	1187.670
143.614	13.594	1554.781	1186.390
144.629	13.636	1553.509	1185.613
145.643	13.745	1551.680	1184.897
146.658	13.744	1550.781	1184.098
147.673	13.771	1548.994	1182.817
148.687	13.606	1547.405	1180.326
149.702	13.620	1545.963	1179.218
150.716	13.588	1544.416	1177.706
151.731	13.594	1542.935	1176.516
152.746	13.614	1541.697	1175.611
153.760	13.657	1539.821	1174.384
154.775	13.679	1538.918	1173.747
155.789	13.723	1537.360	1172.767
156.804	13.704	1536.131	1171.588
157.819	13.684	1535.109	1170.562
158.833	13.636	1534.152	1169.390
159.848	13.759	1532.884	1169.188
160.862	13.761	1532.031	1168.448
161.877	13.900	1530.448	1168.118
162.892	13.776	1529.530	1166.438
163.906	13.716	1527.980	1164.734
164.921	13.760	1526.271	1163.636
165.935	13.748	1525.459	1162.829
166.950	13.704	1524.757	1161.882
167.964	13.752	1523.439	1161.116
168.979	13.784	1522.280	1160.348
169.994	13.805	1521.061	1159.466
171.008	13.743	1520.376	1158.411
172.023	13.750	1519.461	1157.660
173.037	13.876	1517.861	1157.212
174.052	13.894	1516.368	1156.100
175.067	13.909	1515.494	1155.436
176.081	13.910	1513.907	1154.132
177.096	13.824	1513.128	1152.834
178.110	13.807	1511.614	1151.464
179.125	13.863	1510.318	1150.760
180.140	13.827	1509.253	1149.601
181.154	13.803	1508.898	1149.064
182.169	13.949	1507.351	1148.788
183.183	13.952	1506.016	1147.696
184.198	13.966	1505.518	1147.309
185.213	14.016	1504.283	1146.611
186.227	14.049	1502.623	1145.472
187.242	14.035	1501.803	1144.648
188.256	14.103	1500.784	1144.242
189.271	14.162	1499.490	1143.555
190.286	14.185	1498.375	1142.762
191.300	14.106	1497.271	1141.277
192.315	13.950	1496.560	1139.566
193.329	13.865	1495.317	1137.935
194.344	13.880	1494.215	1137.096
195.359	13.870	1493.339	1136.264
196.373	14.007	1491.813	1135.939
197.388	13.990	1490.998	1135.101
198.402	14.127	1489.512	1134.802
199.417	14.132	1488.665	1134.091
200.432	14.195	1487.664	1133.658
201.446	14.202	1486.988	1133.090
202.461	14.223	1485.453	1131.962
203.475	14.319	1484.448	1131.747
204.490	14.274	1483.751	1130.810
205.504	14.246	1482.387	1129.485
206.519	14.170	1481.373	1128.097
207.534	14.247	1479.724	1127.263
208.548	14.319	1478.309	1126.570
209.563	14.303	1477.413	1125.680
210.577	14.278	1476.380	1124.621
211.592	14.224	1475.749	1123.680
212.607	14.328	1474.862	1123.609
213.621	14.427	1474.518	1123.911
214.636	14.392	1473.551	1122.840
215.650	14.386	1472.510	1121.906
216.665	14.382	1471.508	1121.019
217.680	14.353	1470.971	1120.313
218.694	14.433	1470.342	1120.273
219.709	14.514	1468.905	1119.624
220.723	14.500	1467.889	1118.656
221.738	14.495	1467.177	1117.981
222.753	14.537	1466.198	1117.415
223.767	14.476	1465.423	1116.321
224.782	14.410	1464.598	1115.148
225.796	14.596	1463.236	1115.261
226.811	14.565	1462.666	1114.515
227.826	14.672	1461.657	1114.363
228.840	14.557	1460.880	1112.905
229.855	14.548	1460.281	1112.288
230.869	14.546	1459.234	1111.385
231.884	14.659	1457.758	1110.911
232.899	14.592	1456.789	1109.629
233.913	14.558	1455.991	1108.699
234.928	14.525	1454.867	1107.525
235.942	14.487	1453.534	1106.157
236.957	14.520	1452.419	1105.433
237.972	14.502	1451.104	1104.215
238.986	14.666	1449.227	1103.774
240.001	14.671	1448.515	1103.166
241.015	14.637	1447.512	1102.080
242.030	14.647	1446.189	1101.039
243.045	14.649	1445.655	1100.552
244.059	14.730	1444.581	1100.170
245.074	14.639	1444.015	1099.040
246.088	14.769	1443.527	1099.430
247.103	14.780	1441.966	1098.211
248.117	14.783	1441.398	1097.704
249.132	14.788	1440.223	1096.743
250.147	14.941	1439.836	1097.357
251.161	15.009	1439.003	1097.068
252.176	14.974	1438.750	1096.548
253.190	14.970	1437.703	1095.630
254.205	14.960	1436.930	1094.880
255.220	15.032	1436.100	1094.619
256.234	15.038	1435.602	1094.185
257.249	15.101	1434.295	1093.500
258.263	15.156	1433.342	1093.039
259.278	15.121	1432.705	1092.223
260.293	15.115	1431.837	1091.428
261.307	15.250	1430.643	1091.300
262.322	15.173	1430.379	1090.503
263.336	15.286	1429.482	1090.459
264.351	15.361	1428.306	1089.948
265.366	15.319	1427.212	1088.750
266.380	15.302	1426.804	1088.230
267.395	15.330	1425.337	1087.197
268.409	15.368	1424.669	1086.833
269.424	15.286	1423.854	1085.587
270.439	15.250	1423.083	1084.669
271.453	15.390	1421.459	1084.243
272.468	15.295	1420.827	1083.048
273.482	15.305	1420.163	1082.513
274.497	15.295	1418.871	1081.364
275.512	15.321	1418.199	1080.926
276.526	15.329	1417.550	1080.388
277.541	15.353	1416.346	1079.527
278.555	15.370	1415.528	1078.920
279.570	15.424	1414.439	1078.344
280.585	15.449	1413.653	1077.807
281.599	15.435	1413.071	1077.178
282.614	15.442	1411.967	1076.287
283.628	15.564	1410.579	1075.916
284.643	15.468	1409.878	1074.670
285.657	15.402	1408.630	1073.202
286.672	15.479	1407.517	1072.751
287.687	15.452	1407.272	1072.293
288.701	15.486	1405.753	1071.261
289.716	15.588	1405.207	1071.403
290.730	15.536	1404.267	1070.256
291.745	15.595	1403.242	1069.759
292.760	15.540	1402.541	1068.775
293.774	15.621	1401.038	1068.051
294.789	15.609	1399.902	1067.019
295.803	15.691	1399.156	1066.871
296.818	15.654	1398.858	1066.320
297.833	15.636	1397.673	1065.206
298.847	15.733	1396.523	1064.850
299.862	15.635	1395.733	1063.535
300.876	15.571	1394.672	1062.225
301.891	15.566	1394.086	1061.653
302.906	15.707	1393.010	1061.629
303.920	15.689	1392.444	1060.990
304.935	15.786	1391.436	1060.740
305.949	15.825	1391.092	1060.631
306.964	15.953	1389.537	1060.155
307.979	15.874	1388.514	1058.783
308.993	15.929	1388.264	1058.845
310.008	15.905	1387.134	1057.740
311.022	15.893	1385.994	1056.702
312.037	15.940	1384.944	1056.101
313.052	15.955	1384.159	1055.509
314.066	16.046	1382.820	1054.960
315.081	15.940	1381.720	1053.363
316.095	15.865	1381.216	1052.416
317.110	15.850	1380.138	1051.411
318.125	15.937	1378.966	1050.970
319.139	15.946	1378.143	1050.304
320.154	16.016	1376.975	1049.756
321.168	15.850	1376.146	1047.995
322.183	15.877	1375.431	1047.530
323.197	15.992	1374.641	1047.552
324.212	15.921	1373.744	1046.333
325.227	16.044	1372.775	1046.268
326.241	15.935	1372.011	1044.916
327.256	16.016	1370.927	1044.498
328.270	15.935	1369.689	1042.958
329.285	16.004	1369.162	1042.896
330.300	16.069	1367.934	1042.270
331.314	16.060	1366.709	1041.186
332.329	15.967	1366.771	1040.571
333.343	16.122	1365.430	1040.410
334.358	16.143	1364.481	1039.728
335.373	16.118	1364.192	1039.261
336.387	16.033	1363.562	1038.167
337.402	16.188	1362.099	1037.911
338.416	16.219	1361.430	1037.503
339.431	16.236	1360.891	1037.104
340.446	16.232	1360.535	1036.713
341.460	16.171	1359.169	1035.207
342.475	16.316	1358.236	1035.293
343.489	16.250	1357.137	1033.965
344.504	16.333	1356.200	1033.667
345.519	16.356	1355.499	1033.179
346.533	16.413	1354.474	1032.656
347.548	16.437	1353.212	1031.745
348.562	16.552	1352.504	1031.818
349.577	16.456	1351.459	1030.342
350.592	16.485	1351.235	1030.260
351.606	16.489	1350.069	1029.303
352.621	16.343	1349.026	1027.531
353.635	16.451	1347.580	1026.995
354.650	16.486	1346.817	1026.534
355.665	16.353	1346.731	1025.572
356.679	16.392	1345.483	1024.763
357.694	16.473	1344.167	1024.160
358.708	16.472	1343.135	1023.279
359.723	16.510	1341.931	1022.500
360.738	16.516	1341.010	1021.747
361.752	16.473	1339.858	1020.519
362.767	16.497	1338.896	1019.840
363.781	16.599	1337.717	1019.467
364.796	16.601	1337.122	1018.933
365.810	16.571	1336.419	1018.128
366.825	16.622	1336.079	1018.087
367.840	16.712	1334.795	1017.557
368.854	16.723	1334.013	1016.937
369.869	16.682	1333.909	1016.524
370.883	16.833	1333.127	1016.740
371.898	16.763	1332.360	1015.646
372.913	16.734	1331.595	1014.799
373.927	16.787	1330.481	1014.181
374.942	16.848	1329.633	1013.809
375.956	16.819	1329.036	1013.088
376.971	16.855	1328.434	1012.758
377.986	16.868	1327.113	1011.741
379.000	16.795	1326.865	1011.021
380.015	16.951	1325.262	1010.643
381.029	16.909	1324.981	1010.088
382.044	16.976	1324.316	1009.891
383.059	16.982	1323.525	1009.233
384.073	16.907	1323.434	1008.627
385.088	16.985	1322.362	1008.184
386.102	17.002	1321.791	1007.764
387.117	17.034	1321.003	1007.266
388.132	16.996	1320.300	1006.414
389.146	17.059	1318.969	1005.684
390.161	17.014	1318.109	1004.669
391.175	16.982	1317.713	1004.089
392.190	17.020	1316.883	1003.597
393.205	17.126	1315.548	1003.114
394.219	17.051	1314.891	1002.084
395.234	17.188	1313.160	1001.484
396.248	17.137	1312.134	1000.308
397.263	17.121	1311.066	999.313
398.278	17.186	1309.569	998.469
399.292	17.102	1308.675	997.201
400.307	17.096	1307.634	996.287
401.321	17.114	1306.509	995.444
402.336	17.134	1305.571	994.759
403.350	17.161	1304.596	994.088
404.365	17.205	1303.527	993.441
405.380	17.147	1302.730	992.409
406.394	17.235	1301.787	992.117
407.409	17.240	1301.188	991.603
408.423	17.224	1300.546	990.931
409.438	17.305	1299.774	990.724
410.453	17.387	1298.938	990.481
411.467	17.370	1297.984	989.563
412.482	17.334	1298.205	989.439
413.496	17.445	1296.962	989.045
414.511	17.440	1296.551	988.618
415.526	17.532	1295.360	988.155
416.540	17.407	1295.334	987.322
417.555	17.555	1294.169	987.207
418.569	17.478	1293.053	985.823
419.584	17.503	1293.181	985.977
420.599	17.518	1292.472	985.436
421.613	88.267	1344.164	1431.384
422.628	86.853	1351.659	1431.499
