DTS Sentinel unit serial number:	SN413079Multiplexer serial number:	ORYXHardware model number:	OX4-SRSoftware version number:	ORYX F/W v4.00 Oryx Data Collector v3.7.2.0data status	okinstallation	princeton_trtdifferential loss correction	single-endedforward channel	channel 4reverse channel	N/Adate	2019/09/19time	07:57:34forward acquisition time	60.00reverse acquisition time	0.00gamma	496.2192k internal	0.2339k external	0.2339temperature offset calibration	1.0022default loss term (dB/km)	0.3790temperature slope calibration	1.0000multiplexer offset coefficient	1.0000multiplexer slope coefficient	1.0000fibre end	0.00T internal ref (°C)	19.77T ext. ref 1 (°C)	0.56T ext. ref 2 (°C)	15.22length (m)	temperature (°C)	Stokes	anti-Stokes-747.200	330.400	0.141	0.273
-746.185	433.342	-0.095	-0.206
-745.171	-82.277	0.196	0.064
-744.156	-166.721	-0.134	-0.006
-743.142	800.000	0.084	-0.238
-742.127	-69.004	-0.154	-0.060
-741.112	800.000	0.069	0.297
-740.098	198.411	-0.468	0.718
-739.083	-44.172	0.192	-0.097
-738.069	59.174	-0.286	-0.282
-737.054	73.138	0.191	-0.200
-736.039	-66.270	-0.061	0.024
-735.025	-103.025	0.362	-0.086
-734.010	-51.118	-0.106	-0.050
-732.996	800.000	0.089	-0.306
-731.981	426.088	0.040	-0.086
-730.966	382.738	-0.147	-0.303
-729.952	653.497	-0.136	-0.349
-728.937	-23.714	-0.111	-0.067
-727.923	-75.937	-0.101	0.036
-726.908	800.000	0.057	0.195
-725.894	-200.000	0.018	0.218
-724.879	800.000	-0.054	0.155
-723.864	-87.437	-0.445	-0.135
-722.850	39.463	0.113	-0.101
-721.835	70.038	-0.182	0.188
-720.821	-26.627	-0.118	-0.069
-719.806	-23.036	0.141	-0.085
-718.791	-56.976	-0.524	-0.232
-717.777	-200.000	-0.015	-0.296
-716.762	-82.562	-0.260	0.085
-715.748	-28.018	-0.190	0.110
-714.733	-92.630	-0.205	-0.058
-713.718	800.000	0.013	0.044
-712.704	2.081	-0.135	-0.098
-711.689	19.881	-0.125	-0.101
-710.675	-200.000	0.030	-0.267
-709.660	-101.540	0.190	0.046
-708.645	246.384	0.111	0.187
-707.631	800.000	0.058	0.163
-706.616	312.196	-0.043	0.082
-705.602	3.990	-0.112	0.082
-704.587	-67.553	-0.251	-0.099
-703.572	-126.329	-0.151	0.023
-702.558	-98.776	0.152	0.039
-701.543	-55.271	0.145	-0.065
-700.529	11.515	-0.232	-0.178
-699.514	-81.112	-0.287	-0.095
-698.499	89.926	-0.086	-0.096
-697.485	800.000	0.057	-0.180
-696.470	126.161	-0.057	0.073
-695.456	-176.163	-0.256	0.007
-694.441	-8.888	-0.086	0.058
-693.426	800.000	0.107	0.330
-692.412	28.776	-0.164	0.139
-691.397	-43.724	0.117	0.059
-690.383	-60.051	-0.359	-0.153
-689.368	308.095	0.125	-0.233
-688.354	188.102	-0.124	-0.185
-687.339	312.339	-0.090	-0.170
-686.324	800.000	0.067	0.269
-685.310	49.488	-0.034	0.032
-684.295	181.816	-0.286	0.421
-683.281	-200.000	-0.070	0.382
-682.266	-52.765	0.324	-0.149
-681.251	429.381	0.136	-0.295
-680.237	-200.000	-0.011	0.135
-679.222	274.810	-0.118	-0.209
-678.208	41.516	-0.188	0.171
-677.193	60.172	0.132	0.130
-676.178	-65.232	-0.156	0.063
-675.164	-134.524	-0.151	-0.018
-674.149	55.946	-0.229	0.222
-673.135	-114.863	-0.080	0.015
-672.120	189.750	-0.094	-0.140
-671.105	48.314	-0.209	0.195
-670.091	343.565	-0.138	-0.271
-669.076	-200.000	-0.034	0.355
-668.062	188.399	0.114	-0.170
-667.047	800.000	-0.048	-0.173
-666.032	138.017	0.193	-0.253
-665.018	-200.000	0.037	0.234
-664.003	800.000	-0.087	-0.268
-662.989	-112.015	-0.376	-0.076
-661.974	68.316	-0.071	-0.073
-660.959	87.486	0.063	-0.070
-659.945	-200.000	-0.081	-0.417
-658.930	-200.000	-0.007	0.073
-657.916	-107.251	-0.235	0.052
-656.901	69.133	-0.236	0.243
-655.886	-104.309	0.365	0.085
-654.872	-200.000	-0.052	0.417
-653.857	524.018	-0.106	0.249
-652.843	470.510	-0.037	-0.084
-651.828	-11.575	-0.280	-0.184
-650.814	-155.772	0.215	0.014
-649.799	53.206	0.164	0.157
-648.784	20.455	0.287	-0.231
-647.770	800.000	0.060	0.220
-646.755	800.000	-0.022	0.088
-645.741	800.000	-0.079	-0.294
-644.726	57.493	-0.143	0.139
-643.711	-91.044	0.218	-0.063
-642.697	7.931	0.133	-0.099
-641.682	800.000	0.017	-0.054
-640.668	-194.391	-0.138	0.001
-639.653	33.038	-0.352	-0.305
-638.638	800.000	0.044	0.149
-637.624	560.071	0.048	0.115
-636.609	-134.968	-0.181	0.022
-635.595	733.288	0.099	-0.265
-634.580	-200.000	0.010	0.165
-633.565	-76.686	0.497	0.174
-632.551	800.000	-0.027	-0.105
-631.536	648.356	-0.027	-0.069
-630.522	-200.000	-0.003	0.053
-629.507	-180.915	-0.205	-0.004
-628.492	124.831	0.322	-0.405
-627.478	-84.861	-0.107	0.034
-626.463	-148.199	-0.107	0.009
-625.449	6.844	0.081	0.060
-624.434	504.738	0.105	0.242
-623.419	-157.878	-0.301	-0.018
-622.405	118.899	0.247	0.304
-621.390	-200.000	-0.030	0.402
-620.376	761.653	-0.047	-0.128
-619.361	277.864	0.130	0.232
-618.346	-73.285	-0.299	-0.109
-617.332	-70.827	0.281	0.106
-616.317	-106.127	-0.213	0.048
-615.303	-200.000	0.031	0.271
-614.288	31.729	-0.161	-0.138
-613.273	-200.000	0.019	0.090
-612.259	-200.000	-0.011	0.153
-611.244	-41.778	-0.200	0.102
-610.230	-4.660	0.221	0.152
-609.215	17.915	0.040	0.032
-608.201	-76.525	0.317	-0.111
-607.186	82.517	0.104	0.113
-606.171	-125.600	0.155	-0.023
-605.157	-96.044	0.097	0.026
-604.142	-200.000	0.025	0.254
-603.128	800.000	-0.079	0.248
-602.113	29.621	-0.261	0.221
-601.098	507.312	-0.099	0.228
-600.084	-12.324	0.040	-0.026
-599.069	-146.492	0.269	-0.023
-598.055	-200.000	-0.010	0.248
-597.040	471.377	0.127	-0.285
-596.025	-76.190	-0.190	0.067
-595.011	431.341	-0.080	0.174
-593.996	611.936	0.098	-0.243
-592.982	-58.719	-0.355	-0.153
-591.967	-118.020	-0.205	-0.037
-590.952	800.000	-0.049	-0.163
-589.938	-96.673	0.171	-0.045
-588.923	-175.926	-0.033	-0.001
-587.909	313.446	0.153	-0.287
-586.894	-91.137	-0.210	0.060
-585.879	-93.895	-0.274	0.075
-584.865	187.333	0.099	0.146
-583.850	-181.812	0.183	0.003
-582.836	-22.151	0.126	-0.076
-581.821	26.715	0.328	0.273
-580.806	243.661	-0.189	-0.316
-579.792	800.000	-0.035	-0.107
-578.777	-119.657	-0.088	0.015
-577.763	-70.844	-0.390	-0.146
-576.748	327.332	-0.078	0.150
-575.733	-63.596	-0.147	0.060
-574.719	191.423	0.036	0.054
-573.704	282.904	0.060	0.108
-572.690	-34.392	0.280	0.153
-571.675	-40.203	-0.053	-0.027
-570.661	139.570	0.103	0.135
-569.646	-98.179	-0.144	-0.037
-568.631	-200.000	-0.049	0.252
-567.617	126.858	-0.315	-0.398
-566.602	-200.000	0.029	-0.228
-565.588	168.166	-0.125	-0.177
-564.573	51.337	-0.170	-0.161
-563.558	-200.000	0.016	-0.134
-562.544	-19.573	0.166	0.103
-561.529	-200.000	0.013	-0.072
-560.515	-27.859	-0.338	-0.195
-559.500	-200.000	0.046	0.209
-558.485	-180.176	0.183	-0.004
-557.471	-13.944	-0.107	-0.069
-556.456	-177.155	-0.497	0.012
-555.442	329.020	0.086	0.164
-554.427	800.000	0.047	-0.132
-553.412	177.029	0.240	0.348
-552.398	207.376	0.129	0.200
-551.383	103.692	0.227	-0.265
-550.369	-200.000	-0.033	0.356
-549.354	800.000	0.054	-0.205
-548.339	-35.252	-0.159	0.086
-547.325	-55.167	0.310	0.139
-546.310	177.523	-0.200	0.290
-545.296	-38.387	0.230	0.121
-544.281	-86.929	0.063	-0.019
-543.266	800.000	0.049	-0.185
-542.252	-200.000	0.004	0.159
-541.237	-17.622	-0.192	-0.120
-540.223	-58.348	0.228	0.099
-539.208	800.000	0.029	-0.115
-538.193	800.000	0.071	0.311
-537.179	-20.571	-0.110	0.067
-536.164	123.240	0.025	-0.032
-535.150	-200.000	-0.047	-0.217
-534.135	-81.154	-0.416	-0.137
-533.121	-4.238	0.134	0.092
-532.106	-60.081	0.227	0.096
-531.091	61.833	0.139	0.138
-530.077	-99.104	0.081	0.020
-529.062	25.575	-0.199	-0.164
-528.048	30.989	0.130	0.111
-527.033	-101.145	-0.155	0.038
-526.018	50.574	0.137	0.128
-525.004	-145.145	-0.239	0.022
-523.989	-43.151	-0.164	0.082
-522.975	-62.948	-0.304	-0.125
-521.960	-200.000	0.020	-0.283
-520.945	-31.693	-0.176	0.098
-519.931	293.152	-0.154	0.279
-518.916	109.170	-0.109	0.130
-517.902	9.918	0.187	-0.141
-516.887	-95.704	-0.226	-0.060
-515.872	-12.952	0.142	0.092
-514.858	-200.000	0.019	-0.282
-513.843	-200.000	0.017	-0.128
-512.829	-57.354	0.342	-0.149
-511.814	-153.683	-0.178	0.012
-510.799	134.755	0.129	0.167
-509.785	-200.000	-0.005	0.162
-508.770	-48.181	0.311	-0.149
-507.756	27.540	0.060	-0.051
-506.741	220.165	-0.039	-0.061
-505.726	-49.000	-0.075	-0.036
-504.712	-136.394	0.324	0.037
-503.697	800.000	-0.059	-0.241
-502.683	108.003	0.152	-0.180
-501.668	-200.000	-0.022	0.096
-500.653	-28.684	-0.396	0.226
-499.639	-200.000	-0.014	-0.343
-498.624	-200.000	0.019	-0.231
-497.610	241.594	-0.215	0.357
-496.595	319.660	0.106	-0.200
-495.581	-108.096	0.341	-0.073
-494.566	21.832	-0.312	0.252
-493.551	-200.000	0.064	-0.303
-492.537	16.931	0.170	-0.134
-491.522	-200.000	-0.035	-0.231
-490.508	-200.000	0.034	-0.447
-489.493	4.672	0.219	-0.160
-488.478	571.967	0.028	-0.067
-487.464	-41.694	-0.162	-0.083
-486.449	-7.428	0.216	-0.145
-485.435	290.044	0.051	0.092
-484.420	9.869	-0.220	-0.165
-483.405	-200.000	0.067	-0.363
-482.391	66.982	0.322	-0.325
-481.376	800.000	-0.150	0.423
-480.362	185.403	0.163	0.240
-479.347	-200.000	0.004	0.027
-478.332	222.728	0.105	0.167
-477.318	52.110	-0.129	-0.122
-476.303	-2.551	-0.350	0.243
-475.289	93.231	-0.124	-0.140
-474.274	-99.442	0.292	-0.073
-473.259	213.332	-0.077	0.121
-472.245	-135.470	0.106	0.013
-471.230	800.000	0.073	0.229
-470.216	-200.000	0.076	-0.390
-469.201	800.000	-0.076	-0.273
-468.186	67.796	-0.092	0.093
-467.172	-69.590	0.137	0.052
-466.157	355.301	0.118	-0.232
-465.143	458.168	0.048	0.106
-464.128	442.681	0.131	0.285
-463.113	368.533	-0.089	-0.179
-462.099	800.000	0.081	0.252
-461.084	-1.586	-0.153	-0.107
-460.070	517.281	-0.023	0.054
-459.055	-200.000	-0.021	-0.150
-458.040	-149.259	-0.375	-0.030
-457.026	506.623	-0.045	0.104
-456.011	612.018	-0.062	-0.155
-454.997	-19.789	0.051	-0.031
-453.982	-147.859	0.205	0.017
-452.968	-36.790	-0.107	-0.057
-451.953	800.000	0.058	0.191
-450.938	-54.886	-0.235	-0.105
-449.924	-84.495	0.104	0.033
-448.909	-131.506	-0.338	-0.044
-447.895	-200.000	0.003	-0.223
-446.880	-139.231	0.296	0.032
-445.865	43.827	0.162	0.147
-444.851	386.881	-0.015	0.030
-443.836	-80.277	-0.635	-0.211
-442.822	-200.000	0.019	0.175
-441.807	2.269	0.195	0.140
-440.792	27.624	-0.262	-0.219
-439.778	-200.000	-0.036	0.381
-438.763	22.969	0.386	0.314
-437.749	106.283	-0.144	-0.169
-436.734	-58.538	0.053	-0.023
-435.719	800.000	-0.015	-0.057
-434.705	15.743	0.215	-0.167
-433.690	-149.639	-0.227	-0.018
-432.676	219.929	-0.024	-0.038
-431.661	-115.735	0.168	0.031
-430.646	-54.871	-0.063	0.028
-429.632	308.432	0.098	-0.182
-428.617	800.000	0.055	0.201
-427.603	-200.000	-0.013	0.088
-426.588	314.505	0.099	-0.184
-425.573	561.860	0.075	-0.180
-424.559	-71.938	0.115	-0.042
-423.544	65.547	0.125	0.126
-422.530	-200.000	-0.034	0.189
-421.515	-38.377	0.134	-0.070
-420.500	-87.470	0.205	0.061
-419.486	69.776	-0.263	0.268
-418.471	-200.000	0.043	0.277
-417.457	-200.000	-0.012	0.064
-416.442	65.490	0.147	-0.147
-415.428	-119.428	-0.236	0.041
-414.413	-132.334	0.160	-0.020
-413.398	11.780	0.044	-0.034
-412.384	7.861	-0.124	0.092
-411.369	-200.000	0.000	-0.097
-410.355	800.000	0.043	-0.154
-409.340	800.000	-0.042	0.174
-408.325	-200.000	-0.025	-0.483
-407.311	528.989	-0.138	-0.323
-406.296	38.295	-0.029	-0.026
-405.282	-133.446	-0.073	0.009
-404.267	-66.965	-0.247	-0.097
-403.252	-110.608	0.239	0.049
-402.238	92.210	0.075	-0.084
-401.223	800.000	-0.097	-0.348
-400.209	136.864	-0.138	0.179
-399.194	800.000	0.018	-0.079
-398.179	800.000	-0.082	-0.275
-397.165	800.000	-0.066	0.190
-396.150	-43.766	-0.321	-0.160
-395.136	397.532	-0.137	0.283
-394.121	-200.000	0.034	-0.163
-393.106	53.053	0.075	0.071
-392.092	218.159	-0.315	-0.498
-391.077	13.060	-0.161	-0.123
-390.063	-59.702	-0.182	0.077
-389.048	-34.856	-0.025	0.013
-388.033	182.273	0.052	0.076
-387.019	-200.000	-0.040	-0.183
-386.004	-54.603	-0.249	-0.111
-384.990	93.404	0.153	0.172
-383.975	-61.533	-0.266	0.110
-382.960	20.617	0.141	-0.113
-381.946	333.764	0.014	0.027
-380.931	-165.916	0.068	0.003
-379.917	800.000	-0.108	-0.408
-378.902	-188.611	-0.164	0.002
-377.888	-31.542	-0.184	0.102
-376.873	144.395	0.148	0.195
-375.858	-133.419	0.211	0.026
-374.844	-42.865	-0.046	-0.023
-373.829	800.000	0.027	0.105
-372.815	800.000	0.102	0.283
-371.800	-37.502	-0.257	-0.135
-370.785	-138.573	0.214	0.023
-369.771	104.577	0.032	0.037
-368.756	-107.075	-0.216	-0.047
-367.742	-111.671	0.076	0.015
-366.727	-200.000	-0.006	0.152
-365.712	-87.776	0.071	0.021
-364.698	-114.397	0.170	0.032
-363.683	112.052	0.229	0.273
-362.669	-132.564	-0.324	-0.041
-361.654	-167.740	-0.284	-0.011
-360.639	193.576	-0.118	0.176
-359.625	-155.324	-0.335	-0.021
-358.610	39.296	-0.054	0.048
-357.596	-112.043	0.404	0.080
-356.581	-200.000	-0.017	-0.165
-355.566	-144.288	-0.176	0.016
-354.552	-157.019	0.181	0.011
-353.537	398.943	0.088	-0.181
-352.523	800.000	0.053	-0.147
-351.508	800.000	-0.052	-0.186
-350.493	-3.955	0.032	0.022
-349.479	-57.234	0.208	0.090
-348.464	-200.000	-0.006	-0.121
-347.450	-86.790	0.231	-0.070
-346.435	345.246	-0.139	-0.269
-345.420	-200.000	0.048	-0.232
-344.406	160.203	-0.089	-0.122
-343.391	251.226	0.186	-0.312
-342.377	-200.000	-0.023	0.125
-341.362	-200.000	-0.026	0.149
-340.348	-200.000	0.011	0.188
-339.333	56.377	-0.066	0.063
-338.318	-80.479	0.188	0.062
-337.304	172.481	-0.031	0.044
-336.289	-104.697	-0.289	-0.066
-335.275	-148.156	-0.038	0.003
-334.260	-200.000	0.065	0.332
-333.245	141.274	-0.107	0.139
-332.231	-187.744	0.189	0.002
-331.216	-200.000	0.010	0.221
-330.202	84.938	0.221	0.239
-329.187	-71.850	-0.148	-0.054
-328.172	-200.000	-0.008	-0.402
-327.158	800.000	0.033	0.091
-326.143	-129.917	0.097	0.013
-325.129	800.000	-0.030	-0.114
-324.114	-134.811	-0.401	-0.048
-323.099	61.159	-0.331	-0.324
-322.085	-200.000	0.125	-0.564
-321.070	-26.945	-0.185	0.106
-320.056	-69.252	0.146	0.055
-319.041	55.582	-0.117	-0.112
-318.026	195.629	0.213	0.320
-317.012	-70.771	0.026	0.010
-315.997	54.555	0.161	-0.153
-314.983	356.054	0.129	-0.254
-313.968	-188.019	0.157	-0.002
-312.953	-99.675	0.181	0.045
-311.939	-97.901	0.176	-0.045
-310.924	-81.227	-0.195	0.064
-309.910	10.037	-0.154	0.115
-308.895	94.125	-0.016	-0.018
-307.880	335.504	-0.136	-0.259
-306.866	-186.384	-0.187	-0.003
-305.851	171.998	-0.127	-0.179
-304.837	-26.813	-0.264	0.152
-303.822	211.550	-0.047	-0.073
-302.807	-148.117	0.343	-0.028
-301.793	320.073	0.061	0.114
-300.778	84.111	-0.079	0.085
-299.764	42.932	-0.209	0.188
-298.749	121.242	-0.061	-0.075
-297.735	-31.875	-0.157	0.087
-296.720	-17.959	0.133	0.082
-295.705	-105.155	-0.131	0.029
-294.691	800.000	0.022	0.075
-293.676	-123.723	0.162	0.025
-292.662	14.760	0.150	0.116
-291.647	800.000	0.088	0.240
-290.632	83.482	0.063	-0.067
-289.618	-126.734	0.093	0.014
-288.603	164.571	0.234	0.325
-287.589	344.873	-0.087	0.168
-286.574	800.000	-0.028	0.080
-285.559	-48.786	0.161	-0.076
-284.545	800.000	0.090	-0.355
-283.530	-38.280	0.190	-0.099
-282.516	228.938	-0.140	-0.225
-281.501	-58.614	-0.121	-0.052
-280.486	-200.000	-0.036	-0.399
-279.472	-91.879	0.163	0.045
-278.457	-99.795	-0.186	0.046
-277.443	-200.000	0.000	-0.228
-276.428	-67.066	-0.187	0.073
-275.413	196.679	-0.158	0.237
-274.399	-200.000	0.007	-0.071
-273.384	61.080	-0.303	0.297
-272.370	800.000	-0.050	-0.202
-271.355	-59.442	0.375	0.159
-270.340	245.482	0.042	-0.069
-269.326	-200.000	-0.046	0.295
-268.311	-47.749	0.309	-0.147
-267.297	-20.112	0.258	-0.156
-266.282	120.803	-0.292	0.357
-265.267	-68.437	0.136	0.052
-264.253	-1.979	-0.185	0.128
-263.238	-122.818	-0.362	0.058
-262.224	-82.703	0.177	-0.056
-261.209	-200.000	0.043	-0.225
-260.195	124.129	-0.180	-0.223
-259.180	253.952	-0.104	0.175
-258.165	-200.000	0.007	-0.057
-257.151	-200.000	-0.008	-0.159
-256.136	-126.204	0.335	0.049
-255.122	-76.706	0.109	-0.038
-254.107	-200.000	0.020	0.109
-253.092	-93.811	0.175	0.047
-252.078	38.013	-0.142	0.124
-251.063	-200.000	-0.026	0.253
-250.049	50.977	-0.316	0.294
-249.034	-147.751	-0.233	-0.019
-248.019	-163.721	0.160	-0.007
-247.005	-200.000	0.001	0.240
-245.990	22.801	0.185	-0.149
-244.976	800.000	0.042	0.124
-243.961	-78.178	-0.127	0.043
-242.946	269.487	-0.149	0.257
-241.932	-117.929	0.209	-0.037
-240.917	-146.230	0.154	0.013
-239.903	800.000	-0.024	0.076
-238.888	-110.242	0.167	-0.034
-237.873	-10.770	0.148	-0.096
-236.859	-200.000	0.004	-0.354
-235.844	-200.000	0.060	0.324
-234.830	132.705	0.105	-0.133
-233.815	32.540	0.201	-0.171
-232.800	-5.110	-0.016	0.011
-231.786	-124.707	-0.224	-0.034
-230.771	-89.668	-0.149	-0.043
-229.757	-73.247	0.337	-0.121
-228.742	-152.931	-0.336	-0.023
-227.727	68.568	0.207	-0.209
-226.713	800.000	-0.016	0.044
-225.698	800.000	0.036	-0.132
-224.684	-151.065	-0.230	-0.017
-223.669	-22.214	-0.260	-0.155
-222.655	-44.748	-0.181	0.089
-221.640	-200.000	-0.001	0.039
-220.625	-174.592	-0.040	0.001
-219.611	386.008	0.142	0.289
-218.596	85.465	0.134	-0.144
-217.582	-200.000	0.020	0.196
-216.567	-163.043	-0.070	-0.003
-215.552	70.931	0.172	0.175
-214.538	800.000	0.040	0.154
-213.523	-200.000	-0.010	0.455
-212.509	-200.000	-0.031	0.343
-211.494	297.539	-0.037	0.066
-210.479	78.017	-0.193	0.202
-209.465	-200.000	-0.016	0.177
-208.450	-200.000	0.001	0.474
-207.436	-200.000	0.019	-0.106
-206.421	8.251	0.084	0.062
-205.406	-130.659	-0.169	0.022
-204.392	148.166	0.080	-0.106
-203.377	-200.000	0.028	0.199
-202.363	69.018	-0.314	-0.317
-201.348	-200.000	0.003	0.162
-200.333	800.000	0.044	-0.180
-199.319	-129.227	0.324	-0.044
-198.304	800.000	0.033	0.117
-197.290	206.694	-0.154	0.236
-196.275	800.000	0.054	0.152
-195.260	-129.754	0.207	-0.028
-194.246	800.000	-0.107	-0.330
-193.231	117.899	0.185	-0.223
-192.217	-25.963	-0.228	-0.131
-191.202	166.434	-0.126	0.176
-190.187	12.048	0.118	0.089
-189.173	66.529	-0.217	-0.216
-188.158	-149.745	-0.236	-0.018
-187.144	-64.600	0.069	-0.028
-186.129	38.004	0.337	0.294
-185.114	800.000	-0.099	0.379
-184.100	312.297	0.061	-0.112
-183.085	-200.000	-0.020	0.085
-182.071	270.370	0.061	-0.105
-181.056	66.803	-0.040	-0.040
-180.042	157.483	0.122	-0.166
-179.027	411.627	-0.083	-0.174
-178.012	-52.185	0.176	-0.080
-176.998	-54.978	0.283	0.125
-175.983	224.569	0.066	-0.104
-174.969	-200.000	-0.007	-0.060
-173.954	-130.134	0.139	0.019
-172.939	-1.771	-0.109	0.075
-171.925	-60.394	-0.073	-0.030
-170.910	215.370	0.187	-0.292
-169.896	-28.686	-0.112	0.063
-168.881	-92.590	0.053	0.015
-167.866	350.141	-0.110	-0.212
-166.852	32.769	0.232	-0.197
-165.837	59.588	0.178	-0.172
-164.823	800.000	-0.088	-0.355
-163.808	325.424	0.034	-0.065
-162.793	-88.270	0.255	-0.075
-161.779	800.000	0.063	0.249
-160.764	72.994	-0.120	-0.123
-159.750	78.235	-0.083	-0.087
-158.735	-200.000	-0.031	0.458
-157.720	115.784	0.119	0.143
-156.706	-22.036	0.199	-0.119
-155.691	-117.613	-0.079	0.014
-154.677	-115.587	0.189	0.035
-153.662	251.449	-0.067	0.111
-152.647	132.557	0.235	-0.297
-151.633	31.496	-0.138	0.116
-150.618	-200.000	-0.010	0.385
-149.604	181.846	0.069	0.100
-148.589	-62.452	0.039	-0.016
-147.574	26.167	0.189	0.154
-146.560	254.619	0.008	0.014
-145.545	-91.166	-0.362	-0.102
-144.531	-51.743	-0.173	0.079
-143.516	-123.449	0.165	0.026
-142.502	-200.000	-0.020	0.121
-141.487	-86.086	-0.154	0.046
-140.472	-59.063	0.352	-0.149
-139.458	110.459	0.114	0.134
-138.443	372.388	-0.061	0.120
-137.429	-71.200	0.216	0.080
-136.414	-99.448	-0.169	-0.042
-135.399	-200.000	0.064	0.384
-134.385	-121.786	-0.201	0.032
-133.370	354.577	-0.044	-0.085
-132.356	225.944	-0.079	-0.125
-131.341	230.947	0.081	0.129
-130.326	-86.144	0.090	0.027
-129.312	800.000	-0.075	0.230
-128.297	157.382	0.070	0.095
-127.283	-10.756	-0.074	0.048
-126.268	-64.383	0.234	-0.093
-125.253	-64.933	0.165	-0.065
-124.239	-200.000	-0.012	-0.086
-123.224	-49.368	0.176	0.082
-122.210	800.000	0.090	0.360
-121.195	-81.832	-0.147	-0.047
-120.180	800.000	-0.069	0.189
-119.166	43.916	0.346	-0.311
-118.151	-200.000	-0.010	0.105
-117.137	670.815	0.100	-0.253
-116.122	-142.749	-0.125	0.012
-115.107	-81.272	0.221	0.071
-114.093	461.711	0.014	0.031
-113.078	-200.000	0.052	0.394
-112.064	-200.000	0.001	0.260
-111.049	-21.105	0.127	-0.076
-110.034	207.657	0.295	0.451
-109.020	350.112	-0.062	0.120
-108.005	645.938	-0.053	-0.131
-106.991	800.000	0.141	-0.393
-105.976	654.299	-0.076	0.191
-104.962	206.280	-0.159	-0.242
-103.947	-200.000	0.032	-0.226
-102.932	10.408	-0.105	0.078
-101.918	800.000	-0.046	-0.189
-100.903	800.000	-0.059	-0.186
-99.889	-119.295	-0.135	-0.023
-98.874	-103.725	0.128	0.029
-97.859	-40.163	-0.269	-0.137
-96.845	-26.751	0.307	-0.176
-95.830	-200.000	0.023	-0.110
-94.816	451.226	0.107	0.231
-93.801	-24.741	-0.148	-0.086
-92.786	27.833	-0.274	-0.226
-91.772	157.682	0.211	-0.285
-90.757	-200.000	-0.022	0.095
-89.743	-51.309	0.200	-0.092
-88.728	246.573	0.086	-0.143
-87.713	800.000	0.092	-0.287
-86.699	-148.101	-0.276	0.022
-85.684	-200.000	-0.020	-0.199
-84.670	-141.127	-0.068	0.007
-83.655	-28.562	-0.023	-0.013
-82.640	-6.211	-0.170	0.114
-81.626	-177.233	-0.127	-0.003
-80.611	-24.806	-0.281	0.163
-79.597	-53.020	0.042	0.019
-78.582	488.772	-0.077	0.173
-77.567	331.345	0.131	0.246
-76.553	142.146	0.161	-0.209
-75.538	-31.945	0.247	-0.135
-74.524	-200.000	0.018	-0.121
-73.509	-108.409	-0.125	0.026
-72.494	173.557	-0.240	0.338
-71.480	-200.000	-0.085	0.408
-70.465	-200.000	0.054	0.303
-69.451	24.962	0.095	-0.077
-68.436	741.578	-0.096	0.251
-67.422	-143.670	-0.271	0.025
-66.407	800.000	-0.072	-0.220
-65.392	-79.626	0.053	-0.018
-64.378	-79.541	-0.017	0.006
-63.363	41.814	-0.137	-0.122
-62.349	41.027	-0.088	0.078
-61.334	20.098	-1.290	-1.016
-60.319	213.840	0.769	1.188
-59.305	330.923	-0.660	-1.243
-58.290	125.608	1.123	1.384
-57.276	800.000	0.530	1.471
-56.261	-200.000	134.848	640.191
-55.246	331.724	1659.832	3125.621
-54.232	132.258	2812.091	3536.631
-53.217	76.250	2356.330	2435.391
-52.203	25.872	2097.196	1706.242
-51.188	21.300	2015.213	1597.767
-50.173	20.413	2000.171	1577.728
-49.159	38.299	2079.048	1807.052
-48.144	35.607	2088.971	1790.559
-47.130	21.773	2041.267	1622.551
-46.115	19.802	2030.070	1595.425
-45.100	19.712	2027.419	1592.449
-44.086	19.682	2024.441	1589.765
-43.071	19.686	2022.042	1587.861
-42.057	19.606	2020.347	1585.734
-41.042	19.693	2018.172	1584.757
-40.027	19.606	2016.513	1582.597
-39.013	19.668	2014.347	1581.398
-37.998	19.628	2013.267	1580.121
-36.984	19.719	2010.750	1578.914
-35.969	19.673	2009.378	1577.352
-34.954	19.678	2007.401	1575.786
-33.940	19.723	2006.542	1575.459
-32.925	19.809	2004.488	1574.572
-31.911	19.688	2003.678	1572.765
-30.896	19.780	2001.910	1572.152
-29.881	19.754	2000.370	1570.650
-28.867	19.815	1998.460	1569.635
-27.852	19.735	1996.795	1567.541
-26.838	19.869	1994.605	1566.973
-25.823	19.812	1992.642	1564.854
-24.809	19.764	1991.116	1563.159
-23.794	19.821	1989.647	1562.462
-22.779	19.888	1987.421	1561.254
-21.765	19.856	1985.877	1559.692
-20.750	19.819	1984.436	1558.167
-19.736	19.799	1983.089	1556.861
-18.721	19.813	1981.111	1555.374
-17.706	19.819	1979.945	1554.457
-16.692	19.739	1978.127	1552.246
-15.677	19.731	1976.838	1551.102
-14.663	19.813	1975.190	1550.482
-13.648	19.843	1973.767	1549.572
-12.633	19.782	1972.738	1548.158
-11.619	19.684	1972.321	1546.894
-10.604	19.781	1970.145	1545.991
-9.590	19.808	1968.751	1545.076
-8.575	19.745	1967.295	1543.310
-7.560	19.837	1965.679	1542.800
-6.546	19.773	1964.783	1541.466
-5.531	19.796	1963.519	1540.615
-4.517	19.800	1962.281	1539.626
-3.502	19.717	1961.455	1538.174
-2.487	19.775	1959.650	1537.212
-1.473	19.896	1958.484	1537.311
-0.458	19.872	1953.428	1533.065
0.556	18.673	1934.292	1506.433
1.571	14.890	1916.864	1459.755
2.586	11.368	1941.749	1447.385
3.600	10.745	1977.452	1468.231
4.615	10.754	1970.479	1463.006
5.629	8.616	1868.833	1369.136
6.644	3.538	1757.871	1246.775
7.659	0.764	1727.548	1203.106
8.673	0.535	1724.906	1199.342
9.688	0.635	1723.643	1199.153
10.702	0.569	1722.255	1197.559
11.717	0.491	1718.049	1193.912
12.731	0.811	1716.117	1194.992
13.746	4.753	1724.211	1231.767
14.761	11.396	1737.950	1294.317
15.775	15.974	1746.678	1337.115
16.790	17.010	1747.903	1346.159
17.804	16.118	1744.777	1336.563
18.819	15.297	1741.369	1327.345
19.834	14.664	1738.739	1320.215
20.848	14.379	1737.136	1316.632
21.863	14.228	1735.764	1314.278
22.877	13.984	1733.874	1310.807
23.892	13.712	1732.620	1307.599
24.907	13.628	1731.296	1305.821
25.921	13.562	1730.396	1304.512
26.936	13.522	1729.723	1303.572
27.950	13.582	1728.733	1303.180
28.965	13.640	1728.408	1303.276
29.980	13.716	1726.595	1302.388
30.994	13.676	1726.334	1301.763
32.009	13.723	1725.556	1301.431
33.023	13.746	1725.090	1301.150
34.038	13.770	1723.884	1300.312
35.053	13.856	1722.377	1299.734
36.067	13.739	1721.010	1297.673
37.082	13.752	1720.271	1297.099
38.096	13.786	1719.076	1296.351
39.111	13.799	1718.585	1295.966
40.126	13.801	1717.523	1295.069
41.140	13.808	1716.451	1294.200
42.155	13.696	1714.937	1292.066
43.169	13.600	1713.955	1290.468
44.184	13.578	1712.905	1289.389
45.199	13.571	1711.562	1288.212
46.213	13.571	1710.123	1287.011
47.228	13.622	1708.647	1286.181
48.242	13.701	1707.207	1285.597
49.257	13.703	1706.266	1284.797
50.271	13.627	1705.619	1283.604
51.286	13.672	1703.856	1282.513
52.301	13.725	1702.370	1281.687
53.315	13.692	1701.219	1280.451
54.330	13.673	1699.495	1278.898
55.344	13.671	1697.766	1277.469
56.359	13.706	1695.830	1276.168
57.374	13.629	1695.169	1274.963
58.388	13.602	1694.139	1273.873
59.403	13.529	1692.666	1272.088
60.417	13.520	1691.641	1271.135
61.432	13.562	1690.145	1270.223
62.447	13.581	1688.510	1269.024
63.461	13.626	1687.416	1268.437
64.476	13.534	1686.755	1267.123
65.490	13.532	1685.018	1265.692
66.505	13.533	1683.643	1264.556
67.520	13.481	1682.949	1263.523
68.534	13.511	1682.591	1263.369
69.549	13.559	1680.819	1262.300
70.563	13.592	1679.221	1261.238
71.578	13.545	1678.117	1259.935
72.593	13.542	1677.033	1258.988
73.607	13.591	1675.942	1258.428
74.622	13.482	1674.919	1256.727
75.636	13.532	1673.719	1256.091
76.651	13.410	1673.309	1254.749
77.666	13.459	1672.344	1254.284
78.680	13.475	1671.225	1253.459
79.695	13.420	1670.543	1252.416
80.709	13.467	1668.853	1251.394
81.724	13.562	1668.033	1251.383
82.739	13.535	1667.024	1250.311
83.753	13.550	1666.177	1249.685
84.768	13.620	1664.756	1249.036
85.782	13.687	1663.995	1248.853
86.797	13.717	1663.007	1248.232
87.812	13.711	1662.058	1247.359
88.826	13.652	1660.482	1245.627
89.841	13.602	1659.468	1244.383
90.855	13.629	1658.503	1243.751
91.870	13.522	1657.670	1242.210
92.884	13.751	1655.756	1242.384
93.899	13.817	1654.813	1242.060
94.914	13.785	1653.628	1240.822
95.928	13.774	1652.431	1239.731
96.943	13.743	1651.185	1238.452
97.957	13.747	1649.553	1237.152
98.972	13.696	1648.342	1235.755
99.987	13.725	1646.540	1234.504
101.001	13.647	1645.079	1232.724
102.016	13.807	1643.254	1232.433
103.030	13.719	1642.358	1230.997
104.045	13.639	1641.048	1229.318
105.060	13.665	1639.551	1228.276
106.074	13.638	1638.544	1227.218
107.089	13.632	1636.513	1225.544
108.103	13.588	1635.019	1223.989
109.118	13.555	1633.480	1222.486
110.133	13.638	1631.575	1221.566
111.147	13.530	1630.458	1219.826
112.162	13.629	1628.978	1219.338
113.176	13.649	1627.090	1217.964
114.191	13.591	1626.420	1216.930
115.206	13.736	1624.360	1216.346
116.220	13.663	1623.684	1215.196
117.235	13.653	1621.955	1213.718
118.249	13.632	1620.882	1212.653
119.264	13.669	1619.831	1212.029
120.279	13.697	1617.903	1210.685
121.293	13.620	1616.529	1208.991
122.308	13.649	1615.062	1207.996
123.322	13.644	1613.584	1206.748
124.337	13.620	1612.007	1205.286
125.352	13.629	1610.824	1204.362
126.366	13.591	1609.786	1203.200
127.381	13.586	1608.596	1202.174
128.395	13.593	1607.638	1201.397
129.410	13.641	1605.682	1200.183
130.424	13.554	1604.590	1198.627
131.439	13.605	1603.378	1197.981
132.454	13.575	1602.066	1196.680
133.468	13.761	1600.158	1196.490
134.483	13.713	1598.919	1195.115
135.497	13.725	1597.402	1193.960
136.512	13.737	1596.267	1193.094
137.527	13.697	1594.725	1191.551
138.541	13.635	1593.718	1190.246
139.556	13.709	1592.397	1189.685
140.570	13.650	1590.927	1188.055
141.585	13.711	1589.361	1187.219
142.600	13.803	1588.182	1186.891
143.614	13.941	1586.734	1186.692
144.629	13.814	1585.876	1185.038
145.643	13.933	1583.742	1184.183
146.658	13.960	1582.858	1183.614
147.673	13.911	1581.012	1181.777
148.687	13.916	1579.651	1180.692
149.702	13.897	1578.244	1179.404
150.716	13.880	1576.515	1177.883
151.731	13.878	1575.094	1176.701
152.746	13.802	1574.229	1175.412
153.760	13.831	1572.455	1174.192
154.775	13.833	1571.143	1173.122
155.789	13.867	1570.090	1172.473
156.804	14.062	1568.334	1172.436
157.819	13.980	1567.184	1170.894
158.833	13.998	1566.307	1170.259
159.848	14.000	1565.061	1169.241
160.862	14.022	1563.606	1168.202
161.877	14.039	1562.645	1167.501
162.892	14.035	1561.413	1166.449
163.906	14.001	1560.115	1165.138
164.921	13.923	1558.736	1163.463
165.935	13.949	1557.796	1162.839
166.950	13.949	1556.570	1161.815
167.964	14.021	1555.220	1161.210
168.979	14.011	1554.108	1160.211
169.994	14.038	1553.244	1159.651
171.008	13.992	1552.357	1158.565
172.023	14.108	1551.164	1158.380
173.037	14.126	1549.535	1157.186
174.052	14.059	1548.741	1156.023
175.067	14.093	1547.265	1155.058
176.081	14.084	1546.586	1154.385
177.096	14.113	1544.999	1153.298
178.110	14.061	1543.708	1151.873
179.125	14.121	1542.123	1151.000
180.140	14.128	1541.213	1150.274
181.154	14.139	1540.555	1149.754
182.169	14.151	1538.655	1148.316
183.183	14.232	1537.743	1148.091
184.198	14.181	1536.827	1146.956
185.213	14.167	1535.776	1145.977
186.227	14.261	1534.321	1145.437
187.242	14.253	1533.628	1144.762
188.256	14.310	1532.114	1143.922
189.271	14.387	1531.048	1143.551
190.286	14.289	1529.885	1141.908
191.300	14.308	1528.728	1141.075
192.315	14.220	1526.988	1139.077
193.329	14.231	1526.521	1138.700
194.344	14.205	1525.037	1137.311
195.359	14.218	1524.457	1136.870
196.373	14.291	1523.014	1136.190
197.388	14.302	1522.043	1135.440
198.402	14.392	1521.032	1135.200
199.417	14.529	1519.121	1134.603
200.432	14.424	1518.614	1133.409
201.446	14.502	1517.558	1133.053
202.461	14.513	1515.952	1131.827
203.475	14.521	1514.949	1131.038
204.490	14.543	1514.236	1130.550
205.504	14.491	1513.026	1129.199
206.519	14.514	1511.705	1128.264
207.534	14.623	1510.112	1127.715
208.548	14.595	1508.963	1126.566
209.563	14.555	1508.309	1125.707
210.577	14.525	1507.547	1124.837
211.592	14.527	1506.092	1123.666
212.607	14.567	1505.465	1123.369
213.621	14.644	1504.990	1123.435
214.636	14.699	1504.019	1122.977
215.650	14.670	1502.722	1121.718
216.665	14.674	1501.678	1120.868
217.680	14.654	1500.999	1120.123
218.694	14.699	1500.384	1119.866
219.709	14.757	1499.767	1119.697
220.723	14.737	1498.219	1118.306
221.738	14.743	1497.246	1117.527
222.753	14.814	1496.470	1117.320
223.767	14.752	1495.584	1116.145
224.782	14.678	1494.636	1114.848
225.796	14.818	1492.932	1114.410
226.811	14.845	1492.294	1114.012
227.826	14.840	1491.857	1113.556
228.840	14.854	1491.126	1113.008
229.855	14.793	1489.986	1111.651
230.869	14.799	1489.350	1111.117
231.884	14.803	1488.472	1110.389
232.899	14.824	1486.655	1109.076
233.913	14.808	1485.632	1108.109
234.928	14.716	1484.598	1106.631
235.942	14.773	1483.229	1105.891
236.957	14.774	1481.869	1104.783
237.972	14.770	1481.043	1104.044
238.986	14.733	1480.028	1102.943
240.001	14.842	1478.979	1102.786
241.015	14.940	1477.302	1102.081
242.030	14.960	1476.300	1101.371
243.045	15.007	1475.241	1100.792
244.059	15.002	1474.574	1100.165
245.074	14.966	1473.798	1099.253
246.088	14.937	1473.406	1098.669
247.103	14.997	1472.131	1098.013
248.117	15.067	1471.273	1097.735
249.132	15.137	1470.836	1097.772
250.147	15.144	1469.820	1096.962
251.161	15.131	1469.078	1096.225
252.176	15.271	1468.184	1096.376
253.190	15.265	1467.236	1095.533
254.205	15.235	1466.521	1094.711
255.220	15.308	1465.294	1094.171
256.234	15.321	1465.110	1094.023
257.249	15.343	1464.274	1093.441
258.263	15.405	1462.959	1092.767
259.278	15.377	1462.170	1091.901
260.293	15.391	1461.139	1091.126
261.307	15.403	1460.537	1090.655
262.322	15.364	1459.512	1089.543
263.336	15.474	1458.757	1089.599
264.351	15.514	1457.533	1088.847
265.366	15.576	1456.339	1088.258
266.380	15.621	1455.386	1087.742
267.395	15.459	1455.168	1086.435
268.409	15.563	1453.875	1086.045
269.424	15.470	1453.092	1084.766
270.439	15.503	1451.616	1083.776
271.453	15.498	1451.068	1083.242
272.468	15.559	1450.101	1082.819
273.482	15.611	1449.074	1082.288
274.497	15.537	1448.364	1081.183
275.512	15.554	1447.450	1080.520
276.526	15.494	1446.794	1079.545
277.541	15.572	1445.621	1079.076
278.555	15.534	1444.827	1078.148
279.570	15.649	1443.708	1077.950
280.585	15.740	1442.588	1077.602
281.599	15.628	1442.408	1076.654
282.614	15.791	1440.939	1076.509
283.628	15.753	1439.648	1075.205
284.643	15.718	1439.211	1074.560
285.657	15.696	1437.879	1073.331
286.672	15.750	1436.723	1072.719
287.687	15.684	1436.025	1071.681
288.701	15.749	1434.999	1071.235
289.716	15.867	1434.155	1071.256
290.730	15.862	1432.981	1070.253
291.745	15.818	1431.914	1069.086
292.760	15.810	1431.058	1068.299
293.774	15.849	1430.043	1067.692
294.789	15.892	1428.738	1066.899
295.803	15.923	1428.118	1066.538
296.818	15.967	1427.523	1066.277
297.833	15.904	1426.265	1064.843
298.847	15.921	1425.328	1064.159
299.862	15.894	1424.481	1063.264
300.876	15.931	1423.276	1062.503
301.891	15.925	1422.582	1061.854
302.906	16.004	1421.670	1061.574
303.920	16.067	1420.819	1061.241
304.935	15.969	1420.598	1060.366
305.949	16.094	1419.409	1060.170
306.964	16.104	1418.763	1059.660
307.979	16.182	1417.524	1059.131
308.993	16.128	1416.927	1058.252
310.008	16.161	1415.542	1057.326
311.022	16.106	1414.359	1056.006
312.037	16.089	1413.534	1055.192
313.052	16.082	1412.775	1054.487
314.066	16.176	1411.377	1053.937
315.081	16.137	1410.605	1053.021
316.095	16.136	1409.289	1051.940
317.110	16.198	1408.258	1051.465
318.125	16.197	1407.296	1050.647
319.139	16.270	1406.077	1050.100
320.154	16.139	1405.420	1048.704
321.168	16.234	1404.574	1048.566
322.183	16.261	1403.243	1047.646
323.197	16.306	1402.297	1047.131
324.212	16.296	1401.680	1046.513
325.227	16.225	1400.610	1045.181
326.241	16.306	1399.594	1044.835
327.256	16.386	1398.869	1044.692
328.270	16.230	1398.270	1043.193
329.285	16.249	1397.481	1042.626
330.300	16.288	1396.363	1041.940
331.314	16.241	1395.741	1041.095
332.329	16.314	1394.221	1040.317
333.343	16.317	1393.528	1039.727
334.358	16.394	1392.213	1039.131
335.373	16.373	1392.057	1038.790
336.387	16.343	1391.289	1037.944
337.402	16.443	1390.146	1037.613
338.416	16.557	1389.380	1037.649
339.431	16.390	1389.293	1036.463
340.446	16.556	1388.517	1036.813
341.460	16.490	1386.887	1035.103
342.475	16.555	1386.044	1034.778
343.489	16.548	1385.206	1034.017
344.504	16.603	1384.035	1033.385
345.519	16.608	1383.260	1032.746
346.533	16.717	1382.172	1032.507
347.548	16.696	1381.520	1031.802
348.562	16.745	1380.503	1031.250
349.577	16.797	1379.862	1030.997
350.592	16.783	1378.654	1029.920
351.606	16.716	1378.256	1029.120
352.621	16.618	1377.268	1027.697
353.635	16.672	1375.771	1026.819
354.650	16.745	1375.089	1026.658
355.665	16.638	1374.383	1025.396
356.679	16.603	1373.444	1024.391
357.694	16.703	1372.022	1023.842
358.708	16.784	1370.860	1023.377
359.723	16.841	1369.568	1022.666
360.738	16.694	1368.647	1020.997
361.752	16.741	1368.102	1020.787
362.767	16.861	1366.504	1020.227
363.781	16.752	1365.578	1018.789
364.796	16.794	1365.235	1018.697
365.810	16.889	1364.381	1018.539
366.825	16.899	1363.190	1017.622
367.840	16.996	1362.612	1017.678
368.854	16.950	1362.344	1017.111
369.869	16.968	1361.497	1016.500
370.883	17.001	1360.807	1016.091
371.898	17.019	1360.104	1015.582
372.913	16.982	1359.521	1014.841
373.927	17.008	1358.440	1014.094
374.942	17.080	1357.156	1013.480
375.956	17.145	1356.517	1013.297
376.971	17.111	1355.851	1012.509
377.986	17.110	1355.037	1011.806
379.000	17.073	1354.237	1010.896
380.015	17.071	1353.201	1010.022
381.029	17.165	1352.538	1009.998
382.044	17.251	1351.714	1009.803
383.059	17.373	1350.789	1009.748
384.073	17.220	1350.366	1008.436
385.088	17.253	1349.913	1008.205
386.102	17.357	1348.979	1008.036
387.117	17.280	1348.231	1006.931
388.132	17.312	1347.306	1006.340
389.146	17.225	1346.776	1005.340
390.161	17.267	1345.627	1004.641
391.175	17.250	1344.787	1003.827
392.190	17.419	1343.682	1003.910
393.205	17.315	1343.160	1002.814
394.219	17.455	1341.738	1002.489
395.234	17.410	1340.617	1001.296
396.248	17.371	1339.434	1000.097
397.263	17.514	1337.764	999.604
398.278	17.371	1336.653	997.845
399.292	17.347	1335.709	996.910
400.307	17.471	1334.459	996.617
401.321	17.423	1333.683	995.666
402.336	17.396	1332.528	994.557
403.350	17.435	1331.753	994.123
404.365	17.468	1330.726	993.461
405.380	17.471	1329.812	992.705
406.394	17.402	1329.024	991.624
407.409	17.492	1328.181	991.436
408.423	17.497	1327.297	990.715
409.438	17.545	1326.949	990.649
410.453	17.632	1325.764	990.178
411.467	17.717	1324.663	989.764
412.482	17.610	1325.007	989.314
413.496	17.677	1323.815	988.726
414.511	17.716	1322.823	988.124
415.526	17.775	1322.487	988.124
416.540	17.668	1321.853	986.947
417.555	17.759	1320.850	986.633
418.569	17.838	1320.212	986.526
419.584	17.859	1320.036	986.431
420.599	17.776	1319.534	985.489
421.613	101.426	1364.592	1491.492
422.628	100.130	1371.066	1491.554
