DTS Sentinel unit serial number:	SN413079Multiplexer serial number:	ORYXHardware model number:	OX4-SRSoftware version number:	ORYX F/W v4.00 Oryx Data Collector v3.7.2.0data status	okinstallation	princeton_trtdifferential loss correction	single-endedforward channel	channel 4reverse channel	N/Adate	2019/09/13time	16:21:35forward acquisition time	60.00reverse acquisition time	0.00gamma	496.2192k internal	0.2295k external	0.2295temperature offset calibration	1.0217default loss term (dB/km)	0.3790temperature slope calibration	1.0000multiplexer offset coefficient	1.0000multiplexer slope coefficient	1.0000fibre end	0.00T internal ref (°C)	34.97T ext. ref 1 (°C)	4.88T ext. ref 2 (°C)	31.18length (m)	temperature (°C)	Stokes	anti-Stokes-747.200	87.650	-0.152	-0.172
-746.185	242.496	-0.185	0.316
-745.171	178.416	0.295	-0.440
-744.156	-140.817	-0.319	0.034
-743.142	43.692	-0.132	0.123
-742.127	31.871	0.106	0.093
-741.112	-200.000	-0.069	-0.321
-740.098	-110.402	-0.122	-0.026
-739.083	-200.000	0.060	0.328
-738.069	1.101	0.460	0.337
-737.054	-134.226	-0.143	0.018
-736.039	-200.000	-0.263	-0.000
-735.025	-200.000	-0.000	-0.121
-734.010	-42.852	0.126	0.065
-732.996	-96.286	-0.213	0.058
-731.981	-124.544	0.317	0.050
-730.966	-200.000	0.004	-0.035
-729.952	102.274	-0.081	0.097
-728.937	368.629	0.071	-0.147
-727.923	396.806	-0.141	-0.302
-726.908	96.773	0.189	-0.222
-725.894	800.000	0.078	0.237
-724.879	-200.000	0.014	-0.067
-723.864	-104.026	0.173	0.041
-722.850	-68.859	0.335	0.132
-721.835	-11.932	0.207	0.139
-720.821	45.834	-0.118	-0.112
-719.806	526.962	-0.079	-0.191
-718.791	-113.512	-0.193	0.039
-717.777	130.525	-0.099	-0.129
-716.762	-149.859	0.294	-0.024
-715.748	-200.000	-0.011	-0.089
-714.733	-120.860	-0.156	-0.027
-713.718	-200.000	-0.016	-0.296
-712.704	149.505	0.105	-0.145
-711.689	-200.000	-0.036	-0.209
-710.675	-129.569	-0.206	-0.029
-709.660	128.088	0.161	0.209
-708.645	501.223	-0.084	-0.199
-707.631	-85.579	-0.345	0.110
-706.616	-200.000	0.014	-0.086
-705.602	-60.524	0.099	0.043
-704.587	-127.681	0.202	-0.030
-703.572	-104.586	-0.127	-0.030
-702.558	108.178	-0.030	0.037
-701.543	-200.000	0.003	0.094
-700.529	11.711	-0.121	-0.095
-699.514	56.781	-0.333	-0.331
-698.499	-33.268	0.085	0.048
-697.485	-34.049	-0.267	0.150
-696.470	64.781	-0.406	-0.418
-695.456	-48.163	-0.222	-0.109
-694.441	-146.088	0.126	0.011
-693.426	3.649	-0.054	-0.040
-692.412	-17.529	-0.190	0.122
-691.397	800.000	-0.046	-0.157
-690.383	155.728	-0.192	0.270
-689.368	-119.377	0.191	0.034
-688.354	-100.963	-0.137	-0.034
-687.339	8.751	-0.285	0.219
-686.324	250.651	0.171	-0.296
-685.310	21.938	0.072	0.060
-684.295	-80.315	-0.186	0.064
-683.281	-105.610	-0.090	-0.021
-682.266	-200.000	0.017	-0.123
-681.251	-100.278	0.228	-0.058
-680.237	-61.966	-0.288	-0.123
-679.222	6.512	-0.083	0.063
-678.208	-102.722	0.156	-0.038
-677.193	790.308	-0.036	0.101
-676.178	-140.549	-0.155	0.016
-675.164	-45.007	0.204	0.103
-674.149	-86.722	-0.032	0.010
-673.135	-200.000	-0.035	-0.397
-672.120	409.979	-0.076	-0.164
-671.105	-24.021	0.169	0.103
-670.091	15.394	-0.142	-0.114
-669.076	8.797	0.159	-0.122
-668.062	-104.402	0.181	-0.043
-667.047	-2.421	-0.213	0.152
-666.032	92.431	-0.230	-0.265
-665.018	-200.000	-0.000	-0.048
-664.003	-61.171	0.267	0.115
-662.989	-200.000	0.091	-0.579
-661.974	-12.794	-0.137	-0.091
-660.959	499.459	-0.060	-0.142
-659.945	-123.726	0.161	-0.026
-658.930	48.607	0.075	-0.072
-657.916	800.000	-0.055	-0.210
-656.901	75.880	0.178	0.192
-655.886	-19.650	-0.548	-0.345
-654.872	-200.000	-0.002	0.025
-653.857	-113.577	-0.096	0.019
-652.843	800.000	0.047	0.159
-651.828	-7.854	-0.147	-0.101
-650.814	15.950	0.046	0.037
-649.799	-155.258	-0.301	-0.020
-648.784	-200.000	-0.014	-0.126
-647.770	-152.169	-0.039	0.003
-646.755	-53.165	-0.245	-0.115
-645.741	56.819	0.100	0.099
-644.726	-58.872	0.110	0.048
-643.711	-92.388	-0.351	0.101
-642.697	18.593	-0.115	0.094
-641.682	528.223	-0.079	0.189
-640.668	-200.000	0.037	0.265
-639.653	478.629	0.110	0.255
-638.638	-28.911	0.179	0.104
-637.624	800.000	-0.044	0.129
-636.609	296.817	0.076	-0.142
-635.595	594.795	-0.114	0.287
-634.580	-138.291	-0.050	0.006
-633.565	262.673	0.082	-0.145
-632.551	603.771	0.049	-0.124
-631.536	-74.044	0.125	-0.046
-630.522	-102.810	0.072	-0.018
-629.507	90.635	-0.343	0.391
-628.492	99.015	-0.091	0.107
-627.478	-102.986	0.328	0.079
-626.463	310.675	-0.038	-0.073
-625.449	285.358	-0.043	0.079
-624.434	-96.807	0.175	-0.047
-623.419	-127.520	0.115	-0.017
-622.405	-80.085	-0.223	-0.076
-621.390	800.000	0.043	0.122
-620.376	17.961	0.368	0.298
-619.361	443.607	0.134	0.299
-618.346	431.138	-0.089	0.195
-617.332	431.601	-0.066	-0.145
-616.317	-152.784	0.174	0.013
-615.303	-133.058	-0.105	-0.014
-614.288	800.000	-0.018	0.061
-613.273	197.375	0.224	-0.347
-612.259	113.061	-0.160	0.198
-611.244	-55.385	-0.083	0.038
-610.230	-197.476	-0.089	0.001
-609.215	-200.000	0.080	-0.461
-608.201	800.000	-0.165	-0.495
-607.186	-85.392	-0.142	-0.045
-606.171	-33.252	0.133	-0.075
-605.157	-132.141	-0.210	-0.028
-604.142	-126.337	0.227	-0.034
-603.128	-173.411	-0.084	0.003
-602.113	-27.076	0.247	-0.146
-601.098	534.820	-0.051	-0.122
-600.084	185.708	0.151	-0.228
-599.069	77.012	-0.100	-0.108
-598.055	800.000	0.045	0.148
-597.040	-99.223	0.167	0.043
-596.025	27.449	-0.118	-0.101
-595.011	-28.301	0.199	0.117
-593.996	271.399	-0.113	-0.202
-592.982	-62.573	-0.134	-0.057
-591.967	800.000	0.040	0.162
-590.952	-116.055	0.221	-0.042
-589.938	54.460	0.252	-0.247
-588.923	-62.524	-0.100	0.042
-587.909	139.131	0.151	-0.202
-586.894	-70.636	0.170	-0.065
-585.879	-200.000	0.038	-0.269
-584.865	-28.181	-0.206	-0.121
-583.850	-200.000	-0.019	0.407
-582.836	-49.154	0.104	0.051
-581.821	417.744	0.011	0.023
-580.806	-200.000	0.015	-0.123
-579.792	-82.160	-0.031	0.010
-578.777	144.761	0.057	-0.077
-577.763	-8.769	0.076	-0.052
-576.748	-77.859	0.346	-0.121
-575.733	-95.747	0.224	-0.061
-574.719	198.312	-0.184	0.285
-573.704	800.000	-0.008	-0.031
-572.690	-125.821	0.233	0.036
-571.675	800.000	0.128	-0.448
-570.661	24.499	0.020	0.017
-569.646	-200.000	0.013	-0.235
-568.631	-139.441	-0.102	-0.011
-567.617	-56.372	0.259	0.117
-566.602	261.354	-0.126	-0.221
-565.588	524.628	0.062	-0.148
-564.573	-200.000	-0.015	-0.164
-563.558	800.000	-0.089	-0.333
-562.544	-200.000	-0.033	-0.210
-561.529	-24.155	0.153	-0.093
-560.515	-27.931	0.061	0.036
-559.500	-34.807	-0.192	-0.106
-558.485	-200.000	-0.009	0.317
-557.471	-74.140	0.100	0.037
-556.456	-21.583	-0.187	0.116
-555.442	-25.992	0.155	-0.093
-554.427	-134.249	-0.207	0.026
-553.412	15.211	-0.203	0.161
-552.398	-16.330	-0.118	0.076
-551.383	-91.848	0.059	-0.017
-550.369	-41.021	0.277	-0.145
-549.354	-157.106	0.085	-0.005
-548.339	800.000	-0.049	-0.149
-547.325	-2.853	0.377	-0.267
-546.310	49.803	0.275	-0.262
-545.296	19.903	-0.314	-0.257
-544.281	-200.000	0.022	-0.307
-543.266	-200.000	-0.023	-0.356
-542.252	-48.051	-0.076	0.037
-541.237	-6.319	0.082	0.057
-540.223	126.775	-0.156	0.200
-539.208	-200.000	-0.013	-0.422
-538.193	-149.267	-0.613	-0.050
-537.179	-170.919	-0.192	0.007
-536.164	-58.112	0.306	0.135
-535.150	-10.618	0.182	0.122
-534.135	174.578	-0.081	-0.118
-533.121	-63.677	0.306	0.127
-532.106	59.586	0.190	-0.190
-531.091	-200.000	0.011	-0.215
-530.077	34.596	-0.133	0.118
-529.062	7.384	-0.074	-0.056
-528.048	382.052	-0.111	-0.231
-527.033	-25.027	-0.228	-0.137
-526.018	800.000	0.084	0.310
-525.004	-85.217	0.128	0.040
-523.989	-200.000	-0.023	-0.268
-522.975	-30.456	0.128	0.074
-521.960	-114.252	0.216	0.042
-520.945	-134.223	0.285	-0.036
-519.931	-29.601	-0.234	-0.135
-518.916	203.423	-0.263	0.412
-517.902	184.547	0.042	0.063
-516.887	-200.000	0.062	0.453
-515.872	800.000	0.094	-0.288
-514.858	-200.000	0.004	0.134
-513.843	-200.000	-0.045	-0.344
-512.829	140.220	0.275	-0.367
-511.814	-200.000	-0.020	0.174
-510.799	800.000	0.060	-0.177
-509.785	142.673	-0.352	0.473
-508.770	-143.220	-0.187	0.018
-507.756	-200.000	-0.002	-0.187
-506.741	32.186	-0.295	0.258
-505.726	-109.262	0.164	0.035
-504.712	-50.379	0.204	0.097
-503.697	-49.837	-0.028	0.013
-502.683	497.449	-0.058	0.135
-501.668	169.291	-0.168	0.242
-500.653	-152.049	0.223	0.016
-499.639	-89.562	-0.327	0.097
-498.624	324.346	0.061	-0.117
-497.610	273.342	-0.090	0.160
-496.595	651.705	-0.059	0.154
-495.581	143.903	0.136	-0.184
-494.566	-12.289	0.268	0.177
-493.551	264.254	-0.009	-0.016
-492.537	452.974	0.143	-0.320
-491.522	30.130	0.122	0.106
-490.508	-56.270	-0.135	0.061
-489.493	464.884	0.047	0.106
-488.478	-158.511	0.282	-0.016
-487.464	-200.000	0.206	-0.001
-486.449	-197.337	0.321	0.002
-485.435	39.620	0.157	-0.143
-484.420	-200.000	0.032	0.264
-483.405	297.906	-0.019	-0.036
-482.391	-72.773	-0.328	-0.122
-481.376	127.479	-0.100	0.128
-480.362	111.472	-0.074	-0.090
-479.347	135.023	0.321	-0.421
-478.332	-200.000	-0.018	0.307
-477.318	-174.134	0.118	0.003
-476.303	800.000	-0.032	0.121
-475.289	608.947	0.103	0.260
-474.274	-7.974	0.289	-0.197
-473.259	48.708	-0.386	0.366
-472.245	52.954	0.130	0.126
-471.230	44.212	-0.169	-0.157
-470.216	-159.236	0.332	-0.019
-469.201	-63.890	-0.044	0.018
-468.186	89.951	-0.307	-0.347
-467.172	800.000	-0.036	-0.141
-466.157	150.576	0.135	0.185
-465.143	61.561	-0.190	0.191
-464.128	-168.519	0.195	0.008
-463.113	240.496	0.098	0.166
-462.099	-200.000	-0.017	0.157
-461.084	800.000	-0.011	-0.031
-460.070	425.979	-0.175	0.382
-459.055	-112.300	0.198	-0.040
-458.040	-200.000	0.019	-0.174
-457.026	-5.734	0.098	0.068
-456.011	-53.605	0.214	-0.099
-454.997	541.723	0.054	-0.129
-453.982	77.658	-0.171	0.184
-452.968	-76.134	0.126	-0.045
-451.953	22.857	-0.207	-0.172
-450.938	-200.000	0.021	0.454
-449.924	-200.000	-0.037	0.236
-448.909	14.870	-0.040	-0.032
-447.895	-120.993	-0.037	-0.006
-446.880	-200.000	-0.026	0.206
-445.865	69.560	-0.271	0.282
-444.851	-200.000	-0.013	0.124
-443.836	-9.909	-0.194	0.130
-442.822	38.977	0.235	-0.213
-441.807	-23.047	-0.085	0.052
-440.792	800.000	0.039	0.172
-439.778	-155.060	0.259	0.017
-438.763	-74.339	0.128	0.047
-437.749	794.327	0.075	0.208
-436.734	582.448	0.104	0.257
-435.719	-173.949	-0.126	-0.004
-434.705	-66.692	0.279	-0.112
-433.690	145.034	0.197	-0.266
-432.676	145.809	-0.087	0.118
-431.661	-158.225	-0.268	0.016
-430.646	11.088	0.198	0.153
-429.632	-32.816	-0.271	0.152
-428.617	139.107	0.092	0.122
-427.603	796.203	0.068	0.190
-426.588	227.164	-0.160	0.262
-425.573	-145.844	-0.206	0.018
-424.559	-200.000	-0.025	-0.203
-423.544	20.391	-0.323	0.264
-422.530	-200.000	-0.012	-0.104
-421.515	605.043	0.046	0.116
-420.500	-1.305	-0.127	0.091
-419.486	-74.379	-0.267	-0.097
-418.471	-6.751	0.239	-0.164
-417.457	0.433	-0.302	0.217
-416.442	20.701	0.210	0.172
-415.428	-99.342	-0.186	0.047
-414.413	800.000	0.048	-0.174
-413.398	30.142	0.328	0.282
-412.384	-31.011	0.025	0.014
-411.369	342.807	0.094	0.185
-410.355	3.235	-0.145	-0.107
-409.340	-200.000	-0.005	0.180
-408.325	356.854	0.018	0.036
-407.311	215.793	0.125	-0.200
-406.296	127.072	-0.169	-0.216
-405.282	-157.548	0.292	-0.018
-404.267	-167.752	0.199	-0.008
-403.252	57.647	-0.221	0.218
-402.238	-200.000	0.086	-0.397
-401.223	-200.000	0.028	-0.163
-400.209	800.000	-0.059	0.214
-399.194	2.507	0.056	-0.041
-398.179	-51.123	0.356	-0.168
-397.165	369.031	-0.145	0.297
-396.150	-200.000	0.040	0.179
-395.136	-18.832	-0.123	0.077
-394.121	-71.487	0.185	-0.070
-393.106	-176.199	-0.088	0.002
-392.092	75.047	0.158	-0.168
-391.077	160.835	0.270	0.379
-390.063	110.507	-0.181	0.219
-389.048	40.870	-0.260	0.237
-388.033	55.880	-0.096	0.093
-387.019	516.391	0.092	0.217
-386.004	-111.061	0.131	-0.027
-384.990	50.626	0.109	-0.104
-383.975	531.968	-0.113	-0.269
-382.960	-200.000	-0.064	0.285
-381.946	-132.178	-0.217	-0.028
-380.931	188.618	0.077	0.116
-379.917	-200.000	-0.030	0.349
-378.902	800.000	0.069	0.235
-377.888	18.837	-0.224	0.181
-376.873	-162.368	-0.198	0.010
-375.858	29.106	-0.099	0.084
-374.844	13.000	0.013	-0.010
-373.829	-71.110	0.198	-0.075
-372.815	9.433	-0.062	0.048
-371.800	-159.483	0.207	0.012
-370.785	-200.000	0.062	-0.280
-369.771	733.702	-0.088	-0.237
-368.756	800.000	-0.079	0.243
-367.742	-64.907	-0.111	0.045
-366.727	-138.275	0.155	-0.017
-365.712	424.574	0.129	0.280
-364.698	-181.577	-0.487	-0.010
-363.683	-2.636	0.181	-0.128
-362.669	800.000	-0.062	-0.253
-361.654	-120.623	0.390	-0.066
-360.639	-89.409	0.212	0.063
-359.625	-124.264	-0.516	-0.081
-358.610	-98.958	-0.210	-0.054
-357.596	105.211	-0.104	0.124
-356.581	-200.000	0.013	0.110
-355.566	-57.799	-0.207	-0.091
-354.552	113.828	-0.048	0.059
-353.537	-56.661	0.054	-0.024
-352.523	8.296	0.174	-0.132
-351.508	-200.000	0.022	-0.190
-350.493	-25.398	0.114	0.068
-349.479	-156.848	-0.327	-0.020
-348.464	-143.070	-0.263	-0.026
-347.450	142.500	-0.066	-0.089
-346.435	-44.151	-0.057	0.029
-345.420	-29.780	-0.069	0.040
-344.406	22.321	-0.302	-0.248
-343.391	108.385	0.279	-0.336
-342.377	8.125	-0.083	0.063
-341.362	-75.530	0.345	-0.124
-340.348	96.615	-0.234	-0.269
-339.333	-79.490	0.326	-0.111
-338.318	500.206	-0.091	0.212
-337.304	121.781	-0.071	0.089
-336.289	-107.687	-0.151	-0.033
-335.275	479.376	-0.063	0.145
-334.260	-140.577	-0.085	0.009
-333.245	97.017	-0.278	-0.321
-332.231	-2.637	0.101	0.071
-331.216	-81.737	-0.470	0.155
-330.202	-108.939	0.212	0.045
-329.187	-126.253	-0.380	0.057
-328.172	298.928	-0.047	-0.087
-327.158	-18.840	-0.079	0.049
-326.143	24.015	-0.232	0.193
-325.129	-42.097	0.179	0.092
-324.114	-148.596	-0.086	0.007
-323.099	-94.516	0.109	-0.030
-322.085	-28.850	-0.064	-0.037
-321.070	-200.000	0.049	-0.298
-320.056	99.298	-0.100	-0.116
-319.041	-137.289	0.395	-0.045
-318.026	-166.359	-0.583	-0.025
-317.012	-49.457	-0.139	0.067
-315.997	-116.403	0.350	-0.065
-314.983	-200.000	0.022	0.151
-313.968	-164.448	0.154	0.007
-312.953	450.979	0.050	0.112
-311.939	-169.772	-0.136	-0.005
-310.924	-200.000	0.040	-0.250
-309.910	-200.000	-0.033	-0.294
-308.895	-49.009	0.221	0.106
-307.880	-9.205	-0.105	0.070
-306.866	800.000	-0.058	-0.170
-305.851	-200.000	-0.027	-0.264
-304.837	201.636	-0.089	-0.137
-303.822	-200.000	-0.073	0.392
-302.807	46.021	0.128	-0.119
-301.793	120.591	-0.033	0.041
-300.778	762.624	-0.031	0.083
-299.764	-200.000	-0.004	0.165
-298.749	-200.000	0.009	-0.363
-297.735	800.000	0.095	-0.297
-296.720	265.916	-0.036	-0.062
-295.705	32.199	0.107	0.093
-294.691	561.719	-0.050	-0.122
-293.676	-156.744	0.082	-0.005
-292.662	174.129	0.097	0.141
-291.647	115.633	-0.165	-0.203
-290.632	-50.445	0.234	0.111
-289.618	16.083	0.129	0.102
-288.603	106.135	0.087	-0.104
-287.589	6.689	0.153	-0.115
-286.574	118.656	0.115	-0.142
-285.559	800.000	0.091	-0.266
-284.545	273.852	-0.088	-0.156
-283.530	115.554	0.092	0.113
-282.516	41.463	0.164	-0.149
-281.501	-200.000	0.013	0.170
-280.486	-200.000	0.014	0.103
-279.472	-90.309	-0.236	-0.069
-278.457	64.373	0.197	-0.199
-277.443	-39.546	0.163	0.086
-276.428	-93.714	-0.254	0.070
-275.413	-178.566	0.095	0.002
-274.399	-102.058	-0.135	-0.033
-273.384	139.083	0.213	-0.280
-272.370	1.728	-0.280	-0.202
-271.355	568.032	-0.085	-0.208
-270.340	-55.330	-0.241	-0.108
-269.326	102.891	-0.189	-0.222
-268.311	-174.619	-0.231	-0.007
-267.297	-129.316	0.235	-0.033
-266.282	-151.005	-0.283	-0.021
-265.267	152.639	-0.297	-0.407
-264.253	-200.000	0.026	0.152
-263.238	-143.031	0.342	0.033
-262.224	-200.000	0.073	0.371
-261.209	-200.000	0.034	-0.186
-260.195	85.380	0.159	0.175
-259.180	15.197	-0.118	0.093
-258.165	96.283	0.029	0.033
-257.151	108.525	-0.182	-0.218
-256.136	-200.000	-0.045	-0.316
-255.122	-200.000	0.015	-0.185
-254.107	800.000	-0.063	0.254
-253.092	6.120	-0.078	-0.058
-252.078	-137.704	-0.090	-0.010
-251.063	187.388	0.103	0.154
-250.049	-35.574	-0.106	0.058
-249.034	-35.931	0.039	-0.021
-248.019	-97.687	-0.499	0.130
-247.005	-99.388	0.066	-0.017
-245.990	-200.000	0.032	-0.329
-244.976	-128.852	-0.262	-0.037
-243.961	-32.227	-0.351	0.197
-242.946	-200.000	0.002	-0.031
-241.932	-200.000	0.015	-0.100
-240.917	-77.839	0.261	-0.090
-239.903	-52.855	-0.448	0.207
-238.888	319.874	-0.062	-0.118
-237.873	223.544	0.019	0.030
-236.859	-123.034	0.175	-0.028
-235.844	-131.690	0.060	0.008
-234.830	83.674	-0.146	0.159
-233.815	149.507	0.241	0.326
-232.800	136.498	-0.117	0.153
-231.786	-200.000	0.026	0.136
-230.771	94.764	0.129	-0.147
-229.757	182.200	0.168	0.248
-228.742	800.000	0.082	-0.268
-227.727	51.746	-0.077	-0.073
-226.713	-21.510	-0.065	0.040
-225.698	-178.002	0.543	0.013
-224.684	374.652	0.049	0.100
-223.669	100.135	0.175	-0.203
-222.655	262.149	0.054	0.094
-221.640	295.214	0.071	-0.131
-220.625	1.988	-0.055	-0.040
-219.611	662.986	-0.061	-0.157
-218.596	536.043	-0.083	0.198
-217.582	-36.215	0.150	0.081
-216.567	-84.909	0.371	0.116
-215.552	313.333	0.085	0.160
-214.538	-51.919	-0.115	0.053
-213.523	-120.144	-0.148	0.025
-212.509	-200.000	0.005	0.324
-211.494	800.000	-0.066	0.279
-210.479	105.394	0.201	-0.237
-209.465	-200.000	-0.064	-0.367
-208.450	-25.031	0.159	-0.095
-207.436	-190.692	0.061	0.001
-206.421	-50.988	-0.170	0.080
-205.406	-25.596	0.091	-0.054
-204.392	-159.119	-0.107	0.006
-203.377	-101.380	0.176	-0.043
-202.363	-200.000	0.025	-0.196
-201.348	111.565	-0.056	0.068
-200.333	-32.139	-0.221	-0.123
-199.319	-56.955	0.313	0.138
-198.304	246.924	0.207	0.350
-197.290	-129.245	0.252	0.035
-196.275	-88.338	0.302	-0.090
-195.260	-200.000	0.018	0.142
-194.246	-200.000	0.028	0.181
-193.231	-54.207	0.082	0.037
-192.217	-200.000	0.016	-0.105
-191.202	395.318	-0.037	-0.078
-190.187	118.480	0.131	-0.162
-189.173	-103.604	-0.224	0.053
-188.158	-200.000	0.004	0.120
-187.144	302.185	-0.325	0.601
-186.129	163.104	-0.174	-0.245
-185.114	-36.143	-0.362	0.195
-184.100	-106.653	0.174	0.039
-183.085	24.687	-0.094	0.077
-182.071	174.089	-0.138	0.200
-181.056	-200.000	-0.064	0.000
-180.042	29.583	-0.363	0.309
-179.027	-200.000	-0.007	-0.326
-178.012	22.073	-0.110	-0.090
-176.998	800.000	0.068	0.231
-175.983	7.059	-0.059	-0.044
-174.969	-32.588	0.205	-0.114
-173.954	-56.744	0.196	0.087
-172.939	-200.000	0.040	0.269
-171.925	-52.603	-0.080	-0.037
-170.910	20.015	0.200	-0.161
-169.896	257.430	0.050	0.087
-168.881	64.487	-0.431	-0.435
-167.866	800.000	-0.033	-0.126
-166.852	-121.662	0.176	-0.029
-165.837	437.875	-0.089	-0.195
-164.823	-104.792	-0.135	-0.031
-163.808	0.984	-0.141	-0.101
-162.793	-151.336	0.194	-0.014
-161.779	800.000	-0.048	-0.133
-160.764	-64.981	0.156	0.063
-159.750	-200.000	-0.015	0.137
-158.735	26.687	-0.117	0.098
-157.720	10.541	0.047	0.036
-156.706	416.551	-0.095	0.203
-155.691	171.124	-0.174	0.249
-154.677	752.682	0.130	-0.352
-153.662	-104.073	-0.152	-0.035
-152.647	631.845	0.118	-0.297
-151.633	12.974	-0.090	-0.070
-150.618	-46.426	0.191	-0.094
-149.604	-59.507	-0.095	0.041
-148.589	-200.000	0.056	0.400
-147.574	86.905	-0.116	-0.128
-146.560	-200.000	-0.015	-0.075
-145.545	-86.090	0.102	-0.031
-144.531	-200.000	0.003	-0.189
-143.516	-30.800	-0.136	-0.077
-142.502	-4.882	-0.061	0.042
-141.487	89.383	0.033	-0.036
-140.472	52.488	-0.172	0.164
-139.458	-15.352	0.398	-0.254
-138.443	53.729	0.355	0.340
-137.429	-45.268	-0.238	0.118
-136.414	255.610	0.136	0.233
-135.399	57.310	0.129	0.126
-134.385	-92.159	-0.120	-0.034
-133.370	-159.408	-0.401	0.022
-132.356	-34.495	0.380	-0.208
-131.341	321.982	-0.135	0.256
-130.326	-90.008	0.103	-0.030
-129.312	-91.646	0.112	-0.032
-128.297	-200.000	-0.008	0.190
-127.283	-95.036	-0.356	-0.096
-126.268	306.883	-0.033	0.061
-125.253	21.552	-0.074	0.060
-124.239	-200.000	0.060	0.342
-123.224	-99.653	-0.145	-0.036
-122.210	800.000	0.097	-0.324
-121.195	171.757	-0.067	0.096
-120.180	-45.337	-0.206	0.102
-119.166	162.871	-0.146	-0.205
-118.151	63.540	-0.072	0.072
-117.137	800.000	0.055	0.219
-116.122	-200.000	0.001	0.032
-115.107	10.648	0.168	0.128
-114.093	-82.998	-0.233	-0.075
-113.078	-135.385	0.120	0.014
-112.064	-200.000	-0.016	0.100
-111.049	-51.621	0.257	-0.119
-110.034	-30.588	0.202	0.114
-109.020	-53.988	-0.163	0.074
-108.005	549.892	0.144	-0.344
-106.991	-137.438	0.250	-0.028
-105.976	40.044	-0.252	0.226
-104.962	-136.444	-0.297	-0.034
-103.947	-200.000	0.014	-0.124
-102.932	-27.453	0.188	0.109
-101.918	36.621	0.235	-0.207
-100.903	74.942	0.143	-0.150
-99.889	46.842	-0.192	-0.177
-98.874	800.000	0.042	0.131
-97.859	-183.444	0.271	-0.005
-96.845	-39.622	0.204	-0.106
-95.830	-200.000	0.011	-0.098
-94.816	89.882	0.188	-0.209
-93.801	-136.320	0.431	-0.050
-92.786	-17.812	-0.112	0.070
-91.772	534.976	0.066	0.156
-90.757	-31.181	0.211	0.119
-89.743	-200.000	0.041	0.212
-88.728	95.657	-0.105	0.120
-87.713	-162.859	0.243	-0.012
-86.699	-200.000	0.093	0.573
-85.684	51.155	0.090	-0.085
-84.670	-82.064	0.094	-0.031
-83.655	-200.000	-0.020	0.258
-82.640	224.622	-0.162	0.261
-81.626	52.514	-0.207	0.197
-80.611	481.537	0.084	0.190
-79.597	-15.956	0.283	-0.179
-78.582	307.696	-0.106	-0.197
-77.567	59.240	-0.232	0.227
-76.553	136.635	-0.112	-0.146
-75.538	396.713	0.088	0.183
-74.524	115.125	0.086	-0.105
-73.509	-62.946	-0.041	0.017
-72.494	-200.000	0.038	-0.204
-71.480	-56.649	-0.213	-0.094
-70.465	-156.249	-0.158	0.010
-69.451	-108.423	-0.235	-0.050
-68.436	-200.000	-0.049	0.303
-67.422	-11.701	0.225	-0.147
-66.407	-63.420	-0.120	-0.049
-65.392	-200.000	0.234	0.000
-64.378	-33.526	0.098	-0.054
-63.363	-195.170	-0.107	0.001
-62.349	-18.097	0.185	-0.115
-61.334	70.196	-0.844	-0.868
-60.319	45.628	0.339	0.312
-59.305	800.000	-0.270	-0.951
-58.290	143.647	0.637	0.845
-57.276	474.012	0.791	1.774
-56.261	-200.000	94.629	564.924
-55.246	642.042	1377.871	3492.575
-54.232	184.504	2602.896	3836.725
-53.217	114.372	2341.095	2835.869
-52.203	41.775	2089.860	1884.398
-51.188	36.692	2002.074	1759.106
-50.173	35.146	1983.534	1728.798
-49.159	49.140	2034.500	1901.511
-48.144	52.257	2053.969	1948.151
-47.130	37.454	2011.923	1774.435
-46.115	34.965	1999.789	1741.043
-45.100	34.892	1997.036	1737.920
-44.086	34.853	1995.058	1735.776
-43.071	34.862	1991.949	1733.083
-42.057	34.807	1989.925	1730.755
-41.042	34.878	1987.686	1729.376
-40.027	34.889	1985.949	1727.895
-39.013	34.893	1983.965	1726.139
-37.998	34.874	1981.919	1724.124
-36.984	34.865	1980.536	1722.764
-35.969	34.922	1978.621	1721.545
-34.954	34.923	1976.689	1719.807
-33.940	34.929	1975.070	1718.383
-32.925	35.040	1973.003	1717.509
-31.911	34.981	1971.503	1715.610
-30.896	34.898	1970.261	1713.714
-29.881	34.931	1968.792	1712.668
-28.867	35.002	1966.936	1711.618
-27.852	34.980	1964.993	1709.668
-26.838	35.073	1963.747	1709.341
-25.823	34.992	1961.490	1706.590
-24.809	35.036	1959.548	1705.221
-23.794	34.989	1958.244	1703.598
-22.779	34.910	1956.607	1701.411
-21.765	34.978	1954.490	1700.106
-20.750	35.021	1952.977	1699.099
-19.736	35.069	1951.589	1698.251
-18.721	35.076	1949.790	1696.684
-17.706	34.979	1948.484	1694.619
-16.692	35.027	1946.572	1693.313
-15.677	34.954	1945.077	1691.300
-14.663	34.994	1943.313	1690.052
-13.648	35.043	1941.801	1689.102
-12.633	34.999	1941.137	1688.069
-11.619	34.898	1940.525	1686.584
-10.604	35.046	1937.637	1685.302
-9.590	34.939	1937.079	1683.816
-8.575	34.972	1935.538	1682.692
-7.560	34.961	1934.549	1681.672
-6.546	35.013	1932.599	1680.371
-5.531	34.977	1931.744	1679.243
-4.517	34.986	1930.472	1678.148
-3.502	34.862	1930.173	1676.733
-2.487	34.989	1928.193	1676.060
-1.473	35.040	1927.051	1675.449
-0.458	35.131	1922.793	1672.470
0.556	37.903	1903.412	1646.347
1.571	33.504	1882.828	1591.563
2.586	28.634	1903.293	1567.247
3.600	26.830	1938.815	1580.649
4.615	25.550	1931.907	1563.760
5.629	19.731	1830.350	1433.322
6.644	10.209	1710.071	1264.907
7.659	5.282	1670.589	1197.891
8.673	4.826	1667.213	1191.878
9.688	4.904	1665.703	1191.292
10.702	4.866	1664.835	1190.271
11.717	4.924	1661.718	1188.380
12.731	5.691	1662.159	1194.442
13.746	11.954	1676.477	1252.643
14.761	20.087	1693.965	1328.197
15.775	22.877	1697.257	1352.052
16.790	22.411	1695.365	1346.857
17.804	21.448	1692.261	1336.917
18.819	20.430	1689.224	1326.629
19.834	19.788	1687.165	1319.993
20.848	19.527	1685.197	1316.351
21.863	19.391	1684.220	1314.435
22.877	19.281	1682.845	1312.409
23.892	19.105	1681.218	1309.684
24.907	19.010	1680.036	1307.924
25.921	19.002	1679.279	1307.155
26.936	18.950	1678.286	1305.870
27.950	18.988	1677.414	1305.365
28.965	18.976	1677.381	1305.133
29.980	19.064	1676.038	1304.644
30.994	19.155	1675.224	1304.583
32.009	19.294	1673.836	1304.438
33.023	19.318	1672.922	1303.789
34.038	19.338	1672.437	1303.448
35.053	19.326	1670.807	1301.971
36.067	19.187	1669.535	1299.817
37.082	19.132	1668.557	1298.527
38.096	19.137	1667.668	1297.757
39.111	19.174	1666.828	1297.267
40.126	19.341	1665.885	1297.676
41.140	19.275	1665.061	1296.423
42.155	19.104	1663.574	1293.865
43.169	18.830	1662.010	1290.481
44.184	18.711	1660.724	1288.471
45.199	18.664	1659.569	1287.110
46.213	18.542	1658.890	1285.556
47.228	18.802	1657.355	1286.193
48.242	18.860	1656.246	1285.658
49.257	19.097	1655.635	1286.843
50.271	19.118	1654.437	1285.953
51.286	19.118	1652.950	1284.683
52.301	19.013	1651.858	1282.938
53.315	19.129	1650.600	1282.714
54.330	19.016	1649.131	1280.613
55.344	18.895	1646.866	1277.841
56.359	18.858	1645.675	1276.535
57.374	18.851	1644.223	1275.238
58.388	18.901	1643.350	1274.818
59.403	18.810	1642.028	1273.011
60.417	18.658	1640.855	1270.862
61.432	18.705	1639.650	1270.163
62.447	18.728	1637.956	1268.907
63.461	18.612	1637.659	1267.710
64.476	18.512	1636.630	1266.059
65.490	18.543	1634.482	1264.514
66.505	18.560	1633.900	1264.081
67.520	18.581	1633.236	1263.611
68.534	18.569	1632.145	1262.563
69.549	18.638	1630.988	1262.068
70.563	18.582	1629.774	1260.607
71.578	18.494	1629.256	1259.442
72.593	18.499	1627.689	1258.158
73.607	18.375	1626.283	1256.049
74.622	18.407	1624.815	1255.037
75.636	18.353	1624.650	1254.407
76.651	18.351	1624.029	1253.801
77.666	18.448	1622.767	1253.425
78.680	18.417	1622.489	1252.871
79.695	18.524	1621.370	1252.680
80.709	18.460	1620.855	1251.707
81.724	18.640	1619.832	1252.117
82.739	18.743	1618.670	1251.861
83.753	18.781	1617.929	1251.455
84.768	18.936	1617.682	1252.276
85.782	19.026	1617.261	1252.498
86.797	19.174	1616.360	1252.763
87.812	19.264	1615.347	1252.525
88.826	19.218	1613.892	1250.949
89.841	19.084	1612.702	1248.947
90.855	19.045	1612.009	1248.017
91.870	19.116	1611.133	1247.741
92.884	19.220	1610.331	1247.765
93.899	19.168	1609.491	1246.626
94.914	19.268	1608.054	1246.127
95.928	19.312	1606.645	1245.241
96.943	19.378	1605.309	1244.570
97.957	19.322	1603.954	1243.007
98.972	19.249	1602.486	1241.235
99.987	19.223	1600.761	1239.604
101.001	19.225	1599.181	1238.280
102.016	19.223	1597.832	1237.114
103.030	19.124	1596.886	1235.560
104.045	19.098	1595.993	1234.573
105.060	19.168	1594.362	1233.702
106.074	19.071	1593.324	1232.096
107.089	18.951	1591.534	1229.749
108.103	18.714	1589.210	1226.150
109.118	18.570	1588.049	1224.116
110.133	18.465	1586.291	1221.905
111.147	18.558	1585.143	1221.576
112.162	18.634	1583.640	1220.853
113.176	18.529	1582.694	1219.264
114.191	18.661	1581.065	1218.840
115.206	18.741	1579.500	1218.092
116.220	18.773	1578.196	1217.206
117.235	18.747	1577.126	1216.088
118.249	18.736	1575.786	1214.873
119.264	18.614	1574.665	1213.040
120.279	18.592	1573.061	1211.542
121.293	18.610	1571.209	1210.132
122.308	18.469	1570.069	1208.154
123.322	18.408	1568.425	1206.352
124.337	18.371	1566.905	1204.813
125.352	18.360	1565.380	1203.459
126.366	18.341	1564.413	1202.475
127.381	18.366	1563.608	1201.926
128.395	18.404	1562.069	1200.906
129.410	18.408	1560.702	1199.776
130.424	18.428	1559.779	1199.102
131.439	18.535	1558.057	1198.419
132.454	18.626	1557.146	1198.244
133.468	18.702	1555.681	1197.541
134.483	18.740	1553.940	1196.363
135.497	18.745	1553.378	1195.856
136.512	18.741	1551.942	1194.618
137.527	18.821	1550.448	1193.917
138.541	18.812	1549.499	1193.022
139.556	18.861	1548.304	1192.334
140.570	18.865	1547.181	1191.395
141.585	18.976	1545.760	1190.960
142.600	19.102	1544.248	1190.560
143.614	19.184	1543.177	1190.197
144.629	19.289	1541.931	1189.858
145.643	19.268	1540.911	1188.818
146.658	19.291	1540.057	1188.216
147.673	19.105	1538.430	1185.571
148.687	19.053	1536.703	1183.778
149.702	18.967	1535.246	1181.961
150.716	18.916	1533.462	1180.131
151.731	18.885	1531.726	1178.481
152.746	18.796	1530.643	1176.931
153.760	18.839	1529.099	1175.939
154.775	18.871	1528.201	1175.357
155.789	19.009	1526.864	1175.169
156.804	19.003	1526.012	1174.370
157.819	19.074	1524.850	1173.860
158.833	19.132	1523.916	1173.429
159.848	19.169	1522.759	1172.685
160.862	19.278	1521.790	1172.580
161.877	19.374	1520.595	1172.204
162.892	19.269	1518.848	1170.042
163.906	19.004	1517.772	1167.310
164.921	18.842	1516.344	1165.013
165.935	18.834	1515.143	1163.932
166.950	18.860	1513.941	1163.084
167.964	18.965	1513.265	1163.173
168.979	19.097	1512.173	1163.118
169.994	18.985	1511.282	1161.572
171.008	18.902	1510.208	1160.083
172.023	19.025	1509.301	1160.115
173.037	19.058	1508.035	1159.260
174.052	19.224	1507.245	1159.669
175.067	19.277	1506.253	1159.163
176.081	19.154	1504.823	1157.131
177.096	18.948	1503.540	1154.657
178.110	18.909	1501.774	1152.941
179.125	18.875	1500.780	1151.845
180.140	19.003	1499.392	1151.539
181.154	18.999	1498.895	1151.025
182.169	19.086	1497.908	1150.748
183.183	19.177	1496.812	1150.413
184.198	19.335	1495.809	1150.595
185.213	19.323	1495.087	1149.856
186.227	19.214	1494.074	1148.251
187.242	19.344	1492.938	1148.137
188.256	19.413	1491.628	1147.491
189.271	19.523	1490.730	1147.427
190.286	19.470	1490.573	1146.856
191.300	19.402	1489.386	1145.389
192.315	19.162	1487.175	1141.998
193.329	18.830	1485.500	1138.407
194.344	18.854	1484.588	1137.766
195.359	18.889	1483.826	1137.313
196.373	18.983	1482.946	1137.162
197.388	19.148	1482.170	1137.558
198.402	19.242	1481.207	1137.339
199.417	19.325	1480.523	1137.257
200.432	19.543	1479.346	1137.693
201.446	19.655	1478.404	1137.605
202.461	19.718	1477.855	1137.497
203.475	19.768	1476.833	1136.933
204.490	19.905	1475.345	1136.591
205.504	19.770	1474.690	1135.102
206.519	19.635	1473.201	1132.965
207.534	19.446	1471.871	1130.607
208.548	19.380	1470.627	1129.118
209.563	19.429	1469.902	1128.782
210.577	19.441	1468.721	1127.851
211.592	19.389	1468.154	1126.978
212.607	19.407	1467.280	1126.326
213.621	19.642	1466.294	1127.000
214.636	19.693	1465.647	1126.735
215.650	19.681	1464.354	1125.563
216.665	19.687	1463.528	1124.871
217.680	19.637	1462.808	1123.894
218.694	19.802	1462.701	1124.784
219.709	19.830	1461.852	1124.211
220.723	19.823	1460.911	1123.346
221.738	19.895	1459.623	1122.722
222.753	19.851	1458.691	1121.623
223.767	19.774	1457.649	1120.220
224.782	19.731	1456.510	1118.967
225.796	19.922	1455.217	1119.112
226.811	20.028	1455.089	1119.601
227.826	20.035	1454.232	1118.887
228.840	19.968	1453.210	1117.569
229.855	19.842	1451.929	1115.672
230.869	19.813	1451.001	1114.672
231.884	19.765	1449.944	1113.452
232.899	19.807	1449.023	1112.916
233.913	19.653	1447.574	1110.717
234.928	19.582	1446.455	1109.305
235.942	19.553	1445.644	1108.397
236.957	19.552	1444.068	1107.086
237.972	19.499	1442.696	1105.596
238.986	19.596	1441.799	1105.428
240.001	19.648	1440.631	1104.770
241.015	19.596	1439.516	1103.487
242.030	19.630	1438.383	1102.733
243.045	19.640	1437.644	1102.135
244.059	19.805	1436.778	1102.428
245.074	19.835	1436.101	1101.997
246.088	19.758	1435.539	1100.978
247.103	19.924	1434.859	1101.418
248.117	19.996	1434.326	1101.366
249.132	20.087	1433.177	1100.964
250.147	20.190	1432.947	1101.346
251.161	20.309	1432.662	1101.784
252.176	20.550	1432.457	1103.062
253.190	20.619	1431.115	1102.369
254.205	20.603	1430.346	1101.573
255.220	20.633	1429.996	1101.401
256.234	20.746	1428.826	1101.114
257.249	20.685	1428.067	1100.045
258.263	20.716	1426.847	1099.206
259.278	20.713	1426.193	1098.585
260.293	20.595	1425.052	1096.867
261.307	20.659	1424.253	1096.557
262.322	20.625	1423.803	1095.901
263.336	20.837	1422.919	1096.456
264.351	20.857	1421.830	1095.648
265.366	20.859	1420.927	1094.868
266.380	20.920	1420.033	1094.461
267.395	20.847	1419.347	1093.378
268.409	20.863	1417.962	1092.316
269.424	20.845	1417.031	1091.392
270.439	20.680	1415.939	1089.416
271.453	20.681	1414.958	1088.574
272.468	20.697	1413.958	1087.810
273.482	20.560	1413.217	1086.286
274.497	20.516	1412.667	1085.491
275.512	20.502	1411.294	1084.255
276.526	20.608	1410.454	1084.172
277.541	20.623	1409.211	1083.217
278.555	20.587	1408.900	1082.653
279.570	20.488	1408.361	1081.529
280.585	20.668	1406.717	1081.292
281.599	20.805	1406.548	1081.917
282.614	20.896	1405.576	1081.639
283.628	20.765	1404.178	1079.653
284.643	20.710	1403.008	1078.320
285.657	20.688	1401.966	1077.287
286.672	20.607	1401.508	1076.338
287.687	20.699	1400.045	1075.689
288.701	20.696	1399.142	1074.881
289.716	20.695	1398.316	1074.146
290.730	20.750	1397.520	1073.777
291.745	20.777	1396.635	1073.170
292.760	20.847	1395.448	1072.594
293.774	20.783	1395.087	1071.827
294.789	20.802	1394.150	1071.125
295.803	20.890	1393.622	1071.170
296.818	21.077	1392.113	1071.059
297.833	20.924	1391.437	1069.506
298.847	20.731	1390.327	1067.378
299.862	20.825	1389.072	1066.894
300.876	20.830	1388.380	1066.296
301.891	20.809	1387.296	1065.243
302.906	20.902	1386.870	1065.391
303.920	20.968	1386.310	1065.270
304.935	21.038	1385.782	1065.198
305.949	21.190	1385.157	1065.552
306.964	21.303	1383.973	1065.232
307.979	21.405	1383.247	1065.202
308.993	21.337	1381.915	1063.671
310.008	21.232	1380.954	1062.198
311.022	21.142	1379.792	1060.662
312.037	21.226	1379.282	1060.684
313.052	21.242	1378.377	1059.992
314.066	21.252	1376.975	1058.885
315.081	21.081	1375.899	1056.925
316.095	20.949	1374.948	1055.302
317.110	20.873	1373.433	1053.585
318.125	20.941	1372.424	1053.130
319.139	20.895	1371.526	1052.072
320.154	20.893	1370.840	1051.441
321.168	20.929	1369.780	1050.750
322.183	20.870	1368.905	1049.628
323.197	20.854	1367.944	1048.706
324.212	21.049	1366.674	1048.811
325.227	21.075	1366.315	1048.596
326.241	21.058	1365.790	1048.004
327.256	21.153	1364.515	1047.498
328.270	20.998	1364.298	1046.313
329.285	21.020	1362.931	1045.303
330.300	20.898	1362.144	1043.874
331.314	20.961	1361.438	1043.621
332.329	21.050	1360.117	1043.044
333.343	21.035	1359.240	1042.194
334.358	21.108	1358.267	1041.790
335.373	21.136	1357.861	1041.552
336.387	21.272	1357.118	1041.704
337.402	21.273	1356.555	1041.185
338.416	21.220	1355.557	1040.009
339.431	21.340	1354.926	1040.149
340.446	21.467	1353.900	1040.021
341.460	21.541	1353.067	1039.728
342.475	21.537	1352.719	1039.345
343.489	21.706	1351.889	1039.621
344.504	21.745	1350.483	1038.676
345.519	21.810	1350.117	1038.688
346.533	21.841	1349.117	1038.011
347.548	21.795	1348.414	1037.109
348.562	21.823	1347.517	1036.493
349.577	21.962	1346.956	1036.788
350.592	21.891	1345.858	1035.431
351.606	21.634	1344.462	1032.752
352.621	21.441	1343.437	1030.738
353.635	21.451	1342.296	1029.830
354.650	21.416	1341.260	1028.736
355.665	21.380	1339.999	1027.467
356.679	21.454	1338.945	1027.004
357.694	21.499	1338.267	1026.655
358.708	21.568	1337.408	1026.309
359.723	21.589	1336.851	1025.915
360.738	21.602	1335.834	1025.117
361.752	21.641	1334.492	1024.225
362.767	21.607	1333.400	1023.102
363.781	21.694	1332.109	1022.525
364.796	21.648	1332.013	1022.095
365.810	21.729	1331.006	1021.705
366.825	21.943	1330.490	1022.464
367.840	21.984	1329.383	1021.759
368.854	22.145	1328.709	1022.089
369.869	22.164	1329.041	1022.365
370.883	22.261	1328.135	1022.140
371.898	22.161	1327.270	1020.804
372.913	22.126	1326.017	1019.547
373.927	22.013	1325.099	1018.093
374.942	22.018	1324.568	1017.624
375.956	22.177	1323.609	1017.723
376.971	22.095	1323.212	1016.849
377.986	22.047	1322.176	1015.688
379.000	22.104	1321.359	1015.300
380.015	22.164	1320.677	1015.029
381.029	22.270	1320.273	1015.242
382.044	22.328	1319.800	1015.123
383.059	22.307	1318.792	1014.137
384.073	22.274	1318.141	1013.357
385.088	22.210	1317.962	1012.761
386.102	22.452	1316.871	1013.226
387.117	22.413	1315.827	1012.108
388.132	22.254	1315.257	1010.670
389.146	22.053	1314.679	1008.979
390.161	22.023	1313.547	1007.848
391.175	22.054	1312.515	1007.145
392.190	21.989	1311.663	1006.032
393.205	22.140	1310.768	1006.119
394.219	22.233	1309.792	1005.812
395.234	22.374	1308.934	1005.874
396.248	22.312	1307.490	1004.322
397.263	22.153	1305.914	1002.111
398.278	22.195	1304.510	1001.188
399.292	22.122	1303.158	999.646
400.307	21.959	1302.553	998.166
401.321	21.941	1301.291	997.008
402.336	21.889	1300.466	995.994
403.350	21.975	1299.067	995.319
404.365	21.912	1298.254	994.254
405.380	21.910	1297.542	993.605
406.394	22.013	1296.676	993.438
407.409	22.048	1296.505	993.419
408.423	22.179	1295.975	993.665
409.438	22.362	1295.234	994.043
410.453	22.493	1294.367	994.031
411.467	22.564	1293.619	993.767
412.482	22.614	1293.104	993.567
413.496	22.662	1292.641	993.392
414.511	22.667	1291.924	992.780
415.526	22.699	1290.976	992.145
416.540	22.830	1290.190	992.189
417.555	22.885	1290.026	992.283
418.569	22.851	1288.988	991.206
419.584	22.870	1288.334	990.723
420.599	22.733	1287.705	989.383
421.613	143.878	1430.563	1788.951
422.628	138.935	1451.357	1789.074
