DTS Sentinel unit serial number:	SN413079Multiplexer serial number:	ORYXHardware model number:	OX4-SRSoftware version number:	ORYX F/W v4.00 Oryx Data Collector v3.7.2.0data status	okinstallation	princeton_trtdifferential loss correction	single-endedforward channel	channel 4reverse channel	N/Adate	2019/09/18time	21:25:35forward acquisition time	60.00reverse acquisition time	0.00gamma	496.2192k internal	0.2330k external	0.2330temperature offset calibration	1.0034default loss term (dB/km)	0.3790temperature slope calibration	1.0000multiplexer offset coefficient	1.0000multiplexer slope coefficient	1.0000fibre end	0.00T internal ref (°C)	25.44T ext. ref 1 (°C)	0.83T ext. ref 2 (°C)	18.21length (m)	temperature (°C)	Stokes	anti-Stokes-747.200	-88.297	-0.105	0.032
-746.185	561.395	0.071	-0.172
-745.171	-76.246	-0.061	0.022
-744.156	-55.520	-0.338	0.152
-743.142	-100.239	0.385	-0.096
-742.127	-200.000	-0.019	-0.145
-741.112	281.331	-0.088	0.158
-740.098	431.326	-0.126	-0.274
-739.083	-200.000	0.036	-0.196
-738.069	27.578	-0.093	0.078
-737.054	800.000	0.054	0.208
-736.039	-200.000	0.007	-0.176
-735.025	-69.140	0.195	0.076
-734.010	-200.000	0.002	0.207
-732.996	-49.362	-0.420	-0.202
-731.981	-200.000	0.041	0.241
-730.966	-15.163	0.323	-0.208
-729.952	577.284	0.141	0.348
-728.937	-200.000	-0.030	0.249
-727.923	-102.375	-0.237	0.057
-726.908	-68.970	-0.125	-0.048
-725.894	677.366	0.085	0.221
-724.879	461.633	-0.130	-0.291
-723.864	386.519	-0.159	-0.330
-722.850	-21.403	-0.193	-0.119
-721.835	-200.000	-0.046	-0.340
-720.821	-200.000	-0.041	-0.279
-719.806	54.843	0.175	0.170
-718.791	22.028	0.304	0.249
-717.777	142.108	0.166	0.222
-716.762	217.948	-0.209	-0.336
-715.748	-200.000	0.002	-0.094
-714.733	-105.759	-0.119	0.027
-713.718	177.268	0.179	0.262
-712.704	-62.151	0.237	0.100
-711.689	231.704	-0.109	-0.180
-710.675	-152.093	0.258	-0.019
-709.660	356.957	0.105	0.211
-708.645	-200.000	0.012	0.130
-707.631	63.938	0.146	0.148
-706.616	-28.233	0.082	0.048
-705.602	-111.610	-0.194	0.040
-704.587	188.551	0.188	0.282
-703.572	800.000	-0.065	-0.208
-702.558	-200.000	0.001	-0.197
-701.543	59.653	0.147	0.146
-700.529	197.226	-0.057	-0.088
-699.514	134.737	-0.046	0.060
-698.499	293.734	-0.179	-0.328
-697.485	800.000	0.066	-0.247
-696.470	120.051	-0.228	-0.284
-695.456	63.343	-0.184	-0.185
-694.441	215.338	0.096	-0.152
-693.426	-161.432	0.037	-0.002
-692.412	-59.703	-0.225	-0.097
-691.397	735.977	-0.060	-0.160
-690.383	103.565	-0.061	0.072
-689.368	-53.973	0.045	-0.020
-688.354	-41.371	-0.139	0.072
-687.339	519.048	-0.032	0.076
-686.324	223.928	0.069	0.112
-685.310	-0.544	-0.290	-0.207
-684.295	-37.081	0.268	-0.144
-683.281	-71.061	0.185	-0.070
-682.266	-168.055	0.250	0.010
-681.251	-200.000	-0.057	0.388
-680.237	69.134	-0.319	-0.329
-679.222	127.816	-0.057	0.073
-678.208	-200.000	0.035	-0.213
-677.193	800.000	-0.079	0.314
-676.178	44.060	-0.096	0.088
-675.164	-200.000	-0.005	0.267
-674.149	-200.000	0.029	-0.138
-673.135	-26.966	0.222	-0.130
-672.120	4.020	-0.376	-0.276
-671.105	42.372	-0.156	-0.142
-670.091	-200.000	-0.005	-0.090
-669.076	-200.000	0.009	-0.089
-668.062	-200.000	0.040	-0.246
-667.047	2.571	-0.049	0.036
-666.032	100.857	0.263	0.306
-665.018	13.057	0.182	0.141
-664.003	-100.004	-0.191	-0.048
-662.989	35.613	-0.240	0.211
-661.974	90.346	-0.094	-0.105
-660.959	-24.654	-0.108	0.064
-659.945	800.000	0.044	0.152
-658.930	18.493	0.128	-0.103
-657.916	-119.617	-0.283	-0.049
-656.901	-52.352	0.158	-0.074
-655.886	183.595	-0.058	-0.086
-654.872	800.000	0.035	0.105
-653.857	-140.143	-0.198	0.021
-652.843	-35.449	-0.314	-0.171
-651.828	-200.000	0.015	0.215
-650.814	-200.000	-0.014	0.105
-649.799	-18.081	0.179	-0.112
-648.784	441.850	-0.068	0.148
-647.770	800.000	-0.143	-0.436
-646.755	111.774	-0.088	-0.106
-645.741	303.356	-0.114	0.212
-644.726	139.588	-0.267	-0.352
-643.711	-65.339	0.247	-0.100
-642.697	76.248	-0.198	0.210
-641.682	800.000	0.078	-0.293
-640.668	-200.000	-0.047	0.244
-639.653	223.825	-0.014	0.022
-638.638	128.118	-0.161	-0.206
-637.624	-200.000	-0.015	0.294
-636.609	10.300	0.040	0.030
-635.595	489.053	-0.080	-0.183
-634.580	-200.000	-0.108	0.488
-633.565	183.259	-0.083	0.122
-632.551	-200.000	-0.031	0.255
-631.536	-200.000	0.004	-0.074
-630.522	800.000	0.086	-0.374
-629.507	-116.512	-0.185	0.034
-628.492	428.898	0.185	-0.401
-627.478	495.940	-0.118	-0.273
-626.463	-75.680	-0.518	-0.184
-625.449	-200.000	0.106	-0.623
-624.434	-129.424	0.033	-0.005
-623.419	21.189	0.114	-0.093
-622.405	-200.000	-0.023	-0.217
-621.390	107.426	-0.208	-0.248
-620.376	50.130	0.070	-0.066
-619.361	111.428	-0.201	0.243
-618.346	340.846	-0.065	-0.127
-617.332	800.000	0.078	0.269
-616.317	185.205	-0.169	0.252
-615.303	374.536	0.073	0.149
-614.288	-94.831	-0.228	-0.062
-613.273	214.513	0.138	0.219
-612.259	-200.000	0.044	0.328
-611.244	-132.602	-0.253	-0.033
-610.230	-94.176	0.308	0.085
-609.215	-200.000	-0.028	-0.133
-608.201	800.000	-0.132	0.385
-607.186	68.355	0.201	0.206
-606.171	-43.006	-0.239	0.121
-605.157	22.888	-0.066	0.054
-604.142	-191.310	0.321	0.003
-603.128	-200.000	-0.036	-0.477
-602.113	433.372	-0.166	0.361
-601.098	-72.763	-0.167	-0.062
-600.084	-200.000	0.003	-0.080
-599.069	746.513	-0.079	-0.212
-598.055	-162.974	0.040	-0.002
-597.040	-200.000	0.048	-0.298
-596.025	-46.510	0.080	-0.039
-595.011	0.886	0.246	-0.176
-593.996	-42.786	0.062	-0.032
-592.982	800.000	-0.027	-0.092
-591.967	-82.228	0.288	-0.094
-590.952	-133.173	-0.306	0.039
-589.938	-115.459	-0.023	-0.004
-588.923	39.267	-0.143	-0.128
-587.909	-200.000	0.070	0.368
-586.894	612.766	0.053	0.133
-585.879	-125.962	0.055	-0.008
-584.865	-39.785	0.115	-0.060
-583.850	-6.428	0.391	0.267
-582.836	-15.176	-0.122	0.078
-581.821	-125.259	0.220	-0.034
-580.806	-92.919	0.346	-0.097
-579.792	325.893	-0.184	-0.352
-578.777	85.214	-0.164	-0.180
-577.763	-151.474	0.270	0.020
-576.748	69.867	0.153	0.157
-575.733	260.697	0.058	0.100
-574.719	-149.634	0.051	0.004
-573.704	454.425	0.109	-0.243
-572.690	-200.000	0.011	0.069
-571.675	52.993	-0.043	0.041
-570.661	21.476	-0.112	-0.091
-569.646	-81.106	-0.307	0.101
-568.631	-49.934	0.175	-0.083
-567.617	72.086	-0.126	0.131
-566.602	-200.000	0.039	0.255
-565.588	-75.277	-0.074	-0.027
-564.573	7.334	0.356	0.266
-563.558	498.489	0.091	-0.210
-562.544	80.318	-0.273	0.293
-561.529	-144.765	-0.514	0.047
-560.515	-22.547	0.099	-0.060
-559.500	800.000	-0.097	-0.398
-558.485	717.185	-0.076	0.201
-557.471	3.695	0.132	0.096
-556.456	-53.502	-0.230	-0.105
-555.442	74.784	0.056	-0.058
-554.427	-106.295	-0.159	-0.035
-553.412	-5.388	-0.167	0.115
-552.398	-64.439	0.359	-0.146
-551.383	525.615	-0.056	-0.131
-550.369	-77.284	0.161	0.056
-549.354	-71.683	0.105	-0.039
-548.339	800.000	-0.013	0.049
-547.325	501.834	0.073	0.169
-546.310	-19.384	-0.071	0.044
-545.296	307.974	0.182	-0.339
-544.281	621.977	0.042	-0.106
-543.266	-200.000	-0.018	0.169
-542.252	34.270	-0.168	0.146
-541.237	-43.897	0.171	0.086
-540.223	30.974	0.061	-0.053
-539.208	78.447	-0.200	-0.214
-538.193	-109.398	0.136	0.029
-537.179	177.538	0.034	-0.050
-536.164	-200.000	-0.039	0.364
-535.150	66.760	0.425	0.432
-534.135	-135.984	-0.169	0.020
-533.121	165.780	-0.125	0.177
-532.106	-34.556	-0.077	0.042
-531.091	17.424	0.186	0.148
-530.077	83.719	0.041	-0.044
-529.062	-200.000	-0.001	-0.200
-528.048	-200.000	0.019	-0.255
-527.033	-182.559	-0.487	-0.009
-526.018	-200.000	-0.055	-0.419
-525.004	-27.203	-0.279	-0.162
-523.989	60.002	0.179	0.176
-522.975	-29.612	0.208	0.119
-521.960	371.159	-0.123	-0.249
-520.945	-41.964	0.221	-0.113
-519.931	-19.181	-0.347	0.215
-518.916	25.502	-0.201	0.167
-517.902	266.579	-0.107	-0.186
-516.887	-74.879	0.404	0.145
-515.872	-153.757	-0.548	-0.038
-514.858	88.277	-0.289	0.320
-513.843	226.424	0.048	0.078
-512.829	-102.613	0.402	-0.096
-511.814	-200.000	-0.110	-0.490
-510.799	800.000	-0.089	-0.251
-509.785	-71.987	-0.213	-0.079
-508.770	251.541	-0.175	-0.297
-507.756	2.096	-0.116	0.084
-506.741	-93.367	0.261	-0.072
-505.726	-81.580	-0.242	-0.079
-504.712	-29.818	0.334	0.190
-503.697	448.627	-0.120	0.265
-502.683	-17.327	-0.277	0.174
-501.668	-200.000	0.001	-0.149
-500.653	-101.617	0.063	0.015
-499.639	-200.000	-0.011	-0.371
-498.624	-153.420	-0.334	-0.023
-497.610	-200.000	-0.084	0.367
-496.595	46.580	0.347	-0.321
-495.581	-79.407	-0.180	0.061
-494.566	502.136	0.063	0.145
-493.551	-32.647	0.283	0.157
-492.537	-3.331	-0.298	-0.207
-491.522	-65.705	0.175	0.070
-490.508	-105.761	0.481	-0.108
-489.493	-147.020	0.210	0.018
-488.478	599.980	-0.090	0.222
-487.464	-131.206	-0.333	0.044
-486.449	787.014	-0.047	0.128
-485.435	-89.634	-0.170	0.050
-484.420	-173.999	-0.299	-0.009
-483.405	46.871	-0.114	0.105
-482.391	-9.967	-0.305	0.202
-481.376	-55.986	0.177	-0.079
-480.362	-39.918	-0.187	0.097
-479.347	-10.824	0.045	0.029
-478.332	-71.013	0.177	0.066
-477.318	182.970	-0.082	0.121
-476.303	-113.655	-0.183	0.036
-475.289	-200.000	-0.007	0.061
-474.274	-28.226	0.198	-0.114
-473.259	-91.048	-0.194	-0.056
-472.245	232.981	-0.108	-0.176
-471.230	105.008	-0.186	0.219
-470.216	-200.000	-0.019	0.134
-469.201	256.663	-0.160	0.274
-468.186	-128.018	0.033	-0.005
-467.172	120.178	-0.011	0.014
-466.157	308.560	0.065	0.122
-465.143	220.397	-0.188	-0.299
-464.128	399.479	-0.129	-0.268
-463.113	116.342	0.117	0.142
-462.099	69.311	0.113	0.115
-461.084	144.343	-0.123	-0.163
-460.070	153.201	-0.058	0.080
-459.055	127.471	0.044	0.056
-458.040	-200.000	0.010	0.353
-457.026	-14.812	-0.261	0.167
-456.011	-89.228	-0.234	0.069
-454.997	267.160	-0.105	-0.183
-453.982	61.160	0.176	-0.174
-452.968	800.000	-0.043	-0.174
-451.953	-25.763	0.312	-0.183
-450.938	-43.356	-0.132	-0.066
-449.924	89.550	0.135	-0.150
-448.909	383.736	0.118	0.242
-447.895	-145.105	-0.146	0.013
-446.880	-200.000	0.064	0.312
-445.865	-200.000	-0.043	0.370
-444.851	644.219	-0.095	-0.241
-443.836	599.513	0.133	-0.328
-442.822	165.778	-0.090	0.127
-441.807	600.147	0.062	0.154
-440.792	10.872	-0.102	0.077
-439.778	-113.729	0.106	-0.021
-438.763	30.302	-0.050	0.042
-437.749	-200.000	-0.029	0.169
-436.734	362.356	0.046	-0.093
-435.719	65.826	0.116	-0.117
-434.705	10.298	-0.044	-0.033
-433.690	177.652	-0.248	0.359
-432.676	521.076	0.079	0.184
-431.661	484.248	0.063	-0.142
-430.646	-200.000	0.032	-0.146
-429.632	46.933	0.306	-0.283
-428.617	-200.000	0.024	0.129
-427.603	800.000	-0.082	0.335
-426.588	262.853	0.243	0.420
-425.573	800.000	0.067	0.265
-424.559	-10.419	-0.288	-0.190
-423.544	800.000	-0.088	-0.256
-422.530	-200.000	0.021	0.116
-421.515	-200.000	-0.074	0.342
-420.500	-35.871	-0.071	0.038
-419.486	-2.370	0.131	-0.091
-418.471	5.799	-0.415	0.305
-417.457	-73.224	0.239	-0.087
-416.442	800.000	0.024	0.098
-415.428	294.400	0.116	0.210
-414.413	-119.700	-0.150	-0.026
-413.398	-11.206	-0.064	-0.042
-412.384	65.058	-0.210	-0.211
-411.369	18.904	-0.174	-0.138
-410.355	-90.550	-0.310	-0.089
-409.340	-200.000	-0.063	-0.299
-408.325	143.723	-0.222	0.294
-407.311	-54.590	0.293	0.132
-406.296	689.809	-0.048	0.125
-405.282	592.750	0.148	0.364
-404.267	-104.239	0.050	0.011
-403.252	151.418	-0.131	0.177
-402.238	78.037	-0.036	0.038
-401.223	4.932	0.205	0.150
-400.209	168.254	0.127	0.180
-399.194	-41.858	0.293	0.149
-398.179	-76.220	0.147	0.051
-397.165	-4.185	-0.209	0.144
-396.150	-117.464	0.165	-0.030
-395.136	-135.381	0.244	-0.029
-394.121	114.630	0.168	0.204
-393.106	108.272	-0.034	0.041
-392.092	-200.000	0.004	0.192
-391.077	-50.864	-0.075	-0.035
-390.063	-200.000	-0.001	-0.051
-389.048	-177.847	0.348	-0.008
-388.033	-184.351	-0.337	0.005
-387.019	81.722	0.015	0.016
-386.004	206.184	0.197	0.304
-384.990	-89.587	0.107	-0.031
-383.975	-64.991	0.120	-0.048
-382.960	42.428	-0.178	0.160
-381.946	190.970	0.104	-0.155
-380.931	328.707	-0.084	0.161
-379.917	-200.000	-0.014	0.350
-378.902	503.377	-0.079	-0.181
-377.888	141.192	0.035	0.046
-376.873	-200.000	-0.020	0.464
-375.858	-119.008	0.284	-0.049
-374.844	-116.310	-0.190	-0.035
-373.829	120.733	0.174	0.214
-372.815	-41.006	-0.224	0.115
-371.800	47.595	-0.118	0.110
-370.785	76.235	0.096	0.100
-369.771	-1.362	0.060	0.042
-368.756	-200.000	-0.042	0.193
-367.742	-200.000	-0.021	-0.227
-366.727	800.000	0.038	-0.134
-365.712	-200.000	-0.056	-0.249
-364.698	-200.000	0.026	-0.376
-363.683	3.569	-0.060	0.044
-362.669	-200.000	0.025	-0.273
-361.654	114.687	0.093	0.113
-360.639	800.000	0.060	-0.232
-359.625	-45.084	-0.150	0.074
-358.610	-200.000	-0.050	0.386
-357.596	-200.000	0.021	0.190
-356.581	-200.000	0.040	0.413
-355.566	306.967	0.166	0.307
-354.552	-58.444	-0.498	-0.214
-353.537	-87.238	0.153	0.046
-352.523	-145.259	-0.250	-0.022
-351.508	-160.254	0.366	-0.020
-350.493	111.102	0.124	0.148
-349.479	-19.238	-0.122	-0.075
-348.464	-200.000	-0.006	-0.049
-347.450	-95.742	0.126	-0.033
-346.435	109.927	-0.064	-0.076
-345.420	-200.000	-0.047	0.294
-344.406	16.463	0.016	-0.013
-343.391	-8.481	0.355	0.236
-342.377	155.382	-0.111	-0.151
-341.362	-200.000	0.023	-0.123
-340.348	327.515	-0.161	0.307
-339.333	81.531	0.222	0.238
-338.318	381.089	0.079	-0.161
-337.304	232.605	-0.081	-0.132
-336.289	-71.843	0.185	-0.068
-335.275	-115.961	0.216	0.040
-334.260	97.075	-0.213	-0.242
-333.245	800.000	0.109	-0.369
-332.231	-53.065	0.423	0.193
-331.216	-87.508	0.061	-0.018
-330.202	-99.894	-0.270	-0.067
-329.187	-15.068	-0.086	0.055
-328.172	118.885	0.128	-0.157
-327.158	81.674	0.170	0.182
-326.143	560.796	0.123	0.294
-325.129	-200.000	-0.059	-0.000
-324.114	727.492	-0.194	0.513
-323.099	-188.177	0.236	-0.003
-322.085	800.000	0.069	-0.209
-321.070	52.550	0.220	-0.208
-320.056	-14.806	-0.091	-0.058
-319.041	-26.634	0.086	0.050
-318.026	-85.352	0.281	-0.087
-317.012	-200.000	-0.043	0.247
-315.997	0.134	0.030	-0.021
-314.983	-105.483	-0.073	-0.016
-313.968	110.792	0.216	0.258
-312.953	-15.424	0.246	-0.156
-311.939	-200.000	-0.005	-0.149
-310.924	18.077	-0.138	0.109
-309.910	-119.324	0.345	-0.059
-308.895	-21.525	-0.347	0.210
-307.880	183.477	0.073	0.106
-306.866	-63.596	0.309	0.126
-305.851	-73.436	-0.381	-0.138
-304.837	58.092	0.197	0.191
-303.822	-200.000	0.005	0.027
-302.807	764.799	-0.113	-0.305
-301.793	450.891	-0.043	-0.093
-300.778	-200.000	0.094	-0.421
-299.764	800.000	-0.088	-0.264
-298.749	252.133	0.071	-0.120
-297.735	107.199	0.225	-0.264
-296.720	-200.000	-0.033	-0.409
-295.705	-200.000	0.025	-0.289
-294.691	800.000	0.099	-0.283
-293.676	244.471	0.037	-0.062
-292.662	-187.885	-0.092	0.001
-291.647	-185.172	-0.184	0.003
-290.632	-200.000	0.023	0.242
-289.618	110.634	-0.127	0.152
-288.603	-99.395	-0.146	-0.036
-287.589	14.648	-0.265	-0.205
-286.574	-200.000	-0.006	-0.222
-285.559	-200.000	0.011	-0.166
-284.545	15.943	-0.222	-0.173
-283.530	-200.000	0.041	-0.209
-282.516	-200.000	0.008	-0.173
-281.501	-130.039	0.168	0.023
-280.486	800.000	0.066	-0.215
-279.472	-15.175	0.315	-0.199
-278.457	25.726	0.193	-0.159
-277.443	55.670	0.051	0.049
-276.428	10.356	0.273	0.206
-275.413	18.518	-0.075	0.059
-274.399	180.579	0.066	0.096
-273.384	230.054	-0.049	0.079
-272.370	-54.920	-0.223	0.100
-271.355	17.654	0.042	0.033
-270.340	727.828	-0.043	-0.113
-269.326	-176.025	-0.351	-0.009
-268.311	-92.288	0.364	0.101
-267.297	-114.896	-0.374	0.070
-266.282	154.236	-0.075	0.102
-265.267	-60.092	0.211	-0.089
-264.253	137.760	0.026	0.034
-263.238	18.027	-0.159	0.125
-262.224	-111.730	0.252	0.050
-261.209	17.275	-0.071	-0.056
-260.195	-42.052	-0.126	0.064
-259.180	194.435	-0.314	-0.470
-258.165	51.071	0.184	-0.173
-257.151	-200.000	-0.011	-0.242
-256.136	-133.332	-0.162	-0.020
-255.122	-200.000	0.031	0.186
-254.107	-26.839	-0.151	-0.087
-253.092	-200.000	-0.016	-0.189
-252.078	-200.000	-0.044	0.241
-251.063	157.463	0.298	0.408
-250.049	800.000	-0.057	-0.213
-249.034	-68.047	0.178	-0.069
-248.019	-98.112	0.124	-0.032
-247.005	79.505	0.147	0.155
-245.990	-200.000	0.006	0.099
-244.976	-51.758	-0.251	-0.115
-243.961	-166.913	-0.059	-0.002
-242.946	-159.408	0.186	-0.010
-241.932	-10.998	0.246	-0.160
-240.917	-84.603	-0.238	-0.074
-239.903	107.563	-0.115	-0.135
-238.888	719.869	-0.125	-0.329
-237.873	42.757	0.168	-0.151
-236.859	-9.627	0.091	-0.060
-235.844	-69.421	-0.294	-0.111
-234.830	800.000	-0.075	0.282
-233.815	800.000	-0.136	-0.438
-232.800	800.000	0.102	-0.397
-231.786	-200.000	0.001	0.173
-230.771	800.000	0.074	0.235
-229.757	383.162	-0.095	0.193
-228.742	-137.674	0.087	0.010
-227.727	328.635	0.006	-0.011
-226.713	-144.599	-0.155	-0.014
-225.698	-89.551	0.187	-0.054
-224.684	440.438	-0.097	0.209
-223.669	-136.701	0.023	0.003
-222.655	381.552	0.064	-0.129
-221.640	147.187	0.101	-0.134
-220.625	800.000	-0.052	0.153
-219.611	-66.345	0.268	-0.105
-218.596	-26.373	0.097	-0.056
-217.582	429.128	-0.076	0.161
-216.567	635.585	0.092	0.230
-215.552	27.194	0.189	0.156
-214.538	800.000	-0.036	0.132
-213.523	-13.899	-0.172	-0.110
-212.509	236.716	0.027	-0.044
-211.494	-12.678	-0.257	-0.165
-210.479	-39.344	0.036	-0.019
-209.465	-36.343	0.046	-0.024
-208.450	-200.000	0.058	0.294
-207.436	70.088	0.214	0.217
-206.421	19.307	0.052	0.041
-205.406	-144.143	0.295	-0.027
-204.392	-36.552	-0.312	0.166
-203.377	305.004	-0.083	0.152
-202.363	-5.201	-0.242	0.164
-201.348	4.212	0.156	0.113
-200.333	18.823	0.327	-0.258
-199.319	-6.271	0.252	0.170
-198.304	-200.000	0.020	0.362
-197.290	-200.000	0.032	-0.148
-196.275	241.341	-0.156	-0.257
-195.260	-200.000	0.015	-0.114
-194.246	9.957	-0.178	-0.133
-193.231	-200.000	-0.002	-0.212
-192.217	156.469	0.175	-0.238
-191.202	800.000	0.038	-0.129
-190.187	99.143	0.116	0.133
-189.173	-28.817	-0.299	0.169
-188.158	-51.327	0.073	0.034
-187.144	162.100	0.102	0.140
-186.129	-106.292	0.264	-0.058
-185.114	129.954	-0.119	0.150
-184.100	-29.798	0.083	-0.047
-183.085	800.000	-0.063	-0.186
-182.071	-139.261	-0.165	0.018
-181.056	-200.000	-0.005	0.148
-180.042	67.277	0.048	-0.048
-179.027	800.000	-0.050	0.143
-178.012	800.000	0.077	-0.270
-176.998	-83.792	0.213	-0.067
-175.983	-40.081	-0.188	-0.096
-174.969	63.074	-0.069	0.068
-173.954	-32.467	0.245	-0.134
-172.939	-141.176	-0.374	-0.038
-171.925	-113.932	0.213	-0.041
-170.910	263.226	0.294	-0.502
-169.896	800.000	0.062	-0.195
-168.881	-200.000	0.008	0.180
-167.866	10.487	-0.197	-0.148
-166.852	800.000	-0.084	-0.250
-165.837	543.165	-0.157	-0.369
-164.823	-200.000	0.017	0.129
-163.808	-110.318	-0.145	-0.030
-162.793	-82.406	-0.104	0.033
-161.779	-128.716	0.350	-0.049
-160.764	-118.759	0.209	0.036
-159.750	-56.099	-0.101	-0.044
-158.735	-60.060	0.296	-0.125
-157.720	-200.000	-0.009	0.147
-156.706	-127.356	0.243	-0.035
-155.691	-200.000	0.019	-0.085
-154.677	276.110	-0.087	0.152
-153.662	330.710	-0.139	-0.263
-152.647	251.815	0.089	0.149
-151.633	-3.864	-0.135	-0.092
-150.618	396.445	0.096	-0.196
-149.604	-50.870	-0.178	-0.083
-148.589	330.933	-0.218	-0.413
-147.574	-96.123	-0.176	-0.046
-146.560	-132.479	-0.314	-0.040
-145.545	-9.026	-0.267	0.176
-144.531	-94.242	-0.244	0.066
-143.516	12.987	-0.246	0.187
-142.502	-200.000	0.028	0.147
-141.487	800.000	-0.049	-0.144
-140.472	355.935	-0.094	-0.183
-139.458	17.955	-0.117	0.092
-138.443	800.000	-0.050	0.208
-137.429	-21.244	0.184	-0.111
-136.414	-94.704	0.287	-0.077
-135.399	535.799	0.075	0.175
-134.385	-130.286	0.160	0.021
-133.370	800.000	-0.048	0.132
-132.356	-45.392	0.270	-0.132
-131.341	-122.169	-0.257	0.041
-130.326	13.076	0.272	-0.207
-129.312	-100.461	0.207	0.050
-128.297	15.148	0.136	0.105
-127.283	800.000	-0.079	-0.263
-126.268	-92.251	0.235	0.065
-125.253	222.941	-0.241	-0.382
-124.239	279.450	-0.128	0.224
-123.224	-37.477	0.139	0.073
-122.210	-200.000	0.020	-0.397
-121.195	116.701	-0.071	0.086
-120.180	-200.000	-0.001	-0.012
-119.166	-147.990	0.391	-0.032
-118.151	29.610	0.142	-0.118
-117.137	29.524	-0.239	-0.199
-116.122	-104.809	-0.017	-0.004
-115.107	-166.959	0.372	-0.015
-114.093	-106.689	0.296	0.065
-113.078	-200.000	0.002	0.099
-112.064	-200.000	0.015	-0.109
-111.049	110.827	0.130	0.154
-110.034	-41.809	-0.167	0.084
-109.020	332.667	0.186	0.352
-108.005	-200.000	0.028	-0.255
-106.991	595.693	0.110	-0.266
-105.976	5.966	0.149	0.109
-104.962	-66.204	0.286	-0.112
-103.947	373.870	0.020	0.040
-102.932	121.086	0.194	-0.237
-101.918	-40.584	-0.228	-0.116
-100.903	80.219	-0.283	-0.299
-99.889	800.000	-0.038	0.147
-98.874	36.816	0.207	0.179
-97.859	800.000	-0.029	-0.094
-96.845	-42.761	0.211	-0.105
-95.830	220.634	0.135	-0.213
-94.816	800.000	-0.023	0.097
-93.801	190.922	-0.231	-0.340
-92.786	-28.175	0.314	0.178
-91.772	36.044	0.018	-0.016
-90.757	21.036	0.139	0.110
-89.743	-200.000	-0.003	0.127
-88.728	-125.005	-0.237	-0.036
-87.713	-27.535	-0.134	0.076
-86.699	800.000	-0.032	-0.107
-85.684	-200.000	-0.033	0.434
-84.670	800.000	0.106	0.359
-83.655	-64.996	0.055	-0.022
-82.640	177.267	-0.077	-0.111
-81.626	-148.422	-0.448	-0.036
-80.611	-200.000	-0.005	-0.264
-79.597	368.878	-0.065	0.129
-78.582	57.797	-0.101	0.097
-77.567	-173.819	-0.071	0.002
-76.553	-97.297	-0.383	0.098
-75.538	-200.000	0.087	0.515
-74.524	15.235	0.118	-0.091
-73.509	-104.730	0.161	-0.036
-72.494	68.188	0.092	0.092
-71.480	-25.221	-0.426	0.247
-70.465	-200.000	-0.014	0.152
-69.451	257.676	-0.034	-0.058
-68.436	42.447	0.212	-0.189
-67.422	-0.028	-0.250	-0.174
-66.407	33.785	-0.291	0.248
-65.392	8.455	0.128	0.094
-64.378	-131.687	0.445	-0.057
-63.363	125.833	0.134	-0.165
-62.349	-125.700	-0.138	-0.020
-61.334	108.622	-1.016	-1.189
-60.319	-26.150	0.540	0.311
-59.305	551.718	-0.424	-0.997
-58.290	620.834	0.491	1.210
-57.276	485.837	0.629	1.405
-56.261	-200.000	118.473	620.385
-55.246	410.408	1533.542	3186.260
-54.232	145.681	2693.663	3537.055
-53.217	89.444	2300.967	2514.135
-52.203	31.580	2049.774	1727.068
-51.188	27.238	1966.155	1618.007
-50.173	26.048	1949.629	1593.838
-49.159	41.865	2018.634	1793.487
-48.144	40.747	2033.284	1796.330
-47.130	27.469	1986.774	1636.794
-46.115	25.512	1975.267	1609.749
-45.100	25.428	1972.290	1606.500
-44.086	25.315	1970.240	1603.758
-43.071	25.319	1967.652	1601.629
-42.057	25.349	1965.226	1599.855
-41.042	25.300	1963.836	1598.228
-40.027	25.293	1961.703	1596.358
-39.013	25.391	1959.408	1595.300
-37.998	25.282	1958.130	1593.229
-36.984	25.297	1956.359	1591.863
-35.969	25.318	1954.855	1590.762
-34.954	25.349	1952.990	1589.452
-33.940	25.383	1951.277	1588.292
-32.925	25.447	1950.135	1587.873
-31.911	25.459	1948.069	1586.227
-30.896	25.461	1946.544	1584.941
-29.881	25.542	1944.893	1584.252
-28.867	25.437	1944.098	1582.613
-27.852	25.498	1942.097	1581.459
-26.838	25.501	1940.030	1579.744
-25.823	25.472	1938.359	1578.058
-24.809	25.512	1936.405	1576.757
-23.794	25.418	1934.889	1574.640
-22.779	25.531	1932.580	1573.690
-21.765	25.451	1931.618	1572.138
-20.750	25.484	1929.239	1570.426
-19.736	25.502	1928.148	1569.638
-18.721	25.523	1927.192	1568.980
-17.706	25.582	1924.701	1567.407
-16.692	25.462	1923.640	1565.428
-15.677	25.558	1921.211	1564.229
-14.663	25.451	1920.392	1562.569
-13.648	25.425	1919.270	1561.367
-12.633	25.402	1918.220	1560.251
-11.619	25.384	1917.254	1559.250
-10.604	25.400	1915.218	1557.670
-9.590	25.383	1914.354	1556.753
-8.575	25.375	1912.904	1555.445
-7.560	25.437	1911.384	1554.684
-6.546	25.520	1909.629	1553.912
-5.531	25.462	1908.966	1552.814
-4.517	25.459	1907.676	1551.677
-3.502	25.347	1906.777	1549.916
-2.487	25.410	1905.414	1549.290
-1.473	25.414	1904.299	1548.354
-0.458	25.448	1898.934	1544.222
0.556	24.009	1879.127	1513.055
1.571	19.137	1859.716	1456.193
2.586	14.884	1880.666	1436.013
3.600	13.691	1914.832	1451.527
4.615	13.753	1908.353	1447.029
5.629	11.058	1811.578	1351.188
6.644	4.822	1699.609	1218.874
7.659	1.173	1666.498	1166.976
8.673	0.879	1663.708	1162.661
9.688	0.845	1662.443	1161.413
10.702	0.902	1660.939	1160.700
11.717	0.704	1657.124	1156.416
12.731	1.170	1656.014	1159.098
13.746	6.004	1665.546	1202.761
14.761	13.222	1680.018	1268.688
15.775	16.895	1686.790	1301.954
16.790	17.382	1686.144	1305.071
17.804	16.411	1682.938	1295.039
18.819	15.539	1679.864	1285.888
19.834	14.932	1677.531	1279.343
20.848	14.704	1675.158	1275.677
21.863	14.396	1674.298	1272.559
22.877	14.200	1672.544	1269.621
23.892	13.928	1671.428	1266.586
24.907	13.764	1670.266	1264.342
25.921	13.819	1668.894	1263.614
26.936	13.851	1667.871	1262.966
27.950	13.879	1667.124	1262.500
28.965	13.884	1666.866	1262.237
29.980	13.862	1666.219	1261.466
30.994	13.984	1665.204	1261.508
32.009	14.033	1664.338	1261.119
33.023	14.105	1663.466	1260.891
34.038	14.068	1662.855	1260.035
35.053	14.042	1661.461	1258.672
36.067	13.956	1660.467	1257.158
37.082	14.017	1659.544	1256.807
38.096	13.998	1658.359	1255.654
39.111	13.929	1657.630	1254.473
40.126	14.054	1656.727	1254.616
41.140	14.062	1655.533	1253.662
42.155	13.982	1654.351	1252.055
43.169	13.788	1653.236	1249.638
44.184	13.870	1651.804	1249.064
45.199	13.910	1650.301	1248.116
46.213	13.887	1649.448	1247.189
47.228	13.831	1648.298	1245.785
48.242	13.941	1646.761	1245.338
49.257	13.916	1645.789	1244.308
50.271	13.917	1644.637	1243.331
51.286	13.900	1643.131	1241.961
52.301	13.962	1641.612	1241.163
53.315	13.959	1640.588	1240.261
54.330	13.868	1639.238	1238.450
55.344	13.796	1637.632	1236.591
56.359	13.877	1636.382	1236.137
57.374	13.916	1635.625	1235.750
58.388	13.875	1634.200	1234.259
59.403	13.833	1632.454	1232.519
60.417	13.722	1631.500	1230.863
61.432	13.800	1629.744	1230.011
62.447	13.791	1628.620	1228.982
63.461	13.723	1627.664	1227.649
64.476	13.773	1626.394	1226.957
65.490	13.827	1624.974	1226.176
66.505	13.780	1624.055	1225.023
67.520	13.821	1622.978	1224.406
68.534	13.831	1621.916	1223.569
69.549	13.885	1620.135	1222.517
70.563	13.838	1619.125	1221.299
71.578	13.858	1617.930	1220.436
72.593	13.765	1617.365	1219.221
73.607	13.742	1616.030	1217.936
74.622	13.715	1615.009	1216.862
75.636	13.711	1614.361	1216.238
76.651	13.671	1613.419	1215.127
77.666	13.655	1612.620	1214.297
78.680	13.641	1611.352	1213.133
79.695	13.709	1610.097	1212.580
80.709	13.775	1609.229	1212.303
81.724	13.712	1608.278	1211.019
82.739	13.791	1607.683	1211.043
83.753	13.752	1606.846	1210.021
84.768	13.873	1605.206	1209.559
85.782	13.970	1604.356	1209.516
86.797	13.932	1604.030	1208.887
87.812	13.968	1602.700	1208.041
88.826	13.891	1601.160	1206.208
89.841	13.908	1600.053	1205.396
90.855	13.863	1599.213	1204.330
91.870	13.810	1598.186	1203.067
92.884	13.926	1597.229	1203.078
93.899	13.910	1596.555	1202.345
94.914	13.951	1595.194	1201.514
95.928	14.011	1593.546	1200.601
96.943	13.977	1592.332	1199.329
97.957	14.078	1590.645	1198.687
98.972	14.031	1589.146	1197.108
99.987	13.937	1587.996	1195.458
101.001	14.042	1585.789	1194.450
102.016	14.014	1584.287	1193.014
103.030	13.904	1583.319	1191.390
104.045	13.880	1582.741	1190.676
105.060	13.896	1581.123	1189.470
106.074	13.973	1579.560	1188.740
107.089	13.842	1577.920	1186.460
108.103	13.794	1576.831	1185.192
109.118	13.743	1575.271	1183.551
110.133	13.790	1573.784	1182.667
111.147	13.807	1572.523	1181.733
112.162	13.819	1571.178	1180.704
113.176	13.884	1569.805	1180.034
114.191	13.839	1568.500	1178.626
115.206	13.888	1567.382	1178.032
116.220	13.875	1566.205	1176.945
117.235	13.927	1564.603	1176.008
118.249	13.876	1563.310	1174.575
119.264	13.861	1561.827	1173.244
120.279	13.960	1560.499	1172.842
121.293	13.889	1559.118	1171.203
122.308	13.868	1557.711	1169.895
123.322	13.947	1555.630	1168.785
124.337	13.838	1554.770	1167.267
125.352	13.813	1553.566	1166.087
126.366	13.897	1551.992	1165.391
127.381	13.817	1551.234	1164.156
128.395	13.800	1550.031	1163.033
129.410	13.796	1548.736	1161.930
130.424	13.933	1546.840	1161.361
131.439	13.905	1545.816	1160.296
132.454	13.820	1544.565	1158.662
133.468	13.849	1543.236	1157.764
134.483	13.800	1541.674	1156.145
135.497	13.933	1540.200	1155.867
136.512	13.933	1538.694	1154.633
137.527	13.929	1537.346	1153.493
138.541	13.913	1536.645	1152.751
139.556	13.965	1534.657	1151.519
140.570	13.826	1533.969	1149.937
141.585	13.959	1532.019	1149.296
142.600	14.036	1530.897	1148.885
143.614	14.065	1529.721	1148.100
144.629	14.083	1528.670	1147.335
145.643	14.058	1527.036	1145.834
146.658	14.127	1525.831	1145.301
147.673	14.154	1523.920	1143.954
148.687	14.121	1522.822	1142.800
149.702	14.128	1521.608	1141.839
150.716	14.057	1519.810	1139.899
151.731	14.202	1517.804	1139.284
152.746	14.067	1516.823	1137.523
153.760	14.018	1515.600	1136.172
154.775	14.116	1514.008	1135.552
155.789	14.130	1512.992	1134.782
156.804	14.199	1511.737	1134.208
157.819	14.221	1510.886	1133.621
158.833	14.204	1509.705	1132.519
159.848	14.149	1508.655	1131.259
160.862	14.262	1507.119	1130.770
161.877	14.266	1506.008	1129.868
162.892	14.248	1504.487	1128.505
163.906	14.220	1503.252	1127.290
164.921	14.173	1502.552	1126.343
165.935	14.210	1501.282	1125.544
166.950	14.186	1500.311	1124.552
167.964	14.221	1499.334	1123.956
168.979	14.189	1498.230	1122.812
169.994	14.248	1497.110	1122.272
171.008	14.254	1495.875	1121.289
172.023	14.224	1495.083	1120.393
173.037	14.382	1493.572	1120.229
174.052	14.344	1492.872	1119.347
175.067	14.420	1491.380	1118.638
176.081	14.372	1490.397	1117.480
177.096	14.207	1489.597	1115.677
178.110	14.356	1487.602	1115.077
179.125	14.316	1486.951	1114.227
180.140	14.317	1485.793	1113.266
181.154	14.345	1484.713	1112.544
182.169	14.294	1483.809	1111.426
183.183	14.398	1482.185	1110.811
184.198	14.415	1481.080	1109.998
185.213	14.480	1480.013	1109.532
186.227	14.489	1479.233	1108.903
187.242	14.490	1477.925	1107.832
188.256	14.499	1476.696	1106.876
189.271	14.525	1475.524	1106.072
190.286	14.564	1474.817	1105.700
191.300	14.574	1473.384	1104.592
192.315	14.434	1472.561	1102.951
193.329	14.390	1471.067	1101.445
194.344	14.371	1470.022	1100.441
195.359	14.454	1468.815	1099.991
196.373	14.529	1467.841	1099.655
197.388	14.545	1466.844	1098.915
198.402	14.611	1465.790	1098.467
199.417	14.653	1464.569	1097.728
200.432	14.676	1463.575	1097.039
201.446	14.626	1462.900	1096.109
202.461	14.711	1461.466	1095.492
203.475	14.772	1460.539	1095.103
204.490	14.752	1458.852	1093.611
205.504	14.771	1458.403	1093.299
206.519	14.761	1456.944	1092.043
207.534	14.667	1455.854	1090.515
208.548	14.639	1455.030	1089.622
209.563	14.723	1453.972	1089.280
210.577	14.728	1452.759	1088.304
211.592	14.730	1452.022	1087.672
212.607	14.919	1450.619	1087.750
213.621	14.837	1450.334	1086.908
214.636	14.869	1449.671	1086.525
215.650	14.858	1448.497	1085.476
216.665	14.911	1447.608	1085.056
217.680	14.874	1446.725	1084.062
218.694	14.893	1446.020	1083.562
219.709	14.970	1444.838	1083.077
220.723	14.973	1443.876	1082.278
221.738	15.012	1443.088	1081.842
222.753	14.924	1442.520	1080.754
223.767	15.060	1441.242	1080.577
224.782	14.971	1440.291	1079.194
225.796	15.001	1439.588	1078.766
226.811	15.082	1438.839	1078.630
227.826	15.088	1437.715	1077.734
228.840	15.078	1436.933	1076.989
229.855	15.020	1436.163	1075.943
230.869	15.054	1434.851	1075.080
231.884	15.053	1434.027	1074.364
232.899	15.026	1432.553	1072.991
233.913	15.039	1431.991	1072.557
234.928	14.968	1430.902	1071.196
235.942	15.011	1429.619	1070.415
236.957	15.065	1428.441	1069.783
237.972	15.027	1427.507	1068.745
238.986	15.104	1426.342	1068.270
240.001	15.138	1425.335	1067.640
241.015	15.099	1424.477	1066.652
242.030	15.127	1422.997	1065.629
243.045	15.084	1422.253	1064.701
244.059	15.145	1421.768	1064.631
245.074	15.192	1420.366	1063.789
246.088	15.254	1419.446	1063.397
247.103	15.228	1419.034	1062.832
248.117	15.296	1418.358	1062.661
249.132	15.328	1417.598	1062.202
250.147	15.310	1416.685	1061.307
251.161	15.443	1416.265	1061.739
252.176	15.346	1415.532	1060.484
253.190	15.452	1414.645	1060.395
254.205	15.496	1413.917	1060.034
255.220	15.419	1412.908	1058.698
256.234	15.571	1411.858	1058.772
257.249	15.570	1411.336	1058.281
258.263	15.689	1410.459	1058.285
259.278	15.628	1409.754	1057.277
260.293	15.623	1408.731	1056.380
261.307	15.465	1408.251	1054.934
262.322	15.564	1407.348	1054.790
263.336	15.682	1406.168	1054.550
264.351	15.779	1405.071	1054.241
265.366	15.687	1404.111	1052.852
266.380	15.692	1403.459	1052.305
267.395	15.808	1402.396	1052.136
268.409	15.807	1401.340	1051.249
269.424	15.780	1400.639	1050.459
270.439	15.745	1399.233	1049.090
271.453	15.843	1398.684	1049.201
272.468	15.734	1397.788	1047.757
273.482	15.829	1396.717	1047.450
274.497	15.797	1395.677	1046.380
275.512	15.734	1395.264	1045.583
276.526	15.833	1394.378	1045.446
277.541	15.709	1393.378	1043.832
278.555	15.809	1392.549	1043.737
279.570	15.888	1391.673	1043.478
280.585	15.861	1390.778	1042.550
281.599	15.920	1390.044	1042.275
282.614	15.912	1388.925	1041.292
283.628	15.843	1388.026	1040.098
284.643	15.849	1387.163	1039.399
285.657	15.998	1386.047	1039.391
286.672	15.953	1384.827	1038.106
287.687	16.008	1384.026	1037.750
288.701	15.961	1382.960	1036.572
289.716	16.031	1382.221	1036.354
290.730	16.040	1381.426	1035.725
291.745	16.106	1380.122	1035.060
292.760	16.007	1379.361	1033.791
293.774	16.090	1378.302	1033.415
294.789	16.092	1377.922	1033.051
295.803	16.140	1376.866	1032.457
296.818	16.096	1376.062	1031.496
297.833	16.105	1374.938	1030.616
298.847	16.163	1373.790	1030.021
299.862	16.151	1372.679	1029.022
300.876	16.112	1372.338	1028.435
301.891	16.122	1371.019	1027.421
302.906	16.169	1370.349	1027.110
303.920	16.227	1369.957	1027.080
304.935	16.279	1368.876	1026.495
305.949	16.255	1368.153	1025.717
306.964	16.325	1367.259	1025.380
307.979	16.434	1366.436	1025.335
308.993	16.333	1365.577	1023.987
310.008	16.360	1364.419	1023.189
311.022	16.414	1363.497	1022.734
312.037	16.399	1362.600	1021.881
313.052	16.468	1361.742	1021.562
314.066	16.411	1360.652	1020.310
315.081	16.389	1359.670	1019.353
316.095	16.436	1358.469	1018.646
317.110	16.509	1357.076	1017.952
318.125	16.495	1356.354	1017.235
319.139	16.463	1356.006	1016.691
320.154	16.440	1354.519	1015.347
321.168	16.439	1353.828	1014.735
322.183	16.560	1352.237	1014.179
323.197	16.493	1351.797	1013.356
324.212	16.520	1350.797	1012.681
325.227	16.473	1350.241	1011.893
326.241	16.522	1349.342	1011.422
327.256	16.530	1348.629	1010.844
328.270	16.583	1347.799	1010.450
329.285	16.650	1346.292	1009.630
330.300	16.570	1345.968	1008.818
331.314	16.553	1344.907	1007.833
332.329	16.581	1343.907	1007.163
333.343	16.520	1343.441	1006.362
334.358	16.609	1342.548	1006.134
335.373	16.645	1341.197	1005.248
336.387	16.719	1340.862	1005.345
337.402	16.624	1340.113	1004.128
338.416	16.700	1339.325	1003.902
339.431	16.673	1338.616	1003.121
340.446	16.769	1337.863	1003.037
341.460	16.767	1337.081	1002.350
342.475	16.816	1335.741	1001.548
343.489	16.855	1335.350	1001.397
344.504	16.863	1334.316	1000.576
345.519	16.907	1332.996	999.762
346.533	16.923	1332.512	999.402
347.548	16.965	1331.560	998.847
348.562	16.898	1330.915	997.880
349.577	16.991	1329.747	997.463
350.592	17.030	1329.057	997.087
351.606	16.816	1328.834	995.572
352.621	16.898	1327.350	994.856
353.635	16.913	1326.060	993.890
354.650	16.864	1325.089	992.784
355.665	16.906	1324.301	992.356
356.679	17.022	1323.193	992.114
357.694	16.870	1322.408	990.551
358.708	17.071	1320.649	990.319
359.723	17.080	1319.941	989.749
360.738	17.094	1318.774	988.872
361.752	17.098	1317.961	988.196
362.767	17.177	1316.834	987.723
363.781	17.057	1315.924	986.257
364.796	17.085	1315.634	986.115
365.810	17.027	1314.809	985.071
366.825	17.074	1314.156	984.770
367.840	17.139	1313.457	984.536
368.854	17.249	1312.624	984.459
369.869	17.307	1312.116	984.324
370.883	17.290	1311.250	983.491
371.898	17.298	1310.134	982.614
372.913	17.348	1309.339	982.220
373.927	17.308	1308.638	981.373
374.942	17.349	1307.558	980.714
375.956	17.304	1307.314	980.188
376.971	17.277	1306.611	979.417
377.986	17.372	1305.587	979.111
379.000	17.319	1304.696	978.050
380.015	17.471	1303.870	978.217
381.029	17.454	1303.227	977.551
382.044	17.464	1302.320	976.842
383.059	17.480	1301.763	976.430
384.073	17.483	1301.205	975.943
385.088	17.540	1300.620	975.742
386.102	17.751	1299.604	976.104
387.117	17.591	1299.272	974.849
388.132	17.494	1298.578	973.688
389.146	17.521	1297.486	972.939
390.161	17.597	1296.663	972.667
391.175	17.553	1295.767	971.661
392.190	17.545	1294.983	970.938
393.205	17.627	1294.325	970.830
394.219	17.605	1293.211	969.780
395.234	17.630	1291.490	968.550
396.248	17.569	1290.724	967.542
397.263	17.617	1289.434	966.762
398.278	17.746	1288.244	966.512
399.292	17.700	1286.803	965.088
400.307	17.618	1286.109	964.020
401.321	17.654	1284.838	963.180
402.336	17.562	1284.080	962.008
403.350	17.571	1283.330	961.412
404.365	17.578	1282.435	960.700
405.380	17.646	1281.432	960.245
406.394	17.637	1280.794	959.628
407.409	17.811	1279.916	959.865
408.423	17.791	1279.242	959.166
409.438	17.832	1278.772	958.959
410.453	17.751	1277.765	957.664
411.467	17.834	1277.269	957.672
412.482	17.875	1276.679	957.377
413.496	17.884	1276.134	956.931
414.511	17.978	1275.279	956.730
415.526	17.992	1274.305	955.996
416.540	17.989	1273.456	955.256
417.555	18.071	1272.817	955.150
418.569	18.074	1272.302	954.698
419.584	17.997	1272.193	954.101
420.599	18.017	1270.889	953.150
421.613	101.795	1357.533	1489.855
422.628	99.242	1370.115	1489.948
