DTS Sentinel unit serial number:	SN413079Multiplexer serial number:	ORYXHardware model number:	OX4-SRSoftware version number:	ORYX F/W v4.00 Oryx Data Collector v3.7.2.0data status	okinstallation	princeton_trtdifferential loss correction	single-endedforward channel	channel 4reverse channel	N/Adate	2019/09/11time	16:11:11forward acquisition time	60.00reverse acquisition time	0.00gamma	496.2192k internal	0.2276k external	0.2276temperature offset calibration	1.0013default loss term (dB/km)	0.3790temperature slope calibration	1.0000multiplexer offset coefficient	1.0000multiplexer slope coefficient	1.0000fibre end	0.00T internal ref (°C)	43.27T ext. ref 1 (°C)	1.03T ext. ref 2 (°C)	39.37length (m)	temperature (°C)	Stokes	anti-Stokes-747.200	-185.000	0.171	0.003
-746.185	-85.539	0.207	-0.066
-745.171	-144.685	0.515	0.049
-744.156	-167.827	-0.318	0.013
-743.142	-200.000	-0.008	-0.146
-742.127	311.690	0.132	0.256
-741.112	8.891	0.136	0.106
-740.098	709.684	0.148	0.403
-739.083	-90.739	0.140	-0.042
-738.069	-200.000	-0.009	-0.068
-737.054	-87.706	0.024	0.008
-736.039	-138.771	-0.255	0.029
-735.025	363.567	0.147	0.305
-734.010	-122.072	0.292	-0.049
-732.996	203.403	-0.088	0.141
-731.981	-36.003	-0.061	0.034
-730.966	-78.393	0.112	0.040
-729.952	167.887	-0.160	-0.234
-728.937	91.429	0.166	-0.192
-727.923	-75.320	-0.278	-0.102
-726.908	-200.000	0.027	0.245
-725.894	294.092	-0.019	-0.036
-724.879	55.060	-0.038	0.037
-723.864	-200.000	-0.010	-0.051
-722.850	89.494	0.216	0.248
-721.835	-42.800	0.243	0.127
-720.821	168.697	-0.189	0.278
-719.806	-69.473	-0.250	0.099
-718.791	-39.356	-0.042	-0.023
-717.777	129.924	0.065	-0.085
-716.762	-42.761	-0.159	0.083
-715.748	-68.954	-0.365	0.145
-714.733	172.587	-0.148	-0.219
-713.718	-138.734	-0.252	0.028
-712.704	110.203	-0.082	-0.101
-711.689	555.754	0.165	-0.410
-710.675	-149.564	-0.277	-0.023
-709.660	800.000	-0.065	-0.190
-708.645	125.480	-0.276	-0.359
-707.631	-200.000	-0.035	0.170
-706.616	-10.283	-0.257	0.176
-705.602	10.773	-0.203	0.159
-704.587	466.887	-0.003	0.006
-703.572	46.257	-0.027	0.026
-702.558	-155.392	0.155	0.010
-701.543	46.437	-0.177	0.169
-700.529	364.004	0.107	-0.222
-699.514	-79.833	0.344	-0.119
-698.499	-127.637	-0.151	-0.022
-697.485	-200.000	0.051	-0.311
-696.470	4.189	-0.223	-0.168
-695.456	-53.907	0.088	0.041
-694.441	-92.338	0.042	-0.012
-693.426	299.676	0.069	0.131
-692.412	-115.614	0.232	-0.045
-691.397	409.216	-0.081	-0.177
-690.383	37.114	-0.220	-0.200
-689.368	-93.205	-0.304	-0.087
-688.354	205.935	0.064	-0.102
-687.339	15.597	0.138	-0.111
-686.324	-200.000	-0.053	-0.372
-685.310	-55.684	0.283	-0.130
-684.295	215.344	-0.071	0.116
-683.281	21.775	-0.042	-0.035
-682.266	-25.929	-0.159	-0.096
-681.251	-72.989	-0.192	-0.072
-680.237	-111.787	-0.157	-0.033
-679.222	104.727	0.163	-0.197
-678.208	800.000	-0.025	-0.100
-677.193	-77.953	0.131	-0.047
-676.178	-135.883	-0.135	0.016
-675.164	-200.000	0.017	0.136
-674.149	210.802	0.196	-0.317
-673.135	-200.000	0.034	-0.240
-672.120	6.491	-0.177	-0.135
-671.105	203.094	0.153	0.243
-670.091	-165.567	0.224	0.010
-669.076	34.385	0.295	0.265
-668.062	-47.126	-0.209	0.105
-667.047	360.979	0.044	0.090
-666.032	-41.086	0.093	0.049
-665.018	-119.615	0.031	-0.005
-664.003	-98.403	-0.214	0.056
-662.989	800.000	-0.079	-0.258
-661.974	-4.442	-0.137	-0.098
-660.959	800.000	0.013	0.051
-659.945	800.000	-0.094	0.331
-658.930	800.000	-0.068	0.295
-657.916	-3.262	-0.101	-0.073
-656.901	414.975	-0.140	0.306
-655.886	-193.450	0.095	0.001
-654.872	-164.235	0.106	-0.005
-653.857	71.212	0.140	0.149
-652.843	-94.669	-0.242	0.067
-651.828	-200.000	-0.015	0.202
-650.814	377.864	-0.012	0.025
-649.799	68.157	-0.151	-0.159
-648.784	47.256	-0.218	0.209
-647.770	-137.084	-0.268	-0.031
-646.755	-200.000	-0.013	0.068
-645.741	459.946	-0.036	-0.083
-644.726	160.420	-0.028	0.040
-643.711	-54.849	-0.104	0.048
-642.697	-130.319	-0.229	-0.032
-641.682	-86.729	0.328	0.103
-640.668	-107.947	-0.110	0.025
-639.653	-116.395	0.306	0.058
-638.638	-108.611	0.164	-0.036
-637.624	71.775	0.228	-0.243
-636.609	-200.000	-0.002	-0.021
-635.595	44.632	0.169	0.160
-634.580	78.847	0.097	-0.107
-633.565	800.000	-0.064	0.244
-632.551	584.409	0.089	0.224
-631.536	92.513	0.060	0.069
-630.522	-59.101	-0.211	0.093
-629.507	102.068	0.107	0.128
-628.492	-30.842	-0.377	0.218
-627.478	247.124	0.098	-0.169
-626.463	800.000	-0.043	-0.143
-625.449	-156.604	0.196	-0.012
-624.434	800.000	0.018	-0.075
-623.419	-118.705	0.295	-0.053
-622.405	423.161	0.058	-0.128
-621.390	-195.604	-0.264	-0.002
-620.376	-56.502	0.361	-0.164
-619.361	-22.472	-0.152	-0.094
-618.346	-200.000	0.015	-0.242
-617.332	-153.539	0.315	0.022
-616.317	-165.005	0.072	0.003
-615.303	-23.781	0.036	-0.022
-614.288	715.846	0.064	0.175
-613.273	-105.377	0.148	0.034
-612.259	-91.978	0.289	-0.084
-611.244	-34.977	0.090	0.050
-610.230	734.541	-0.111	0.305
-609.215	112.371	0.272	-0.338
-608.201	800.000	0.147	0.437
-607.186	-200.000	0.017	0.205
-606.171	800.000	0.078	-0.227
-605.157	-108.752	-0.118	-0.026
-604.142	-6.799	-0.056	0.039
-603.128	89.848	-0.218	0.249
-602.113	-24.740	-0.200	0.122
-601.098	-54.707	-0.426	0.197
-600.084	-200.000	-0.021	-0.141
-599.069	-52.447	0.121	-0.058
-598.055	35.171	0.165	-0.148
-597.040	800.000	-0.041	0.156
-596.025	199.373	-0.142	-0.223
-595.011	800.000	0.093	0.297
-593.996	307.249	-0.123	0.235
-592.982	-200.000	0.019	-0.105
-591.967	496.899	-0.112	0.263
-590.952	800.000	0.094	-0.411
-589.938	-79.250	-0.253	0.088
-588.923	-110.314	-0.170	0.036
-587.909	-33.251	-0.171	-0.097
-586.894	-24.011	0.057	0.035
-585.879	-53.494	0.024	0.011
-584.865	-45.186	-0.137	-0.070
-583.850	36.033	0.122	0.110
-582.836	89.799	0.049	-0.056
-581.821	-73.207	0.395	0.148
-580.806	25.161	-0.297	-0.252
-579.792	-200.000	0.031	-0.179
-578.777	-15.262	-0.170	0.112
-577.763	349.145	-0.083	0.167
-576.748	-71.223	0.247	0.095
-575.733	648.274	0.102	0.267
-574.719	-34.651	0.239	0.134
-573.704	-76.899	-0.195	-0.070
-572.690	397.410	-0.037	0.079
-571.675	526.646	-0.005	-0.013
-570.661	-199.991	0.067	-0.000
-569.646	182.106	-0.041	0.061
-568.631	19.473	0.069	0.057
-567.617	-200.000	-0.024	0.287
-566.602	5.420	-0.065	-0.049
-565.588	800.000	-0.122	-0.515
-564.573	-200.000	-0.024	0.116
-563.558	-128.688	-0.133	-0.019
-562.544	380.165	-0.037	-0.077
-561.529	-65.381	-0.216	0.089
-560.515	153.804	-0.152	-0.213
-559.500	-22.046	-0.313	0.195
-558.485	85.588	0.195	-0.219
-557.471	-34.831	0.163	0.091
-556.456	204.401	0.164	0.260
-555.442	-104.356	0.249	-0.059
-554.427	-46.684	-0.223	0.112
-553.412	-200.000	-0.041	-0.360
-552.398	-74.380	-0.088	0.033
-551.383	-35.218	-0.209	-0.116
-550.369	800.000	-0.038	-0.116
-549.354	-200.000	0.011	-0.053
-548.339	-100.965	-0.360	0.090
-547.325	163.556	0.181	-0.260
-546.310	800.000	-0.006	0.021
-545.296	198.402	-0.100	0.157
-544.281	68.218	0.067	-0.070
-543.266	-145.053	0.141	-0.013
-542.252	-45.315	-0.211	0.107
-541.237	-37.665	-0.335	-0.182
-540.223	-200.000	-0.057	-0.452
-539.208	238.592	-0.137	0.233
-538.193	57.955	0.040	-0.040
-537.179	279.449	-0.109	-0.198
-536.164	308.129	-0.165	-0.314
-535.150	3.571	0.220	0.164
-534.135	25.868	0.327	0.279
-533.121	749.817	-0.049	0.134
-532.106	-200.000	-0.056	-0.256
-531.091	245.942	-0.189	-0.326
-530.077	-22.219	-0.284	-0.176
-529.062	-9.296	-0.074	-0.051
-528.048	702.867	0.071	-0.191
-527.033	305.001	0.101	0.192
-526.018	-92.111	0.242	-0.070
-525.004	221.582	0.125	0.205
-523.989	46.817	0.104	0.099
-522.975	365.454	0.104	-0.214
-521.960	324.025	0.112	0.218
-520.945	-200.000	0.012	-0.101
-519.931	-36.776	0.275	0.151
-518.916	-200.000	-0.027	-0.225
-517.902	-124.592	-0.012	-0.002
-516.887	-123.161	-0.242	0.040
-515.872	22.013	-0.275	-0.229
-514.858	-26.984	-0.353	-0.210
-513.843	800.000	0.060	-0.183
-512.829	191.244	0.091	0.140
-511.814	-62.319	-0.352	0.150
-510.799	10.524	-0.228	-0.177
-509.785	-89.382	-0.227	-0.068
-508.770	-96.072	-0.267	0.072
-507.756	689.900	0.091	0.244
-506.741	48.326	-0.085	0.082
-505.726	419.191	0.071	-0.156
-504.712	-200.000	-0.003	0.122
-503.697	38.311	-0.156	0.142
-502.683	90.099	0.167	-0.191
-501.668	-200.000	0.039	0.293
-500.653	54.915	0.182	-0.179
-499.639	36.131	0.219	0.197
-498.624	50.964	0.148	0.143
-497.610	208.063	0.235	-0.375
-496.595	-147.796	-0.137	-0.012
-495.581	71.431	0.048	-0.051
-494.566	-200.000	-0.007	-0.175
-493.551	41.758	-0.220	0.204
-492.537	-200.000	-0.002	0.130
-491.522	551.950	-0.025	0.060
-490.508	629.457	0.067	-0.173
-489.493	-200.000	0.022	-0.143
-488.478	405.471	-0.044	-0.094
-487.464	18.141	0.098	0.080
-486.449	-162.852	-0.158	0.008
-485.435	-200.000	0.037	0.204
-484.420	-105.710	-0.236	-0.055
-483.405	-174.135	0.207	0.006
-482.391	800.000	-0.120	0.391
-481.376	24.534	-0.067	-0.057
-480.362	-54.552	0.127	-0.059
-479.347	15.144	-0.164	0.131
-478.332	75.047	0.233	-0.250
-477.318	-109.715	0.112	0.024
-476.303	-0.261	0.025	-0.018
-475.289	99.599	-0.140	-0.165
-474.274	-200.000	-0.048	-0.231
-473.259	-109.811	-0.368	0.079
-472.245	272.147	-0.158	-0.284
-471.230	647.761	-0.091	0.236
-470.216	-200.000	0.022	0.280
-469.201	-182.525	-0.386	0.007
-468.186	-200.000	-0.035	-0.389
-467.172	-130.527	-0.183	0.025
-466.157	-107.427	0.256	-0.057
-465.143	153.437	0.244	-0.341
-464.128	-200.000	-0.046	0.222
-463.113	70.591	0.060	-0.064
-462.099	640.037	0.114	0.297
-461.084	186.388	0.175	-0.266
-460.070	46.665	-0.212	0.200
-459.055	800.000	-0.082	-0.272
-458.040	108.321	-0.051	-0.062
-457.026	-82.419	-0.135	-0.045
-456.011	697.321	-0.164	-0.439
-454.997	63.238	0.163	0.167
-453.982	-17.257	-0.321	0.206
-452.968	-142.338	-0.381	-0.038
-451.953	449.368	-0.077	0.173
-450.938	800.000	-0.077	0.270
-449.924	-147.579	-0.183	-0.016
-448.909	800.000	0.011	0.047
-447.895	209.291	0.222	0.355
-446.880	112.230	0.128	-0.158
-445.865	238.443	-0.103	0.174
-444.851	-200.000	0.018	-0.124
-443.836	352.561	-0.166	0.335
-442.822	-200.000	0.040	0.183
-441.807	15.819	-0.205	-0.164
-440.792	800.000	-0.045	-0.194
-439.778	54.667	0.163	-0.160
-438.763	-102.265	-0.232	-0.057
-437.749	-200.000	-0.051	0.247
-436.734	-109.625	-0.056	0.012
-435.719	-71.679	-0.252	0.096
-434.705	19.240	-0.132	0.108
-433.690	800.000	-0.013	0.051
-432.676	-200.000	0.038	0.251
-431.661	-200.000	-0.023	-0.364
-430.646	75.678	-0.140	-0.150
-429.632	-200.000	0.006	0.067
-428.617	800.000	-0.134	0.431
-427.603	800.000	-0.112	-0.328
-426.588	-39.236	0.043	0.023
-425.573	164.615	0.171	0.245
-424.559	-200.000	-0.008	-0.193
-423.544	-150.461	0.249	0.019
-422.530	67.413	0.242	-0.251
-421.515	83.259	-0.172	0.190
-420.500	98.905	-0.123	0.144
-419.486	57.359	-0.064	-0.063
-418.471	-42.490	-0.157	-0.081
-417.457	-10.118	-0.102	0.069
-416.442	562.357	-0.049	0.121
-415.428	-200.000	0.046	-0.420
-414.413	27.037	-0.395	-0.338
-413.398	173.318	0.108	0.159
-412.384	75.486	0.226	0.242
-411.369	-97.488	-0.125	-0.033
-410.355	574.699	0.170	-0.422
-409.340	-200.000	-0.009	-0.299
-408.325	800.000	-0.107	-0.304
-407.311	38.076	-0.076	-0.069
-406.296	266.901	-0.108	0.192
-405.282	666.875	0.108	-0.284
-404.267	-200.000	0.010	0.125
-403.252	800.000	-0.066	-0.216
-402.238	470.457	0.067	-0.153
-401.223	-71.058	-0.157	-0.060
-400.209	77.015	-0.174	-0.188
-399.194	-154.411	-0.236	-0.016
-398.179	-107.084	-0.050	-0.011
-397.165	481.866	-0.022	0.051
-396.150	694.771	-0.081	0.216
-395.136	434.699	0.163	0.361
-394.121	-104.057	0.041	-0.010
-393.106	56.757	-0.271	0.268
-392.092	133.422	-0.096	0.126
-391.077	21.593	-0.251	0.207
-390.063	-144.387	0.067	0.006
-389.048	141.451	-0.232	-0.312
-388.033	-200.000	-0.039	-0.199
-387.019	-85.551	-0.208	-0.066
-386.004	-200.000	0.009	-0.079
-384.990	277.733	0.041	-0.074
-383.975	332.990	0.113	0.221
-382.960	-99.371	0.306	-0.079
-381.946	37.456	-0.110	-0.099
-380.931	-104.083	-0.251	-0.059
-379.917	-128.104	-0.058	-0.008
-378.902	800.000	0.033	-0.144
-377.888	-200.000	0.006	-0.187
-376.873	-200.000	-0.049	0.278
-375.858	86.807	0.054	-0.061
-374.844	477.217	-0.062	0.143
-373.829	-159.384	0.083	0.005
-372.815	-55.706	-0.168	0.076
-371.800	16.905	-0.093	-0.075
-370.785	656.298	-0.031	0.080
-369.771	-200.000	-0.013	-0.358
-368.756	-200.000	0.024	-0.164
-367.742	84.036	-0.095	-0.106
-366.727	-102.041	0.208	0.051
-365.712	-116.249	-0.130	-0.024
-364.698	-200.000	0.061	0.368
-363.683	-21.165	0.050	0.031
-362.669	-133.276	0.194	0.025
-361.654	-200.000	0.031	0.166
-360.639	-118.476	0.141	0.025
-359.625	800.000	0.006	-0.022
-358.610	-88.690	0.278	-0.084
-357.596	-200.000	0.042	0.303
-356.581	-28.020	-0.022	0.013
-355.566	117.152	0.110	0.137
-354.552	150.643	0.194	0.268
-353.537	-100.993	0.275	-0.069
-352.523	-8.649	-0.153	-0.104
-351.508	1.373	0.202	-0.147
-350.493	704.584	0.011	-0.030
-349.479	-21.171	0.147	0.091
-348.464	-116.806	0.498	-0.093
-347.450	228.432	0.143	-0.237
-346.435	-32.376	-0.119	-0.067
-345.420	-43.368	-0.093	0.048
-344.406	-145.963	0.295	0.027
-343.391	172.957	-0.092	-0.134
-342.377	112.525	0.182	-0.224
-341.362	13.991	0.230	-0.182
-340.348	-47.219	0.220	-0.109
-339.333	800.000	0.031	-0.135
-338.318	800.000	-0.042	-0.149
-337.304	-86.928	-0.027	0.008
-336.289	66.865	0.169	-0.175
-335.275	-104.310	-0.298	0.070
-334.260	-200.000	0.042	0.225
-333.245	-33.947	-0.105	0.058
-332.231	-146.255	-0.243	0.022
-331.216	-72.574	0.480	-0.180
-330.202	176.108	0.083	0.123
-329.187	-134.162	-0.346	-0.043
-328.172	-188.590	-0.305	-0.004
-327.158	117.972	0.125	-0.156
-326.143	159.923	-0.108	0.153
-325.129	-200.000	-0.023	0.145
-324.114	800.000	-0.020	0.059
-323.099	-133.045	0.215	-0.028
-322.085	-165.930	-0.383	0.017
-321.070	24.412	-0.088	0.074
-320.056	160.345	0.161	0.228
-319.041	-33.649	0.318	0.178
-318.026	800.000	-0.051	-0.183
-317.012	-200.000	-0.055	0.285
-315.997	578.274	-0.065	0.160
-314.983	-200.000	-0.004	0.191
-313.968	563.003	-0.047	0.115
-312.953	73.119	-0.086	-0.091
-311.939	72.510	0.307	0.325
-310.924	-119.828	0.261	0.046
-309.910	379.908	-0.152	-0.315
-308.895	52.218	0.085	0.082
-307.880	800.000	-0.071	-0.211
-306.866	-67.286	-0.299	-0.119
-305.851	73.423	0.256	-0.271
-304.837	190.380	0.113	-0.172
-303.822	-124.007	-0.262	0.042
-302.807	-85.234	-0.064	0.020
-301.793	-54.664	0.183	-0.084
-300.778	-70.227	0.106	-0.041
-299.764	404.089	-0.102	-0.218
-298.749	-200.000	0.005	0.412
-297.735	-113.732	0.127	-0.025
-296.720	-200.000	-0.047	0.000
-295.705	-52.507	0.257	0.120
-294.691	98.487	0.102	-0.119
-293.676	40.574	0.131	-0.120
-292.662	-200.000	-0.054	-0.457
-291.647	-200.000	0.060	-0.270
-290.632	90.048	-0.069	0.079
-289.618	-111.798	-0.239	0.049
-288.603	531.264	-0.194	0.464
-287.589	-200.000	0.018	-0.205
-286.574	-200.000	-0.094	0.438
-285.559	-22.654	0.021	0.013
-284.545	-55.857	-0.463	-0.209
-283.530	-109.574	0.144	-0.031
-282.516	135.738	0.161	-0.212
-281.501	800.000	0.053	0.204
-280.486	789.374	0.080	0.222
-279.472	-88.880	-0.216	0.065
-278.457	233.056	-0.069	-0.114
-277.443	24.672	-0.160	-0.134
-276.428	-157.469	0.305	-0.019
-275.413	-156.264	0.217	-0.014
-274.399	-95.737	-0.067	0.018
-273.384	-200.000	0.026	0.222
-272.370	437.348	0.113	0.249
-271.355	-200.000	-0.014	-0.213
-270.340	-142.776	0.217	-0.021
-269.326	-61.467	0.206	0.088
-268.311	3.722	0.355	0.262
-267.297	-111.226	-0.146	0.030
-266.282	-87.682	0.181	0.055
-265.267	800.000	0.081	0.313
-264.253	-35.433	0.350	0.192
-263.238	61.125	0.058	0.058
-262.224	-76.804	-0.136	-0.048
-261.209	308.467	0.142	-0.268
-260.195	241.661	-0.114	0.193
-259.180	-49.188	0.148	0.071
-258.165	74.704	-0.165	-0.175
-257.151	-200.000	0.001	0.235
-256.136	10.431	0.192	-0.148
-255.122	120.769	-0.132	0.166
-254.107	54.665	-0.403	-0.393
-253.092	-133.558	0.400	0.051
-252.078	-63.828	-0.102	-0.042
-251.063	-104.756	0.108	0.025
-250.049	-60.812	0.207	0.088
-249.034	6.559	0.338	-0.254
-248.019	800.000	0.044	0.153
-247.005	40.593	-0.157	-0.143
-245.990	35.627	0.195	0.173
-244.976	-200.000	-0.053	-0.252
-243.961	-163.151	-0.345	-0.017
-242.946	-200.000	0.074	-0.384
-241.932	800.000	0.024	0.091
-240.917	223.323	0.174	0.284
-239.903	-200.000	0.013	0.178
-238.888	-200.000	0.008	0.141
-237.873	391.957	-0.151	0.318
-236.859	371.105	-0.140	0.288
-235.844	37.324	-0.114	-0.102
-234.830	800.000	0.032	0.098
-233.815	-45.403	-0.103	0.052
-232.800	-61.517	0.073	0.031
-231.786	-9.207	-0.034	-0.023
-230.771	118.292	0.208	-0.259
-229.757	129.326	0.245	-0.317
-228.742	181.439	-0.078	-0.117
-227.727	588.794	-0.060	-0.149
-226.713	-28.636	0.203	-0.118
-225.698	39.328	0.216	0.195
-224.684	-200.000	0.052	0.339
-223.669	-65.127	-0.075	0.030
-222.655	441.898	0.066	-0.146
-221.640	-74.884	-0.163	-0.059
-220.625	228.147	-0.088	0.144
-219.611	22.406	-0.273	0.225
-218.596	-11.974	0.368	0.244
-217.582	-57.966	0.070	0.031
-216.567	254.371	-0.230	0.397
-215.552	39.131	-0.071	0.064
-214.538	82.645	0.170	0.186
-213.523	-200.000	-0.031	0.228
-212.509	-60.711	-0.052	-0.022
-211.494	235.853	0.020	0.034
-210.479	82.022	0.290	-0.317
-209.465	357.944	-0.099	0.199
-208.450	71.158	0.041	0.042
-207.436	-72.408	0.120	-0.045
-206.421	-200.000	0.150	0.000
-205.406	279.449	0.060	-0.107
-204.392	-110.483	0.103	0.022
-203.377	160.529	0.174	-0.245
-202.363	-200.000	-0.039	-0.173
-201.348	800.000	0.132	-0.557
-200.333	-200.000	-0.038	0.217
-199.319	800.000	-0.097	0.385
-198.304	-117.831	0.243	0.044
-197.290	60.473	0.188	0.188
-196.275	-200.000	0.000	-0.045
-195.260	-59.120	0.082	-0.035
-194.246	-200.000	-0.019	0.386
-193.231	136.063	-0.055	0.072
-192.217	-48.711	-0.080	-0.039
-191.202	136.790	0.164	0.216
-190.187	-37.679	0.134	-0.072
-189.173	78.080	0.257	0.276
-188.158	-123.119	-0.070	0.011
-187.144	-200.000	-0.009	0.151
-186.129	376.931	0.195	0.401
-185.114	-41.482	-0.006	0.003
-184.100	410.427	-0.160	-0.341
-183.085	-145.097	-0.130	-0.012
-182.071	-64.287	-0.327	-0.134
-181.056	18.282	-0.138	-0.111
-180.042	-19.328	-0.147	0.092
-179.027	-200.000	-0.018	-0.346
-178.012	-200.000	-0.081	-0.749
-176.998	466.755	0.049	-0.111
-175.983	190.999	-0.097	0.147
-174.969	672.959	0.071	-0.186
-173.954	3.380	0.244	-0.179
-172.939	-200.000	-0.007	0.063
-171.925	485.757	0.135	0.310
-170.910	-122.833	0.274	-0.045
-169.896	7.918	0.141	-0.107
-168.881	800.000	-0.059	-0.184
-167.866	73.930	-0.297	-0.314
-166.852	-104.650	-0.183	-0.043
-165.837	-193.705	0.240	-0.002
-164.823	153.798	0.224	0.309
-163.808	-54.521	0.217	0.099
-162.793	47.272	-0.189	-0.177
-161.779	-102.049	0.165	0.040
-160.764	79.794	0.040	-0.043
-159.750	-25.692	-0.142	-0.084
-158.735	158.497	0.049	0.068
-157.720	69.665	0.150	-0.156
-156.706	-22.072	0.083	-0.051
-155.691	157.558	0.008	-0.011
-154.677	155.850	-0.164	-0.228
-153.662	167.630	0.090	0.129
-152.647	800.000	-0.082	0.289
-151.633	141.449	0.155	0.207
-150.618	-0.021	0.078	-0.056
-149.604	284.745	0.048	0.087
-148.589	177.933	0.226	-0.331
-147.574	-140.598	0.264	0.028
-146.560	122.103	-0.117	-0.147
-145.545	117.477	-0.041	-0.050
-144.531	-65.063	0.410	-0.167
-143.516	800.000	-0.058	0.165
-142.502	-200.000	-0.005	0.248
-141.487	800.000	-0.044	-0.180
-140.472	73.128	0.126	0.133
-139.458	715.715	0.045	-0.120
-138.443	-8.548	0.088	-0.059
-137.429	238.593	-0.177	-0.295
-136.414	-200.000	-0.062	0.377
-135.399	-106.546	-0.186	0.042
-134.385	274.803	0.203	-0.361
-133.370	800.000	-0.050	0.198
-132.356	76.782	-0.026	0.027
-131.341	574.391	0.052	-0.127
-130.326	-19.896	0.108	-0.067
-129.312	58.616	0.093	-0.092
-128.297	-169.967	-0.306	-0.011
-127.283	-90.550	-0.339	-0.099
-126.268	503.574	-0.077	-0.180
-125.253	-139.408	0.113	0.012
-124.239	-200.000	-0.038	-0.231
-123.224	4.863	-0.077	0.057
-122.210	138.640	-0.325	-0.430
-121.195	-200.000	0.039	0.274
-120.180	-140.286	0.057	-0.006
-119.166	-122.654	-0.198	-0.032
-118.151	204.193	-0.062	-0.097
-117.137	-88.979	-0.180	-0.053
-116.122	800.000	0.069	0.218
-115.107	-69.217	-0.195	-0.076
-114.093	-148.277	0.439	-0.036
-113.078	800.000	0.036	0.149
-112.064	-200.000	0.019	0.171
-111.049	-41.322	0.181	-0.094
-110.034	-200.000	-0.045	0.212
-109.020	-4.251	-0.267	0.186
-108.005	-200.000	0.046	-0.266
-106.991	-74.046	-0.143	0.052
-105.976	-200.000	-0.042	0.212
-104.962	-11.781	0.266	-0.176
-103.947	145.783	0.161	-0.217
-102.932	800.000	0.047	-0.163
-101.918	-200.000	0.013	-0.240
-100.903	-200.000	0.000	0.083
-99.889	800.000	-0.090	0.322
-98.874	228.808	-0.123	0.201
-97.859	-122.513	0.114	-0.019
-96.845	38.672	0.359	0.322
-95.830	67.530	0.214	0.219
-94.816	-200.000	0.009	0.273
-93.801	41.066	0.274	-0.248
-92.786	159.041	-0.173	-0.242
-91.772	-79.128	0.157	-0.054
-90.757	-166.225	-0.384	0.016
-89.743	-200.000	-0.041	-0.338
-88.728	-200.000	0.024	0.119
-87.713	425.096	-0.076	-0.164
-86.699	800.000	-0.055	-0.168
-85.684	111.350	-0.176	0.213
-84.670	78.108	0.156	-0.167
-83.655	-200.000	0.033	-0.195
-82.640	280.456	0.087	-0.156
-81.626	-200.000	-0.025	-0.275
-80.611	-200.000	-0.011	0.307
-79.597	468.271	-0.059	0.133
-78.582	-115.126	0.241	0.046
-77.567	-68.219	-0.180	0.070
-76.553	800.000	0.082	-0.250
-75.538	800.000	0.055	-0.178
-74.524	-200.000	-0.003	-0.053
-73.509	739.456	-0.017	0.045
-72.494	59.294	0.259	-0.256
-71.480	-40.540	-0.245	-0.128
-70.465	281.637	0.146	0.263
-69.451	-64.218	-0.372	0.152
-68.436	-61.682	0.166	-0.070
-67.422	-124.435	0.140	-0.022
-66.407	93.726	0.228	0.259
-65.392	577.727	-0.026	-0.064
-64.378	583.535	0.086	0.213
-63.363	-5.009	-0.331	0.228
-62.349	-200.000	-0.004	0.136
-61.334	273.964	-0.440	-0.780
-60.319	89.652	0.253	0.283
-59.305	-200.000	-0.101	-0.659
-58.290	67.780	0.460	0.472
-57.276	169.133	0.972	1.391
-56.261	-200.000	72.361	529.220
-55.246	584.151	1287.235	3172.142
-54.232	145.039	2509.089	3366.979
-53.217	112.496	2367.878	2874.615
-52.203	50.848	2105.935	2001.339
-51.188	45.466	2012.852	1863.952
-50.173	43.530	1993.922	1828.853
-49.159	55.215	2029.330	1967.988
-48.144	60.977	2050.225	2040.666
-47.130	46.159	2015.846	1872.748
-46.115	43.327	2004.239	1836.175
-45.100	43.249	2001.640	1833.017
-44.086	43.274	1999.755	1831.442
-43.071	43.220	1997.134	1828.477
-42.057	43.089	1995.257	1825.501
-41.042	43.148	1993.508	1824.364
-40.027	43.205	1990.882	1822.408
-39.013	43.282	1988.734	1821.061
-37.998	43.168	1987.674	1818.984
-36.984	43.175	1986.010	1817.456
-35.969	43.222	1983.497	1815.506
-34.954	43.224	1981.906	1813.995
-33.940	43.215	1980.237	1812.319
-32.925	43.343	1978.489	1811.797
-31.911	43.279	1976.878	1809.675
-30.896	43.299	1975.552	1808.563
-29.881	43.303	1973.948	1807.061
-28.867	43.326	1972.252	1805.642
-27.852	43.337	1970.363	1803.941
-26.838	43.246	1968.514	1801.364
-25.823	43.276	1966.693	1799.898
-24.809	43.309	1964.972	1798.541
-23.794	43.370	1962.873	1797.089
-22.779	43.366	1960.858	1795.137
-21.765	43.315	1959.994	1793.825
-20.750	43.263	1958.265	1791.712
-19.736	43.305	1956.610	1790.500
-18.721	43.257	1955.837	1789.293
-17.706	43.292	1953.577	1787.463
-16.692	43.218	1952.498	1785.748
-15.677	43.313	1950.261	1784.478
-14.663	43.228	1948.779	1782.299
-13.648	43.283	1947.735	1781.761
-12.633	43.250	1946.518	1780.285
-11.619	43.333	1944.772	1779.350
-10.604	43.292	1943.109	1777.393
-9.590	43.265	1942.241	1776.288
-8.575	43.231	1940.706	1774.520
-7.560	43.297	1939.362	1773.793
-6.546	43.201	1938.318	1771.925
-5.531	43.210	1936.996	1770.729
-4.517	43.219	1935.783	1769.632
-3.502	43.275	1934.370	1768.757
-2.487	43.242	1933.367	1767.484
-1.473	43.243	1932.569	1766.691
-0.458	43.409	1928.429	1764.289
0.556	42.869	1909.658	1742.812
1.571	38.978	1890.648	1691.867
2.586	34.646	1911.525	1672.549
3.600	32.963	1948.978	1690.125
4.615	31.823	1945.503	1676.767
5.629	23.841	1838.992	1517.019
6.644	9.507	1704.745	1291.920
7.659	1.795	1658.043	1196.047
8.673	1.214	1653.149	1187.861
9.688	1.121	1651.478	1185.828
10.702	0.988	1650.606	1184.054
11.717	0.808	1647.965	1180.648
12.731	1.196	1647.205	1183.027
13.746	9.031	1667.014	1258.805
14.761	20.384	1691.608	1367.163
15.775	24.612	1698.539	1405.987
16.790	24.786	1698.048	1406.829
17.804	24.871	1697.751	1407.127
18.819	24.984	1696.441	1406.798
19.834	24.908	1696.081	1405.782
20.848	25.195	1695.564	1407.484
21.863	25.151	1694.894	1406.455
22.877	25.212	1693.343	1405.517
23.892	25.208	1692.473	1404.645
24.907	25.195	1691.638	1403.722
25.921	25.123	1691.076	1402.573
26.936	25.249	1689.259	1401.920
27.950	25.149	1688.769	1400.614
28.965	25.188	1688.230	1400.345
29.980	25.235	1686.918	1399.499
30.994	25.223	1686.011	1398.530
32.009	25.131	1684.978	1396.836
33.023	25.177	1683.715	1396.024
34.038	25.172	1682.703	1395.019
35.053	25.270	1681.887	1394.978
36.067	25.232	1680.954	1393.788
37.082	25.207	1680.179	1392.830
38.096	25.219	1678.376	1391.306
39.111	25.290	1677.875	1391.312
40.126	25.202	1677.587	1390.273
41.140	25.222	1676.545	1389.436
42.155	25.149	1676.039	1388.336
43.169	25.178	1674.434	1387.106
44.184	25.152	1673.440	1385.957
45.199	25.248	1671.942	1385.335
46.213	25.151	1670.831	1383.545
47.228	25.174	1670.198	1383.077
48.242	25.219	1668.493	1381.883
49.257	25.212	1667.721	1381.071
50.271	25.202	1666.529	1379.883
51.286	25.249	1665.211	1379.033
52.301	25.219	1664.151	1377.800
53.315	25.172	1663.004	1376.369
54.330	25.230	1661.367	1375.339
55.344	25.195	1660.058	1373.865
56.359	25.235	1658.579	1372.828
57.374	25.220	1657.575	1371.755
58.388	25.154	1656.683	1370.391
59.403	25.162	1655.910	1369.697
60.417	25.215	1654.443	1368.761
61.432	25.301	1653.318	1368.366
62.447	25.254	1652.865	1367.512
63.461	25.177	1651.666	1365.812
64.476	25.221	1650.588	1365.134
65.490	25.234	1649.531	1364.239
66.505	25.302	1648.418	1363.717
67.520	25.274	1647.327	1362.477
68.534	25.215	1646.601	1361.311
69.549	25.253	1645.820	1360.832
70.563	25.230	1644.550	1359.488
71.578	25.271	1643.114	1358.491
72.593	25.260	1642.503	1357.783
73.607	25.255	1641.816	1357.061
74.622	25.217	1640.765	1355.782
75.636	25.257	1640.028	1355.355
76.651	25.258	1638.928	1354.335
77.666	25.267	1638.102	1353.596
78.680	25.282	1637.001	1352.680
79.695	25.300	1636.147	1351.992
80.709	25.222	1635.803	1351.002
81.724	25.346	1634.501	1350.739
82.739	25.293	1633.706	1349.562
83.753	25.265	1632.457	1348.202
84.768	25.209	1631.907	1347.212
85.782	25.224	1631.045	1346.490
86.797	25.242	1630.096	1345.725
87.812	25.297	1629.111	1345.202
88.826	25.216	1628.393	1343.886
89.841	25.353	1626.290	1343.056
90.855	25.311	1625.950	1342.337
91.870	25.321	1624.937	1341.459
92.884	25.275	1624.445	1340.590
93.899	25.298	1623.638	1339.979
94.914	25.270	1622.323	1338.565
95.928	25.393	1620.650	1337.985
96.943	25.361	1619.241	1336.462
97.957	25.215	1618.421	1334.582
98.972	25.246	1617.087	1333.597
99.987	25.278	1615.575	1332.471
101.001	25.253	1613.986	1330.851
102.016	25.270	1612.414	1329.570
103.030	25.199	1611.369	1328.063
104.045	25.259	1610.273	1327.486
105.060	25.316	1608.787	1326.560
106.074	25.384	1607.109	1325.561
107.089	25.351	1606.608	1324.790
108.103	25.329	1605.360	1323.483
109.118	25.295	1604.374	1322.303
110.133	25.332	1603.204	1321.493
111.147	25.416	1601.906	1320.925
112.162	25.326	1601.201	1319.565
113.176	25.363	1599.876	1318.625
114.191	25.378	1598.562	1317.536
115.206	25.407	1597.400	1316.671
116.220	25.451	1596.119	1315.821
117.235	25.403	1594.905	1314.358
118.249	25.397	1593.900	1313.365
119.264	25.273	1592.927	1311.547
120.279	25.356	1591.611	1310.953
121.293	25.267	1590.975	1309.662
122.308	25.417	1589.637	1309.538
123.322	25.371	1588.609	1308.238
124.337	25.386	1587.094	1306.983
125.352	25.344	1586.651	1306.199
126.366	25.476	1585.359	1305.980
127.381	25.500	1584.321	1305.182
128.395	25.482	1583.040	1303.884
129.410	25.433	1582.361	1302.851
130.424	25.507	1580.865	1302.039
131.439	25.456	1579.905	1300.767
132.454	25.431	1578.995	1299.723
133.468	25.406	1577.785	1298.427
134.483	25.439	1576.475	1297.474
135.497	25.471	1575.012	1296.387
136.512	25.431	1573.776	1294.969
137.527	25.454	1572.729	1294.157
138.541	25.560	1571.912	1294.131
139.556	25.449	1570.645	1292.175
140.570	25.505	1569.613	1291.613
141.585	25.510	1567.740	1289.998
142.600	25.551	1566.865	1289.457
143.614	25.444	1566.071	1287.920
144.629	25.515	1564.674	1287.165
145.643	25.501	1563.592	1286.061
146.658	25.477	1562.046	1284.507
147.673	25.439	1561.225	1283.442
148.687	25.404	1559.639	1281.779
149.702	25.483	1558.702	1281.461
150.716	25.368	1557.869	1279.840
151.731	25.429	1556.606	1279.127
152.746	25.406	1555.713	1278.113
153.760	25.478	1554.020	1277.120
154.775	25.387	1553.071	1275.584
155.789	25.507	1552.294	1275.682
156.804	25.498	1551.021	1274.460
157.819	25.463	1550.285	1273.493
158.833	25.477	1549.109	1272.511
159.848	25.486	1548.582	1272.034
160.862	25.527	1547.078	1270.975
161.877	25.414	1546.210	1269.347
162.892	25.448	1545.605	1268.982
163.906	25.524	1544.371	1268.391
164.921	25.509	1543.543	1267.492
165.935	25.514	1542.585	1266.629
166.950	25.561	1542.060	1266.415
167.964	25.514	1540.576	1264.757
168.979	25.575	1539.528	1264.214
169.994	25.584	1538.356	1263.204
171.008	25.535	1537.687	1262.199
172.023	25.656	1536.514	1261.968
173.037	25.572	1535.911	1260.776
174.052	25.581	1534.630	1259.678
175.067	25.564	1534.136	1259.039
176.081	25.530	1533.114	1257.848
177.096	25.636	1532.186	1257.723
178.110	25.566	1530.751	1255.945
179.125	25.570	1529.774	1255.059
180.140	25.511	1529.236	1254.092
181.154	25.645	1528.143	1254.019
182.169	25.609	1527.591	1253.207
183.183	25.679	1526.262	1252.489
184.198	25.519	1525.865	1250.943
185.213	25.650	1524.511	1250.634
186.227	25.701	1523.605	1250.131
187.242	25.586	1523.068	1248.785
188.256	25.630	1522.250	1248.304
189.271	25.695	1521.379	1247.934
190.286	25.632	1520.742	1246.866
191.300	25.720	1519.124	1246.036
192.315	25.736	1518.356	1245.405
193.329	25.644	1517.871	1244.263
194.344	25.568	1516.864	1242.801
195.359	25.615	1516.422	1242.650
196.373	25.697	1515.353	1242.235
197.388	25.664	1514.290	1241.026
198.402	25.641	1513.575	1240.170
199.417	25.604	1512.504	1238.926
200.432	25.684	1511.440	1238.497
201.446	25.613	1511.172	1237.681
202.461	25.666	1510.388	1237.291
203.475	25.666	1509.311	1236.297
204.490	25.703	1508.231	1235.559
205.504	25.674	1507.582	1234.720
206.519	25.626	1507.032	1233.832
207.534	25.706	1505.864	1233.315
208.548	25.783	1504.694	1232.771
209.563	25.697	1504.248	1231.710
210.577	25.780	1503.225	1231.331
211.592	25.789	1502.105	1230.364
212.607	25.739	1501.967	1229.805
213.621	25.746	1501.573	1229.416
214.636	25.749	1500.608	1228.541
215.650	25.757	1499.277	1227.398
216.665	25.804	1498.932	1227.329
217.680	25.717	1498.107	1225.947
218.694	25.765	1497.387	1225.579
219.709	25.764	1496.506	1224.746
220.723	25.946	1495.169	1224.778
221.738	25.855	1494.691	1223.660
222.753	25.756	1494.019	1222.329
223.767	25.759	1492.780	1221.228
224.782	25.703	1492.276	1220.328
225.796	25.789	1491.120	1219.855
226.811	25.862	1490.749	1219.939
227.826	25.809	1489.895	1218.773
228.840	25.769	1489.360	1217.954
229.855	25.909	1488.377	1217.994
230.869	25.767	1487.115	1215.892
231.884	25.858	1486.374	1215.791
232.899	25.813	1485.383	1214.573
233.913	25.838	1484.638	1214.026
234.928	25.863	1483.397	1213.072
235.942	25.875	1482.291	1212.140
236.957	25.906	1481.283	1211.412
237.972	25.993	1480.038	1210.876
238.986	25.981	1479.260	1210.048
240.001	25.873	1478.432	1208.544
241.015	25.922	1477.602	1208.081
242.030	26.014	1476.600	1207.773
243.045	26.058	1475.494	1207.054
244.059	26.067	1474.747	1206.397
245.074	26.044	1473.627	1205.224
246.088	26.165	1473.020	1205.426
247.103	26.081	1472.409	1204.259
248.117	26.135	1471.298	1203.602
249.132	26.038	1470.590	1202.271
250.147	26.068	1470.148	1202.002
251.161	26.055	1469.211	1201.043
252.176	26.097	1468.391	1200.550
253.190	26.172	1467.703	1200.379
254.205	26.187	1467.276	1200.020
255.220	26.114	1466.343	1198.670
256.234	26.146	1465.353	1197.969
257.249	26.164	1464.716	1197.458
258.263	26.267	1463.481	1197.028
259.278	26.083	1463.048	1195.348
260.293	26.055	1462.936	1194.965
261.307	26.237	1461.230	1194.669
262.322	26.208	1460.725	1193.958
263.336	26.254	1459.960	1193.533
264.351	26.251	1458.880	1192.520
265.366	26.192	1458.252	1191.515
266.380	26.189	1457.355	1190.657
267.395	26.165	1456.734	1189.887
268.409	26.158	1456.107	1189.223
269.424	26.263	1454.794	1188.735
270.439	26.193	1454.110	1187.611
271.453	26.238	1453.278	1187.121
272.468	26.266	1452.032	1186.185
273.482	26.236	1451.916	1185.785
274.497	26.220	1450.655	1184.544
275.512	26.269	1449.763	1184.033
276.526	26.303	1449.395	1183.852
277.541	26.242	1448.631	1182.724
278.555	26.245	1447.897	1182.040
279.570	26.351	1446.846	1181.768
280.585	26.293	1446.418	1180.940
281.599	26.295	1445.671	1180.232
282.614	26.344	1444.400	1179.411
283.628	26.280	1443.394	1178.073
284.643	26.281	1442.544	1177.277
285.657	26.380	1441.665	1177.102
286.672	26.271	1441.076	1175.804
287.687	26.328	1439.857	1175.082
288.701	26.277	1439.270	1174.166
289.716	26.230	1438.557	1173.173
290.730	26.394	1437.997	1173.675
291.745	26.379	1436.627	1172.356
292.760	26.416	1435.680	1171.724
293.774	26.350	1435.049	1170.676
294.789	26.480	1434.129	1170.665
295.803	26.418	1433.386	1169.551
296.818	26.443	1432.858	1169.179
297.833	26.439	1431.920	1168.287
298.847	26.414	1431.374	1167.577
299.862	26.436	1430.570	1166.960
300.876	26.487	1429.671	1166.446
301.891	26.528	1428.741	1165.852
302.906	26.471	1428.116	1164.872
303.920	26.540	1427.432	1164.652
304.935	26.559	1426.762	1164.128
305.949	26.634	1425.943	1163.835
306.964	26.547	1425.076	1162.470
307.979	26.619	1423.943	1161.900
308.993	26.486	1423.217	1160.355
310.008	26.698	1422.189	1160.771
311.022	26.586	1421.251	1159.186
312.037	26.546	1420.581	1158.285
313.052	26.718	1419.506	1158.401
314.066	26.665	1418.786	1157.375
315.081	26.661	1417.888	1156.512
316.095	26.676	1417.223	1155.961
317.110	26.685	1415.947	1154.879
318.125	26.781	1414.900	1154.532
319.139	26.664	1414.558	1153.406
320.154	26.687	1413.390	1152.500
321.168	26.623	1412.747	1151.465
322.183	26.666	1411.759	1150.834
323.197	26.657	1410.783	1149.878
324.212	26.620	1410.638	1149.420
325.227	26.680	1409.421	1148.708
326.241	26.691	1408.657	1148.058
327.256	26.777	1407.846	1147.838
328.270	26.789	1406.966	1147.093
329.285	26.732	1406.331	1146.115
330.300	26.794	1405.475	1145.706
331.314	26.817	1404.545	1144.995
332.329	26.775	1403.758	1143.983
333.343	26.823	1402.869	1143.459
334.358	26.860	1402.756	1143.504
335.373	26.858	1402.273	1142.993
336.387	26.859	1401.404	1142.193
337.402	26.918	1400.573	1141.785
338.416	26.929	1399.765	1141.097
339.431	26.868	1399.415	1140.323
340.446	26.925	1398.595	1139.913
341.460	27.006	1397.387	1139.334
342.475	26.988	1396.263	1138.203
343.489	27.001	1395.830	1137.835
344.504	26.958	1395.416	1137.129
345.519	26.952	1394.210	1136.008
346.533	27.020	1393.145	1135.463
347.548	27.009	1392.279	1134.587
348.562	26.976	1391.765	1133.859
349.577	27.058	1390.499	1133.240
350.592	27.046	1390.092	1132.733
351.606	27.036	1389.331	1131.949
352.621	26.921	1388.258	1130.259
353.635	26.942	1387.406	1129.596
354.650	26.992	1386.433	1129.020
355.665	27.101	1385.767	1129.052
356.679	27.092	1385.004	1128.277
357.694	27.074	1383.844	1127.121
358.708	27.162	1382.596	1126.547
359.723	27.124	1381.269	1125.130
360.738	27.132	1380.332	1124.315
361.752	27.010	1379.603	1122.869
362.767	27.089	1378.219	1122.134
363.781	27.156	1377.424	1121.801
364.796	27.153	1376.828	1121.196
365.810	27.159	1376.280	1120.686
366.825	27.180	1375.449	1120.041
367.840	27.243	1374.980	1119.946
368.854	27.314	1374.196	1119.648
369.869	27.190	1373.580	1118.283
370.883	27.158	1372.855	1117.401
371.898	27.374	1372.306	1118.178
372.913	27.420	1371.513	1117.716
373.927	27.404	1370.722	1116.876
374.942	27.357	1369.948	1115.858
375.956	27.306	1369.369	1114.977
376.971	27.447	1368.086	1114.694
377.986	27.316	1367.329	1113.177
379.000	27.274	1366.857	1112.438
380.015	27.270	1366.298	1111.860
381.029	27.433	1365.532	1112.134
382.044	27.375	1364.992	1111.243
383.059	27.415	1363.989	1110.574
384.073	27.368	1363.649	1109.909
385.088	27.374	1363.445	1109.682
386.102	27.420	1362.655	1109.221
387.117	27.411	1362.019	1108.552
388.132	27.478	1361.154	1108.155
389.146	27.528	1360.261	1107.634
390.161	27.424	1359.634	1106.392
391.175	27.459	1359.330	1106.259
392.190	27.491	1358.057	1105.325
393.205	27.440	1357.532	1104.488
394.219	27.502	1356.599	1104.004
395.234	27.627	1355.197	1103.528
396.248	27.589	1354.223	1102.402
397.263	27.581	1353.291	1101.499
398.278	27.606	1352.104	1100.584
399.292	27.668	1351.312	1100.221
400.307	27.641	1350.766	1099.514
401.321	27.701	1349.413	1098.674
402.336	27.642	1348.928	1097.831
403.350	27.661	1347.713	1096.855
404.365	27.570	1347.097	1095.713
405.380	27.614	1346.237	1095.180
406.394	27.678	1345.458	1094.830
407.409	27.682	1344.749	1094.185
408.423	27.638	1344.137	1093.326
409.438	27.707	1343.640	1093.237
410.453	27.876	1342.639	1093.338
411.467	27.758	1341.929	1091.955
412.482	27.804	1341.644	1091.902
413.496	27.721	1340.994	1090.782
414.511	27.749	1340.162	1090.177
415.526	27.840	1339.210	1089.846
416.540	27.719	1338.700	1088.615
417.555	27.756	1338.095	1088.245
418.569	27.803	1337.571	1088.003
419.584	27.795	1337.310	1087.648
420.599	27.894	1336.535	1087.514
421.613	71.842	1313.975	1318.850
422.628	72.497	1310.668	1319.005
