DTS Sentinel unit serial number:	SN413079Multiplexer serial number:	ORYXHardware model number:	OX4-SRSoftware version number:	ORYX F/W v4.00 Oryx Data Collector v3.7.2.0data status	okinstallation	princeton_trtdifferential loss correction	single-endedforward channel	channel 4reverse channel	N/Adate	2019/09/18time	13:45:35forward acquisition time	60.00reverse acquisition time	0.00gamma	496.2192k internal	0.2302k external	0.2302temperature offset calibration	0.9994default loss term (dB/km)	0.3790temperature slope calibration	1.0000multiplexer offset coefficient	1.0000multiplexer slope coefficient	1.0000fibre end	0.00T internal ref (°C)	34.50T ext. ref 1 (°C)	0.63T ext. ref 2 (°C)	30.08length (m)	temperature (°C)	Stokes	anti-Stokes-747.200	-111.642	-0.440	0.091
-746.185	-34.177	-0.363	0.203
-745.171	-132.477	-0.340	-0.045
-744.156	-200.000	0.049	0.490
-743.142	-73.478	-0.074	0.028
-742.127	-141.901	-0.171	-0.017
-741.112	194.377	-0.101	-0.156
-740.098	-74.532	-0.220	-0.081
-739.083	-200.000	0.050	0.254
-738.069	-200.000	0.042	0.302
-737.054	-200.000	-0.011	0.177
-736.039	-87.765	0.122	-0.037
-735.025	-55.522	0.283	0.129
-734.010	-158.363	-0.530	0.031
-732.996	-103.871	-0.331	0.079
-731.981	-122.538	-0.094	-0.016
-730.966	-60.200	-0.325	0.141
-729.952	-200.000	-0.004	0.054
-728.937	2.736	-0.166	0.123
-727.923	-150.947	-0.157	0.012
-726.908	-112.203	-0.075	-0.015
-725.894	426.461	0.087	0.191
-724.879	-73.681	-0.208	0.077
-723.864	-194.150	-0.397	0.003
-722.850	39.173	-0.087	-0.079
-721.835	215.489	-0.128	-0.207
-720.821	800.000	-0.072	-0.250
-719.806	711.169	0.036	0.097
-718.791	157.496	-0.163	-0.230
-717.777	194.082	0.090	0.139
-716.762	-124.501	-0.267	0.042
-715.748	800.000	-0.044	0.125
-714.733	221.734	-0.192	0.314
-713.718	46.616	-0.216	0.204
-712.704	208.326	-0.067	-0.106
-711.689	706.453	-0.169	-0.455
-710.675	-159.546	0.170	-0.010
-709.660	-163.059	0.197	0.010
-708.645	-150.524	0.361	-0.028
-707.631	-9.171	0.091	-0.062
-706.616	412.159	-0.038	-0.082
-705.602	800.000	-0.083	-0.289
-704.587	9.519	-0.160	-0.123
-703.572	-117.752	0.322	-0.059
-702.558	-98.007	-0.097	0.026
-701.543	-200.000	0.016	0.229
-700.529	341.123	-0.055	-0.109
-699.514	-13.364	-0.133	-0.087
-698.499	800.000	-0.072	0.228
-697.485	-57.904	-0.119	-0.053
-696.470	-200.000	-0.026	-0.434
-695.456	-97.250	0.028	0.007
-694.441	-200.000	-0.033	-0.311
-693.426	-200.000	0.094	-0.424
-692.412	-54.478	-0.015	0.007
-691.397	60.750	-0.131	-0.132
-690.383	419.833	-0.108	-0.235
-689.368	-80.538	0.223	-0.076
-688.354	-200.000	0.041	-0.272
-687.339	800.000	0.015	0.045
-686.324	2.256	0.168	0.123
-685.310	15.049	-0.074	-0.059
-684.295	-108.949	-0.172	0.037
-683.281	800.000	-0.099	-0.431
-682.266	-200.000	-0.027	0.466
-681.251	-75.157	-0.174	-0.063
-680.237	-149.524	-0.168	0.014
-679.222	298.221	-0.029	-0.055
-678.208	-47.422	0.087	0.043
-677.193	65.500	-0.150	-0.155
-676.178	-200.000	0.007	-0.275
-675.164	-12.944	-0.331	-0.219
-674.149	-93.382	-0.222	-0.063
-673.135	50.528	-0.344	-0.331
-672.120	312.313	0.043	-0.082
-671.105	83.419	0.113	-0.125
-670.091	-164.121	0.086	0.004
-669.076	-130.325	-0.302	-0.042
-668.062	-17.115	0.389	0.249
-667.047	-200.000	0.052	-0.392
-666.032	527.776	0.082	-0.197
-665.018	-112.231	0.081	-0.017
-664.003	-122.254	0.149	-0.025
-662.989	-200.000	0.006	-0.063
-661.974	211.519	-0.073	-0.117
-660.959	-200.000	-0.051	0.387
-659.945	-135.936	0.311	0.037
-658.930	-200.000	0.054	-0.277
-657.916	-200.000	0.004	0.055
-656.901	800.000	0.099	0.297
-655.886	327.348	0.078	0.152
-654.872	-42.413	-0.063	0.033
-653.857	-67.044	0.088	-0.035
-652.843	-187.554	-0.410	0.006
-651.828	500.740	-0.044	-0.104
-650.814	20.735	0.234	-0.192
-649.799	735.826	0.079	-0.215
-648.784	27.145	-0.372	0.317
-647.770	701.465	-0.079	0.210
-646.755	263.802	-0.189	-0.333
-645.741	-186.335	-0.123	0.002
-644.726	191.555	0.166	-0.253
-643.711	-170.349	-0.283	0.010
-642.697	-7.852	-0.091	-0.063
-641.682	31.906	-0.150	0.131
-640.668	800.000	0.071	-0.258
-639.653	-18.024	0.217	-0.138
-638.638	-136.917	-0.184	0.021
-637.624	-83.682	0.247	-0.080
-636.609	-191.188	0.137	-0.001
-635.595	-200.000	0.026	0.207
-634.580	800.000	-0.117	-0.453
-633.565	800.000	0.075	-0.236
-632.551	68.956	-0.178	0.186
-631.536	-74.651	-0.061	0.022
-630.522	-200.000	-0.073	-0.343
-629.507	-145.695	0.113	0.010
-628.492	-35.187	-0.280	0.155
-627.478	-153.900	-0.357	-0.025
-626.463	49.315	-0.154	-0.147
-625.449	154.658	0.209	0.291
-624.434	-200.000	0.008	-0.150
-623.419	25.195	-0.173	-0.145
-622.405	135.254	-0.045	0.059
-621.390	301.445	0.150	-0.282
-620.376	-106.271	-0.088	0.020
-619.361	-58.783	0.049	-0.021
-618.346	-139.154	0.101	-0.011
-617.332	43.155	-0.027	-0.025
-616.317	-78.079	-0.196	0.069
-615.303	-102.059	0.214	-0.052
-614.288	205.125	-0.167	-0.263
-613.273	588.521	-0.104	0.259
-612.259	531.978	0.113	0.272
-611.244	-200.000	-0.015	0.270
-610.230	-27.773	0.314	0.185
-609.215	-200.000	-0.005	-0.055
-608.201	345.208	0.017	0.034
-607.186	23.881	-0.110	0.092
-606.171	389.566	0.159	0.334
-605.157	-145.025	0.396	-0.037
-604.142	-133.630	-0.197	0.025
-603.128	800.000	-0.065	0.215
-602.113	-200.000	-0.020	0.118
-601.098	-4.677	-0.152	0.106
-600.084	6.263	-0.047	0.036
-599.069	-200.000	0.070	0.332
-598.055	399.552	-0.038	-0.082
-597.040	-93.765	-0.190	0.053
-596.025	707.969	-0.080	-0.213
-595.011	-111.457	-0.193	-0.040
-593.996	-200.000	0.012	0.088
-592.982	-93.508	-0.188	0.053
-591.967	102.839	0.074	0.088
-590.952	-24.025	0.314	-0.190
-589.938	-79.257	-0.156	0.053
-588.923	-112.770	0.094	-0.019
-587.909	-110.526	0.147	0.031
-586.894	800.000	-0.038	-0.113
-585.879	800.000	-0.088	0.335
-584.865	-200.000	-0.015	0.144
-583.850	-2.389	-0.099	-0.070
-582.836	339.459	-0.094	0.185
-581.821	-135.884	0.143	0.017
-580.806	231.536	0.128	-0.213
-579.792	-144.036	-0.291	0.028
-578.777	-96.580	-0.118	-0.032
-577.763	-80.210	0.241	0.082
-576.748	-200.000	-0.011	0.330
-575.733	-84.165	-0.155	0.050
-574.719	-103.292	-0.160	0.038
-573.704	320.761	0.106	-0.205
-572.690	33.232	0.212	-0.186
-571.675	-57.782	-0.211	-0.093
-570.661	104.274	0.047	-0.056
-569.646	450.010	-0.091	-0.203
-568.631	-8.365	-0.122	0.083
-567.617	-160.264	-0.316	-0.017
-566.602	800.000	0.016	0.071
-565.588	-200.000	-0.019	0.327
-564.573	37.027	-0.234	0.210
-563.558	83.425	0.192	-0.212
-562.544	-200.000	0.045	-0.289
-561.529	-200.000	0.018	0.144
-560.515	124.885	-0.170	0.216
-559.500	-83.578	-0.158	0.051
-558.485	-164.054	0.243	-0.011
-557.471	-23.935	0.224	-0.135
-556.456	-63.371	-0.237	0.099
-555.442	-200.000	0.052	0.249
-554.427	107.337	-0.157	0.189
-553.412	45.165	0.185	-0.172
-552.398	-130.247	-0.179	0.025
-551.383	310.193	0.043	-0.081
-550.369	-74.293	-0.101	-0.037
-549.354	800.000	-0.093	0.380
-548.339	314.782	0.211	0.402
-547.325	-84.866	-0.143	-0.045
-546.310	-200.000	0.025	0.215
-545.296	64.374	-0.042	-0.043
-544.281	126.521	0.197	-0.252
-543.266	75.620	0.102	0.109
-542.252	-114.405	0.223	-0.043
-541.237	-76.668	-0.378	0.134
-540.223	-89.892	0.092	0.027
-539.208	204.787	0.069	0.108
-538.193	-125.321	-0.279	-0.043
-537.179	-200.000	-0.023	-0.127
-536.164	-38.937	0.177	0.094
-535.150	168.860	0.103	0.149
-534.135	-200.000	0.009	0.194
-533.121	11.895	-0.096	0.075
-532.106	-200.000	0.031	-0.281
-531.091	89.767	0.223	-0.252
-530.077	-200.000	-0.040	0.274
-529.062	707.202	0.062	0.166
-528.048	66.301	0.214	0.220
-527.033	19.074	0.099	0.080
-526.018	-4.741	-0.346	0.241
-525.004	22.408	-0.066	0.055
-523.989	800.000	-0.141	0.521
-522.975	52.323	0.174	0.168
-521.960	800.000	0.094	0.369
-520.945	-147.263	-0.258	-0.022
-519.931	330.273	-0.002	-0.003
-518.916	-69.714	0.120	-0.046
-517.902	17.474	0.217	0.174
-516.887	-97.509	-0.227	-0.060
-515.872	-125.179	-0.252	0.039
-514.858	364.490	-0.063	0.127
-513.843	-200.000	-0.033	0.228
-512.829	-79.740	-0.106	0.036
-511.814	800.000	-0.149	-0.542
-510.799	-123.686	0.158	-0.025
-509.785	0.115	0.043	-0.031
-508.770	-160.351	0.282	0.015
-507.756	800.000	-0.039	-0.136
-506.741	-200.000	0.032	-0.174
-505.726	-91.257	0.407	0.118
-504.712	-38.612	-0.159	0.085
-503.697	261.439	0.053	0.092
-502.683	395.591	-0.076	0.161
-501.668	-71.602	-0.475	-0.179
-500.653	-49.590	-0.543	-0.261
-499.639	117.572	0.120	-0.149
-498.624	107.561	-0.295	-0.354
-497.610	-114.206	0.159	0.031
-496.595	-141.918	0.268	0.027
-495.581	-49.555	0.090	0.043
-494.566	122.146	-0.193	0.243
-493.551	124.335	0.146	-0.185
-492.537	-120.460	-0.213	-0.037
-491.522	-113.176	0.236	-0.047
-490.508	98.980	-0.198	0.231
-489.493	-108.974	-0.143	-0.031
-488.478	800.000	0.098	-0.304
-487.464	315.675	0.147	0.279
-486.449	13.766	0.274	0.215
-485.435	47.236	-0.059	0.055
-484.420	642.223	0.094	0.240
-483.405	122.399	0.336	-0.423
-482.391	-200.000	0.011	-0.160
-481.376	-33.086	0.086	-0.048
-480.362	372.651	0.059	0.122
-479.347	800.000	0.058	-0.220
-478.332	-187.597	0.314	0.004
-477.318	-200.000	0.028	-0.147
-476.303	84.445	0.116	0.128
-475.289	800.000	0.071	0.298
-474.274	-142.227	0.372	0.037
-473.259	144.340	-0.211	-0.284
-472.245	121.764	0.049	-0.062
-471.230	-200.000	-0.018	0.344
-470.216	86.499	-0.042	-0.046
-469.201	-112.694	0.273	0.055
-468.186	-164.540	-0.170	-0.008
-467.172	-48.397	-0.251	-0.122
-466.157	95.596	0.218	0.251
-465.143	627.414	-0.133	-0.339
-464.128	-12.610	-0.042	0.027
-463.113	-12.583	0.062	0.041
-462.099	-161.469	-0.087	0.005
-461.084	-4.368	-0.343	-0.239
-460.070	-146.287	-0.328	0.029
-459.055	-99.854	-0.184	0.046
-458.040	-126.628	-0.311	-0.046
-457.026	32.029	-0.067	0.058
-456.011	-161.942	-0.357	-0.018
-454.997	-200.000	-0.109	0.000
-453.982	-11.476	0.237	0.157
-452.968	-129.333	0.112	-0.016
-451.953	800.000	-0.026	-0.098
-450.938	-200.000	0.005	0.160
-449.924	800.000	-0.047	-0.134
-448.909	800.000	-0.049	-0.181
-447.895	-89.258	0.169	0.050
-446.880	-164.126	-0.217	0.010
-445.865	137.953	0.108	-0.142
-444.851	-80.200	-0.273	-0.092
-443.836	91.594	0.198	-0.225
-442.822	-126.487	0.067	0.010
-441.807	-200.000	0.023	-0.312
-440.792	-146.974	-0.167	0.014
-439.778	-36.197	-0.189	-0.103
-438.763	-39.849	-0.207	-0.109
-437.749	200.613	0.030	0.047
-436.734	-28.232	0.210	0.122
-435.719	-156.714	-0.056	0.003
-434.705	-200.000	-0.012	-0.255
-433.690	174.883	0.219	0.319
-432.676	-127.492	-0.100	-0.015
-431.661	541.035	-0.025	-0.060
-430.646	-141.870	-0.122	-0.012
-429.632	-200.000	0.036	-0.159
-428.617	200.546	0.209	-0.323
-427.603	12.093	0.249	-0.193
-426.588	433.184	0.109	0.238
-425.573	-82.981	0.364	-0.118
-424.559	437.276	0.072	-0.159
-423.544	800.000	0.041	0.163
-422.530	40.701	0.099	0.090
-421.515	250.222	-0.069	0.118
-420.500	800.000	0.134	-0.414
-419.486	182.615	-0.063	0.093
-418.471	212.223	0.256	-0.406
-417.457	-23.783	0.304	-0.183
-416.442	-86.073	-0.341	0.106
-415.428	-3.743	-0.322	0.225
-414.413	-200.000	0.030	-0.295
-413.398	227.063	0.064	0.105
-412.384	196.059	0.127	0.194
-411.369	181.656	-0.059	-0.088
-410.355	34.360	0.167	-0.147
-409.340	-1.856	-0.299	-0.212
-408.325	145.303	-0.054	0.073
-407.311	-6.599	0.196	-0.134
-406.296	91.431	0.203	-0.230
-405.282	-173.018	0.236	0.007
-404.267	-200.000	0.034	0.202
-403.252	22.049	-0.228	0.187
-402.238	-173.853	0.373	-0.011
-401.223	-200.000	-0.049	-0.232
-400.209	475.497	-0.058	-0.131
-399.194	-160.700	0.118	-0.006
-398.179	452.373	-0.153	-0.340
-397.165	-200.000	-0.001	-0.316
-396.150	-6.048	-0.321	-0.221
-395.136	-16.904	0.279	-0.178
-394.121	-65.703	-0.053	0.022
-393.106	86.691	-0.056	-0.062
-392.092	629.477	0.078	0.199
-391.077	53.117	-0.113	-0.109
-390.063	-129.428	0.299	0.042
-389.048	314.154	-0.125	0.237
-388.033	311.944	-0.322	0.607
-387.019	800.000	-0.059	-0.226
-386.004	152.726	-0.152	-0.208
-384.990	-128.945	0.132	0.019
-383.975	219.781	0.135	0.216
-382.960	800.000	-0.037	0.123
-381.946	-200.000	0.006	0.036
-380.931	-200.000	-0.037	0.421
-379.917	-200.000	0.012	-0.328
-378.902	-86.146	-0.189	-0.059
-377.888	-200.000	-0.013	0.094
-376.873	171.230	-0.034	0.049
-375.858	-142.083	-0.343	0.034
-374.844	-190.335	0.113	0.001
-373.829	536.032	0.101	0.240
-372.815	378.056	0.060	0.123
-371.800	-200.000	0.018	0.094
-370.785	-5.074	0.198	-0.137
-369.771	539.960	-0.139	-0.333
-368.756	80.826	-0.173	0.187
-367.742	227.818	0.292	-0.477
-366.727	-200.000	0.041	-0.190
-365.712	-57.134	0.245	-0.108
-364.698	-157.432	0.276	0.017
-363.683	-100.068	0.274	0.069
-362.669	26.841	0.083	-0.070
-361.654	-200.000	0.004	0.282
-360.639	-108.143	0.301	0.065
-359.625	-150.535	0.099	0.008
-358.610	-175.156	0.116	-0.003
-357.596	-200.000	-0.040	0.358
-356.581	-200.000	0.035	-0.165
-355.566	136.413	-0.129	-0.169
-354.552	723.044	0.077	-0.206
-353.537	601.232	-0.112	0.279
-352.523	-156.276	-0.115	-0.007
-351.508	-174.268	-0.163	-0.005
-350.493	-88.585	0.257	-0.077
-349.479	71.881	-0.026	-0.027
-348.464	-73.667	0.059	0.022
-347.450	285.111	-0.155	-0.281
-346.435	202.095	-0.143	0.221
-345.420	204.689	0.060	0.094
-344.406	85.116	0.182	-0.200
-343.391	-17.469	-0.123	0.078
-342.377	194.228	-0.111	0.169
-341.362	-150.501	0.307	0.024
-340.348	-41.764	-0.125	-0.064
-339.333	6.289	-0.095	0.070
-338.318	-76.626	0.086	0.030
-337.304	189.446	0.196	-0.295
-336.289	159.341	0.201	-0.281
-335.275	-200.000	0.015	-0.401
-334.260	-200.000	-0.394	-0.001
-333.245	120.587	-0.143	0.179
-332.231	31.792	0.066	-0.057
-331.216	-200.000	0.047	-0.267
-330.202	100.851	-0.251	0.293
-329.187	800.000	0.116	-0.333
-328.172	-107.356	0.072	-0.016
-327.158	463.077	-0.088	-0.196
-326.143	-200.000	-0.006	0.241
-325.129	21.376	0.133	0.108
-324.114	-170.222	-0.338	-0.012
-323.099	-49.350	0.201	0.096
-322.085	-200.000	-0.002	0.049
-321.070	730.318	-0.036	-0.096
-320.056	-107.598	-0.071	-0.016
-319.041	-26.771	0.004	0.002
-318.026	800.000	0.085	0.370
-317.012	119.219	0.219	0.272
-315.997	182.400	-0.173	0.256
-314.983	-200.000	0.012	-0.109
-313.968	-121.487	0.243	-0.040
-312.953	-78.527	-0.310	-0.106
-311.939	-94.766	-0.283	-0.077
-310.924	800.000	-0.106	0.371
-309.910	-37.492	0.188	-0.100
-308.895	800.000	-0.041	-0.127
-307.880	105.832	0.183	0.217
-306.866	-38.743	0.226	-0.119
-305.851	22.952	0.167	-0.137
-304.837	-156.825	0.376	0.023
-303.822	-7.424	-0.134	0.091
-302.807	254.098	0.135	0.231
-301.793	526.847	0.106	-0.250
-300.778	607.344	0.104	0.259
-299.764	800.000	-0.082	0.274
-298.749	142.894	-0.152	0.202
-297.735	800.000	0.067	-0.225
-296.720	800.000	0.060	0.174
-295.705	-89.463	0.327	-0.096
-294.691	-200.000	-0.012	-0.118
-293.676	-200.000	-0.008	-0.101
-292.662	434.824	-0.142	0.310
-291.647	-90.305	0.025	0.007
-290.632	2.096	0.096	-0.070
-289.618	66.520	0.173	-0.176
-288.603	-105.332	-0.464	0.106
-287.589	238.628	-0.105	0.175
-286.574	39.020	0.177	0.159
-285.559	-200.000	0.087	-0.417
-284.545	381.444	0.073	-0.151
-283.530	-200.000	0.037	-0.315
-282.516	-127.183	0.248	0.036
-281.501	-200.000	0.025	-0.234
-280.486	-91.511	0.292	-0.083
-279.472	174.525	0.098	0.142
-278.457	-137.397	0.206	0.023
-277.443	85.145	-0.202	0.222
-276.428	-200.000	0.062	-0.306
-275.413	-200.000	0.014	0.147
-274.399	81.180	-0.167	-0.180
-273.384	-93.746	-0.183	-0.050
-272.370	452.001	-0.095	0.210
-271.355	308.782	0.058	0.108
-270.340	800.000	-0.039	0.153
-269.326	86.831	0.305	0.336
-268.311	800.000	0.011	-0.035
-267.297	57.071	-0.046	-0.045
-266.282	800.000	-0.057	0.171
-265.267	-175.123	-0.132	-0.004
-264.253	-35.670	-0.387	0.210
-263.238	-200.000	0.002	0.070
-262.224	-200.000	-0.017	-0.082
-261.209	-100.247	0.222	-0.055
-260.195	5.135	-0.143	0.105
-259.180	-25.595	-0.045	-0.027
-258.165	-17.368	-0.048	-0.030
-257.151	46.855	0.179	-0.166
-256.136	-64.841	-0.122	0.049
-255.122	-200.000	-0.029	-0.141
-254.107	-33.662	0.227	-0.125
-253.092	199.643	0.034	0.053
-252.078	-82.735	0.045	-0.015
-251.063	-160.812	-0.173	-0.009
-250.049	-200.000	0.017	-0.217
-249.034	-59.746	0.419	-0.179
-248.019	123.345	-0.103	0.129
-247.005	796.430	-0.168	-0.464
-245.990	-139.628	0.096	-0.010
-244.976	-200.000	0.009	-0.064
-243.961	-103.505	-0.170	-0.040
-242.946	-19.498	0.272	-0.168
-241.932	800.000	0.013	-0.039
-240.917	34.058	0.253	0.220
-239.903	-200.000	0.010	0.277
-238.888	-200.000	-0.053	0.463
-237.873	-147.512	0.271	-0.023
-236.859	2.250	0.123	0.089
-235.844	89.395	-0.100	-0.111
-234.830	-15.338	-0.262	0.167
-233.815	-200.000	-0.044	0.244
-232.800	800.000	-0.098	-0.306
-231.786	800.000	0.119	-0.376
-230.771	-200.000	-0.023	-0.194
-229.757	-183.590	-0.312	0.005
-228.742	51.330	-0.207	0.196
-227.727	800.000	-0.077	-0.324
-226.713	51.578	0.179	-0.170
-225.698	-148.487	-0.193	0.016
-224.684	-27.311	0.247	-0.143
-223.669	158.109	-0.132	-0.182
-222.655	390.943	0.067	0.139
-221.640	-43.330	-0.133	0.067
-220.625	800.000	0.137	-0.390
-219.611	-148.626	-0.168	0.014
-218.596	161.878	-0.066	-0.092
-217.582	-41.039	-0.127	0.065
-216.567	800.000	0.115	0.366
-215.552	-200.000	0.004	0.044
-214.538	-139.795	0.188	0.020
-213.523	800.000	0.054	-0.168
-212.509	-20.154	-0.257	-0.158
-211.494	-79.185	0.255	0.086
-210.479	-118.587	-0.133	-0.024
-209.465	253.463	0.056	-0.096
-208.450	383.301	-0.046	0.095
-207.436	60.668	-0.245	0.242
-206.421	-200.000	0.025	0.474
-205.406	-200.000	-0.004	-0.172
-204.392	-83.357	-0.243	0.078
-203.377	-91.123	0.102	-0.029
-202.363	397.240	0.048	0.101
-201.348	171.033	0.091	-0.131
-200.333	6.778	0.164	-0.122
-199.319	-200.000	0.018	0.128
-198.304	-104.619	-0.242	-0.056
-197.290	-68.365	-0.533	0.207
-196.275	-70.234	-0.058	-0.022
-195.260	85.235	-0.108	0.118
-194.246	800.000	-0.031	0.094
-193.231	533.024	-0.122	0.287
-192.217	-200.000	0.074	0.000
-191.202	-200.000	-0.029	0.330
-190.187	-124.500	-0.157	-0.024
-189.173	216.866	0.197	-0.312
-188.158	421.478	0.113	-0.243
-187.144	-46.976	0.149	-0.073
-186.129	-57.054	0.443	0.195
-185.114	-149.397	0.165	0.013
-184.100	17.385	-0.056	0.045
-183.085	-148.079	0.111	-0.009
-182.071	236.788	-0.121	0.200
-181.056	13.320	0.219	-0.169
-180.042	-93.679	-0.142	-0.039
-179.027	-154.087	-0.064	0.004
-178.012	800.000	0.123	-0.479
-176.998	230.368	-0.145	-0.236
-175.983	-52.846	0.146	-0.067
-174.969	800.000	0.070	0.286
-173.954	-47.331	-0.268	0.130
-172.939	-72.499	0.224	-0.082
-171.925	-142.850	0.182	-0.018
-170.910	-192.984	-0.164	-0.001
-169.896	-133.029	-0.243	-0.031
-168.881	375.192	-0.099	0.200
-167.866	118.026	-0.194	0.238
-166.852	85.374	0.198	-0.216
-165.837	-151.987	0.224	-0.016
-164.823	338.016	-0.059	0.114
-163.808	-200.000	0.013	0.103
-162.793	24.049	0.045	-0.037
-161.779	-200.000	-0.019	0.429
-160.764	-90.863	0.153	-0.044
-159.750	8.015	0.119	0.089
-158.735	-16.823	0.217	-0.137
-157.720	186.861	0.059	-0.088
-156.706	450.492	-0.151	-0.331
-155.691	-96.546	-0.068	-0.018
-154.677	800.000	0.076	-0.248
-153.662	-200.000	-0.023	0.111
-152.647	41.330	-0.127	-0.115
-151.633	-64.361	-0.215	-0.087
-150.618	-55.141	-0.061	-0.027
-149.604	161.868	0.156	0.217
-148.589	-200.000	-0.063	0.294
-147.574	-52.621	0.211	-0.097
-146.560	36.743	0.136	0.120
-145.545	-200.000	-0.071	-0.354
-144.531	-164.313	-0.045	-0.002
-143.516	378.379	0.089	0.181
-142.502	16.040	0.280	-0.220
-141.487	-200.000	0.001	0.027
-140.472	111.376	-0.110	0.132
-139.458	-55.889	0.270	-0.120
-138.443	5.732	0.150	-0.110
-137.429	275.779	-0.052	-0.092
-136.414	-151.579	0.203	-0.015
-135.399	-200.000	0.041	0.268
-134.385	448.997	-0.166	-0.364
-133.370	792.136	0.022	-0.061
-132.356	67.413	-0.025	-0.026
-131.341	232.099	-0.210	-0.343
-130.326	-87.014	0.256	-0.078
-129.312	-71.335	-0.180	0.067
-128.297	-101.725	0.098	0.024
-127.283	-63.993	0.145	-0.059
-126.268	-15.470	0.091	0.058
-125.253	-120.383	-0.156	0.026
-124.239	8.654	-0.063	0.047
-123.224	-142.598	0.214	0.021
-122.210	-82.461	-0.291	0.094
-121.195	74.664	-0.147	0.154
-120.180	-131.645	0.341	0.045
-119.166	105.788	-0.093	0.110
-118.151	-111.421	-0.282	-0.057
-117.137	-200.000	-0.000	-0.024
-116.122	-200.000	0.010	0.330
-115.107	-49.115	0.196	-0.093
-114.093	5.108	0.140	-0.103
-113.078	168.634	-0.098	-0.139
-112.064	-101.504	-0.347	0.084
-111.049	-119.675	0.108	0.019
-110.034	738.851	0.098	-0.263
-109.020	-100.429	0.112	0.028
-108.005	-200.000	-0.001	-0.150
-106.991	60.472	0.211	0.207
-105.976	-19.799	0.190	0.117
-104.962	41.833	0.074	-0.066
-103.947	-38.231	-0.151	-0.079
-102.932	612.162	0.039	-0.097
-101.918	800.000	-0.157	0.461
-100.903	-142.968	0.144	-0.014
-99.889	-200.000	-0.001	0.026
-98.874	150.234	-0.336	0.454
-97.859	-163.643	-0.171	0.008
-96.845	317.964	0.108	0.204
-95.830	494.304	0.101	0.230
-94.816	-40.207	0.222	-0.115
-93.801	-174.517	-0.062	-0.002
-92.786	-157.110	0.190	0.011
-91.772	567.080	-0.146	0.352
-90.757	-36.331	0.146	0.078
-89.743	-89.782	0.323	-0.094
-88.728	-123.958	0.156	0.024
-87.713	2.643	0.205	-0.148
-86.699	-193.583	0.302	0.003
-85.684	-115.791	0.204	-0.038
-84.670	311.395	0.179	-0.334
-83.655	-200.000	-0.008	-0.143
-82.640	-154.038	0.146	0.010
-81.626	233.630	-0.229	0.374
-80.611	-200.000	-0.007	-0.077
-79.597	36.680	0.093	0.081
-78.582	237.618	0.076	0.125
-77.567	784.093	0.104	0.282
-76.553	-200.000	0.020	0.190
-75.538	-184.763	-0.177	-0.003
-74.524	262.250	0.106	0.183
-73.509	800.000	-0.061	-0.220
-72.494	444.124	0.088	0.192
-71.480	654.725	-0.056	0.142
-70.465	-200.000	-0.006	-0.209
-69.451	-173.439	0.168	-0.005
-68.436	-4.965	0.109	-0.075
-67.422	-113.859	-0.155	-0.030
-66.407	-39.248	-0.290	-0.151
-65.392	177.853	-0.270	-0.390
-64.378	-181.089	0.152	0.003
-63.363	-200.000	-0.004	-0.157
-62.349	690.128	0.094	0.245
-61.334	193.012	-0.667	-1.001
-60.319	-39.077	0.240	0.125
-59.305	-200.000	0.018	-1.002
-58.290	277.625	0.533	0.941
-57.276	800.000	0.434	1.529
-56.261	-200.000	95.632	549.966
-55.246	499.683	1421.480	3251.483
-54.232	142.079	2654.786	3493.017
-53.217	101.163	2383.706	2752.167
-52.203	40.862	2126.401	1903.217
-51.188	36.115	2038.496	1780.743
-50.173	34.716	2019.970	1751.675
-49.159	47.781	2072.016	1918.588
-48.144	50.204	2090.416	1958.106
-47.130	36.772	2049.225	1795.932
-46.115	34.581	2037.162	1765.059
-45.100	34.395	2034.262	1760.750
-44.086	34.434	2031.436	1758.600
-43.071	34.359	2029.177	1755.886
-42.057	34.303	2027.308	1753.677
-41.042	34.338	2024.990	1751.930
-40.027	34.341	2023.275	1750.400
-39.013	34.434	2020.991	1749.210
-37.998	34.383	2019.093	1747.024
-36.984	34.387	2017.399	1745.530
-35.969	34.449	2014.976	1743.934
-34.954	34.450	2013.515	1742.611
-33.940	34.442	2012.060	1741.206
-32.925	34.438	2010.397	1739.657
-31.911	34.478	2008.583	1738.388
-30.896	34.480	2006.342	1736.394
-29.881	34.458	2005.431	1735.339
-28.867	34.548	2003.038	1734.022
-27.852	34.521	2001.837	1732.666
-26.838	34.525	1999.996	1731.038
-25.823	34.594	1997.571	1729.495
-24.809	34.539	1995.861	1727.446
-23.794	34.446	1994.342	1725.222
-22.779	34.482	1992.658	1724.026
-21.765	34.534	1990.713	1722.738
-20.750	34.487	1989.132	1720.880
-19.736	34.552	1987.634	1720.102
-18.721	34.487	1986.330	1718.323
-17.706	34.599	1984.157	1717.380
-16.692	34.515	1983.149	1715.688
-15.677	34.477	1981.461	1713.814
-14.663	34.594	1979.742	1713.310
-13.648	34.622	1978.269	1712.215
-12.633	34.567	1976.939	1710.506
-11.619	34.566	1975.272	1708.983
-10.604	34.442	1974.727	1707.341
-9.590	34.500	1973.123	1706.399
-8.575	34.523	1971.630	1705.251
-7.560	34.596	1970.180	1704.580
-6.546	34.618	1968.751	1703.474
-5.531	34.525	1967.965	1701.894
-4.517	34.627	1966.261	1701.263
-3.502	34.568	1965.203	1699.755
-2.487	34.534	1964.106	1698.432
-1.473	34.559	1963.300	1697.895
-0.458	34.563	1959.095	1694.223
0.556	33.104	1938.332	1666.893
1.571	28.623	1917.942	1610.004
2.586	24.274	1939.159	1589.005
3.600	22.715	1974.795	1603.897
4.615	21.690	1969.547	1590.200
5.629	16.768	1865.642	1463.748
6.644	6.980	1739.878	1285.716
7.659	1.308	1698.908	1210.202
8.673	0.692	1695.621	1202.855
9.688	0.756	1693.656	1201.867
10.702	0.611	1692.741	1199.952
11.717	0.481	1689.283	1196.369
12.731	1.012	1688.900	1200.199
13.746	7.757	1703.843	1264.488
14.761	15.799	1719.806	1340.538
15.775	17.758	1721.741	1357.537
16.790	17.108	1719.109	1350.169
17.804	16.176	1716.373	1340.498
18.819	15.280	1712.827	1330.503
19.834	14.722	1709.837	1323.645
20.848	14.289	1708.722	1319.234
21.863	14.098	1706.791	1316.117
22.877	13.913	1705.155	1313.274
23.892	13.663	1703.645	1310.015
24.907	13.467	1702.797	1307.701
25.921	13.396	1701.935	1306.359
26.936	13.478	1700.602	1305.875
27.950	13.456	1699.645	1304.847
28.965	13.510	1699.214	1304.824
29.980	13.588	1698.243	1304.577
30.994	13.556	1697.342	1303.521
32.009	13.728	1696.081	1303.788
33.023	13.698	1695.571	1303.043
34.038	13.713	1695.136	1302.714
35.053	13.716	1693.895	1301.672
36.067	13.703	1692.333	1300.253
37.082	13.621	1691.700	1299.009
38.096	13.597	1690.497	1297.780
39.111	13.637	1689.850	1297.479
40.126	13.643	1688.791	1296.604
41.140	13.635	1687.810	1295.670
42.155	13.600	1686.141	1293.997
43.169	13.521	1685.345	1292.658
44.184	13.499	1683.498	1290.955
45.199	13.515	1682.438	1290.152
46.213	13.523	1681.131	1289.100
47.228	13.479	1680.139	1287.883
48.242	13.554	1678.680	1287.236
49.257	13.579	1677.872	1286.698
50.271	13.647	1676.122	1285.764
51.286	13.510	1675.357	1284.001
52.301	13.610	1673.704	1283.398
53.315	13.590	1673.121	1282.683
54.330	13.586	1670.541	1280.561
55.344	13.494	1669.403	1278.867
56.359	13.559	1667.840	1278.054
57.374	13.546	1666.792	1277.035
58.388	13.591	1665.438	1276.230
59.403	13.478	1664.041	1274.180
60.417	13.467	1662.686	1272.945
61.432	13.451	1661.697	1271.952
62.447	13.438	1660.623	1270.916
63.461	13.351	1659.671	1269.409
64.476	13.340	1658.020	1267.950
65.490	13.389	1656.950	1267.397
66.505	13.391	1655.673	1266.320
67.520	13.412	1654.769	1265.679
68.534	13.422	1653.605	1264.754
69.549	13.360	1652.547	1263.356
70.563	13.467	1651.296	1263.104
71.578	13.494	1649.970	1262.185
72.593	13.412	1648.827	1260.575
73.607	13.339	1647.643	1259.004
74.622	13.449	1646.408	1258.785
75.636	13.350	1645.589	1257.294
76.651	13.306	1645.100	1256.473
77.666	13.279	1644.433	1255.652
78.680	13.363	1642.588	1254.770
79.695	13.370	1642.052	1254.305
80.709	13.440	1640.886	1253.826
81.724	13.390	1640.020	1252.677
82.739	13.419	1639.062	1252.055
83.753	13.483	1638.019	1251.630
84.768	13.421	1637.256	1250.469
85.782	13.437	1636.893	1250.200
86.797	13.529	1635.394	1249.641
87.812	13.563	1634.293	1248.947
88.826	13.571	1633.067	1247.955
89.841	13.527	1631.873	1246.606
90.855	13.480	1631.056	1245.519
91.870	13.507	1629.615	1244.509
92.884	13.592	1628.809	1244.419
93.899	13.614	1627.578	1243.538
94.914	13.574	1626.490	1242.294
95.928	13.561	1625.160	1241.071
96.943	13.710	1623.225	1240.598
97.957	13.674	1622.091	1239.354
98.972	13.595	1621.001	1237.822
99.987	13.565	1619.428	1236.287
101.001	13.548	1617.969	1234.935
102.016	13.565	1616.140	1233.556
103.030	13.646	1614.840	1233.056
104.045	13.600	1613.630	1231.685
105.060	13.671	1611.873	1230.762
106.074	13.516	1610.900	1228.759
107.089	13.533	1608.925	1227.269
108.103	13.444	1607.894	1225.718
109.118	13.468	1606.320	1224.586
110.133	13.395	1605.069	1222.980
111.147	13.388	1603.648	1221.744
112.162	13.428	1601.997	1220.671
113.176	13.538	1600.389	1220.146
114.191	13.452	1599.248	1218.533
115.206	13.595	1598.026	1218.551
116.220	13.488	1596.646	1216.601
117.235	13.504	1595.269	1215.564
118.249	13.427	1594.577	1214.361
119.264	13.550	1592.408	1213.506
120.279	13.505	1591.337	1212.252
121.293	13.540	1589.578	1211.060
122.308	13.523	1588.092	1209.694
123.322	13.486	1586.324	1207.976
124.337	13.490	1585.356	1207.157
125.352	13.521	1583.787	1206.080
126.366	13.466	1582.773	1204.803
127.381	13.529	1581.632	1204.286
128.395	13.464	1580.568	1202.897
129.410	13.424	1579.424	1201.627
130.424	13.536	1577.580	1200.934
131.439	13.557	1576.719	1200.324
132.454	13.505	1575.349	1198.797
133.468	13.586	1573.675	1198.001
134.483	13.663	1571.814	1197.039
135.497	13.600	1570.677	1195.614
136.512	13.616	1569.164	1194.467
137.527	13.564	1568.243	1193.286
138.541	13.633	1566.645	1192.466
139.556	13.629	1564.863	1190.972
140.570	13.704	1563.398	1190.288
141.585	13.611	1562.250	1188.642
142.600	13.773	1560.791	1188.590
143.614	13.693	1559.655	1187.045
144.629	13.772	1558.418	1186.568
145.643	13.752	1557.375	1185.524
146.658	13.851	1555.688	1184.840
147.673	13.848	1554.290	1183.649
148.687	13.742	1552.742	1181.613
149.702	13.779	1551.333	1180.696
150.716	13.717	1549.506	1178.760
151.731	13.667	1548.225	1177.328
152.746	13.821	1546.904	1177.308
153.760	13.780	1545.620	1175.943
154.775	13.642	1544.642	1174.111
155.789	13.771	1543.040	1173.709
156.804	13.750	1542.091	1172.732
157.819	13.834	1540.463	1171.980
158.833	13.817	1539.369	1170.925
159.848	13.802	1537.851	1169.561
160.862	13.967	1536.286	1169.429
161.877	13.977	1535.261	1168.617
162.892	13.848	1534.572	1167.084
163.906	13.832	1533.165	1165.795
164.921	13.809	1531.562	1164.311
165.935	13.760	1530.899	1163.360
166.950	13.772	1529.408	1162.208
167.964	13.955	1527.848	1162.200
168.979	13.831	1527.116	1160.676
169.994	13.831	1526.342	1159.985
171.008	13.825	1524.960	1158.792
172.023	13.890	1523.830	1158.284
173.037	13.973	1522.717	1157.916
174.052	13.954	1521.360	1156.647
175.067	14.026	1520.332	1156.265
176.081	14.054	1518.985	1155.328
177.096	13.912	1517.556	1153.158
178.110	13.924	1516.447	1152.296
179.125	13.969	1515.510	1151.792
180.140	13.952	1514.059	1150.473
181.154	13.909	1513.991	1150.019
182.169	13.934	1512.562	1149.007
183.183	14.028	1511.156	1148.481
184.198	14.090	1509.758	1147.752
185.213	14.081	1508.852	1146.898
186.227	14.069	1507.983	1146.050
187.242	14.058	1507.206	1145.283
188.256	14.165	1505.575	1144.677
189.271	14.168	1504.625	1143.876
190.286	14.240	1503.405	1143.342
191.300	14.236	1501.960	1142.114
192.315	14.121	1500.520	1140.130
193.329	14.010	1499.945	1138.831
194.344	14.065	1498.905	1138.316
195.359	14.030	1497.853	1137.177
196.373	14.105	1497.020	1136.956
197.388	14.124	1495.968	1136.192
198.402	14.150	1495.069	1135.584
199.417	14.310	1492.850	1134.885
200.432	14.275	1492.604	1134.363
201.446	14.310	1491.547	1133.693
202.461	14.425	1490.099	1133.275
203.475	14.428	1488.957	1132.331
204.490	14.385	1488.091	1131.281
205.504	14.487	1486.504	1130.663
206.519	14.306	1486.251	1129.142
207.534	14.373	1484.754	1128.358
208.548	14.416	1483.290	1127.437
209.563	14.363	1482.101	1126.079
210.577	14.387	1481.583	1125.744
211.592	14.424	1480.481	1125.060
212.607	14.360	1479.964	1124.135
213.621	14.559	1479.023	1124.665
214.636	14.474	1477.914	1123.144
215.650	14.480	1477.142	1122.505
216.665	14.509	1476.094	1121.802
217.680	14.564	1474.757	1121.052
218.694	14.557	1474.690	1120.855
219.709	14.558	1473.531	1119.882
220.723	14.616	1472.498	1119.388
221.738	14.612	1471.491	1118.496
222.753	14.604	1470.355	1117.482
223.767	14.606	1469.756	1116.942
224.782	14.635	1468.724	1116.253
225.796	14.677	1467.812	1115.743
226.811	14.702	1466.872	1115.092
227.826	14.686	1466.167	1114.354
228.840	14.668	1465.200	1113.397
229.855	14.691	1464.406	1112.852
230.869	14.614	1463.518	1111.565
231.884	14.658	1462.281	1110.822
232.899	14.663	1461.480	1110.145
233.913	14.688	1460.030	1109.114
234.928	14.617	1458.943	1107.719
235.942	14.809	1457.581	1107.858
236.957	14.709	1456.296	1106.120
237.972	14.684	1455.036	1104.902
238.986	14.713	1453.876	1104.114
240.001	14.649	1453.320	1103.169
241.015	14.696	1452.367	1102.658
242.030	14.759	1451.037	1101.969
243.045	14.791	1449.953	1101.259
244.059	14.789	1449.625	1100.897
245.074	14.804	1448.668	1100.177
246.088	14.832	1447.491	1099.367
247.103	14.884	1446.946	1099.198
248.117	14.882	1446.339	1098.628
249.132	14.924	1445.235	1097.967
250.147	14.991	1444.095	1097.445
251.161	14.992	1443.717	1097.065
252.176	15.159	1442.969	1097.493
253.190	15.050	1442.465	1096.297
254.205	14.980	1441.666	1095.137
255.220	15.127	1440.785	1095.330
256.234	15.203	1439.673	1094.887
257.249	15.193	1438.854	1094.101
258.263	15.231	1437.993	1093.600
259.278	15.168	1437.046	1092.371
260.293	15.173	1436.311	1091.750
261.307	15.258	1435.092	1091.277
262.322	15.310	1434.365	1090.964
263.336	15.277	1433.722	1090.166
264.351	15.401	1432.604	1090.028
265.366	15.274	1432.005	1088.648
266.380	15.394	1430.373	1088.088
267.395	15.398	1429.448	1087.318
268.409	15.461	1428.839	1087.163
269.424	15.325	1428.078	1085.608
270.439	15.320	1426.825	1084.529
271.453	15.421	1425.805	1084.308
272.468	15.342	1425.035	1083.120
273.482	15.305	1424.390	1082.293
274.497	15.479	1423.703	1082.799
275.512	15.340	1422.265	1080.712
276.526	15.460	1421.193	1080.575
277.541	15.513	1420.434	1080.245
278.555	15.493	1419.395	1079.231
279.570	15.559	1418.772	1079.081
280.585	15.412	1418.354	1077.726
281.599	15.500	1417.102	1077.244
282.614	15.479	1416.199	1076.324
283.628	15.593	1414.570	1075.722
284.643	15.540	1413.615	1074.563
285.657	15.564	1412.821	1074.018
286.672	15.598	1411.636	1073.240
287.687	15.561	1411.225	1072.599
288.701	15.560	1409.775	1071.389
289.716	15.602	1409.067	1071.025
290.730	15.670	1407.910	1070.486
291.745	15.574	1407.158	1069.211
292.760	15.603	1406.346	1068.681
293.774	15.652	1405.043	1067.909
294.789	15.747	1403.946	1067.581
295.803	15.683	1403.564	1066.794
296.818	15.721	1402.662	1066.251
297.833	15.713	1401.881	1065.514
298.847	15.723	1400.819	1064.675
299.862	15.754	1399.770	1063.980
300.876	15.759	1398.614	1063.039
301.891	15.793	1397.250	1062.121
302.906	15.824	1396.976	1062.020
303.920	15.916	1396.243	1061.946
304.935	15.865	1395.672	1061.094
305.949	15.925	1394.771	1060.697
306.964	16.001	1393.765	1060.312
307.979	15.989	1392.881	1059.473
308.993	15.943	1391.899	1058.345
310.008	15.982	1390.998	1057.811
311.022	16.054	1389.629	1057.123
312.037	16.139	1388.184	1056.464
313.052	16.015	1387.990	1055.451
314.066	16.119	1386.742	1055.056
315.081	16.006	1386.051	1053.731
316.095	16.052	1384.842	1053.005
317.110	15.996	1383.904	1051.851
318.125	16.031	1383.041	1051.317
319.139	16.044	1381.752	1050.326
320.154	16.032	1381.298	1049.815
321.168	16.040	1380.070	1048.839
322.183	16.019	1379.208	1047.962
323.197	16.043	1378.460	1047.445
324.212	16.053	1377.435	1046.638
325.227	16.076	1376.601	1046.055
326.241	16.139	1375.351	1045.402
327.256	16.189	1374.343	1044.856
328.270	16.150	1373.906	1044.190
329.285	16.192	1372.962	1043.639
330.300	16.162	1371.934	1042.576
331.314	16.105	1371.132	1041.527
332.329	16.240	1370.148	1041.520
333.343	16.079	1369.282	1039.777
334.358	16.197	1367.983	1039.424
335.373	16.149	1367.612	1038.753
336.387	16.247	1366.450	1038.380
337.402	16.283	1365.617	1037.876
338.416	16.339	1365.358	1037.931
339.431	16.279	1364.947	1037.158
340.446	16.372	1363.868	1036.820
341.460	16.472	1362.815	1036.539
342.475	16.364	1361.890	1035.083
343.489	16.475	1360.842	1034.876
344.504	16.472	1359.994	1034.124
345.519	16.546	1359.059	1033.772
346.533	16.532	1358.439	1033.125
347.548	16.525	1357.267	1032.094
348.562	16.504	1356.631	1031.394
349.577	16.558	1355.612	1030.854
350.592	16.536	1354.866	1030.062
351.606	16.530	1354.183	1029.416
352.621	16.544	1352.835	1028.387
353.635	16.489	1351.913	1027.259
354.650	16.528	1350.900	1026.636
355.665	16.444	1350.295	1025.578
356.679	16.533	1349.019	1025.054
357.694	16.591	1347.686	1024.303
358.708	16.525	1347.242	1023.478
359.723	16.581	1345.983	1022.767
360.738	16.536	1345.051	1021.698
361.752	16.537	1344.026	1020.832
362.767	16.622	1342.622	1020.190
363.781	16.674	1341.829	1019.808
364.796	16.653	1341.263	1019.165
365.810	16.705	1340.288	1018.648
366.825	16.706	1339.517	1017.976
367.840	16.731	1338.925	1017.586
368.854	16.858	1337.944	1017.514
369.869	16.898	1337.455	1017.290
370.883	16.975	1336.444	1016.894
371.898	16.793	1336.435	1015.707
372.913	16.863	1335.411	1015.254
373.927	16.891	1334.228	1014.433
374.942	16.833	1333.305	1013.294
375.956	16.956	1332.762	1013.527
376.971	16.853	1331.782	1012.081
377.986	16.887	1331.076	1011.656
379.000	16.963	1330.330	1011.452
380.015	17.037	1329.641	1011.281
381.029	17.112	1328.349	1010.653
382.044	17.005	1328.083	1009.726
383.059	17.155	1327.269	1009.909
384.073	17.186	1326.567	1009.472
385.088	17.051	1325.889	1008.063
386.102	17.184	1325.085	1008.150
387.117	17.220	1324.446	1007.788
388.132	17.074	1323.968	1006.473
389.146	17.120	1323.478	1006.282
390.161	17.152	1321.972	1005.237
391.175	17.217	1321.155	1004.911
392.190	17.145	1320.600	1003.977
393.205	17.206	1319.710	1003.571
394.219	17.216	1318.765	1002.822
395.234	17.212	1317.203	1001.520
396.248	17.215	1315.957	1000.502
397.263	17.279	1314.372	999.585
398.278	17.194	1313.479	998.320
399.292	17.184	1312.528	997.451
400.307	17.184	1311.437	996.535
401.321	17.196	1310.300	995.650
402.336	17.206	1309.307	994.864
403.350	17.247	1308.174	994.161
404.365	17.296	1307.386	993.760
405.380	17.306	1306.240	992.854
406.394	17.207	1306.088	992.076
407.409	17.283	1305.163	991.729
408.423	17.309	1304.633	991.392
409.438	17.390	1303.725	991.083
410.453	17.521	1302.759	991.026
411.467	17.491	1302.033	990.210
412.482	17.556	1301.447	990.052
413.496	17.420	1301.237	989.014
414.511	17.534	1299.916	988.589
415.526	17.650	1299.250	988.663
416.540	17.586	1298.386	987.553
417.555	17.619	1297.563	987.026
418.569	17.636	1297.497	986.990
419.584	17.605	1297.123	986.439
420.599	17.627	1296.116	985.711
421.613	91.059	1346.989	1444.975
422.628	89.643	1354.383	1445.071
