DTS Sentinel unit serial number:	SN413079Multiplexer serial number:	ORYXHardware model number:	OX4-SRSoftware version number:	ORYX F/W v4.00 Oryx Data Collector v3.7.2.0data status	okinstallation	princeton_trtdifferential loss correction	single-endedforward channel	channel 4reverse channel	N/Adate	2019/09/12time	19:08:18forward acquisition time	15.00reverse acquisition time	0.00gamma	496.2192k internal	0.2308k external	0.2308temperature offset calibration	1.0143default loss term (dB/km)	0.3790temperature slope calibration	1.0000multiplexer offset coefficient	1.0000multiplexer slope coefficient	1.0000fibre end	0.00T internal ref (°C)	32.62T ext. ref 1 (°C)	3.20T ext. ref 2 (°C)	27.26length (m)	temperature (°C)	Stokes	anti-Stokes-747.200	-126.408	0.870	-0.132
-746.185	-137.313	-0.502	0.058
-745.171	-16.260	-0.571	0.368
-744.156	-70.787	-0.304	0.117
-743.142	-88.341	0.161	0.049
-742.127	735.735	0.213	0.581
-741.112	173.400	-0.180	-0.264
-740.098	-13.161	-0.349	0.231
-739.083	-169.193	-0.431	0.016
-738.069	-42.130	-0.558	-0.290
-737.054	-105.912	0.368	-0.084
-736.039	-34.441	-0.272	0.152
-735.025	-39.483	1.069	0.570
-734.010	471.099	0.106	-0.242
-732.996	-200.000	-0.020	0.227
-731.981	-103.340	-0.523	-0.125
-730.966	800.000	0.056	0.235
-729.952	-117.306	0.574	0.106
-728.937	571.966	-0.039	0.097
-727.923	800.000	-0.206	0.839
-726.908	614.816	0.396	1.009
-725.894	-200.000	-0.249	1.146
-724.879	-140.938	0.815	0.085
-723.864	-149.552	-0.124	-0.010
-722.850	255.330	-0.325	-0.565
-721.835	80.809	-0.281	0.308
-720.821	-200.000	-0.009	0.065
-719.806	204.226	0.398	-0.626
-718.791	-200.000	0.083	0.549
-717.777	-101.636	0.701	-0.173
-716.762	30.809	-0.749	-0.651
-715.748	-200.000	0.154	-0.833
-714.733	-200.000	-0.029	-0.377
-713.718	-96.317	-0.438	0.118
-712.704	800.000	-0.067	-0.215
-711.689	-54.499	0.198	-0.091
-710.675	-200.000	0.003	0.162
-709.660	-200.000	0.021	0.145
-708.645	578.187	0.181	0.449
-707.631	27.461	-0.076	-0.065
-706.616	-94.615	-0.914	0.253
-705.602	-57.799	0.728	-0.323
-704.587	-156.167	1.185	-0.076
-703.572	13.522	-0.663	0.522
-702.558	27.502	-0.447	0.381
-701.543	-18.176	0.151	0.096
-700.529	146.800	-0.319	-0.435
-699.514	96.051	0.183	0.212
-698.499	800.000	0.276	-0.882
-697.485	200.810	-0.192	0.300
-696.470	-81.752	0.615	-0.205
-695.456	1.881	-0.041	-0.030
-694.441	308.269	-0.444	0.841
-693.426	800.000	0.186	-0.754
-692.412	-182.081	-0.664	-0.013
-691.397	-12.152	0.327	-0.217
-690.383	158.260	0.212	-0.298
-689.368	124.005	-0.535	0.681
-688.354	104.787	-0.368	0.440
-687.339	-125.570	-0.224	0.035
-686.324	26.938	-0.393	-0.334
-685.310	-62.643	-0.588	0.247
-684.295	233.123	0.285	0.476
-683.281	-152.257	0.678	-0.050
-682.266	-200.000	0.005	0.185
-681.251	-49.782	-0.630	0.304
-680.237	101.096	-0.325	0.383
-679.222	800.000	-0.081	0.342
-678.208	-70.622	0.446	-0.171
-677.193	577.548	-0.059	0.146
-676.178	133.559	0.147	0.193
-675.164	129.938	0.211	0.274
-674.149	-142.221	-1.130	0.113
-673.135	-46.735	0.276	0.137
-672.120	0.837	0.351	-0.255
-671.105	-60.435	-0.845	0.364
-670.091	-159.301	-0.569	0.032
-669.076	-167.224	0.685	0.028
-668.062	-138.275	0.556	-0.062
-667.047	-200.000	-0.024	0.356
-666.032	-200.000	-0.044	0.664
-665.018	335.084	-0.383	-0.752
-664.003	43.925	-0.268	0.249
-662.989	698.274	-0.182	0.485
-661.974	237.796	0.293	-0.492
-660.959	18.657	-0.851	-0.690
-659.945	219.134	-0.463	0.750
-658.930	459.302	0.041	-0.093
-657.916	-28.977	-0.996	0.579
-656.901	461.921	-0.338	-0.765
-655.886	-117.973	0.173	-0.031
-654.872	-5.663	0.625	-0.434
-653.857	-54.759	-0.799	-0.366
-652.843	69.699	0.585	0.611
-651.828	-113.352	-0.184	-0.037
-650.814	162.063	0.503	-0.714
-649.799	32.688	0.667	-0.585
-648.784	389.693	0.157	-0.330
-647.770	377.019	-0.078	-0.161
-646.755	-200.000	0.027	0.163
-645.741	-35.630	-0.754	0.414
-644.726	94.660	-0.430	0.495
-643.711	-99.522	0.475	0.121
-642.697	108.549	-0.706	0.854
-641.682	800.000	-0.214	0.637
-640.668	-55.767	-0.601	0.272
-639.653	154.325	0.737	-1.024
-638.638	95.655	-0.525	-0.607
-637.624	188.171	0.389	0.589
-636.609	800.000	0.312	0.908
-635.595	-200.000	-0.080	0.658
-634.580	30.567	0.663	0.574
-633.565	10.338	0.159	-0.122
-632.551	23.419	0.073	0.061
-631.536	101.433	-0.484	0.571
-630.522	155.136	-0.261	0.364
-629.507	-200.000	-0.051	-0.350
-628.492	-17.564	0.458	0.291
-627.478	-115.229	0.876	0.168
-626.463	416.857	0.435	0.939
-625.449	-200.000	0.110	0.532
-624.434	800.000	-0.055	-0.164
-623.419	-97.165	-1.022	0.270
-622.405	-41.682	-0.410	-0.213
-621.390	-104.640	0.595	0.139
-620.376	-95.302	-0.824	0.224
-619.361	800.000	0.172	0.726
-618.346	800.000	0.230	0.689
-617.332	-31.756	0.703	-0.399
-616.317	-61.422	-0.776	0.330
-615.303	-31.262	-0.208	0.118
-614.288	-103.934	-0.252	-0.059
-613.273	101.921	-0.620	0.732
-612.259	-52.251	0.396	-0.186
-611.244	-61.621	0.530	0.225
-610.230	-100.722	1.001	-0.249
-609.215	149.160	-0.476	0.652
-608.201	-200.000	-0.003	0.131
-607.186	44.467	0.669	0.621
-606.171	-200.000	0.021	-0.425
-605.157	42.164	0.287	-0.264
-604.142	107.456	-0.313	0.377
-603.128	14.525	-0.450	-0.355
-602.113	800.000	-0.119	-0.378
-601.098	635.035	-0.294	-0.754
-600.084	-31.564	0.653	0.371
-599.069	-95.696	0.654	-0.177
-598.055	-200.000	-0.011	0.153
-597.040	150.914	0.163	0.224
-596.025	1.455	0.573	-0.417
-595.011	-180.879	0.355	-0.007
-593.996	32.990	0.594	0.520
-592.982	20.982	-0.181	0.148
-591.967	-91.065	-0.565	-0.164
-590.952	41.726	0.262	0.240
-589.938	-200.000	-0.042	0.216
-588.923	-106.993	-0.438	-0.098
-587.909	5.391	-0.618	-0.461
-586.894	89.137	-0.489	0.551
-585.879	696.293	-0.449	-1.193
-584.865	-121.154	0.322	-0.055
-583.850	117.752	0.180	0.224
-582.836	-60.047	-0.579	0.250
-581.821	-68.045	0.467	0.184
-580.806	-33.466	0.815	-0.455
-579.792	238.725	-0.063	-0.106
-578.777	-74.335	0.611	0.223
-577.763	-94.578	0.511	0.140
-576.748	-200.000	-0.017	0.745
-575.733	89.882	-0.526	-0.593
-574.719	35.819	0.059	-0.053
-573.704	-149.341	-0.437	0.035
-572.690	136.356	0.383	0.504
-571.675	153.916	-0.278	0.384
-570.661	-81.261	0.244	-0.081
-569.646	-200.000	0.071	0.392
-568.631	-66.686	-0.278	-0.111
-567.617	-47.865	0.578	-0.282
-566.602	-29.974	0.460	0.265
-565.588	68.479	0.201	-0.208
-564.573	70.704	0.522	-0.545
-563.558	61.865	0.105	-0.106
-562.544	-6.561	-0.528	0.363
-561.529	51.222	0.586	-0.562
-560.515	79.081	0.605	-0.654
-559.500	190.551	-0.100	-0.151
-558.485	560.346	-0.136	-0.332
-557.471	-10.241	0.510	-0.341
-556.456	-114.550	-0.616	-0.119
-555.442	800.000	0.143	-0.454
-554.427	-168.452	-0.047	-0.002
-553.412	-200.000	-0.170	0.821
-552.398	180.033	-0.358	-0.529
-551.383	-200.000	0.038	0.244
-550.369	-200.000	0.056	-0.544
-549.354	-121.287	0.072	-0.012
-548.339	130.508	0.695	0.898
-547.325	-200.000	-0.040	0.508
-546.310	-43.082	-0.353	-0.181
-545.296	-200.000	0.093	0.789
-544.281	76.021	0.109	0.116
-543.266	800.000	-0.116	-0.412
-542.252	-200.000	0.699	0.002
-541.237	123.663	-0.093	-0.118
-540.223	800.000	-0.190	-0.557
-539.208	-200.000	0.106	0.781
-538.193	-4.061	-0.336	0.235
-537.179	800.000	0.226	0.664
-536.164	261.646	-0.165	0.288
-535.150	-200.000	0.076	0.683
-534.135	-0.365	-0.757	-0.542
-533.121	-200.000	-0.129	0.572
-532.106	-200.000	0.032	0.578
-531.091	302.991	-0.121	0.226
-530.077	-200.000	-0.081	0.476
-529.062	474.951	-0.188	0.429
-528.048	-200.000	0.008	0.190
-527.033	292.516	0.570	-1.047
-526.018	800.000	0.133	0.541
-525.004	-113.100	1.491	0.297
-523.989	344.549	-0.206	-0.407
-522.975	-200.000	0.095	-0.543
-521.960	-122.617	0.491	-0.080
-520.945	-74.028	0.531	-0.194
-519.931	-12.321	-0.430	0.283
-518.916	-22.459	-0.731	-0.446
-517.902	21.305	-0.633	-0.518
-516.887	-200.000	-0.073	0.511
-515.872	-200.000	0.002	0.584
-514.858	-57.036	0.141	-0.063
-513.843	81.753	0.497	-0.542
-512.829	800.000	0.301	-0.942
-511.814	-200.000	-0.071	-0.572
-510.799	14.175	-0.071	0.056
-509.785	-6.427	0.987	-0.678
-508.770	-200.000	-0.075	-0.836
-507.756	-179.011	0.516	-0.012
-506.741	-200.000	-0.003	1.182
-505.726	-200.000	0.122	0.811
-504.712	-1.655	-0.431	-0.306
-503.697	144.863	-0.331	0.446
-502.683	-120.644	-0.371	-0.063
-501.668	-160.207	1.273	0.069
-500.653	-76.874	-0.798	-0.281
-499.639	608.273	0.154	0.388
-498.624	486.000	-0.303	-0.695
-497.610	-56.032	0.073	-0.033
-496.595	-127.182	-0.476	-0.070
-495.581	-111.831	-0.318	0.065
-494.566	-116.569	0.466	-0.086
-493.551	-200.000	-0.003	0.153
-492.537	-112.583	-1.037	-0.208
-491.522	-54.750	-0.412	-0.187
-490.508	-39.884	-1.023	-0.538
-489.493	70.877	-0.474	-0.494
-488.478	255.688	0.167	0.287
-487.464	428.756	-0.118	0.257
-486.449	32.086	-0.304	0.264
-485.435	-200.000	0.138	0.874
-484.420	-45.410	-0.404	-0.202
-483.405	-107.761	-0.499	-0.110
-482.391	-200.000	0.036	-0.407
-481.376	8.109	-0.248	-0.187
-480.362	-3.843	0.893	0.623
-479.347	-59.904	-0.325	0.140
-478.332	-49.217	-0.330	-0.159
-477.318	162.524	0.317	-0.448
-476.303	168.609	-0.423	-0.607
-475.289	800.000	-0.059	-0.205
-474.274	-137.016	-0.665	-0.077
-473.259	450.802	0.119	0.265
-472.245	161.653	-0.556	0.783
-471.230	-200.000	0.113	0.512
-470.216	39.653	0.380	-0.343
-469.201	-59.673	-0.595	-0.256
-468.186	99.070	0.514	-0.597
-467.172	-15.368	-0.518	-0.333
-466.157	340.876	0.431	-0.846
-465.143	-200.000	-0.150	-0.780
-464.128	-125.422	-0.713	-0.109
-463.113	-200.000	0.024	0.194
-462.099	199.593	0.126	0.194
-461.084	-38.433	0.372	-0.198
-460.070	-44.154	-0.427	-0.216
-459.055	-72.268	0.614	-0.229
-458.040	396.298	0.206	-0.432
-457.026	33.699	0.645	0.564
-456.011	-85.140	0.199	-0.062
-454.997	-200.000	0.079	0.937
-453.982	-115.670	-0.547	-0.103
-452.968	-131.604	-0.917	-0.121
-451.953	-200.000	-0.031	0.182
-450.938	-200.000	0.037	0.859
-449.924	-59.899	0.097	0.042
-448.909	-200.000	-0.002	0.439
-447.895	-200.000	0.066	0.399
-446.880	75.796	0.109	0.116
-445.865	23.245	-0.783	-0.647
-444.851	215.002	0.048	-0.077
-443.836	308.922	-0.104	-0.196
-442.822	-108.771	-0.644	-0.139
-441.807	800.000	0.103	-0.287
-440.792	-98.049	0.223	0.058
-439.778	-200.000	0.075	0.753
-438.763	-51.976	-0.179	-0.084
-437.749	-90.205	0.350	-0.102
-436.734	184.237	-0.229	-0.340
-435.719	-61.040	-0.467	0.198
-434.705	-150.432	0.637	-0.049
-433.690	204.220	0.430	-0.670
-432.676	60.922	0.335	-0.334
-431.661	-200.000	-0.094	-0.838
-430.646	-200.000	0.067	0.525
-429.632	41.294	0.521	0.473
-428.617	58.830	0.545	-0.538
-427.603	800.000	-0.093	-0.266
-426.588	-200.000	-0.039	0.226
-425.573	-97.584	0.426	0.111
-424.559	-200.000	0.029	0.331
-423.544	-200.000	0.098	-0.710
-422.530	-29.327	0.572	-0.329
-421.515	-114.907	0.476	0.091
-420.500	0.104	-0.250	0.179
-419.486	-20.561	-0.363	-0.224
-418.471	-200.000	0.021	-0.272
-417.457	800.000	0.305	0.990
-416.442	645.455	-0.045	-0.115
-415.428	800.000	0.304	1.170
-414.413	-79.825	-0.302	0.102
-413.398	-200.000	-0.005	-0.388
-412.384	800.000	-0.011	0.034
-411.369	-148.129	-0.544	0.045
-410.355	-193.976	0.851	0.007
-409.340	-0.839	0.500	-0.355
-408.325	800.000	0.118	-0.332
-407.311	370.743	-0.034	-0.070
-406.296	-143.976	-0.784	0.074
-405.282	-200.000	-0.038	-0.390
-404.267	-200.000	0.105	-0.695
-403.252	-200.000	-0.041	0.858
-402.238	-200.000	0.042	0.386
-401.223	71.603	-0.253	-0.263
-400.209	18.830	-0.833	-0.669
-399.194	155.950	-0.235	-0.325
-398.179	170.715	0.246	0.354
-397.165	166.709	-0.538	0.765
-396.150	-144.531	-0.424	0.039
-395.136	800.000	0.201	0.767
-394.121	15.374	-0.347	-0.273
-393.106	39.252	0.126	-0.114
-392.092	-158.739	-0.941	0.054
-391.077	-20.818	0.275	-0.169
-390.063	651.050	0.372	0.955
-389.048	-83.283	-0.096	-0.031
-388.033	16.081	0.442	-0.349
-387.019	32.067	0.307	-0.265
-386.004	-39.373	-0.388	0.204
-384.990	-200.000	-0.008	0.699
-383.975	-169.349	0.709	0.026
-382.960	142.545	-0.309	0.412
-381.946	-200.000	0.025	0.617
-380.931	17.098	0.293	-0.233
-379.917	226.799	0.071	0.115
-378.902	274.533	0.375	-0.666
-377.888	109.007	-0.552	-0.662
-376.873	-65.404	-0.589	0.237
-375.858	240.271	0.214	0.358
-374.844	-101.411	-0.716	-0.175
-373.829	255.580	0.187	-0.321
-372.815	-200.000	0.029	-0.310
-371.800	-30.842	-0.299	-0.169
-370.785	-108.462	-0.296	-0.064
-369.771	400.001	-0.675	1.418
-368.756	222.919	0.407	0.658
-367.742	61.265	0.625	-0.622
-366.727	-93.612	0.285	-0.079
-365.712	-141.199	-0.234	-0.024
-364.698	576.287	-0.266	0.652
-363.683	-138.809	-0.408	-0.045
-362.669	29.020	-0.464	0.395
-361.654	46.772	-0.677	0.630
-360.639	109.886	0.627	-0.753
-359.625	-5.780	0.623	0.427
-358.610	-56.998	0.645	-0.285
-357.596	-21.438	0.878	0.536
-356.581	800.000	-0.132	-0.517
-355.566	-200.000	0.099	0.462
-354.552	800.000	0.029	-0.082
-353.537	-26.097	0.344	-0.202
-352.523	565.127	-0.311	-0.755
-351.508	48.279	-0.461	0.432
-350.493	13.811	0.334	-0.260
-349.479	-200.000	-0.061	-0.340
-348.464	-180.005	0.541	0.012
-347.450	374.277	0.141	-0.287
-346.435	46.565	0.399	-0.371
-345.420	-200.000	0.192	-0.885
-344.406	-106.205	-0.173	-0.039
-343.391	112.223	-0.330	-0.399
-342.377	-88.047	-0.340	0.102
-341.362	-200.000	0.012	0.362
-340.348	-111.354	-0.476	-0.097
-339.333	-200.000	-0.051	0.381
-338.318	-145.143	-0.346	-0.031
-337.304	192.943	-0.118	0.179
-336.289	-179.405	-0.412	0.009
-335.275	-26.376	-0.210	0.123
-334.260	-45.247	0.340	0.169
-333.245	36.344	-0.362	0.319
-332.231	-40.341	-0.270	-0.141
-331.216	40.576	-0.681	-0.614
-330.202	800.000	-0.380	-1.121
-329.187	-200.000	0.004	-0.096
-328.172	-100.116	0.562	0.140
-327.158	-170.220	-0.287	-0.010
-326.143	197.669	0.216	-0.329
-325.129	-79.235	0.297	0.101
-324.114	241.384	-0.286	-0.478
-323.099	-57.331	0.061	0.027
-322.085	310.189	-0.033	0.062
-321.070	-93.450	0.678	-0.188
-320.056	284.012	-0.254	-0.457
-319.041	79.399	-0.381	0.409
-318.026	-169.828	1.072	0.039
-317.012	92.089	-0.345	0.389
-315.997	-200.000	0.089	-0.643
-314.983	-37.073	-1.401	0.750
-313.968	301.481	0.211	0.390
-312.953	172.828	0.121	0.174
-311.939	-200.000	-0.017	-0.999
-310.924	212.564	0.239	-0.377
-309.910	-200.000	-0.122	0.559
-308.895	-200.000	-0.024	-0.534
-307.880	-200.000	0.000	0.130
-306.866	800.000	-0.149	-0.612
-305.851	19.962	-0.310	-0.250
-304.837	-59.441	-0.610	-0.262
-303.822	1.443	0.567	-0.408
-302.807	800.000	0.178	-0.744
-301.793	190.659	-0.312	-0.469
-300.778	-44.010	0.487	-0.245
-299.764	238.390	-0.250	0.416
-298.749	67.836	0.619	0.633
-297.735	406.301	-0.172	0.363
-296.720	-8.137	-0.340	0.229
-295.705	156.373	-0.355	0.490
-294.691	241.629	-0.171	-0.285
-293.676	-200.000	0.004	-0.485
-292.662	18.747	-1.007	-0.805
-291.647	147.917	-0.098	-0.132
-290.632	800.000	0.107	0.425
-289.618	-177.330	1.040	0.026
-288.603	76.944	0.328	-0.347
-287.589	-69.702	0.108	-0.041
-286.574	800.000	-0.076	-0.276
-285.559	-200.000	0.045	-0.566
-284.545	379.086	0.133	-0.272
-283.530	150.959	-0.415	0.564
-282.516	-200.000	0.003	-0.077
-281.501	160.073	-0.300	0.417
-280.486	800.000	0.063	0.227
-279.472	-134.610	0.314	0.038
-278.457	-3.242	-0.654	-0.455
-277.443	-200.000	0.077	-0.521
-276.428	-83.791	-0.302	0.096
-275.413	102.588	-0.278	0.324
-274.399	324.295	0.182	-0.347
-273.384	209.015	-0.136	0.212
-272.370	-61.493	-0.320	-0.134
-271.355	57.891	0.525	0.513
-270.340	800.000	-0.096	0.313
-269.326	-200.000	-0.021	-0.435
-268.311	-61.918	-0.540	-0.225
-267.297	25.599	0.493	0.409
-266.282	289.519	0.442	-0.800
-265.267	-110.665	0.411	-0.085
-264.253	179.842	-0.312	-0.457
-263.238	105.251	-0.325	0.383
-262.224	-22.434	0.248	-0.150
-261.209	-200.000	0.038	0.221
-260.195	-200.000	-0.008	-0.655
-259.180	-95.723	0.599	-0.160
-258.165	218.535	-0.402	-0.641
-257.151	-35.038	0.483	-0.263
-256.136	284.609	-0.477	-0.857
-255.122	-138.476	0.783	-0.086
-254.107	-200.000	-0.040	0.218
-253.092	-119.070	-0.506	-0.088
-252.078	-200.000	0.045	-0.323
-251.063	-58.073	0.311	-0.135
-250.049	-200.000	-0.004	-0.147
-249.034	36.949	0.181	-0.159
-248.019	-122.123	-0.866	-0.142
-247.005	-145.817	0.405	0.036
-245.990	-137.547	1.005	0.113
-244.976	8.086	-0.303	0.227
-243.961	-88.678	0.664	-0.197
-242.946	76.542	-0.214	-0.226
-241.932	-56.432	0.213	-0.094
-240.917	800.000	0.158	0.557
-239.903	70.669	-0.386	-0.398
-238.888	491.040	-0.213	0.486
-237.873	149.373	0.183	-0.247
-236.859	71.707	0.262	-0.271
-235.844	-157.059	-0.428	0.026
-234.830	44.350	-0.347	0.318
-233.815	-163.479	0.660	0.031
-232.800	-40.511	-0.347	0.179
-231.786	-200.000	-0.026	-0.226
-230.771	301.499	0.235	0.433
-229.757	265.666	-0.477	0.830
-228.742	-85.117	0.284	0.089
-227.727	-27.992	0.338	-0.195
-226.713	600.876	0.066	-0.163
-225.698	33.369	0.381	0.330
-224.684	-60.199	-0.291	-0.124
-223.669	-116.457	-0.932	-0.171
-222.655	-91.827	-0.462	0.131
-221.640	103.262	0.599	0.699
-220.625	-62.462	0.409	0.169
-219.611	-200.000	-0.015	0.617
-218.596	130.390	-0.099	-0.126
-217.582	800.000	0.129	0.444
-216.567	204.251	-0.411	0.635
-215.552	45.781	0.607	-0.559
-214.538	-22.407	-0.391	0.236
-213.523	202.157	-0.167	-0.257
-212.509	-69.586	-0.451	0.172
-211.494	-200.000	0.083	0.500
-210.479	-85.116	-0.471	-0.147
-209.465	223.903	0.277	-0.445
-208.450	-200.000	0.148	1.045
-207.436	-60.041	0.319	0.135
-206.421	-200.000	0.153	0.760
-205.406	-70.800	-0.398	-0.149
-204.392	496.437	0.274	0.628
-203.377	204.822	-0.311	-0.480
-202.363	800.000	-0.075	-0.314
-201.348	33.074	-0.254	0.219
-200.333	124.553	0.179	0.224
-199.319	-36.629	-0.334	0.179
-198.304	-134.208	-0.691	-0.085
-197.290	407.738	0.213	-0.449
-196.275	-28.038	-0.453	-0.261
-195.260	-149.085	-0.080	-0.006
-194.246	436.485	0.371	-0.803
-193.231	-53.083	0.531	0.243
-192.217	-200.000	0.118	0.556
-191.202	-200.000	0.003	-0.150
-190.187	167.028	0.753	-1.064
-189.173	800.000	0.252	-0.730
-188.158	114.329	-0.598	0.724
-187.144	-177.264	0.757	0.019
-186.129	-42.288	-0.313	-0.159
-185.114	-106.337	-0.479	-0.107
-184.100	-64.371	-0.237	0.096
-183.085	-83.756	-1.012	-0.321
-182.071	437.888	0.221	0.478
-181.056	-106.257	-0.287	0.064
-180.042	181.800	-0.125	-0.183
-179.027	174.613	0.323	-0.464
-178.012	-200.000	0.207	-0.909
-176.998	-200.000	-0.083	-0.520
-175.983	202.933	-0.456	-0.700
-174.969	800.000	0.335	0.929
-173.954	9.163	0.020	0.015
-172.939	162.416	0.341	-0.475
-171.925	-200.000	-0.116	0.674
-170.910	138.707	0.076	0.099
-169.896	-200.000	-0.009	0.124
-168.881	-200.000	0.075	0.333
-167.866	-200.000	0.508	0.000
-166.852	189.297	-0.291	-0.434
-165.837	-65.458	0.271	-0.108
-164.823	38.451	-0.177	0.157
-163.808	-121.760	-0.372	0.061
-162.793	-200.000	0.008	0.131
-161.779	115.248	0.439	0.533
-160.764	-200.000	0.032	-0.415
-159.750	-138.701	0.679	0.074
-158.735	0.541	0.404	0.287
-157.720	-70.332	-0.163	-0.061
-156.706	-17.454	0.186	-0.116
-155.691	-119.718	0.306	-0.053
-154.677	89.695	0.413	0.458
-153.662	-200.000	-0.014	-0.361
-152.647	-162.044	-0.579	-0.029
-151.633	167.281	0.348	-0.491
-150.618	-200.000	-0.035	-0.998
-149.604	8.690	0.448	-0.336
-148.589	800.000	-0.091	0.261
-147.574	400.230	-0.222	0.463
-146.560	25.223	0.694	-0.572
-145.545	-100.656	-0.254	0.062
-144.531	800.000	0.034	-0.097
-143.516	-65.638	0.785	-0.312
-142.502	-26.393	0.716	-0.417
-141.487	-173.138	0.502	-0.015
-140.472	127.230	0.170	-0.214
-139.458	52.438	-0.318	0.301
-138.443	-200.000	0.020	0.716
-137.429	48.097	0.637	0.591
-136.414	-87.415	-0.440	0.132
-135.399	-62.301	-0.654	-0.270
-134.385	108.130	0.558	-0.661
-133.370	55.203	-0.487	0.467
-132.356	-200.000	-0.094	1.034
-131.341	305.259	0.345	0.636
-130.326	-91.078	-1.072	-0.305
-129.312	-144.781	0.775	0.071
-128.297	800.000	-0.368	1.037
-127.283	-200.000	-0.094	0.761
-126.268	-168.245	-0.621	-0.024
-125.253	227.355	-0.203	0.328
-124.239	-71.952	-0.115	0.043
-123.224	-114.005	0.083	0.016
-122.210	-27.866	0.342	0.197
-121.195	-40.575	-0.805	-0.414
-120.180	-75.864	0.398	-0.140
-119.166	217.009	-0.158	-0.250
-118.151	-121.220	-0.510	0.085
-117.137	153.029	-0.117	0.158
-116.122	-200.000	-0.076	0.499
-115.107	37.101	-0.426	-0.374
-114.093	-163.263	-0.286	-0.014
-113.078	-200.000	0.013	-0.182
-112.064	-169.873	-0.491	-0.017
-111.049	-200.000	0.063	0.397
-110.034	309.218	0.277	-0.513
-109.020	162.474	-0.408	-0.568
-108.005	-200.000	0.022	-0.923
-106.991	81.356	0.222	-0.238
-105.976	-91.105	0.611	0.174
-104.962	119.006	-0.210	-0.258
-103.947	-200.000	0.130	1.313
-102.932	-56.949	0.366	0.160
-101.918	62.586	0.063	0.062
-100.903	114.089	0.107	-0.129
-99.889	-171.211	0.310	-0.010
-98.874	-200.000	0.063	0.509
-97.859	800.000	0.225	0.660
-96.845	-41.814	0.473	0.241
-95.830	-52.500	-0.659	-0.302
-94.816	-200.000	0.080	-0.427
-93.801	43.233	0.271	-0.245
-92.786	-70.389	-0.758	-0.285
-91.772	279.521	-0.316	-0.560
-90.757	-30.640	-0.178	-0.100
-89.743	-141.048	-0.325	-0.033
-88.728	-94.537	-0.318	0.086
-87.713	4.679	-0.358	0.260
-86.699	-60.300	0.113	-0.048
-85.684	-98.806	0.444	0.112
-84.670	138.689	-0.500	-0.651
-83.655	-113.363	-0.113	0.022
-82.640	800.000	0.214	-0.775
-81.626	43.498	-0.460	0.417
-80.611	-200.000	0.121	-0.808
-79.597	-159.825	0.438	-0.024
-78.582	-147.116	-0.178	0.015
-77.567	40.418	0.110	-0.098
-76.553	125.675	-0.673	-0.842
-75.538	-157.998	0.698	0.041
-74.524	-200.000	0.058	0.436
-73.509	185.468	-0.214	0.314
-72.494	-141.084	-0.387	0.039
-71.480	124.138	0.349	0.434
-70.465	-57.742	0.358	0.155
-69.451	-200.000	0.032	-0.632
-68.436	174.622	0.714	-1.023
-67.422	-52.676	-0.134	0.061
-66.407	-19.708	0.408	-0.250
-65.392	-102.256	-0.897	0.213
-64.378	37.401	0.187	0.164
-63.363	28.018	-0.229	0.191
-62.349	2.144	-0.277	-0.198
-61.334	9.632	-1.327	-0.995
-60.319	195.685	0.431	0.649
-59.305	152.038	-0.486	-0.656
-58.290	46.258	0.925	0.849
-57.276	-200.000	0.290	1.416
-56.261	-200.000	96.843	592.238
-55.246	663.955	1354.853	3459.704
-54.232	200.489	2524.326	3839.237
-53.217	109.324	2280.617	2701.989
-52.203	39.352	2045.018	1811.962
-51.188	34.294	1961.004	1692.651
-50.173	32.968	1943.737	1665.994
-49.159	48.193	1996.792	1848.017
-48.144	49.029	2013.407	1870.796
-47.130	34.978	1975.021	1710.600
-46.115	32.616	1965.689	1681.399
-45.100	32.461	1962.583	1677.293
-44.086	32.400	1959.419	1673.983
-43.071	32.452	1958.274	1673.403
-42.057	32.503	1955.390	1671.319
-41.042	32.502	1952.736	1668.974
-40.027	32.448	1950.506	1666.525
-39.013	32.439	1948.865	1664.981
-37.998	32.592	1947.259	1664.892
-36.984	32.538	1946.113	1663.372
-35.969	32.466	1943.313	1660.280
-34.954	32.641	1941.953	1660.588
-33.940	32.680	1940.406	1659.545
-32.925	32.688	1937.832	1657.346
-31.911	32.487	1937.877	1655.554
-30.896	32.611	1935.984	1654.960
-29.881	32.683	1934.675	1654.412
-28.867	32.774	1932.946	1653.661
-27.852	32.667	1930.744	1650.776
-26.838	32.561	1928.942	1648.241
-25.823	32.783	1926.150	1647.729
-24.809	32.742	1924.735	1646.098
-23.794	32.578	1923.627	1643.651
-22.779	32.582	1922.051	1642.280
-21.765	32.635	1919.612	1640.590
-20.750	32.590	1918.911	1639.532
-19.736	32.648	1917.222	1638.532
-18.721	32.653	1915.954	1637.422
-17.706	32.845	1913.121	1636.604
-16.692	32.503	1912.404	1632.960
-15.677	32.836	1910.202	1633.894
-14.663	32.646	1909.053	1631.203
-13.648	32.556	1907.761	1629.257
-12.633	32.674	1905.684	1628.436
-11.619	32.569	1905.309	1627.146
-10.604	32.695	1903.937	1627.002
-9.590	32.652	1902.960	1625.732
-8.575	32.640	1900.993	1623.878
-7.560	32.704	1900.060	1623.567
-6.546	32.554	1898.922	1621.239
-5.531	32.589	1897.016	1619.851
-4.517	32.532	1896.694	1619.018
-3.502	32.539	1895.322	1617.848
-2.487	32.461	1894.900	1616.748
-1.473	32.490	1893.630	1615.854
-0.458	32.678	1889.141	1613.567
0.556	33.553	1869.234	1583.681
1.571	29.365	1849.799	1532.360
2.586	25.206	1871.773	1515.382
3.600	24.046	1906.635	1533.477
4.615	23.424	1900.961	1523.434
5.629	17.950	1801.201	1398.652
6.644	8.506	1682.422	1233.737
7.659	3.479	1645.784	1168.739
8.673	3.256	1642.101	1164.336
9.688	3.156	1641.584	1163.106
10.702	3.214	1640.009	1162.326
11.717	3.174	1635.993	1159.078
12.731	3.511	1635.838	1161.402
13.746	10.057	1651.764	1222.244
14.761	19.736	1671.972	1310.828
15.775	24.383	1680.140	1352.433
16.790	25.098	1680.340	1357.893
17.804	24.928	1679.378	1355.710
18.819	24.834	1678.057	1353.813
19.834	24.911	1676.076	1352.678
20.848	25.014	1675.971	1353.251
21.863	24.761	1675.331	1350.698
22.877	25.175	1673.799	1352.472
23.892	25.036	1673.231	1350.846
24.907	24.922	1673.908	1350.411
25.921	24.901	1672.410	1348.921
26.936	25.020	1670.441	1348.110
27.950	24.928	1670.823	1347.606
28.965	25.159	1668.666	1347.487
29.980	24.969	1668.414	1345.732
30.994	24.891	1667.208	1344.060
32.009	24.951	1666.751	1344.020
33.023	25.162	1665.318	1344.330
34.038	25.081	1665.038	1343.374
35.053	25.132	1662.337	1341.458
36.067	25.140	1662.556	1341.580
37.082	24.810	1662.592	1339.019
38.096	24.892	1660.496	1337.828
39.111	24.942	1660.297	1337.917
40.126	25.092	1658.565	1337.523
41.140	25.181	1658.559	1338.063
42.155	24.970	1656.856	1335.000
43.169	24.919	1655.677	1333.551
44.184	24.792	1654.594	1331.616
45.199	24.600	1653.554	1329.235
46.213	24.688	1651.973	1328.500
47.228	24.681	1651.651	1328.074
48.242	25.014	1650.288	1329.331
49.257	25.154	1648.206	1328.575
50.271	24.851	1648.655	1326.569
51.286	25.200	1646.449	1327.260
52.301	24.672	1646.847	1323.555
53.315	25.000	1645.055	1324.428
54.330	25.108	1643.161	1323.580
55.344	24.828	1641.837	1320.329
56.359	24.772	1641.501	1319.533
57.374	24.875	1639.368	1318.456
58.388	24.712	1638.409	1316.372
59.403	24.771	1638.021	1316.373
60.417	24.772	1635.878	1314.544
61.432	24.724	1635.153	1313.494
62.447	25.083	1632.439	1313.831
63.461	24.845	1632.962	1312.385
64.476	24.675	1632.240	1310.449
65.490	24.637	1630.861	1308.942
66.505	24.835	1629.329	1309.045
67.520	24.700	1628.681	1307.424
68.534	24.891	1627.940	1308.106
69.549	24.822	1625.685	1305.676
70.563	24.668	1625.547	1304.325
71.578	24.615	1625.201	1303.547
72.593	24.719	1623.818	1303.080
73.607	24.587	1623.463	1301.720
74.622	24.638	1621.881	1300.709
75.636	24.533	1620.546	1298.761
76.651	24.766	1619.828	1299.764
77.666	24.609	1619.071	1297.901
78.680	24.791	1618.321	1298.504
79.695	24.727	1618.338	1297.934
80.709	24.396	1617.407	1294.673
81.724	24.601	1616.452	1295.280
82.739	24.758	1616.786	1296.573
83.753	24.865	1615.083	1295.864
84.768	25.058	1612.752	1295.280
85.782	25.078	1614.103	1296.389
86.797	25.042	1612.902	1295.054
87.812	25.251	1611.536	1295.353
88.826	25.291	1610.279	1294.516
89.841	25.120	1609.381	1292.447
90.855	25.080	1608.283	1291.162
91.870	25.003	1607.919	1290.203
92.884	25.102	1607.130	1290.162
93.899	25.268	1605.969	1290.308
94.914	25.026	1606.214	1288.656
95.928	25.197	1604.565	1288.445
96.943	25.279	1601.784	1286.688
97.957	25.320	1600.857	1286.122
98.972	25.235	1599.640	1284.425
99.987	25.478	1598.691	1285.283
101.001	25.350	1596.852	1282.779
102.016	25.204	1595.180	1280.283
103.030	25.152	1593.533	1278.474
104.045	24.976	1594.341	1277.756
105.060	25.142	1592.232	1277.130
106.074	24.934	1591.150	1274.674
107.089	24.854	1588.873	1272.163
108.103	24.759	1588.033	1270.708
109.118	24.755	1586.390	1269.252
110.133	24.723	1584.991	1267.791
111.147	24.817	1584.379	1267.853
112.162	24.783	1583.244	1266.598
113.176	24.767	1581.284	1264.801
114.191	24.840	1581.714	1265.549
115.206	24.945	1579.439	1264.360
116.220	24.486	1580.134	1261.561
117.235	24.950	1577.270	1262.436
118.249	24.946	1576.156	1261.405
119.264	24.725	1574.271	1258.227
120.279	24.395	1574.037	1255.605
121.293	24.532	1573.220	1255.807
122.308	24.537	1570.922	1253.896
123.322	24.760	1569.848	1254.493
124.337	24.704	1568.865	1253.204
125.352	24.284	1568.437	1249.807
126.366	24.317	1567.780	1249.409
127.381	24.569	1565.686	1249.387
128.395	24.609	1565.164	1249.139
129.410	24.593	1564.846	1248.663
130.424	24.371	1563.152	1245.651
131.439	24.323	1561.088	1243.562
132.454	24.374	1560.221	1243.122
133.468	24.456	1559.626	1243.102
134.483	24.828	1558.593	1244.758
135.497	24.859	1557.096	1243.670
136.512	24.835	1555.845	1242.392
137.527	24.992	1554.767	1242.515
138.541	24.619	1552.679	1238.151
139.556	24.774	1551.676	1238.311
140.570	24.806	1551.404	1238.207
141.585	24.872	1550.039	1237.463
142.600	25.173	1549.200	1238.765
143.614	25.174	1549.074	1238.566
144.629	25.147	1548.011	1237.416
145.643	25.326	1546.786	1237.566
146.658	25.228	1544.984	1235.333
147.673	25.408	1543.747	1235.479
148.687	25.038	1542.299	1231.662
149.702	25.146	1541.623	1231.758
150.716	24.974	1539.672	1228.911
151.731	24.911	1537.506	1226.642
152.746	24.542	1536.321	1223.064
153.760	24.574	1536.093	1222.988
154.775	24.607	1536.125	1223.134
155.789	24.860	1535.521	1224.272
156.804	24.955	1534.070	1223.662
157.819	25.065	1532.189	1222.801
158.833	24.985	1530.338	1220.670
159.848	24.739	1530.838	1219.283
160.862	25.129	1528.763	1220.177
161.877	25.214	1527.616	1219.731
162.892	25.007	1527.412	1218.052
163.906	25.025	1525.901	1216.864
164.921	24.713	1524.246	1213.318
165.935	24.631	1523.939	1212.414
166.950	24.639	1523.149	1211.728
167.964	25.060	1521.890	1213.470
168.979	24.740	1521.297	1210.724
169.994	25.041	1520.054	1211.663
171.008	24.981	1518.508	1209.923
172.023	24.916	1517.534	1208.599
173.037	24.744	1517.011	1206.915
174.052	25.133	1515.677	1208.367
175.067	25.180	1515.623	1208.539
176.081	24.969	1513.987	1205.703
177.096	25.008	1512.602	1204.756
178.110	24.864	1510.852	1202.286
179.125	24.992	1509.311	1201.815
180.140	24.629	1509.812	1199.673
181.154	24.624	1509.017	1198.902
182.169	24.857	1507.484	1199.134
183.183	24.733	1506.887	1197.722
184.198	24.924	1506.201	1198.356
185.213	25.087	1504.862	1198.269
186.227	25.165	1504.977	1198.775
187.242	25.164	1504.201	1198.049
188.256	24.996	1502.683	1195.614
189.271	25.077	1502.029	1195.527
190.286	25.123	1501.418	1195.239
191.300	25.150	1500.929	1194.924
192.315	25.030	1498.668	1192.224
193.329	24.910	1497.789	1190.616
194.344	25.172	1496.220	1191.009
195.359	24.844	1496.784	1189.171
196.373	24.884	1495.117	1188.009
197.388	24.787	1493.405	1185.896
198.402	24.490	1491.669	1182.448
199.417	24.454	1492.357	1182.648
200.432	24.921	1491.628	1185.059
201.446	25.312	1490.200	1186.403
202.461	25.143	1489.896	1184.941
203.475	25.201	1488.525	1184.129
204.490	25.377	1487.266	1184.183
205.504	25.127	1486.609	1181.906
206.519	24.766	1486.235	1179.125
207.534	24.767	1484.083	1177.318
208.548	24.800	1483.754	1177.175
209.563	24.380	1482.696	1173.467
210.577	24.422	1482.007	1173.093
211.592	24.506	1480.314	1172.201
212.607	24.816	1478.998	1173.087
213.621	24.799	1480.986	1174.447
214.636	25.209	1479.630	1175.959
215.650	24.976	1478.442	1173.385
216.665	24.818	1476.964	1171.070
217.680	25.044	1476.391	1171.997
218.694	25.063	1476.662	1172.226
219.709	25.150	1474.984	1171.360
220.723	25.009	1475.089	1170.422
221.738	25.250	1472.494	1169.828
222.753	25.254	1471.622	1169.060
223.767	25.007	1471.632	1167.357
224.782	24.775	1469.792	1164.278
225.796	24.969	1469.691	1165.364
226.811	25.154	1468.976	1165.893
227.826	25.402	1467.061	1165.883
228.840	25.096	1467.812	1164.388
229.855	24.952	1467.963	1163.470
230.869	25.010	1465.430	1161.735
231.884	24.971	1464.242	1160.436
232.899	24.952	1463.559	1159.666
233.913	24.606	1461.737	1155.883
234.928	24.697	1459.975	1154.980
235.942	24.606	1459.925	1154.250
236.957	24.868	1458.709	1154.877
237.972	24.747	1457.894	1153.349
238.986	24.491	1455.583	1149.768
240.001	24.488	1454.863	1149.076
241.015	24.480	1454.506	1148.646
242.030	24.642	1453.801	1149.027
243.045	24.633	1452.743	1148.032
244.059	24.958	1451.564	1149.083
245.074	25.219	1450.653	1149.935
246.088	24.921	1450.488	1147.789
247.103	25.067	1450.531	1148.657
248.117	24.875	1450.771	1147.518
249.132	24.909	1449.939	1146.978
250.147	25.103	1449.034	1147.397
251.161	25.325	1447.802	1147.740
252.176	25.513	1448.128	1149.101
253.190	25.606	1447.233	1148.884
254.205	25.911	1444.945	1148.913
255.220	25.642	1445.436	1147.484
256.234	25.689	1444.071	1146.597
257.249	25.915	1443.832	1147.747
258.263	25.822	1443.555	1146.833
259.278	25.717	1441.974	1144.805
260.293	25.669	1441.023	1143.646
261.307	25.510	1441.117	1142.609
262.322	25.740	1440.474	1143.460
263.336	25.661	1439.744	1142.277
264.351	25.884	1437.630	1141.909
265.366	25.802	1437.695	1141.344
266.380	25.850	1435.198	1139.562
267.395	25.767	1435.467	1139.148
268.409	25.717	1435.025	1138.384
269.424	25.888	1433.059	1137.803
270.439	25.720	1431.617	1135.496
271.453	25.584	1432.236	1135.030
272.468	25.689	1430.961	1134.579
273.482	25.567	1430.178	1133.090
274.497	25.475	1428.426	1131.024
275.512	25.285	1428.788	1130.011
276.526	25.474	1426.231	1129.081
277.541	25.514	1426.180	1129.188
278.555	25.174	1424.927	1125.960
279.570	25.470	1424.708	1127.549
280.585	25.341	1425.231	1127.054
281.599	25.628	1423.520	1127.400
282.614	25.942	1422.481	1128.440
283.628	25.754	1420.672	1125.732
284.643	25.397	1420.951	1123.618
285.657	25.182	1419.882	1121.332
286.672	25.501	1417.540	1121.376
287.687	25.276	1418.426	1120.571
288.701	25.558	1416.664	1120.838
289.716	25.573	1416.129	1120.405
290.730	25.533	1415.519	1119.580
291.745	25.522	1413.965	1118.179
292.760	25.526	1414.578	1118.590
293.774	25.301	1412.518	1115.464
294.789	25.537	1410.774	1115.456
295.803	25.723	1410.362	1116.181
296.818	25.967	1409.509	1116.919
297.833	25.581	1409.042	1114.061
298.847	25.585	1408.308	1113.406
299.862	25.470	1407.852	1112.235
300.876	25.813	1405.984	1112.784
301.891	25.648	1405.064	1110.935
302.906	25.491	1404.869	1109.714
303.920	25.653	1404.717	1110.494
304.935	25.799	1404.564	1111.175
305.949	25.919	1403.151	1110.700
306.964	25.824	1403.228	1110.081
307.979	25.870	1401.896	1109.212
308.993	25.833	1400.747	1107.978
310.008	25.877	1400.245	1107.752
311.022	25.780	1399.298	1106.306
312.037	25.728	1397.964	1104.835
313.052	25.929	1396.227	1104.599
314.066	25.931	1394.943	1103.493
315.081	25.603	1394.390	1100.955
316.095	25.694	1393.399	1100.628
317.110	25.205	1393.116	1097.316
318.125	25.257	1391.611	1096.355
319.139	25.405	1390.860	1096.569
320.154	25.393	1389.698	1095.485
321.168	25.447	1388.555	1094.812
322.183	25.435	1387.132	1093.521
323.197	25.333	1386.099	1091.988
324.212	25.437	1386.298	1092.681
325.227	25.385	1386.020	1092.054
326.241	25.658	1384.800	1092.654
327.256	25.581	1384.286	1091.680
328.270	25.647	1383.307	1091.215
329.285	25.571	1382.249	1089.822
330.300	25.601	1380.619	1088.619
331.314	25.709	1380.223	1088.868
332.329	25.714	1379.880	1088.530
333.343	25.463	1378.068	1085.486
334.358	25.320	1377.818	1084.329
335.373	25.415	1378.275	1085.170
336.387	25.750	1377.158	1086.215
337.402	25.858	1377.872	1087.332
338.416	25.787	1376.546	1085.764
339.431	25.873	1374.762	1084.778
340.446	25.928	1374.247	1084.608
341.460	26.166	1373.805	1085.595
342.475	26.237	1373.344	1085.556
343.489	26.245	1372.292	1084.676
344.504	26.049	1371.879	1083.079
345.519	26.191	1370.512	1082.758
346.533	26.380	1368.822	1082.460
347.548	26.349	1368.939	1082.267
348.562	26.448	1367.878	1081.923
349.577	26.310	1367.786	1080.931
350.592	26.193	1367.126	1079.613
351.606	25.837	1365.684	1076.256
352.621	25.787	1365.130	1075.422
353.635	25.809	1362.864	1073.674
354.650	25.830	1361.402	1072.553
355.665	25.688	1361.327	1071.554
356.679	25.880	1359.264	1070.980
357.694	25.897	1358.507	1070.388
358.708	25.950	1357.761	1070.021
359.723	25.883	1357.055	1068.971
360.738	26.011	1356.217	1068.977
361.752	26.009	1355.095	1067.984
362.767	26.152	1353.428	1067.421
363.781	25.917	1353.327	1065.855
364.796	25.987	1352.306	1065.374
365.810	26.015	1351.868	1065.102
366.825	26.193	1352.085	1066.226
367.840	26.283	1351.131	1065.912
368.854	26.502	1350.161	1066.341
369.869	26.325	1350.440	1065.422
370.883	26.624	1349.833	1066.615
371.898	26.474	1348.893	1064.892
372.913	26.191	1347.200	1061.798
373.927	26.346	1345.841	1061.543
374.942	26.110	1345.962	1060.156
375.956	26.295	1344.505	1060.004
376.971	26.719	1344.568	1062.447
377.986	26.449	1343.076	1059.592
379.000	26.222	1342.820	1057.967
380.015	26.109	1342.924	1057.290
381.029	26.663	1341.555	1059.364
382.044	26.469	1341.736	1058.277
383.059	26.427	1340.703	1057.123
384.073	26.570	1339.745	1057.107
385.088	26.518	1339.398	1056.435
386.102	26.495	1337.969	1055.080
387.117	26.658	1337.268	1055.384
388.132	26.489	1336.678	1053.845
389.146	26.141	1336.850	1051.857
390.161	26.054	1334.463	1049.382
391.175	26.134	1333.904	1049.315
392.190	25.986	1332.451	1047.219
393.205	26.095	1332.435	1047.745
394.219	26.364	1331.929	1048.819
395.234	26.552	1330.958	1049.047
396.248	26.742	1328.619	1048.211
397.263	26.372	1327.885	1045.401
398.278	26.184	1326.621	1043.223
399.292	26.049	1324.858	1040.968
400.307	26.075	1325.599	1041.610
401.321	26.255	1325.207	1042.250
402.336	26.156	1323.524	1040.262
403.350	26.027	1321.424	1037.777
404.365	25.985	1320.867	1037.006
405.380	26.198	1319.441	1037.016
406.394	26.284	1319.696	1037.620
407.409	26.152	1318.862	1036.115
408.423	26.202	1318.313	1035.878
409.438	26.520	1317.883	1037.272
410.453	26.426	1317.120	1036.043
411.467	26.581	1317.386	1037.049
412.482	26.788	1315.706	1036.818
413.496	26.701	1315.459	1036.032
414.511	26.413	1314.319	1033.396
415.526	26.608	1314.422	1034.504
416.540	26.642	1314.348	1034.543
417.555	26.660	1313.581	1033.952
418.569	26.751	1313.037	1033.955
419.584	26.703	1312.690	1033.313
420.599	26.664	1311.518	1032.079
421.613	142.603	1435.937	1792.598
422.628	138.315	1454.050	1792.612
