DTS Sentinel unit serial number:	SN413079Multiplexer serial number:	ORYXHardware model number:	OX4-SRSoftware version number:	ORYX F/W v4.00 Oryx Data Collector v3.7.2.0data status	okinstallation	princeton_trtdifferential loss correction	single-endedforward channel	channel 4reverse channel	N/Adate	2019/09/19time	05:05:35forward acquisition time	60.00reverse acquisition time	0.00gamma	496.2192k internal	0.2340k external	0.2340temperature offset calibration	1.0028default loss term (dB/km)	0.3790temperature slope calibration	1.0000multiplexer offset coefficient	1.0000multiplexer slope coefficient	1.0000fibre end	0.00T internal ref (°C)	19.64T ext. ref 1 (°C)	0.61T ext. ref 2 (°C)	12.80length (m)	temperature (°C)	Stokes	anti-Stokes-747.200	0.983	-0.179	0.129
-746.185	-200.000	0.029	0.432
-745.171	-200.000	0.017	0.313
-744.156	7.828	-0.094	0.070
-743.142	-63.413	-0.041	0.017
-742.127	525.609	-0.045	0.105
-741.112	105.326	-0.343	0.406
-740.098	-17.878	0.293	0.184
-739.083	53.098	0.101	0.097
-738.069	-200.000	0.001	0.527
-737.054	119.271	0.122	-0.152
-736.039	150.895	-0.100	-0.136
-735.025	-112.738	-0.112	0.022
-734.010	70.534	-0.120	-0.124
-732.996	800.000	0.061	0.173
-731.981	-200.000	-0.022	-0.360
-730.966	112.828	-0.130	-0.158
-729.952	194.230	-0.069	0.105
-728.937	111.035	-0.258	-0.311
-727.923	564.239	0.041	0.100
-726.908	-133.964	-0.598	0.074
-725.894	-100.478	0.332	0.082
-724.879	800.000	-0.043	-0.187
-723.864	-24.194	-0.367	-0.220
-722.850	-96.568	-0.062	-0.017
-721.835	443.954	0.033	-0.073
-720.821	-22.017	0.283	-0.172
-719.806	754.892	-0.068	-0.185
-718.791	-16.701	0.050	-0.032
-717.777	-6.785	-0.104	-0.071
-716.762	192.584	0.308	-0.466
-715.748	-145.915	-0.172	-0.015
-714.733	227.559	-0.155	0.252
-713.718	263.270	0.125	-0.217
-712.704	-13.543	-0.234	0.152
-711.689	-3.991	0.096	0.067
-710.675	59.485	0.072	-0.071
-709.660	-200.000	0.100	0.501
-708.645	628.173	-0.012	0.030
-707.631	-152.355	0.055	-0.004
-706.616	-102.560	-0.411	0.098
-705.602	-28.219	-0.325	0.188
-704.587	541.491	0.179	0.427
-703.572	-91.865	-0.473	0.134
-702.558	10.830	0.085	0.065
-701.543	287.121	-0.110	-0.199
-700.529	12.189	-0.183	-0.141
-699.514	-26.157	-0.129	-0.076
-698.499	147.147	-0.127	-0.171
-697.485	7.145	-0.222	-0.166
-696.470	-66.121	-0.352	-0.140
-695.456	-43.205	0.111	0.056
-694.441	-36.141	-0.226	-0.122
-693.426	-200.000	0.004	0.253
-692.412	200.189	-0.189	-0.291
-691.397	-200.000	0.008	-0.122
-690.383	282.768	0.046	-0.083
-689.368	214.194	0.234	-0.370
-688.354	-78.530	-0.256	-0.088
-687.339	-139.453	0.109	0.012
-686.324	-52.080	0.160	0.074
-685.310	800.000	-0.069	-0.207
-684.295	637.468	-0.138	-0.352
-683.281	-119.196	0.140	0.024
-682.266	-82.908	-0.502	0.162
-681.251	-125.496	0.273	0.041
-680.237	50.851	-0.213	-0.202
-679.222	-200.000	-0.002	0.111
-678.208	800.000	-0.089	-0.317
-677.193	82.084	-0.203	-0.220
-676.178	-42.981	-0.168	-0.085
-675.164	-166.236	-0.150	-0.006
-674.149	59.776	-0.265	-0.262
-673.135	-200.000	0.022	0.197
-672.120	-71.206	0.051	-0.019
-671.105	26.729	-0.104	0.087
-670.091	800.000	0.054	-0.181
-669.076	-37.339	0.072	0.038
-668.062	454.592	-0.050	-0.112
-667.047	563.355	0.107	-0.258
-666.032	-36.790	-0.221	0.119
-665.018	88.867	-0.071	0.078
-664.003	-200.000	0.031	-0.202
-662.989	-200.000	-0.045	-0.220
-661.974	585.864	0.063	0.156
-660.959	-171.654	-0.177	0.006
-659.945	-97.118	-0.283	0.074
-658.930	-200.000	-0.002	0.413
-657.916	-200.000	-0.179	0.001
-656.901	162.496	0.082	0.115
-655.886	800.000	-0.057	-0.210
-654.872	-200.000	-0.014	-0.075
-653.857	-59.306	-0.140	0.060
-652.843	-177.255	-0.212	0.005
-651.828	800.000	-0.066	-0.190
-650.814	-67.700	-0.164	-0.064
-649.799	74.241	0.425	0.446
-648.784	-102.287	0.242	-0.058
-647.770	800.000	0.041	-0.176
-646.755	-184.539	0.198	-0.003
-645.741	127.611	0.106	0.135
-644.726	-15.509	-0.086	-0.055
-643.711	800.000	0.058	0.176
-642.697	800.000	-0.110	0.383
-641.682	-154.051	-0.153	-0.010
-640.668	-200.000	-0.052	-0.344
-639.653	-107.759	-0.141	-0.031
-638.638	-31.178	-0.234	-0.132
-637.624	253.757	-0.174	0.297
-636.609	-97.065	-0.189	0.050
-635.595	10.879	0.088	0.067
-634.580	-138.016	-0.213	-0.024
-633.565	-129.436	-0.249	0.034
-632.551	-200.000	-0.027	-0.131
-631.536	-200.000	0.002	-0.184
-630.522	37.716	0.173	0.153
-629.507	681.031	-0.089	0.231
-628.492	-70.325	-0.099	0.038
-627.478	-200.000	0.050	0.365
-626.463	-200.000	-0.045	-0.272
-625.449	-200.000	0.005	-0.129
-624.434	-75.755	0.086	-0.031
-623.419	57.450	0.173	0.169
-622.405	-95.592	-0.037	0.010
-621.390	-200.000	0.032	-0.362
-620.376	-200.000	-0.006	0.032
-619.361	-200.000	0.008	0.076
-618.346	201.546	-0.088	-0.135
-617.332	-82.227	0.255	-0.083
-616.317	-105.546	-0.136	-0.031
-615.303	-200.000	0.053	-0.255
-614.288	23.962	-0.253	0.209
-613.273	75.599	-0.057	-0.060
-612.259	32.159	-0.153	0.131
-611.244	800.000	-0.059	-0.196
-610.230	-42.347	-0.164	-0.084
-609.215	-96.864	0.114	-0.030
-608.201	-124.112	-0.327	-0.051
-607.186	-105.285	0.141	-0.032
-606.171	800.000	0.057	-0.169
-605.157	-200.000	-0.004	0.254
-604.142	800.000	0.115	0.355
-603.128	22.709	0.130	-0.106
-602.113	-63.578	-0.283	0.116
-601.098	478.187	0.146	-0.331
-600.084	-124.611	0.195	0.030
-599.069	105.620	-0.086	0.101
-598.055	-200.000	0.042	-0.204
-597.040	76.952	-0.148	0.156
-596.025	-28.510	-0.072	-0.041
-595.011	-124.445	-0.042	0.007
-593.996	-92.848	0.256	0.071
-592.982	-101.451	-0.305	0.074
-591.967	343.845	0.059	0.115
-590.952	-200.000	0.033	0.174
-589.938	452.462	-0.059	-0.131
-588.923	-32.434	0.086	0.048
-587.909	-200.000	-0.015	-0.165
-586.894	-23.604	-0.067	-0.040
-585.879	-16.437	-0.253	-0.160
-584.865	-200.000	0.015	0.192
-583.850	-162.789	-0.135	0.007
-582.836	-119.196	-0.432	0.075
-581.821	287.074	-0.236	0.424
-580.806	353.414	-0.132	0.261
-579.792	-111.728	-0.228	0.046
-578.777	800.000	0.015	-0.054
-577.763	160.898	0.020	-0.028
-576.748	800.000	0.021	-0.064
-575.733	83.287	-0.134	-0.145
-574.719	-200.000	-0.019	-0.296
-573.704	182.076	-0.082	-0.120
-572.690	800.000	-0.105	0.318
-571.675	-200.000	-0.033	0.157
-570.661	-50.379	0.186	-0.087
-569.646	162.913	0.167	-0.233
-568.631	800.000	-0.061	0.196
-567.617	800.000	0.115	0.455
-566.602	-47.675	0.134	0.065
-565.588	101.739	0.161	-0.187
-564.573	-94.590	0.160	-0.043
-563.558	51.888	0.151	-0.143
-562.544	47.084	0.047	-0.043
-561.529	800.000	-0.045	0.178
-560.515	201.966	-0.104	0.160
-559.500	-200.000	0.017	0.375
-558.485	-1.343	0.126	-0.089
-557.471	-168.677	0.136	-0.005
-556.456	98.149	0.116	0.133
-555.442	-21.975	-0.135	0.082
-554.427	-149.631	-0.195	0.015
-553.412	-152.280	0.228	-0.016
-552.398	-5.959	-0.241	-0.164
-551.383	-6.419	0.237	0.161
-550.369	-200.000	-0.078	-0.584
-549.354	387.664	0.088	-0.181
-548.339	-200.000	-0.009	0.403
-547.325	225.796	-0.123	-0.199
-546.310	388.417	0.124	0.254
-545.296	-72.763	-0.186	0.068
-544.281	800.000	-0.030	-0.118
-543.266	-0.869	-0.239	-0.168
-542.252	-55.778	-0.316	-0.141
-541.237	-33.430	-0.386	0.212
-540.223	344.267	0.069	-0.134
-539.208	-166.488	0.151	0.006
-538.193	-200.000	0.025	-0.285
-537.179	-200.000	0.042	-0.226
-536.164	89.330	-0.095	-0.106
-535.150	383.811	0.119	-0.244
-534.135	-156.565	-0.372	0.023
-533.121	-33.065	0.296	-0.163
-532.106	800.000	-0.026	-0.090
-531.091	-25.576	-0.159	0.093
-530.077	-73.587	0.349	0.126
-529.062	-86.750	-0.452	-0.137
-528.048	-76.846	-0.229	-0.080
-527.033	-124.245	0.280	-0.044
-526.018	-35.604	-0.292	-0.158
-525.004	800.000	0.101	-0.414
-523.989	-200.000	-0.057	-0.258
-522.975	387.260	0.136	0.279
-521.960	94.763	-0.061	-0.069
-520.945	-33.537	-0.383	-0.210
-519.931	-200.000	0.012	-0.253
-518.916	-134.413	-0.444	0.054
-517.902	-64.880	0.206	0.083
-516.887	-68.494	-0.127	0.049
-515.872	-200.000	-0.007	-0.151
-514.858	-30.249	0.093	0.053
-513.843	-47.269	-0.389	-0.188
-512.829	158.692	-0.183	0.253
-511.814	549.924	0.143	0.340
-510.799	-139.336	-0.161	0.017
-509.785	146.399	-0.022	0.029
-508.770	-41.942	-0.266	-0.135
-507.756	26.722	0.127	-0.105
-506.741	381.380	-0.057	0.116
-505.726	-101.243	-0.199	-0.048
-504.712	-95.570	-0.182	-0.048
-503.697	41.712	-0.017	-0.015
-502.683	-112.411	0.311	0.062
-501.668	-101.825	-0.230	-0.055
-500.653	-80.551	0.366	-0.121
-499.639	31.546	-0.046	0.040
-498.624	-15.284	0.277	0.176
-497.610	-200.000	-0.017	0.079
-496.595	3.693	-0.248	0.180
-495.581	-111.088	0.333	-0.068
-494.566	-181.766	-0.268	0.005
-493.551	8.904	0.162	-0.121
-492.537	-200.000	-0.003	0.204
-491.522	270.223	0.089	0.155
-490.508	191.966	-0.124	0.186
-489.493	-125.394	-0.251	-0.038
-488.478	800.000	-0.056	0.213
-487.464	800.000	0.018	0.069
-486.449	-200.000	0.007	0.102
-485.435	-200.000	0.062	0.277
-484.420	-149.185	-0.156	0.012
-483.405	-76.967	0.318	0.110
-482.391	23.209	0.075	-0.061
-481.376	771.800	-0.058	0.156
-480.362	50.714	0.097	0.091
-479.347	800.000	-0.101	0.325
-478.332	224.233	-0.266	0.426
-477.318	-95.696	0.242	-0.064
-476.303	-200.000	0.028	-0.202
-475.289	-71.191	-0.405	0.151
-474.274	-35.100	0.205	0.111
-473.259	-82.632	0.331	-0.106
-472.245	-10.617	-0.154	-0.101
-471.230	800.000	0.072	-0.297
-470.216	31.714	0.147	0.126
-469.201	-200.000	0.050	-0.258
-468.186	800.000	0.046	-0.171
-467.172	3.429	-0.221	-0.159
-466.157	153.277	0.192	0.261
-465.143	0.626	-0.029	0.021
-464.128	-109.245	-0.261	0.055
-463.113	-200.000	-0.024	0.143
-462.099	800.000	0.069	-0.196
-461.084	-68.698	-0.154	0.059
-460.070	-51.308	0.113	0.053
-459.055	48.466	-0.314	0.291
-458.040	35.844	-0.209	-0.182
-457.026	800.000	-0.081	-0.298
-456.011	46.077	0.089	0.082
-454.997	-47.842	-0.363	-0.174
-453.982	-200.000	-0.006	-0.221
-452.968	94.292	-0.271	-0.305
-451.953	800.000	-0.056	-0.169
-450.938	-163.294	-0.483	-0.023
-449.924	-57.319	0.120	-0.052
-448.909	-200.000	-0.019	0.157
-447.895	-47.844	-0.200	-0.096
-446.880	-100.972	-0.479	-0.117
-445.865	377.616	0.040	-0.082
-444.851	-200.000	-0.021	-0.294
-443.836	800.000	0.086	-0.237
-442.822	72.165	-0.076	0.079
-441.807	800.000	-0.079	0.259
-440.792	-5.858	0.154	0.104
-439.778	800.000	-0.069	-0.243
-438.763	-200.000	0.024	0.201
-437.749	-1.403	0.045	0.032
-436.734	-200.000	-0.004	-0.147
-435.719	-200.000	-0.086	0.377
-434.705	-132.136	0.106	-0.014
-433.690	-185.854	0.399	-0.006
-432.676	800.000	-0.095	0.320
-431.661	101.064	0.228	0.262
-430.646	87.915	0.140	0.154
-429.632	-138.813	-0.181	-0.020
-428.617	-129.372	0.218	0.030
-427.603	328.731	0.078	0.149
-426.588	-100.505	-0.244	-0.060
-425.573	-23.027	0.058	0.035
-424.559	-7.870	-0.352	0.235
-423.544	-200.000	-0.004	0.292
-422.530	-105.939	0.295	-0.066
-421.515	-113.807	0.182	-0.035
-420.500	-64.920	0.105	-0.042
-419.486	211.188	0.124	0.193
-418.471	-114.465	-0.341	-0.065
-417.457	-99.716	-0.265	0.066
-416.442	-200.000	0.029	-0.467
-415.428	219.190	-0.108	-0.171
-414.413	-151.128	0.204	-0.015
-413.398	-35.700	-0.031	-0.016
-412.384	-1.584	-0.172	-0.120
-411.369	-101.376	0.112	0.027
-410.355	422.904	0.038	-0.081
-409.340	293.843	0.149	-0.269
-408.325	44.157	0.298	-0.270
-407.311	6.344	0.077	-0.056
-406.296	-88.269	0.265	0.079
-405.282	134.096	0.064	0.081
-404.267	5.573	-0.041	-0.030
-403.252	-50.674	-0.131	-0.061
-402.238	-200.000	0.017	0.169
-401.223	-149.562	0.107	-0.008
-400.209	-75.057	0.060	0.021
-399.194	52.646	0.198	-0.187
-398.179	609.245	0.023	0.056
-397.165	-135.509	-0.393	-0.046
-396.150	-2.442	0.281	-0.195
-395.136	140.502	-0.112	0.146
-394.121	736.995	0.144	0.382
-393.106	-161.174	0.082	-0.004
-392.092	-119.446	0.054	0.009
-391.077	19.092	0.230	-0.182
-390.063	499.642	0.086	-0.196
-389.048	-122.463	0.241	-0.039
-388.033	-185.634	0.178	0.003
-387.019	-87.588	0.257	0.077
-386.004	13.769	0.154	0.118
-384.990	165.971	-0.081	-0.113
-383.975	41.937	0.307	0.275
-382.960	89.645	0.072	-0.079
-381.946	38.702	-0.124	-0.109
-380.931	395.986	0.080	-0.165
-379.917	15.811	0.179	-0.139
-378.902	62.499	-0.139	0.137
-377.888	-118.534	0.117	0.020
-376.873	123.840	-0.197	-0.245
-375.858	2.869	-0.214	-0.154
-374.844	520.532	0.045	0.104
-373.829	-100.353	-0.257	-0.063
-372.815	800.000	0.063	0.175
-371.800	288.322	-0.198	-0.355
-370.785	155.067	0.166	-0.226
-369.771	149.855	-0.138	-0.184
-368.756	-176.194	0.145	0.004
-367.742	-148.460	-0.062	0.005
-366.727	204.793	0.159	-0.243
-365.712	365.936	-0.035	-0.069
-364.698	322.128	-0.105	-0.198
-363.683	293.072	-0.109	-0.197
-362.669	294.247	0.166	-0.300
-361.654	433.184	0.055	0.118
-360.639	-200.000	-0.022	-0.139
-359.625	39.179	-0.191	0.169
-358.610	-122.030	0.286	-0.046
-357.596	-174.708	-0.176	-0.005
-356.581	-45.518	-0.410	-0.201
-355.566	-64.277	-0.364	-0.147
-354.552	316.450	-0.070	-0.130
-353.537	-69.755	0.360	0.136
-352.523	188.931	0.132	0.194
-351.508	-0.028	0.481	-0.338
-350.493	-28.250	0.177	0.101
-349.479	3.154	-0.243	-0.175
-348.464	-47.258	0.027	0.013
-347.450	0.908	0.250	-0.177
-346.435	-200.000	-0.002	-0.102
-345.420	2.447	0.093	0.066
-344.406	-45.107	-0.133	0.065
-343.391	65.241	0.090	-0.090
-342.377	414.846	0.172	0.362
-341.362	200.468	0.116	-0.176
-340.348	510.252	0.134	0.308
-339.333	800.000	0.035	0.139
-338.318	31.450	-0.156	-0.132
-337.304	-8.071	0.350	-0.233
-336.289	37.909	0.220	-0.193
-335.275	-97.104	-0.101	0.026
-334.260	-100.100	-0.137	-0.034
-333.245	-47.412	-0.394	0.189
-332.231	146.502	0.156	0.206
-331.216	205.800	-0.162	0.249
-330.202	-200.000	0.112	-0.565
-329.187	145.707	0.100	-0.133
-328.172	256.882	0.149	-0.253
-327.158	-181.295	0.068	0.001
-326.143	652.451	-0.047	0.119
-325.129	-25.546	0.389	-0.226
-324.114	36.754	0.186	-0.162
-323.099	79.440	0.104	0.110
-322.085	-94.574	0.141	0.038
-321.070	296.609	0.093	0.168
-320.056	-200.000	-0.028	-0.130
-319.041	800.000	-0.005	0.020
-318.026	800.000	0.106	0.340
-317.012	18.818	0.321	-0.254
-315.997	-118.321	0.068	0.012
-314.983	-200.000	0.049	-0.253
-313.968	-99.977	0.124	0.030
-312.953	392.348	0.082	-0.169
-311.939	-142.061	-0.222	-0.022
-310.924	710.167	0.013	-0.035
-309.910	-200.000	0.037	0.283
-308.895	800.000	-0.013	0.038
-307.880	-200.000	0.004	0.182
-306.866	191.236	-0.175	0.259
-305.851	-76.448	0.272	0.094
-304.837	-175.306	-0.312	0.008
-303.822	90.360	-0.109	-0.120
-302.807	-200.000	0.027	-0.366
-301.793	690.694	0.036	0.092
-300.778	25.113	-0.076	0.062
-299.764	-113.389	-0.219	-0.042
-298.749	-21.683	-0.292	0.175
-297.735	511.014	-0.040	0.092
-296.720	-195.062	-0.156	0.001
-295.705	339.873	0.074	0.142
-294.691	-6.958	-0.203	-0.136
-293.676	-43.501	-0.140	-0.070
-292.662	56.186	0.279	0.267
-291.647	-127.997	-0.258	-0.036
-290.632	70.993	-0.081	0.083
-289.618	-14.090	0.158	0.101
-288.603	-200.000	-0.034	-0.298
-287.589	303.794	0.082	0.150
-286.574	-200.000	0.034	-0.177
-285.559	-200.000	0.001	0.193
-284.545	-118.354	-0.257	-0.045
-283.530	-30.935	0.230	0.128
-282.516	357.634	0.021	0.041
-281.501	-135.417	-0.375	-0.044
-280.486	-21.009	-0.084	-0.050
-279.472	-149.278	0.190	-0.015
-278.457	-38.838	0.296	0.153
-277.443	-184.010	0.490	0.008
-276.428	-200.000	0.037	0.289
-275.413	-77.949	-0.143	-0.048
-274.399	172.957	0.051	-0.072
-273.384	-104.675	-0.178	0.040
-272.370	-54.119	0.161	0.072
-271.355	-200.000	-0.256	0.001
-270.340	-1.367	0.178	0.124
-269.326	-1.100	-0.065	-0.045
-268.311	116.270	0.164	0.198
-267.297	-193.245	0.350	0.003
-266.282	39.542	0.124	-0.109
-265.267	99.518	0.271	-0.308
-264.253	-200.000	-0.092	0.400
-263.238	35.802	-0.179	0.155
-262.224	-59.569	-0.150	-0.063
-261.209	-200.000	-0.006	0.066
-260.195	-108.557	0.278	-0.059
-259.180	126.837	-0.125	-0.156
-258.165	66.141	-0.070	0.070
-257.151	166.924	0.081	0.113
-256.136	412.584	0.114	-0.238
-255.122	-200.000	-0.034	-0.158
-254.107	800.000	0.076	0.293
-253.092	95.321	0.278	0.312
-252.078	583.088	-0.124	-0.299
-251.063	51.513	-0.106	-0.099
-250.049	210.589	-0.048	0.074
-249.034	-117.420	-0.085	0.015
-248.019	-117.383	0.238	-0.042
-247.005	-198.871	0.154	-0.001
-245.990	221.451	0.130	0.205
-244.976	-200.000	-0.011	-0.133
-243.961	-34.169	0.065	0.035
-242.946	17.169	-0.184	0.143
-241.932	-154.214	0.172	0.011
-240.917	-144.151	0.238	0.022
-239.903	-200.000	0.025	0.228
-238.888	639.145	0.070	-0.174
-237.873	-54.823	-0.207	0.092
-236.859	-167.566	0.158	-0.006
-235.844	332.210	-0.073	0.138
-234.830	800.000	0.073	-0.270
-233.815	800.000	-0.029	0.091
-232.800	387.440	0.056	-0.114
-231.786	141.585	0.087	0.113
-230.771	800.000	0.052	-0.148
-229.757	-39.432	0.416	-0.214
-228.742	800.000	-0.063	-0.225
-227.727	652.730	-0.066	0.166
-226.713	383.287	0.138	-0.279
-225.698	-47.759	-0.226	-0.108
-224.684	-200.000	-0.072	-0.508
-223.669	-115.605	0.240	0.044
-222.655	-138.145	-0.118	-0.013
-221.640	-123.477	0.297	0.046
-220.625	12.528	-0.281	0.213
-219.611	-81.897	0.133	-0.043
-218.596	-103.176	-0.119	-0.028
-217.582	247.503	-0.149	-0.247
-216.567	-75.349	0.048	0.017
-215.552	-124.816	-0.237	0.036
-214.538	-15.796	0.256	-0.160
-213.523	161.778	0.039	-0.054
-212.509	-200.000	-0.120	0.549
-211.494	137.885	0.175	-0.225
-210.479	800.000	-0.090	-0.319
-209.465	269.346	-0.021	0.035
-208.450	-200.000	0.027	-0.182
-207.436	-18.557	-0.254	0.156
-206.421	800.000	-0.096	0.319
-205.406	467.243	0.160	0.352
-204.392	-182.359	-0.193	-0.004
-203.377	-70.545	0.048	0.018
-202.363	171.520	-0.168	-0.237
-201.348	728.977	0.083	0.218
-200.333	-167.403	-0.172	-0.007
-199.319	-163.165	0.117	-0.006
-198.304	-200.000	0.022	0.163
-197.290	106.258	-0.194	-0.226
-196.275	77.885	-0.214	0.224
-195.260	55.220	-0.092	0.087
-194.246	621.650	0.107	0.265
-193.231	800.000	0.050	0.171
-192.217	65.951	0.158	-0.157
-191.202	-155.060	0.180	0.012
-190.187	112.005	-0.175	-0.208
-189.173	-200.000	-0.015	0.346
-188.158	405.178	-0.281	0.581
-187.144	-38.287	0.209	0.109
-186.129	-48.271	0.242	-0.114
-185.114	-200.000	0.047	-0.602
-184.100	-123.872	0.079	-0.012
-183.085	800.000	-0.074	0.238
-182.071	46.052	0.083	0.075
-181.056	108.852	0.318	0.373
-180.042	-51.678	-0.182	-0.083
-179.027	63.541	-0.110	0.108
-178.012	129.192	0.113	-0.142
-176.998	-37.057	-0.086	0.045
-175.983	-108.217	0.426	-0.090
-174.969	269.328	0.087	-0.149
-173.954	100.252	0.082	0.093
-172.939	-200.000	-0.015	0.168
-171.925	-1.171	0.142	-0.098
-170.910	-200.000	-0.026	0.271
-169.896	-30.735	0.081	0.045
-168.881	53.567	-0.084	-0.079
-167.866	-50.389	0.399	0.185
-166.852	-198.993	-0.115	-0.001
-165.837	-98.400	-0.228	-0.057
-164.823	-42.697	0.143	0.072
-163.808	-138.315	-0.132	0.014
-162.793	-59.937	-0.180	-0.075
-161.779	80.860	0.153	-0.162
-160.764	-38.059	0.272	-0.141
-159.750	800.000	-0.047	0.140
-158.735	208.695	-0.057	-0.088
-157.720	-200.000	-0.032	0.386
-156.706	-123.734	-0.135	0.021
-155.691	123.735	-0.062	0.077
-154.677	-141.278	-0.233	-0.023
-153.662	158.734	0.165	0.224
-152.647	800.000	-0.017	-0.073
-151.633	-128.418	-0.171	0.024
-150.618	207.140	0.026	0.039
-149.604	217.661	-0.099	0.155
-148.589	62.887	0.184	0.180
-147.574	276.128	-0.062	0.108
-146.560	-200.000	0.067	0.438
-145.545	-66.301	-0.142	0.055
-144.531	-137.174	0.114	0.013
-143.516	776.353	0.049	0.131
-142.502	212.707	-0.118	-0.182
-141.487	106.430	0.252	0.292
-140.472	-97.732	0.372	0.094
-139.458	301.570	-0.210	0.380
-138.443	-102.383	0.380	0.089
-137.429	-8.489	-0.193	0.127
-136.414	-86.703	0.153	-0.046
-135.399	800.000	0.068	-0.244
-134.385	-101.014	0.180	-0.043
-133.370	-107.956	-0.352	0.075
-132.356	778.377	-0.082	-0.219
-131.341	409.649	0.131	0.271
-130.326	121.268	-0.093	-0.114
-129.312	167.685	0.168	-0.234
-128.297	-200.000	-0.033	0.180
-127.283	-105.153	-0.350	0.078
-126.268	103.808	0.153	-0.175
-125.253	257.085	0.181	-0.304
-124.239	-11.427	0.188	-0.121
-123.224	-66.280	-0.088	0.034
-122.210	-200.000	-0.026	0.186
-121.195	-138.169	0.138	-0.015
-120.180	800.000	0.102	0.378
-119.166	800.000	-0.046	-0.164
-118.151	-81.600	-0.378	-0.122
-117.137	-110.350	0.097	0.020
-116.122	-200.000	0.015	0.239
-115.107	-137.209	-0.342	0.038
-114.093	237.436	-0.083	0.135
-113.078	126.160	0.178	-0.220
-112.064	55.975	0.036	0.035
-111.049	172.090	0.110	0.155
-110.034	799.708	-0.090	-0.243
-109.020	-200.000	0.312	0.001
-108.005	-69.327	-0.046	-0.017
-106.991	800.000	0.019	0.055
-105.976	192.662	-0.179	-0.265
-104.962	-74.889	0.046	-0.016
-103.947	-129.115	-0.207	0.028
-102.932	103.265	-0.117	0.134
-101.918	70.342	0.068	-0.069
-100.903	394.021	-0.120	-0.245
-99.889	-200.000	0.029	-0.142
-98.874	-19.352	0.324	-0.197
-97.859	-110.188	0.317	-0.065
-96.845	353.328	0.196	0.379
-95.830	28.297	-0.162	0.133
-94.816	-65.462	-0.250	0.098
-93.801	-200.000	0.020	0.107
-92.786	800.000	0.037	0.116
-91.772	-147.339	0.399	-0.033
-90.757	-200.000	-0.032	-0.308
-89.743	-200.000	-0.065	-0.349
-88.728	800.000	0.049	-0.185
-87.713	1.629	0.180	-0.127
-86.699	448.502	-0.120	-0.258
-85.684	-143.148	0.079	-0.007
-84.670	41.154	-0.218	0.192
-83.655	-45.640	-0.048	0.023
-82.640	223.940	-0.139	0.220
-81.626	692.523	0.078	0.200
-80.611	800.000	-0.092	0.326
-79.597	123.411	-0.092	-0.112
-78.582	-35.983	-0.118	0.062
-77.567	-153.198	0.102	-0.007
-76.553	308.630	-0.201	0.367
-75.538	5.461	0.125	0.090
-74.524	23.071	-0.049	0.039
-73.509	-109.716	-0.093	-0.019
-72.494	-200.000	0.020	-0.107
-71.480	-15.113	0.384	-0.240
-70.465	255.387	-0.070	0.118
-69.451	100.943	0.076	0.086
-68.436	3.867	-0.141	0.100
-67.422	800.000	-0.100	-0.327
-66.407	24.834	0.233	-0.188
-65.392	-171.225	-0.469	0.015
-64.378	21.565	0.411	0.326
-63.363	-100.812	0.225	0.054
-62.349	20.522	0.159	-0.125
-61.334	118.059	-1.038	-1.249
-60.319	701.748	0.411	1.058
-59.305	800.000	-0.345	-1.120
-58.290	426.038	0.991	2.085
-57.276	373.088	0.774	1.535
-56.261	-200.000	136.752	623.731
-55.246	335.634	1649.029	3120.897
-54.232	134.598	2792.061	3535.305
-53.217	74.394	2339.012	2398.625
-52.203	25.588	2086.785	1694.669
-51.188	21.338	2006.516	1590.818
-50.173	20.381	1992.923	1571.328
-49.159	37.631	2071.012	1793.457
-48.144	34.785	2080.480	1775.196
-47.130	21.603	2033.015	1614.014
-46.115	19.686	2022.489	1588.001
-45.100	19.622	2019.122	1584.704
-44.086	19.486	2017.432	1582.074
-43.071	19.519	2014.361	1579.897
-42.057	19.520	2012.425	1578.331
-41.042	19.509	2010.700	1576.813
-40.027	19.547	2008.612	1575.464
-39.013	19.523	2007.188	1574.061
-37.998	19.611	2004.957	1573.047
-36.984	19.484	2003.829	1570.944
-35.969	19.546	2001.485	1569.608
-34.954	19.599	2000.172	1569.001
-33.940	19.678	1998.330	1568.215
-32.925	19.622	1997.531	1567.009
-31.911	19.641	1996.124	1566.021
-30.896	19.612	1994.164	1564.155
-29.881	19.643	1992.406	1563.001
-28.867	19.696	1990.741	1562.111
-27.852	19.733	1988.555	1560.666
-26.838	19.743	1986.576	1559.137
-25.823	19.677	1984.687	1556.997
-24.809	19.690	1983.725	1556.299
-23.794	19.658	1981.852	1554.480
-22.779	19.633	1980.107	1552.823
-21.765	19.626	1978.601	1551.518
-20.750	19.701	1976.899	1550.799
-19.736	19.647	1976.046	1549.584
-18.721	19.695	1973.699	1548.110
-17.706	19.681	1972.282	1546.810
-16.692	19.650	1971.021	1545.487
-15.677	19.632	1969.489	1544.063
-14.663	19.586	1968.062	1542.467
-13.648	19.666	1966.704	1542.058
-12.633	19.658	1965.646	1541.099
-11.619	19.632	1964.804	1540.141
-10.604	19.695	1962.469	1538.817
-9.590	19.634	1961.536	1537.482
-8.575	19.664	1959.379	1535.990
-7.560	19.611	1959.005	1535.165
-6.546	19.770	1956.954	1534.910
-5.531	19.673	1955.692	1533.000
-4.517	19.756	1953.982	1532.330
-3.502	19.606	1953.844	1530.832
-2.487	19.648	1952.838	1530.362
-1.473	19.654	1951.761	1529.508
-0.458	19.555	1946.772	1524.663
0.556	18.227	1925.138	1494.158
1.571	13.721	1906.223	1440.292
2.586	9.697	1929.645	1422.425
3.600	8.821	1963.001	1439.023
4.615	8.839	1955.055	1433.231
5.629	7.089	1855.336	1345.139
6.644	3.069	1747.041	1234.291
7.659	0.825	1717.180	1195.371
8.673	0.559	1714.887	1191.565
9.688	0.629	1713.456	1191.019
10.702	0.646	1712.102	1190.106
11.717	0.607	1707.411	1186.437
12.731	0.874	1706.382	1187.710
13.746	4.242	1712.698	1218.501
14.761	10.819	1726.743	1280.346
15.775	15.918	1736.490	1327.762
16.790	17.116	1737.597	1337.937
17.804	16.276	1734.281	1328.656
18.819	15.337	1731.383	1318.938
19.834	14.695	1728.765	1311.786
20.848	14.417	1727.535	1308.555
21.863	14.362	1725.671	1306.595
22.877	14.028	1724.052	1302.634
23.892	13.779	1722.917	1299.711
24.907	13.729	1721.723	1298.304
25.921	13.666	1720.444	1296.731
26.936	13.521	1720.060	1295.198
27.950	13.671	1718.481	1295.064
28.965	13.681	1718.133	1294.770
29.980	13.787	1717.260	1294.819
30.994	13.803	1716.439	1294.210
32.009	13.921	1715.038	1293.960
33.023	13.936	1714.457	1293.521
34.038	13.891	1713.476	1292.322
35.053	13.906	1712.334	1291.458
36.067	13.932	1711.155	1290.657
37.082	13.779	1710.639	1288.968
38.096	13.857	1709.381	1288.513
39.111	13.865	1708.444	1287.752
40.126	13.828	1707.554	1286.679
41.140	13.843	1706.608	1285.968
42.155	13.747	1705.165	1284.028
43.169	13.665	1703.925	1282.349
44.184	13.665	1702.574	1281.217
45.199	13.663	1701.587	1280.341
46.213	13.674	1700.446	1279.456
47.228	13.697	1698.971	1278.408
48.242	13.752	1697.240	1277.417
49.257	13.691	1696.470	1276.259
50.271	13.656	1695.506	1275.150
51.286	13.774	1693.939	1274.764
52.301	13.797	1692.372	1273.652
53.315	13.738	1691.164	1272.177
54.330	13.696	1689.665	1270.615
55.344	13.729	1688.149	1269.615
56.359	13.600	1687.037	1267.680
57.374	13.780	1684.902	1267.336
58.388	13.721	1683.942	1266.049
59.403	13.708	1682.420	1264.697
60.417	13.608	1681.292	1262.976
61.432	13.581	1679.936	1261.639
62.447	13.542	1679.395	1260.823
63.461	13.589	1678.078	1260.078
64.476	13.525	1677.003	1258.675
65.490	13.547	1675.578	1257.661
66.505	13.572	1674.045	1256.586
67.520	13.545	1673.531	1255.888
68.534	13.615	1672.561	1255.576
69.549	13.672	1670.733	1254.523
70.563	13.678	1669.679	1253.668
71.578	13.593	1668.451	1251.994
72.593	13.514	1667.775	1250.777
73.607	13.640	1666.363	1250.560
74.622	13.490	1665.307	1248.527
75.636	13.546	1663.870	1247.762
76.651	13.549	1662.873	1246.924
77.666	13.517	1662.072	1245.973
78.680	13.540	1660.507	1244.865
79.695	13.581	1659.698	1244.458
80.709	13.603	1658.832	1243.860
81.724	13.523	1658.134	1242.627
82.739	13.616	1657.102	1242.442
83.753	13.648	1655.648	1241.480
84.768	13.675	1655.122	1241.179
85.782	13.762	1654.219	1241.040
86.797	13.821	1653.069	1240.510
87.812	13.819	1652.020	1239.602
88.826	13.684	1651.181	1237.853
89.841	13.660	1649.531	1236.325
90.855	13.688	1648.841	1235.907
91.870	13.644	1648.215	1235.000
92.884	13.717	1647.046	1234.557
93.899	13.780	1645.456	1233.725
94.914	13.816	1644.387	1233.084
95.928	13.864	1643.105	1232.369
96.943	13.895	1641.365	1231.189
97.957	13.868	1640.145	1229.958
98.972	13.841	1638.239	1228.221
99.987	13.874	1636.759	1227.248
101.001	13.781	1635.469	1225.484
102.016	13.801	1633.686	1224.190
103.030	13.704	1632.387	1222.389
104.045	13.719	1631.248	1221.540
105.060	13.771	1629.460	1220.480
106.074	13.830	1627.912	1219.642
107.089	13.607	1626.923	1217.157
108.103	13.698	1625.043	1216.310
109.118	13.671	1623.661	1214.973
110.133	13.688	1622.243	1213.927
111.147	13.660	1621.018	1212.700
112.162	13.635	1619.390	1211.191
113.176	13.669	1618.133	1210.389
114.191	13.700	1616.592	1209.359
115.206	13.695	1615.819	1208.639
116.220	13.735	1614.093	1207.527
117.235	13.713	1612.439	1206.027
118.249	13.645	1611.702	1204.874
119.264	13.757	1609.693	1204.077
120.279	13.710	1608.689	1202.882
121.293	13.690	1606.843	1201.245
122.308	13.643	1605.597	1199.869
123.322	13.682	1603.877	1198.763
124.337	13.650	1602.467	1197.371
125.352	13.693	1601.280	1196.687
126.366	13.721	1600.271	1196.028
127.381	13.721	1598.707	1194.752
128.395	13.663	1597.507	1193.333
129.410	13.637	1596.126	1192.012
130.424	13.631	1595.136	1191.125
131.439	13.608	1593.721	1189.791
132.454	13.721	1591.973	1189.193
133.468	13.641	1590.800	1187.643
134.483	13.735	1589.296	1187.086
135.497	13.685	1587.711	1185.437
136.512	13.719	1586.274	1184.505
137.527	13.715	1585.350	1183.680
138.541	13.710	1584.073	1182.583
139.556	13.750	1582.221	1181.382
140.570	13.750	1580.997	1180.366
141.585	13.773	1580.027	1179.702
142.600	13.865	1578.495	1179.102
143.614	13.845	1577.294	1177.959
144.629	13.936	1575.882	1177.451
145.643	14.045	1574.191	1176.853
146.658	13.976	1573.389	1175.658
147.673	13.978	1571.431	1174.111
148.687	13.889	1570.574	1172.735
149.702	13.973	1568.543	1171.709
150.716	13.883	1566.908	1169.751
151.731	13.930	1565.358	1168.822
152.746	13.865	1563.828	1167.116
153.760	13.910	1562.132	1166.061
154.775	13.918	1561.904	1165.843
155.789	13.967	1560.078	1164.724
156.804	13.975	1558.460	1163.469
157.819	13.995	1557.366	1162.690
158.833	14.001	1556.420	1161.922
159.848	14.134	1554.862	1161.585
160.862	14.051	1554.472	1160.612
161.877	14.081	1552.906	1159.547
162.892	14.052	1551.838	1158.447
163.906	14.040	1550.559	1157.304
164.921	14.000	1549.386	1156.051
165.935	14.008	1548.261	1155.160
166.950	14.068	1546.872	1154.441
167.964	14.054	1545.904	1153.521
168.979	14.125	1544.325	1152.731
169.994	14.040	1543.669	1151.549
171.008	14.130	1542.198	1150.972
172.023	14.209	1540.915	1150.460
173.037	14.191	1539.547	1149.211
174.052	14.225	1538.798	1148.790
175.067	14.177	1537.883	1147.674
176.081	14.197	1536.165	1146.423
177.096	14.143	1534.986	1145.070
178.110	14.081	1533.883	1143.723
179.125	14.125	1533.304	1143.491
180.140	14.187	1531.542	1142.501
181.154	14.226	1530.539	1141.920
182.169	14.288	1529.007	1141.101
183.183	14.297	1527.624	1140.030
184.198	14.320	1526.461	1139.215
185.213	14.346	1525.738	1138.755
186.227	14.281	1524.674	1137.418
187.242	14.310	1523.897	1136.935
188.256	14.391	1522.449	1136.307
189.271	14.382	1521.556	1135.479
190.286	14.375	1520.179	1134.302
191.300	14.366	1519.438	1133.590
192.315	14.344	1518.153	1132.377
193.329	14.183	1517.214	1130.487
194.344	14.249	1515.278	1129.389
195.359	14.312	1514.131	1128.862
196.373	14.334	1513.368	1128.345
197.388	14.438	1512.553	1128.338
198.402	14.371	1511.209	1126.780
199.417	14.398	1509.792	1125.809
200.432	14.512	1508.830	1125.764
201.446	14.511	1507.676	1124.793
202.461	14.589	1506.762	1124.538
203.475	14.597	1505.409	1123.482
204.490	14.598	1504.797	1122.934
205.504	14.591	1503.915	1122.129
206.519	14.588	1502.236	1120.761
207.534	14.543	1500.846	1119.318
208.548	14.542	1500.036	1118.609
209.563	14.529	1498.726	1117.446
210.577	14.636	1497.792	1117.370
211.592	14.669	1496.254	1116.345
212.607	14.634	1495.891	1115.741
213.621	14.744	1495.223	1115.875
214.636	14.680	1493.713	1114.223
215.650	14.684	1493.206	1113.771
216.665	14.582	1492.448	1112.433
217.680	14.792	1491.147	1112.762
218.694	14.748	1490.483	1111.871
219.709	14.781	1489.330	1111.134
220.723	14.770	1488.710	1110.499
221.738	14.884	1487.158	1110.000
222.753	14.757	1486.768	1108.770
223.767	14.834	1485.443	1108.192
224.782	14.848	1484.366	1107.385
225.796	14.865	1483.532	1106.778
226.811	14.912	1482.587	1106.284
227.826	14.835	1482.118	1105.328
228.840	14.884	1481.195	1104.867
229.855	14.920	1480.125	1104.209
230.869	14.903	1479.085	1103.218
231.884	14.849	1477.822	1101.827
232.899	14.792	1477.372	1101.019
233.913	14.959	1475.905	1100.927
234.928	14.856	1474.543	1099.136
235.942	14.896	1473.118	1098.240
236.957	14.755	1472.619	1096.841
237.972	14.886	1470.821	1096.270
238.986	14.961	1469.801	1095.903
240.001	14.945	1468.858	1094.998
241.015	14.993	1467.854	1094.467
242.030	15.031	1466.620	1093.699
243.045	14.930	1465.667	1092.231
244.059	15.067	1464.836	1092.409
245.074	15.015	1464.169	1091.471
246.088	15.017	1463.638	1090.994
247.103	15.078	1462.583	1090.510
248.117	15.089	1461.720	1089.842
249.132	15.135	1460.832	1089.383
250.147	15.205	1460.401	1089.421
251.161	15.183	1459.480	1088.491
252.176	15.202	1459.139	1088.268
253.190	15.227	1458.320	1087.722
254.205	15.290	1457.232	1087.219
255.220	15.321	1456.022	1086.426
256.234	15.388	1455.091	1086.068
257.249	15.397	1454.400	1085.514
258.263	15.404	1453.493	1084.786
259.278	15.437	1452.181	1083.922
260.293	15.421	1451.454	1083.183
261.307	15.421	1450.620	1082.460
262.322	15.467	1450.197	1082.350
263.336	15.466	1449.444	1081.683
264.351	15.575	1447.788	1081.057
265.366	15.599	1446.974	1080.506
266.380	15.554	1445.994	1079.386
267.395	15.598	1445.189	1078.975
268.409	15.580	1443.996	1077.875
269.424	15.617	1442.777	1077.102
270.439	15.609	1442.159	1076.496
271.453	15.599	1441.224	1075.637
272.468	15.591	1440.459	1074.924
273.482	15.496	1440.356	1074.140
274.497	15.552	1439.063	1073.442
275.512	15.592	1437.621	1072.524
276.526	15.546	1436.755	1071.493
277.541	15.693	1435.415	1071.334
278.555	15.605	1435.200	1070.520
279.570	15.637	1433.631	1069.456
280.585	15.720	1432.735	1069.221
281.599	15.778	1432.089	1069.010
282.614	15.873	1430.973	1068.687
283.628	15.868	1430.020	1067.850
284.643	15.721	1429.333	1066.308
285.657	15.769	1428.120	1065.616
286.672	15.733	1427.447	1064.789
287.687	15.757	1426.114	1063.851
288.701	15.910	1424.995	1063.894
289.716	15.823	1424.524	1062.897
290.730	15.887	1423.204	1062.222
291.745	15.845	1422.608	1061.416
292.760	15.913	1421.773	1061.129
293.774	15.842	1420.459	1059.608
294.789	15.842	1419.618	1058.890
295.803	15.913	1418.844	1058.660
296.818	15.984	1418.089	1058.451
297.833	16.060	1416.679	1057.781
298.847	16.009	1415.543	1056.522
299.862	15.967	1414.915	1055.696
300.876	15.940	1413.775	1054.580
301.891	16.023	1413.110	1054.509
302.906	15.961	1412.588	1053.644
303.920	16.040	1411.705	1053.384
304.935	16.088	1410.795	1052.908
305.949	16.229	1408.894	1052.281
306.964	16.185	1408.708	1051.773
307.979	16.241	1407.973	1051.481
308.993	16.192	1406.863	1050.249
310.008	16.172	1406.128	1049.488
311.022	16.220	1405.069	1048.901
312.037	16.199	1403.698	1047.655
313.052	16.214	1402.988	1047.125
314.066	16.338	1401.521	1046.705
315.081	16.223	1400.698	1045.285
316.095	16.159	1399.929	1044.226
317.110	16.188	1399.022	1043.637
318.125	16.208	1398.357	1043.169
319.139	16.277	1396.593	1042.189
320.154	16.259	1396.009	1041.550
321.168	16.243	1394.803	1040.455
322.183	16.229	1393.856	1039.571
323.197	16.287	1392.776	1039.030
324.212	16.336	1391.878	1038.570
325.227	16.380	1391.047	1038.133
326.241	16.348	1390.334	1037.307
327.256	16.291	1389.473	1036.223
328.270	16.367	1388.441	1035.831
329.285	16.318	1387.735	1034.910
330.300	16.367	1386.640	1034.302
331.314	16.382	1385.738	1033.630
332.329	16.435	1384.579	1032.998
333.343	16.398	1383.922	1032.194
334.358	16.427	1382.922	1031.531
335.373	16.439	1382.263	1031.024
336.387	16.470	1381.188	1030.320
337.402	16.493	1380.585	1029.917
338.416	16.535	1380.154	1029.759
339.431	16.485	1379.516	1028.887
340.446	16.547	1379.027	1028.809
341.460	16.663	1377.917	1028.595
342.475	16.595	1376.887	1027.320
343.489	16.634	1376.019	1026.820
344.504	16.693	1374.927	1026.275
345.519	16.827	1373.806	1026.156
346.533	16.732	1373.220	1025.052
347.548	16.627	1372.295	1023.638
348.562	16.784	1370.977	1023.512
349.577	16.734	1370.854	1023.028
350.592	16.857	1369.678	1022.800
351.606	16.752	1368.622	1021.292
352.621	16.798	1367.606	1020.721
353.635	16.775	1366.653	1019.781
354.650	16.825	1365.356	1019.022
355.665	16.779	1364.508	1018.023
356.679	16.801	1363.646	1017.418
357.694	16.822	1362.228	1016.399
358.708	16.885	1361.448	1016.105
359.723	16.819	1360.100	1014.616
360.738	16.853	1359.462	1014.250
361.752	16.887	1358.693	1013.789
362.767	16.898	1357.112	1012.590
363.781	16.931	1356.066	1011.913
364.796	16.921	1355.551	1011.380
365.810	16.874	1354.998	1010.596
366.825	17.031	1354.226	1010.867
367.840	16.978	1353.527	1009.943
368.854	17.102	1352.715	1009.982
369.869	17.064	1352.188	1009.275
370.883	17.067	1351.236	1008.495
371.898	17.060	1351.066	1008.233
372.913	17.093	1349.870	1007.450
373.927	17.171	1348.643	1006.908
374.942	17.131	1347.785	1005.940
375.956	17.101	1347.742	1005.643
376.971	17.060	1346.998	1004.754
377.986	17.166	1345.920	1004.491
379.000	17.181	1344.797	1003.650
380.015	17.258	1343.539	1003.077
381.029	17.202	1343.448	1002.587
382.044	17.246	1342.463	1002.026
383.059	17.262	1341.710	1001.468
384.073	17.242	1341.310	1000.966
385.088	17.281	1340.385	1000.416
386.102	17.374	1339.720	1000.374
387.117	17.339	1339.376	999.823
388.132	17.382	1338.387	999.249
389.146	17.339	1337.469	998.225
390.161	17.256	1336.930	997.250
391.175	17.378	1335.809	997.038
392.190	17.412	1334.946	996.507
393.205	17.348	1334.199	995.484
394.219	17.468	1333.130	995.300
395.234	17.473	1331.746	994.210
396.248	17.403	1330.559	992.828
397.263	17.431	1329.827	992.356
398.278	17.460	1327.990	991.066
399.292	17.422	1326.564	989.695
400.307	17.442	1325.682	989.063
401.321	17.449	1324.544	988.165
402.336	17.447	1323.575	987.344
403.350	17.406	1323.352	986.853
404.365	17.558	1321.723	986.432
405.380	17.590	1320.772	985.822
406.394	17.592	1319.925	985.114
407.409	17.622	1319.341	984.762
408.423	17.623	1318.944	984.388
409.438	17.699	1317.949	983.997
410.453	17.647	1317.188	983.039
411.467	17.614	1316.225	982.046
412.482	17.746	1315.889	982.465
413.496	17.776	1314.990	981.879
414.511	17.746	1314.691	981.401
415.526	17.833	1313.541	980.953
416.540	17.847	1313.046	980.577
417.555	17.846	1312.084	979.767
418.569	17.799	1312.044	979.380
419.584	17.766	1311.310	978.558
420.599	17.827	1310.377	978.125
421.613	101.803	1364.162	1491.760
422.628	100.240	1371.928	1491.830
