DTS Sentinel unit serial number:	SN413079Multiplexer serial number:	ORYXHardware model number:	OX4-SRSoftware version number:	ORYX F/W v4.00 Oryx Data Collector v3.7.2.0data status	okinstallation	princeton_trtdifferential loss correction	single-endedforward channel	channel 4reverse channel	N/Adate	2019/09/19time	09:13:35forward acquisition time	60.00reverse acquisition time	0.00gamma	496.2192k internal	0.2337k external	0.2337temperature offset calibration	1.0012default loss term (dB/km)	0.3790temperature slope calibration	1.0000multiplexer offset coefficient	1.0000multiplexer slope coefficient	1.0000fibre end	0.00T internal ref (°C)	22.06T ext. ref 1 (°C)	0.60T ext. ref 2 (°C)	19.22length (m)	temperature (°C)	Stokes	anti-Stokes-747.200	189.940	-0.067	0.101
-746.185	-200.000	-0.038	-0.389
-745.171	-144.380	0.123	0.011
-744.156	219.282	-0.222	0.357
-743.142	-48.598	0.153	0.074
-742.127	107.475	-0.204	0.244
-741.112	-200.000	0.027	-0.131
-740.098	-1.936	-0.064	0.045
-739.083	780.696	-0.052	0.142
-738.069	70.211	0.139	0.144
-737.054	-100.864	-0.154	-0.038
-736.039	-57.139	-0.238	-0.105
-735.025	-25.923	0.082	-0.049
-734.010	-77.865	-0.358	-0.124
-732.996	-125.503	-0.061	0.009
-731.981	-53.036	0.228	0.105
-730.966	-200.000	0.008	-0.063
-729.952	22.566	0.267	-0.220
-728.937	79.984	-0.164	-0.176
-727.923	22.105	-0.070	0.057
-726.908	-115.785	0.307	-0.058
-725.894	-139.735	-0.108	-0.011
-724.879	800.000	-0.091	-0.253
-723.864	-73.659	0.107	0.039
-722.850	-93.000	0.390	0.109
-721.835	-7.927	-0.335	0.227
-720.821	126.126	0.169	-0.215
-719.806	-120.805	-0.084	-0.014
-718.791	16.801	0.278	0.221
-717.777	-200.000	-0.056	-0.356
-716.762	-131.178	0.279	-0.037
-715.748	169.601	-0.099	-0.142
-714.733	-103.344	-0.287	-0.068
-713.718	800.000	0.066	-0.276
-712.704	-98.195	0.246	0.063
-711.689	552.500	-0.109	0.261
-710.675	-110.977	0.267	-0.055
-709.660	-200.000	0.041	-0.283
-708.645	-79.085	-0.141	0.048
-707.631	-34.290	0.257	0.142
-706.616	232.795	0.155	0.255
-705.602	160.911	-0.092	0.129
-704.587	-195.776	-0.282	-0.002
-703.572	110.395	0.176	0.212
-702.558	40.317	0.292	0.263
-701.543	51.457	-0.074	-0.071
-700.529	247.165	-0.092	-0.156
-699.514	23.273	0.204	0.168
-698.499	-0.312	-0.239	-0.170
-697.485	-200.000	-0.025	-0.201
-696.470	-94.233	-0.154	-0.042
-695.456	405.750	-0.124	-0.261
-694.441	212.556	-0.101	0.160
-693.426	143.722	0.208	-0.278
-692.412	-200.000	0.026	0.252
-691.397	222.335	0.198	-0.319
-690.383	-150.033	0.093	-0.007
-689.368	-48.041	0.286	0.139
-688.354	131.981	-0.149	-0.193
-687.339	-184.726	-0.136	0.002
-686.324	-182.452	0.283	0.005
-685.310	800.000	-0.034	-0.099
-684.295	447.315	0.072	-0.158
-683.281	-17.094	-0.279	-0.176
-682.266	623.652	0.022	-0.055
-681.251	-178.362	-0.138	0.003
-680.237	335.728	-0.204	-0.396
-679.222	45.498	0.138	-0.127
-678.208	800.000	-0.052	-0.159
-677.193	-155.936	-0.245	-0.016
-676.178	-138.697	0.063	-0.007
-675.164	-143.272	-0.055	0.005
-674.149	-82.225	0.120	-0.039
-673.135	55.287	-0.260	-0.252
-672.120	562.636	0.053	0.129
-671.105	800.000	0.040	0.128
-670.091	57.132	-0.121	-0.119
-669.076	-146.884	0.295	-0.025
-668.062	-106.741	0.256	0.057
-667.047	402.719	0.112	-0.237
-666.032	-200.000	-0.067	-0.337
-665.018	-200.000	-0.027	-0.161
-664.003	-16.934	-0.304	-0.192
-662.989	-143.677	-0.054	-0.005
-661.974	41.121	0.025	-0.022
-660.959	6.317	0.236	-0.175
-659.945	-48.689	-0.262	-0.126
-658.930	-36.305	0.214	-0.116
-657.916	-200.000	-0.052	0.317
-656.901	48.815	0.166	0.156
-655.886	-118.311	0.325	-0.058
-654.872	-60.942	-0.268	0.113
-653.857	800.000	0.062	-0.178
-652.843	86.238	-0.104	0.115
-651.828	56.304	-0.220	0.214
-650.814	225.769	0.042	0.068
-649.799	107.024	0.101	0.120
-648.784	121.241	-0.228	0.284
-647.770	-36.104	-0.237	-0.128
-646.755	-200.000	-0.014	-0.196
-645.741	359.189	0.275	0.550
-644.726	800.000	-0.087	0.332
-643.711	-72.689	0.439	0.162
-642.697	-76.798	0.147	-0.051
-641.682	-21.665	-0.148	0.090
-640.668	529.940	-0.048	-0.114
-639.653	-133.373	0.013	0.002
-638.638	-49.510	0.134	-0.064
-637.624	32.818	0.218	-0.188
-636.609	-65.715	0.158	-0.063
-635.595	-200.000	0.014	0.091
-634.580	800.000	0.181	0.525
-633.565	10.973	0.206	-0.157
-632.551	201.555	0.038	0.059
-631.536	423.510	-0.145	-0.310
-630.522	800.000	-0.116	0.439
-629.507	487.454	-0.059	0.134
-628.492	207.235	0.133	-0.207
-627.478	198.915	-0.033	-0.051
-626.463	-200.000	-0.021	-0.131
-625.449	-160.224	0.212	0.011
-624.434	800.000	0.050	0.219
-623.419	800.000	0.088	0.357
-622.405	440.898	0.051	0.111
-621.390	145.411	-0.104	0.139
-620.376	39.939	-0.098	-0.088
-619.361	77.286	0.116	0.123
-618.346	-56.275	-0.115	-0.051
-617.332	-102.437	-0.193	-0.046
-616.317	-158.836	0.284	-0.016
-615.303	-94.072	-0.249	0.068
-614.288	-168.981	-0.308	0.012
-613.273	176.058	-0.068	-0.099
-612.259	800.000	-0.031	-0.120
-611.244	272.409	0.055	-0.097
-610.230	-200.000	-0.050	-0.356
-609.215	-77.160	-0.061	-0.021
-608.201	800.000	0.016	0.064
-607.186	-101.835	0.173	0.042
-606.171	-37.976	0.281	-0.149
-605.157	-11.712	0.242	0.159
-604.142	323.481	-0.051	0.097
-603.128	-150.400	0.306	0.023
-602.113	33.710	-0.267	-0.232
-601.098	-87.203	0.139	-0.042
-600.084	-82.215	-0.165	0.054
-599.069	3.791	-0.343	-0.250
-598.055	-136.225	0.091	0.011
-597.040	-118.375	-0.607	-0.108
-596.025	-15.146	-0.037	0.024
-595.011	-8.514	0.279	0.187
-593.996	-200.000	0.000	-0.058
-592.982	-81.525	0.132	0.043
-591.967	185.081	0.036	0.053
-590.952	552.425	-0.142	0.340
-589.938	-58.323	-0.241	0.105
-588.923	-97.517	0.126	-0.033
-587.909	38.740	-0.269	0.239
-586.894	-118.318	-0.294	0.052
-585.879	-200.000	-0.031	-0.339
-584.865	-16.126	-0.159	-0.101
-583.850	-199.012	-0.238	0.001
-582.836	555.295	-0.039	0.093
-581.821	-11.230	0.080	-0.053
-580.806	-108.064	0.203	-0.044
-579.792	-154.048	-0.045	0.003
-578.777	-200.000	0.024	0.316
-577.763	81.935	0.039	0.042
-576.748	-100.874	-0.334	-0.082
-575.733	800.000	-0.147	0.424
-574.719	154.475	-0.145	0.199
-573.704	-64.496	-0.057	0.023
-572.690	-125.276	0.203	0.031
-571.675	-18.430	0.109	0.068
-570.661	571.746	-0.053	-0.130
-569.646	-200.000	0.038	-0.283
-568.631	121.675	-0.244	-0.303
-567.617	-85.930	-0.493	-0.152
-566.602	800.000	0.096	-0.271
-565.588	318.499	0.088	0.166
-564.573	-67.429	-0.452	-0.177
-563.558	-200.000	-0.031	-0.419
-562.544	111.809	-0.054	-0.065
-561.529	-52.666	-0.344	-0.158
-560.515	40.545	0.180	0.162
-559.500	-153.377	0.067	-0.005
-558.485	-200.000	-0.015	-0.183
-557.471	182.517	-0.096	-0.141
-556.456	-39.341	-0.241	0.126
-555.442	800.000	-0.051	-0.161
-554.427	-33.880	0.138	-0.076
-553.412	-161.741	-0.484	0.025
-552.398	-107.804	-0.106	-0.023
-551.383	-144.310	0.147	0.014
-550.369	-200.000	0.018	-0.308
-549.354	-75.293	0.120	0.042
-548.339	-105.647	0.293	0.066
-547.325	186.923	-0.219	0.325
-546.310	37.300	0.213	0.188
-545.296	-200.000	-0.018	0.141
-544.281	192.783	-0.151	0.228
-543.266	-123.480	-0.148	0.024
-542.252	605.653	-0.018	0.046
-541.237	179.754	-0.102	0.149
-540.223	97.536	-0.166	-0.190
-539.208	83.914	-0.162	-0.176
-538.193	-65.420	-0.110	0.044
-537.179	-36.375	-0.236	0.126
-536.164	800.000	-0.027	0.076
-535.150	-159.881	-0.229	-0.012
-534.135	63.412	0.148	0.148
-533.121	-200.000	0.015	-0.125
-532.106	187.197	-0.114	0.169
-531.091	800.000	0.015	0.058
-530.077	-131.048	0.295	0.039
-529.062	-43.739	-0.219	-0.110
-528.048	-200.000	0.017	0.297
-527.033	-200.000	0.045	-0.295
-526.018	-200.000	-0.007	-0.385
-525.004	-200.000	-0.023	0.159
-523.989	-200.000	-0.011	0.069
-522.975	800.000	0.053	0.151
-521.960	40.618	-0.151	0.135
-520.945	194.838	0.130	0.197
-519.931	460.042	0.076	0.169
-518.916	225.685	-0.060	-0.096
-517.902	95.594	0.091	0.103
-516.887	-127.364	-0.189	0.027
-515.872	-32.134	-0.320	0.178
-514.858	233.230	0.102	-0.167
-513.843	479.443	0.014	0.031
-512.829	-2.830	-0.137	-0.095
-511.814	-200.000	0.000	0.011
-510.799	86.835	-0.087	0.095
-509.785	644.991	-0.168	-0.427
-508.770	107.782	0.281	-0.333
-507.756	-84.713	0.155	0.049
-506.741	-76.147	-0.175	-0.061
-505.726	-89.822	0.278	0.081
-504.712	-200.000	0.005	-0.138
-503.697	-85.165	-0.154	0.048
-502.683	-143.717	0.048	-0.004
-501.668	-74.262	-0.102	0.037
-500.653	63.835	-0.175	-0.175
-499.639	194.093	0.125	0.188
-498.624	-200.000	-0.002	0.102
-497.610	-104.243	0.231	-0.053
-496.595	200.130	0.191	0.292
-495.581	-106.624	-0.050	0.011
-494.566	-94.680	-0.043	0.012
-493.551	-56.184	0.211	0.093
-492.537	-105.032	-0.260	0.059
-491.522	-200.000	0.025	0.255
-490.508	65.197	0.130	0.131
-489.493	119.965	0.066	0.081
-488.478	-114.538	0.089	0.017
-487.464	-65.204	0.133	0.053
-486.449	3.511	0.258	-0.187
-485.435	-1.007	0.161	-0.113
-484.420	-99.726	-0.022	0.005
-483.405	-78.256	-0.216	0.074
-482.391	714.355	0.162	0.427
-481.376	19.577	-0.273	-0.218
-480.362	-17.830	0.228	-0.142
-479.347	800.000	0.089	-0.285
-478.332	178.303	-0.264	0.382
-477.318	-30.770	-0.218	-0.123
-476.303	-122.806	0.043	-0.007
-475.289	-46.122	-0.257	0.126
-474.274	92.319	0.297	0.332
-473.259	-200.000	-0.014	-0.139
-472.245	800.000	0.059	-0.235
-471.230	-200.000	-0.029	0.183
-470.216	60.225	-0.064	0.063
-469.201	800.000	-0.014	-0.041
-468.186	15.054	-0.077	0.060
-467.172	271.091	0.085	-0.148
-466.157	184.313	-0.112	-0.164
-465.143	15.780	0.069	0.054
-464.128	-41.539	0.380	-0.194
-463.113	-139.936	-0.063	-0.007
-462.099	-111.935	0.466	-0.093
-461.084	-200.000	-0.029	-0.130
-460.070	-136.595	-0.366	0.042
-459.055	-200.000	-0.010	0.188
-458.040	196.600	-0.136	-0.206
-457.026	-200.000	0.010	0.254
-456.011	-136.503	0.288	0.033
-454.997	-200.000	0.021	0.242
-453.982	34.834	-0.070	0.061
-452.968	-43.121	0.148	-0.074
-451.953	158.391	0.259	-0.357
-450.938	-114.990	-0.070	0.013
-449.924	119.530	0.176	0.217
-448.909	-200.000	0.061	-0.319
-447.895	62.432	0.146	0.144
-446.880	-95.140	0.078	-0.021
-445.865	-58.523	-0.331	-0.142
-444.851	-144.230	0.438	0.041
-443.836	-200.000	-0.027	-0.201
-442.822	15.360	-0.131	-0.102
-441.807	173.336	-0.037	0.053
-440.792	-200.000	0.020	0.106
-439.778	126.341	-0.216	0.271
-438.763	258.409	0.089	0.151
-437.749	800.000	-0.110	0.368
-436.734	800.000	0.096	0.291
-435.719	-200.000	0.011	-0.117
-434.705	-200.000	-0.011	-0.061
-433.690	-200.000	-0.053	-0.299
-432.676	202.656	-0.039	-0.060
-431.661	-55.144	0.103	-0.046
-430.646	-76.846	-0.119	0.041
-429.632	-85.830	-0.228	-0.070
-428.617	99.406	-0.121	0.139
-427.603	8.180	-0.130	0.097
-426.588	-110.847	0.239	-0.049
-425.573	-164.451	0.176	0.008
-424.559	724.656	0.137	-0.361
-423.544	38.613	0.189	0.167
-422.530	112.600	0.151	-0.182
-421.515	356.068	-0.098	-0.194
-420.500	156.368	-0.127	0.174
-419.486	-193.120	0.230	0.002
-418.471	254.089	-0.179	-0.303
-417.457	24.700	0.027	0.022
-416.442	290.490	-0.112	0.201
-415.428	-142.861	0.234	-0.023
-414.413	-136.054	0.104	0.012
-413.398	13.174	0.150	0.115
-412.384	-200.000	-0.006	0.291
-411.369	800.000	-0.079	-0.217
-410.355	-23.294	0.089	0.053
-409.340	122.604	-0.212	-0.262
-408.325	-122.309	0.148	-0.024
-407.311	-36.330	-0.114	-0.061
-406.296	-31.161	-0.267	0.149
-405.282	-200.000	-0.020	0.113
-404.267	-33.496	-0.192	0.105
-403.252	-200.000	-0.039	0.000
-402.238	-54.393	-0.105	-0.047
-401.223	31.276	0.393	0.334
-400.209	-25.896	-0.120	-0.070
-399.194	461.801	-0.042	-0.092
-398.179	798.295	-0.167	-0.457
-397.165	-200.000	-0.003	-0.065
-396.150	-200.000	0.038	-0.252
-395.136	-200.000	-0.033	0.248
-394.121	-115.707	-0.035	0.006
-393.106	-7.043	0.151	-0.102
-392.092	285.952	-0.068	-0.122
-391.077	-108.041	-0.116	0.025
-390.063	800.000	0.040	0.122
-389.048	211.554	0.137	0.214
-388.033	90.232	0.059	0.065
-387.019	800.000	0.046	0.140
-386.004	373.459	-0.098	0.198
-384.990	586.945	0.133	-0.323
-383.975	19.312	0.134	-0.106
-382.960	-162.825	-0.225	-0.011
-381.946	-133.312	-0.278	0.035
-380.931	684.651	0.161	-0.415
-379.917	-200.000	0.003	0.374
-378.902	210.227	-0.229	-0.356
-377.888	-151.814	0.084	0.006
-376.873	745.827	0.034	0.092
-375.858	-54.391	-0.121	0.054
-374.844	403.279	-0.197	-0.411
-373.829	-190.786	-0.315	0.003
-372.815	-150.374	-0.242	-0.018
-371.800	-74.234	-0.162	-0.058
-370.785	-92.506	-0.263	-0.073
-369.771	-200.000	-0.002	-0.157
-368.756	297.127	-0.098	-0.179
-367.742	-135.898	-0.022	0.003
-366.727	8.068	-0.096	0.072
-365.712	63.249	0.238	-0.236
-364.698	-139.304	-0.242	0.026
-363.683	-95.262	-0.309	-0.082
-362.669	-37.726	0.341	0.179
-361.654	-62.721	0.298	0.122
-360.639	235.004	0.087	-0.141
-359.625	800.000	0.055	-0.239
-358.610	-86.890	0.285	-0.086
-357.596	127.353	-0.072	-0.091
-356.581	-72.122	0.112	-0.041
-355.566	800.000	-0.108	-0.355
-354.552	-200.000	0.000	-0.121
-353.537	57.409	-0.030	0.029
-352.523	-55.175	0.475	-0.211
-351.508	184.461	-0.159	-0.233
-350.493	-152.281	0.084	-0.006
-349.479	-143.789	0.319	0.030
-348.464	-102.169	0.196	0.047
-347.450	-47.910	-0.129	-0.062
-346.435	800.000	-0.023	0.084
-345.420	113.293	0.115	0.138
-344.406	22.499	-0.108	0.087
-343.391	-200.000	0.009	-0.159
-342.377	-183.694	0.310	-0.005
-341.362	-139.728	0.176	-0.018
-340.348	-14.249	-0.359	-0.228
-339.333	-96.470	0.224	0.058
-338.318	-200.000	0.019	0.130
-337.304	-59.620	-0.284	-0.120
-336.289	-61.197	-0.144	0.060
-335.275	-5.175	-0.337	-0.229
-334.260	-39.551	-0.374	-0.193
-333.245	-200.000	0.020	0.092
-332.231	-62.223	0.285	-0.117
-331.216	-200.000	-0.044	-0.369
-330.202	687.808	0.019	0.050
-329.187	35.444	-0.227	-0.197
-328.172	-119.040	0.379	0.065
-327.158	11.383	0.038	-0.029
-326.143	204.161	0.096	-0.147
-325.129	372.217	-0.048	0.096
-324.114	248.579	0.147	-0.246
-323.099	-200.000	0.009	0.172
-322.085	234.074	0.229	0.373
-321.070	-27.777	0.235	-0.134
-320.056	-89.580	0.206	0.060
-319.041	-134.330	-0.093	0.011
-318.026	606.204	0.105	0.259
-317.012	126.184	-0.071	0.089
-315.997	-61.321	-0.234	-0.097
-314.983	51.784	0.076	-0.071
-313.968	449.968	-0.077	-0.167
-312.953	-197.100	0.217	0.001
-311.939	-125.367	-0.299	0.045
-310.924	38.326	-0.140	0.123
-309.910	-16.512	0.160	-0.100
-308.895	-200.000	0.026	-0.121
-307.880	511.786	0.092	0.211
-306.866	-200.000	0.006	0.169
-305.851	-191.786	0.255	0.002
-304.837	-200.000	0.038	-0.230
-303.822	-142.759	0.285	0.027
-302.807	-166.556	0.189	0.008
-301.793	410.546	0.191	0.400
-300.778	-101.503	0.276	0.066
-299.764	-200.000	0.029	0.190
-298.749	-148.842	0.194	0.015
-297.735	-95.843	-0.257	0.068
-296.720	-200.000	-0.044	0.243
-295.705	-200.000	-0.031	0.204
-294.691	36.164	-0.037	0.032
-293.676	-200.000	0.029	0.295
-292.662	-200.000	-0.026	0.169
-291.647	236.117	0.104	-0.169
-290.632	-50.374	0.310	0.144
-289.618	184.538	-0.026	0.038
-288.603	-38.179	-0.163	0.085
-287.589	191.363	-0.056	0.083
-286.574	-200.000	0.021	0.165
-285.559	-200.000	-0.016	-0.307
-284.545	-138.332	-0.198	-0.022
-283.530	97.485	-0.079	0.089
-282.516	-42.237	0.197	-0.099
-281.501	-59.655	0.224	-0.095
-280.486	800.000	0.084	0.309
-279.472	-34.140	-0.081	-0.044
-278.457	-200.000	0.029	-0.151
-277.443	-14.188	0.381	0.242
-276.428	74.050	0.139	-0.143
-275.413	800.000	0.051	-0.186
-274.399	54.629	0.174	0.165
-273.384	12.552	-0.154	0.117
-272.370	738.151	0.108	0.284
-271.355	29.859	-0.343	-0.288
-270.340	-200.000	-0.509	0.001
-269.326	-200.000	0.316	0.001
-268.311	-87.674	0.130	0.039
-267.297	-8.359	0.383	0.254
-266.282	34.446	0.143	0.123
-265.267	-60.502	0.146	-0.061
-264.253	-96.063	0.088	0.023
-263.238	-200.000	0.022	-0.175
-262.224	191.827	0.047	-0.069
-261.209	-11.448	0.078	-0.050
-260.195	207.522	-0.065	-0.100
-259.180	85.249	-0.035	0.038
-258.165	-200.000	-0.021	0.123
-257.151	238.555	0.041	0.066
-256.136	250.776	0.247	0.413
-255.122	-99.804	-0.221	-0.054
-254.107	800.000	0.162	0.451
-253.092	535.251	0.151	0.352
-252.078	-200.000	-0.037	0.174
-251.063	388.713	-0.027	0.055
-250.049	264.450	0.104	-0.178
-249.034	248.116	0.124	-0.207
-248.019	-34.014	-0.182	-0.099
-247.005	-143.907	0.136	-0.013
-245.990	38.797	0.114	0.101
-244.976	684.011	-0.068	-0.175
-243.961	74.417	-0.146	0.151
-242.946	800.000	-0.125	0.409
-241.932	-200.000	-0.007	-0.038
-240.917	46.716	0.057	-0.053
-239.903	18.794	-0.174	0.137
-238.888	-61.762	0.109	0.045
-237.873	-127.889	-0.140	0.020
-236.859	-122.183	-0.038	-0.006
-235.844	-200.000	-0.003	0.067
-234.830	-55.462	-0.287	-0.127
-233.815	-200.000	-0.035	-0.193
-232.800	123.458	-0.131	-0.161
-231.786	252.291	0.016	0.027
-230.771	800.000	-0.080	-0.253
-229.757	-200.000	-0.027	-0.269
-228.742	-79.557	0.193	-0.064
-227.727	100.647	-0.195	0.223
-226.713	488.891	0.080	0.180
-225.698	2.702	-0.045	0.032
-224.684	-29.607	-0.426	0.239
-223.669	-142.033	0.084	0.008
-222.655	398.159	-0.145	-0.299
-221.640	565.678	-0.046	-0.110
-220.625	0.702	-0.018	-0.012
-219.611	-191.151	-0.223	0.002
-218.596	13.091	0.128	-0.097
-217.582	692.117	-0.075	-0.192
-216.567	144.400	0.178	0.234
-215.552	101.897	-0.105	-0.121
-214.538	-107.482	0.444	-0.096
-213.523	59.044	-0.133	-0.129
-212.509	-9.889	-0.124	0.081
-211.494	7.222	-0.062	-0.045
-210.479	800.000	-0.045	-0.190
-209.465	-159.024	0.345	-0.019
-208.450	-200.000	-0.007	-0.088
-207.436	-41.395	0.105	-0.053
-206.421	800.000	0.046	0.152
-205.406	-78.915	0.193	0.065
-204.392	-200.000	-0.013	0.098
-203.377	79.311	0.035	0.037
-202.363	-200.000	0.018	0.384
-201.348	95.100	0.095	-0.106
-200.333	-200.000	-0.077	-0.351
-199.319	-34.851	-0.175	-0.094
-198.304	753.855	-0.101	0.268
-197.290	-187.598	-0.156	-0.002
-196.275	104.433	-0.129	0.149
-195.260	-19.013	0.473	0.289
-194.246	18.006	-0.118	-0.093
-193.231	-200.000	0.069	-0.387
-192.217	-80.803	-0.072	-0.024
-191.202	151.233	-0.262	-0.350
-190.187	-200.000	0.049	0.223
-189.173	-18.917	-0.164	-0.100
-188.158	-92.767	0.322	0.089
-187.144	69.194	-0.037	-0.037
-186.129	-118.579	0.072	-0.012
-185.114	49.790	0.106	-0.098
-184.100	-200.000	-0.017	-0.231
-183.085	-118.274	-0.156	0.027
-182.071	-2.481	-0.227	0.156
-181.056	355.711	0.077	-0.151
-180.042	-51.930	-0.346	0.158
-179.027	-53.780	-0.211	-0.094
-178.012	26.824	0.065	-0.054
-176.998	-12.663	-0.223	-0.143
-175.983	-24.812	0.253	0.147
-174.969	49.490	0.181	-0.167
-173.954	800.000	0.070	-0.234
-172.939	360.411	0.116	0.227
-171.925	800.000	-0.085	0.231
-170.910	-45.497	-0.080	-0.039
-169.896	34.755	0.063	0.054
-168.881	-29.001	-0.076	0.043
-167.866	714.399	-0.049	0.128
-166.852	-100.786	0.296	-0.072
-165.837	-74.644	0.418	-0.147
-164.823	-51.170	0.126	-0.058
-163.808	-200.000	-0.054	0.452
-162.793	-84.687	-0.124	0.038
-161.779	-200.000	0.094	-0.420
-160.764	-123.446	-0.058	0.009
-159.750	-35.127	-0.405	-0.216
-158.735	641.059	-0.068	-0.169
-157.720	320.660	-0.111	-0.208
-156.706	-38.251	0.336	-0.175
-155.691	800.000	0.056	-0.223
-154.677	188.824	-0.203	-0.298
-153.662	610.943	0.127	0.311
-152.647	-174.550	0.348	-0.010
-151.633	-109.800	-0.267	0.055
-150.618	800.000	0.026	0.083
-149.604	-200.000	-0.014	-0.093
-148.589	-200.000	0.001	0.063
-147.574	-200.000	0.045	-0.312
-146.560	162.124	-0.069	0.095
-145.545	16.348	0.230	-0.178
-144.531	740.237	0.075	-0.198
-143.516	-200.000	0.026	-0.167
-142.502	-68.190	-0.158	-0.060
-141.487	800.000	0.123	0.337
-140.472	-149.828	-0.174	0.013
-139.458	24.033	-0.183	-0.148
-138.443	-200.000	0.008	-0.196
-137.429	464.136	-0.081	-0.178
-136.414	-156.732	-0.356	0.022
-135.399	-200.000	0.018	0.186
-134.385	238.178	-0.197	0.320
-133.370	117.918	-0.111	0.134
-132.356	-67.383	0.105	0.041
-131.341	800.000	0.101	0.319
-130.326	155.831	0.119	0.160
-129.312	-168.379	-0.316	-0.012
-128.297	-117.887	0.081	-0.014
-127.283	-200.000	-0.068	0.339
-126.268	-110.203	-0.279	0.057
-125.253	733.539	0.070	-0.184
-124.239	-200.000	-0.041	-0.215
-123.224	747.600	-0.103	-0.272
-122.210	-200.000	0.027	0.206
-121.195	-200.000	0.001	-0.295
-120.180	-117.109	0.039	-0.007
-119.166	-200.000	0.010	0.112
-118.151	-200.000	-0.021	-0.144
-117.137	162.938	0.136	0.187
-116.122	35.203	-0.176	0.151
-115.107	-20.944	0.120	0.072
-114.093	-46.459	0.335	0.161
-113.078	-200.000	0.005	-0.112
-112.064	-136.016	-0.158	-0.018
-111.049	-22.997	0.255	0.151
-110.034	-26.378	-0.130	-0.075
-109.020	-149.974	0.237	-0.018
-108.005	101.675	-0.227	0.259
-106.991	-200.000	-0.073	0.379
-105.976	620.554	-0.005	0.013
-104.962	-69.686	-0.041	0.015
-103.947	-196.398	0.251	0.002
-102.932	800.000	0.105	-0.338
-101.918	800.000	0.070	-0.269
-100.903	350.885	0.176	0.341
-99.889	-130.063	0.099	0.013
-98.874	164.990	-0.106	-0.146
-97.859	211.610	0.154	-0.237
-96.845	-159.868	0.415	-0.022
-95.830	-121.133	0.237	-0.039
-94.816	11.243	0.316	0.237
-93.801	-76.129	-0.427	0.147
-92.786	289.841	-0.056	0.100
-91.772	800.000	0.044	-0.129
-90.757	-71.293	-0.244	-0.089
-89.743	458.323	0.123	-0.267
-88.728	-200.000	-0.014	0.077
-87.713	-136.419	0.104	-0.012
-86.699	277.578	0.092	0.160
-85.684	-55.690	-0.196	-0.086
-84.670	535.298	0.097	0.225
-83.655	-200.000	-0.022	0.242
-82.640	45.491	0.285	-0.257
-81.626	49.098	-0.083	-0.076
-80.611	-200.000	0.004	-0.318
-79.597	800.000	-0.068	-0.233
-78.582	-63.943	-0.175	-0.070
-77.567	-55.950	-0.246	-0.107
-76.553	-99.275	-0.132	-0.033
-75.538	390.014	0.091	0.185
-74.524	-200.000	0.014	0.358
-73.509	-3.754	-0.054	-0.037
-72.494	-32.410	-0.384	0.210
-71.480	10.961	0.296	-0.221
-70.465	142.470	-0.067	-0.086
-69.451	393.099	-0.027	-0.055
-68.436	800.000	0.024	-0.076
-67.422	-181.818	-0.465	-0.009
-66.407	-200.000	0.008	0.048
-65.392	103.773	-0.007	-0.009
-64.378	553.343	-0.103	0.242
-63.363	11.710	-0.319	0.239
-62.349	-155.940	-0.306	-0.019
-61.334	60.526	-1.191	-1.153
-60.319	114.658	0.653	0.778
-59.305	225.437	-0.682	-1.080
-58.290	194.881	0.849	1.258
-57.276	478.354	0.641	1.417
-56.261	-200.000	126.793	629.040
-55.246	360.832	1623.699	3177.797
-54.232	132.560	2805.637	3534.906
-53.217	82.954	2369.417	2517.540
-52.203	28.654	2105.705	1741.135
-51.188	23.656	2020.830	1625.266
-50.173	22.679	2004.105	1602.873
-49.159	40.594	2077.875	1828.849
-48.144	38.487	2091.031	1820.780
-47.130	24.235	2042.835	1648.050
-46.115	22.156	2030.792	1619.145
-45.100	22.027	2028.323	1615.920
-44.086	21.959	2026.123	1613.482
-43.071	21.966	2023.830	1611.653
-42.057	21.926	2021.164	1609.102
-41.042	21.976	2018.737	1607.560
-40.027	22.028	2016.680	1606.338
-39.013	21.996	2015.674	1605.176
-37.998	21.984	2013.351	1603.157
-36.984	22.000	2012.401	1602.478
-35.969	21.952	2010.163	1600.200
-34.954	21.973	2008.946	1599.355
-33.940	22.005	2007.140	1598.142
-32.925	22.090	2005.582	1597.612
-31.911	22.028	2004.074	1595.786
-30.896	22.000	2002.253	1594.015
-29.881	22.090	2000.368	1593.273
-28.867	22.177	1998.495	1592.504
-27.852	22.074	1997.641	1590.833
-26.838	22.162	1994.913	1589.386
-25.823	22.120	1993.120	1587.518
-24.809	22.065	1992.222	1586.246
-23.794	22.088	1990.057	1584.660
-22.779	22.147	1988.507	1583.896
-21.765	22.058	1986.850	1581.716
-20.750	22.042	1985.573	1580.494
-19.736	22.061	1983.778	1579.172
-18.721	22.148	1982.174	1578.610
-17.706	22.205	1980.141	1577.444
-16.692	22.020	1979.146	1574.930
-15.677	22.046	1977.433	1573.732
-14.663	22.059	1975.660	1572.377
-13.648	22.060	1975.237	1571.985
-12.633	22.080	1973.314	1570.576
-11.619	22.090	1972.377	1569.854
-10.604	22.030	1970.918	1568.095
-9.590	22.047	1969.007	1566.665
-8.575	22.073	1968.112	1566.121
-7.560	22.164	1966.405	1565.508
-6.546	22.119	1964.574	1563.595
-5.531	22.093	1963.889	1562.752
-4.517	22.116	1962.673	1561.932
-3.502	22.028	1961.388	1560.065
-2.487	22.044	1960.294	1559.270
-1.473	22.188	1958.634	1559.168
-0.458	22.157	1954.472	1555.522
0.556	21.108	1934.413	1530.845
1.571	17.506	1916.962	1485.531
2.586	14.095	1942.800	1475.212
3.600	13.357	1979.443	1496.226
4.615	13.125	1971.884	1488.294
5.629	10.220	1869.232	1385.846
6.644	4.129	1755.816	1252.519
7.659	0.929	1723.640	1204.039
8.673	0.638	1721.182	1199.899
9.688	0.694	1719.543	1199.103
10.702	0.595	1718.425	1197.427
11.717	0.483	1714.422	1193.648
12.731	0.860	1712.773	1195.373
13.746	5.362	1721.980	1237.385
14.761	12.134	1735.283	1300.704
15.775	16.169	1742.786	1338.281
16.790	16.975	1743.822	1345.355
17.804	16.146	1740.664	1336.238
18.819	15.186	1737.572	1326.150
19.834	14.689	1734.458	1319.728
20.848	14.381	1732.894	1315.989
21.863	14.166	1732.009	1313.503
22.877	13.857	1730.425	1309.750
23.892	13.652	1728.901	1306.859
24.907	13.501	1727.634	1304.596
25.921	13.452	1726.859	1303.510
26.936	13.509	1725.460	1302.793
27.950	13.544	1724.239	1302.030
28.965	13.642	1723.563	1302.168
29.980	13.561	1723.653	1301.490
30.994	13.619	1722.148	1300.693
32.009	13.735	1720.952	1300.582
33.023	13.757	1720.076	1299.974
34.038	13.807	1719.134	1299.544
35.053	13.822	1718.289	1298.909
36.067	13.666	1717.400	1296.902
37.082	13.752	1715.803	1296.247
38.096	13.739	1715.203	1295.583
39.111	13.719	1714.481	1294.765
40.126	13.759	1713.346	1294.107
41.140	13.701	1712.825	1293.147
42.155	13.713	1710.462	1291.339
43.169	13.552	1709.818	1289.482
44.184	13.601	1708.335	1288.635
45.199	13.633	1707.322	1288.003
46.213	13.586	1706.438	1286.857
47.228	13.580	1704.590	1285.308
48.242	13.572	1703.788	1284.528
49.257	13.675	1702.206	1284.013
50.271	13.584	1701.346	1282.549
51.286	13.698	1700.175	1282.434
52.301	13.727	1698.400	1281.208
53.315	13.645	1697.475	1279.759
54.330	13.670	1695.563	1278.402
55.344	13.651	1694.274	1277.171
56.359	13.562	1693.006	1275.417
57.374	13.494	1691.969	1273.994
58.388	13.601	1690.467	1273.578
59.403	13.575	1688.953	1272.120
60.417	13.539	1687.223	1270.428
61.432	13.525	1686.414	1269.599
62.447	13.626	1685.145	1269.309
63.461	13.500	1684.078	1267.428
64.476	13.448	1682.798	1265.957
65.490	13.469	1681.676	1265.161
66.505	13.471	1680.531	1264.201
67.520	13.395	1679.927	1263.058
68.534	13.474	1678.625	1262.568
69.549	13.479	1677.751	1261.835
70.563	13.567	1675.752	1260.890
71.578	13.519	1674.799	1259.696
72.593	13.565	1673.948	1259.293
73.607	13.477	1672.896	1257.726
74.622	13.450	1671.895	1256.655
75.636	13.495	1670.651	1255.949
76.651	13.402	1670.040	1254.676
77.666	13.432	1668.331	1253.509
78.680	13.422	1667.279	1252.531
79.695	13.471	1666.447	1252.167
80.709	13.456	1665.596	1251.305
81.724	13.482	1664.432	1250.516
82.739	13.449	1664.356	1250.094
83.753	13.636	1662.320	1249.865
84.768	13.611	1661.493	1248.941
85.782	13.580	1661.097	1248.299
86.797	13.705	1659.839	1248.191
87.812	13.752	1658.923	1247.741
88.826	13.631	1657.565	1245.703
89.841	13.557	1656.267	1244.057
90.855	13.551	1655.566	1243.377
91.870	13.586	1654.161	1242.473
92.884	13.620	1653.354	1242.015
93.899	13.777	1652.025	1242.082
94.914	13.736	1650.847	1240.780
95.928	13.657	1650.043	1239.476
96.943	13.780	1647.820	1238.613
97.957	13.709	1646.938	1237.308
98.972	13.676	1645.428	1235.817
99.987	13.706	1643.630	1234.587
101.001	13.669	1642.028	1232.998
102.016	13.684	1640.311	1231.712
103.030	13.632	1639.329	1230.480
104.045	13.655	1638.224	1229.706
105.060	13.695	1636.204	1228.378
106.074	13.576	1635.459	1226.833
107.089	13.566	1633.201	1224.958
108.103	13.544	1631.672	1223.537
109.118	13.524	1630.842	1222.658
110.133	13.512	1629.359	1221.348
111.147	13.532	1628.010	1220.377
112.162	13.493	1626.362	1218.749
113.176	13.566	1624.893	1218.081
114.191	13.576	1623.292	1216.842
115.206	13.686	1622.008	1216.581
116.220	13.634	1620.593	1215.031
117.235	13.688	1619.009	1214.127
118.249	13.664	1617.766	1212.913
119.264	13.650	1616.828	1212.002
120.279	13.523	1615.668	1210.100
121.293	13.619	1613.764	1209.263
122.308	13.532	1612.662	1207.700
123.322	13.554	1610.706	1206.284
124.337	13.621	1608.734	1205.189
125.352	13.548	1607.960	1203.971
126.366	13.599	1607.090	1203.584
127.381	13.490	1605.931	1201.823
128.395	13.582	1604.831	1201.558
129.410	13.609	1602.923	1200.218
130.424	13.510	1601.916	1198.642
131.439	13.530	1600.694	1197.766
132.454	13.581	1599.167	1196.887
133.468	13.682	1597.578	1196.321
134.483	13.644	1596.052	1194.799
135.497	13.606	1595.021	1193.648
136.512	13.600	1593.756	1192.548
137.527	13.688	1592.118	1191.850
138.541	13.668	1590.445	1190.352
139.556	13.691	1589.234	1189.502
140.570	13.630	1588.588	1188.475
141.585	13.696	1586.868	1187.561
142.600	13.782	1585.656	1187.157
143.614	13.820	1583.946	1186.049
144.629	13.820	1582.887	1185.148
145.643	13.898	1580.941	1184.147
146.658	13.861	1579.976	1183.055
147.673	13.865	1578.762	1182.068
148.687	13.861	1576.907	1180.545
149.702	13.877	1575.225	1179.299
150.716	13.752	1574.145	1177.496
151.731	13.892	1572.524	1177.172
152.746	13.833	1571.101	1175.584
153.760	13.803	1569.881	1174.355
154.775	13.900	1568.341	1173.783
155.789	13.813	1567.313	1172.300
156.804	13.869	1566.364	1171.880
157.819	13.897	1564.942	1170.910
158.833	13.934	1563.391	1169.906
159.848	13.939	1562.224	1168.964
160.862	13.980	1560.806	1168.089
161.877	14.024	1559.701	1167.464
162.892	14.072	1558.100	1166.503
163.906	13.933	1557.403	1164.902
164.921	13.920	1555.775	1163.492
165.935	13.937	1554.696	1162.702
166.950	13.911	1554.020	1161.910
167.964	13.966	1552.241	1160.861
168.979	13.935	1551.396	1159.912
169.994	14.060	1550.276	1159.838
171.008	14.056	1549.432	1159.080
172.023	14.078	1548.329	1158.308
173.037	14.070	1546.687	1156.917
174.052	14.105	1545.785	1156.382
175.067	14.204	1544.420	1155.948
176.081	14.116	1543.228	1154.346
177.096	14.053	1542.552	1153.297
178.110	14.125	1540.961	1152.508
179.125	14.054	1539.925	1151.135
180.140	14.085	1538.981	1150.544
181.154	14.067	1537.770	1149.415
182.169	14.124	1536.411	1148.687
183.183	14.207	1535.144	1148.211
184.198	14.187	1533.669	1146.870
185.213	14.314	1533.077	1147.200
186.227	14.186	1532.293	1145.629
187.242	14.272	1531.301	1145.379
188.256	14.286	1529.924	1144.343
189.271	14.269	1528.953	1143.400
190.286	14.348	1527.612	1142.838
191.300	14.270	1527.012	1141.752
192.315	14.166	1525.956	1140.151
193.329	14.156	1524.221	1138.686
194.344	14.153	1523.477	1138.009
195.359	14.183	1522.236	1137.185
196.373	14.215	1521.237	1136.555
197.388	14.246	1520.084	1135.808
198.402	14.326	1519.122	1135.532
199.417	14.265	1518.368	1134.452
200.432	14.362	1517.249	1134.176
201.446	14.359	1515.791	1132.970
202.461	14.525	1514.925	1133.345
203.475	14.442	1513.895	1131.912
204.490	14.510	1512.561	1131.274
205.504	14.504	1511.605	1130.420
206.519	14.506	1510.300	1129.361
207.534	14.537	1508.669	1128.248
208.548	14.491	1508.011	1127.344
209.563	14.406	1506.995	1125.915
210.577	14.437	1505.950	1125.244
211.592	14.529	1504.750	1124.866
212.607	14.566	1503.719	1124.246
213.621	14.670	1503.361	1124.580
214.636	14.666	1502.336	1123.688
215.650	14.553	1501.339	1122.077
216.665	14.641	1500.247	1121.753
217.680	14.719	1499.616	1121.710
218.694	14.661	1498.693	1120.529
219.709	14.620	1498.419	1119.952
220.723	14.701	1497.093	1119.403
221.738	14.681	1495.691	1118.120
222.753	14.693	1495.214	1117.744
223.767	14.701	1494.240	1116.975
224.782	14.728	1492.732	1115.926
225.796	14.755	1491.869	1115.367
226.811	14.825	1491.146	1115.192
227.826	14.807	1490.542	1114.523
228.840	14.755	1489.602	1113.371
229.855	14.700	1488.772	1112.286
230.869	14.828	1487.399	1112.012
231.884	14.798	1486.250	1110.859
232.899	14.805	1485.148	1109.986
233.913	14.787	1484.332	1109.154
234.928	14.773	1482.970	1107.946
235.942	14.826	1481.764	1107.296
236.957	14.759	1480.601	1105.889
237.972	14.775	1479.436	1105.026
238.986	14.824	1477.777	1104.013
240.001	14.888	1476.927	1103.702
241.015	14.797	1475.893	1102.229
242.030	14.848	1475.016	1101.815
243.045	14.983	1473.576	1101.531
244.059	14.921	1473.073	1100.651
245.074	14.973	1471.873	1099.999
246.088	14.892	1471.450	1099.053
247.103	15.028	1470.129	1098.862
248.117	15.085	1469.533	1098.692
249.132	15.109	1468.619	1098.073
250.147	15.092	1467.917	1097.335
251.161	15.122	1467.481	1097.107
252.176	15.186	1466.859	1096.966
253.190	15.245	1465.776	1096.447
254.205	15.257	1464.858	1095.740
255.220	15.273	1464.361	1095.378
256.234	15.238	1463.574	1094.465
257.249	15.264	1462.755	1093.923
258.263	15.270	1461.576	1092.984
259.278	15.317	1460.500	1092.386
260.293	15.263	1459.910	1091.498
261.307	15.339	1458.862	1091.113
262.322	15.435	1457.797	1090.845
263.336	15.449	1457.110	1090.321
264.351	15.425	1456.017	1089.257
265.366	15.468	1454.646	1088.414
266.380	15.476	1453.421	1087.448
267.395	15.460	1453.091	1087.002
268.409	15.530	1452.604	1086.992
269.424	15.540	1451.182	1085.897
270.439	15.490	1449.989	1084.590
271.453	15.555	1449.235	1084.350
272.468	15.458	1448.672	1083.202
273.482	15.521	1447.276	1082.472
274.497	15.498	1446.633	1081.748
275.512	15.503	1446.156	1081.326
276.526	15.448	1445.605	1080.465
277.541	15.613	1443.892	1080.148
278.555	15.600	1443.309	1079.535
279.570	15.649	1442.138	1078.879
280.585	15.634	1441.264	1078.031
281.599	15.663	1440.774	1077.755
282.614	15.680	1439.389	1076.733
283.628	15.746	1438.264	1076.219
284.643	15.612	1437.543	1074.727
285.657	15.738	1435.796	1074.131
286.672	15.642	1435.456	1073.170
287.687	15.772	1433.968	1072.786
288.701	15.761	1433.159	1072.021
289.716	15.721	1432.264	1071.002
290.730	15.736	1431.530	1070.453
291.745	15.785	1430.589	1069.962
292.760	15.748	1429.438	1068.774
293.774	15.827	1428.564	1068.528
294.789	15.814	1427.578	1067.617
295.803	15.862	1426.840	1067.274
296.818	15.971	1425.431	1066.811
297.833	15.837	1424.993	1065.542
298.847	15.881	1423.911	1064.918
299.862	15.927	1422.450	1064.020
300.876	15.987	1421.330	1063.471
301.891	15.888	1420.787	1062.344
302.906	15.966	1419.983	1062.139
303.920	16.035	1419.224	1061.911
304.935	16.033	1418.340	1061.147
305.949	16.024	1417.715	1060.529
306.964	16.027	1417.169	1060.043
307.979	16.107	1415.987	1059.566
308.993	16.079	1414.677	1058.320
310.008	16.067	1413.973	1057.625
311.022	16.239	1412.337	1057.386
312.037	16.125	1412.142	1056.429
313.052	16.179	1411.045	1055.854
314.066	16.214	1409.999	1055.195
315.081	16.193	1408.580	1053.909
316.095	16.132	1407.917	1052.943
317.110	16.102	1406.756	1051.794
318.125	16.196	1405.623	1051.440
319.139	16.101	1405.029	1050.307
320.154	16.149	1403.637	1049.475
321.168	16.103	1402.718	1048.405
322.183	16.204	1401.610	1048.113
323.197	16.255	1400.377	1047.417
324.212	16.195	1399.834	1046.542
325.227	16.245	1398.797	1045.989
326.241	16.316	1397.994	1045.731
327.256	16.262	1397.094	1044.636
328.270	16.274	1396.365	1044.072
329.285	16.354	1395.885	1044.113
330.300	16.320	1394.431	1042.721
331.314	16.262	1393.913	1041.883
332.329	16.332	1393.092	1041.614
333.343	16.247	1392.221	1040.346
334.358	16.334	1390.894	1039.795
335.373	16.360	1390.213	1039.354
336.387	16.439	1389.225	1039.008
337.402	16.482	1388.205	1038.419
338.416	16.404	1387.776	1037.530
339.431	16.462	1387.012	1037.221
340.446	16.534	1386.257	1037.005
341.460	16.569	1385.433	1036.512
342.475	16.470	1384.694	1035.264
343.489	16.497	1383.686	1034.580
344.504	16.628	1382.511	1034.414
345.519	16.607	1381.458	1033.405
346.533	16.636	1380.663	1032.894
347.548	16.610	1379.861	1032.046
348.562	16.728	1378.783	1031.865
349.577	16.707	1378.208	1031.219
350.592	16.722	1377.050	1030.354
351.606	16.631	1376.427	1029.240
352.621	16.634	1375.364	1028.371
353.635	16.664	1374.604	1027.895
354.650	16.646	1373.219	1026.657
355.665	16.644	1372.730	1026.188
356.679	16.682	1371.394	1025.333
357.694	16.731	1370.280	1024.706
358.708	16.697	1369.232	1023.622
359.723	16.722	1368.272	1022.966
360.738	16.790	1366.631	1022.058
361.752	16.759	1366.218	1021.473
362.767	16.814	1364.886	1020.720
363.781	16.765	1364.138	1019.773
364.796	16.837	1363.200	1019.413
365.810	16.902	1362.196	1018.967
366.825	16.849	1361.421	1017.980
367.840	16.913	1360.931	1017.908
368.854	16.936	1360.196	1017.401
369.869	16.874	1360.302	1017.020
370.883	17.016	1358.893	1016.729
371.898	17.007	1358.265	1016.114
372.913	17.029	1357.257	1015.401
373.927	16.995	1356.716	1014.704
374.942	17.072	1355.390	1014.082
375.956	17.050	1354.914	1013.503
376.971	17.025	1354.194	1012.726
377.986	17.047	1353.141	1011.982
379.000	17.106	1352.418	1011.701
380.015	17.177	1351.208	1011.129
381.029	17.169	1350.586	1010.529
382.044	17.160	1350.003	1009.949
383.059	17.166	1349.305	1009.376
384.073	17.234	1348.750	1009.271
385.088	17.264	1347.872	1008.704
386.102	17.295	1347.423	1008.461
387.117	17.261	1346.265	1007.305
388.132	17.299	1345.660	1006.991
389.146	17.241	1344.838	1005.941
390.161	17.257	1344.060	1005.363
391.175	17.295	1343.206	1004.860
392.190	17.207	1342.529	1003.750
393.205	17.348	1341.129	1003.443
394.219	17.391	1340.206	1002.918
395.234	17.420	1338.682	1001.856
396.248	17.365	1337.800	1000.784
397.263	17.353	1336.806	999.884
398.278	17.349	1335.409	998.727
399.292	17.390	1333.947	997.789
400.307	17.321	1333.134	996.688
401.321	17.279	1332.283	995.713
402.336	17.385	1330.580	994.975
403.350	17.410	1329.916	994.534
404.365	17.369	1329.304	993.750
405.380	17.386	1328.223	992.953
406.394	17.382	1327.482	992.291
407.409	17.539	1326.180	992.141
408.423	17.371	1326.204	991.097
409.438	17.617	1324.613	991.250
410.453	17.656	1323.749	990.743
411.467	17.601	1323.723	990.313
412.482	17.506	1323.413	989.441
413.496	17.697	1322.122	989.500
414.511	17.746	1321.628	989.324
415.526	17.813	1320.767	988.980
416.540	17.761	1320.087	988.084
417.555	17.761	1319.299	987.408
418.569	17.777	1319.007	987.192
419.584	17.800	1318.373	986.768
420.599	17.914	1317.440	986.636
421.613	100.433	1363.374	1487.813
422.628	99.112	1370.011	1487.896
