DTS Sentinel unit serial number:	SN413079Multiplexer serial number:	ORYXHardware model number:	OX4-SRSoftware version number:	ORYX F/W v4.00 Oryx Data Collector v3.7.2.0data status	okinstallation	princeton_trtdifferential loss correction	single-endedforward channel	channel 4reverse channel	N/Adate	2019/09/14time	13:13:34forward acquisition time	60.00reverse acquisition time	0.00gamma	496.2192k internal	0.2292k external	0.2292temperature offset calibration	1.0155default loss term (dB/km)	0.3790temperature slope calibration	1.0000multiplexer offset coefficient	1.0000multiplexer slope coefficient	1.0000fibre end	0.00T internal ref (°C)	37.98T ext. ref 1 (°C)	4.90T ext. ref 2 (°C)	34.08length (m)	temperature (°C)	Stokes	anti-Stokes-747.200	277.280	-0.051	-0.092
-746.185	-149.231	-0.099	0.008
-745.171	86.358	0.345	-0.390
-744.156	-130.664	-0.196	-0.027
-743.142	-155.455	0.293	0.019
-742.127	223.000	0.193	0.319
-741.112	-75.255	0.285	-0.104
-740.098	-152.916	-0.325	0.024
-739.083	210.037	0.153	-0.245
-738.069	-200.000	0.059	0.316
-737.054	136.924	-0.059	0.078
-736.039	-10.676	-0.194	-0.132
-735.025	-89.446	0.235	-0.071
-734.010	-45.463	-0.479	-0.243
-732.996	-118.581	-0.234	-0.042
-731.981	-200.000	-0.033	-0.196
-730.966	53.769	-0.091	0.089
-729.952	-13.089	0.181	0.120
-728.937	128.628	-0.122	-0.159
-727.923	-137.242	-0.164	-0.019
-726.908	8.851	-0.108	-0.083
-725.894	599.911	0.015	-0.038
-724.879	178.846	-0.147	-0.220
-723.864	-200.000	-0.048	0.261
-722.850	302.554	0.134	-0.253
-721.835	-200.000	0.010	-0.214
-720.821	14.315	0.287	-0.229
-719.806	127.990	-0.048	-0.063
-718.791	650.678	-0.121	-0.317
-717.777	44.142	0.350	-0.328
-716.762	519.821	-0.089	-0.214
-715.748	-174.156	0.047	-0.001
-714.733	31.960	-0.128	-0.113
-713.718	38.125	-0.224	-0.204
-712.704	118.083	-0.198	-0.250
-711.689	342.164	-0.120	0.240
-710.675	-200.000	0.021	0.174
-709.660	60.920	0.086	-0.088
-708.645	-200.000	0.063	-0.288
-707.631	210.845	-0.129	-0.207
-706.616	-96.957	-0.400	-0.107
-705.602	-120.178	-0.201	0.035
-704.587	-157.606	-0.255	0.016
-703.572	729.785	-0.029	-0.078
-702.558	-19.930	0.233	0.147
-701.543	-200.000	0.001	-0.103
-700.529	89.342	0.138	-0.157
-699.514	-148.631	-0.037	0.003
-698.499	98.211	0.240	0.283
-697.485	-200.000	0.013	0.405
-696.470	-71.308	-0.135	-0.052
-695.456	-60.544	0.147	-0.064
-694.441	-3.606	0.125	0.088
-693.426	13.099	-0.082	0.065
-692.412	-200.000	-0.039	0.404
-691.397	50.562	0.061	-0.059
-690.383	-180.084	0.172	-0.004
-689.368	248.389	-0.087	-0.151
-688.354	-101.249	0.489	0.122
-687.339	64.638	-0.132	0.136
-686.324	-200.000	0.007	0.089
-685.310	-200.000	-0.019	0.273
-684.295	241.186	-0.135	-0.230
-683.281	77.824	0.217	0.236
-682.266	416.150	-0.081	-0.176
-681.251	-151.637	-0.087	-0.007
-680.237	84.413	0.101	0.113
-679.222	-169.267	-0.100	0.004
-678.208	800.000	-0.040	0.122
-677.193	485.844	-0.052	0.120
-676.178	800.000	0.062	-0.228
-675.164	800.000	0.127	-0.376
-674.149	-88.623	-0.323	-0.098
-673.135	-199.797	0.157	-0.001
-672.120	65.826	0.174	-0.180
-671.105	-18.730	0.112	-0.071
-670.091	800.000	-0.065	-0.268
-669.076	305.867	-0.127	-0.241
-668.062	633.976	-0.071	0.183
-667.047	195.117	0.168	0.260
-666.032	-102.991	0.202	-0.049
-665.018	-68.974	0.261	-0.103
-664.003	-136.424	0.131	0.016
-662.989	-134.810	0.285	0.035
-661.974	-151.758	-0.332	-0.025
-660.959	236.165	0.103	0.174
-659.945	-200.000	-0.044	-0.247
-658.930	40.933	-0.259	0.239
-657.916	355.871	0.035	-0.070
-656.901	-200.000	0.025	0.337
-655.886	-65.819	0.303	0.124
-654.872	404.692	0.124	-0.266
-653.857	157.570	-0.189	0.267
-652.843	-85.692	0.263	0.083
-651.828	-27.195	-0.536	-0.319
-650.814	3.294	-0.360	-0.267
-649.799	100.806	0.176	-0.209
-648.784	-121.041	-0.355	0.061
-647.770	150.502	0.039	-0.054
-646.755	-200.000	0.007	0.172
-645.741	86.126	0.184	-0.207
-644.726	14.218	-0.150	-0.119
-643.711	-39.847	0.106	-0.057
-642.697	-67.854	-0.307	-0.122
-641.682	305.461	-0.129	-0.244
-640.668	-200.000	0.063	-0.285
-639.653	800.000	0.050	-0.151
-638.638	-200.000	-0.035	0.201
-637.624	-8.199	-0.410	-0.281
-636.609	4.600	0.234	-0.175
-635.595	-12.170	0.155	-0.103
-634.580	-131.498	0.270	-0.036
-633.565	-200.000	-0.012	-0.123
-632.551	-132.275	-0.360	0.048
-631.536	-22.389	-0.068	0.042
-630.522	-1.819	0.142	-0.102
-629.507	300.466	-0.058	-0.109
-628.492	-156.625	-0.177	-0.011
-627.478	800.000	-0.074	-0.216
-626.463	-200.000	0.006	0.226
-625.449	-200.000	0.024	-0.225
-624.434	-200.000	-0.061	-0.365
-623.419	-48.651	-0.472	-0.231
-622.405	-139.596	0.264	-0.029
-621.390	115.541	-0.258	-0.321
-620.376	-200.000	0.017	-0.191
-619.361	374.666	-0.077	-0.160
-618.346	793.839	-0.038	0.108
-617.332	-200.000	0.031	-0.228
-616.317	62.493	0.188	-0.191
-615.303	-24.452	0.067	0.041
-614.288	-200.000	0.030	-0.213
-613.273	52.162	-0.267	0.259
-612.259	-200.000	-0.042	0.292
-611.244	140.894	0.018	-0.024
-610.230	297.905	-0.104	0.194
-609.215	-16.125	0.101	-0.065
-608.201	800.000	-0.033	-0.101
-607.186	-200.000	-0.062	0.413
-606.171	-63.486	-0.288	-0.120
-605.157	77.279	-0.157	0.170
-604.142	-22.615	0.294	-0.181
-603.128	-200.000	0.010	-0.138
-602.113	299.921	0.150	0.281
-601.098	-144.509	-0.302	-0.028
-600.084	-125.709	-0.271	-0.042
-599.069	-200.000	-0.046	0.249
-598.055	32.032	-0.109	0.096
-597.040	60.578	0.335	0.338
-596.025	33.117	0.192	0.170
-595.011	-111.679	0.071	0.015
-593.996	-111.474	0.499	0.103
-592.982	180.733	0.117	-0.175
-591.967	-98.833	-0.152	-0.039
-590.952	278.565	-0.086	-0.156
-589.938	-9.270	-0.140	-0.095
-588.923	-193.910	-0.103	0.001
-587.909	700.554	-0.044	0.118
-586.894	439.758	-0.034	0.077
-585.879	553.918	-0.122	0.298
-584.865	-115.400	-0.273	0.052
-583.850	197.263	0.211	-0.327
-582.836	800.000	0.063	-0.208
-581.821	-43.196	0.078	0.040
-580.806	-41.075	-0.056	0.030
-579.792	103.013	-0.117	-0.140
-578.777	130.919	-0.239	0.312
-577.763	-88.103	-0.438	-0.133
-576.748	-11.296	-0.283	-0.189
-575.733	-50.809	0.185	0.088
-574.719	800.000	-0.092	0.263
-573.704	65.103	-0.241	0.248
-572.690	-200.000	-0.046	0.261
-571.675	-200.000	-0.009	-0.059
-570.661	-137.303	0.175	-0.020
-569.646	-200.000	0.030	0.334
-568.631	-200.000	-0.033	0.148
-567.617	-200.000	-0.052	0.243
-566.602	-200.000	-0.002	0.127
-565.588	-200.000	-0.005	-0.235
-564.573	800.000	-0.073	0.246
-563.558	127.998	-0.116	0.150
-562.544	-200.000	-0.002	-0.142
-561.529	-200.000	-0.018	-0.168
-560.515	-89.160	0.117	-0.035
-559.500	428.080	0.101	-0.223
-558.485	98.706	0.194	-0.227
-557.471	-85.451	0.203	-0.064
-556.456	-200.000	0.014	0.106
-555.442	-165.883	0.219	-0.010
-554.427	371.063	-0.087	-0.180
-553.412	-35.030	-0.161	-0.089
-552.398	522.754	0.114	-0.271
-551.383	0.047	-0.340	0.246
-550.369	-91.554	-0.352	0.102
-549.354	800.000	-0.110	-0.329
-548.339	-200.000	0.031	-0.247
-547.325	-48.209	0.160	0.079
-546.310	-37.935	0.052	-0.028
-545.296	-200.000	0.007	-0.034
-544.281	39.163	-0.236	0.215
-543.266	800.000	0.033	0.130
-542.252	-142.931	0.060	0.006
-541.237	-163.795	-0.198	0.009
-540.223	-99.594	0.219	-0.056
-539.208	-54.140	-0.104	-0.048
-538.193	-92.714	-0.400	0.114
-537.179	74.716	0.128	-0.137
-536.164	-51.782	-0.299	-0.141
-535.150	800.000	0.086	-0.246
-534.135	-200.000	-0.004	0.328
-533.121	248.162	-0.134	-0.231
-532.106	800.000	0.065	0.190
-531.091	-113.773	-0.432	-0.085
-530.077	-102.821	-0.311	-0.075
-529.062	-139.019	0.200	0.022
-528.048	203.265	0.237	0.372
-527.033	381.957	-0.155	-0.322
-526.018	392.242	0.092	-0.195
-525.004	-200.000	0.016	-0.092
-523.989	-200.000	0.028	-0.262
-522.975	154.611	-0.085	-0.118
-521.960	12.350	0.199	0.156
-520.945	-18.874	-0.314	-0.198
-519.931	-187.427	-0.380	0.005
-518.916	-117.411	0.130	0.024
-517.902	33.051	-0.345	-0.303
-516.887	-20.190	-0.139	0.087
-515.872	365.305	0.069	0.140
-514.858	-70.302	-0.218	0.084
-513.843	-200.000	-0.006	0.029
-512.829	-172.798	-0.204	0.006
-511.814	594.925	0.123	0.309
-510.799	230.899	-0.045	0.074
-509.785	-142.290	-0.112	0.011
-508.770	-126.501	0.418	-0.063
-507.756	433.797	0.134	-0.295
-506.741	-63.493	0.096	0.040
-505.726	-76.614	-0.255	0.091
-504.712	113.574	-0.109	-0.135
-503.697	-46.158	-0.143	-0.071
-502.683	-161.474	0.311	0.016
-501.668	800.000	-0.023	0.081
-500.653	512.861	0.050	0.119
-499.639	-200.000	0.023	-0.282
-498.624	-200.000	0.010	0.158
-497.610	29.305	0.063	-0.055
-496.595	-200.000	-0.016	-0.108
-495.581	-83.311	-0.133	-0.043
-494.566	-200.000	0.048	-0.389
-493.551	290.458	-0.091	0.168
-492.537	70.937	-0.298	-0.313
-491.522	-1.401	0.394	-0.282
-490.508	8.301	-0.316	0.240
-489.493	8.946	-0.017	0.013
-488.478	116.512	-0.212	-0.263
-487.464	154.351	-0.035	0.048
-486.449	-200.000	-0.019	-0.104
-485.435	-200.000	-0.002	-0.014
-484.420	100.645	0.106	-0.125
-483.405	359.381	-0.101	0.204
-482.391	18.319	0.231	-0.187
-481.376	-15.516	-0.345	-0.223
-480.362	51.836	-0.296	0.285
-479.347	768.674	-0.057	-0.156
-478.332	127.085	-0.057	0.073
-477.318	-200.000	-0.022	0.142
-476.303	-33.299	0.229	0.129
-475.289	-50.054	0.232	0.111
-474.274	-200.000	0.004	-0.227
-473.259	-57.881	0.168	-0.075
-472.245	178.082	-0.012	-0.017
-471.230	118.823	-0.122	-0.153
-470.216	66.867	-0.284	0.293
-469.201	-189.400	-0.101	-0.001
-468.186	60.457	0.130	-0.130
-467.172	11.342	0.247	-0.192
-466.157	-111.250	-0.241	0.050
-465.143	84.058	-0.181	-0.200
-464.128	6.625	0.192	-0.145
-463.113	-133.993	0.182	-0.023
-462.099	217.581	0.087	-0.141
-461.084	-176.464	-0.458	0.012
-460.070	24.478	0.234	-0.196
-459.055	143.430	0.168	0.226
-458.040	-200.000	0.021	0.283
-457.026	-56.445	-0.366	0.164
-456.011	-39.331	0.292	0.155
-454.997	-41.294	-0.192	0.100
-453.982	392.981	-0.115	0.242
-452.968	-63.185	-0.170	-0.071
-451.953	-82.457	-0.247	-0.081
-450.938	12.781	0.307	-0.240
-449.924	-169.476	-0.134	0.005
-448.909	-200.000	0.011	-0.226
-447.895	-200.000	-0.060	-0.378
-446.880	136.425	0.206	-0.271
-445.865	7.637	-0.168	0.127
-444.851	-70.027	-0.180	0.069
-443.836	-89.562	0.066	0.020
-442.822	204.320	0.164	-0.256
-441.807	-130.964	-0.434	-0.059
-440.792	-104.696	0.209	-0.049
-439.778	-23.243	-0.071	0.043
-438.763	-116.172	0.417	-0.078
-437.749	-37.400	0.159	-0.086
-436.734	32.689	0.037	-0.032
-435.719	505.589	0.035	-0.082
-434.705	-200.000	0.013	-0.098
-433.690	-139.987	0.255	0.027
-432.676	-79.910	-0.247	-0.084
-431.661	-131.796	0.346	-0.046
-430.646	207.020	0.150	0.237
-429.632	626.472	-0.108	-0.275
-428.617	47.307	-0.294	-0.277
-427.603	-114.647	-0.304	0.059
-426.588	-200.000	0.013	0.074
-425.573	-176.347	-0.144	0.004
-424.559	800.000	-0.124	-0.489
-423.544	-111.880	-0.148	0.030
-422.530	-8.674	-0.143	-0.097
-421.515	-200.000	0.008	-0.076
-420.500	-90.141	0.292	0.086
-419.486	600.379	0.095	0.240
-418.471	-63.490	0.155	0.064
-417.457	134.654	0.137	-0.180
-416.442	285.712	0.052	-0.094
-415.428	35.479	-0.057	-0.050
-414.413	204.134	0.072	0.113
-413.398	624.931	0.003	0.008
-412.384	22.561	-0.096	-0.080
-411.369	-145.037	-0.192	-0.018
-410.355	-200.000	-0.045	-0.356
-409.340	123.427	0.279	0.354
-408.325	-17.682	-0.244	-0.155
-407.311	115.700	0.384	0.475
-406.296	491.869	0.043	0.101
-405.282	334.068	-0.126	-0.245
-404.267	-200.000	0.006	-0.140
-403.252	1.091	0.215	-0.156
-402.238	-73.576	-0.174	0.064
-401.223	-102.377	-0.229	0.055
-400.209	-137.496	-0.257	0.029
-399.194	-200.000	-0.059	-0.288
-398.179	20.876	0.211	0.173
-397.165	28.199	0.072	0.061
-396.150	68.754	0.068	-0.070
-395.136	800.000	0.079	0.283
-394.121	350.767	-0.061	-0.122
-393.106	161.288	-0.064	-0.091
-392.092	62.733	0.282	0.285
-391.077	29.912	0.037	0.032
-390.063	-76.299	-0.212	-0.075
-389.048	-200.000	0.183	0.001
-388.033	-54.812	0.200	-0.091
-387.019	61.652	-0.020	-0.020
-386.004	800.000	0.077	-0.321
-384.990	-2.238	-0.257	-0.182
-383.975	-76.164	-0.153	-0.054
-382.960	91.452	0.157	-0.179
-381.946	-184.434	-0.324	0.005
-380.931	-200.000	0.041	0.192
-379.917	-125.123	0.220	0.034
-378.902	800.000	-0.094	-0.291
-377.888	231.548	-0.062	-0.103
-376.873	-35.954	-0.357	0.195
-375.858	-40.417	-0.150	0.079
-374.844	-139.697	0.201	0.022
-373.829	-133.992	-0.216	0.027
-372.815	-142.471	-0.289	-0.029
-371.800	-61.438	0.394	-0.167
-370.785	145.745	-0.149	0.201
-369.771	-43.128	0.258	-0.132
-368.756	-200.000	0.016	-0.266
-367.742	57.625	-0.239	-0.235
-366.727	-52.295	0.120	0.056
-365.712	-149.488	0.162	-0.013
-364.698	422.813	0.116	0.252
-363.683	-5.433	-0.071	-0.049
-362.669	-200.000	-0.023	-0.226
-361.654	176.522	0.225	-0.330
-360.639	-19.547	-0.092	0.058
-359.625	-89.305	-0.249	-0.074
-358.610	-58.093	0.149	0.065
-357.596	452.159	0.093	0.208
-356.581	800.000	-0.065	-0.214
-355.566	800.000	0.022	0.090
-354.552	-79.941	-0.422	-0.143
-353.537	28.210	0.129	-0.110
-352.523	158.149	0.085	-0.119
-351.508	252.790	0.107	0.183
-350.493	4.990	-0.110	0.081
-349.479	-200.000	-0.038	0.437
-348.464	-109.757	-0.156	-0.033
-347.450	69.195	0.051	0.053
-346.435	49.214	-0.119	-0.113
-345.420	-116.364	0.328	-0.061
-344.406	15.930	0.186	0.147
-343.391	-113.975	-0.321	0.063
-342.377	9.055	0.232	-0.177
-341.362	-200.000	-0.016	0.184
-340.348	-200.000	-0.018	-0.336
-339.333	26.477	0.252	0.212
-338.318	-200.000	-0.019	0.200
-337.304	6.511	0.125	0.093
-336.289	56.598	0.103	-0.101
-335.275	708.676	0.066	-0.176
-334.260	-195.410	-0.269	0.002
-333.245	-16.992	0.175	0.111
-332.231	800.000	-0.041	0.124
-331.216	225.591	0.049	-0.081
-330.202	12.212	0.174	0.135
-329.187	800.000	-0.033	-0.138
-328.172	185.239	0.165	0.246
-327.158	99.068	-0.118	0.138
-326.143	-58.520	0.128	-0.056
-325.129	800.000	-0.046	0.134
-324.114	-200.000	-0.027	-0.281
-323.099	-45.626	0.226	-0.112
-322.085	800.000	0.044	-0.130
-321.070	-180.467	0.185	-0.004
-320.056	389.048	-0.035	-0.072
-319.041	800.000	0.083	0.287
-318.026	800.000	-0.083	0.263
-317.012	179.375	-0.007	-0.011
-315.997	-113.311	-0.150	0.030
-314.983	112.448	-0.157	0.192
-313.968	36.967	-0.038	0.034
-312.953	-12.834	-0.144	0.094
-311.939	-108.107	0.191	0.042
-310.924	-19.029	0.086	0.054
-309.910	-33.306	0.077	0.043
-308.895	-200.000	0.001	0.151
-307.880	-99.495	-0.392	0.099
-306.866	-136.323	-0.183	-0.022
-305.851	-200.000	0.020	0.137
-304.837	132.342	0.030	-0.039
-303.822	-200.000	-0.015	-0.098
-302.807	238.169	0.102	0.170
-301.793	-200.000	0.081	0.382
-300.778	-101.501	0.274	0.067
-299.764	9.294	0.150	0.114
-298.749	-107.410	0.277	-0.061
-297.735	-95.183	0.287	0.078
-296.720	666.450	0.211	-0.548
-295.705	121.925	-0.224	0.281
-294.691	69.045	0.363	0.375
-293.676	285.210	0.177	0.320
-292.662	130.708	0.093	-0.121
-291.647	-120.715	-0.089	-0.015
-290.632	800.000	-0.087	0.260
-289.618	318.846	0.168	0.320
-288.603	-84.983	0.320	0.101
-287.589	-200.000	-0.029	0.166
-286.574	-157.715	0.141	-0.008
-285.559	211.672	0.096	0.152
-284.545	-200.000	-0.022	0.269
-283.530	-150.522	0.089	-0.007
-282.516	-53.319	-0.289	-0.133
-281.501	-200.000	-0.030	0.498
-280.486	219.336	-0.163	0.262
-279.472	65.868	-0.238	0.243
-278.457	23.129	-0.130	0.107
-277.443	569.372	0.061	-0.149
-276.428	-97.888	0.298	-0.077
-275.413	-128.330	0.203	0.029
-274.399	-94.322	0.083	-0.023
-273.384	140.805	0.087	-0.115
-272.370	67.608	0.037	0.037
-271.355	28.192	-0.046	0.039
-270.340	-103.052	-0.148	-0.035
-269.326	516.213	-0.019	-0.045
-268.311	66.296	-0.248	0.253
-267.297	-145.374	0.094	-0.009
-266.282	33.308	0.234	-0.204
-265.267	149.165	0.109	-0.148
-264.253	800.000	0.042	-0.157
-263.238	40.222	-0.205	-0.185
-262.224	-200.000	-0.011	0.421
-261.209	800.000	0.134	-0.407
-260.195	-106.709	-0.389	0.087
-259.180	-30.970	0.290	-0.164
-258.165	-200.000	0.001	0.201
-257.151	-200.000	0.024	0.201
-256.136	-43.665	-0.171	-0.086
-255.122	453.341	0.059	0.131
-254.107	235.197	-0.127	-0.211
-253.092	253.305	-0.036	0.061
-252.078	-17.756	-0.149	0.094
-251.063	-184.527	0.196	0.003
-250.049	425.792	0.080	0.173
-249.034	-74.970	0.405	-0.146
-248.019	381.900	0.050	0.103
-247.005	-200.000	0.006	0.031
-245.990	432.667	-0.138	0.301
-244.976	-167.117	-0.532	-0.022
-243.961	-114.528	0.201	-0.039
-242.946	-121.529	-0.325	0.054
-241.932	61.784	0.131	-0.131
-240.917	321.840	0.099	-0.189
-239.903	-200.000	-0.028	0.221
-238.888	-200.000	0.014	0.413
-237.873	-145.187	0.254	0.023
-236.859	-20.639	0.117	-0.072
-235.844	-200.000	-0.006	-0.027
-234.830	247.811	-0.036	-0.061
-233.815	308.909	0.160	0.301
-232.800	-57.126	-0.107	0.047
-231.786	454.725	-0.036	0.079
-230.771	439.051	0.054	-0.118
-229.757	285.952	-0.080	-0.144
-228.742	-200.000	0.001	-0.074
-227.727	-50.957	0.049	-0.023
-226.713	-200.000	-0.020	-0.180
-225.698	-113.813	0.315	-0.062
-224.684	168.710	0.167	0.239
-223.669	-48.250	0.218	0.106
-222.655	235.172	0.129	-0.213
-221.640	-3.976	-0.178	0.123
-220.625	37.880	-0.134	-0.120
-219.611	34.921	0.196	0.172
-218.596	-103.585	0.149	-0.035
-217.582	-147.831	0.363	-0.030
-216.567	13.720	0.330	-0.257
-215.552	371.139	-0.034	-0.070
-214.538	4.418	0.154	-0.113
-213.523	76.005	-0.182	-0.193
-212.509	-130.609	0.144	0.020
-211.494	-200.000	0.001	-0.253
-210.479	143.335	0.120	-0.160
-209.465	-96.930	0.138	-0.036
-208.450	237.970	0.038	0.063
-207.436	153.262	0.097	-0.133
-206.421	48.953	0.157	0.148
-205.406	800.000	-0.114	0.345
-204.392	76.685	-0.063	-0.066
-203.377	228.630	-0.080	-0.131
-202.363	87.225	0.160	0.177
-201.348	10.109	-0.091	-0.069
-200.333	-24.045	0.399	-0.239
-199.319	-93.185	0.040	-0.011
-198.304	-200.000	0.001	-0.107
-197.290	-59.640	0.099	-0.043
-196.275	257.491	0.189	0.326
-195.260	23.606	-0.070	-0.058
-194.246	65.259	-0.088	0.089
-193.231	800.000	-0.093	0.388
-192.217	-98.075	0.122	0.031
-191.202	-200.000	0.069	0.392
-190.187	800.000	-0.077	0.253
-189.173	-200.000	-0.009	-0.190
-188.158	73.428	0.335	0.351
-187.144	-95.034	0.202	0.055
-186.129	282.696	-0.129	-0.231
-185.114	-57.762	0.286	0.126
-184.100	53.553	-0.285	0.274
-183.085	100.748	0.143	-0.166
-182.071	203.084	0.078	-0.121
-181.056	261.432	-0.156	0.270
-180.042	-200.000	0.034	0.196
-179.027	-16.480	0.094	0.060
-178.012	-200.000	-0.074	-0.327
-176.998	800.000	0.028	0.106
-175.983	-71.437	0.098	0.037
-174.969	404.346	0.052	0.110
-173.954	6.430	-0.059	0.044
-172.939	-31.430	0.142	0.080
-171.925	-194.236	-0.245	-0.002
-170.910	800.000	-0.043	0.125
-169.896	-109.237	0.193	-0.041
-168.881	-138.736	0.164	-0.018
-167.866	-43.648	0.126	0.064
-166.852	13.438	-0.335	-0.260
-165.837	-118.949	-0.182	0.032
-164.823	-151.085	0.376	-0.028
-163.808	800.000	0.069	0.271
-162.793	-82.199	-0.476	0.155
-161.779	-38.744	0.074	-0.039
-160.764	342.827	-0.106	0.207
-159.750	559.731	0.089	0.215
-158.735	-59.098	0.065	-0.028
-157.720	-200.000	-0.064	0.349
-156.706	-71.791	0.207	0.077
-155.691	-122.358	0.102	-0.017
-154.677	441.003	0.102	0.223
-153.662	-159.406	-0.243	0.014
-152.647	-148.798	-0.143	0.012
-151.633	0.412	0.139	0.099
-150.618	-200.000	0.062	0.452
-149.604	800.000	-0.095	-0.279
-148.589	129.963	0.215	0.275
-147.574	276.280	-0.107	0.189
-146.560	-132.601	0.251	0.032
-145.545	-6.150	-0.177	0.121
-144.531	-0.635	0.032	-0.023
-143.516	-44.569	0.101	-0.050
-142.502	142.344	0.204	0.271
-141.487	-75.959	-0.416	-0.147
-140.472	78.606	-0.210	-0.225
-139.458	7.564	0.271	-0.203
-138.443	-104.796	-0.109	-0.025
-137.429	797.630	-0.041	0.113
-136.414	226.282	-0.052	0.084
-135.399	-77.134	0.145	-0.051
-134.385	485.275	0.093	-0.211
-133.370	64.032	-0.018	-0.018
-132.356	-29.182	-0.177	0.102
-131.341	134.941	0.169	-0.219
-130.326	-148.666	-0.131	0.011
-129.312	-200.000	0.104	0.467
-128.297	656.069	-0.094	-0.242
-127.283	-97.321	-0.201	0.052
-126.268	-200.000	-0.031	-0.282
-125.253	256.750	-0.133	-0.228
-124.239	-66.539	-0.147	0.058
-123.224	-200.000	0.000	-0.273
-122.210	800.000	0.139	-0.560
-121.195	433.194	0.059	0.128
-120.180	267.317	-0.085	0.149
-119.166	-15.375	0.214	0.136
-118.151	108.774	-0.133	-0.158
-117.137	77.593	0.024	0.026
-116.122	354.036	0.174	0.345
-115.107	558.515	-0.039	0.095
-114.093	4.100	0.138	0.101
-113.078	25.761	0.138	0.115
-112.064	258.719	-0.298	0.513
-111.049	800.000	-0.032	-0.134
-110.034	-106.103	-0.063	0.014
-109.020	-49.691	0.405	0.192
-108.005	82.506	-0.071	-0.077
-106.991	154.440	0.196	0.269
-105.976	-6.846	0.074	0.050
-104.962	207.133	0.100	-0.155
-103.947	102.842	-0.094	-0.110
-102.932	-200.000	0.057	0.306
-101.918	95.227	-0.312	0.355
-100.903	-26.188	-0.102	0.060
-99.889	-73.309	0.193	0.071
-98.874	31.166	0.120	0.103
-97.859	479.951	0.069	0.157
-96.845	-120.450	-0.124	-0.021
-95.830	-200.000	0.017	-0.192
-94.816	42.679	0.194	-0.177
-93.801	471.097	0.089	-0.199
-92.786	97.422	0.280	0.320
-91.772	-200.000	0.006	-0.032
-90.757	18.907	-0.110	-0.088
-89.743	-110.489	0.120	-0.025
-88.728	800.000	0.081	0.231
-87.713	-59.187	0.324	-0.139
-86.699	-200.000	0.043	0.285
-85.684	389.315	-0.051	-0.105
-84.670	-151.471	-0.253	-0.019
-83.655	19.249	-0.210	-0.168
-82.640	-200.000	-0.015	-0.099
-81.626	37.133	0.296	-0.261
-80.611	-200.000	-0.057	0.344
-79.597	55.617	-0.060	0.058
-78.582	-19.259	-0.189	-0.117
-77.567	-131.238	0.241	-0.032
-76.553	-169.982	-0.256	-0.009
-75.538	178.059	0.079	0.115
-74.524	-93.675	0.084	0.023
-73.509	-139.680	-0.142	0.015
-72.494	-200.000	-0.031	-0.174
-71.480	158.518	-0.010	0.014
-70.465	-98.766	0.194	0.049
-69.451	-161.219	0.063	-0.003
-68.436	-36.340	-0.153	0.082
-67.422	234.767	-0.051	0.084
-66.407	800.000	-0.073	-0.207
-65.392	258.296	-0.019	-0.032
-64.378	-200.000	-0.244	0.000
-63.363	181.169	-0.117	0.171
-62.349	-200.000	-0.024	0.278
-61.334	22.917	-0.991	-0.810
-60.319	-50.630	0.463	0.217
-59.305	385.990	-0.302	-0.621
-58.290	171.111	0.510	0.729
-57.276	767.882	0.586	1.589
-56.261	-200.000	86.057	497.787
-55.246	516.400	1396.281	3251.719
-54.232	178.956	2624.994	3824.091
-53.217	110.043	2392.532	2860.996
-52.203	44.244	2130.437	1947.696
-51.188	39.656	2038.392	1821.229
-50.173	38.171	2018.377	1789.678
-49.159	50.659	2062.915	1945.058
-48.144	53.880	2082.920	1993.714
-47.130	40.655	2043.535	1834.774
-46.115	37.999	2032.470	1800.300
-45.100	38.012	2028.578	1796.897
-44.086	37.918	2026.580	1794.197
-43.071	37.855	2024.543	1791.745
-42.057	37.841	2022.210	1789.474
-41.042	37.888	2020.161	1788.026
-40.027	37.897	2019.028	1787.034
-39.013	37.977	2016.199	1785.192
-37.998	37.999	2014.429	1783.750
-36.984	37.944	2012.912	1781.839
-35.969	37.918	2011.161	1779.980
-34.954	37.900	2009.579	1778.348
-33.940	37.937	2007.470	1776.741
-32.925	37.966	2006.422	1776.013
-31.911	38.026	2004.147	1774.473
-30.896	38.039	2002.285	1772.870
-29.881	37.979	2001.159	1771.260
-28.867	38.089	1999.185	1770.437
-27.852	37.980	1997.331	1767.735
-26.838	38.137	1995.058	1767.075
-25.823	37.986	1994.193	1764.873
-24.809	38.041	1992.066	1763.425
-23.794	38.034	1990.491	1761.892
-22.779	38.012	1987.849	1759.286
-21.765	37.978	1986.740	1757.927
-20.750	37.976	1984.560	1755.912
-19.736	37.980	1983.009	1754.505
-18.721	37.972	1981.812	1753.304
-17.706	37.912	1980.091	1751.175
-16.692	37.898	1978.480	1749.554
-15.677	37.944	1976.730	1748.352
-14.663	38.007	1975.228	1747.515
-13.648	38.035	1974.142	1746.733
-12.633	38.041	1972.351	1745.139
-11.619	37.982	1971.065	1743.402
-10.604	37.954	1969.959	1742.104
-9.590	37.948	1968.695	1740.863
-8.575	38.030	1967.062	1740.078
-7.560	38.056	1965.453	1738.825
-6.546	37.959	1965.138	1737.609
-5.531	38.088	1963.396	1737.147
-4.517	38.014	1962.039	1735.216
-3.502	38.028	1960.624	1734.025
-2.487	37.930	1959.596	1732.178
-1.473	37.946	1958.584	1731.352
-0.458	38.073	1953.766	1728.150
0.556	39.760	1934.034	1701.734
1.571	35.205	1913.700	1644.708
2.586	30.804	1934.957	1624.540
3.600	29.352	1971.874	1642.460
4.615	28.064	1966.187	1626.134
5.629	21.238	1859.850	1480.406
6.644	10.456	1734.158	1294.568
7.659	5.282	1693.735	1223.828
8.673	4.914	1689.896	1218.073
9.688	4.920	1688.538	1217.029
10.702	4.859	1687.132	1215.432
11.717	4.898	1684.301	1213.592
12.731	5.527	1683.966	1218.143
13.746	12.097	1700.574	1281.545
14.761	20.511	1717.844	1360.593
15.775	22.162	1718.617	1374.007
16.790	20.761	1715.244	1360.246
17.804	19.771	1711.653	1349.562
18.819	18.660	1708.365	1338.192
19.834	18.099	1705.677	1331.599
20.848	17.703	1704.422	1327.417
21.863	17.528	1702.656	1324.565
22.877	17.366	1700.940	1321.849
23.892	17.116	1699.586	1318.741
24.907	17.087	1698.873	1317.842
25.921	17.017	1697.964	1316.481
26.936	17.038	1696.608	1315.472
27.950	17.052	1695.797	1314.839
28.965	17.095	1695.071	1314.494
29.980	17.189	1693.998	1314.275
30.994	17.250	1693.425	1314.182
32.009	17.366	1691.952	1313.817
33.023	17.325	1691.851	1313.310
34.038	17.391	1690.899	1312.962
35.053	17.361	1689.365	1311.424
36.067	17.271	1687.813	1309.411
37.082	17.236	1686.586	1308.075
38.096	17.262	1686.169	1307.836
39.111	17.385	1685.167	1307.883
40.126	17.310	1684.565	1306.725
41.140	17.328	1683.438	1305.877
42.155	17.209	1681.843	1303.608
43.169	17.095	1679.670	1300.939
44.184	16.940	1679.031	1299.141
45.199	16.929	1677.761	1297.959
46.213	16.945	1676.648	1297.100
47.228	16.942	1675.877	1296.368
48.242	17.029	1674.672	1295.985
49.257	17.169	1673.717	1296.198
50.271	17.220	1672.257	1295.344
51.286	17.063	1671.502	1293.448
52.301	17.212	1669.638	1293.026
53.315	17.192	1668.325	1291.740
54.330	17.125	1666.699	1289.863
55.344	17.076	1665.073	1288.116
56.359	17.045	1663.322	1286.410
57.374	17.030	1662.301	1285.399
58.388	17.070	1661.108	1284.663
59.403	16.978	1660.317	1283.241
60.417	16.852	1658.910	1281.085
61.432	16.816	1657.841	1279.878
62.447	16.911	1656.492	1279.443
63.461	16.883	1654.786	1277.796
64.476	16.727	1654.234	1276.079
65.490	16.789	1652.585	1275.168
66.505	16.793	1651.354	1274.132
67.520	16.806	1650.668	1273.584
68.534	16.849	1649.225	1272.684
69.549	16.909	1648.349	1272.345
70.563	16.885	1647.149	1271.125
71.578	16.856	1645.629	1269.620
72.593	16.753	1644.794	1268.097
73.607	16.667	1643.840	1266.606
74.622	16.710	1642.418	1265.717
75.636	16.542	1641.829	1263.898
76.651	16.679	1640.743	1263.976
77.666	16.748	1639.894	1263.721
78.680	16.668	1639.803	1262.940
79.695	16.731	1638.219	1262.084
80.709	16.759	1637.656	1261.744
81.724	16.743	1636.816	1260.864
82.739	16.886	1635.906	1261.121
83.753	17.012	1634.667	1260.990
84.768	17.025	1633.987	1260.450
85.782	17.123	1633.528	1260.707
86.797	17.227	1632.703	1260.735
87.812	17.372	1631.559	1260.810
88.826	17.269	1630.023	1258.755
89.841	17.135	1628.977	1256.843
90.855	17.176	1627.990	1256.270
91.870	17.186	1627.374	1255.758
92.884	17.231	1626.149	1255.036
93.899	17.251	1625.201	1254.336
94.914	17.258	1624.147	1253.464
95.928	17.309	1622.920	1252.787
96.943	17.344	1621.162	1251.576
97.957	17.288	1620.173	1250.288
98.972	17.247	1618.805	1248.823
99.987	17.230	1616.969	1247.171
101.001	17.287	1614.898	1245.880
102.016	17.175	1614.098	1244.335
103.030	17.211	1612.667	1243.382
104.045	17.200	1611.497	1242.287
105.060	17.210	1610.066	1241.146
106.074	17.212	1607.961	1239.434
107.089	17.088	1606.666	1237.418
108.103	17.026	1605.141	1235.684
109.118	16.806	1603.676	1232.843
110.133	16.742	1602.605	1231.449
111.147	16.864	1600.926	1230.934
112.162	16.884	1599.603	1229.951
113.176	16.822	1598.716	1228.716
114.191	16.857	1597.152	1227.654
115.206	16.955	1596.284	1227.594
116.220	16.997	1594.970	1226.772
117.235	16.999	1593.296	1225.394
118.249	16.968	1592.378	1224.353
119.264	17.025	1590.678	1223.349
120.279	16.949	1589.516	1221.800
121.293	16.870	1588.163	1220.081
122.308	16.813	1586.966	1218.648
123.322	16.816	1585.233	1217.234
124.337	16.755	1583.612	1215.437
125.352	16.741	1582.387	1214.291
126.366	16.880	1581.252	1214.309
127.381	16.769	1580.213	1212.610
128.395	16.807	1579.579	1212.287
129.410	16.707	1578.182	1210.395
130.424	16.793	1576.850	1209.878
131.439	16.949	1574.943	1209.423
132.454	16.943	1573.866	1208.443
133.468	17.006	1572.264	1207.557
134.483	16.975	1571.580	1206.705
135.497	16.988	1570.464	1205.834
136.512	17.029	1568.918	1204.829
137.527	17.120	1567.217	1204.059
138.541	17.052	1566.174	1202.675
139.556	17.065	1565.127	1201.853
140.570	17.165	1563.798	1201.432
141.585	17.210	1562.241	1200.453
142.600	17.275	1561.021	1199.865
143.614	17.270	1559.850	1198.822
144.629	17.414	1558.574	1198.753
145.643	17.470	1556.813	1197.688
146.658	17.490	1555.716	1196.876
147.673	17.358	1554.292	1194.745
148.687	17.268	1552.505	1192.635
149.702	17.175	1551.652	1191.225
150.716	17.205	1549.846	1189.939
151.731	17.165	1548.380	1188.432
152.746	17.232	1546.497	1187.347
153.760	17.053	1545.797	1185.460
154.775	17.176	1543.880	1184.738
155.789	17.199	1543.201	1184.272
156.804	17.343	1541.719	1184.033
157.819	17.375	1540.618	1183.306
158.833	17.311	1539.595	1181.974
159.848	17.333	1538.378	1181.083
160.862	17.492	1537.215	1181.194
161.877	17.580	1535.947	1180.719
162.892	17.465	1534.418	1178.649
163.906	17.261	1533.370	1176.328
164.921	17.228	1531.654	1174.675
165.935	17.067	1531.242	1173.141
166.950	17.183	1530.149	1173.005
167.964	17.293	1528.895	1172.698
168.979	17.294	1527.771	1171.740
169.994	17.248	1526.894	1170.642
171.008	17.215	1525.853	1169.518
172.023	17.258	1524.398	1168.593
173.037	17.418	1523.629	1168.997
174.052	17.438	1522.315	1168.023
175.067	17.461	1521.534	1167.484
176.081	17.395	1520.237	1165.931
177.096	17.215	1519.147	1163.759
178.110	17.344	1517.380	1163.181
179.125	17.229	1516.081	1161.296
180.140	17.339	1514.979	1161.103
181.154	17.376	1513.737	1160.301
182.169	17.326	1512.930	1159.242
183.183	17.301	1512.013	1158.263
184.198	17.485	1510.599	1158.332
185.213	17.509	1510.298	1158.159
186.227	17.532	1508.606	1156.917
187.242	17.517	1507.942	1156.200
188.256	17.612	1506.967	1155.999
189.271	17.657	1506.046	1155.497
190.286	17.729	1504.704	1154.853
191.300	17.704	1503.885	1153.951
192.315	17.421	1502.386	1150.786
193.329	17.179	1500.872	1147.890
194.344	17.224	1499.091	1146.729
195.359	17.176	1498.655	1145.965
196.373	17.300	1497.444	1145.778
197.388	17.429	1496.884	1146.113
198.402	17.516	1495.386	1145.455
199.417	17.701	1494.599	1145.993
200.432	17.857	1493.415	1146.030
201.446	17.848	1492.898	1145.474
202.461	17.831	1491.929	1144.516
203.475	17.955	1490.540	1144.176
204.490	17.963	1489.455	1143.297
205.504	17.835	1488.407	1141.536
206.519	17.789	1487.252	1140.241
207.534	17.708	1485.980	1138.625
208.548	17.709	1485.170	1137.906
209.563	17.658	1484.096	1136.642
210.577	17.741	1482.703	1136.029
211.592	17.666	1481.935	1134.846
212.607	17.806	1481.252	1135.148
213.621	17.840	1481.005	1135.088
214.636	17.995	1479.760	1135.062
215.650	17.992	1478.365	1133.875
216.665	17.975	1477.618	1133.089
217.680	17.890	1477.224	1132.124
218.694	18.065	1476.042	1132.275
219.709	18.093	1475.401	1131.865
220.723	18.114	1474.284	1131.051
221.738	18.059	1473.638	1130.091
222.753	18.062	1472.827	1129.385
223.767	18.000	1471.477	1127.843
224.782	18.019	1470.762	1127.320
225.796	18.148	1469.206	1126.879
226.811	18.064	1469.062	1126.114
227.826	18.148	1468.436	1126.086
228.840	18.137	1467.011	1124.823
229.855	18.089	1465.872	1123.537
230.869	18.032	1465.135	1122.499
231.884	18.096	1463.978	1121.929
232.899	18.049	1462.303	1120.240
233.913	17.989	1461.658	1119.251
234.928	17.886	1460.650	1117.708
235.942	17.959	1459.205	1116.981
236.957	17.943	1457.461	1115.443
237.972	17.904	1456.825	1114.600
238.986	17.888	1455.447	1113.345
240.001	18.020	1454.722	1113.556
241.015	18.011	1453.628	1112.559
242.030	18.041	1452.457	1111.756
243.045	18.131	1451.351	1111.398
244.059	18.111	1450.924	1110.843
245.074	18.217	1449.910	1110.657
246.088	18.214	1449.110	1109.926
247.103	18.212	1448.553	1109.388
248.117	18.227	1447.828	1108.832
249.132	18.361	1446.589	1108.654
250.147	18.401	1446.061	1108.407
251.161	18.542	1445.902	1109.100
252.176	18.684	1445.119	1109.319
253.190	18.727	1444.505	1109.029
254.205	18.683	1443.900	1108.179
255.220	18.766	1442.689	1107.687
256.234	18.821	1441.496	1107.033
257.249	18.866	1441.194	1106.993
258.263	18.764	1440.575	1105.759
259.278	18.869	1439.241	1105.312
260.293	18.888	1438.173	1104.519
261.307	18.862	1437.189	1103.499
262.322	18.845	1436.740	1102.947
263.336	18.902	1435.913	1102.577
264.351	18.978	1434.791	1102.109
265.366	18.964	1433.812	1101.168
266.380	18.934	1433.015	1100.264
267.395	18.869	1432.549	1099.394
268.409	18.909	1431.337	1098.624
269.424	18.889	1429.999	1097.370
270.439	18.885	1429.372	1096.767
271.453	18.815	1428.419	1095.494
272.468	18.817	1427.306	1094.557
273.482	18.776	1426.554	1093.618
274.497	18.811	1425.461	1092.910
275.512	18.853	1424.679	1092.481
276.526	18.886	1423.731	1091.868
277.541	18.906	1422.548	1090.990
278.555	18.855	1421.812	1090.005
279.570	18.819	1421.184	1089.197
280.585	18.993	1420.051	1089.335
281.599	18.984	1419.511	1088.769
282.614	19.151	1418.146	1088.683
283.628	19.126	1417.164	1087.675
284.643	19.021	1415.885	1085.932
285.657	19.005	1414.750	1084.864
286.672	18.891	1414.331	1083.731
287.687	19.007	1413.678	1083.866
288.701	19.073	1412.154	1083.013
289.716	18.973	1411.418	1081.723
290.730	19.035	1410.502	1081.317
291.745	19.132	1409.158	1080.798
292.760	19.035	1408.757	1079.790
293.774	19.115	1407.553	1079.272
294.789	19.167	1406.305	1078.545
295.803	19.161	1406.315	1078.418
296.818	19.271	1405.121	1078.097
297.833	19.142	1404.395	1076.639
298.847	19.106	1403.213	1075.412
299.862	19.073	1402.176	1074.314
300.876	19.152	1400.803	1073.663
301.891	19.152	1400.449	1073.293
302.906	19.252	1399.379	1073.002
303.920	19.328	1398.915	1073.026
304.935	19.280	1398.180	1072.069
305.949	19.404	1396.911	1071.772
306.964	19.377	1397.064	1071.627
307.979	19.595	1395.628	1071.784
308.993	19.398	1394.676	1069.735
310.008	19.403	1393.877	1069.057
311.022	19.413	1392.763	1068.169
312.037	19.537	1391.704	1068.028
313.052	19.464	1390.706	1066.720
314.066	19.542	1389.457	1066.146
315.081	19.349	1388.881	1064.422
316.095	19.286	1387.371	1062.779
317.110	19.272	1386.278	1061.766
318.125	19.337	1385.297	1061.317
319.139	19.260	1384.794	1060.367
320.154	19.280	1383.654	1059.520
321.168	19.322	1382.487	1058.790
322.183	19.363	1381.213	1057.976
323.197	19.274	1380.838	1057.047
324.212	19.284	1380.124	1056.471
325.227	19.364	1379.089	1056.072
326.241	19.445	1377.968	1055.618
327.256	19.444	1377.061	1054.823
328.270	19.408	1376.335	1053.950
329.285	19.406	1375.147	1052.934
330.300	19.295	1374.784	1051.887
331.314	19.408	1373.642	1051.613
332.329	19.448	1372.523	1050.903
333.343	19.346	1371.807	1049.643
334.358	19.365	1370.849	1048.933
335.373	19.517	1370.260	1049.311
336.387	19.585	1369.460	1049.021
337.402	19.687	1368.682	1048.949
338.416	19.645	1368.282	1048.293
339.431	19.744	1367.200	1047.974
340.446	19.743	1366.890	1047.637
341.460	19.826	1365.612	1047.067
342.475	19.813	1365.033	1046.454
343.489	19.914	1364.259	1046.379
344.504	19.896	1363.308	1045.446
345.519	19.971	1362.015	1044.817
346.533	20.105	1360.845	1044.633
347.548	20.106	1360.126	1043.998
348.562	20.041	1359.520	1043.048
349.577	20.121	1358.837	1042.909
350.592	20.045	1357.661	1041.462
351.606	19.979	1356.848	1040.349
352.621	19.833	1356.010	1038.739
353.635	19.753	1354.857	1037.282
354.650	19.796	1353.463	1036.381
355.665	19.796	1352.789	1035.773
356.679	19.962	1351.715	1035.853
357.694	19.886	1350.866	1034.657
358.708	19.914	1349.780	1033.901
359.723	19.966	1348.621	1033.229
360.738	20.149	1347.198	1033.137
361.752	19.975	1346.366	1031.372
362.767	19.983	1345.779	1030.881
363.781	20.028	1344.724	1030.248
364.796	20.071	1343.853	1029.747
365.810	20.020	1343.280	1028.911
366.825	20.156	1342.983	1029.403
367.840	20.297	1341.832	1029.263
368.854	20.230	1341.319	1028.382
369.869	20.449	1340.373	1028.866
370.883	20.408	1339.889	1028.156
371.898	20.320	1339.261	1027.067
372.913	20.297	1338.402	1026.177
373.927	20.329	1337.226	1025.374
374.942	20.341	1336.422	1024.741
375.956	20.271	1335.808	1023.765
376.971	20.393	1335.346	1024.041
377.986	20.371	1334.392	1023.089
379.000	20.354	1333.175	1021.967
380.015	20.330	1332.653	1021.329
381.029	20.430	1332.131	1021.431
382.044	20.484	1331.583	1021.235
383.059	20.587	1330.184	1020.680
384.073	20.687	1329.516	1020.662
385.088	20.542	1328.992	1019.320
386.102	20.615	1328.424	1019.219
387.117	20.629	1327.705	1018.663
388.132	20.543	1326.903	1017.451
389.146	20.365	1325.839	1015.507
390.161	20.540	1324.491	1015.407
391.175	20.472	1324.273	1014.752
392.190	20.424	1323.322	1013.651
393.205	20.513	1322.240	1013.250
394.219	20.620	1321.649	1013.333
395.234	20.648	1320.311	1012.381
396.248	20.612	1319.035	1011.103
397.263	20.537	1317.716	1009.570
398.278	20.585	1316.259	1008.642
399.292	20.519	1315.154	1007.322
400.307	20.498	1313.846	1006.109
401.321	20.294	1313.030	1004.218
402.336	20.430	1311.975	1004.109
403.350	20.493	1310.498	1003.248
404.365	20.468	1309.655	1002.370
405.380	20.369	1309.421	1001.533
406.394	20.537	1308.105	1001.409
407.409	20.477	1307.894	1000.808
408.423	20.545	1307.568	1000.866
409.438	20.786	1306.387	1001.259
410.453	20.728	1305.786	1000.374
411.467	20.845	1305.066	1000.407
412.482	20.953	1304.693	1000.650
413.496	20.886	1303.909	999.578
414.511	20.987	1302.937	999.324
415.526	20.923	1302.459	998.499
416.540	21.155	1301.256	998.821
417.555	21.063	1300.901	997.931
418.569	21.148	1300.108	997.724
419.584	21.030	1299.661	996.617
420.599	21.028	1299.395	996.310
421.613	139.152	1429.287	1776.704
422.628	134.758	1448.185	1776.848
