DTS Sentinel unit serial number:	SN413079Multiplexer serial number:	ORYXHardware model number:	OX4-SRSoftware version number:	ORYX F/W v4.00 Oryx Data Collector v3.7.2.0data status	okinstallation	princeton_trtdifferential loss correction	single-endedforward channel	channel 4reverse channel	N/Adate	2019/09/13time	13:21:34forward acquisition time	60.00reverse acquisition time	0.00gamma	496.2192k internal	0.2296k external	0.2296temperature offset calibration	1.0208default loss term (dB/km)	0.3790temperature slope calibration	1.0000multiplexer offset coefficient	1.0000multiplexer slope coefficient	1.0000fibre end	0.00T internal ref (°C)	34.98T ext. ref 1 (°C)	4.57T ext. ref 2 (°C)	31.30length (m)	temperature (°C)	Stokes	anti-Stokes-747.200	-45.038	0.334	0.170
-746.185	-160.193	-0.226	0.013
-745.171	-27.085	-0.216	-0.129
-744.156	269.125	0.168	0.302
-743.142	-24.509	-0.320	0.195
-742.127	-118.735	-0.359	-0.065
-741.112	-200.000	-0.064	-0.321
-740.098	800.000	0.145	0.518
-739.083	800.000	0.096	0.295
-738.069	800.000	-0.050	0.170
-737.054	7.666	-0.080	-0.061
-736.039	-143.422	-0.512	-0.050
-735.025	800.000	0.054	0.209
-734.010	-86.784	-0.357	-0.111
-732.996	-182.442	-0.141	0.003
-731.981	252.330	0.103	0.179
-730.966	126.012	-0.212	0.273
-729.952	212.333	-0.222	-0.357
-728.937	-91.570	-0.134	-0.039
-727.923	163.222	-0.109	0.157
-726.908	800.000	-0.100	0.446
-725.894	364.106	-0.136	-0.279
-724.879	-140.993	-0.284	0.030
-723.864	-20.945	0.201	-0.125
-722.850	34.231	-0.117	0.104
-721.835	800.000	-0.103	0.334
-720.821	419.104	0.067	-0.146
-719.806	-11.889	-0.212	-0.142
-718.791	-17.201	-0.286	0.184
-717.777	-95.689	-0.207	0.057
-716.762	800.000	-0.094	0.376
-715.748	487.561	0.047	0.109
-714.733	-34.460	-0.206	-0.115
-713.718	-61.331	-0.304	-0.131
-712.704	486.585	0.134	0.311
-711.689	583.015	0.038	0.094
-710.675	-200.000	0.023	-0.201
-709.660	-170.944	-0.088	0.003
-708.645	232.313	0.072	-0.121
-707.631	235.968	-0.071	-0.120
-706.616	334.966	-0.142	-0.281
-705.602	-168.523	-0.105	0.004
-704.587	800.000	0.081	-0.339
-703.572	-200.000	0.025	-0.114
-702.558	-191.222	0.381	0.004
-701.543	234.593	0.167	0.280
-700.529	509.646	-0.044	-0.105
-699.514	267.844	-0.120	-0.215
-698.499	-139.248	-0.207	-0.023
-697.485	-45.818	0.324	-0.163
-696.470	-68.141	-0.240	-0.095
-695.456	-200.000	0.076	0.359
-694.441	-38.728	0.149	0.080
-693.426	800.000	0.063	-0.232
-692.412	-200.000	0.017	0.186
-691.397	-23.164	0.135	0.083
-690.383	276.965	0.119	0.215
-689.368	-200.000	-0.040	-0.392
-688.354	-200.000	0.043	-0.309
-687.339	7.885	-0.159	-0.121
-686.324	143.387	-0.057	-0.078
-685.310	800.000	-0.083	0.308
-684.295	-79.272	-0.216	0.075
-683.281	-10.226	-0.137	0.092
-682.266	-200.000	-0.101	-0.525
-681.251	800.000	0.041	-0.168
-680.237	-164.507	0.304	-0.014
-679.222	97.303	-0.098	-0.115
-678.208	-200.000	0.023	0.133
-677.193	-150.282	0.007	0.001
-676.178	-8.238	0.157	-0.108
-675.164	-48.334	0.103	0.050
-674.149	-65.619	0.310	0.127
-673.135	-43.476	-0.305	-0.157
-672.120	232.896	-0.094	-0.157
-671.105	296.151	0.067	0.125
-670.091	147.979	-0.155	0.214
-669.076	113.538	0.098	-0.121
-668.062	581.607	0.112	0.280
-667.047	-97.426	0.249	0.066
-666.032	-200.000	-0.052	0.322
-665.018	143.916	-0.072	0.098
-664.003	-200.000	-0.097	-0.482
-662.989	109.218	0.035	0.043
-661.974	265.367	0.251	-0.446
-660.959	800.000	-0.038	-0.122
-659.945	-36.996	-0.221	-0.121
-658.930	-196.180	0.156	-0.001
-657.916	46.701	0.050	0.048
-656.901	-66.735	-0.327	-0.132
-655.886	-1.205	-0.374	-0.269
-654.872	-89.533	0.344	-0.103
-653.857	-72.710	-0.377	-0.141
-652.843	219.420	0.204	0.332
-651.828	168.323	0.109	-0.158
-650.814	14.740	0.213	0.170
-649.799	-200.000	0.001	0.008
-648.784	800.000	-0.079	-0.258
-647.770	-200.000	0.010	0.162
-646.755	657.756	-0.033	0.088
-645.741	-107.891	0.163	0.036
-644.726	-95.227	-0.198	-0.054
-643.711	276.200	0.107	-0.194
-642.697	-200.000	0.050	-0.295
-641.682	-200.000	-0.022	0.120
-640.668	-200.000	-0.012	-0.216
-639.653	103.633	-0.170	0.203
-638.638	76.151	0.095	0.102
-637.624	297.035	0.173	-0.323
-636.609	174.805	-0.097	0.143
-635.595	429.127	0.072	0.159
-634.580	-122.040	-0.155	0.026
-633.565	315.834	-0.067	0.129
-632.551	669.771	-0.049	-0.129
-631.536	-29.079	0.407	-0.237
-630.522	-102.177	-0.212	0.052
-629.507	-113.729	-0.105	-0.021
-628.492	-200.000	0.001	0.020
-627.478	-200.000	0.037	-0.183
-626.463	-13.421	-0.318	0.210
-625.449	800.000	0.081	-0.253
-624.434	800.000	0.041	0.130
-623.419	-61.464	-0.391	-0.167
-622.405	-80.405	-0.269	-0.091
-621.390	71.540	0.039	-0.041
-620.376	-3.620	0.299	-0.212
-619.361	65.893	-0.103	-0.106
-618.346	193.140	-0.110	-0.169
-617.332	800.000	-0.079	-0.256
-616.317	62.927	0.044	0.045
-615.303	800.000	0.125	-0.368
-614.288	10.830	-0.083	0.064
-613.273	800.000	-0.084	0.288
-612.259	88.714	-0.065	0.073
-611.244	-200.000	-0.015	-0.157
-610.230	-28.173	-0.121	0.071
-609.215	444.782	-0.215	-0.480
-608.201	-63.203	-0.119	0.050
-607.186	261.994	0.155	-0.274
-606.171	-111.407	0.425	0.088
-605.157	80.752	-0.440	-0.483
-604.142	-70.856	-0.163	-0.063
-603.128	-29.682	0.164	0.095
-602.113	-126.366	0.161	-0.024
-601.098	14.276	-0.151	-0.119
-600.084	71.314	0.145	0.153
-599.069	-200.000	0.004	0.037
-598.055	91.239	0.062	-0.071
-597.040	-200.000	0.030	-0.144
-596.025	800.000	0.068	0.201
-595.011	144.073	-0.221	0.300
-593.996	-55.148	-0.279	-0.127
-592.982	155.876	0.175	0.245
-591.967	-170.000	0.268	0.010
-590.952	66.144	-0.222	0.228
-589.938	39.426	-0.183	-0.166
-588.923	-200.000	-0.023	0.420
-587.909	198.888	-0.126	-0.196
-586.894	-200.000	0.019	0.290
-585.879	-102.633	0.263	0.064
-584.865	-50.381	-0.269	0.129
-583.850	36.173	0.306	0.274
-582.836	-114.894	0.166	-0.032
-581.821	45.337	-0.290	0.272
-580.806	725.686	-0.032	-0.087
-579.792	-140.909	-0.170	0.018
-578.777	117.266	-0.160	-0.200
-577.763	331.661	0.160	0.314
-576.748	-132.033	-0.164	-0.022
-575.733	-42.986	0.141	-0.072
-574.719	405.989	0.090	-0.193
-573.704	-27.279	-0.062	-0.037
-572.690	31.789	-0.409	0.358
-571.675	-112.210	-0.105	0.021
-570.661	-30.461	-0.233	-0.134
-569.646	-123.853	-0.309	0.049
-568.631	-200.000	0.010	-0.089
-567.617	-127.095	0.189	-0.028
-566.602	-68.886	-0.171	-0.067
-565.588	309.972	-0.162	-0.307
-564.573	569.484	-0.084	0.208
-563.558	-200.000	-0.036	-0.267
-562.544	-200.000	0.030	-0.249
-561.529	2.043	0.294	0.215
-560.515	-200.000	-0.052	-0.276
-559.500	800.000	-0.033	-0.139
-558.485	-85.377	0.204	-0.064
-557.471	-200.000	-0.116	0.000
-556.456	800.000	0.177	0.523
-555.442	78.041	-0.141	-0.152
-554.427	-105.473	-0.226	-0.052
-553.412	221.740	0.252	-0.410
-552.398	-14.721	0.160	-0.104
-551.383	247.003	-0.119	-0.203
-550.369	-93.437	0.242	-0.068
-549.354	-200.000	0.093	-0.414
-548.339	490.647	-0.140	-0.324
-547.325	492.319	-0.054	0.125
-546.310	1.718	-0.327	0.239
-545.296	-200.000	-0.352	-0.001
-544.281	-59.536	-0.132	-0.058
-543.266	97.652	-0.117	-0.137
-542.252	27.604	-0.107	-0.091
-541.237	140.184	0.024	-0.032
-540.223	-200.000	0.005	0.288
-539.208	-200.000	-0.001	-0.192
-538.193	-33.093	0.039	0.022
-537.179	-19.313	-0.060	-0.038
-536.164	-93.188	0.372	0.105
-535.150	286.299	0.131	-0.240
-534.135	62.281	-0.249	0.252
-533.121	115.766	-0.340	0.422
-532.106	-122.275	-0.188	0.031
-531.091	243.471	-0.095	0.161
-530.077	-7.436	0.189	0.130
-529.062	117.667	-0.196	0.245
-528.048	376.514	0.265	0.548
-527.033	-61.647	0.131	-0.056
-526.018	125.980	0.169	0.216
-525.004	-57.455	-0.061	-0.027
-523.989	-33.868	-0.194	-0.108
-522.975	-103.373	0.137	-0.033
-521.960	-44.713	-0.121	0.061
-520.945	-200.000	-0.011	-0.612
-519.931	220.327	0.076	0.123
-518.916	-117.735	-0.106	0.019
-517.902	800.000	-0.034	-0.125
-516.887	-200.000	0.018	-0.238
-515.872	-200.000	0.195	-0.001
-514.858	260.799	0.123	-0.216
-513.843	-160.634	0.398	0.021
-512.829	222.071	-0.179	-0.292
-511.814	18.605	-0.464	0.375
-510.799	177.410	-0.096	0.142
-509.785	-179.742	0.081	0.002
-508.770	-120.608	0.196	-0.034
-507.756	194.694	0.152	0.234
-506.741	-12.164	0.133	0.088
-505.726	-28.810	-0.070	-0.041
-504.712	-15.881	-0.125	-0.081
-503.697	800.000	-0.040	0.155
-502.683	128.812	-0.045	0.058
-501.668	-112.336	-0.154	0.031
-500.653	348.926	-0.039	0.078
-499.639	20.421	-0.053	-0.043
-498.624	6.804	-0.047	0.035
-497.610	800.000	-0.031	-0.090
-496.595	82.848	0.043	-0.047
-495.581	-200.000	-0.018	0.100
-494.566	-24.352	-0.308	0.186
-493.551	-19.141	0.060	0.037
-492.537	800.000	0.089	0.375
-491.522	12.910	-0.152	-0.119
-490.508	445.318	0.075	0.167
-489.493	-31.838	0.126	0.072
-488.478	800.000	-0.054	-0.153
-487.464	-116.117	0.106	0.020
-486.449	-61.158	-0.185	-0.079
-485.435	-74.256	0.235	-0.086
-484.420	95.529	0.189	0.218
-483.405	111.220	-0.061	-0.075
-482.391	-88.346	0.120	0.036
-481.376	192.784	-0.180	0.274
-480.362	-67.981	0.070	0.028
-479.347	249.222	-0.007	0.012
-478.332	10.024	-0.107	0.082
-477.318	-200.000	0.001	-0.031
-476.303	-87.964	0.009	-0.003
-475.289	38.996	-0.061	-0.055
-474.274	-31.001	-0.207	0.118
-473.259	766.250	0.082	-0.225
-472.245	-53.019	-0.281	-0.131
-471.230	191.953	0.046	-0.071
-470.216	-5.170	0.047	0.032
-469.201	62.763	0.184	-0.186
-468.186	-116.410	0.243	-0.045
-467.172	-9.755	0.179	-0.121
-466.157	-200.000	-0.027	0.121
-465.143	22.185	0.156	0.129
-464.128	-200.000	0.024	-0.151
-463.113	86.904	0.252	-0.282
-462.099	71.875	-0.125	0.131
-461.084	-200.000	0.020	0.095
-460.070	-46.423	0.298	0.148
-459.055	-105.524	-0.260	0.060
-458.040	-15.645	-0.184	0.119
-457.026	-81.297	0.153	-0.051
-456.011	-16.327	0.364	-0.233
-454.997	114.310	-0.088	0.108
-453.982	-61.250	0.262	0.112
-452.968	192.688	0.103	0.158
-451.953	-152.795	0.189	-0.014
-450.938	-95.558	-0.289	-0.078
-449.924	86.828	-0.148	-0.165
-448.909	800.000	-0.114	-0.455
-447.895	-116.359	0.470	0.088
-446.880	26.291	0.295	-0.249
-445.865	-200.000	-0.028	-0.210
-444.851	32.335	-0.294	0.256
-443.836	-129.691	-0.242	-0.034
-442.822	-12.970	-0.128	-0.084
-441.807	185.647	-0.079	0.118
-440.792	266.680	-0.013	-0.022
-439.778	262.977	0.102	-0.179
-438.763	88.512	-0.026	0.029
-437.749	217.125	-0.095	-0.152
-436.734	-53.807	0.173	-0.080
-435.719	114.006	-0.118	-0.144
-434.705	-35.494	-0.187	-0.102
-433.690	-200.000	-0.052	0.400
-432.676	121.918	-0.056	0.071
-431.661	50.049	-0.007	-0.007
-430.646	-101.236	0.075	0.019
-429.632	104.872	0.174	0.207
-428.617	-49.298	0.149	0.072
-427.603	-200.000	-0.024	-0.197
-426.588	800.000	0.080	0.243
-425.573	23.167	0.145	-0.120
-424.559	-200.000	-0.027	0.254
-423.544	204.476	-0.124	-0.194
-422.530	-200.000	0.006	-0.089
-421.515	-200.000	0.027	0.179
-420.500	88.623	0.073	-0.082
-419.486	800.000	0.034	0.107
-418.471	-52.432	-0.349	-0.163
-417.457	209.791	-0.042	0.066
-416.442	-80.954	-0.256	0.086
-415.428	-4.376	-0.092	0.064
-414.413	495.993	0.173	0.402
-413.398	-137.978	0.186	-0.021
-412.384	-125.711	0.158	-0.024
-411.369	60.491	-0.250	-0.250
-410.355	-200.000	0.018	-0.335
-409.340	-180.583	0.211	0.004
-408.325	-57.046	-0.212	-0.094
-407.311	-200.000	0.092	0.000
-406.296	163.778	0.062	0.088
-405.282	774.708	0.031	0.086
-404.267	78.515	-0.209	-0.226
-403.252	-1.859	-0.073	0.052
-402.238	-200.000	0.001	-0.387
-401.223	-48.531	-0.126	0.061
-400.209	190.182	0.076	-0.115
-399.194	800.000	-0.034	-0.122
-398.179	268.144	-0.137	0.242
-397.165	-7.640	0.187	0.127
-396.150	-107.161	-0.320	0.071
-395.136	-174.662	0.355	0.010
-394.121	-53.673	-0.087	-0.040
-393.106	120.330	-0.237	0.296
-392.092	-37.897	-0.030	-0.016
-391.077	-170.833	-0.273	0.009
-390.063	-96.586	-0.075	-0.020
-389.048	-16.162	0.163	0.104
-388.033	-200.000	-0.181	-0.000
-387.019	-100.252	0.219	0.055
-386.004	229.357	-0.124	0.204
-384.990	420.688	-0.153	0.330
-383.975	237.062	0.116	0.193
-382.960	-200.000	-0.011	-0.231
-381.946	291.620	0.071	0.130
-380.931	-45.787	-0.341	0.170
-379.917	85.004	0.119	-0.131
-378.902	-73.266	-0.174	-0.064
-377.888	-37.994	-0.253	-0.135
-376.873	52.704	-0.127	0.122
-375.858	-200.000	-0.086	0.385
-374.844	-200.000	-0.009	0.210
-373.829	-52.666	-0.151	-0.070
-372.815	-137.483	-0.332	0.038
-371.800	-200.000	-0.056	-0.304
-370.785	364.453	-0.058	0.118
-369.771	-200.000	-0.028	0.130
-368.756	-1.252	0.069	0.049
-367.742	-200.000	-0.036	-0.344
-366.727	65.367	-0.271	0.276
-365.712	-10.937	0.253	-0.168
-364.698	800.000	0.141	-0.561
-363.683	-200.000	0.002	0.089
-362.669	-200.000	0.027	-0.444
-361.654	800.000	0.087	0.360
-360.639	17.947	-0.139	0.111
-359.625	-200.000	-0.040	-0.350
-358.610	145.662	0.114	0.154
-357.596	800.000	0.051	0.187
-356.581	340.955	0.083	-0.163
-355.566	50.775	0.191	0.182
-354.552	37.545	-0.116	-0.104
-353.537	264.353	-0.071	-0.123
-352.523	-77.908	0.108	0.038
-351.508	800.000	-0.014	0.052
-350.493	67.816	-0.139	0.143
-349.479	26.301	-0.133	-0.111
-348.464	-41.462	-0.207	0.107
-347.450	91.234	-0.056	-0.063
-346.435	60.089	-0.163	-0.163
-345.420	-200.000	-0.002	0.023
-344.406	-200.000	-0.004	0.119
-343.391	-175.760	-0.187	-0.005
-342.377	-200.000	0.048	0.289
-341.362	-48.691	0.261	0.126
-340.348	-111.629	-0.080	0.016
-339.333	-98.576	0.379	-0.097
-338.318	11.138	-0.178	0.137
-337.304	81.289	-0.083	-0.090
-336.289	-200.000	0.039	0.198
-335.275	-58.365	0.305	-0.133
-334.260	-48.679	0.046	-0.022
-333.245	169.662	0.141	0.202
-332.231	-100.223	-0.369	-0.092
-331.216	341.475	-0.047	-0.093
-330.202	78.416	0.343	0.369
-329.187	-80.383	-0.281	-0.094
-328.172	173.268	-0.101	-0.147
-327.158	-19.553	0.346	-0.215
-326.143	294.013	0.141	-0.260
-325.129	431.587	0.040	-0.088
-324.114	318.681	-0.025	-0.047
-323.099	316.561	0.137	0.260
-322.085	560.582	0.115	-0.279
-321.070	-58.223	-0.134	0.059
-320.056	800.000	-0.018	-0.051
-319.041	234.613	-0.046	-0.076
-318.026	-53.303	0.131	-0.061
-317.012	800.000	0.050	-0.187
-315.997	-56.185	-0.282	-0.126
-314.983	42.245	-0.059	0.054
-313.968	201.998	-0.240	-0.372
-312.953	-200.000	-0.005	-0.196
-311.939	325.124	-0.031	0.060
-310.924	-200.000	-0.008	0.071
-309.910	-104.444	0.023	0.005
-308.895	179.531	-0.194	-0.286
-307.880	-200.000	0.053	0.307
-306.866	635.249	0.038	-0.098
-305.851	-200.000	-0.036	-0.161
-304.837	-148.736	0.265	0.022
-303.822	604.880	-0.086	0.214
-302.807	-80.659	-0.126	0.042
-301.793	122.512	0.303	-0.380
-300.778	80.713	-0.198	-0.215
-299.764	800.000	0.101	0.340
-298.749	-106.234	0.248	-0.056
-297.735	12.435	-0.192	-0.148
-296.720	198.104	0.180	-0.277
-295.705	-55.929	-0.354	0.159
-294.691	800.000	0.035	0.126
-293.676	398.778	-0.139	0.291
-292.662	800.000	0.075	-0.238
-291.647	-200.000	-0.011	0.347
-290.632	-16.738	-0.099	-0.063
-289.618	-128.920	-0.231	0.033
-288.603	59.370	0.218	-0.216
-287.589	-161.314	0.380	-0.020
-286.574	81.470	-0.174	0.189
-285.559	49.123	0.226	0.213
-284.545	60.282	-0.073	-0.072
-283.530	217.865	0.151	0.242
-282.516	373.236	0.114	0.232
-281.501	800.000	-0.110	0.334
-280.486	-200.000	-0.002	-0.160
-279.472	-56.593	-0.280	0.125
-278.457	253.383	0.110	-0.188
-277.443	-51.354	0.128	0.060
-276.428	16.212	0.301	-0.238
-275.413	754.796	-0.016	0.042
-274.399	44.296	0.171	0.158
-273.384	-200.000	0.001	-0.188
-272.370	-200.000	-0.042	-0.194
-271.355	267.667	-0.043	0.075
-270.340	-200.000	-0.061	0.407
-269.326	52.569	0.087	0.084
-268.311	-200.000	0.015	0.164
-267.297	-180.204	-0.320	0.007
-266.282	54.710	0.129	0.125
-265.267	489.977	0.081	0.186
-264.253	-2.172	0.247	-0.174
-263.238	19.633	-0.203	-0.164
-262.224	282.357	-0.073	0.131
-261.209	89.315	0.187	-0.209
-260.195	-145.044	-0.080	-0.007
-259.180	31.466	0.204	0.176
-258.165	774.403	0.053	-0.144
-257.151	60.838	0.280	-0.278
-256.136	-169.382	0.186	-0.007
-255.122	-50.812	0.375	-0.177
-254.107	-47.354	-0.161	-0.078
-253.092	-69.860	-0.108	-0.041
-252.078	-200.000	0.049	0.452
-251.063	61.739	-0.223	0.222
-250.049	-125.800	0.393	0.059
-249.034	-30.860	0.382	0.217
-248.019	-200.000	-0.077	0.393
-247.005	154.524	0.027	0.037
-245.990	56.856	0.065	0.063
-244.976	-200.000	-0.002	0.032
-243.961	-60.510	-0.160	-0.068
-242.946	138.102	0.238	-0.313
-241.932	-200.000	-0.032	0.186
-240.917	-122.829	0.200	0.032
-239.903	-140.022	0.198	0.021
-238.888	-200.000	0.019	0.305
-237.873	-200.000	0.001	-0.067
-236.859	-200.000	-0.017	0.103
-235.844	9.146	-0.249	-0.188
-234.830	-200.000	0.063	-0.277
-233.815	-55.330	-0.326	0.146
-232.800	800.000	-0.076	0.266
-231.786	-65.092	-0.096	0.039
-230.771	-200.000	0.029	0.338
-229.757	-200.000	-0.011	-0.135
-228.742	-56.656	0.057	-0.025
-227.727	-54.626	0.200	-0.091
-226.713	38.714	0.368	0.329
-225.698	-31.278	-0.085	0.048
-224.684	-49.633	0.171	0.081
-223.669	-200.000	0.040	0.360
-222.655	-64.467	0.175	-0.071
-221.640	66.525	0.156	-0.158
-220.625	663.115	0.158	-0.407
-219.611	-108.222	0.097	-0.021
-218.596	-200.000	-0.026	-0.240
-217.582	-120.656	0.202	-0.034
-216.567	-92.073	0.303	-0.086
-215.552	160.504	0.157	0.220
-214.538	7.863	-0.139	0.104
-213.523	101.245	-0.191	-0.222
-212.509	120.413	-0.177	-0.220
-211.494	-30.390	-0.066	0.037
-210.479	-200.000	0.061	-0.283
-209.465	-141.847	0.173	0.017
-208.450	183.525	-0.192	-0.284
-207.436	26.707	0.214	0.180
-206.421	-52.672	-0.329	0.152
-205.406	445.381	0.065	0.144
-204.392	-200.000	-0.046	-0.214
-203.377	-63.507	-0.219	0.090
-202.363	-145.877	0.490	-0.043
-201.348	124.838	-0.088	-0.111
-200.333	253.157	-0.107	-0.183
-199.319	183.657	-0.120	0.178
-198.304	227.686	-0.036	0.058
-197.290	-188.436	0.011	0.000
-196.275	-169.421	-0.172	-0.006
-195.260	-200.000	0.018	0.338
-194.246	800.000	-0.050	0.191
-193.231	-146.810	0.364	-0.031
-192.217	-200.000	-0.029	0.230
-191.202	-8.954	0.250	-0.168
-190.187	-78.386	0.072	-0.025
-189.173	800.000	-0.115	-0.366
-188.158	-95.006	0.074	-0.020
-187.144	-113.324	0.115	-0.023
-186.129	52.974	0.177	-0.169
-185.114	800.000	0.005	0.014
-184.100	135.643	-0.207	0.269
-183.085	-3.875	-0.156	-0.108
-182.071	-21.223	0.319	-0.195
-181.056	93.397	0.150	-0.170
-180.042	320.960	0.116	-0.220
-179.027	-123.145	-0.150	-0.024
-178.012	78.610	0.187	-0.199
-176.998	-200.000	-0.006	0.251
-175.983	0.541	0.219	-0.156
-174.969	-200.000	-0.020	0.139
-173.954	800.000	0.082	0.248
-172.939	488.076	-0.057	0.129
-171.925	-85.423	-0.302	0.094
-170.910	800.000	0.038	0.148
-169.896	-139.858	0.474	0.050
-168.881	9.101	0.320	0.241
-167.866	12.818	0.289	0.223
-166.852	75.034	-0.100	-0.105
-165.837	-42.626	0.291	-0.148
-164.823	-79.471	0.079	-0.027
-163.808	800.000	0.059	0.195
-162.793	90.503	-0.188	0.211
-161.779	-25.361	0.161	0.095
-160.764	-31.540	-0.124	-0.070
-159.750	15.974	-0.067	-0.053
-158.735	342.218	-0.068	0.133
-157.720	-200.000	-0.025	-0.347
-156.706	378.460	-0.058	-0.118
-155.691	20.255	-0.119	0.096
-154.677	67.057	-0.138	0.140
-153.662	-27.848	-0.153	0.089
-152.647	-121.509	0.187	0.031
-151.633	800.000	-0.070	-0.268
-150.618	-200.000	0.020	0.140
-149.604	-200.000	-0.025	0.156
-148.589	800.000	0.044	-0.180
-147.574	800.000	0.163	0.512
-146.560	-200.000	0.026	-0.129
-145.545	66.396	0.137	0.139
-144.531	-30.683	0.072	0.041
-143.516	-118.262	-0.246	0.044
-142.502	800.000	0.073	-0.229
-141.487	800.000	-0.050	-0.158
-140.472	-200.000	-0.004	-0.125
-139.458	-200.000	-0.014	-0.289
-138.443	-39.873	-0.051	-0.027
-137.429	800.000	-0.104	-0.314
-136.414	800.000	-0.036	-0.135
-135.399	-130.195	-0.354	0.048
-134.385	-35.465	-0.068	-0.037
-133.370	800.000	0.038	-0.139
-132.356	349.178	0.173	0.341
-131.341	605.812	-0.067	0.166
-130.326	-132.383	-0.188	0.024
-129.312	-79.203	0.185	-0.063
-128.297	274.725	0.220	0.390
-127.283	-200.000	-0.052	0.512
-126.268	-12.749	-0.093	0.061
-125.253	129.929	0.116	-0.147
-124.239	-22.190	0.127	0.077
-123.224	101.431	-0.081	0.095
-122.210	476.433	0.038	-0.086
-121.195	800.000	-0.060	0.165
-120.180	800.000	-0.055	-0.162
-119.166	92.149	-0.033	-0.038
-118.151	-30.789	-0.380	-0.214
-117.137	18.000	-0.063	-0.050
-116.122	-200.000	-0.012	0.264
-115.107	158.387	0.157	-0.217
-114.093	649.422	0.060	-0.153
-113.078	-121.836	-0.101	-0.017
-112.064	425.900	-0.036	-0.077
-111.049	319.976	-0.109	0.207
-110.034	-200.000	0.005	-0.110
-109.020	272.389	-0.164	-0.288
-108.005	536.432	-0.087	0.206
-106.991	32.616	0.096	0.083
-105.976	800.000	0.023	-0.084
-104.962	86.900	-0.075	0.083
-103.947	-115.543	-0.219	0.041
-102.932	-29.911	-0.163	0.092
-101.918	-127.908	-0.047	-0.007
-100.903	-48.741	0.151	0.072
-99.889	-152.189	-0.052	-0.004
-98.874	-173.765	0.232	-0.007
-97.859	800.000	-0.054	0.160
-96.845	61.906	-0.308	-0.306
-95.830	18.803	0.270	-0.215
-94.816	-24.882	-0.171	0.101
-93.801	32.739	0.038	-0.033
-92.786	-131.338	0.196	-0.026
-91.772	-147.496	0.247	0.021
-90.757	-106.579	-0.153	0.034
-89.743	-100.576	0.333	-0.082
-88.728	115.598	-0.058	-0.070
-87.713	-135.480	-0.085	-0.010
-86.699	0.512	0.428	0.305
-85.684	16.864	0.178	0.141
-84.670	800.000	0.041	0.164
-83.655	-190.101	0.068	-0.001
-82.640	32.707	-0.224	-0.193
-81.626	681.970	-0.101	0.263
-80.611	-44.004	0.338	-0.169
-79.597	-82.546	0.303	-0.098
-78.582	800.000	0.071	-0.201
-77.567	46.219	0.251	-0.231
-76.553	-114.062	-0.294	0.057
-75.538	-85.832	0.211	-0.065
-74.524	-53.636	-0.380	0.173
-73.509	154.598	-0.128	0.175
-72.494	-38.860	0.494	-0.259
-71.480	-88.025	-0.284	-0.085
-70.465	800.000	-0.037	-0.145
-69.451	-54.685	0.198	-0.089
-68.436	-110.339	-0.258	-0.053
-67.422	287.041	-0.169	0.304
-66.407	-127.435	0.155	-0.022
-65.392	-200.000	-0.051	-0.367
-64.378	-4.358	-0.194	0.133
-63.363	93.987	0.204	0.230
-62.349	67.071	0.086	-0.087
-61.334	107.109	-0.769	-0.909
-60.319	452.723	0.166	0.364
-59.305	-200.000	-0.078	-0.917
-58.290	180.285	0.568	0.829
-57.276	-200.000	0.306	1.409
-56.261	-200.000	94.674	560.049
-55.246	629.127	1382.508	3476.296
-54.232	182.889	2613.599	3836.698
-53.217	112.979	2353.707	2837.242
-52.203	41.831	2101.290	1894.721
-51.188	36.539	2014.216	1767.891
-50.173	35.031	1995.081	1737.349
-49.159	48.767	2045.314	1907.694
-48.144	51.691	2065.117	1952.994
-47.130	37.428	2023.096	1783.563
-46.115	34.989	2011.246	1750.766
-45.100	34.864	2008.468	1747.133
-44.086	34.922	2005.785	1745.263
-43.071	34.798	2003.247	1741.854
-42.057	34.856	2000.987	1740.345
-41.042	34.898	1999.004	1738.935
-40.027	34.874	1997.158	1737.047
-39.013	34.771	1995.358	1734.479
-37.998	34.891	1993.403	1733.798
-36.984	34.865	1991.126	1731.510
-35.969	34.939	1989.218	1730.450
-34.954	35.064	1987.081	1729.650
-33.940	35.032	1985.542	1727.953
-32.925	35.000	1984.576	1726.758
-31.911	34.946	1982.556	1724.442
-30.896	34.995	1980.564	1723.084
-29.881	35.010	1978.768	1721.588
-28.867	35.050	1977.579	1720.845
-27.852	35.050	1975.892	1719.309
-26.838	34.985	1973.945	1716.963
-25.823	35.006	1972.283	1715.643
-24.809	34.991	1970.756	1714.113
-23.794	34.956	1968.791	1712.016
-22.779	34.942	1967.439	1710.652
-21.765	35.004	1965.061	1709.072
-20.750	35.076	1963.382	1708.184
-19.736	35.034	1962.248	1706.750
-18.721	35.084	1960.685	1705.770
-17.706	34.965	1959.510	1703.619
-16.692	34.962	1956.965	1701.312
-15.677	35.118	1954.560	1700.539
-14.663	34.978	1953.651	1698.441
-13.648	35.052	1952.474	1698.003
-12.633	35.090	1951.324	1697.280
-11.619	35.013	1950.262	1695.605
-10.604	35.005	1948.807	1694.203
-9.590	35.000	1947.007	1692.519
-8.575	34.925	1946.086	1690.995
-7.560	34.942	1944.845	1689.998
-6.546	34.991	1943.396	1689.102
-5.531	34.990	1942.619	1688.357
-4.517	35.037	1940.809	1687.129
-3.502	35.028	1939.691	1686.006
-2.487	35.016	1938.947	1685.186
-1.473	35.095	1937.562	1684.613
-0.458	35.138	1933.281	1681.200
0.556	37.657	1913.475	1653.962
1.571	33.052	1892.494	1596.880
2.586	28.348	1913.011	1573.747
3.600	26.758	1948.739	1589.072
4.615	25.325	1941.578	1570.570
5.629	19.391	1839.238	1438.319
6.644	9.925	1717.990	1269.305
7.659	4.860	1679.748	1201.935
8.673	4.555	1675.823	1196.672
9.688	4.575	1674.271	1195.615
10.702	4.557	1673.678	1194.941
11.717	4.603	1670.214	1192.718
12.731	5.223	1670.715	1197.723
13.746	11.758	1686.041	1259.047
14.761	20.244	1703.813	1337.937
15.775	22.953	1706.947	1361.179
16.790	22.440	1705.023	1355.574
17.804	21.450	1702.241	1345.631
18.819	20.460	1698.867	1335.238
19.834	19.929	1696.648	1329.299
20.848	19.674	1694.926	1325.881
21.863	19.570	1694.283	1324.464
22.877	19.444	1692.404	1321.909
23.892	19.159	1691.372	1318.802
24.907	19.159	1689.960	1317.585
25.921	19.116	1688.926	1316.332
26.936	19.175	1687.580	1315.622
27.950	19.072	1686.950	1314.225
28.965	19.115	1686.641	1314.193
29.980	19.200	1685.575	1313.896
30.994	19.317	1684.944	1314.181
32.009	19.509	1683.557	1314.445
33.023	19.575	1682.649	1314.126
34.038	19.516	1681.908	1312.978
35.053	19.520	1680.644	1311.908
36.067	19.365	1679.484	1309.708
37.082	19.300	1678.099	1308.016
38.096	19.348	1677.314	1307.653
39.111	19.321	1677.037	1307.117
40.126	19.439	1675.684	1306.846
41.140	19.448	1674.986	1306.248
42.155	19.255	1673.007	1303.131
43.169	19.007	1671.011	1299.591
44.184	18.910	1670.014	1297.969
45.199	18.772	1669.365	1296.307
46.213	18.855	1667.962	1295.725
47.228	18.918	1666.745	1295.143
48.242	19.063	1665.946	1295.496
49.257	19.281	1664.865	1296.185
50.271	19.279	1663.751	1295.184
51.286	19.198	1662.656	1293.612
52.301	19.182	1661.532	1292.500
53.315	19.263	1659.712	1291.575
54.330	19.186	1658.282	1289.774
55.344	19.061	1656.040	1286.980
56.359	19.007	1655.013	1285.668
57.374	19.023	1653.980	1284.866
58.388	18.976	1652.996	1283.638
59.403	18.938	1651.419	1282.017
60.417	18.862	1649.937	1280.190
61.432	18.785	1649.348	1279.044
62.447	18.712	1648.168	1277.477
63.461	18.653	1646.963	1275.988
64.476	18.662	1645.660	1274.934
65.490	18.729	1644.126	1274.126
66.505	18.629	1643.560	1272.835
67.520	18.625	1642.074	1271.539
68.534	18.636	1641.391	1270.986
69.549	18.764	1640.109	1270.825
70.563	18.686	1639.232	1269.457
71.578	18.636	1638.319	1268.270
72.593	18.570	1637.261	1266.850
73.607	18.539	1635.617	1265.238
74.622	18.440	1634.861	1263.806
75.636	18.417	1633.965	1262.836
76.651	18.445	1633.002	1262.182
77.666	18.506	1632.522	1262.148
78.680	18.413	1632.095	1261.023
79.695	18.627	1630.679	1261.391
80.709	18.664	1630.487	1261.406
81.724	18.802	1629.616	1261.636
82.739	18.963	1628.530	1261.859
83.753	18.984	1627.281	1260.935
84.768	19.100	1626.258	1260.879
85.782	19.223	1625.919	1261.405
86.797	19.355	1625.608	1262.023
87.812	19.391	1624.842	1261.576
88.826	19.331	1623.494	1259.985
89.841	19.230	1622.658	1258.483
90.855	19.166	1621.964	1257.363
91.870	19.351	1620.078	1257.143
92.884	19.437	1619.686	1257.355
93.899	19.480	1618.227	1256.423
94.914	19.414	1617.636	1255.373
95.928	19.457	1616.277	1254.522
96.943	19.550	1614.540	1253.737
97.957	19.438	1613.491	1251.995
98.972	19.391	1611.559	1250.050
99.987	19.295	1610.600	1248.496
101.001	19.381	1609.023	1247.789
102.016	19.322	1607.313	1245.924
103.030	19.412	1605.612	1245.143
104.045	19.374	1604.809	1244.139
105.060	19.349	1603.432	1242.780
106.074	19.282	1601.892	1240.996
107.089	19.106	1600.285	1238.374
108.103	18.793	1598.503	1234.632
109.118	18.645	1596.737	1232.096
110.133	18.683	1595.243	1231.110
111.147	18.650	1593.841	1229.683
112.162	18.695	1592.539	1228.892
113.176	18.737	1591.182	1228.035
114.191	18.742	1590.024	1227.072
115.206	18.785	1589.197	1226.629
116.220	18.841	1587.648	1225.723
117.235	18.801	1586.343	1224.327
118.249	18.880	1584.574	1223.414
119.264	18.772	1583.889	1222.004
120.279	18.715	1581.988	1220.028
121.293	18.671	1580.673	1218.594
122.308	18.553	1579.337	1216.620
123.322	18.536	1577.739	1215.155
124.337	18.468	1576.096	1213.303
125.352	18.354	1575.050	1211.588
126.366	18.376	1573.908	1210.756
127.381	18.380	1573.163	1210.100
128.395	18.449	1571.800	1209.433
129.410	18.519	1570.237	1208.618
130.424	18.446	1569.123	1207.138
131.439	18.641	1567.370	1207.059
132.454	18.673	1566.558	1206.549
133.468	18.866	1565.011	1206.608
134.483	18.873	1564.056	1205.812
135.497	18.881	1562.217	1204.346
136.512	18.858	1561.191	1203.283
137.527	18.859	1560.068	1202.318
138.541	18.913	1558.564	1201.434
139.556	18.919	1557.226	1200.336
140.570	18.959	1556.455	1199.918
141.585	19.116	1554.882	1199.688
142.600	19.170	1554.236	1199.461
143.614	19.300	1552.984	1199.293
144.629	19.366	1551.863	1198.783
145.643	19.341	1550.959	1197.806
146.658	19.413	1549.368	1196.966
147.673	19.439	1547.915	1195.919
148.687	19.233	1546.207	1193.068
149.702	19.141	1544.827	1191.262
150.716	18.945	1543.260	1188.593
151.731	18.915	1541.886	1187.224
152.746	18.968	1540.471	1186.395
153.760	18.922	1538.743	1184.643
154.775	19.037	1537.642	1184.479
155.789	19.105	1536.745	1184.155
156.804	19.113	1535.960	1183.497
157.819	19.135	1534.859	1182.699
158.833	19.280	1533.402	1182.465
159.848	19.388	1532.319	1182.264
160.862	19.398	1531.690	1181.743
161.877	19.506	1530.162	1181.196
162.892	19.432	1528.613	1179.393
163.906	19.114	1527.192	1176.020
164.921	18.957	1525.825	1173.794
165.935	18.950	1525.151	1173.120
166.950	18.991	1523.711	1172.186
167.964	19.102	1523.107	1172.373
168.979	19.168	1522.101	1171.949
169.994	19.095	1520.910	1170.430
171.008	19.152	1519.266	1169.449
172.023	19.135	1518.702	1168.795
173.037	19.243	1517.093	1168.187
174.052	19.245	1516.830	1167.892
175.067	19.319	1515.895	1167.575
176.081	19.270	1514.365	1165.961
177.096	19.026	1512.913	1163.086
178.110	19.002	1511.384	1161.645
179.125	19.087	1510.014	1161.064
180.140	19.117	1508.941	1160.339
181.154	19.081	1508.576	1159.717
182.169	19.230	1507.259	1159.604
183.183	19.342	1506.326	1159.538
184.198	19.426	1505.800	1159.589
185.213	19.422	1504.813	1158.701
186.227	19.544	1503.222	1158.193
187.242	19.530	1502.286	1157.277
188.256	19.525	1501.567	1156.588
189.271	19.615	1500.419	1156.201
190.286	19.718	1499.726	1156.258
191.300	19.578	1498.589	1154.339
192.315	19.302	1497.142	1151.284
193.329	19.010	1495.404	1147.892
194.344	19.017	1493.847	1146.645
195.359	19.118	1493.396	1146.867
196.373	19.095	1492.444	1145.883
197.388	19.277	1491.225	1146.058
198.402	19.306	1490.425	1145.536
199.417	19.555	1489.240	1146.171
200.432	19.584	1489.241	1146.267
201.446	19.833	1488.151	1146.978
202.461	19.890	1486.837	1146.238
203.475	19.948	1486.159	1146.000
204.490	19.966	1485.718	1145.677
205.504	19.842	1483.919	1143.368
206.519	19.739	1482.206	1141.270
207.534	19.560	1481.539	1139.474
208.548	19.554	1479.978	1138.130
209.563	19.595	1478.925	1137.491
210.577	19.535	1478.002	1136.288
211.592	19.529	1477.303	1135.611
212.607	19.538	1476.913	1135.268
213.621	19.733	1476.389	1136.047
214.636	19.834	1475.627	1136.020
215.650	19.771	1474.507	1134.646
216.665	19.720	1473.315	1133.292
217.680	19.881	1472.472	1133.599
218.694	19.986	1471.950	1133.788
219.709	20.076	1471.217	1133.710
220.723	20.075	1469.963	1132.633
221.738	19.990	1469.567	1131.677
222.753	19.995	1468.382	1130.695
223.767	19.902	1467.497	1129.306
224.782	19.928	1466.374	1128.512
225.796	19.971	1465.146	1127.749
226.811	20.102	1464.449	1127.962
227.826	20.193	1463.999	1128.110
228.840	20.081	1463.038	1126.541
229.855	19.952	1461.706	1124.576
230.869	19.895	1460.533	1123.207
231.884	19.879	1459.286	1122.046
232.899	19.839	1458.556	1121.124
233.913	19.789	1457.266	1119.711
234.928	19.726	1455.986	1118.219
235.942	19.708	1454.481	1116.848
236.957	19.527	1453.574	1114.884
237.972	19.714	1451.923	1114.727
238.986	19.675	1451.000	1113.668
240.001	19.649	1450.260	1112.832
241.015	19.666	1449.233	1112.057
242.030	19.668	1448.072	1111.078
243.045	19.853	1446.868	1111.247
244.059	19.867	1446.685	1111.099
245.074	19.819	1445.795	1110.008
246.088	19.952	1444.856	1110.038
247.103	19.947	1444.331	1109.506
248.117	20.155	1443.171	1109.850
249.132	20.163	1443.030	1109.696
250.147	20.333	1442.442	1110.234
251.161	20.464	1442.160	1110.757
252.176	20.728	1441.352	1111.721
253.190	20.721	1441.196	1111.453
254.205	20.739	1440.231	1110.725
255.220	20.918	1439.162	1110.944
256.234	20.830	1438.861	1110.056
257.249	20.883	1437.810	1109.484
258.263	20.881	1436.844	1108.627
259.278	20.823	1435.715	1107.288
260.293	20.794	1434.370	1105.973
261.307	20.702	1434.192	1105.149
262.322	20.955	1433.424	1106.070
263.336	21.004	1432.541	1105.595
264.351	20.940	1431.644	1104.400
265.366	21.002	1430.959	1104.171
266.380	21.107	1429.762	1103.813
267.395	21.015	1428.767	1102.364
268.409	21.134	1427.788	1102.266
269.424	20.881	1426.827	1099.825
270.439	20.693	1425.715	1097.686
271.453	20.812	1424.267	1097.224
272.468	20.780	1423.699	1096.491
273.482	20.709	1422.629	1095.123
274.497	20.663	1421.591	1093.933
275.512	20.601	1421.396	1093.295
276.526	20.714	1420.173	1092.970
277.541	20.665	1419.183	1091.803
278.555	20.721	1417.907	1091.079
279.570	20.729	1417.575	1090.773
280.585	20.763	1416.729	1090.242
281.599	20.859	1416.324	1090.431
282.614	21.001	1415.310	1090.448
283.628	20.903	1414.155	1088.846
284.643	20.809	1412.762	1087.087
285.657	20.698	1411.448	1085.292
286.672	20.803	1410.292	1084.959
287.687	20.728	1409.796	1084.014
288.701	20.854	1408.414	1083.644
289.716	20.783	1408.121	1082.879
290.730	20.857	1407.121	1082.473
291.745	20.814	1406.085	1081.310
292.760	20.910	1404.978	1080.962
293.774	20.963	1403.998	1080.442
294.789	20.945	1403.375	1079.756
295.803	20.941	1402.953	1079.307
296.818	21.048	1402.261	1079.346
297.833	21.053	1400.831	1078.178
298.847	20.880	1399.935	1076.324
299.862	20.866	1398.675	1075.173
300.876	20.914	1397.901	1074.783
301.891	20.828	1397.262	1073.664
302.906	21.020	1396.291	1074.003
303.920	21.045	1395.561	1073.502
304.935	21.196	1395.520	1074.307
305.949	21.294	1394.099	1073.716
306.964	21.416	1393.460	1073.882
307.979	21.488	1392.651	1073.603
308.993	21.337	1391.451	1071.657
310.008	21.240	1390.348	1070.120
311.022	21.240	1389.751	1069.567
312.037	21.511	1388.101	1069.860
313.052	21.434	1387.586	1068.895
314.066	21.276	1386.663	1067.126
315.081	21.121	1385.433	1065.139
316.095	21.049	1384.168	1063.633
317.110	20.836	1382.910	1061.276
318.125	20.891	1381.990	1060.806
319.139	21.068	1380.371	1060.550
320.154	21.012	1379.931	1059.776
321.168	21.009	1379.278	1059.163
322.183	20.954	1378.233	1057.935
323.197	21.050	1376.996	1057.473
324.212	21.059	1376.071	1056.721
325.227	21.139	1375.881	1056.966
326.241	21.197	1374.629	1056.265
327.256	21.291	1373.822	1056.120
328.270	21.205	1373.069	1054.924
329.285	21.104	1372.086	1053.469
330.300	21.018	1371.408	1052.335
331.314	21.121	1370.156	1051.903
332.329	21.019	1369.350	1050.578
333.343	21.033	1368.597	1049.988
334.358	21.129	1368.077	1050.072
335.373	21.344	1367.038	1050.478
336.387	21.320	1366.399	1049.752
337.402	21.385	1365.499	1049.355
338.416	21.427	1365.209	1049.288
339.431	21.483	1364.299	1048.837
340.446	21.594	1363.737	1048.973
341.460	21.550	1362.702	1047.821
342.475	21.686	1361.895	1047.921
343.489	21.813	1361.047	1047.934
344.504	21.867	1360.088	1047.427
345.519	21.919	1359.103	1046.887
346.533	21.801	1358.774	1045.835
347.548	21.978	1357.445	1045.773
348.562	22.088	1356.958	1045.964
349.577	22.136	1356.079	1045.481
350.592	21.887	1354.942	1043.026
351.606	21.668	1353.846	1040.789
352.621	21.652	1352.420	1039.510
353.635	21.580	1351.303	1038.129
354.650	21.450	1350.595	1036.724
355.665	21.436	1349.585	1035.778
356.679	21.504	1348.676	1035.386
357.694	21.546	1347.459	1034.613
358.708	21.669	1346.691	1034.654
359.723	21.636	1345.863	1033.737
360.738	21.659	1344.911	1033.044
361.752	21.707	1343.593	1032.226
362.767	21.760	1342.576	1031.667
363.781	21.785	1341.662	1031.017
364.796	21.766	1340.859	1030.197
365.810	21.881	1340.059	1030.168
366.825	21.961	1339.730	1030.294
367.840	22.116	1339.248	1030.742
368.854	22.125	1338.973	1030.492
369.869	22.315	1337.814	1030.620
370.883	22.315	1337.402	1030.211
371.898	22.325	1336.568	1029.536
372.913	22.121	1335.630	1027.530
373.927	22.074	1334.868	1026.578
374.942	22.100	1333.905	1025.902
375.956	22.259	1333.255	1026.239
376.971	22.255	1332.468	1025.520
377.986	22.151	1331.674	1024.209
379.000	22.185	1331.028	1023.821
380.015	22.358	1329.735	1023.738
381.029	22.401	1329.509	1023.726
382.044	22.444	1328.918	1023.428
383.059	22.464	1328.168	1022.877
384.073	22.413	1327.616	1022.065
385.088	22.439	1326.613	1021.356
386.102	22.471	1325.953	1020.940
387.117	22.492	1325.046	1020.276
388.132	22.340	1324.421	1018.823
389.146	22.254	1322.983	1017.128
390.161	22.119	1322.210	1015.665
391.175	22.164	1321.371	1015.193
392.190	22.084	1320.463	1013.944
393.205	22.183	1319.696	1013.835
394.219	22.314	1318.936	1013.917
395.234	22.474	1317.602	1013.719
396.248	22.440	1316.271	1012.412
397.263	22.254	1315.113	1010.365
398.278	22.366	1313.475	1009.657
399.292	22.174	1312.239	1007.517
400.307	22.065	1311.446	1006.194
401.321	21.971	1310.330	1004.713
402.336	22.030	1309.250	1004.136
403.350	21.991	1307.741	1002.664
404.365	21.988	1307.200	1002.143
405.380	22.037	1306.559	1001.842
406.394	22.070	1305.682	1001.270
407.409	22.183	1304.977	1001.283
408.423	22.250	1304.640	1001.319
409.438	22.392	1303.622	1001.257
410.453	22.530	1303.135	1001.576
411.467	22.587	1302.213	1001.106
412.482	22.702	1301.977	1001.486
413.496	22.688	1301.453	1000.916
414.511	22.762	1300.950	1000.861
415.526	22.821	1300.237	1000.561
416.540	22.899	1299.301	1000.192
417.555	23.038	1298.718	1000.442
418.569	22.953	1298.272	999.531
419.584	22.911	1297.733	998.789
420.599	22.822	1296.707	997.407
421.613	143.443	1431.496	1788.979
422.628	138.787	1451.108	1789.079
