DTS Sentinel unit serial number:	SN413079Multiplexer serial number:	ORYXHardware model number:	OX4-SRSoftware version number:	ORYX F/W v4.00 Oryx Data Collector v3.7.2.0data status	okinstallation	princeton_trtdifferential loss correction	single-endedforward channel	channel 4reverse channel	N/Adate	2019/09/17time	01:41:35forward acquisition time	60.00reverse acquisition time	0.00gamma	496.2192k internal	0.2313k external	0.2313temperature offset calibration	0.9975default loss term (dB/km)	0.3790temperature slope calibration	1.0000multiplexer offset coefficient	1.0000multiplexer slope coefficient	1.0000fibre end	0.00T internal ref (°C)	29.56T ext. ref 1 (°C)	0.12T ext. ref 2 (°C)	24.54length (m)	temperature (°C)	Stokes	anti-Stokes-747.200	-19.392	-0.278	0.175
-746.185	188.212	-0.049	-0.075
-745.171	-34.428	-0.196	-0.109
-744.156	35.191	0.050	-0.044
-743.142	52.745	0.257	0.249
-742.127	38.541	-0.365	0.330
-741.112	-78.228	0.026	-0.009
-740.098	-117.925	-0.099	-0.018
-739.083	26.666	-0.158	-0.134
-738.069	134.077	0.167	0.220
-737.054	126.751	-0.045	-0.057
-736.039	-22.940	-0.045	0.028
-735.025	52.775	0.181	-0.176
-734.010	32.237	-0.223	-0.195
-732.996	-39.737	-0.294	-0.156
-731.981	-200.000	-0.005	-0.176
-730.966	-81.707	0.131	0.044
-729.952	29.067	-0.084	-0.072
-728.937	-200.000	0.030	-0.168
-727.923	652.222	0.092	-0.238
-726.908	12.621	-0.307	-0.240
-725.894	-0.355	0.234	0.168
-724.879	96.185	-0.132	0.153
-723.864	800.000	0.047	0.158
-722.850	-200.000	0.021	-0.318
-721.835	-200.000	0.010	0.192
-720.821	-200.000	0.005	-0.169
-719.806	8.384	-0.146	-0.111
-718.791	99.541	-0.017	-0.020
-717.777	-183.869	0.369	0.006
-716.762	-148.336	0.377	-0.031
-715.748	-85.446	-0.175	0.055
-714.733	-182.084	-0.071	-0.001
-713.718	32.372	0.430	0.376
-712.704	-9.012	0.146	0.099
-711.689	-70.223	-0.110	0.042
-710.675	26.734	0.067	-0.057
-709.660	-200.000	-0.023	0.201
-708.645	39.050	0.067	-0.060
-707.631	520.734	0.118	-0.280
-706.616	13.880	-0.206	-0.162
-705.602	44.444	0.060	-0.056
-704.587	133.983	-0.126	-0.165
-703.572	378.756	-0.175	0.364
-702.558	33.019	-0.238	-0.209
-701.543	177.895	-0.184	-0.271
-700.529	111.779	-0.060	0.073
-699.514	-58.888	0.156	0.068
-698.499	-24.913	-0.076	0.046
-697.485	54.891	0.163	0.160
-696.470	800.000	-0.050	-0.171
-695.456	-163.351	0.084	-0.004
-694.441	-200.000	0.093	-0.471
-693.426	-110.714	-0.199	-0.042
-692.412	800.000	0.062	-0.253
-691.397	-200.000	0.074	-0.367
-690.383	278.022	0.155	-0.279
-689.368	140.623	-0.308	0.412
-688.354	-34.100	-0.379	-0.211
-687.339	-86.261	0.168	-0.052
-686.324	-3.394	0.185	-0.130
-685.310	-21.382	0.296	-0.183
-684.295	391.421	0.090	-0.190
-683.281	-200.000	-0.015	-0.160
-682.266	-200.000	0.010	-0.304
-681.251	469.094	0.053	-0.119
-680.237	-94.300	0.185	0.051
-679.222	-66.950	-0.433	-0.173
-678.208	304.083	0.232	-0.436
-677.193	751.910	-0.069	-0.188
-676.178	-60.847	-0.153	-0.066
-675.164	-82.057	-0.274	0.090
-674.149	800.000	0.094	0.331
-673.135	800.000	0.057	-0.202
-672.120	708.097	-0.032	-0.087
-671.105	-119.075	0.171	0.030
-670.091	249.642	0.105	0.181
-669.076	-200.000	0.036	-0.261
-668.062	-63.200	0.074	-0.031
-667.047	-200.000	-0.040	-0.306
-666.032	-200.000	0.049	-0.224
-665.018	-24.664	-0.049	0.030
-664.003	143.054	0.113	0.152
-662.989	-3.125	-0.361	0.255
-661.974	78.956	-0.033	-0.036
-660.959	687.596	0.024	0.063
-659.945	164.726	-0.118	-0.169
-658.930	24.992	-0.212	0.178
-657.916	-200.000	-0.017	0.127
-656.901	-126.059	0.280	0.042
-655.886	152.990	0.142	0.197
-654.872	87.109	0.136	0.151
-653.857	800.000	0.087	-0.374
-652.843	29.191	-0.135	0.116
-651.828	-195.677	-0.301	0.002
-650.814	-183.296	0.095	-0.002
-649.799	177.072	0.099	0.146
-648.784	27.512	0.072	0.061
-647.770	43.236	0.207	0.191
-646.755	21.869	0.317	0.261
-645.741	-98.876	0.136	0.035
-644.726	-200.000	0.053	0.357
-643.711	43.153	0.089	0.082
-642.697	183.625	0.110	0.165
-641.682	-96.808	-0.347	-0.092
-640.668	53.058	0.310	0.300
-639.653	-39.635	0.069	-0.036
-638.638	-200.000	0.001	-0.102
-637.624	-200.000	0.044	-0.280
-636.609	177.238	0.118	-0.174
-635.595	-65.321	0.311	-0.126
-634.580	448.735	0.050	-0.110
-633.565	-7.497	0.031	0.021
-632.551	470.038	-0.115	-0.262
-631.536	399.693	-0.094	0.198
-630.522	-66.781	-0.323	0.129
-629.507	59.675	-0.303	-0.302
-628.492	273.307	-0.069	-0.123
-627.478	-34.971	-0.216	0.119
-626.463	-200.000	-0.004	0.154
-625.449	-200.000	-0.064	-0.361
-624.434	201.566	-0.204	-0.317
-623.419	-200.000	-0.028	-0.391
-622.405	800.000	-0.016	-0.046
-621.390	-132.874	-0.194	-0.025
-620.376	-118.645	0.057	-0.010
-619.361	-124.221	-0.222	-0.035
-618.346	-48.704	-0.201	0.098
-617.332	50.860	-0.029	0.028
-616.317	110.710	-0.089	0.108
-615.303	45.092	-0.198	-0.184
-614.288	25.336	-0.193	0.162
-613.273	-68.973	0.149	-0.058
-612.259	-200.000	0.017	-0.172
-611.244	107.370	-0.170	-0.204
-610.230	-200.000	-0.025	-0.314
-609.215	800.000	0.092	0.259
-608.201	-117.047	-0.256	0.047
-607.186	22.196	-0.133	-0.110
-606.171	123.824	0.192	0.244
-605.157	531.958	-0.081	0.194
-604.142	13.163	0.188	-0.147
-603.128	800.000	-0.054	-0.154
-602.113	-200.000	0.043	-0.602
-601.098	485.582	-0.169	0.389
-600.084	44.485	0.091	-0.085
-599.069	-114.178	0.208	-0.041
-598.055	-112.063	0.175	0.036
-597.040	223.491	0.203	0.330
-596.025	-44.057	0.126	-0.064
-595.011	-92.042	0.240	0.068
-593.996	-9.503	-0.174	0.117
-592.982	126.633	0.344	0.439
-591.967	-200.000	0.023	-0.547
-590.952	-200.000	-0.035	0.192
-589.938	-15.898	0.038	-0.024
-588.923	275.273	-0.106	0.190
-587.909	721.909	0.050	-0.134
-586.894	138.470	0.110	0.145
-585.879	526.350	0.168	-0.399
-584.865	73.194	-0.174	-0.183
-583.850	-38.088	0.354	-0.189
-582.836	35.943	-0.053	0.047
-581.821	95.759	-0.199	-0.230
-580.806	82.359	-0.020	-0.022
-579.792	-200.000	0.054	-0.369
-578.777	525.354	-0.025	0.060
-577.763	10.048	0.163	-0.125
-576.748	-200.000	-0.069	0.326
-575.733	800.000	0.067	0.295
-574.719	172.823	0.149	0.216
-573.704	-200.000	0.018	0.108
-572.690	-34.486	-0.121	0.067
-571.675	-4.224	0.298	-0.208
-570.661	101.086	0.085	0.100
-569.646	-71.299	-0.228	0.086
-568.631	-103.094	-0.247	-0.059
-567.617	-200.000	0.042	0.369
-566.602	-100.195	0.211	-0.053
-565.588	-140.489	-0.268	-0.028
-564.573	431.102	-0.065	-0.142
-563.558	-200.000	0.076	0.397
-562.544	-62.677	-0.153	0.064
-561.529	-126.453	0.173	0.026
-560.515	-46.772	-0.438	0.216
-559.500	-131.678	-0.094	0.012
-558.485	262.960	-0.191	-0.334
-557.471	59.133	0.096	0.096
-556.456	584.610	0.041	-0.101
-555.442	-200.000	-0.012	0.317
-554.427	-200.000	-0.014	0.139
-553.412	-97.649	0.152	0.040
-552.398	11.613	0.252	-0.194
-551.383	385.277	0.108	0.225
-550.369	-11.594	0.086	-0.057
-549.354	-124.705	0.159	-0.025
-548.339	73.259	-0.227	0.240
-547.325	-51.806	0.308	0.144
-546.310	-200.000	0.050	-0.350
-545.296	315.776	0.083	-0.158
-544.281	-200.000	-0.021	-0.177
-543.266	-26.334	0.298	0.176
-542.252	19.183	-0.110	-0.089
-541.237	186.912	-0.109	0.163
-540.223	-200.000	0.001	0.304
-539.208	41.178	-0.377	-0.343
-538.193	800.000	0.084	0.276
-537.179	438.689	-0.118	0.258
-536.164	-26.491	0.124	-0.073
-535.150	-19.259	0.168	0.105
-534.135	-46.668	0.091	0.045
-533.121	-46.593	0.111	0.055
-532.106	-110.166	0.344	0.072
-531.091	-200.000	0.031	-0.187
-530.077	447.985	0.130	-0.287
-529.062	-25.777	-0.336	0.199
-528.048	91.582	-0.157	-0.178
-527.033	11.850	-0.298	-0.230
-526.018	160.924	-0.233	0.327
-525.004	800.000	-0.070	0.195
-523.989	-105.171	-0.153	0.035
-522.975	-31.410	0.188	-0.107
-521.960	-97.736	-0.412	-0.107
-520.945	-135.652	0.200	0.024
-519.931	515.507	-0.088	0.206
-518.916	-36.489	-0.254	0.138
-517.902	127.523	0.183	-0.233
-516.887	800.000	-0.085	-0.314
-515.872	-200.000	-0.013	-0.115
-514.858	772.183	0.067	-0.183
-513.843	-49.692	0.198	-0.094
-512.829	-120.525	-0.330	0.056
-511.814	-101.977	-0.347	-0.084
-510.799	-88.841	-0.332	0.099
-509.785	-200.000	0.002	-0.033
-508.770	61.563	-0.174	0.174
-507.756	-6.502	0.166	-0.114
-506.741	-135.049	-0.194	0.024
-505.726	122.274	-0.080	-0.100
-504.712	800.000	-0.110	-0.419
-503.697	800.000	0.029	-0.109
-502.683	-200.000	-0.021	-0.380
-501.668	800.000	0.052	0.204
-500.653	-200.000	0.006	-0.063
-499.639	31.092	-0.123	-0.106
-498.624	166.241	-0.281	0.400
-497.610	156.906	-0.047	-0.065
-496.595	542.339	0.049	-0.116
-495.581	223.540	0.043	-0.070
-494.566	76.760	-0.238	0.254
-493.551	-116.982	-0.201	-0.037
-492.537	179.216	0.063	0.093
-491.522	-118.735	0.224	0.040
-490.508	33.996	-0.214	0.187
-489.493	-200.000	0.010	-0.062
-488.478	-200.000	0.002	-0.091
-487.464	63.718	0.074	0.075
-486.449	800.000	0.059	0.260
-485.435	-48.632	0.198	-0.095
-484.420	262.963	-0.106	-0.184
-483.405	227.709	-0.033	0.054
-482.391	-200.000	0.022	0.112
-481.376	-107.976	-0.345	-0.075
-480.362	197.445	-0.240	-0.368
-479.347	-200.000	0.007	-0.209
-478.332	800.000	0.066	0.275
-477.318	-200.000	0.265	-0.001
-476.303	4.486	-0.221	0.163
-475.289	-200.000	0.021	-0.108
-474.274	-9.574	-0.343	0.230
-473.259	-102.192	0.224	-0.054
-472.245	-66.081	0.059	-0.024
-471.230	-200.000	0.000	0.298
-470.216	-200.000	0.038	0.247
-469.201	12.755	0.185	-0.143
-468.186	-200.000	0.053	-0.293
-467.172	-107.491	0.094	0.021
-466.157	89.815	0.390	0.437
-465.143	236.344	0.047	-0.077
-464.128	192.284	0.194	-0.294
-463.113	-131.459	-0.281	-0.037
-462.099	177.604	-0.022	-0.032
-461.084	-105.186	0.505	0.116
-460.070	-200.000	-0.047	0.389
-459.055	-200.000	0.030	-0.295
-458.040	-55.981	-0.183	-0.082
-457.026	-200.000	0.019	0.481
-456.011	-114.015	0.437	0.085
-454.997	-0.981	0.196	0.139
-453.982	112.305	-0.111	0.135
-452.968	449.052	-0.039	-0.086
-451.953	135.991	-0.231	0.302
-450.938	-142.265	-0.184	-0.018
-449.924	64.625	-0.133	0.134
-448.909	37.289	-0.135	-0.120
-447.895	23.500	0.196	-0.161
-446.880	-87.039	0.177	-0.054
-445.865	167.381	-0.096	0.137
-444.851	552.975	-0.058	-0.139
-443.836	-138.444	0.217	-0.024
-442.822	10.679	0.144	-0.110
-441.807	45.566	0.256	0.237
-440.792	108.021	0.166	-0.199
-439.778	-142.682	0.134	0.013
-438.763	230.800	-0.141	0.232
-437.749	-200.000	-0.290	0.001
-436.734	89.879	-0.204	0.228
-435.719	135.017	0.148	0.193
-434.705	-130.679	0.147	0.020
-433.690	-80.002	0.090	0.030
-432.676	47.357	-0.191	-0.178
-431.661	-45.771	-0.030	-0.015
-430.646	124.836	-0.170	-0.214
-429.632	-27.860	0.136	-0.079
-428.617	16.295	0.084	0.066
-427.603	-108.923	0.319	0.068
-426.588	-43.011	0.267	-0.136
-425.573	800.000	-0.076	-0.216
-424.559	-6.576	-0.131	0.089
-423.544	76.738	0.144	0.153
-422.530	-200.000	-0.021	-0.417
-421.515	-200.000	0.042	-0.259
-420.500	800.000	-0.096	-0.395
-419.486	-15.972	0.072	0.046
-418.471	-58.159	-0.112	0.049
-417.457	232.860	-0.007	-0.012
-416.442	-200.000	-0.023	-0.277
-415.428	68.794	-0.079	0.082
-414.413	61.520	0.063	0.062
-413.398	-154.836	-0.384	0.025
-412.384	800.000	-0.067	-0.277
-411.369	-67.064	0.044	0.017
-410.355	-200.000	0.007	-0.052
-409.340	618.801	0.050	0.126
-408.325	-57.380	-0.059	0.026
-407.311	-120.019	0.232	-0.040
-406.296	-63.034	0.152	0.063
-405.282	488.179	0.130	0.297
-404.267	-124.134	-0.200	0.031
-403.252	180.682	0.117	0.172
-402.238	-83.704	-0.139	0.044
-401.223	-200.000	0.015	-0.251
-400.209	-200.000	-0.034	0.276
-399.194	-128.870	-0.121	-0.017
-398.179	362.638	0.126	0.253
-397.165	121.444	0.177	-0.221
-396.150	-9.086	-0.043	0.029
-395.136	684.215	-0.155	0.404
-394.121	800.000	-0.045	0.137
-393.106	-148.517	0.278	0.023
-392.092	-80.179	-0.081	-0.027
-391.077	-98.542	0.172	0.044
-390.063	-132.001	-0.380	-0.050
-389.048	40.377	0.146	0.131
-388.033	-197.249	-0.207	0.001
-387.019	149.795	0.053	0.072
-386.004	-101.368	-0.140	0.034
-384.990	-200.000	0.023	-0.248
-383.975	765.484	0.096	-0.262
-382.960	-31.686	0.224	-0.126
-381.946	123.700	-0.210	-0.263
-380.931	-101.200	-0.527	-0.129
-379.917	112.637	-0.138	0.167
-378.902	155.942	0.051	0.070
-377.888	-200.000	-0.029	0.190
-376.873	-200.000	0.028	-0.172
-375.858	-34.405	-0.188	0.103
-374.844	-146.881	-0.065	0.006
-373.829	-200.000	-0.092	-0.532
-372.815	-200.000	-0.039	-0.192
-371.800	47.011	-0.096	-0.089
-370.785	800.000	0.073	-0.223
-369.771	-200.000	-0.013	-0.128
-368.756	-83.063	-0.289	-0.093
-367.742	-48.081	0.141	-0.068
-366.727	-126.875	-0.349	0.051
-365.712	-68.214	0.132	-0.051
-364.698	0.392	0.174	-0.124
-363.683	-53.875	-0.140	0.064
-362.669	-200.000	0.015	-0.322
-361.654	-41.833	0.211	-0.108
-360.639	800.000	0.082	-0.247
-359.625	-61.499	0.011	-0.005
-358.610	1.239	0.267	0.191
-357.596	6.917	-0.260	0.194
-356.581	-151.693	-0.252	-0.019
-355.566	99.781	0.123	0.142
-354.552	-10.868	-0.061	0.041
-353.537	-18.471	-0.025	-0.016
-352.523	-200.000	0.036	-0.306
-351.508	97.263	-0.101	-0.115
-350.493	-135.389	-0.298	-0.036
-349.479	103.218	0.235	0.275
-348.464	39.565	-0.079	0.071
-347.450	300.056	-0.085	-0.157
-346.435	-75.714	0.135	0.048
-345.420	-113.998	-0.155	0.030
-344.406	-165.047	0.109	0.005
-343.391	-110.648	0.169	0.035
-342.377	-200.000	-0.027	-0.150
-341.362	-100.895	-0.236	-0.058
-340.348	34.119	0.136	0.118
-339.333	-71.119	-0.190	-0.071
-338.318	-117.260	0.065	-0.012
-337.304	26.044	0.069	-0.057
-336.289	248.940	0.093	-0.157
-335.275	58.434	0.227	-0.222
-334.260	-200.000	0.017	0.079
-333.245	-145.810	0.137	-0.012
-332.231	-82.772	0.091	0.029
-331.216	-200.000	-0.011	-0.237
-330.202	-29.616	0.146	-0.083
-329.187	-200.000	0.004	-0.029
-328.172	-116.762	-0.188	-0.034
-327.158	10.667	0.216	-0.164
-326.143	-141.073	-0.182	0.019
-325.129	-87.773	0.276	0.083
-324.114	-47.366	-0.217	0.105
-323.099	-200.000	-0.018	0.134
-322.085	800.000	-0.063	0.230
-321.070	-200.000	-0.034	0.196
-320.056	59.426	0.205	-0.201
-319.041	-80.281	-0.447	-0.149
-318.026	445.518	0.049	-0.108
-317.012	4.757	0.151	-0.111
-315.997	80.191	-0.151	-0.162
-314.983	-77.033	-0.361	0.126
-313.968	739.921	0.093	-0.249
-312.953	-128.894	-0.223	0.031
-311.939	-200.000	0.004	0.065
-310.924	800.000	0.113	0.368
-309.910	800.000	-0.087	0.345
-308.895	-17.246	-0.164	0.103
-307.880	24.037	-0.070	-0.058
-306.866	-168.095	0.259	0.010
-305.851	-103.276	0.160	-0.038
-304.837	800.000	-0.017	-0.067
-303.822	-106.046	-0.274	-0.061
-302.807	-158.052	-0.147	-0.009
-301.793	-103.973	-0.108	0.025
-300.778	-68.254	0.272	-0.106
-299.764	115.395	0.158	-0.192
-298.749	-98.958	0.222	0.056
-297.735	161.843	-0.120	-0.168
-296.720	2.611	-0.145	0.105
-295.705	-76.394	0.343	0.120
-294.691	-8.588	0.262	-0.176
-293.676	-121.139	0.151	0.025
-292.662	45.294	-0.195	-0.180
-291.647	-182.198	-0.212	0.004
-290.632	-64.922	0.270	-0.109
-289.618	62.326	-0.374	0.372
-288.603	78.437	-0.143	0.152
-287.589	455.589	0.045	-0.099
-286.574	82.753	0.083	-0.090
-285.559	-200.000	-0.058	0.268
-284.545	118.956	-0.191	-0.235
-283.530	-91.439	-0.171	-0.049
-282.516	254.047	0.097	-0.166
-281.501	-200.000	0.024	-0.254
-280.486	645.474	0.136	-0.347
-279.472	234.574	0.121	0.199
-278.457	-5.161	-0.154	0.105
-277.443	-57.567	0.172	-0.075
-276.428	132.348	0.120	0.154
-275.413	-105.148	-0.156	-0.035
-274.399	-114.249	0.257	-0.049
-273.384	-200.000	-0.025	0.255
-272.370	-96.615	0.113	0.030
-271.355	-200.000	-0.006	-0.125
-270.340	-51.291	-0.380	0.177
-269.326	-127.972	0.298	0.043
-268.311	7.696	0.296	0.221
-267.297	-27.742	0.340	0.196
-266.282	-72.033	0.240	-0.089
-265.267	-178.403	-0.207	-0.005
-264.253	19.754	0.322	-0.258
-263.238	-200.000	0.024	0.123
-262.224	147.002	-0.313	0.419
-261.209	1.043	-0.102	0.073
-260.195	10.605	-0.292	-0.221
-259.180	33.502	0.123	-0.106
-258.165	-72.364	0.195	0.072
-257.151	-45.459	-0.080	0.040
-256.136	-89.869	-0.219	-0.064
-255.122	-200.000	0.017	0.263
-254.107	-200.000	-0.002	-0.207
-253.092	-200.000	-0.015	0.566
-252.078	-45.521	-0.024	-0.012
-251.063	80.523	0.240	0.257
-250.049	14.623	0.094	0.073
-249.034	798.665	-0.045	-0.123
-248.019	114.560	-0.175	-0.212
-247.005	-119.484	0.345	-0.059
-245.990	288.036	-0.166	0.299
-244.976	49.280	-0.210	-0.196
-243.961	14.704	0.159	-0.123
-242.946	-200.000	0.023	0.259
-241.932	800.000	-0.071	0.292
-240.917	317.176	0.141	-0.265
-239.903	-200.000	0.032	0.177
-238.888	-200.000	-0.048	-0.366
-237.873	-200.000	0.050	0.233
-236.859	800.000	-0.079	0.283
-235.844	80.305	0.067	-0.071
-234.830	-158.871	-0.069	-0.004
-233.815	-95.169	-0.339	-0.091
-232.800	800.000	-0.073	-0.204
-231.786	118.873	0.101	-0.124
-230.771	84.040	-0.236	-0.256
-229.757	-97.648	0.191	0.049
-228.742	-200.000	0.011	-0.102
-227.727	-155.895	0.174	-0.011
-226.713	223.569	0.061	-0.098
-225.698	-36.458	0.347	0.186
-224.684	-46.137	-0.126	-0.062
-223.669	-8.467	0.222	-0.148
-222.655	625.708	0.162	-0.405
-221.640	-117.225	-0.302	-0.055
-220.625	-185.578	0.203	0.003
-219.611	183.430	0.050	-0.074
-218.596	29.052	-0.138	-0.116
-217.582	-200.000	-0.026	0.143
-216.567	-97.806	-0.235	0.060
-215.552	-200.000	-0.059	0.299
-214.538	-110.131	0.091	0.019
-213.523	-84.651	0.289	0.091
-212.509	-200.000	-0.021	0.279
-211.494	-200.000	-0.025	-0.155
-210.479	116.361	-0.089	-0.108
-209.465	2.715	0.015	-0.011
-208.450	800.000	0.081	-0.327
-207.436	-200.000	0.036	0.338
-206.421	184.348	-0.073	0.108
-205.406	-200.000	-0.001	0.028
-204.392	-21.178	0.182	0.111
-203.377	580.797	0.061	0.150
-202.363	64.752	-0.077	0.077
-201.348	800.000	0.046	-0.148
-200.333	800.000	-0.047	0.150
-199.319	-200.000	0.047	0.373
-198.304	-106.946	0.234	0.051
-197.290	-63.981	0.095	-0.039
-196.275	351.471	-0.119	0.235
-195.260	-160.117	-0.090	0.005
-194.246	6.902	0.100	-0.074
-193.231	-131.084	0.065	0.009
-192.217	-54.024	0.118	-0.053
-191.202	320.994	-0.015	0.028
-190.187	800.000	0.063	-0.248
-189.173	259.442	0.081	-0.138
-188.158	-200.000	0.054	-0.297
-187.144	800.000	-0.075	0.275
-186.129	59.922	0.068	-0.067
-185.114	-145.155	0.210	0.019
-184.100	-56.833	-0.433	0.190
-183.085	-119.339	0.174	-0.030
-182.071	218.769	-0.106	-0.168
-181.056	-131.168	0.230	0.030
-180.042	-111.644	0.072	-0.014
-179.027	619.482	0.185	0.462
-178.012	50.240	0.177	0.166
-176.998	-182.541	-0.311	-0.006
-175.983	245.063	0.150	-0.250
-174.969	134.923	-0.124	0.160
-173.954	-200.000	-0.006	0.128
-172.939	-200.000	-0.038	0.176
-171.925	-73.911	-0.139	-0.050
-170.910	418.288	0.069	0.146
-169.896	65.083	-0.116	-0.116
-168.881	428.380	0.010	0.022
-167.866	-78.217	-0.055	-0.019
-166.852	645.810	-0.170	-0.431
-165.837	-44.793	-0.380	0.188
-164.823	56.150	0.198	0.191
-163.808	47.467	-0.132	-0.122
-162.793	250.671	0.241	0.406
-161.779	301.746	0.025	-0.046
-160.764	551.187	-0.137	-0.326
-159.750	4.020	0.036	-0.026
-158.735	-51.014	-0.013	-0.006
-157.720	-52.786	0.185	0.084
-156.706	-71.140	-0.135	0.050
-155.691	-200.000	0.007	-0.167
-154.677	319.336	0.105	-0.197
-153.662	169.674	-0.132	0.188
-152.647	38.507	0.309	0.273
-151.633	-200.000	-0.010	0.156
-150.618	800.000	-0.034	-0.110
-149.604	113.251	-0.133	0.160
-148.589	800.000	-0.152	-0.500
-147.574	800.000	-0.097	0.279
-146.560	800.000	0.014	0.042
-145.545	800.000	0.033	0.128
-144.531	31.836	0.121	-0.103
-143.516	-54.242	-0.186	0.084
-142.502	220.197	0.178	-0.282
-141.487	318.896	-0.066	-0.125
-140.472	234.012	0.203	0.331
-139.458	-200.000	-0.033	-0.298
-138.443	27.896	-0.115	-0.096
-137.429	-200.000	-0.002	-0.171
-136.414	-67.584	0.273	0.106
-135.399	-106.131	0.158	0.035
-134.385	87.900	0.140	-0.154
-133.370	800.000	-0.051	-0.151
-132.356	126.317	0.072	0.090
-131.341	223.540	0.179	0.285
-130.326	533.710	-0.047	0.109
-129.312	-200.000	0.038	-0.280
-128.297	800.000	0.015	0.054
-127.283	50.578	0.153	-0.143
-126.268	800.000	-0.049	-0.206
-125.253	-200.000	0.027	-0.153
-124.239	-174.905	0.181	0.005
-123.224	-200.000	-0.028	0.270
-122.210	408.656	0.047	-0.098
-121.195	465.466	-0.058	0.129
-120.180	5.055	-0.259	0.189
-119.166	-0.935	0.280	0.196
-118.151	-107.750	0.322	0.070
-117.137	-79.802	-0.149	-0.050
-116.122	-200.000	0.052	-0.384
-115.107	-93.058	-0.115	-0.032
-114.093	14.080	-0.213	0.164
-113.078	390.827	0.082	0.168
-112.064	-20.753	0.311	-0.189
-111.049	10.365	-0.061	-0.046
-110.034	284.636	0.108	-0.192
-109.020	14.080	-0.189	0.146
-108.005	44.377	0.070	-0.064
-106.991	562.024	0.028	-0.067
-105.976	168.976	-0.071	0.100
-104.962	-141.819	-0.230	0.023
-103.947	-129.751	-0.367	0.050
-102.932	800.000	-0.047	0.179
-101.918	-39.475	-0.133	0.069
-100.903	155.850	0.127	0.174
-99.889	352.558	-0.129	-0.254
-98.874	130.827	-0.128	-0.162
-97.859	214.697	-0.086	-0.134
-96.845	800.000	0.021	-0.078
-95.830	5.531	0.140	-0.102
-94.816	209.907	0.184	-0.285
-93.801	-185.461	-0.068	0.001
-92.786	-75.996	0.068	0.024
-91.772	-111.316	-0.076	0.015
-90.757	91.082	-0.088	-0.097
-89.743	800.000	-0.053	-0.175
-88.728	539.326	-0.127	0.299
-87.713	-60.249	0.068	-0.029
-86.699	-142.709	0.289	-0.028
-85.684	0.446	0.232	0.164
-84.670	316.989	-0.040	-0.075
-83.655	259.365	-0.056	-0.096
-82.640	-200.000	-0.314	-0.001
-81.626	800.000	-0.049	0.199
-80.611	-113.425	-0.033	-0.006
-79.597	-108.298	-0.092	0.020
-78.582	-200.000	0.034	0.213
-77.567	167.410	0.329	-0.462
-76.553	-62.800	0.244	0.100
-75.538	-126.023	-0.215	-0.032
-74.524	-109.456	0.262	0.055
-73.509	186.685	-0.142	-0.209
-72.494	509.555	-0.107	0.246
-71.480	-13.727	-0.055	0.035
-70.465	98.856	0.027	-0.031
-69.451	-117.254	0.103	-0.018
-68.436	48.486	0.040	-0.037
-67.422	47.424	-0.298	-0.274
-66.407	-181.406	-0.033	-0.001
-65.392	-132.726	0.208	-0.026
-64.378	170.177	-0.119	0.168
-63.363	-200.000	0.036	-0.441
-62.349	-155.067	-0.292	0.019
-61.334	72.570	-1.019	-1.050
-60.319	95.776	0.651	0.734
-59.305	417.069	-0.554	-1.168
-58.290	217.336	0.717	1.128
-57.276	359.238	0.775	1.530
-56.261	-200.000	107.718	584.276
-55.246	438.242	1476.832	3181.021
-54.232	144.162	2668.622	3515.828
-53.217	96.012	2323.627	2621.399
-52.203	35.736	2074.822	1800.585
-51.188	31.290	1990.757	1687.501
-50.173	29.839	1973.927	1660.165
-49.159	45.485	2030.746	1850.903
-48.144	45.847	2047.615	1869.506
-47.130	31.886	2005.520	1705.175
-46.115	29.665	1995.033	1676.070
-45.100	29.477	1992.432	1672.118
-44.086	29.436	1990.161	1669.766
-43.071	29.360	1987.327	1666.642
-42.057	29.490	1985.003	1665.796
-41.042	29.430	1983.135	1663.619
-40.027	29.473	1981.380	1662.475
-39.013	29.479	1979.496	1660.882
-37.998	29.525	1977.267	1659.355
-36.984	29.552	1975.234	1657.826
-35.969	29.520	1973.677	1656.170
-34.954	29.521	1972.489	1655.118
-33.940	29.519	1970.564	1653.419
-32.925	29.536	1969.297	1652.443
-31.911	29.621	1967.125	1651.311
-30.896	29.591	1965.765	1649.838
-29.881	29.564	1964.606	1648.556
-28.867	29.626	1962.560	1647.325
-27.852	29.604	1960.900	1645.673
-26.838	29.616	1958.998	1644.114
-25.823	29.670	1956.767	1642.657
-24.809	29.607	1955.179	1640.700
-23.794	29.583	1953.556	1639.064
-22.779	29.570	1951.829	1637.430
-21.765	29.627	1950.002	1636.336
-20.750	29.557	1948.495	1634.394
-19.736	29.443	1947.425	1632.425
-18.721	29.598	1945.636	1632.223
-17.706	29.619	1943.677	1630.704
-16.692	29.578	1942.218	1629.048
-15.677	29.592	1940.652	1627.796
-14.663	29.492	1939.269	1625.691
-13.648	29.566	1938.008	1625.225
-12.633	29.603	1936.612	1624.313
-11.619	29.614	1935.356	1623.287
-10.604	29.540	1934.151	1621.569
-9.590	29.516	1932.667	1620.044
-8.575	29.569	1931.060	1619.098
-7.560	29.527	1929.980	1617.762
-6.546	29.601	1928.789	1617.346
-5.531	29.606	1927.378	1616.147
-4.517	29.628	1926.266	1615.344
-3.502	29.577	1924.817	1613.611
-2.487	29.552	1923.725	1612.416
-1.473	29.546	1922.771	1611.501
-0.458	29.660	1917.953	1608.393
0.556	27.711	1898.269	1581.410
1.571	23.783	1880.266	1532.470
2.586	20.063	1903.404	1518.653
3.600	19.212	1939.189	1539.459
4.615	19.163	1934.548	1535.204
5.629	14.974	1832.621	1418.739
6.644	5.898	1711.806	1252.904
7.659	0.684	1673.739	1184.152
8.673	0.228	1669.596	1177.555
9.688	0.202	1668.447	1176.439
10.702	0.087	1667.088	1174.478
11.717	-0.057	1663.902	1171.006
12.731	0.686	1663.011	1176.059
13.746	7.179	1678.098	1237.490
14.761	15.371	1694.539	1313.905
15.775	17.790	1696.975	1334.626
16.790	17.006	1693.637	1325.760
17.804	15.876	1690.191	1314.132
18.819	14.892	1687.494	1304.245
19.834	14.304	1685.226	1297.800
20.848	14.016	1683.481	1294.098
21.863	13.783	1681.764	1290.850
22.877	13.579	1680.184	1287.932
23.892	13.310	1679.117	1284.912
24.907	13.237	1677.600	1283.070
25.921	13.230	1676.353	1281.952
26.936	13.120	1675.494	1280.328
27.950	13.272	1674.362	1280.527
28.965	13.270	1674.341	1280.386
29.980	13.277	1673.322	1279.547
30.994	13.370	1672.787	1279.745
32.009	13.387	1671.773	1278.987
33.023	13.356	1671.091	1278.112
34.038	13.474	1670.368	1278.352
35.053	13.523	1668.701	1277.343
36.067	13.433	1667.332	1275.490
37.082	13.457	1666.423	1274.867
38.096	13.388	1665.869	1273.799
39.111	13.448	1664.781	1273.315
40.126	13.442	1664.104	1272.638
41.140	13.465	1663.097	1271.931
42.155	13.346	1661.714	1269.849
43.169	13.233	1660.210	1267.719
44.184	13.219	1659.232	1266.750
45.199	13.246	1657.856	1265.796
46.213	13.260	1656.926	1265.085
47.228	13.236	1655.343	1263.575
48.242	13.196	1654.662	1262.640
49.257	13.353	1653.269	1262.662
50.271	13.253	1652.069	1260.875
51.286	13.341	1650.551	1260.274
52.301	13.356	1648.968	1259.072
53.315	13.312	1648.126	1257.978
54.330	13.233	1646.102	1255.726
55.344	13.291	1644.306	1254.679
56.359	13.259	1642.922	1253.272
57.374	13.157	1642.207	1251.845
58.388	13.276	1641.076	1251.770
59.403	13.211	1639.409	1249.898
60.417	13.116	1638.350	1248.265
61.432	13.210	1637.186	1247.971
62.447	13.225	1635.476	1246.675
63.461	13.154	1635.236	1245.842
64.476	13.092	1633.679	1244.084
65.490	13.132	1632.591	1243.440
66.505	13.091	1631.291	1242.031
67.520	13.091	1630.802	1241.550
68.534	13.156	1629.570	1240.996
69.549	13.182	1627.963	1239.853
70.563	13.179	1626.560	1238.654
71.578	13.254	1625.503	1238.299
72.593	13.138	1624.641	1236.665
73.607	13.050	1623.945	1235.372
74.622	13.102	1622.431	1234.498
75.636	13.096	1621.428	1233.583
76.651	12.967	1620.944	1232.141
77.666	13.075	1619.544	1231.769
78.680	13.089	1618.972	1231.329
79.695	13.123	1617.292	1230.200
80.709	13.105	1616.685	1229.490
81.724	13.122	1615.735	1228.792
82.739	13.092	1615.239	1228.083
83.753	13.174	1614.007	1227.644
84.768	13.256	1612.868	1227.280
85.782	13.299	1612.329	1227.079
86.797	13.336	1611.299	1226.458
87.812	13.296	1611.071	1225.880
88.826	13.270	1608.863	1223.901
89.841	13.274	1607.892	1223.080
90.855	13.328	1606.923	1222.637
91.870	13.363	1605.943	1222.043
92.884	13.313	1604.972	1220.826
93.899	13.334	1603.736	1219.935
94.914	13.321	1602.538	1218.819
95.928	13.421	1601.486	1218.644
96.943	13.390	1599.771	1217.004
97.957	13.351	1599.291	1216.248
98.972	13.388	1597.521	1215.061
99.987	13.299	1595.990	1213.138
101.001	13.320	1594.450	1212.015
102.016	13.348	1592.488	1210.622
103.030	13.388	1591.106	1209.758
104.045	13.429	1589.709	1208.884
105.060	13.334	1588.852	1207.434
106.074	13.325	1587.558	1206.281
107.089	13.283	1585.932	1204.626
108.103	13.169	1584.740	1202.785
109.118	13.191	1583.105	1201.602
110.133	13.223	1581.866	1200.783
111.147	13.153	1580.436	1199.084
112.162	13.187	1579.075	1198.192
113.176	13.157	1577.680	1196.810
114.191	13.247	1576.783	1196.677
115.206	13.305	1574.909	1195.567
116.220	13.183	1574.622	1194.366
117.235	13.189	1573.179	1193.205
118.249	13.260	1571.514	1192.350
119.264	13.261	1570.094	1191.174
120.279	13.275	1568.570	1190.011
121.293	13.204	1567.310	1188.445
122.308	13.177	1566.424	1187.469
123.322	13.187	1564.523	1185.998
124.337	13.122	1563.642	1184.759
125.352	13.185	1561.934	1183.810
126.366	13.209	1560.240	1182.593
127.381	13.139	1559.367	1181.323
128.395	13.232	1558.024	1180.869
129.410	13.067	1557.598	1179.264
130.424	13.138	1556.209	1178.613
131.439	13.192	1554.217	1177.384
132.454	13.261	1552.941	1176.806
133.468	13.275	1551.297	1175.556
134.483	13.291	1550.008	1174.585
135.497	13.241	1548.584	1173.047
136.512	13.188	1547.294	1171.594
137.527	13.297	1545.620	1170.995
138.541	13.318	1544.292	1170.034
139.556	13.389	1542.657	1169.190
140.570	13.331	1542.030	1168.206
141.585	13.433	1539.824	1167.152
142.600	13.316	1539.758	1166.171
143.614	13.448	1537.748	1165.477
144.629	13.458	1537.202	1165.031
145.643	13.539	1535.256	1164.017
146.658	13.513	1534.086	1162.850
147.673	13.637	1532.304	1162.262
148.687	13.502	1531.090	1160.294
149.702	13.446	1529.799	1158.820
150.716	13.446	1528.065	1157.405
151.731	13.431	1526.412	1155.948
152.746	13.410	1525.372	1154.911
153.760	13.502	1523.920	1154.349
154.775	13.478	1522.581	1153.065
155.789	13.503	1521.367	1152.219
156.804	13.576	1519.757	1151.403
157.819	13.528	1518.412	1149.952
158.833	13.588	1517.768	1149.778
159.848	13.670	1516.626	1149.378
160.862	13.641	1515.306	1148.075
161.877	13.651	1513.911	1146.988
162.892	13.678	1512.781	1146.212
163.906	13.584	1511.616	1144.580
164.921	13.522	1510.477	1143.192
165.935	13.479	1509.622	1142.146
166.950	13.477	1508.398	1141.104
167.964	13.487	1507.678	1140.528
168.979	13.592	1506.541	1140.291
169.994	13.646	1504.797	1139.237
171.008	13.615	1504.244	1138.510
172.023	13.544	1503.238	1137.160
173.037	13.695	1501.973	1137.139
174.052	13.718	1500.600	1136.156
175.067	13.696	1500.056	1135.487
176.081	13.656	1498.680	1134.071
177.096	13.687	1497.494	1133.291
178.110	13.630	1496.303	1131.898
179.125	13.650	1495.089	1131.013
180.140	13.656	1494.161	1130.254
181.154	13.634	1493.133	1129.225
182.169	13.683	1492.429	1128.929
183.183	13.721	1490.644	1127.734
184.198	13.827	1489.277	1127.325
185.213	13.897	1488.650	1127.226
186.227	13.893	1487.472	1126.206
187.242	13.864	1486.460	1125.142
188.256	13.940	1485.380	1124.738
189.271	13.906	1484.584	1123.809
190.286	13.885	1483.397	1122.664
191.300	13.876	1482.165	1121.577
192.315	13.883	1480.635	1120.362
193.329	13.679	1479.563	1118.082
194.344	13.715	1478.431	1117.370
195.359	13.707	1477.370	1116.411
196.373	13.780	1475.957	1115.738
197.388	13.821	1475.651	1115.686
198.402	13.957	1474.074	1115.305
199.417	13.952	1472.930	1114.306
200.432	14.036	1472.160	1114.187
201.446	14.066	1471.159	1113.537
202.461	14.155	1469.631	1112.872
203.475	14.173	1468.370	1111.942
204.490	14.137	1467.513	1110.952
205.504	14.119	1466.744	1110.154
206.519	14.077	1465.668	1108.963
207.534	14.089	1464.379	1107.965
208.548	14.086	1463.346	1107.066
209.563	14.031	1462.367	1105.866
210.577	14.050	1461.268	1105.059
211.592	14.065	1460.587	1104.546
212.607	14.102	1459.889	1104.164
213.621	14.167	1459.171	1103.956
214.636	14.213	1458.292	1103.501
215.650	14.201	1457.173	1102.476
216.665	14.188	1456.135	1101.506
217.680	14.204	1455.577	1101.093
218.694	14.274	1454.422	1100.583
219.709	14.350	1453.391	1100.207
220.723	14.295	1452.773	1099.280
221.738	14.302	1451.991	1098.636
222.753	14.296	1450.752	1097.567
223.767	14.257	1449.996	1096.641
224.782	14.289	1448.824	1095.866
225.796	14.337	1448.483	1095.827
226.811	14.368	1447.394	1095.110
227.826	14.455	1446.447	1094.866
228.840	14.415	1446.009	1094.178
229.855	14.347	1444.972	1092.851
230.869	14.423	1443.713	1092.295
231.884	14.332	1442.658	1090.809
232.899	14.486	1440.984	1090.451
233.913	14.335	1440.433	1088.950
234.928	14.333	1439.042	1087.791
235.942	14.389	1438.044	1087.306
236.957	14.344	1436.481	1085.733
237.972	14.388	1435.198	1084.955
238.986	14.415	1434.502	1084.511
240.001	14.329	1433.744	1083.281
241.015	14.308	1433.055	1082.527
242.030	14.458	1431.332	1082.100
243.045	14.471	1430.295	1081.306
244.059	14.525	1429.916	1081.279
245.074	14.619	1428.739	1080.897
246.088	14.606	1428.027	1080.179
247.103	14.520	1427.500	1079.129
248.117	14.697	1426.259	1079.240
249.132	14.616	1425.314	1077.904
250.147	14.690	1424.912	1077.982
251.161	14.718	1424.239	1077.559
252.176	14.822	1423.228	1077.373
253.190	14.897	1422.507	1077.213
254.205	14.917	1421.772	1076.692
255.220	14.845	1421.050	1075.586
256.234	14.882	1420.485	1075.304
257.249	14.929	1419.584	1074.826
258.263	15.004	1418.903	1074.696
259.278	14.932	1417.928	1073.397
260.293	15.029	1416.660	1072.969
261.307	15.069	1415.542	1072.282
262.322	15.064	1415.321	1071.985
263.336	14.995	1414.617	1070.919
264.351	14.995	1413.718	1070.146
265.366	15.071	1412.499	1069.609
266.380	15.251	1410.987	1069.521
267.395	15.207	1410.163	1068.521
268.409	15.192	1409.396	1067.749
269.424	15.166	1408.464	1066.783
270.439	15.100	1407.679	1065.674
271.453	15.078	1406.888	1064.842
272.468	15.162	1405.662	1064.351
273.482	15.099	1405.104	1063.438
274.497	15.110	1403.979	1062.562
275.512	15.075	1403.061	1061.551
276.526	15.089	1402.571	1061.173
277.541	15.115	1401.886	1060.724
278.555	15.121	1400.750	1059.812
279.570	15.203	1399.576	1059.345
280.585	15.216	1398.732	1058.699
281.599	15.302	1398.108	1058.675
282.614	15.223	1397.342	1057.499
283.628	15.289	1396.005	1056.814
284.643	15.198	1395.257	1055.580
285.657	15.211	1393.991	1054.611
286.672	15.288	1392.761	1054.070
287.687	15.275	1392.143	1053.428
288.701	15.406	1390.741	1053.095
289.716	15.307	1390.364	1052.096
290.730	15.326	1389.726	1051.636
291.745	15.316	1388.624	1050.650
292.760	15.367	1387.422	1049.966
293.774	15.436	1386.688	1049.747
294.789	15.356	1385.807	1048.490
295.803	15.434	1385.301	1048.498
296.818	15.527	1383.956	1047.973
297.833	15.472	1383.085	1046.878
298.847	15.520	1382.264	1046.463
299.862	15.384	1380.864	1044.459
300.876	15.539	1379.932	1044.625
301.891	15.497	1379.001	1043.568
302.906	15.524	1378.397	1043.191
303.920	15.540	1377.980	1042.877
304.935	15.686	1376.850	1042.836
305.949	15.596	1375.953	1041.511
306.964	15.755	1375.431	1042.008
307.979	15.785	1374.387	1041.307
308.993	15.701	1373.515	1040.037
310.008	15.723	1372.256	1039.129
311.022	15.660	1371.484	1038.063
312.037	15.700	1370.595	1037.540
313.052	15.772	1369.999	1037.446
314.066	15.711	1368.865	1036.115
315.081	15.674	1367.782	1034.980
316.095	15.698	1366.606	1034.148
317.110	15.661	1365.816	1033.230
318.125	15.695	1364.552	1032.391
319.139	15.618	1363.902	1031.333
320.154	15.659	1363.056	1030.856
321.168	15.594	1362.353	1029.833
322.183	15.716	1361.309	1029.700
323.197	15.676	1359.898	1028.297
324.212	15.705	1359.336	1027.956
325.227	15.856	1358.367	1028.057
326.241	15.747	1357.934	1026.970
327.256	15.769	1356.964	1026.283
328.270	15.820	1355.844	1025.654
329.285	15.888	1354.747	1025.146
330.300	15.845	1353.644	1023.961
331.314	15.837	1353.189	1023.476
332.329	15.923	1351.953	1022.974
333.343	15.786	1351.455	1021.676
334.358	15.886	1350.487	1021.458
335.373	15.912	1349.974	1021.140
336.387	15.914	1349.072	1020.379
337.402	15.961	1348.035	1019.792
338.416	15.961	1347.510	1019.303
339.431	15.918	1347.117	1018.657
340.446	16.049	1346.066	1018.561
341.460	16.097	1345.014	1017.962
342.475	16.114	1344.358	1017.482
343.489	16.141	1343.217	1016.687
344.504	16.078	1342.581	1015.741
345.519	16.236	1341.120	1015.493
346.533	16.251	1340.740	1015.209
347.548	16.199	1339.673	1013.996
348.562	16.298	1338.552	1013.653
349.577	16.263	1338.209	1013.094
350.592	16.252	1337.166	1012.148
351.606	16.269	1336.466	1011.629
352.621	16.302	1335.228	1010.800
353.635	16.219	1334.171	1009.414
354.650	16.231	1333.186	1008.652
355.665	16.187	1332.601	1007.857
356.679	16.245	1331.385	1007.195
357.694	16.270	1330.109	1006.291
358.708	16.351	1328.831	1005.719
359.723	16.321	1328.167	1004.944
360.738	16.268	1327.330	1003.911
361.752	16.348	1326.130	1003.386
362.767	16.293	1325.013	1002.128
363.781	16.425	1323.935	1002.006
364.796	16.426	1323.001	1001.214
365.810	16.405	1322.874	1000.909
366.825	16.544	1321.600	1000.676
367.840	16.455	1321.500	999.985
368.854	16.587	1320.401	999.849
369.869	16.595	1320.282	999.717
370.883	16.596	1319.433	998.988
371.898	16.639	1318.126	998.164
372.913	16.664	1317.454	997.717
373.927	16.535	1316.621	996.237
374.942	16.610	1315.981	996.105
375.956	16.618	1315.095	995.396
376.971	16.664	1314.450	995.092
377.986	16.709	1313.556	994.588
379.000	16.669	1312.949	993.805
380.015	16.741	1312.021	993.438
381.029	16.748	1311.307	992.852
382.044	16.870	1310.755	993.057
383.059	16.722	1309.974	991.512
384.073	16.825	1309.492	991.661
385.088	16.720	1308.989	990.578
386.102	16.848	1308.013	990.505
387.117	16.879	1306.863	989.722
388.132	16.841	1306.421	989.080
389.146	16.811	1305.361	988.015
390.161	16.792	1304.564	987.216
391.175	16.843	1303.671	986.746
392.190	16.792	1303.106	985.934
393.205	16.823	1302.072	985.245
394.219	16.914	1300.856	984.770
395.234	16.924	1299.654	983.830
396.248	16.978	1298.574	983.238
397.263	16.855	1297.315	981.485
398.278	16.904	1296.259	980.885
399.292	16.874	1294.872	979.572
400.307	16.921	1293.848	978.986
401.321	16.814	1293.231	977.813
402.336	16.890	1292.034	977.262
403.350	16.933	1291.079	976.696
404.365	16.961	1290.017	975.971
405.380	16.916	1289.278	975.067
406.394	16.940	1288.360	974.423
407.409	17.072	1287.543	974.478
408.423	16.984	1287.265	973.675
409.438	17.091	1286.560	973.669
410.453	17.119	1285.810	973.176
411.467	17.148	1285.101	972.717
412.482	17.233	1284.681	972.804
413.496	17.229	1283.904	972.102
414.511	17.267	1283.023	971.567
415.526	17.262	1282.655	971.176
416.540	17.238	1282.164	970.582
417.555	17.237	1281.135	969.709
418.569	17.277	1280.752	969.560
419.584	17.313	1280.121	969.202
420.599	17.416	1279.104	968.932
421.613	94.742	1353.515	1467.923
422.628	92.632	1364.332	1468.058
