DTS Sentinel unit serial number:	SN413079Multiplexer serial number:	ORYXHardware model number:	OX4-SRSoftware version number:	ORYX F/W v4.00 Oryx Data Collector v3.7.2.0data status	okinstallation	princeton_trtdifferential loss correction	single-endedforward channel	channel 4reverse channel	N/Adate	2019/09/19time	04:21:35forward acquisition time	60.00reverse acquisition time	0.00gamma	496.2192k internal	0.2340k external	0.2340temperature offset calibration	1.0029default loss term (dB/km)	0.3790temperature slope calibration	1.0000multiplexer offset coefficient	1.0000multiplexer slope coefficient	1.0000fibre end	0.00T internal ref (°C)	20.25T ext. ref 1 (°C)	0.62T ext. ref 2 (°C)	13.48length (m)	temperature (°C)	Stokes	anti-Stokes-747.200	66.398	-0.076	-0.078
-746.185	800.000	0.072	0.310
-745.171	-183.324	0.281	0.005
-744.156	-170.374	0.258	-0.009
-743.142	261.389	-0.112	0.194
-742.127	300.755	-0.122	0.226
-741.112	502.071	-0.043	0.100
-740.098	800.000	-0.013	-0.050
-739.083	800.000	-0.092	-0.325
-738.069	278.041	-0.206	0.369
-737.054	150.640	-0.064	-0.087
-736.039	-41.457	-0.161	-0.083
-735.025	-102.025	0.299	0.072
-734.010	-33.620	-0.296	-0.164
-732.996	94.320	-0.189	0.216
-731.981	-2.563	-0.299	-0.210
-730.966	27.039	0.252	-0.212
-729.952	-131.468	-0.072	-0.010
-728.937	800.000	-0.030	-0.112
-727.923	800.000	-0.073	-0.214
-726.908	81.753	0.137	-0.148
-725.894	-200.000	-0.030	-0.361
-724.879	-49.608	0.263	-0.125
-723.864	-73.650	0.328	0.120
-722.850	-200.000	-0.008	-0.212
-721.835	29.351	0.332	0.282
-720.821	313.731	0.118	-0.222
-719.806	-75.271	-0.148	0.053
-718.791	-177.981	-0.275	0.007
-717.777	244.239	-0.086	0.145
-716.762	-64.667	0.550	-0.224
-715.748	-200.000	-0.015	-0.246
-714.733	97.504	-0.115	0.132
-713.718	800.000	-0.070	-0.290
-712.704	-176.051	0.178	-0.005
-711.689	-13.444	-0.163	0.106
-710.675	800.000	0.031	-0.102
-709.660	-75.226	0.228	-0.081
-708.645	-139.440	-0.170	-0.018
-707.631	50.766	-0.157	0.149
-706.616	-64.101	-0.107	0.044
-705.602	-48.585	-0.454	0.218
-704.587	-200.000	-0.404	0.002
-703.572	-200.000	-0.006	-0.047
-702.558	-84.683	0.290	0.091
-701.543	131.335	0.047	-0.061
-700.529	-31.132	-0.135	0.076
-699.514	-124.357	0.182	-0.028
-698.499	-200.000	-0.042	-0.274
-697.485	216.698	-0.078	-0.124
-696.470	5.901	-0.082	0.061
-695.456	76.762	0.180	0.191
-694.441	173.836	0.183	-0.265
-693.426	-200.000	-0.044	-0.202
-692.412	800.000	0.076	0.246
-691.397	-200.000	0.037	0.207
-690.383	-13.386	0.249	-0.162
-689.368	-165.663	-0.250	-0.011
-688.354	800.000	-0.117	-0.460
-687.339	-70.330	0.181	0.069
-686.324	409.650	-0.104	-0.221
-685.310	800.000	0.036	-0.139
-684.295	-14.780	0.035	-0.022
-683.281	102.728	0.204	0.239
-682.266	-6.422	0.077	-0.052
-681.251	23.570	-0.153	0.126
-680.237	-54.368	0.314	0.142
-679.222	-200.000	0.032	-0.190
-678.208	-69.417	0.247	0.095
-677.193	-74.129	-0.101	0.036
-676.178	-61.494	0.199	0.084
-675.164	-200.000	0.009	0.105
-674.149	800.000	-0.026	-0.089
-673.135	-155.105	0.241	-0.016
-672.120	-25.127	-0.345	-0.204
-671.105	800.000	0.137	0.414
-670.091	58.256	-0.236	0.231
-669.076	76.340	0.267	0.283
-668.062	-129.607	-0.212	0.029
-667.047	-200.000	-0.010	-0.477
-666.032	800.000	0.092	-0.313
-665.018	-108.116	-0.182	-0.039
-664.003	-111.777	0.093	0.019
-662.989	-200.000	-0.013	-0.535
-661.974	154.087	0.131	0.180
-660.959	-152.426	-0.168	-0.012
-659.945	547.988	0.108	-0.259
-658.930	172.521	0.081	-0.116
-657.916	-200.000	-0.022	-0.158
-656.901	-101.801	-0.175	-0.042
-655.886	-1.424	-0.317	0.224
-654.872	372.124	-0.098	-0.199
-653.857	102.661	-0.261	-0.305
-652.843	-200.000	-0.010	0.096
-651.828	-200.000	-0.025	0.293
-650.814	227.357	0.073	-0.119
-649.799	-200.000	0.014	-0.119
-648.784	-200.000	-0.002	0.047
-647.770	-200.000	-0.017	-0.126
-646.755	-150.547	-0.238	0.018
-645.741	739.840	0.060	-0.161
-644.726	-75.670	0.213	-0.075
-643.711	-19.310	-0.206	-0.128
-642.697	-137.194	0.241	-0.027
-641.682	78.869	-0.164	-0.175
-640.668	160.699	-0.152	0.212
-639.653	-135.232	0.282	-0.034
-638.638	-84.813	-0.478	-0.150
-637.624	800.000	-0.059	0.170
-636.609	293.635	-0.104	-0.190
-635.595	415.945	0.157	0.334
-634.580	-20.482	0.065	-0.040
-633.565	800.000	-0.032	0.126
-632.551	285.281	0.160	-0.287
-631.536	660.623	-0.115	-0.294
-630.522	107.106	-0.364	-0.432
-629.507	-148.512	-0.211	-0.017
-628.492	800.000	-0.107	-0.384
-627.478	141.296	0.135	0.179
-626.463	-185.876	-0.121	-0.002
-625.449	-200.000	-0.021	-0.224
-624.434	48.346	0.094	-0.088
-623.419	32.966	-0.161	0.139
-622.405	-106.427	-0.088	0.020
-621.390	30.747	0.233	-0.199
-620.376	286.795	0.076	-0.137
-619.361	48.395	0.248	-0.231
-618.346	-166.987	0.083	0.003
-617.332	215.142	0.101	0.160
-616.317	800.000	0.029	-0.118
-615.303	-45.572	-0.259	-0.128
-614.288	-41.903	0.177	0.090
-613.273	-200.000	-0.002	0.366
-612.259	120.501	-0.062	-0.077
-611.244	42.057	-0.061	0.055
-610.230	-49.377	-0.529	-0.252
-609.215	800.000	-0.066	-0.215
-608.201	-200.000	0.016	-0.137
-607.186	-200.000	0.032	0.352
-606.171	67.824	0.192	-0.196
-605.157	203.273	-0.352	-0.542
-604.142	296.496	0.183	-0.334
-603.128	15.159	0.056	-0.044
-602.113	-81.351	-0.090	-0.030
-601.098	-200.000	0.002	-0.083
-600.084	173.631	0.143	-0.206
-599.069	-81.675	-0.053	0.017
-598.055	-60.910	0.142	-0.060
-597.040	800.000	-0.046	-0.176
-596.025	-117.783	0.193	0.035
-595.011	-200.000	-0.045	0.328
-593.996	-160.678	0.247	-0.013
-592.982	-43.410	0.194	0.097
-591.967	-200.000	-0.076	-0.530
-590.952	189.157	-0.130	-0.194
-589.938	-127.420	-0.119	0.017
-588.923	-7.790	0.116	-0.078
-587.909	-8.299	0.228	0.153
-586.894	-4.091	0.098	0.067
-585.879	41.926	0.160	0.145
-584.865	-200.000	-0.002	0.347
-583.850	-31.639	0.050	-0.028
-582.836	800.000	-0.050	-0.168
-581.821	800.000	-0.080	-0.321
-580.806	-137.116	-0.137	0.016
-579.792	-82.440	-0.174	0.056
-578.777	99.204	-0.029	0.033
-577.763	-78.590	-0.214	0.073
-576.748	476.430	0.034	0.076
-575.733	59.145	0.106	0.104
-574.719	6.022	0.098	-0.072
-573.704	44.160	0.128	-0.117
-572.690	296.310	0.193	0.353
-571.675	478.525	0.053	0.119
-570.661	729.267	0.078	0.208
-569.646	169.568	-0.112	-0.160
-568.631	157.055	-0.115	0.159
-567.617	800.000	0.048	-0.137
-566.602	-74.034	0.250	-0.090
-565.588	368.026	-0.097	0.196
-564.573	-32.652	0.297	-0.165
-563.558	-200.000	-0.051	-0.288
-562.544	302.709	0.098	-0.180
-561.529	50.580	-0.072	0.068
-560.515	800.000	0.019	-0.058
-559.500	261.471	-0.208	-0.358
-558.485	572.949	0.103	-0.249
-557.471	36.722	-0.134	0.118
-556.456	-68.537	0.253	-0.098
-555.442	-97.411	-0.172	-0.045
-554.427	124.827	0.081	-0.102
-553.412	-79.651	0.167	-0.056
-552.398	42.190	-0.227	-0.205
-551.383	-58.930	0.061	0.026
-550.369	68.645	-0.215	0.219
-549.354	2.334	-0.259	-0.186
-548.339	-176.021	0.151	-0.004
-547.325	197.700	0.105	-0.159
-546.310	-200.000	-0.037	0.328
-545.296	197.578	0.147	-0.223
-544.281	-6.658	0.108	-0.073
-543.266	-200.000	-0.030	-0.170
-542.252	-200.000	0.025	-0.210
-541.237	-91.904	0.131	0.037
-540.223	40.669	0.163	-0.147
-539.208	-137.646	0.221	0.025
-538.193	118.501	-0.191	-0.234
-537.179	209.443	-0.143	0.223
-536.164	-90.599	0.257	-0.074
-535.150	-112.667	0.071	-0.014
-534.135	-29.685	0.195	-0.111
-533.121	-200.000	0.064	0.426
-532.106	407.137	0.119	0.249
-531.091	800.000	-0.183	0.601
-530.077	120.748	-0.121	0.149
-529.062	-200.000	-0.046	0.333
-528.048	265.782	-0.118	0.205
-527.033	637.189	0.111	0.281
-526.018	800.000	-0.081	-0.293
-525.004	-93.778	0.403	0.110
-523.989	-29.790	0.185	0.105
-522.975	319.982	-0.076	-0.143
-521.960	-79.291	0.023	-0.008
-520.945	-49.437	0.277	-0.131
-519.931	-126.244	0.276	0.041
-518.916	800.000	-0.072	0.224
-517.902	800.000	0.037	0.109
-516.887	800.000	0.060	0.178
-515.872	244.573	-0.203	-0.339
-514.858	257.975	-0.116	0.198
-513.843	-200.000	-0.021	0.335
-512.829	-74.375	0.247	-0.089
-511.814	270.328	0.150	-0.262
-510.799	-200.000	0.008	0.209
-509.785	78.658	0.070	0.074
-508.770	-97.848	-0.274	0.070
-507.756	-200.000	-0.008	-0.188
-506.741	-67.367	0.176	-0.069
-505.726	-116.723	-0.345	-0.063
-504.712	-200.000	0.001	-0.065
-503.697	46.686	0.081	0.075
-502.683	800.000	-0.041	0.139
-501.668	-76.038	-0.317	-0.111
-500.653	-9.834	-0.402	0.266
-499.639	-165.014	0.137	-0.006
-498.624	-12.781	-0.009	0.006
-497.610	-77.845	-0.096	0.033
-496.595	-200.000	-0.016	0.083
-495.581	-200.000	0.075	0.389
-494.566	0.783	0.072	-0.051
-493.551	-200.000	-0.021	-0.097
-492.537	-73.053	-0.052	-0.019
-491.522	-40.585	-0.056	0.029
-490.508	-161.418	0.191	-0.010
-489.493	-200.000	0.024	0.533
-488.478	-200.000	0.013	0.129
-487.464	-3.403	0.103	-0.071
-486.449	568.478	-0.128	0.308
-485.435	25.636	0.173	0.143
-484.420	-158.949	0.077	-0.004
-483.405	-103.011	0.130	-0.031
-482.391	-76.658	-0.056	0.019
-481.376	-123.776	0.184	-0.029
-480.362	-137.625	0.403	0.045
-479.347	-52.137	-0.258	0.119
-478.332	506.259	0.102	0.235
-477.318	-177.175	-0.133	0.003
-476.303	-200.000	-0.006	-0.207
-475.289	43.058	0.191	0.173
-474.274	800.000	-0.081	-0.238
-473.259	163.848	0.161	0.225
-472.245	-200.000	-0.014	-0.102
-471.230	-29.360	0.024	0.013
-470.216	800.000	-0.032	-0.128
-469.201	8.064	0.183	-0.136
-468.186	-88.288	-0.217	-0.064
-467.172	133.728	-0.170	-0.219
-466.157	256.302	-0.049	-0.084
-465.143	-23.644	0.075	-0.045
-464.128	-200.000	0.071	0.000
-463.113	-71.017	0.078	0.029
-462.099	77.774	-0.087	-0.092
-461.084	800.000	0.031	0.124
-460.070	-168.940	-0.039	0.001
-459.055	-200.000	0.038	-0.228
-458.040	-200.000	-0.016	-0.084
-457.026	800.000	-0.036	0.108
-456.011	13.243	0.179	-0.137
-454.997	-24.129	-0.209	0.124
-453.982	541.803	-0.084	-0.197
-452.968	-85.331	-0.193	-0.060
-451.953	800.000	-0.101	-0.399
-450.938	-103.530	0.300	0.070
-449.924	-200.000	0.001	-0.057
-448.909	-200.000	-0.316	0.001
-447.895	800.000	-0.014	0.048
-446.880	-200.000	0.015	-0.262
-445.865	-200.000	-0.020	0.271
-444.851	-182.309	-0.232	-0.004
-443.836	-45.040	-0.136	-0.067
-442.822	-155.783	0.174	0.011
-441.807	50.720	0.224	-0.210
-440.792	-56.737	0.069	0.030
-439.778	303.995	0.093	0.171
-438.763	-200.000	0.010	-0.122
-437.749	-110.708	-0.079	0.016
-436.734	-200.000	0.023	0.113
-435.719	-200.000	0.034	-0.235
-434.705	800.000	0.043	0.140
-433.690	-85.795	0.138	0.042
-432.676	-112.500	0.191	0.038
-431.661	17.048	0.123	0.096
-430.646	-200.000	-0.020	-0.285
-429.632	-56.969	0.238	0.104
-428.617	-167.772	-0.103	0.004
-427.603	141.652	-0.047	0.062
-426.588	-145.012	0.163	0.015
-425.573	-112.988	-0.389	-0.076
-424.559	-200.000	0.066	0.407
-423.544	-149.001	0.078	-0.006
-422.530	65.875	0.118	-0.119
-421.515	137.259	0.174	0.225
-420.500	445.731	-0.097	0.210
-419.486	-73.131	0.065	0.023
-418.471	-129.669	-0.030	0.004
-417.457	586.995	-0.081	-0.197
-416.442	-200.000	0.016	-0.095
-415.428	-200.000	-0.006	0.032
-414.413	-69.878	0.080	-0.030
-413.398	26.131	0.222	-0.183
-412.384	-20.875	-0.208	-0.126
-411.369	800.000	-0.070	0.258
-410.355	294.119	0.103	-0.187
-409.340	-89.344	-0.229	-0.067
-408.325	-200.000	-0.030	-0.294
-407.311	-69.803	0.208	0.078
-406.296	-162.171	-0.243	0.012
-405.282	800.000	0.089	0.365
-404.267	800.000	-0.037	0.112
-403.252	800.000	0.046	0.178
-402.238	-200.000	0.008	0.080
-401.223	-42.402	0.124	0.063
-400.209	-70.210	0.203	0.076
-399.194	-200.000	0.035	-0.452
-398.179	-41.776	-0.292	-0.148
-397.165	-57.969	0.272	0.118
-396.150	36.631	0.177	-0.154
-395.136	3.079	-0.278	0.200
-394.121	-10.176	-0.171	-0.112
-393.106	-200.000	0.040	0.249
-392.092	-200.000	0.035	0.166
-391.077	-85.410	0.251	0.077
-390.063	-52.221	-0.443	-0.203
-389.048	-120.084	-0.230	-0.039
-388.033	-200.000	0.017	0.093
-387.019	455.287	-0.136	0.298
-386.004	-123.407	0.220	-0.035
-384.990	-5.810	0.066	-0.044
-383.975	322.213	-0.064	0.121
-382.960	291.944	-0.103	-0.185
-381.946	-200.000	-0.046	-0.248
-380.931	-45.808	0.300	-0.147
-379.917	-160.453	0.223	-0.012
-378.902	-200.000	-0.322	-0.001
-377.888	-200.000	-0.008	-0.214
-376.873	46.790	0.267	0.245
-375.858	115.683	-0.029	0.034
-374.844	-83.857	-0.055	0.017
-373.829	-43.024	-0.032	-0.016
-372.815	-139.964	-0.345	0.036
-371.800	-33.501	-0.114	-0.062
-370.785	-69.681	0.093	0.035
-369.771	-175.996	-0.293	-0.008
-368.756	-21.056	-0.222	-0.134
-367.742	-25.359	0.126	-0.073
-366.727	398.966	-0.046	-0.094
-365.712	-161.445	-0.285	-0.015
-364.698	-52.941	0.182	-0.083
-363.683	397.777	0.128	0.263
-362.669	800.000	-0.079	-0.287
-361.654	-126.845	0.075	-0.011
-360.639	97.068	0.120	-0.136
-359.625	-89.345	-0.194	-0.056
-358.610	800.000	-0.082	-0.312
-357.596	18.680	-0.125	-0.098
-356.581	-36.339	-0.346	-0.184
-355.566	-83.349	0.373	0.118
-354.552	236.683	0.159	0.260
-353.537	-66.559	0.160	0.063
-352.523	-68.085	-0.264	0.102
-351.508	800.000	-0.071	0.283
-350.493	800.000	0.060	0.234
-349.479	-31.066	-0.197	-0.110
-348.464	-200.000	-0.021	-0.154
-347.450	87.681	0.065	-0.071
-346.435	176.804	-0.151	-0.216
-345.420	-85.122	0.320	0.099
-344.406	416.341	0.175	0.369
-343.391	46.791	0.102	-0.093
-342.377	635.905	-0.035	0.089
-341.362	-113.922	-0.287	-0.055
-340.348	800.000	0.055	0.209
-339.333	218.662	0.185	-0.291
-338.318	93.380	-0.267	-0.299
-337.304	-132.844	0.079	0.010
-336.289	175.140	0.129	0.184
-335.275	-17.895	0.145	0.089
-334.260	56.621	-0.070	-0.067
-333.245	558.588	-0.104	-0.247
-332.231	355.947	-0.084	0.164
-331.216	-104.091	-0.273	0.063
-330.202	-4.707	0.194	0.132
-329.187	800.000	-0.036	0.125
-328.172	-71.191	0.334	0.124
-327.158	-200.000	0.025	-0.171
-326.143	-11.310	0.067	0.044
-325.129	169.211	-0.287	-0.404
-324.114	-73.585	-0.284	0.102
-323.099	308.167	-0.121	-0.223
-322.085	192.761	0.137	-0.204
-321.070	800.000	0.042	0.114
-320.056	-17.720	-0.032	-0.020
-319.041	-131.295	-0.326	0.043
-318.026	294.592	-0.134	0.241
-317.012	54.581	0.196	0.187
-315.997	240.728	0.075	0.123
-314.983	-200.000	-0.389	-0.001
-313.968	38.453	-0.167	-0.147
-312.953	213.925	0.183	0.286
-311.939	56.102	0.045	0.043
-310.924	116.653	0.195	0.236
-309.910	50.852	0.129	-0.121
-308.895	74.652	-0.129	0.134
-307.880	157.462	-0.169	-0.231
-306.866	-52.427	0.073	0.033
-305.851	-200.000	-0.016	-0.114
-304.837	133.426	-0.193	-0.246
-303.822	-200.000	-0.034	0.442
-302.807	-200.000	0.042	0.192
-301.793	-29.677	0.193	-0.108
-300.778	800.000	0.114	-0.417
-299.764	-77.835	0.111	-0.038
-298.749	747.112	-0.030	-0.080
-297.735	-80.628	0.068	-0.022
-296.720	38.312	-0.119	-0.104
-295.705	800.000	0.067	-0.217
-294.691	800.000	-0.064	0.212
-293.676	577.691	-0.093	-0.223
-292.662	97.919	0.049	0.056
-291.647	20.250	-0.050	0.040
-290.632	-27.818	0.212	-0.121
-289.618	-141.269	0.176	0.018
-288.603	-200.000	0.054	-0.353
-287.589	-71.686	-0.209	0.077
-286.574	2.842	-0.247	0.177
-285.559	-16.548	-0.106	0.066
-284.545	-200.000	0.010	0.203
-283.530	-84.897	-0.285	0.088
-282.516	-200.000	0.063	0.315
-281.501	119.337	0.056	0.068
-280.486	169.441	-0.250	-0.352
-279.472	12.218	0.058	0.044
-278.457	4.703	-0.201	0.145
-277.443	2.927	-0.146	0.105
-276.428	-105.488	-0.163	0.037
-275.413	-200.000	-0.022	-0.243
-274.399	-118.419	-0.547	0.096
-273.384	50.885	-0.121	0.113
-272.370	16.584	0.286	0.223
-271.355	800.000	0.083	0.294
-270.340	-33.222	-0.032	-0.017
-269.326	-27.138	-0.150	-0.086
-268.311	-15.852	-0.193	-0.121
-267.297	-200.000	0.047	0.298
-266.282	78.922	-0.097	-0.102
-265.267	37.887	-0.101	-0.089
-264.253	-118.950	0.067	-0.012
-263.238	-146.045	-0.360	0.031
-262.224	-89.119	-0.238	-0.069
-261.209	-137.081	0.266	0.030
-260.195	100.272	0.238	0.271
-259.180	-200.000	0.011	-0.077
-258.165	-84.635	0.081	-0.025
-257.151	800.000	0.057	-0.156
-256.136	120.102	-0.241	0.294
-255.122	-200.000	0.008	0.208
-254.107	-200.000	0.014	0.298
-253.092	-126.170	0.240	-0.035
-252.078	-152.635	-0.200	-0.014
-251.063	-49.522	0.291	-0.136
-250.049	90.843	0.135	0.149
-249.034	-200.000	0.012	0.064
-248.019	800.000	0.056	0.241
-247.005	-200.000	-0.002	0.173
-245.990	-200.000	0.046	0.320
-244.976	-200.000	0.037	-0.270
-243.961	343.582	-0.016	0.031
-242.946	-55.676	-0.270	-0.119
-241.932	800.000	-0.021	0.088
-240.917	525.195	0.149	0.344
-239.903	-67.947	0.107	0.041
-238.888	-94.480	0.167	0.045
-237.873	800.000	-0.073	-0.235
-236.859	-104.278	0.554	0.126
-235.844	142.935	0.370	0.484
-234.830	-81.580	-0.336	0.108
-233.815	-200.000	0.020	-0.186
-232.800	186.751	-0.187	0.273
-231.786	-11.223	0.259	0.167
-230.771	158.958	0.104	0.142
-229.757	87.162	-0.140	0.152
-228.742	157.994	-0.093	0.126
-227.727	-200.000	0.033	-0.272
-226.713	800.000	-0.042	-0.176
-225.698	136.376	-0.196	0.251
-224.684	-154.427	0.265	0.017
-223.669	-130.428	-0.380	-0.051
-222.655	800.000	-0.060	-0.209
-221.640	607.392	0.092	-0.226
-220.625	81.805	-0.070	0.074
-219.611	-35.850	0.077	-0.041
-218.596	-66.711	-0.081	-0.032
-217.582	-200.000	0.029	0.248
-216.567	800.000	0.046	0.132
-215.552	-200.000	-0.007	-0.225
-214.538	14.227	0.033	-0.026
-213.523	47.490	0.185	0.170
-212.509	-200.000	-0.094	0.434
-211.494	48.998	0.131	-0.121
-210.479	-200.000	0.003	-0.111
-209.465	-200.000	0.008	-0.333
-208.450	-200.000	0.019	-0.392
-207.436	334.936	-0.049	-0.093
-206.421	-200.000	-0.004	-0.108
-205.406	-155.433	0.203	-0.013
-204.392	353.660	-0.049	-0.095
-203.377	114.906	-0.140	0.167
-202.363	331.335	-0.098	0.186
-201.348	77.990	0.151	0.158
-200.333	-80.400	0.161	0.053
-199.319	-56.333	-0.151	-0.066
-198.304	-200.000	-0.055	0.290
-197.290	-52.148	0.188	-0.086
-196.275	-118.970	-0.266	-0.046
-195.260	35.118	0.293	-0.252
-194.246	-28.781	-0.084	0.047
-193.231	-7.874	-0.241	-0.160
-192.217	55.265	0.361	-0.343
-191.202	-39.134	-0.274	0.142
-190.187	-159.981	0.155	-0.008
-189.173	-162.916	-0.218	0.010
-188.158	236.223	0.032	-0.051
-187.144	339.272	0.167	-0.320
-186.129	-94.071	-0.267	0.072
-185.114	-125.686	0.282	0.042
-184.100	-150.478	0.650	0.049
-183.085	-2.327	-0.312	0.215
-182.071	-200.000	-0.044	-0.261
-181.056	98.299	-0.083	-0.094
-180.042	324.770	-0.142	-0.266
-179.027	-131.948	0.616	0.079
-178.012	421.113	-0.163	0.344
-176.998	-200.000	-0.043	0.217
-175.983	-166.168	0.438	0.018
-174.969	-133.567	-0.064	-0.008
-173.954	143.816	-0.206	0.269
-172.939	402.632	-0.183	-0.377
-171.925	83.545	0.096	-0.102
-170.910	800.000	0.022	0.082
-169.896	-200.000	0.067	0.304
-168.881	-200.000	-0.069	0.516
-167.866	95.560	-0.112	-0.125
-166.852	529.440	0.038	0.087
-165.837	800.000	0.029	-0.119
-164.823	-21.757	-0.097	-0.058
-163.808	-2.601	-0.178	0.122
-162.793	-168.068	0.209	-0.008
-161.779	-103.956	-0.362	0.083
-160.764	-170.317	0.061	0.002
-159.750	128.256	-0.099	-0.124
-158.735	24.985	0.167	-0.136
-157.720	-196.432	0.248	-0.002
-156.706	10.998	-0.033	-0.025
-155.691	2.980	0.145	0.103
-154.677	-1.875	-0.296	-0.204
-153.662	-14.593	-0.199	0.125
-152.647	-83.221	0.340	-0.107
-151.633	-44.976	-0.214	0.104
-150.618	164.305	-0.103	0.142
-149.604	-170.669	-0.071	-0.002
-148.589	-119.702	0.172	-0.029
-147.574	-200.000	-0.042	-0.217
-146.560	-127.632	0.267	0.038
-145.545	-27.293	-0.204	-0.116
-144.531	116.963	-0.299	0.359
-143.516	-200.000	-0.005	-0.235
-142.502	800.000	-0.024	0.090
-141.487	-200.000	0.018	-0.083
-140.472	-200.000	0.004	0.296
-139.458	459.547	-0.048	0.104
-138.443	292.802	-0.187	0.334
-137.429	-200.000	0.027	-0.133
-136.414	-5.457	0.612	-0.411
-135.399	800.000	0.032	-0.105
-134.385	-63.818	-0.264	0.106
-133.370	800.000	-0.087	0.368
-132.356	-116.513	0.411	-0.074
-131.341	-200.000	0.009	0.262
-130.326	454.039	-0.070	-0.153
-129.312	800.000	-0.111	-0.362
-128.297	-200.000	-0.022	-0.120
-127.283	77.479	0.014	0.015
-126.268	-200.000	0.059	-0.320
-125.253	159.422	-0.157	-0.213
-124.239	530.373	0.059	0.137
-123.224	800.000	-0.058	0.244
-122.210	-15.560	0.371	0.232
-121.195	-66.244	0.312	0.121
-120.180	-179.407	0.263	0.006
-119.166	-200.000	0.020	-0.172
-118.151	-125.671	0.311	0.046
-117.137	-200.000	-0.006	-0.332
-116.122	-200.000	-0.020	0.221
-115.107	61.912	-0.089	0.087
-114.093	800.000	0.081	-0.231
-113.078	-59.694	0.061	0.025
-112.064	-161.572	0.097	-0.005
-111.049	-133.920	0.280	-0.034
-110.034	44.212	0.106	0.095
-109.020	-179.679	-0.323	-0.007
-108.005	84.313	-0.245	0.262
-106.991	-103.023	-0.203	0.047
-105.976	-161.295	0.096	-0.005
-104.962	-200.000	0.061	0.367
-103.947	-46.558	0.273	0.131
-102.932	-25.410	0.097	0.056
-101.918	-121.164	-0.139	0.023
-100.903	-90.174	-0.290	0.082
-99.889	146.337	0.120	-0.158
-98.874	40.689	-0.062	-0.055
-97.859	470.041	-0.068	0.149
-96.845	-200.000	-0.017	-0.230
-95.830	-4.787	-0.250	-0.168
-94.816	130.504	0.156	-0.195
-93.801	800.000	-0.053	0.164
-92.786	-89.647	0.197	-0.057
-91.772	-81.354	0.152	-0.049
-90.757	52.797	0.065	-0.061
-89.743	-197.865	0.222	-0.001
-88.728	78.306	-0.093	-0.097
-87.713	23.361	0.120	0.096
-86.699	312.536	0.107	0.196
-85.684	-198.910	-0.106	-0.001
-84.670	-120.782	0.290	-0.048
-83.655	218.613	-0.105	0.164
-82.640	-7.092	-0.115	-0.076
-81.626	800.000	-0.094	-0.375
-80.611	-200.000	0.030	0.148
-79.597	9.723	-0.198	-0.147
-78.582	369.581	0.051	-0.101
-77.567	800.000	-0.079	0.274
-76.553	-52.560	-0.103	0.046
-75.538	105.643	0.066	0.076
-74.524	-200.000	0.037	0.169
-73.509	184.089	0.055	0.079
-72.494	-200.000	-0.015	-0.144
-71.480	536.981	0.156	-0.363
-70.465	-77.995	0.070	-0.024
-69.451	-46.568	0.288	0.138
-68.436	800.000	0.067	-0.210
-67.422	800.000	0.064	0.241
-66.407	-81.144	0.221	-0.071
-65.392	-6.007	0.213	0.142
-64.378	800.000	-0.051	-0.174
-63.363	-200.000	0.029	-0.253
-62.349	-47.329	-0.159	0.076
-61.334	129.131	-1.221	-1.520
-60.319	96.740	0.772	0.863
-59.305	655.081	-0.590	-1.478
-58.290	800.000	0.404	1.471
-57.276	353.791	0.734	1.422
-56.261	-200.000	136.698	650.335
-55.246	335.537	1663.139	3147.013
-54.232	133.382	2804.282	3537.669
-53.217	76.868	2347.474	2431.578
-52.203	26.247	2090.287	1703.636
-51.188	21.880	2008.647	1597.361
-50.173	20.977	1994.011	1577.486
-49.159	39.057	2071.848	1807.213
-48.144	36.261	2081.258	1789.462
-47.130	22.272	2034.127	1620.978
-46.115	20.362	2022.959	1594.487
-45.100	20.226	2020.401	1591.160
-44.086	20.196	2017.599	1588.617
-43.071	20.159	2015.063	1586.221
-42.057	20.095	2013.038	1583.974
-41.042	20.070	2011.642	1582.590
-40.027	20.157	2009.440	1581.584
-39.013	20.215	2007.441	1580.481
-37.998	20.195	2006.198	1579.257
-36.984	20.193	2004.331	1577.702
-35.969	20.152	2003.018	1576.232
-34.954	20.136	2001.065	1574.487
-33.940	20.244	1999.375	1574.083
-32.925	20.276	1997.693	1572.980
-31.911	20.202	1996.790	1571.537
-30.896	20.250	1994.785	1570.329
-29.881	20.259	1993.224	1569.123
-28.867	20.321	1991.625	1568.360
-27.852	20.356	1989.552	1566.980
-26.838	20.306	1987.797	1565.085
-25.823	20.247	1986.265	1563.285
-24.809	20.307	1984.858	1562.658
-23.794	20.349	1982.585	1561.184
-22.779	20.310	1980.999	1559.524
-21.765	20.291	1979.651	1558.226
-20.750	20.290	1978.113	1556.952
-19.736	20.271	1976.562	1555.491
-18.721	20.273	1974.336	1553.703
-17.706	20.251	1973.216	1552.560
-16.692	20.264	1971.349	1551.143
-15.677	20.216	1969.934	1549.541
-14.663	20.199	1968.687	1548.349
-13.648	20.298	1967.727	1548.416
-12.633	20.270	1966.533	1547.163
-11.619	20.246	1965.169	1545.817
-10.604	20.245	1963.316	1544.289
-9.590	20.292	1961.928	1543.556
-8.575	20.257	1960.984	1542.441
-7.560	20.277	1959.849	1541.660
-6.546	20.218	1958.526	1540.038
-5.531	20.256	1957.040	1539.145
-4.517	20.215	1956.156	1538.026
-3.502	20.213	1954.540	1536.671
-2.487	20.142	1953.427	1535.106
-1.473	20.286	1952.517	1535.605
-0.458	20.244	1947.096	1530.915
0.556	18.919	1926.365	1500.987
1.571	14.315	1907.490	1446.252
2.586	10.396	1930.016	1428.704
3.600	9.471	1964.282	1445.641
4.615	9.511	1955.522	1439.421
5.629	7.541	1856.433	1349.632
6.644	3.129	1747.766	1235.148
7.659	0.826	1717.918	1195.758
8.673	0.607	1715.520	1192.253
9.688	0.643	1714.116	1191.454
10.702	0.698	1712.289	1190.514
11.717	0.553	1708.474	1186.621
12.731	0.859	1706.591	1187.607
13.746	4.334	1713.410	1219.595
14.761	11.034	1727.227	1282.256
15.775	16.040	1736.394	1328.508
16.790	17.184	1737.575	1338.311
17.804	16.277	1734.636	1328.794
18.819	15.397	1731.951	1319.697
19.834	14.821	1729.291	1313.033
20.848	14.504	1727.505	1309.071
21.863	14.349	1725.831	1306.468
22.877	13.994	1724.382	1302.473
23.892	13.850	1723.199	1300.342
24.907	13.700	1721.825	1298.012
25.921	13.722	1720.458	1297.039
26.936	13.626	1719.658	1295.570
27.950	13.691	1719.104	1295.546
28.965	13.811	1718.417	1295.848
29.980	13.810	1717.647	1295.149
30.994	13.730	1716.902	1293.852
32.009	13.829	1715.560	1293.493
33.023	13.930	1714.430	1293.311
34.038	13.929	1713.862	1292.761
35.053	13.977	1712.649	1292.105
36.067	13.936	1711.850	1291.075
37.082	13.844	1710.460	1289.196
38.096	13.837	1709.133	1288.028
39.111	13.899	1708.455	1287.881
40.126	13.904	1708.003	1287.462
41.140	13.786	1707.255	1285.874
42.155	13.723	1705.462	1283.920
43.169	13.718	1704.429	1282.990
44.184	13.701	1702.997	1281.670
45.199	13.639	1701.506	1279.955
46.213	13.638	1700.773	1279.284
47.228	13.650	1699.585	1278.368
48.242	13.702	1698.007	1277.467
49.257	13.796	1696.782	1277.155
50.271	13.769	1695.534	1275.901
51.286	13.663	1694.624	1274.284
52.301	13.812	1692.711	1273.879
53.315	13.739	1691.701	1272.447
54.330	13.793	1689.674	1271.221
55.344	13.765	1688.384	1269.927
56.359	13.778	1686.827	1268.740
57.374	13.627	1685.804	1266.701
58.388	13.714	1685.082	1266.711
59.403	13.693	1683.157	1264.997
60.417	13.551	1681.828	1262.799
61.432	13.689	1680.352	1262.632
62.447	13.604	1679.263	1261.057
63.461	13.612	1677.970	1260.038
64.476	13.617	1676.850	1259.121
65.490	13.571	1675.962	1257.992
66.505	13.637	1674.130	1257.009
67.520	13.621	1673.130	1256.020
68.534	13.653	1672.481	1255.664
69.549	13.637	1671.330	1254.569
70.563	13.646	1669.225	1252.949
71.578	13.626	1668.447	1252.102
72.593	13.673	1667.268	1251.458
73.607	13.708	1665.707	1250.443
74.622	13.554	1664.926	1248.589
75.636	13.516	1664.597	1247.942
76.651	13.528	1663.288	1246.939
77.666	13.551	1662.535	1246.442
78.680	13.472	1661.532	1244.980
79.695	13.480	1660.393	1244.075
80.709	13.594	1659.581	1244.218
81.724	13.612	1658.410	1243.360
82.739	13.658	1657.365	1242.812
83.753	13.624	1656.463	1241.770
84.768	13.691	1655.099	1241.143
85.782	13.717	1654.841	1241.034
86.797	13.818	1653.469	1240.652
87.812	13.691	1652.913	1239.171
88.826	13.756	1651.203	1238.271
89.841	13.818	1649.802	1237.570
90.855	13.745	1648.832	1236.191
91.870	13.777	1647.956	1235.658
92.884	13.789	1646.977	1234.908
93.899	13.869	1645.289	1234.127
94.914	13.930	1643.943	1233.459
95.928	13.880	1642.557	1231.944
96.943	13.854	1642.091	1231.289
97.957	13.778	1640.094	1229.120
98.972	13.773	1638.741	1227.959
99.987	13.832	1637.352	1227.251
101.001	13.787	1635.525	1225.436
102.016	13.832	1633.877	1224.425
103.030	13.826	1632.672	1223.373
104.045	13.738	1631.653	1221.852
105.060	13.837	1629.729	1221.034
106.074	13.742	1628.837	1219.554
107.089	13.756	1626.203	1217.577
108.103	13.728	1625.038	1216.396
109.118	13.700	1623.955	1215.268
110.133	13.643	1622.397	1213.581
111.147	13.749	1620.318	1212.692
112.162	13.700	1619.400	1211.538
113.176	13.658	1618.239	1210.253
114.191	13.739	1616.516	1209.447
115.206	13.724	1615.612	1208.560
116.220	13.783	1614.214	1207.838
117.235	13.744	1612.600	1206.237
118.249	13.764	1610.988	1205.067
119.264	13.709	1610.003	1203.825
120.279	13.703	1608.414	1202.492
121.293	13.727	1607.488	1201.865
122.308	13.728	1605.869	1200.552
123.322	13.699	1604.135	1198.945
124.337	13.629	1603.078	1197.540
125.352	13.688	1601.759	1196.872
126.366	13.671	1600.275	1195.535
127.381	13.580	1598.983	1193.813
128.395	13.715	1597.478	1193.553
129.410	13.626	1596.574	1192.132
130.424	13.748	1594.409	1191.287
131.439	13.735	1593.341	1190.288
132.454	13.667	1592.736	1189.246
133.468	13.765	1590.945	1188.505
134.483	13.789	1589.259	1187.312
135.497	13.842	1587.830	1186.517
136.512	13.721	1586.415	1184.492
137.527	13.687	1585.595	1183.529
138.541	13.736	1584.190	1182.725
139.556	13.809	1582.642	1181.989
140.570	13.753	1581.653	1180.748
141.585	13.845	1579.834	1179.937
142.600	13.884	1578.924	1179.429
143.614	13.926	1577.720	1178.727
144.629	13.935	1576.497	1177.772
145.643	14.003	1574.809	1176.888
146.658	14.013	1573.771	1176.080
147.673	13.931	1571.495	1173.695
148.687	14.033	1570.379	1173.478
149.702	13.972	1568.999	1171.911
150.716	13.899	1567.514	1170.186
151.731	13.979	1566.140	1169.618
152.746	13.981	1564.788	1168.521
153.760	13.890	1563.842	1167.069
154.775	13.924	1562.459	1166.174
155.789	14.033	1560.917	1165.685
156.804	14.039	1559.576	1164.621
157.819	14.013	1558.422	1163.476
158.833	14.075	1557.237	1162.919
159.848	14.167	1555.785	1162.378
160.862	14.071	1554.422	1160.583
161.877	14.107	1553.412	1159.979
162.892	14.131	1552.092	1159.060
163.906	14.068	1551.069	1157.751
164.921	14.052	1549.713	1156.523
165.935	14.024	1548.441	1155.277
166.950	13.979	1547.542	1154.194
167.964	14.174	1546.077	1154.350
168.979	14.222	1545.328	1154.023
169.994	14.049	1544.355	1151.999
171.008	14.133	1542.781	1151.302
172.023	14.099	1542.265	1150.578
173.037	14.128	1540.681	1149.497
174.052	14.293	1539.111	1149.362
175.067	14.286	1538.365	1148.658
176.081	14.167	1537.182	1146.853
177.096	14.198	1535.576	1145.763
178.110	14.147	1534.514	1144.517
179.125	14.111	1533.366	1143.312
180.140	14.057	1532.226	1141.994
181.154	14.132	1531.199	1141.641
182.169	14.286	1529.887	1141.621
183.183	14.244	1528.915	1140.502
184.198	14.351	1527.175	1139.834
185.213	14.241	1526.964	1138.826
186.227	14.229	1525.579	1137.610
187.242	14.333	1524.744	1137.596
188.256	14.365	1523.208	1136.567
189.271	14.362	1521.709	1135.326
190.286	14.454	1520.931	1135.273
191.300	14.375	1519.963	1133.915
192.315	14.330	1518.487	1132.406
193.329	14.185	1517.579	1130.644
194.344	14.309	1515.904	1130.137
195.359	14.305	1515.248	1129.521
196.373	14.283	1514.086	1128.410
197.388	14.318	1513.223	1127.902
198.402	14.327	1512.043	1126.983
199.417	14.438	1510.400	1126.405
200.432	14.468	1509.626	1125.934
201.446	14.539	1508.817	1125.710
202.461	14.534	1507.903	1124.895
203.475	14.628	1506.123	1124.103
204.490	14.593	1505.688	1123.440
205.504	14.556	1504.154	1121.949
206.519	14.526	1503.528	1121.179
207.534	14.566	1502.005	1120.216
208.548	14.488	1500.700	1118.617
209.563	14.657	1499.461	1118.729
210.577	14.615	1498.557	1117.673
211.592	14.519	1498.029	1116.541
212.607	14.633	1496.855	1116.325
213.621	14.683	1496.200	1116.073
214.636	14.727	1495.155	1115.489
215.650	14.714	1494.018	1114.457
216.665	14.771	1492.873	1113.885
217.680	14.695	1492.244	1112.810
218.694	14.852	1491.195	1112.976
219.709	14.877	1490.592	1112.593
220.723	14.910	1489.033	1111.548
221.738	14.907	1488.592	1111.103
222.753	14.736	1487.943	1109.381
223.767	14.840	1486.870	1109.173
224.782	14.821	1485.862	1108.199
225.796	14.866	1484.216	1107.169
226.811	14.932	1483.635	1107.080
227.826	14.873	1483.332	1106.360
228.840	14.873	1482.619	1105.735
229.855	14.883	1481.409	1104.798
230.869	14.882	1480.379	1103.924
231.884	14.935	1478.956	1103.117
232.899	14.903	1477.882	1102.008
233.913	14.984	1476.594	1101.485
234.928	14.844	1475.771	1099.850
235.942	14.862	1474.424	1098.866
236.957	14.902	1473.452	1098.312
237.972	14.920	1472.056	1097.287
238.986	14.934	1470.863	1096.397
240.001	14.942	1470.015	1095.715
241.015	15.056	1468.193	1095.007
242.030	15.042	1467.259	1094.125
243.045	14.988	1466.554	1093.145
244.059	15.063	1465.702	1092.908
245.074	14.982	1465.271	1091.962
246.088	15.072	1464.042	1091.531
247.103	15.005	1463.603	1090.675
248.117	15.114	1462.504	1090.468
249.132	15.188	1461.387	1090.020
250.147	15.180	1460.827	1089.450
251.161	15.225	1460.235	1089.207
252.176	15.267	1459.385	1088.749
253.190	15.291	1458.765	1088.344
254.205	15.339	1457.828	1087.862
255.220	15.367	1456.765	1087.154
256.234	15.408	1456.307	1086.985
257.249	15.523	1455.494	1087.027
258.263	15.394	1454.613	1085.437
259.278	15.397	1453.337	1084.404
260.293	15.397	1452.579	1083.742
261.307	15.477	1451.785	1083.575
262.322	15.541	1450.899	1083.231
263.336	15.568	1450.538	1083.035
264.351	15.586	1449.219	1082.071
265.366	15.563	1448.250	1081.103
266.380	15.573	1447.170	1080.268
267.395	15.623	1446.257	1079.811
268.409	15.542	1445.450	1078.592
269.424	15.581	1444.267	1077.865
270.439	15.560	1443.500	1077.061
271.453	15.590	1442.138	1076.144
272.468	15.613	1441.277	1075.554
273.482	15.610	1440.830	1075.107
274.497	15.589	1439.904	1074.186
275.512	15.664	1439.126	1073.988
276.526	15.677	1437.979	1073.122
277.541	15.748	1436.930	1072.694
278.555	15.673	1435.898	1071.354
279.570	15.680	1435.238	1070.813
280.585	15.642	1434.096	1069.623
281.599	15.734	1433.220	1069.456
282.614	15.831	1432.088	1069.138
283.628	15.821	1431.217	1068.324
284.643	15.789	1430.055	1067.162
285.657	15.807	1429.020	1066.410
286.672	15.774	1428.513	1065.725
287.687	15.837	1427.304	1065.129
288.701	15.744	1426.778	1064.052
289.716	15.794	1425.543	1063.354
290.730	15.955	1424.658	1063.619
291.745	15.912	1423.406	1062.321
292.760	15.808	1423.099	1061.339
293.774	15.963	1421.367	1060.931
294.789	15.876	1420.777	1059.849
295.803	15.959	1419.913	1059.630
296.818	16.045	1418.578	1059.085
297.833	15.920	1417.742	1057.580
298.847	15.981	1416.525	1056.962
299.862	15.914	1415.731	1055.858
300.876	16.128	1414.689	1056.323
301.891	16.023	1414.219	1055.223
302.906	15.954	1413.100	1053.864
303.920	16.080	1412.234	1053.914
304.935	16.197	1411.520	1054.017
305.949	16.144	1410.538	1052.859
306.964	16.171	1409.890	1052.448
307.979	16.367	1408.806	1052.768
308.993	16.243	1407.966	1051.278
310.008	16.178	1406.893	1049.980
311.022	16.208	1406.204	1049.557
312.037	16.220	1405.277	1048.845
313.052	16.274	1403.763	1047.961
314.066	16.260	1402.875	1047.120
315.081	16.292	1401.657	1046.314
316.095	16.203	1401.013	1045.192
317.110	16.157	1400.152	1044.172
318.125	16.123	1399.212	1043.168
319.139	16.238	1397.912	1042.815
320.154	16.382	1396.497	1042.554
321.168	16.323	1395.968	1041.706
322.183	16.294	1394.853	1040.605
323.197	16.378	1393.700	1040.169
324.212	16.276	1393.073	1038.976
325.227	16.394	1391.960	1038.781
326.241	16.344	1391.492	1038.034
327.256	16.482	1390.424	1037.995
328.270	16.329	1389.894	1036.569
329.285	16.370	1389.015	1036.072
330.300	16.377	1388.018	1035.275
331.314	16.460	1386.490	1034.555
332.329	16.436	1385.825	1033.823
333.343	16.353	1385.208	1032.764
334.358	16.466	1383.949	1032.423
335.373	16.448	1383.059	1031.553
336.387	16.531	1382.384	1031.470
337.402	16.483	1381.723	1030.592
338.416	16.555	1381.128	1030.495
339.431	16.533	1380.353	1029.689
340.446	16.661	1379.973	1030.093
341.460	16.618	1378.689	1028.787
342.475	16.624	1377.407	1027.776
343.489	16.696	1376.558	1027.488
344.504	16.706	1375.754	1026.858
345.519	16.736	1374.757	1026.202
346.533	16.764	1373.612	1025.424
347.548	16.706	1373.535	1024.924
348.562	16.794	1372.283	1024.434
349.577	16.781	1371.783	1023.892
350.592	16.811	1370.976	1023.379
351.606	16.736	1369.960	1022.080
352.621	16.749	1368.612	1021.063
353.635	16.786	1367.822	1020.606
354.650	16.781	1366.756	1019.690
355.665	16.744	1365.848	1018.698
356.679	16.847	1365.031	1018.618
357.694	16.738	1364.081	1017.161
358.708	16.825	1362.901	1016.714
359.723	16.842	1361.544	1015.718
360.738	16.913	1360.264	1015.098
361.752	16.974	1359.188	1014.567
362.767	16.968	1358.006	1013.558
363.781	16.838	1358.015	1012.702
364.796	16.963	1356.913	1012.537
365.810	16.994	1355.990	1011.941
366.825	16.987	1355.516	1011.459
367.840	17.022	1354.636	1010.918
368.854	17.141	1353.535	1010.714
369.869	17.120	1353.190	1010.244
370.883	17.097	1352.260	1009.323
371.898	17.119	1351.959	1009.139
372.913	17.133	1350.939	1008.371
373.927	17.164	1349.480	1007.381
374.942	17.146	1349.237	1007.004
375.956	17.103	1348.704	1006.262
376.971	17.196	1347.650	1005.935
377.986	17.162	1346.673	1004.915
379.000	17.198	1345.995	1004.534
380.015	17.297	1344.957	1004.253
381.029	17.272	1344.407	1003.606
382.044	17.399	1343.439	1003.546
383.059	17.334	1342.727	1002.543
384.073	17.374	1341.986	1002.135
385.088	17.363	1341.057	1001.290
386.102	17.344	1340.635	1000.774
387.117	17.362	1340.105	1000.394
388.132	17.393	1339.002	999.666
389.146	17.332	1338.608	998.926
390.161	17.385	1337.550	998.359
391.175	17.428	1336.524	997.756
392.190	17.410	1335.669	996.921
393.205	17.455	1334.613	996.312
394.219	17.420	1333.982	995.546
395.234	17.484	1332.745	994.908
396.248	17.597	1330.756	993.993
397.263	17.544	1329.584	992.725
398.278	17.517	1328.244	991.479
399.292	17.540	1327.418	990.905
400.307	17.379	1326.836	989.447
401.321	17.507	1325.547	989.146
402.336	17.450	1324.562	987.992
403.350	17.447	1323.595	987.162
404.365	17.503	1322.621	986.677
405.380	17.558	1321.861	986.341
406.394	17.524	1321.003	985.416
407.409	17.578	1320.387	985.180
408.423	17.619	1319.452	984.634
409.438	17.629	1318.639	983.995
410.453	17.672	1317.813	983.540
411.467	17.785	1316.934	983.449
412.482	17.722	1316.428	982.623
413.496	17.760	1315.666	982.187
414.511	17.771	1315.044	981.699
415.526	17.751	1314.343	980.973
416.540	17.836	1313.739	980.924
417.555	17.932	1313.045	980.867
418.569	17.893	1312.588	980.216
419.584	17.927	1311.907	979.816
420.599	17.839	1311.764	979.116
421.613	101.908	1364.517	1492.534
422.628	100.382	1372.105	1492.608
