DTS Sentinel unit serial number:	SN413079Multiplexer serial number:	ORYXHardware model number:	OX4-SRSoftware version number:	ORYX F/W v4.00 Oryx Data Collector v3.7.2.0data status	okinstallation	princeton_trtdifferential loss correction	single-endedforward channel	channel 4reverse channel	N/Adate	2019/09/19time	05:57:35forward acquisition time	60.00reverse acquisition time	0.00gamma	496.2192k internal	0.2340k external	0.2340temperature offset calibration	1.0030default loss term (dB/km)	0.3790temperature slope calibration	1.0000multiplexer offset coefficient	1.0000multiplexer slope coefficient	1.0000fibre end	0.00T internal ref (°C)	19.17T ext. ref 1 (°C)	0.58T ext. ref 2 (°C)	12.82length (m)	temperature (°C)	Stokes	anti-Stokes-747.200	4.912	0.174	0.129
-746.185	2.561	0.299	0.217
-745.171	458.584	0.157	0.351
-744.156	-118.004	-0.103	0.018
-743.142	-35.823	0.428	-0.233
-742.127	43.831	-0.038	-0.035
-741.112	624.067	-0.033	0.083
-740.098	-11.030	-0.139	0.092
-739.083	14.688	0.358	0.280
-738.069	331.098	-0.046	0.088
-737.054	-71.139	0.229	0.086
-736.039	-114.298	-0.395	-0.076
-735.025	-199.257	0.209	-0.001
-734.010	-111.718	-0.225	-0.046
-732.996	643.003	-0.066	-0.168
-731.981	496.151	-0.188	-0.434
-730.966	-134.774	-0.221	0.027
-729.952	-134.908	-0.531	0.064
-728.937	355.867	-0.150	-0.299
-727.923	-200.000	-0.020	-0.129
-726.908	361.548	-0.081	-0.162
-725.894	-200.000	-0.076	-0.447
-724.879	-125.175	0.025	0.004
-723.864	-200.000	-0.077	-0.481
-722.850	363.974	-0.141	0.284
-721.835	234.665	-0.056	-0.092
-720.821	-200.000	-0.023	0.118
-719.806	-123.298	-0.537	-0.086
-718.791	800.000	0.083	0.247
-717.777	-125.205	-0.387	-0.059
-716.762	164.475	-0.107	0.151
-715.748	100.768	-0.048	-0.056
-714.733	-200.000	0.051	-0.309
-713.718	72.739	-0.174	-0.182
-712.704	-3.882	0.049	0.034
-711.689	-200.000	-0.032	-0.393
-710.675	11.059	-0.257	-0.197
-709.660	-24.257	-0.187	-0.112
-708.645	-11.852	0.229	0.151
-707.631	534.541	0.050	0.119
-706.616	97.050	0.120	0.138
-705.602	402.869	0.062	0.131
-704.587	-93.155	0.287	-0.080
-703.572	516.095	-0.073	-0.171
-702.558	7.505	0.138	-0.104
-701.543	-122.688	-0.244	0.040
-700.529	-200.000	-0.009	-0.067
-699.514	155.355	0.098	-0.135
-698.499	749.340	0.102	-0.275
-697.485	259.383	0.121	-0.209
-696.470	32.654	0.055	-0.047
-695.456	-200.000	-0.039	-0.211
-694.441	431.325	-0.044	0.095
-693.426	-78.048	-0.367	-0.126
-692.412	-200.000	0.048	-0.252
-691.397	47.711	0.125	-0.116
-690.383	-3.947	0.152	0.106
-689.368	113.437	-0.088	0.106
-688.354	583.594	-0.058	0.143
-687.339	126.529	0.219	-0.278
-686.324	-155.567	-0.305	-0.020
-685.310	167.343	-0.205	0.292
-684.295	105.653	0.303	0.358
-683.281	-176.956	-0.122	-0.003
-682.266	-200.000	0.023	-0.127
-681.251	216.315	-0.076	-0.122
-680.237	800.000	-0.016	-0.068
-679.222	-51.554	0.248	0.116
-678.208	-76.254	0.027	0.009
-677.193	-83.157	-0.392	0.126
-676.178	-200.000	0.019	0.265
-675.164	120.974	-0.133	-0.166
-674.149	-200.000	-0.021	-0.221
-673.135	-200.000	0.002	-0.011
-672.120	-200.000	0.040	-0.364
-671.105	120.592	0.141	0.175
-670.091	-33.938	0.209	0.115
-669.076	477.532	-0.134	-0.303
-668.062	-29.513	0.277	-0.158
-667.047	800.000	-0.086	-0.265
-666.032	74.162	-0.140	0.147
-665.018	8.913	0.242	0.183
-664.003	-200.000	0.008	0.232
-662.989	36.440	-0.101	-0.089
-661.974	-187.363	-0.094	-0.001
-660.959	800.000	-0.088	0.276
-659.945	-31.087	-0.071	-0.040
-658.930	-200.000	-0.135	0.000
-657.916	-200.000	0.016	-0.205
-656.901	-200.000	-0.004	-0.174
-655.886	-20.799	-0.214	0.131
-654.872	800.000	-0.029	-0.097
-653.857	19.127	-0.159	-0.127
-652.843	697.772	-0.025	0.066
-651.828	-200.000	-0.029	0.145
-650.814	428.711	-0.206	-0.446
-649.799	-124.434	-0.121	-0.019
-648.784	-90.676	-0.109	-0.032
-647.770	-148.502	-0.309	-0.025
-646.755	800.000	-0.080	-0.336
-645.741	376.328	0.078	-0.159
-644.726	-36.336	-0.328	0.177
-643.711	226.669	0.147	0.238
-642.697	-37.536	-0.150	0.080
-641.682	-35.821	0.087	0.047
-640.668	29.356	-0.128	0.109
-639.653	70.278	-0.036	0.037
-638.638	-200.000	-0.005	-0.254
-637.624	-62.589	-0.405	-0.168
-636.609	710.229	-0.088	-0.231
-635.595	-24.698	0.103	0.061
-634.580	15.263	-0.197	-0.154
-633.565	716.186	-0.026	-0.068
-632.551	-200.000	-0.028	-0.127
-631.536	228.352	0.184	-0.300
-630.522	159.223	-0.242	-0.336
-629.507	654.512	-0.106	-0.270
-628.492	49.848	-0.311	-0.293
-627.478	6.686	0.185	0.137
-626.463	-82.995	-0.392	-0.126
-625.449	275.869	0.204	-0.361
-624.434	142.769	-0.006	-0.008
-623.419	-200.000	-0.051	-0.365
-622.405	-86.271	0.072	-0.022
-621.390	12.937	-0.119	-0.092
-620.376	-174.728	-0.230	-0.006
-619.361	-200.000	-0.004	0.250
-618.346	-200.000	0.052	-0.228
-617.332	-107.364	-0.130	-0.028
-616.317	199.590	0.013	0.019
-615.303	179.131	-0.079	0.115
-614.288	-200.000	0.003	0.151
-613.273	746.339	-0.152	0.409
-612.259	-15.304	0.196	0.125
-611.244	-160.537	-0.157	0.008
-610.230	180.595	-0.079	0.115
-609.215	-42.974	0.132	-0.067
-608.201	800.000	0.073	-0.305
-607.186	-200.000	0.026	-0.289
-606.171	-182.774	0.130	-0.002
-605.157	-153.009	-0.134	-0.009
-604.142	340.968	-0.036	0.071
-603.128	-109.390	-0.458	0.097
-602.113	-200.000	0.080	-0.419
-601.098	37.867	-0.197	-0.174
-600.084	-141.519	0.199	0.020
-599.069	-200.000	0.011	-0.074
-598.055	-146.974	-0.205	0.018
-597.040	62.508	-0.123	-0.122
-596.025	800.000	0.115	0.319
-595.011	-81.310	-0.188	-0.062
-593.996	8.714	-0.224	0.168
-592.982	800.000	0.055	0.198
-591.967	-154.658	-0.154	-0.010
-590.952	41.182	0.098	0.088
-589.938	-163.587	0.128	-0.006
-588.923	-200.000	-0.005	-0.045
-587.909	24.902	0.225	0.185
-586.894	-78.737	-0.180	-0.061
-585.879	-200.000	-0.004	-0.186
-584.865	-70.588	-0.145	0.055
-583.850	105.299	-0.334	-0.393
-582.836	240.808	-0.205	-0.340
-581.821	-200.000	-0.042	-0.344
-580.806	465.069	-0.194	0.431
-579.792	-102.762	0.248	-0.059
-578.777	-200.000	0.003	0.238
-577.763	-83.828	-0.339	-0.108
-576.748	-35.838	0.198	0.107
-575.733	-46.326	-0.235	-0.115
-574.719	355.151	-0.103	0.205
-573.704	17.747	0.128	-0.101
-572.690	32.642	0.106	0.092
-571.675	-123.493	-0.223	0.035
-570.661	711.024	-0.061	-0.160
-569.646	-83.375	-0.403	-0.129
-568.631	-200.000	-0.018	-0.164
-567.617	-47.817	-0.261	-0.126
-566.602	800.000	-0.087	-0.266
-565.588	-62.462	0.182	-0.075
-564.573	565.708	-0.122	-0.293
-563.558	294.313	0.047	0.086
-562.544	-89.575	-0.074	-0.022
-561.529	-4.723	-0.154	0.105
-560.515	588.106	0.079	0.194
-559.500	71.128	-0.210	-0.216
-558.485	165.929	0.049	-0.069
-557.471	111.352	-0.044	0.053
-556.456	-19.503	-0.117	0.072
-555.442	-188.426	0.193	0.002
-554.427	72.608	0.044	0.046
-553.412	178.318	0.088	-0.127
-552.398	-70.476	0.310	0.117
-551.383	-137.334	0.206	-0.023
-550.369	136.698	0.110	-0.143
-549.354	-31.211	-0.074	0.042
-548.339	-200.000	-0.041	-0.181
-547.325	-63.529	-0.280	-0.114
-546.310	-200.000	0.052	0.234
-545.296	135.262	-0.310	0.401
-544.281	-200.000	-0.045	-0.445
-543.266	-66.566	0.270	-0.107
-542.252	-21.736	-0.223	-0.135
-541.237	29.906	0.188	0.159
-540.223	800.000	-0.062	0.211
-539.208	-113.443	0.033	-0.006
-538.193	-95.271	-0.407	0.109
-537.179	-16.284	0.231	0.146
-536.164	-19.034	-0.058	0.036
-535.150	-100.421	0.250	0.062
-534.135	248.043	-0.034	0.057
-533.121	-90.649	-0.071	-0.020
-532.106	-162.038	0.262	-0.013
-531.091	-91.969	-0.243	-0.068
-530.077	110.615	-0.253	0.302
-529.062	20.879	-0.170	0.137
-528.048	17.539	-0.115	0.091
-527.033	-111.338	0.037	0.008
-526.018	-18.928	0.037	-0.023
-525.004	-99.890	0.418	0.104
-523.989	-46.556	-0.367	0.179
-522.975	-6.141	-0.196	-0.133
-521.960	-173.328	0.130	-0.004
-520.945	-152.887	0.127	0.009
-519.931	-71.841	0.067	0.025
-518.916	-102.889	-0.205	0.049
-517.902	800.000	0.080	-0.245
-516.887	-165.792	-0.198	0.008
-515.872	-200.000	-0.015	-0.214
-514.858	-14.087	0.098	0.063
-513.843	800.000	-0.097	-0.303
-512.829	138.366	0.152	0.198
-511.814	-75.256	0.244	0.087
-510.799	29.843	-0.220	-0.186
-509.785	-67.162	-0.461	0.180
-508.770	-72.410	0.280	0.103
-507.756	511.470	-0.089	0.206
-506.741	-4.281	0.154	0.106
-505.726	-94.747	0.243	-0.066
-504.712	800.000	0.132	0.419
-503.697	-67.058	-0.040	-0.016
-502.683	-66.390	0.114	-0.045
-501.668	58.744	0.102	-0.099
-500.653	-115.354	0.235	-0.044
-499.639	800.000	0.075	0.252
-498.624	-14.153	-0.180	0.116
-497.610	-13.788	-0.494	-0.317
-496.595	279.417	0.120	0.213
-495.581	-200.000	-0.007	0.081
-494.566	800.000	0.073	-0.237
-493.551	-7.972	-0.163	0.109
-492.537	-52.116	0.276	0.127
-491.522	-111.457	-0.092	0.019
-490.508	-73.616	0.318	-0.115
-489.493	194.268	0.058	0.087
-488.478	-200.000	0.002	0.022
-487.464	-66.803	0.169	-0.066
-486.449	289.981	0.047	-0.085
-485.435	-155.004	0.153	0.010
-484.420	291.460	0.163	0.295
-483.405	50.439	0.148	-0.139
-482.391	-131.916	0.119	0.015
-481.376	-153.479	-0.408	-0.028
-480.362	-200.000	-0.001	0.132
-479.347	173.535	-0.133	-0.190
-478.332	134.077	-0.290	0.372
-477.318	-11.234	-0.243	0.159
-476.303	-116.458	-0.161	0.030
-475.289	2.779	-0.167	0.120
-474.274	-53.743	0.249	0.113
-473.259	-99.352	0.203	-0.051
-472.245	-51.445	0.370	0.172
-471.230	-61.165	-0.271	0.113
-470.216	290.351	-0.068	-0.123
-469.201	100.897	0.065	0.075
-468.186	800.000	-0.034	-0.138
-467.172	-200.000	-0.013	0.184
-466.157	-142.355	-0.226	0.022
-465.143	-121.072	0.086	-0.014
-464.128	-9.913	-0.336	0.222
-463.113	-68.760	-0.125	0.048
-462.099	-167.860	-0.090	-0.004
-461.084	-200.000	-0.008	-0.250
-460.070	-200.000	0.025	0.112
-459.055	48.173	0.159	0.147
-458.040	-54.789	0.364	0.163
-457.026	800.000	-0.085	-0.238
-456.011	20.598	-0.054	0.043
-454.997	467.506	0.123	-0.274
-453.982	417.364	0.132	0.279
-452.968	21.369	-0.266	0.215
-451.953	156.246	-0.074	-0.101
-450.938	-113.669	0.210	-0.041
-449.924	-131.138	0.112	-0.015
-448.909	94.718	0.151	0.170
-447.895	-148.038	-0.223	-0.018
-446.880	-58.163	0.526	0.227
-445.865	-1.424	-0.190	-0.133
-444.851	-200.000	0.004	0.242
-443.836	-200.000	0.007	0.226
-442.822	-102.590	0.398	-0.094
-441.807	360.942	-0.192	-0.381
-440.792	213.271	-0.085	0.132
-439.778	-55.015	-0.059	-0.027
-438.763	153.888	-0.120	0.163
-437.749	-93.414	-0.052	-0.014
-436.734	91.595	0.046	-0.051
-435.719	-123.804	0.192	0.030
-434.705	-138.213	0.240	-0.026
-433.690	-135.118	-0.439	0.052
-432.676	50.361	0.125	0.117
-431.661	-21.678	0.098	0.059
-430.646	576.731	-0.082	-0.199
-429.632	-200.000	-0.016	-0.396
-428.617	716.390	-0.087	0.229
-427.603	332.676	-0.043	-0.082
-426.588	-75.539	0.262	0.092
-425.573	-4.281	0.358	-0.245
-424.559	-108.865	-0.150	-0.032
-423.544	800.000	0.040	0.112
-422.530	800.000	-0.096	-0.277
-421.515	47.379	-0.122	-0.112
-420.500	800.000	-0.040	-0.150
-419.486	135.276	0.190	-0.244
-418.471	2.467	0.224	-0.161
-417.457	61.483	-0.137	0.135
-416.442	-200.000	0.010	0.386
-415.428	-150.872	0.414	0.031
-414.413	-200.000	0.020	0.131
-413.398	390.119	0.139	-0.284
-412.384	-144.767	-0.307	-0.028
-411.369	72.017	0.088	0.091
-410.355	-31.358	0.067	0.038
-409.340	718.950	-0.106	-0.280
-408.325	534.732	-0.061	0.144
-407.311	-16.149	0.231	0.145
-406.296	-200.000	0.080	0.560
-405.282	296.075	-0.097	0.177
-404.267	4.779	-0.113	-0.082
-403.252	-200.000	-0.036	0.493
-402.238	-200.000	0.019	0.115
-401.223	-83.760	-0.194	0.061
-400.209	-200.000	0.023	-0.300
-399.194	-140.254	-0.108	-0.011
-398.179	-200.000	-0.031	-0.417
-397.165	221.698	-0.060	0.095
-396.150	562.750	0.039	0.093
-395.136	800.000	0.051	-0.220
-394.121	-32.440	0.204	-0.113
-393.106	-200.000	-0.067	-0.379
-392.092	-31.449	0.136	0.076
-391.077	167.990	0.138	0.194
-390.063	-21.327	0.068	0.041
-389.048	21.843	-0.314	0.253
-388.033	-200.000	0.093	0.458
-387.019	-156.531	-0.147	-0.009
-386.004	-37.469	-0.326	0.172
-384.990	-167.005	-0.340	-0.014
-383.975	-200.000	-0.009	0.291
-382.960	-151.906	0.236	0.017
-381.946	-64.806	-0.141	0.056
-380.931	270.565	0.093	0.163
-379.917	-58.712	0.207	0.088
-378.902	-181.541	0.068	-0.001
-377.888	127.739	-0.116	-0.146
-376.873	800.000	0.068	-0.239
-375.858	-25.162	0.155	-0.091
-374.844	-32.619	0.276	-0.152
-373.829	557.726	-0.051	0.123
-372.815	13.320	0.099	0.076
-371.800	-0.792	0.383	0.268
-370.785	158.028	0.113	0.154
-369.771	-123.761	0.195	0.030
-368.756	-150.875	-0.255	-0.019
-367.742	-121.359	-0.234	0.038
-366.727	-74.695	-0.263	0.093
-365.712	23.741	0.114	0.093
-364.698	800.000	0.050	0.196
-363.683	-22.641	0.265	0.158
-362.669	29.482	0.103	0.086
-361.654	14.611	0.312	0.241
-360.639	75.248	-0.138	0.144
-359.625	80.451	-0.123	0.131
-358.610	-200.000	-0.019	0.267
-357.596	-200.000	-0.039	-0.226
-356.581	205.318	-0.151	-0.231
-355.566	-200.000	-0.013	0.211
-354.552	800.000	-0.044	0.171
-353.537	-191.366	0.318	-0.003
-352.523	206.780	-0.194	-0.299
-351.508	691.744	0.111	-0.288
-350.493	-200.000	0.051	0.293
-349.479	73.357	-0.043	-0.045
-348.464	10.201	-0.060	0.045
-347.450	-106.213	0.150	-0.033
-346.435	-100.332	-0.223	0.055
-345.420	-106.315	0.114	-0.025
-344.406	800.000	0.053	-0.161
-343.391	-148.853	0.096	0.008
-342.377	54.176	-0.069	0.065
-341.362	-153.502	-0.168	0.011
-340.348	157.344	0.144	0.196
-339.333	0.558	-0.186	0.132
-338.318	34.896	0.121	-0.105
-337.304	-121.196	-0.258	0.043
-336.289	-145.663	-0.333	0.029
-335.275	127.353	0.189	0.236
-334.260	24.360	-0.126	0.102
-333.245	-140.446	0.412	-0.042
-332.231	-46.356	0.497	-0.241
-331.216	800.000	-0.054	-0.224
-330.202	-200.000	-0.014	0.300
-329.187	-122.726	0.340	0.054
-328.172	-200.000	-0.008	-0.101
-327.158	153.114	0.311	-0.420
-326.143	-121.002	0.343	-0.057
-325.129	114.821	-0.196	0.236
-324.114	-110.068	0.119	0.024
-323.099	-34.545	-0.271	0.146
-322.085	-200.000	-0.032	0.240
-321.070	692.831	-0.125	-0.323
-320.056	760.851	-0.095	-0.253
-319.041	183.993	-0.123	0.179
-318.026	800.000	0.084	-0.242
-317.012	-200.000	0.073	-0.315
-315.997	-200.000	0.023	0.287
-314.983	-56.710	-0.257	0.112
-313.968	-71.417	-0.218	0.081
-312.953	-143.246	-0.115	-0.011
-311.939	-144.242	0.395	-0.036
-310.924	292.422	0.063	0.113
-309.910	4.648	-0.153	0.110
-308.895	33.724	-0.222	-0.190
-307.880	-200.000	-0.047	-0.359
-306.866	-200.000	-0.001	-0.102
-305.851	-200.000	0.056	0.332
-304.837	-80.096	0.363	-0.120
-303.822	-200.000	-0.022	0.214
-302.807	-72.222	-0.032	-0.012
-301.793	48.172	0.238	-0.219
-300.778	29.043	-0.128	-0.107
-299.764	-200.000	-0.018	-0.365
-298.749	12.967	0.161	0.123
-297.735	174.264	0.131	0.186
-296.720	-200.000	0.036	-0.226
-295.705	47.309	0.250	-0.229
-294.691	-200.000	-0.017	-0.081
-293.676	228.562	0.040	-0.065
-292.662	-136.610	0.123	-0.014
-291.647	-36.706	-0.109	0.058
-290.632	800.000	0.056	0.236
-289.618	642.355	-0.065	0.163
-288.603	-200.000	-0.008	-0.390
-287.589	32.149	-0.148	0.126
-286.574	52.264	-0.189	-0.177
-285.559	0.608	0.216	0.152
-284.545	800.000	0.114	0.406
-283.530	-60.238	-0.399	-0.167
-282.516	-93.354	0.253	-0.069
-281.501	-82.178	0.271	0.087
-280.486	-64.574	0.150	0.060
-279.472	-16.535	-0.299	-0.186
-278.457	-6.356	0.102	0.069
-277.443	169.868	-0.073	-0.103
-276.428	203.094	-0.074	0.112
-275.413	800.000	-0.077	0.226
-274.399	-129.154	-0.229	-0.032
-273.384	-200.000	0.021	-0.139
-272.370	-0.109	0.070	0.049
-271.355	141.461	-0.194	0.252
-270.340	-200.000	0.010	-0.257
-269.326	15.529	0.249	-0.193
-268.311	-67.863	0.028	0.011
-267.297	-200.000	0.001	0.089
-266.282	30.116	0.268	0.225
-265.267	-200.000	0.074	-0.409
-264.253	-39.511	-0.178	-0.092
-263.238	-20.408	-0.437	0.265
-262.224	200.106	-0.024	-0.036
-261.209	178.069	0.112	-0.161
-260.195	-42.293	0.273	0.137
-259.180	65.833	-0.232	0.231
-258.165	4.887	-0.171	-0.124
-257.151	-43.929	-0.112	-0.055
-256.136	59.371	0.296	0.287
-255.122	-2.824	0.208	0.143
-254.107	268.759	0.043	0.074
-253.092	197.978	0.072	0.109
-252.078	-179.787	-0.094	-0.002
-251.063	-200.000	0.023	0.226
-250.049	419.120	-0.072	-0.152
-249.034	-40.810	0.146	0.074
-248.019	-200.000	-0.027	0.156
-247.005	-200.000	0.036	-0.292
-245.990	337.419	0.140	-0.268
-244.976	581.596	0.075	-0.182
-243.961	20.207	0.076	0.060
-242.946	735.011	-0.033	-0.086
-241.932	365.117	0.101	-0.200
-240.917	37.415	0.105	0.092
-239.903	-39.485	0.122	-0.063
-238.888	150.553	0.125	0.166
-237.873	-200.000	-0.001	0.023
-236.859	176.309	0.087	-0.124
-235.844	-159.573	0.251	0.014
-234.830	47.080	0.096	0.088
-233.815	-69.976	0.536	-0.201
-232.800	210.025	0.127	0.196
-231.786	226.141	-0.088	-0.140
-230.771	242.882	0.090	0.148
-229.757	-95.456	-0.164	-0.043
-228.742	-200.000	0.012	-0.222
-227.727	121.270	-0.091	0.112
-226.713	800.000	0.003	0.011
-225.698	-200.000	-0.001	-0.182
-224.684	-81.495	0.235	-0.076
-223.669	800.000	-0.077	0.236
-222.655	243.437	0.116	-0.192
-221.640	-95.955	0.073	0.019
-220.625	-200.000	-0.024	-0.170
-219.611	-200.000	0.072	0.444
-218.596	129.407	0.215	0.269
-217.582	216.604	0.144	-0.225
-216.567	-146.878	0.424	-0.036
-215.552	800.000	0.094	-0.316
-214.538	271.802	-0.043	-0.074
-213.523	800.000	0.021	0.071
-212.509	-11.186	0.072	0.047
-211.494	675.285	0.143	-0.365
-210.479	800.000	0.107	-0.332
-209.465	-53.637	-0.354	0.159
-208.450	-200.000	0.020	0.173
-207.436	170.585	0.110	-0.155
-206.421	-130.892	0.145	0.019
-205.406	371.996	-0.182	-0.363
-204.392	800.000	-0.030	-0.097
-203.377	58.477	0.100	0.096
-202.363	243.149	0.107	-0.176
-201.348	-24.253	0.260	-0.152
-200.333	-200.000	-0.032	0.375
-199.319	800.000	0.068	-0.288
-198.304	800.000	0.036	0.151
-197.290	-5.486	-0.424	0.286
-196.275	-20.457	0.205	0.124
-195.260	-100.667	-0.107	-0.026
-194.246	800.000	0.044	0.125
-193.231	2.924	-0.033	-0.024
-192.217	-200.000	-0.006	-0.094
-191.202	-95.732	0.302	-0.079
-190.187	-118.551	0.168	0.029
-189.173	800.000	-0.052	0.142
-188.158	-46.045	0.225	0.109
-187.144	542.867	-0.130	-0.305
-186.129	-65.293	0.111	-0.044
-185.114	-200.000	0.046	0.337
-184.100	-95.116	-0.195	-0.052
-183.085	213.851	0.074	0.115
-182.071	-20.933	0.155	-0.093
-181.056	98.226	0.249	-0.281
-180.042	800.000	0.009	0.026
-179.027	-200.000	-0.016	-0.161
-178.012	-175.691	-0.156	-0.004
-176.998	5.274	-0.376	0.272
-175.983	651.403	-0.053	0.134
-174.969	412.139	0.160	0.333
-173.954	-200.000	-0.014	0.098
-172.939	-54.324	0.069	-0.031
-171.925	36.064	0.101	0.087
-170.910	-98.736	-0.235	0.059
-169.896	258.842	-0.166	0.281
-168.881	643.755	0.101	-0.251
-167.866	110.919	-0.195	-0.230
-166.852	27.021	-0.108	-0.089
-165.837	60.245	-0.096	-0.093
-164.823	-52.566	-0.196	0.089
-163.808	163.906	-0.119	-0.164
-162.793	-200.000	-0.026	0.139
-161.779	-19.176	-0.242	-0.147
-160.764	94.819	0.275	-0.307
-159.750	800.000	-0.073	-0.296
-158.735	-53.297	-0.208	-0.093
-157.720	240.334	0.050	0.082
-156.706	-158.375	-0.251	0.014
-155.691	-126.334	-0.247	-0.036
-154.677	-200.000	0.027	0.155
-153.662	-200.000	0.012	-0.228
-152.647	305.228	0.109	0.198
-151.633	26.683	0.248	0.203
-150.618	10.874	-0.106	-0.079
-149.604	-200.000	-0.011	-0.128
-148.589	-66.361	0.067	0.026
-147.574	-68.570	0.258	-0.098
-146.560	-85.049	0.246	0.075
-145.545	-47.201	0.173	0.083
-144.531	800.000	0.016	-0.051
-143.516	122.724	0.102	-0.124
-142.502	-200.000	0.026	-0.209
-141.487	-200.000	-0.040	-0.262
-140.472	402.312	0.100	-0.206
-139.458	463.043	-0.040	-0.088
-138.443	47.423	-0.170	-0.155
-137.429	-200.000	-0.033	-0.149
-136.414	64.543	0.211	-0.209
-135.399	454.699	-0.126	0.274
-134.385	-10.077	-0.046	-0.030
-133.370	47.001	0.088	0.080
-132.356	-47.913	0.085	0.040
-131.341	-113.803	0.145	0.028
-130.326	-167.724	-0.323	-0.013
-129.312	30.807	-0.194	-0.163
-128.297	-140.146	0.479	-0.049
-127.283	-200.000	0.071	0.418
-126.268	-44.176	0.348	0.171
-125.253	-26.127	0.115	0.066
-124.239	421.758	0.103	0.216
-123.224	-138.655	0.146	-0.016
-122.210	-102.121	-0.331	0.078
-121.195	-153.909	0.253	0.017
-120.180	182.281	-0.251	0.363
-119.166	-71.272	0.425	0.156
-118.151	466.098	-0.116	-0.255
-117.137	37.053	-0.064	0.056
-116.122	-88.226	0.277	-0.081
-115.107	227.696	-0.218	-0.347
-114.093	-171.066	-0.337	0.011
-113.078	-200.000	-0.018	0.223
-112.064	-104.742	-0.022	0.005
-111.049	-200.000	0.027	-0.483
-110.034	661.697	0.062	0.157
-109.020	379.839	0.185	0.371
-108.005	282.138	0.132	0.231
-106.991	-76.173	-0.231	-0.080
-105.976	800.000	-0.162	-0.619
-104.962	55.170	0.263	0.249
-103.947	292.260	-0.056	0.099
-102.932	-200.000	-0.004	0.099
-101.918	392.653	-0.146	0.298
-100.903	248.197	-0.059	-0.098
-99.889	-58.314	-0.182	-0.078
-98.874	-7.280	-0.005	0.004
-97.859	-89.108	0.060	-0.017
-96.845	220.040	0.097	0.151
-95.830	85.473	0.112	0.120
-94.816	138.835	-0.095	-0.121
-93.801	800.000	0.076	0.222
-92.786	800.000	-0.010	0.027
-91.772	-200.000	-0.024	-0.136
-90.757	605.192	0.074	-0.179
-89.743	25.118	0.129	0.105
-88.728	-95.174	-0.449	0.118
-87.713	675.192	-0.023	-0.059
-86.699	378.629	0.054	-0.108
-85.684	-65.325	0.371	-0.146
-84.670	-172.456	-0.307	0.010
-83.655	-79.905	-0.183	-0.060
-82.640	-147.227	-0.017	-0.001
-81.626	-198.847	-0.179	0.001
-80.611	-86.396	0.194	0.058
-79.597	300.967	0.043	-0.077
-78.582	94.485	0.165	-0.183
-77.567	-145.767	-0.342	-0.030
-76.553	90.976	0.143	-0.157
-75.538	300.737	0.139	0.250
-74.524	139.598	-0.031	0.040
-73.509	-57.124	-0.169	-0.073
-72.494	-92.254	0.213	0.059
-71.480	-141.927	0.097	-0.009
-70.465	352.270	0.129	-0.249
-69.451	243.503	-0.106	-0.174
-68.436	398.276	0.034	-0.069
-67.422	21.000	0.102	-0.081
-66.407	110.705	-0.228	-0.268
-65.392	91.384	-0.102	0.112
-64.378	66.052	0.042	-0.042
-63.363	-170.107	-0.314	0.011
-62.349	725.401	0.115	0.300
-61.334	43.451	-1.085	-0.968
-60.319	90.606	0.691	0.756
-59.305	157.902	-1.029	-1.391
-58.290	244.178	0.805	1.319
-57.276	361.482	0.636	1.245
-56.261	-200.000	135.732	628.827
-55.246	345.185	1633.442	3130.745
-54.232	136.234	2778.500	3535.483
-53.217	74.435	2337.034	2397.130
-52.203	25.189	2089.036	1692.824
-51.188	20.793	2009.695	1588.467
-50.173	19.984	1995.702	1570.005
-49.159	37.592	2073.090	1795.009
-48.144	34.495	2083.340	1775.045
-47.130	21.024	2036.881	1611.831
-46.115	19.207	2025.669	1586.179
-45.100	19.123	2022.935	1583.200
-44.086	19.096	2020.495	1580.982
-43.071	19.054	2018.000	1578.579
-42.057	18.953	2016.793	1576.652
-41.042	19.064	2014.507	1575.818
-40.027	19.167	2011.899	1574.655
-39.013	19.097	2010.178	1572.606
-37.998	19.027	2009.480	1571.356
-36.984	19.082	2007.328	1570.117
-35.969	19.140	2005.109	1568.843
-34.954	19.248	2003.166	1568.243
-33.940	19.132	2002.290	1566.444
-32.925	19.251	2000.430	1566.002
-31.911	19.189	1999.363	1564.543
-30.896	19.133	1997.700	1562.678
-29.881	19.147	1996.137	1561.520
-28.867	19.190	1994.264	1560.376
-27.852	19.187	1992.499	1558.904
-26.838	19.284	1989.960	1557.738
-25.823	19.188	1988.710	1555.830
-24.809	19.204	1987.433	1554.911
-23.794	19.212	1985.882	1553.713
-22.779	19.208	1983.944	1552.098
-21.765	19.146	1982.255	1550.154
-20.750	19.268	1980.381	1549.729
-19.736	19.212	1978.962	1548.054
-18.721	19.259	1977.689	1547.419
-17.706	19.233	1975.715	1545.577
-16.692	19.230	1974.313	1544.391
-15.677	19.178	1972.969	1542.809
-14.663	19.143	1972.274	1541.894
-13.648	19.184	1970.093	1540.492
-12.633	19.193	1969.164	1539.789
-11.619	19.181	1967.761	1538.523
-10.604	19.172	1966.495	1537.390
-9.590	19.118	1965.523	1536.092
-8.575	19.190	1963.036	1534.730
-7.560	19.173	1962.273	1533.920
-6.546	19.125	1960.937	1532.386
-5.531	19.135	1959.932	1531.626
-4.517	19.177	1958.469	1530.793
-3.502	19.116	1957.679	1529.579
-2.487	19.184	1955.974	1528.791
-1.473	19.148	1955.365	1527.933
-0.458	19.174	1949.574	1523.573
0.556	17.874	1929.483	1494.205
1.571	13.568	1910.246	1441.778
2.586	9.757	1934.017	1425.956
3.600	8.910	1968.101	1443.331
4.615	8.888	1960.038	1437.097
5.629	7.130	1859.910	1348.597
6.644	3.053	1751.223	1236.928
7.659	0.845	1721.928	1198.645
8.673	0.615	1719.333	1194.918
9.688	0.591	1718.745	1194.212
10.702	0.521	1717.379	1192.600
11.717	0.593	1712.963	1189.995
12.731	0.805	1711.224	1190.354
13.746	4.222	1717.872	1221.832
14.761	10.817	1731.743	1283.841
15.775	15.885	1741.456	1331.091
16.790	17.058	1742.083	1340.724
17.804	16.257	1739.327	1332.166
18.819	15.351	1735.858	1322.252
19.834	14.763	1733.063	1315.374
20.848	14.493	1732.141	1312.435
21.863	14.285	1730.559	1309.488
22.877	14.051	1729.293	1306.574
23.892	13.787	1727.667	1303.155
24.907	13.662	1726.203	1300.957
25.921	13.675	1725.178	1300.170
26.936	13.708	1724.167	1299.554
27.950	13.699	1723.455	1298.832
28.965	13.731	1722.938	1298.576
29.980	13.703	1722.522	1297.927
30.994	13.765	1721.439	1297.485
32.009	13.834	1720.135	1296.924
33.023	13.871	1719.090	1296.307
34.038	13.905	1718.414	1295.948
35.053	13.859	1717.182	1294.546
36.067	13.896	1715.821	1293.692
37.082	13.789	1715.278	1292.336
38.096	13.785	1714.393	1291.526
39.111	13.889	1713.265	1291.373
40.126	13.843	1712.812	1290.560
41.140	13.844	1711.705	1289.616
42.155	13.778	1710.158	1287.828
43.169	13.744	1708.571	1286.253
44.184	13.690	1707.612	1284.999
45.199	13.620	1706.516	1283.515
46.213	13.732	1705.097	1283.203
47.228	13.673	1703.728	1281.606
48.242	13.699	1702.898	1281.066
49.257	13.725	1701.653	1280.218
50.271	13.722	1700.215	1279.001
51.286	13.788	1698.766	1278.301
52.301	13.781	1697.334	1277.058
53.315	13.708	1695.903	1275.307
54.330	13.780	1694.164	1274.441
55.344	13.750	1692.865	1273.119
56.359	13.737	1691.282	1271.718
57.374	13.710	1690.454	1270.778
58.388	13.733	1689.073	1269.805
59.403	13.669	1687.392	1267.938
60.417	13.652	1685.984	1266.634
61.432	13.670	1684.801	1265.771
62.447	13.673	1683.711	1264.865
63.461	13.605	1682.471	1263.301
64.476	13.603	1682.117	1262.912
65.490	13.589	1680.299	1261.329
66.505	13.652	1678.732	1260.515
67.520	13.617	1677.896	1259.516
68.534	13.696	1676.583	1259.012
69.549	13.593	1675.653	1257.427
70.563	13.672	1674.663	1257.166
71.578	13.655	1672.934	1255.629
72.593	13.703	1671.292	1254.649
73.607	13.594	1670.799	1253.347
74.622	13.578	1669.823	1252.381
75.636	13.555	1668.501	1251.107
76.651	13.545	1667.834	1250.421
77.666	13.602	1666.436	1249.692
78.680	13.580	1665.504	1248.714
79.695	13.590	1664.249	1247.738
80.709	13.565	1663.308	1246.737
81.724	13.555	1662.906	1246.248
82.739	13.721	1661.088	1246.025
83.753	13.728	1660.341	1245.401
84.768	13.733	1659.646	1244.811
85.782	13.766	1658.725	1244.259
86.797	13.825	1657.365	1243.572
87.812	13.738	1656.988	1242.524
88.826	13.649	1655.596	1240.701
89.841	13.709	1654.437	1240.177
90.855	13.867	1652.895	1240.090
91.870	13.782	1651.816	1238.538
92.884	13.737	1651.594	1237.920
93.899	13.766	1650.526	1237.231
94.914	13.813	1648.606	1236.028
95.928	13.881	1647.130	1235.325
96.943	13.834	1646.475	1234.370
97.957	13.875	1644.435	1233.041
98.972	13.815	1643.403	1231.712
99.987	13.740	1641.793	1229.838
101.001	13.796	1639.830	1228.671
102.016	13.873	1637.596	1227.458
103.030	13.864	1636.383	1226.376
104.045	13.827	1635.012	1224.967
105.060	13.853	1633.608	1223.997
106.074	13.866	1631.778	1222.617
107.089	13.798	1630.274	1220.878
108.103	13.751	1628.634	1219.198
109.118	13.646	1627.734	1217.646
110.133	13.728	1626.050	1216.881
111.147	13.632	1624.790	1215.127
112.162	13.713	1622.923	1214.213
113.176	13.689	1621.635	1212.963
114.191	13.723	1620.460	1212.226
115.206	13.751	1619.086	1211.301
116.220	13.734	1618.198	1210.403
117.235	13.744	1616.672	1209.228
118.249	13.754	1614.874	1207.850
119.264	13.709	1613.628	1206.483
120.279	13.680	1612.416	1205.255
121.293	13.650	1610.800	1203.725
122.308	13.668	1609.132	1202.502
123.322	13.690	1607.593	1201.407
124.337	13.574	1606.501	1199.645
125.352	13.618	1605.190	1198.880
126.366	13.546	1604.049	1197.397
127.381	13.628	1602.860	1196.995
128.395	13.596	1601.430	1195.591
129.410	13.646	1599.727	1194.576
130.424	13.749	1598.090	1193.987
131.439	13.738	1597.001	1192.994
132.454	13.644	1595.987	1191.456
133.468	13.680	1594.494	1190.492
134.483	13.758	1592.915	1189.763
135.497	13.771	1591.563	1188.742
136.512	13.764	1590.277	1187.630
137.527	13.771	1588.680	1186.378
138.541	13.816	1587.701	1185.867
139.556	13.749	1586.271	1184.214
140.570	13.810	1584.628	1183.322
141.585	13.911	1583.020	1182.730
142.600	13.900	1581.949	1181.749
143.614	13.927	1580.665	1180.876
144.629	13.908	1579.672	1179.899
145.643	13.948	1578.648	1179.311
146.658	13.917	1577.142	1177.862
147.673	13.979	1575.397	1176.892
148.687	13.903	1574.015	1175.216
149.702	13.904	1572.613	1174.077
150.716	13.950	1570.607	1172.802
151.731	13.857	1569.387	1171.128
152.746	13.925	1567.691	1170.236
153.760	13.912	1566.358	1169.045
154.775	13.886	1565.356	1168.016
155.789	14.048	1563.845	1167.923
156.804	14.051	1562.959	1167.174
157.819	14.142	1561.258	1166.443
158.833	14.039	1560.225	1164.843
159.848	13.990	1559.065	1163.535
160.862	14.061	1558.126	1163.228
161.877	14.150	1556.237	1162.337
162.892	14.070	1555.541	1161.151
163.906	14.094	1554.184	1160.208
164.921	14.012	1552.774	1158.478
165.935	14.029	1551.658	1157.661
166.950	14.014	1550.576	1156.647
167.964	14.099	1549.589	1156.400
168.979	14.062	1548.304	1155.083
169.994	14.037	1547.573	1154.259
171.008	14.114	1546.008	1153.523
172.023	14.046	1545.449	1152.536
173.037	14.126	1543.875	1151.810
174.052	14.184	1542.655	1151.202
175.067	14.188	1541.647	1150.377
176.081	14.227	1540.257	1149.506
177.096	14.236	1538.876	1148.435
178.110	14.165	1537.395	1146.738
179.125	14.151	1536.419	1145.811
180.140	14.309	1535.177	1145.871
181.154	14.245	1534.176	1144.584
182.169	14.225	1533.291	1143.687
183.183	14.319	1531.699	1143.042
184.198	14.373	1530.829	1142.662
185.213	14.276	1529.847	1141.167
186.227	14.372	1528.214	1140.500
187.242	14.325	1527.916	1139.855
188.256	14.425	1525.898	1138.934
189.271	14.397	1525.044	1138.008
190.286	14.467	1524.416	1137.910
191.300	14.409	1523.078	1136.416
192.315	14.284	1521.913	1134.594
193.329	14.261	1520.664	1133.410
194.344	14.294	1519.316	1132.528
195.359	14.285	1518.649	1131.868
196.373	14.288	1517.878	1131.217
197.388	14.307	1516.986	1130.581
198.402	14.425	1515.126	1129.894
199.417	14.392	1514.490	1129.095
200.432	14.503	1513.233	1128.808
201.446	14.590	1511.916	1128.313
202.461	14.544	1510.810	1127.082
203.475	14.515	1510.230	1126.354
204.490	14.689	1508.329	1126.011
205.504	14.674	1507.431	1125.139
206.519	14.624	1506.309	1123.860
207.534	14.532	1505.390	1122.456
208.548	14.581	1504.204	1121.803
209.563	14.503	1503.017	1120.293
210.577	14.593	1501.993	1120.037
211.592	14.562	1501.440	1119.320
212.607	14.562	1500.511	1118.527
213.621	14.744	1499.471	1118.871
214.636	14.782	1498.221	1118.092
215.650	14.722	1497.565	1117.106
216.665	14.749	1496.164	1116.143
217.680	14.750	1495.666	1115.678
218.694	14.892	1494.779	1115.868
219.709	14.836	1493.863	1114.708
220.723	14.837	1492.683	1113.736
221.738	14.837	1492.001	1113.132
222.753	14.832	1490.779	1112.087
223.767	14.711	1490.108	1110.683
224.782	14.786	1489.304	1110.481
225.796	14.860	1487.978	1109.886
226.811	14.909	1487.124	1109.477
227.826	14.898	1486.305	1108.694
228.840	14.836	1485.644	1107.692
229.855	14.859	1484.383	1106.803
230.869	14.873	1483.340	1106.020
231.884	14.908	1482.162	1105.279
232.899	14.985	1480.862	1104.719
233.913	14.904	1480.111	1103.530
234.928	14.907	1478.543	1102.280
235.942	14.960	1477.768	1101.957
236.957	14.885	1476.423	1100.363
237.972	14.842	1475.332	1099.169
238.986	14.861	1473.884	1098.116
240.001	14.921	1473.547	1098.163
241.015	14.868	1472.467	1096.910
242.030	14.967	1470.993	1096.367
243.045	15.074	1469.942	1096.184
244.059	15.041	1468.863	1095.070
245.074	15.075	1468.112	1094.635
246.088	15.102	1467.555	1094.299
247.103	15.068	1466.769	1093.391
248.117	15.102	1465.705	1092.723
249.132	15.065	1464.745	1091.671
250.147	15.219	1464.240	1092.202
251.161	15.306	1463.171	1091.872
252.176	15.223	1463.088	1091.176
253.190	15.244	1462.094	1090.475
254.205	15.313	1461.295	1090.230
255.220	15.477	1459.904	1090.159
256.234	15.488	1459.144	1089.567
257.249	15.405	1458.611	1088.536
258.263	15.341	1458.024	1087.590
259.278	15.534	1456.708	1087.756
260.293	15.459	1455.589	1086.339
261.307	15.491	1454.585	1085.702
262.322	15.540	1453.936	1085.437
263.336	15.602	1453.331	1085.294
264.351	15.603	1452.265	1084.405
265.366	15.592	1451.561	1083.717
266.380	15.574	1450.457	1082.678
267.395	15.658	1449.311	1082.265
268.409	15.599	1449.015	1081.570
269.424	15.569	1447.521	1080.166
270.439	15.606	1446.459	1079.519
271.453	15.594	1445.671	1078.753
272.468	15.685	1444.493	1078.366
273.482	15.638	1444.304	1077.827
274.497	15.618	1442.972	1076.608
275.512	15.624	1442.400	1076.124
276.526	15.608	1441.184	1075.022
277.541	15.633	1440.409	1074.506
278.555	15.755	1439.271	1074.341
279.570	15.795	1437.950	1073.519
280.585	15.768	1437.157	1072.659
281.599	15.807	1436.843	1072.579
282.614	15.770	1435.395	1071.167
283.628	15.798	1434.768	1070.784
284.643	15.809	1433.717	1069.973
285.657	15.799	1432.384	1068.819
286.672	15.758	1431.859	1068.073
287.687	15.780	1430.918	1067.414
288.701	15.779	1429.637	1066.358
289.716	15.806	1429.311	1066.191
290.730	15.871	1428.201	1065.680
291.745	15.871	1427.044	1064.723
292.760	15.950	1425.656	1064.097
293.774	15.963	1424.968	1063.569
294.789	15.905	1423.945	1062.348
295.803	15.982	1423.209	1062.190
296.818	16.002	1422.428	1061.639
297.833	15.936	1421.247	1060.244
298.847	15.894	1419.913	1058.892
299.862	16.015	1418.883	1058.791
300.876	16.055	1418.178	1058.424
301.891	16.123	1417.260	1058.073
302.906	16.056	1416.415	1056.924
303.920	16.219	1415.434	1057.119
304.935	16.077	1415.029	1055.835
305.949	16.129	1414.208	1055.456
306.964	16.265	1413.036	1055.335
307.979	16.219	1412.258	1054.375
308.993	16.208	1411.368	1053.549
310.008	16.222	1410.116	1052.609
311.022	16.260	1409.040	1051.948
312.037	16.238	1408.261	1051.139
313.052	16.266	1407.688	1050.793
314.066	16.204	1406.583	1049.487
315.081	16.164	1405.587	1048.401
316.095	16.213	1404.238	1047.611
317.110	16.284	1403.086	1047.095
318.125	16.272	1402.215	1046.280
319.139	16.219	1401.210	1045.112
320.154	16.217	1400.444	1044.431
321.168	16.341	1399.312	1044.266
322.183	16.284	1398.347	1043.097
323.197	16.238	1397.493	1042.086
324.212	16.288	1396.786	1041.776
325.227	16.340	1395.827	1041.290
326.241	16.310	1394.679	1040.152
327.256	16.412	1393.564	1039.858
328.270	16.364	1392.827	1038.924
329.285	16.438	1392.060	1038.709
330.300	16.331	1391.165	1037.298
331.314	16.406	1390.396	1037.090
332.329	16.308	1389.190	1035.501
333.343	16.363	1388.462	1035.198
334.358	16.408	1387.652	1034.779
335.373	16.427	1386.702	1034.095
336.387	16.444	1385.897	1033.512
337.402	16.487	1385.220	1033.178
338.416	16.598	1384.424	1033.169
339.431	16.696	1383.452	1032.951
340.446	16.579	1382.970	1031.784
341.460	16.645	1381.882	1031.286
342.475	16.584	1381.197	1030.308
343.489	16.643	1379.750	1029.496
344.504	16.626	1379.259	1028.938
345.519	16.677	1378.053	1028.257
346.533	16.715	1377.033	1027.638
347.548	16.774	1376.247	1027.314
348.562	16.857	1374.959	1026.767
349.577	16.755	1374.324	1025.587
350.592	16.857	1373.728	1025.665
351.606	16.839	1373.044	1024.957
352.621	16.816	1371.630	1023.672
353.635	16.772	1370.653	1022.582
354.650	16.695	1370.014	1021.552
355.665	16.821	1368.766	1021.290
356.679	16.838	1367.644	1020.464
357.694	16.803	1366.478	1019.293
358.708	16.840	1365.615	1018.783
359.723	16.922	1364.413	1018.287
360.738	16.879	1363.314	1017.122
361.752	16.947	1362.217	1016.622
362.767	16.900	1361.198	1015.490
363.781	16.913	1360.381	1014.864
364.796	16.865	1359.602	1013.906
365.810	16.944	1358.613	1013.554
366.825	17.001	1358.458	1013.686
367.840	17.005	1357.504	1012.914
368.854	17.084	1356.548	1012.582
369.869	17.176	1356.160	1012.748
370.883	17.199	1355.345	1012.188
371.898	17.137	1354.496	1011.095
372.913	17.108	1353.929	1010.411
373.927	17.100	1352.766	1009.407
374.942	17.113	1351.548	1008.484
375.956	17.221	1351.068	1008.680
376.971	17.153	1350.447	1007.724
377.986	17.099	1349.586	1006.668
379.000	17.146	1348.965	1006.396
380.015	17.198	1347.912	1005.831
381.029	17.262	1347.060	1005.482
382.044	17.379	1346.186	1005.434
383.059	17.316	1345.386	1004.377
384.073	17.424	1344.842	1004.519
385.088	17.346	1344.466	1003.686
386.102	17.389	1343.475	1003.111
387.117	17.452	1342.765	1002.861
388.132	17.336	1341.794	1001.369
389.146	17.364	1341.079	1000.909
390.161	17.340	1340.713	1000.406
391.175	17.386	1339.271	999.511
392.190	17.352	1338.857	998.915
393.205	17.498	1337.889	998.965
394.219	17.454	1336.560	997.624
395.234	17.451	1335.225	996.521
396.248	17.438	1334.112	995.523
397.263	17.486	1332.936	994.842
398.278	17.455	1331.430	993.446
399.292	17.633	1329.628	993.054
400.307	17.500	1329.132	991.818
401.321	17.521	1328.141	991.113
402.336	17.507	1327.375	990.372
403.350	17.543	1326.554	989.882
404.365	17.474	1325.376	988.518
405.380	17.537	1324.589	988.209
406.394	17.479	1323.985	987.332
407.409	17.574	1323.006	987.065
408.423	17.544	1322.224	986.219
409.438	17.570	1321.749	985.930
410.453	17.597	1320.852	985.328
411.467	17.791	1320.050	985.766
412.482	17.714	1319.491	984.814
413.496	17.838	1318.569	984.754
414.511	17.755	1317.922	983.706
415.526	17.858	1316.937	983.478
416.540	17.793	1316.471	982.671
417.555	17.911	1315.973	982.889
418.569	17.910	1315.218	982.231
419.584	17.855	1314.788	981.512
420.599	17.941	1313.912	981.265
421.613	101.669	1365.110	1491.854
422.628	100.188	1372.467	1491.905
