DTS Sentinel unit serial number:	SN413079Multiplexer serial number:	ORYXHardware model number:	OX4-SRSoftware version number:	ORYX F/W v4.00 Oryx Data Collector v3.7.2.0data status	okinstallation	princeton_trtdifferential loss correction	single-endedforward channel	channel 4reverse channel	N/Adate	2019/09/13time	00:49:35forward acquisition time	60.00reverse acquisition time	0.00gamma	496.2192k internal	0.2318k external	0.2318temperature offset calibration	1.0167default loss term (dB/km)	0.3790temperature slope calibration	1.0000multiplexer offset coefficient	1.0000multiplexer slope coefficient	1.0000fibre end	0.00T internal ref (°C)	28.17T ext. ref 1 (°C)	3.64T ext. ref 2 (°C)	22.66length (m)	temperature (°C)	Stokes	anti-Stokes-747.200	-200.000	0.059	-0.437
-746.185	-177.144	-0.491	-0.012
-745.171	-0.912	0.149	0.107
-744.156	-200.000	-0.035	0.231
-743.142	74.555	0.105	-0.112
-742.127	-44.329	-0.109	0.055
-741.112	733.640	0.027	0.073
-740.098	147.124	-0.180	0.244
-739.083	77.959	0.037	0.040
-738.069	682.429	0.222	0.586
-737.054	-200.000	0.012	-0.167
-736.039	-143.154	-0.333	0.033
-735.025	-200.000	-0.004	0.123
-734.010	-80.023	-0.237	0.080
-732.996	-200.000	-0.023	0.124
-731.981	131.133	-0.134	-0.174
-730.966	-200.000	0.057	-0.347
-729.952	237.618	-0.084	-0.141
-728.937	-124.092	-0.295	0.047
-727.923	-161.270	0.262	-0.014
-726.908	-200.000	0.025	-0.301
-725.894	-196.101	-0.216	0.002
-724.879	-200.000	-0.011	-0.103
-723.864	-20.052	-0.427	0.266
-722.850	293.201	-0.043	-0.079
-721.835	41.101	-0.182	0.166
-720.821	446.793	-0.104	0.231
-719.806	-8.375	-0.130	0.089
-718.791	225.148	-0.160	-0.262
-717.777	12.848	-0.272	0.213
-716.762	4.148	-0.138	-0.102
-715.748	-200.000	-0.039	-0.361
-714.733	313.405	-0.211	-0.402
-713.718	709.203	0.066	0.176
-712.704	145.325	-0.093	-0.126
-711.689	108.838	0.067	-0.081
-710.675	-1.494	-0.168	0.120
-709.660	38.835	0.123	0.111
-708.645	-93.291	-0.118	0.033
-707.631	-124.688	0.281	0.044
-706.616	-36.465	0.093	0.050
-705.602	55.886	-0.236	-0.231
-704.587	-200.000	-0.023	0.108
-703.572	96.441	-0.189	0.218
-702.558	662.983	0.021	-0.054
-701.543	7.412	-0.065	-0.049
-700.529	-127.705	-0.099	0.014
-699.514	-136.715	0.167	-0.020
-698.499	141.754	0.192	0.257
-697.485	12.567	0.236	-0.184
-696.470	32.005	0.159	-0.138
-695.456	113.129	-0.185	-0.227
-694.441	-200.000	0.002	0.073
-693.426	-80.605	-0.243	-0.082
-692.412	13.334	0.092	0.072
-691.397	200.594	-0.184	0.285
-690.383	82.303	0.287	-0.315
-689.368	-200.000	-0.023	0.377
-688.354	-200.000	-0.007	-0.195
-687.339	-125.569	0.180	0.028
-686.324	527.699	-0.171	0.407
-685.310	235.011	-0.140	0.233
-684.295	34.917	-0.133	0.118
-683.281	176.006	-0.052	0.077
-682.266	-200.000	-0.004	-0.026
-681.251	-200.000	-0.084	-0.431
-680.237	-124.294	0.112	0.018
-679.222	-31.395	-0.319	0.181
-678.208	-177.411	-0.050	-0.001
-677.193	-6.960	0.001	-0.001
-676.178	-7.557	-0.149	-0.102
-675.164	641.791	-0.118	-0.304
-674.149	800.000	-0.069	0.264
-673.135	52.006	0.075	0.072
-672.120	288.170	0.078	0.143
-671.105	-11.100	-0.343	0.228
-670.091	-200.000	-0.042	-0.205
-669.076	288.028	-0.127	-0.232
-668.062	-200.000	0.072	0.375
-667.047	-13.924	-0.329	0.215
-666.032	138.775	-0.086	-0.114
-665.018	800.000	0.094	-0.367
-664.003	239.857	0.184	-0.310
-662.989	-165.572	-0.183	0.008
-661.974	-200.000	-0.002	0.038
-660.959	800.000	-0.144	-0.437
-659.945	94.576	0.102	-0.117
-658.930	4.325	-0.207	-0.153
-657.916	-37.704	0.231	-0.124
-656.901	151.520	0.092	0.127
-655.886	800.000	0.067	-0.229
-654.872	392.493	0.108	-0.227
-653.857	800.000	-0.013	-0.039
-652.843	800.000	-0.083	-0.247
-651.828	-76.291	-0.099	-0.035
-650.814	-39.804	-0.218	0.115
-649.799	345.143	-0.189	-0.374
-648.784	-69.211	0.434	-0.168
-647.770	-153.912	0.070	-0.005
-646.755	-200.000	0.026	-0.371
-645.741	-106.497	-0.075	-0.017
-644.726	-200.000	-0.030	0.154
-643.711	-33.617	-0.103	0.058
-642.697	9.971	-0.144	0.110
-641.682	446.961	-0.089	0.197
-640.668	-44.276	-0.142	-0.072
-639.653	-200.000	-0.010	-0.156
-638.638	-85.568	-0.275	-0.086
-637.624	-72.550	0.281	-0.105
-636.609	137.472	0.122	0.161
-635.595	-96.907	-0.229	0.061
-634.580	-105.369	0.273	0.063
-633.565	-200.000	-0.004	0.033
-632.551	-19.287	-0.140	-0.088
-631.536	-200.000	0.010	-0.172
-630.522	-5.226	-0.198	-0.137
-629.507	-200.000	0.105	-0.000
-628.492	1.145	0.232	-0.168
-627.478	-200.000	-0.046	-0.233
-626.463	-129.588	-0.394	0.055
-625.449	-200.000	-0.033	-0.212
-624.434	800.000	0.036	-0.099
-623.419	-200.000	0.032	-0.201
-622.405	59.887	-0.084	0.084
-621.390	-83.598	-0.024	0.008
-620.376	85.510	-0.049	-0.055
-619.361	100.110	0.032	0.037
-618.346	128.741	0.254	-0.326
-617.332	-61.884	0.341	-0.144
-616.317	-45.641	0.281	-0.140
-615.303	368.322	0.090	-0.183
-614.288	-200.000	-0.009	0.103
-613.273	-82.127	-0.101	-0.033
-612.259	-200.000	0.032	-0.234
-611.244	100.043	-0.160	-0.186
-610.230	-200.000	0.006	0.066
-609.215	449.424	0.069	-0.154
-608.201	519.607	-0.024	-0.057
-607.186	-200.000	0.088	0.404
-606.171	-200.000	-0.016	0.133
-605.157	-200.000	0.004	-0.091
-604.142	800.000	0.056	0.182
-603.128	800.000	-0.091	0.309
-602.113	-200.000	0.075	0.403
-601.098	-52.957	0.167	-0.077
-600.084	-120.276	-0.299	-0.051
-599.069	-113.308	-0.366	0.072
-598.055	-129.891	0.048	0.007
-597.040	-76.098	-0.017	0.006
-596.025	-100.246	0.045	-0.011
-595.011	-187.362	0.212	-0.003
-593.996	-88.553	-0.517	-0.155
-592.982	244.186	-0.114	0.193
-591.967	80.765	-0.188	-0.203
-590.952	-11.015	-0.068	0.045
-589.938	93.293	0.091	0.103
-588.923	-76.809	-0.241	0.085
-587.909	351.369	0.022	0.044
-586.894	49.096	-0.118	-0.112
-585.879	-65.734	0.101	-0.041
-584.865	-2.939	-0.068	0.048
-583.850	87.463	-0.198	0.220
-582.836	173.045	-0.017	0.024
-581.821	800.000	0.047	-0.174
-580.806	453.838	0.085	-0.189
-579.792	372.743	0.105	-0.215
-578.777	-200.000	-0.215	0.000
-577.763	169.586	-0.034	0.049
-576.748	800.000	-0.014	-0.059
-575.733	-151.629	0.147	-0.011
-574.719	-105.884	0.155	-0.035
-573.704	54.053	-0.190	-0.184
-572.690	800.000	-0.035	-0.124
-571.675	-200.000	0.002	-0.140
-570.661	-54.692	-0.171	-0.078
-569.646	-18.686	0.103	0.065
-568.631	134.415	0.215	-0.280
-567.617	-96.880	-0.085	-0.022
-566.602	-8.820	-0.118	0.080
-565.588	-65.692	-0.371	-0.150
-564.573	-65.942	0.150	0.060
-563.558	-182.788	0.158	0.003
-562.544	-58.683	0.243	0.106
-561.529	-148.570	0.211	-0.017
-560.515	-200.000	0.101	0.454
-559.500	-34.331	0.200	-0.110
-558.485	-168.230	-0.094	0.004
-557.471	737.454	0.061	0.165
-556.456	800.000	-0.049	0.136
-555.442	-200.000	-0.081	0.483
-554.427	-45.652	0.168	0.084
-553.412	-141.871	-0.302	-0.030
-552.398	-200.000	-0.029	0.203
-551.383	-4.209	-0.278	-0.194
-550.369	-49.329	-0.213	0.102
-549.354	-36.065	0.302	-0.164
-548.339	-200.000	0.042	-0.239
-547.325	-200.000	-0.042	-0.201
-546.310	-200.000	-0.001	-0.205
-545.296	-200.000	0.022	-0.190
-544.281	204.274	0.098	-0.152
-543.266	800.000	-0.064	-0.212
-542.252	-40.376	0.239	-0.125
-541.237	-36.505	0.086	0.046
-540.223	-74.074	-0.120	-0.044
-539.208	-45.965	0.175	0.087
-538.193	800.000	0.054	0.184
-537.179	-200.000	0.021	-0.340
-536.164	132.112	0.158	0.204
-535.150	-35.908	0.157	-0.085
-534.135	-108.814	0.145	0.031
-533.121	-200.000	-0.004	-0.063
-532.106	-122.867	-0.280	0.045
-531.091	-113.302	-0.347	0.069
-530.077	-158.716	0.156	-0.009
-529.062	-112.779	0.093	-0.018
-528.048	-72.985	0.113	0.042
-527.033	-200.000	0.035	0.273
-526.018	-57.997	-0.357	0.156
-525.004	-88.640	0.117	0.035
-523.989	-106.121	-0.025	0.006
-522.975	800.000	0.074	0.229
-521.960	800.000	0.094	0.282
-520.945	-32.057	-0.295	-0.166
-519.931	181.337	-0.144	-0.213
-518.916	26.792	0.162	0.136
-517.902	800.000	-0.043	0.130
-516.887	-94.301	-0.041	0.011
-515.872	-169.311	0.230	-0.009
-514.858	-115.098	-0.293	-0.056
-513.843	-200.000	-0.003	-0.280
-512.829	-61.159	0.082	-0.035
-511.814	1.340	0.099	0.072
-510.799	-71.747	0.111	-0.041
-509.785	-94.958	0.234	-0.063
-508.770	35.188	0.056	-0.050
-507.756	-193.649	-0.149	0.001
-506.741	325.622	-0.122	0.234
-505.726	-200.000	0.016	0.075
-504.712	-200.000	0.012	0.106
-503.697	-132.957	-0.347	0.044
-502.683	-82.689	-0.019	0.006
-501.668	330.261	0.079	0.152
-500.653	-97.019	-0.215	0.057
-499.639	-200.000	0.067	-0.411
-498.624	-200.000	-0.077	-0.537
-497.610	649.264	-0.126	-0.324
-496.595	-200.000	0.000	0.189
-495.581	241.298	0.100	-0.168
-494.566	-200.000	0.002	0.086
-493.551	-58.641	0.073	0.032
-492.537	706.978	-0.107	-0.285
-491.522	-79.026	-0.113	-0.039
-490.508	-152.036	0.341	-0.025
-489.493	14.627	0.271	-0.212
-488.478	800.000	0.086	0.326
-487.464	-14.697	0.101	0.065
-486.449	472.805	0.063	-0.142
-485.435	-35.565	-0.218	-0.118
-484.420	30.452	0.105	-0.090
-483.405	-200.000	-0.048	-0.374
-482.391	-88.291	-0.178	-0.053
-481.376	133.393	0.066	0.085
-480.362	-87.867	0.269	0.081
-479.347	-56.199	0.177	0.079
-478.332	433.953	-0.208	-0.453
-477.318	-30.607	0.209	0.119
-476.303	291.115	-0.026	-0.046
-475.289	800.000	-0.044	-0.124
-474.274	800.000	0.122	-0.385
-473.259	33.712	-0.044	0.039
-472.245	232.918	-0.082	0.135
-471.230	-143.152	0.337	-0.033
-470.216	23.565	-0.149	-0.123
-469.201	-37.619	-0.206	-0.110
-468.186	-11.139	0.150	-0.099
-467.172	-113.694	0.131	-0.026
-466.157	496.705	-0.053	-0.121
-465.143	86.808	-0.088	-0.097
-464.128	507.463	-0.057	0.132
-463.113	-166.411	-0.129	0.005
-462.099	109.631	-0.144	-0.173
-461.084	-157.386	0.105	0.006
-460.070	800.000	-0.088	0.362
-459.055	560.951	-0.059	0.144
-458.040	438.960	-0.117	-0.256
-457.026	-200.000	0.041	-0.226
-456.011	53.195	0.079	-0.076
-454.997	-31.092	0.087	-0.049
-453.982	30.425	-0.137	0.117
-452.968	-200.000	0.008	0.074
-451.953	67.380	-0.038	-0.039
-450.938	-200.000	-0.005	0.131
-449.924	45.995	0.177	-0.164
-448.909	24.359	-0.143	-0.118
-447.895	381.271	0.094	-0.193
-446.880	428.723	-0.050	0.107
-445.865	-122.252	0.263	0.043
-444.851	302.326	0.106	-0.195
-443.836	-200.000	-0.113	-0.629
-442.822	792.458	0.014	-0.039
-441.807	-200.000	0.019	0.249
-440.792	-29.581	-0.356	0.203
-439.778	-43.378	0.247	0.125
-438.763	-114.980	-0.103	-0.020
-437.749	253.582	0.105	-0.179
-436.734	260.557	0.087	-0.150
-435.719	436.667	-0.016	-0.035
-434.705	-90.737	-0.116	-0.033
-433.690	-200.000	-0.027	0.220
-432.676	168.108	-0.185	-0.263
-431.661	-139.005	-0.121	-0.013
-430.646	271.309	0.045	0.080
-429.632	582.360	0.018	-0.044
-428.617	-89.733	-0.377	0.111
-427.603	11.767	-0.182	0.140
-426.588	800.000	0.064	-0.220
-425.573	272.566	-0.016	-0.029
-424.559	-127.886	-0.143	-0.021
-423.544	-200.000	-0.012	-0.279
-422.530	-18.397	-0.053	-0.033
-421.515	800.000	0.016	0.065
-420.500	-196.737	-0.032	-0.000
-419.486	23.230	0.199	-0.164
-418.471	-22.652	-0.077	-0.047
-417.457	-80.431	0.089	-0.030
-416.442	251.347	-0.061	-0.104
-415.428	-66.734	-0.224	-0.088
-414.413	-74.488	0.128	-0.046
-413.398	-75.713	-0.153	-0.054
-412.384	-59.933	0.181	0.077
-411.369	48.212	0.033	0.031
-410.355	-101.280	-0.243	-0.059
-409.340	-200.000	-0.024	0.182
-408.325	-63.945	0.234	0.095
-407.311	533.173	0.108	0.256
-406.296	501.673	-0.055	0.127
-405.282	-119.464	0.152	0.026
-404.267	121.442	0.232	-0.289
-403.252	800.000	-0.076	-0.326
-402.238	250.330	-0.104	0.177
-401.223	-200.000	0.002	0.077
-400.209	-31.258	0.261	-0.147
-399.194	92.202	-0.112	-0.126
-398.179	-0.699	-0.098	-0.069
-397.165	55.824	0.384	0.371
-396.150	189.008	0.087	-0.130
-395.136	70.652	-0.050	0.051
-394.121	376.086	0.115	0.235
-393.106	97.665	0.281	-0.323
-392.092	-67.558	-0.039	-0.015
-391.077	23.220	-0.174	0.142
-390.063	-200.000	0.016	-0.297
-389.048	233.261	0.165	-0.270
-388.033	135.773	0.206	-0.268
-387.019	-43.357	-0.240	-0.121
-386.004	410.906	-0.090	0.191
-384.990	-109.811	0.101	-0.021
-383.975	385.621	-0.124	0.255
-382.960	-137.953	-0.328	-0.037
-381.946	800.000	0.112	-0.448
-380.931	-113.784	0.173	-0.034
-379.917	61.326	0.188	-0.186
-378.902	84.280	-0.222	0.242
-377.888	-55.692	0.073	-0.033
-376.873	96.087	0.027	-0.031
-375.858	105.768	-0.328	0.387
-374.844	-118.142	0.166	0.030
-373.829	-157.995	0.339	0.020
-372.815	67.184	-0.061	0.062
-371.800	-200.000	0.013	0.075
-370.785	36.016	0.103	0.090
-369.771	800.000	-0.066	-0.182
-368.756	-53.289	0.229	0.105
-367.742	26.621	0.166	-0.139
-366.727	157.333	-0.140	0.193
-365.712	-24.243	0.264	0.157
-364.698	-200.000	-0.037	-0.303
-363.683	80.201	-0.139	-0.149
-362.669	-195.485	0.277	-0.002
-361.654	-30.108	-0.387	-0.219
-360.639	-200.000	-0.027	0.164
-359.625	97.413	0.072	0.083
-358.610	-42.555	0.090	-0.046
-357.596	284.889	0.222	-0.398
-356.581	-104.472	0.146	-0.034
-355.566	-111.508	-0.084	-0.017
-354.552	-200.000	-0.065	0.387
-353.537	745.095	-0.025	0.068
-352.523	-44.761	-0.074	0.037
-351.508	250.957	-0.232	0.393
-350.493	42.225	0.151	-0.136
-349.479	-83.272	-0.370	0.119
-348.464	-200.000	-0.010	0.076
-347.450	177.362	-0.156	0.227
-346.435	-44.147	0.321	-0.161
-345.420	-107.156	-0.273	-0.060
-344.406	-200.000	-0.007	-0.063
-343.391	-25.198	-0.116	-0.068
-342.377	800.000	-0.031	0.085
-341.362	-76.102	-0.257	0.090
-340.348	-200.000	0.000	-0.088
-339.333	75.287	0.200	0.211
-338.318	-91.294	-0.153	-0.044
-337.304	800.000	0.052	0.163
-336.289	182.089	-0.217	0.319
-335.275	-103.497	-0.333	-0.078
-334.260	-80.782	-0.047	0.016
-333.245	698.886	0.044	-0.116
-332.231	-200.000	0.037	-0.218
-331.216	403.957	-0.040	0.084
-330.202	-82.857	-0.115	-0.037
-329.187	372.988	0.101	-0.205
-328.172	-80.798	-0.196	0.065
-327.158	125.858	0.192	0.242
-326.143	-5.528	-0.127	0.087
-325.129	-200.000	-0.019	0.314
-324.114	-200.000	0.046	0.205
-323.099	306.688	-0.028	-0.053
-322.085	-94.511	0.356	0.097
-321.070	34.631	0.288	0.250
-320.056	-50.521	0.140	-0.066
-319.041	-200.000	-0.002	-0.143
-318.026	800.000	0.007	-0.028
-317.012	-200.000	0.044	0.273
-315.997	609.172	0.063	-0.157
-314.983	367.699	0.080	-0.161
-313.968	-21.637	-0.221	0.134
-312.953	221.291	0.077	0.123
-311.939	-200.000	0.020	-0.121
-310.924	52.855	0.203	0.194
-309.910	-55.059	-0.365	-0.164
-308.895	125.924	0.144	0.182
-307.880	-200.000	-0.024	0.321
-306.866	-62.703	-0.160	-0.066
-305.851	88.994	0.160	0.178
-304.837	25.608	0.227	-0.188
-303.822	-200.000	0.024	-0.216
-302.807	800.000	0.047	-0.185
-301.793	-7.550	-0.248	-0.167
-300.778	-145.042	-0.348	0.032
-299.764	-16.471	-0.221	0.140
-298.749	117.409	0.209	-0.256
-297.735	79.868	0.202	0.216
-296.720	372.723	-0.036	0.073
-295.705	50.355	-0.177	-0.166
-294.691	-52.783	-0.306	-0.140
-293.676	-200.000	0.001	0.199
-292.662	-200.000	0.006	-0.065
-291.647	90.707	0.069	0.077
-290.632	-91.428	0.093	0.026
-289.618	16.822	0.196	0.154
-288.603	-200.000	0.021	0.130
-287.589	800.000	-0.026	-0.091
-286.574	-74.844	0.216	-0.077
-285.559	-171.702	0.137	0.004
-284.545	130.964	-0.220	-0.280
-283.530	234.537	-0.278	0.456
-282.516	-173.350	0.036	-0.001
-281.501	591.510	-0.140	-0.344
-280.486	-98.941	0.229	0.058
-279.472	-80.584	-0.116	0.038
-278.457	800.000	-0.072	-0.224
-277.443	-193.234	-0.215	-0.002
-276.428	-61.118	0.220	-0.092
-275.413	246.525	-0.191	0.320
-274.399	-61.792	-0.050	0.021
-273.384	61.096	0.427	0.422
-272.370	29.215	0.089	0.075
-271.355	-96.897	-0.155	0.041
-270.340	-200.000	0.011	0.107
-269.326	-86.656	0.238	-0.072
-268.311	19.575	-0.130	0.104
-267.297	-47.897	0.152	0.073
-266.282	-23.731	0.131	0.078
-265.267	721.858	0.045	-0.119
-264.253	-200.000	0.037	0.240
-263.238	83.261	0.144	0.156
-262.224	800.000	-0.063	0.245
-261.209	-16.924	0.196	-0.123
-260.195	163.028	-0.190	0.266
-259.180	-117.259	-0.423	0.076
-258.165	-56.384	0.382	0.168
-257.151	-200.000	0.016	-0.242
-256.136	-200.000	-0.008	-0.038
-255.122	132.323	0.110	-0.140
-254.107	-121.259	0.260	0.043
-253.092	475.665	0.198	0.443
-252.078	16.990	-0.215	0.169
-251.063	-200.000	-0.025	-0.119
-250.049	462.935	-0.109	0.241
-249.034	409.672	-0.125	-0.263
-248.019	36.168	-0.139	0.121
-247.005	301.358	0.113	0.208
-245.990	-200.000	-0.012	0.227
-244.976	-76.448	0.379	0.132
-243.961	-200.000	0.029	-0.265
-242.946	137.785	0.144	0.188
-241.932	-115.791	-0.111	0.021
-240.917	5.484	-0.107	-0.078
-239.903	-92.666	-0.161	0.045
-238.888	276.315	0.246	0.434
-237.873	-171.318	0.247	-0.008
-236.859	-63.872	0.113	0.046
-235.844	-23.619	0.200	0.119
-234.830	68.197	-0.189	-0.192
-233.815	300.130	-0.054	0.098
-232.800	-86.732	0.099	0.030
-231.786	800.000	-0.064	-0.258
-230.771	800.000	-0.101	0.430
-229.757	195.552	-0.212	0.319
-228.742	-118.201	-0.076	-0.013
-227.727	-20.965	0.034	-0.021
-226.713	-125.650	-0.467	0.070
-225.698	800.000	-0.011	-0.036
-224.684	-200.000	-0.004	0.133
-223.669	800.000	-0.058	-0.172
-222.655	-8.114	-0.178	-0.119
-221.640	-200.000	0.043	0.260
-220.625	218.347	0.205	0.324
-219.611	-139.991	-0.257	-0.027
-218.596	-71.743	-0.190	0.070
-217.582	23.615	0.073	-0.059
-216.567	-200.000	-0.031	0.325
-215.552	-36.830	0.198	-0.106
-214.538	252.796	-0.127	-0.216
-213.523	800.000	0.008	0.035
-212.509	22.072	0.168	-0.136
-211.494	-156.707	-0.541	0.033
-210.479	157.676	0.235	-0.322
-209.465	783.302	-0.034	0.092
-208.450	-50.615	-0.395	0.185
-207.436	-200.000	0.055	-0.346
-206.421	-149.208	-0.160	0.013
-205.406	-188.395	-0.303	-0.004
-204.392	357.516	-0.130	0.258
-203.377	800.000	0.033	0.123
-202.363	256.715	-0.121	-0.206
-201.348	-200.000	-0.010	0.295
-200.333	-61.461	-0.145	-0.061
-199.319	-81.303	-0.125	0.041
-198.304	146.321	0.122	-0.162
-197.290	773.267	-0.055	0.149
-196.275	44.155	-0.144	0.131
-195.260	188.312	0.026	-0.039
-194.246	555.930	-0.105	0.250
-193.231	327.035	0.139	0.265
-192.217	-52.575	-0.127	0.058
-191.202	-101.441	0.445	-0.107
-190.187	-70.647	0.290	0.109
-189.173	-200.000	0.026	0.135
-188.158	715.772	0.061	-0.160
-187.144	123.765	-0.129	-0.161
-186.129	800.000	0.181	0.604
-185.114	-35.678	-0.451	0.242
-184.100	132.915	0.233	-0.298
-183.085	228.884	0.093	0.150
-182.071	33.082	-0.161	-0.138
-181.056	1.587	0.222	0.158
-180.042	-136.681	0.054	-0.006
-179.027	-110.707	0.106	0.022
-178.012	-9.071	-0.188	0.124
-176.998	57.122	0.220	0.213
-175.983	-105.920	0.229	-0.051
-174.969	-125.869	-0.095	-0.014
-173.954	510.865	0.022	0.051
-172.939	800.000	0.068	0.243
-171.925	88.771	0.192	-0.212
-170.910	25.768	-0.184	-0.152
-169.896	295.781	-0.033	0.061
-168.881	-0.680	0.149	0.105
-167.866	-3.528	0.101	-0.070
-166.852	630.503	0.051	-0.127
-165.837	-176.636	0.548	-0.014
-164.823	-200.000	0.010	-0.074
-163.808	30.248	-0.047	0.039
-162.793	39.490	0.104	0.092
-161.779	-128.309	-0.171	0.024
-160.764	-200.000	0.025	-0.329
-159.750	-200.000	-0.025	-0.183
-158.735	67.383	0.276	0.279
-157.720	-58.817	0.208	0.089
-156.706	-135.096	-0.105	0.013
-155.691	-200.000	-0.003	0.253
-154.677	517.530	0.088	-0.203
-153.662	800.000	-0.038	0.139
-152.647	-200.000	-0.012	-0.079
-151.633	-113.382	-0.194	-0.038
-150.618	29.458	0.301	-0.253
-149.604	-60.734	-0.266	-0.112
-148.589	681.273	-0.113	0.291
-147.574	-41.513	0.091	-0.046
-146.560	800.000	0.064	0.277
-145.545	-72.812	0.049	0.018
-144.531	104.749	0.228	-0.266
-143.516	281.679	-0.056	-0.100
-142.502	-200.000	-0.021	-0.164
-141.487	-200.000	-0.005	0.276
-140.472	-200.000	-0.006	-0.242
-139.458	-137.417	-0.307	-0.034
-138.443	-200.000	0.002	0.287
-137.429	-160.980	-0.108	-0.006
-136.414	-200.000	0.005	-0.279
-135.399	-200.000	0.003	-0.220
-134.385	135.070	0.118	0.152
-133.370	-58.663	0.210	0.090
-132.356	490.868	0.111	-0.251
-131.341	-170.187	0.324	0.011
-130.326	100.903	0.179	0.205
-129.312	-200.000	0.026	0.328
-128.297	73.829	-0.071	-0.074
-127.283	19.414	0.117	0.093
-126.268	-200.000	0.040	0.311
-125.253	35.448	0.101	0.087
-124.239	276.562	0.088	0.154
-123.224	117.119	-0.069	-0.084
-122.210	-134.436	0.275	-0.033
-121.195	-200.000	0.020	0.180
-120.180	72.860	0.154	0.159
-119.166	-200.000	0.020	0.267
-118.151	-23.836	0.170	-0.101
-117.137	-129.631	-0.225	0.031
-116.122	-59.574	0.562	-0.238
-115.107	-200.000	0.006	0.155
-114.093	-200.000	0.004	0.286
-113.078	8.170	0.097	0.072
-112.064	-200.000	0.003	-0.172
-111.049	260.719	-0.093	-0.159
-110.034	340.817	0.122	0.235
-109.020	3.182	0.055	0.039
-108.005	-70.821	-0.359	0.134
-106.991	33.347	0.075	0.064
-105.976	269.349	0.078	0.135
-104.962	800.000	-0.040	0.157
-103.947	410.866	-0.098	0.206
-102.932	369.289	-0.080	0.160
-101.918	91.174	-0.053	0.058
-100.903	-86.106	0.313	0.095
-99.889	434.933	-0.010	0.022
-98.874	-200.000	-0.015	0.232
-97.859	236.006	-0.058	0.095
-96.845	800.000	-0.029	-0.109
-95.830	-200.000	0.055	-0.313
-94.816	44.691	-0.174	-0.158
-93.801	-115.843	0.505	-0.093
-92.786	-200.000	-0.015	0.230
-91.772	712.211	0.049	-0.128
-90.757	800.000	-0.062	-0.244
-89.743	196.823	0.062	-0.094
-88.728	123.001	0.249	0.308
-87.713	70.170	0.163	-0.166
-86.699	-32.889	0.347	0.190
-85.684	52.016	0.128	0.121
-84.670	800.000	0.064	0.235
-83.655	89.399	0.045	-0.050
-82.640	-9.513	0.225	-0.148
-81.626	-200.000	-0.037	-0.205
-80.611	172.104	0.199	-0.283
-79.597	-126.354	0.191	-0.028
-78.582	479.964	-0.098	-0.218
-77.567	159.775	0.190	0.262
-76.553	-122.616	0.081	0.013
-75.538	-76.121	-0.059	0.020
-74.524	22.326	0.173	0.139
-73.509	-21.948	-0.138	-0.083
-72.494	458.592	-0.114	-0.250
-71.480	-78.271	-0.209	-0.071
-70.465	-127.858	0.332	-0.047
-69.451	17.145	0.280	-0.219
-68.436	-27.503	-0.057	0.033
-67.422	85.017	-0.182	0.197
-66.407	253.224	0.065	0.109
-65.392	306.183	0.133	-0.244
-64.378	48.356	0.127	-0.117
-63.363	44.746	0.305	-0.277
-62.349	610.128	-0.158	0.390
-61.334	86.206	-1.071	-1.162
-60.319	120.006	0.437	0.534
-59.305	800.000	-0.425	-1.252
-58.290	355.725	0.681	1.336
-57.276	800.000	0.565	1.717
-56.261	-200.000	112.374	639.634
-55.246	527.995	1515.376	3521.519
-54.232	175.035	2694.685	3844.649
-53.217	100.883	2317.780	2655.076
-52.203	34.838	2063.812	1778.712
-51.188	30.071	1980.116	1663.821
-50.173	28.509	1964.306	1636.547
-49.159	46.555	2023.136	1849.488
-48.144	45.877	2037.998	1856.869
-47.130	30.483	1997.672	1682.037
-46.115	28.205	1986.582	1652.102
-45.100	28.125	1983.639	1648.867
-44.086	28.045	1981.606	1646.391
-43.071	28.102	1978.609	1644.348
-42.057	27.995	1977.217	1642.161
-41.042	27.982	1975.674	1640.699
-40.027	28.045	1974.220	1639.995
-39.013	28.088	1971.560	1638.107
-37.998	28.123	1969.868	1636.949
-36.984	28.047	1968.016	1634.660
-35.969	28.064	1966.095	1633.156
-34.954	28.043	1964.622	1631.676
-33.940	28.236	1962.398	1631.488
-32.925	28.198	1960.843	1629.794
-31.911	28.225	1959.409	1628.772
-30.896	28.190	1957.877	1627.125
-29.881	28.209	1956.584	1626.157
-28.867	28.133	1955.716	1624.693
-27.852	28.222	1953.674	1623.726
-26.838	28.206	1951.780	1621.940
-25.823	28.252	1950.019	1620.820
-24.809	28.235	1947.969	1618.908
-23.794	28.191	1946.018	1616.833
-22.779	28.227	1944.258	1615.617
-21.765	28.214	1942.363	1613.871
-20.750	28.178	1940.618	1612.036
-19.736	28.183	1939.549	1611.131
-18.721	28.174	1938.132	1609.807
-17.706	28.239	1936.067	1608.598
-16.692	28.226	1934.834	1607.395
-15.677	28.221	1933.542	1606.220
-14.663	28.246	1931.917	1605.020
-13.648	28.209	1930.813	1603.714
-12.633	28.185	1929.641	1602.473
-11.619	28.246	1928.119	1601.677
-10.604	28.177	1926.760	1599.879
-9.590	28.168	1925.718	1598.873
-8.575	28.067	1924.618	1597.012
-7.560	28.187	1921.892	1595.732
-6.546	28.178	1921.601	1595.354
-5.531	28.088	1920.273	1593.400
-4.517	28.120	1918.988	1592.551
-3.502	28.144	1918.159	1592.010
-2.487	28.245	1916.499	1591.449
-1.473	28.293	1915.221	1590.740
-0.458	28.261	1910.487	1586.466
0.556	29.558	1890.967	1557.788
1.571	25.113	1872.138	1504.922
2.586	21.070	1893.915	1487.882
3.600	19.916	1929.042	1505.316
4.615	19.461	1922.783	1496.354
5.629	15.418	1822.995	1385.267
6.644	7.817	1708.303	1238.999
7.659	3.917	1674.258	1184.385
8.673	3.622	1670.965	1179.695
9.688	3.682	1669.559	1179.058
10.702	3.688	1668.345	1178.146
11.717	3.588	1665.220	1175.070
12.731	4.064	1664.251	1177.904
13.746	9.385	1676.855	1227.404
14.761	17.837	1695.398	1305.812
15.775	22.431	1703.627	1347.276
16.790	23.053	1702.988	1351.406
17.804	22.328	1700.458	1343.745
18.819	21.443	1697.753	1334.736
19.834	21.034	1694.968	1329.314
20.848	20.844	1694.986	1327.764
21.863	20.849	1694.102	1326.990
22.877	20.830	1691.919	1325.015
23.892	20.709	1691.015	1323.269
24.907	20.623	1690.060	1321.751
25.921	20.475	1689.401	1319.996
26.936	20.573	1687.591	1319.211
27.950	20.548	1686.521	1318.065
28.965	20.600	1686.231	1318.120
29.980	20.642	1685.531	1317.774
30.994	20.736	1684.614	1317.654
32.009	20.935	1683.535	1318.193
33.023	20.962	1683.292	1318.090
34.038	20.973	1681.942	1317.000
35.053	20.940	1680.913	1315.830
36.067	20.845	1679.395	1313.807
37.082	20.689	1678.626	1311.916
38.096	20.673	1677.576	1310.861
39.111	20.761	1676.701	1310.724
40.126	20.861	1676.043	1310.846
41.140	20.870	1674.869	1309.873
42.155	20.529	1673.484	1306.118
43.169	20.204	1671.819	1302.258
44.184	20.114	1670.334	1300.312
45.199	20.140	1669.260	1299.557
46.213	20.160	1668.492	1298.994
47.228	20.219	1667.844	1298.816
48.242	20.494	1666.927	1300.045
49.257	20.667	1666.128	1300.602
50.271	20.600	1664.587	1298.782
51.286	20.584	1663.207	1297.473
52.301	20.626	1662.106	1296.808
53.315	20.666	1660.617	1295.831
54.330	20.507	1659.505	1293.668
55.344	20.338	1656.969	1290.316
56.359	20.310	1655.976	1289.226
57.374	20.330	1654.561	1288.157
58.388	20.292	1653.433	1286.880
59.403	20.179	1652.110	1284.899
60.417	20.179	1650.539	1283.564
61.432	20.050	1649.674	1281.823
62.447	20.006	1648.622	1280.566
63.461	19.985	1647.144	1279.150
64.476	19.838	1646.453	1277.416
65.490	19.844	1645.543	1276.642
66.505	19.756	1644.132	1274.782
67.520	19.861	1642.539	1274.214
68.534	19.955	1641.750	1274.176
69.549	19.889	1640.333	1272.483
70.563	19.925	1639.035	1271.623
71.578	19.801	1638.002	1269.804
72.593	19.628	1637.123	1267.740
73.607	19.527	1635.873	1265.914
74.622	19.525	1635.230	1265.296
75.636	19.562	1634.478	1264.873
76.651	19.735	1633.349	1265.154
77.666	19.645	1633.029	1264.135
78.680	19.730	1632.066	1263.895
79.695	19.792	1631.500	1263.800
80.709	19.908	1630.222	1263.542
81.724	19.988	1629.570	1263.512
82.739	20.176	1629.170	1264.460
83.753	20.237	1628.705	1264.433
84.768	20.352	1628.512	1265.012
85.782	20.608	1627.951	1266.324
86.797	20.767	1626.802	1266.478
87.812	20.873	1626.147	1266.622
88.826	20.823	1625.195	1265.409
89.841	20.718	1624.273	1263.813
90.855	20.692	1623.439	1262.865
91.870	20.775	1622.236	1262.419
92.884	20.794	1621.610	1261.958
93.899	20.965	1620.335	1262.092
94.914	20.989	1618.775	1260.944
95.928	20.992	1618.077	1260.306
96.943	20.993	1617.022	1259.382
97.957	20.938	1615.360	1257.578
98.972	20.783	1614.205	1255.447
99.987	20.768	1612.578	1253.964
101.001	20.792	1610.685	1252.554
102.016	20.897	1609.316	1252.137
103.030	20.761	1608.389	1250.326
104.045	20.880	1606.920	1249.926
105.060	20.769	1605.765	1248.120
106.074	20.746	1603.780	1246.303
107.089	20.401	1602.402	1242.657
108.103	20.103	1599.958	1238.521
109.118	19.873	1598.551	1235.681
110.133	19.727	1597.451	1233.677
111.147	19.807	1595.475	1232.615
112.162	19.726	1594.819	1231.420
113.176	19.955	1592.960	1231.503
114.191	19.889	1592.183	1230.328
115.206	20.014	1590.971	1230.168
116.220	20.035	1589.939	1229.409
117.235	20.076	1588.302	1228.325
118.249	19.995	1587.321	1226.884
119.264	19.936	1585.456	1224.918
120.279	19.776	1584.362	1222.831
121.293	19.691	1582.791	1220.910
122.308	19.725	1581.234	1219.846
123.322	19.604	1579.464	1217.515
124.337	19.497	1577.863	1215.420
125.352	19.463	1577.204	1214.570
126.366	19.440	1575.904	1213.297
127.381	19.379	1574.617	1211.773
128.395	19.514	1573.248	1211.557
129.410	19.323	1572.373	1209.434
130.424	19.326	1570.897	1208.218
131.439	19.465	1569.360	1207.900
132.454	19.606	1568.602	1208.192
133.468	19.784	1567.246	1208.285
134.483	19.914	1565.851	1208.012
135.497	19.903	1565.127	1207.267
136.512	20.033	1563.381	1206.720
137.527	19.969	1562.938	1205.831
138.541	20.037	1560.835	1204.569
139.556	20.127	1559.563	1204.107
140.570	20.043	1558.845	1202.865
141.585	20.218	1557.606	1203.016
142.600	20.369	1557.027	1203.511
143.614	20.581	1555.604	1203.771
144.629	20.645	1554.838	1203.514
145.643	20.656	1554.010	1202.843
146.658	20.781	1552.741	1202.617
147.673	20.734	1550.785	1200.670
148.687	20.462	1549.008	1197.318
149.702	20.335	1547.399	1195.090
150.716	20.220	1545.675	1192.863
151.731	20.045	1544.558	1190.695
152.746	19.998	1542.999	1189.067
153.760	20.047	1541.216	1187.921
154.775	20.038	1540.974	1187.570
155.789	20.179	1539.622	1187.389
156.804	20.270	1538.846	1187.305
157.819	20.367	1537.562	1186.875
158.833	20.472	1536.736	1186.848
159.848	20.474	1535.753	1185.995
160.862	20.699	1534.691	1186.604
161.877	20.856	1533.279	1186.481
162.892	20.586	1531.629	1183.257
163.906	20.186	1530.055	1179.219
164.921	19.975	1528.525	1176.503
165.935	19.910	1527.418	1175.108
166.950	19.950	1526.387	1174.481
167.964	20.111	1525.459	1174.754
168.979	20.276	1524.368	1174.927
169.994	20.270	1523.224	1173.897
171.008	20.134	1522.275	1172.148
172.023	20.198	1521.205	1171.650
173.037	20.284	1520.321	1171.444
174.052	20.381	1520.147	1171.863
175.067	20.501	1518.924	1171.623
176.081	20.380	1517.262	1169.425
177.096	20.087	1515.336	1165.865
178.110	19.790	1514.350	1163.008
179.125	19.905	1513.153	1162.759
180.140	19.974	1512.190	1162.376
181.154	20.135	1511.315	1162.683
182.169	20.352	1510.979	1163.775
183.183	20.414	1510.058	1163.378
184.198	20.567	1508.977	1163.468
185.213	20.623	1508.157	1163.109
186.227	20.733	1506.947	1162.804
187.242	20.630	1506.318	1161.530
188.256	20.764	1505.495	1161.688
189.271	20.750	1504.367	1160.621
190.286	20.957	1503.420	1161.165
191.300	20.805	1502.632	1159.446
192.315	20.447	1500.640	1155.424
193.329	20.137	1498.903	1151.921
194.344	20.012	1498.100	1150.374
195.359	20.191	1496.608	1150.316
196.373	20.055	1496.142	1148.949
197.388	20.124	1495.185	1148.573
198.402	20.194	1494.195	1148.173
199.417	20.402	1493.700	1149.069
200.432	20.804	1493.139	1151.195
201.446	20.914	1492.596	1151.398
202.461	21.055	1491.787	1151.601
203.475	21.070	1490.893	1150.912
204.490	21.150	1490.137	1150.750
205.504	21.000	1489.080	1148.844
206.519	20.736	1486.886	1145.313
207.534	20.589	1485.957	1143.534
208.548	20.463	1484.582	1141.543
209.563	20.491	1483.244	1140.596
210.577	20.446	1482.693	1139.781
211.592	20.439	1482.341	1139.364
212.607	20.469	1481.622	1138.906
213.621	20.758	1480.782	1140.055
214.636	20.943	1480.034	1140.587
215.650	20.782	1479.275	1138.848
216.665	20.782	1478.092	1137.834
217.680	20.815	1477.429	1137.439
218.694	21.095	1477.036	1138.866
219.709	21.258	1476.183	1139.172
220.723	21.209	1474.986	1137.828
221.738	21.077	1474.412	1136.423
222.753	21.025	1473.365	1135.176
223.767	21.036	1472.169	1134.225
224.782	20.814	1471.204	1131.938
225.796	20.960	1470.578	1132.306
226.811	21.235	1469.917	1133.482
227.826	21.190	1469.590	1132.835
228.840	21.049	1468.689	1131.127
229.855	20.899	1467.069	1128.806
230.869	20.851	1465.882	1127.482
231.884	20.877	1464.669	1126.621
232.899	20.734	1463.634	1124.799
233.913	20.743	1462.178	1123.639
234.928	20.575	1460.481	1121.154
235.942	20.404	1459.728	1119.373
236.957	20.424	1457.953	1118.041
237.972	20.364	1457.306	1117.059
238.986	20.354	1456.010	1115.906
240.001	20.393	1455.476	1115.645
241.015	20.365	1454.652	1114.739
242.030	20.407	1453.382	1113.936
243.045	20.519	1452.638	1113.984
244.059	20.588	1451.989	1113.831
245.074	20.684	1451.334	1113.845
246.088	20.771	1450.494	1113.656
247.103	20.862	1449.864	1113.657
248.117	21.054	1449.444	1114.462
249.132	21.111	1448.489	1113.995
250.147	21.355	1448.066	1115.127
251.161	21.576	1447.980	1116.369
252.176	21.911	1447.723	1118.207
253.190	22.022	1447.299	1118.487
254.205	21.939	1446.655	1117.367
255.220	22.148	1445.596	1117.777
256.234	22.064	1445.045	1116.718
257.249	22.165	1444.025	1116.470
258.263	22.099	1443.023	1115.182
259.278	22.025	1442.463	1114.176
260.293	21.890	1441.396	1112.400
261.307	21.947	1440.465	1111.946
262.322	22.034	1440.001	1112.042
263.336	22.201	1438.924	1112.167
264.351	22.158	1437.748	1110.883
265.366	22.235	1437.047	1110.732
266.380	22.235	1436.007	1109.832
267.395	22.181	1434.949	1108.573
268.409	22.201	1434.517	1108.271
269.424	21.996	1433.382	1106.005
270.439	21.889	1431.793	1104.003
271.453	21.893	1431.098	1103.394
272.468	21.892	1430.187	1102.588
273.482	21.652	1429.276	1100.279
274.497	21.538	1428.059	1098.535
275.512	21.582	1427.409	1098.211
276.526	21.496	1426.594	1096.949
277.541	21.538	1425.437	1096.225
278.555	21.630	1424.361	1095.875
279.570	21.701	1423.294	1095.402
280.585	21.865	1422.861	1095.996
281.599	22.064	1422.882	1097.159
282.614	22.166	1421.920	1096.955
283.628	21.976	1420.375	1094.481
284.643	21.895	1418.789	1092.658
285.657	21.705	1418.069	1090.828
286.672	21.550	1417.248	1089.130
287.687	21.639	1416.432	1088.961
288.701	21.690	1415.357	1088.360
289.716	21.695	1414.505	1087.638
290.730	21.802	1413.499	1087.428
291.745	21.781	1412.345	1086.314
292.760	21.678	1412.063	1085.364
293.774	21.753	1411.066	1084.970
294.789	21.814	1410.136	1084.533
295.803	22.045	1409.583	1085.441
296.818	22.184	1408.465	1085.342
297.833	22.032	1407.442	1083.517
298.847	21.720	1406.234	1080.568
299.862	21.733	1405.373	1079.893
300.876	21.677	1404.543	1078.817
301.891	21.737	1403.575	1078.345
302.906	21.829	1402.652	1078.105
303.920	21.989	1402.292	1078.720
304.935	22.069	1401.982	1078.874
305.949	22.323	1401.323	1079.830
306.964	22.424	1401.026	1080.126
307.979	22.528	1399.893	1079.793
308.993	22.386	1398.574	1077.812
310.008	22.251	1397.632	1076.165
311.022	22.198	1396.276	1074.701
312.037	22.298	1395.895	1074.925
313.052	22.369	1394.701	1074.345
314.066	22.250	1393.433	1072.547
315.081	21.961	1392.476	1069.952
316.095	21.875	1390.576	1067.872
317.110	21.608	1389.362	1065.226
318.125	21.570	1388.829	1064.492
319.139	21.593	1387.903	1063.826
320.154	21.731	1386.664	1063.617
321.168	21.594	1386.020	1062.203
322.183	21.735	1384.547	1061.833
323.197	21.628	1384.014	1060.684
324.212	21.728	1383.081	1060.481
325.227	21.897	1382.446	1060.921
326.241	21.886	1381.710	1060.191
327.256	21.907	1380.938	1059.635
328.270	21.835	1379.929	1058.334
329.285	21.638	1379.423	1056.659
330.300	21.712	1377.965	1055.898
331.314	21.809	1377.147	1055.758
332.329	21.784	1376.146	1054.752
333.343	21.754	1374.797	1053.444
334.358	21.785	1374.296	1053.150
335.373	21.963	1374.089	1053.968
336.387	22.032	1373.892	1054.140
337.402	22.171	1373.039	1054.224
338.416	22.193	1372.082	1053.527
339.431	22.306	1372.081	1054.109
340.446	22.434	1371.309	1054.191
341.460	22.548	1370.652	1054.278
342.475	22.672	1369.616	1054.126
343.489	22.809	1368.894	1054.295
344.504	22.741	1368.446	1053.453
345.519	22.873	1367.628	1053.514
346.533	22.903	1366.693	1052.882
347.548	23.004	1365.857	1052.747
348.562	22.998	1365.169	1052.086
349.577	23.092	1364.333	1051.907
350.592	22.837	1362.904	1049.198
351.606	22.478	1361.526	1045.913
352.621	22.306	1360.260	1043.829
353.635	22.151	1358.983	1041.835
354.650	22.043	1357.955	1040.318
355.665	22.086	1356.849	1039.631
356.679	22.106	1356.345	1039.270
357.694	22.133	1355.576	1038.748
358.708	22.301	1354.642	1038.933
359.723	22.468	1353.138	1038.676
360.738	22.438	1352.629	1038.013
361.752	22.458	1351.645	1037.289
362.767	22.523	1350.242	1036.500
363.781	22.525	1349.299	1035.698
364.796	22.548	1348.427	1035.070
365.810	22.616	1347.658	1034.788
366.825	22.820	1347.626	1035.870
367.840	23.031	1347.101	1036.613
368.854	23.189	1346.742	1037.167
369.869	23.216	1346.972	1037.415
370.883	23.215	1346.026	1036.588
371.898	23.252	1345.010	1035.926
372.913	22.955	1343.830	1033.190
373.927	22.956	1342.779	1032.300
374.942	23.022	1341.524	1031.627
375.956	23.053	1341.396	1031.617
376.971	23.155	1340.683	1031.573
377.986	23.094	1339.414	1030.149
379.000	22.969	1338.963	1028.986
380.015	23.159	1338.497	1029.642
381.029	23.279	1337.994	1029.859
382.044	23.410	1336.997	1029.761
383.059	23.483	1336.226	1029.503
384.073	23.387	1335.707	1028.452
385.088	23.300	1334.848	1027.200
386.102	23.315	1334.251	1026.735
387.117	23.338	1333.954	1026.548
388.132	23.201	1332.906	1024.856
389.146	22.949	1331.525	1022.245
390.161	22.767	1330.042	1019.968
391.175	22.774	1329.585	1019.566
392.190	22.775	1328.418	1018.588
393.205	22.884	1327.683	1018.561
394.219	23.072	1327.039	1019.059
395.234	23.258	1326.208	1019.402
396.248	23.108	1324.617	1017.228
397.263	22.942	1323.309	1015.180
398.278	22.899	1322.126	1013.934
399.292	22.925	1320.717	1012.915
400.307	22.753	1319.541	1010.939
401.321	22.702	1318.606	1009.841
402.336	22.589	1317.555	1008.299
403.350	22.573	1316.050	1006.964
404.365	22.551	1315.408	1006.258
405.380	22.551	1314.580	1005.537
406.394	22.733	1314.202	1006.196
407.409	22.928	1313.504	1006.688
408.423	23.011	1313.269	1006.889
409.438	23.279	1312.458	1007.703
410.453	23.334	1312.475	1007.940
411.467	23.403	1311.583	1007.558
412.482	23.609	1311.083	1008.258
413.496	23.540	1310.577	1007.387
414.511	23.594	1309.928	1007.107
415.526	23.640	1308.993	1006.558
416.540	23.746	1308.811	1006.929
417.555	23.843	1308.259	1006.967
418.569	23.941	1307.443	1006.803
419.584	23.709	1307.004	1005.062
420.599	23.686	1305.573	1003.744
421.613	146.178	1435.206	1797.939
422.628	141.652	1454.065	1798.037
