DTS Sentinel unit serial number:	SN413079Multiplexer serial number:	ORYXHardware model number:	OX4-SRSoftware version number:	ORYX F/W v4.00 Oryx Data Collector v3.7.2.0data status	okinstallation	princeton_trtdifferential loss correction	single-endedforward channel	channel 4reverse channel	N/Adate	2019/09/11time	19:23:11forward acquisition time	60.00reverse acquisition time	0.00gamma	496.2192k internal	0.2292k external	0.2292temperature offset calibration	1.0039default loss term (dB/km)	0.3790temperature slope calibration	1.0000multiplexer offset coefficient	1.0000multiplexer slope coefficient	1.0000fibre end	0.00T internal ref (°C)	40.86T ext. ref 1 (°C)	1.31T ext. ref 2 (°C)	32.99length (m)	temperature (°C)	Stokes	anti-Stokes-747.200	-200.000	-0.015	-0.087
-746.185	71.156	-0.207	0.219
-745.171	-86.118	0.333	-0.105
-744.156	800.000	0.064	0.282
-743.142	22.540	-0.073	0.061
-742.127	-200.000	0.031	0.156
-741.112	-38.438	0.104	-0.056
-740.098	-48.760	-0.231	0.113
-739.083	-49.181	0.178	0.087
-738.069	191.874	-0.152	0.234
-737.054	-200.000	-0.014	-0.177
-736.039	111.157	-0.129	0.159
-735.025	-200.000	-0.012	-0.256
-734.010	60.811	0.151	-0.153
-732.996	800.000	-0.120	-0.417
-731.981	90.120	-0.144	-0.164
-730.966	-98.817	-0.266	0.069
-729.952	3.797	0.066	0.049
-728.937	24.888	0.109	0.093
-727.923	93.534	-0.223	-0.259
-726.908	-200.000	-0.057	-0.518
-725.894	30.919	-0.107	-0.094
-724.879	-107.318	0.330	0.074
-723.864	269.435	-0.056	-0.100
-722.850	800.000	-0.032	-0.125
-721.835	-90.079	0.138	0.041
-720.821	-46.363	-0.242	0.121
-719.806	428.163	-0.128	-0.282
-718.791	368.185	-0.079	-0.163
-717.777	-53.403	0.018	0.008
-716.762	-160.255	0.321	-0.018
-715.748	-200.000	0.076	-0.399
-714.733	-55.514	-0.191	-0.088
-713.718	175.909	0.192	-0.285
-712.704	34.448	-0.113	0.101
-711.689	61.345	0.220	-0.223
-710.675	-161.203	-0.179	-0.010
-709.660	103.578	-0.144	0.172
-708.645	-65.103	0.241	0.100
-707.631	800.000	0.030	-0.097
-706.616	125.248	-0.198	-0.256
-705.602	31.114	-0.126	0.110
-704.587	-27.311	-0.110	-0.065
-703.572	-200.000	0.040	-0.198
-702.558	141.489	-0.147	0.199
-701.543	313.263	-0.132	0.254
-700.529	800.000	0.068	-0.287
-699.514	147.411	-0.152	-0.210
-698.499	-89.500	-0.277	-0.083
-697.485	32.320	-0.245	-0.216
-696.470	-123.638	0.119	0.019
-695.456	4.346	-0.215	0.161
-694.441	-5.305	-0.089	0.062
-693.426	39.946	-0.467	0.428
-692.412	-24.141	-0.133	-0.081
-691.397	-118.667	-0.196	0.035
-690.383	270.679	0.078	0.141
-689.368	-99.944	-0.400	-0.102
-688.354	59.125	0.229	-0.230
-687.339	-70.200	-0.184	-0.071
-686.324	-9.476	-0.091	0.062
-685.310	-134.976	-0.120	-0.015
-684.295	369.810	-0.029	-0.060
-683.281	-85.932	-0.053	-0.017
-682.266	86.397	-0.113	0.127
-681.251	-43.994	-0.297	0.153
-680.237	-200.000	0.042	0.259
-679.222	-139.337	0.275	0.030
-678.208	-200.000	0.103	-0.523
-677.193	800.000	0.040	-0.129
-676.178	462.901	-0.294	0.671
-675.164	780.020	0.096	0.269
-674.149	95.395	-0.208	0.242
-673.135	-200.000	-0.012	-0.122
-672.120	-200.000	0.072	0.423
-671.105	26.538	-0.236	0.202
-670.091	-200.000	0.047	0.223
-669.076	-118.758	0.300	0.054
-668.062	591.189	0.106	-0.268
-667.047	-45.773	-0.151	0.076
-666.032	30.048	-0.015	-0.013
-665.018	800.000	-0.103	-0.389
-664.003	8.600	0.187	-0.144
-662.989	-124.312	-0.073	0.012
-661.974	-200.000	-0.058	-0.288
-660.959	-49.959	0.283	-0.137
-659.945	-58.115	-0.069	0.031
-658.930	607.234	-0.090	0.228
-657.916	-135.425	0.103	0.013
-656.901	48.690	0.144	-0.138
-655.886	100.345	0.148	-0.175
-654.872	184.806	0.099	0.149
-653.857	-74.503	-0.237	0.087
-652.843	-74.554	0.133	-0.049
-651.828	-200.000	0.104	0.000
-650.814	29.801	-0.158	-0.137
-649.799	-123.466	0.271	-0.044
-648.784	15.800	-0.116	0.093
-647.770	-110.593	0.261	-0.055
-646.755	800.000	0.056	0.167
-645.741	800.000	-0.060	-0.194
-644.726	-92.862	-0.143	-0.041
-643.711	800.000	-0.077	0.310
-642.697	205.135	-0.202	0.319
-641.682	573.541	-0.108	-0.268
-640.668	800.000	-0.038	-0.137
-639.653	-200.000	0.048	-0.303
-638.638	72.708	0.223	-0.237
-637.624	92.437	-0.113	-0.130
-636.609	-191.742	0.313	0.003
-635.595	-200.000	-0.018	0.085
-634.580	-200.000	-0.009	-0.294
-633.565	446.860	-0.077	0.172
-632.551	363.917	0.075	-0.153
-631.536	-200.000	0.045	0.594
-630.522	800.000	0.053	-0.207
-629.507	123.266	-0.101	-0.129
-628.492	-88.977	0.464	0.140
-627.478	-42.964	-0.152	0.079
-626.463	-200.000	-0.377	-0.000
-625.449	138.792	0.080	0.107
-624.434	800.000	0.054	-0.180
-623.419	-88.232	-0.175	-0.053
-622.405	-155.897	-0.184	0.012
-621.390	102.066	-0.330	-0.393
-620.376	800.000	-0.045	-0.188
-619.361	-200.000	0.014	0.142
-618.346	-200.000	-0.017	-0.347
-617.332	200.766	-0.033	-0.051
-616.317	-77.286	0.299	-0.106
-615.303	97.297	0.150	0.175
-614.288	800.000	-0.050	0.167
-613.273	85.705	0.265	-0.296
-612.259	-200.000	-0.024	0.140
-611.244	196.928	-0.225	0.349
-610.230	546.877	0.039	0.095
-609.215	-142.641	0.047	-0.005
-608.201	245.037	0.175	0.299
-607.186	-144.448	0.089	0.008
-606.171	-79.766	0.145	0.050
-605.157	530.891	0.099	-0.238
-604.142	-160.506	-0.096	0.005
-603.128	-10.343	-0.178	0.120
-602.113	-37.764	-0.241	-0.131
-601.098	442.533	0.121	0.271
-600.084	-200.000	-0.019	0.195
-599.069	238.821	-0.053	0.089
-598.055	800.000	0.022	0.065
-597.040	1.228	0.140	0.103
-596.025	800.000	0.133	0.403
-595.011	777.534	-0.144	0.401
-593.996	-200.000	0.030	-0.181
-592.982	-104.734	-0.253	0.059
-591.967	-134.593	0.372	-0.046
-590.952	-2.845	-0.161	-0.114
-589.938	-103.343	0.293	0.070
-588.923	-105.067	0.134	-0.031
-587.909	35.308	-0.121	-0.108
-586.894	-116.591	0.292	-0.055
-585.879	199.581	-0.011	-0.017
-584.865	-48.372	0.321	-0.157
-583.850	800.000	0.058	-0.216
-582.836	-91.884	0.122	0.035
-581.821	-98.882	-0.300	-0.078
-580.806	-141.752	-0.222	-0.023
-579.792	-200.000	-0.024	0.257
-578.777	-133.843	-0.423	-0.053
-577.763	35.079	-0.190	-0.169
-576.748	-200.000	0.040	-0.296
-575.733	359.059	-0.083	-0.168
-574.719	-200.000	-0.027	-0.344
-573.704	544.460	-0.065	0.158
-572.690	-200.000	0.014	0.084
-571.675	63.335	0.151	-0.154
-570.661	-200.000	0.004	0.067
-569.646	-150.252	0.207	-0.016
-568.631	76.198	-0.066	-0.071
-567.617	-151.502	0.185	-0.014
-566.602	262.201	-0.026	-0.046
-565.588	-21.269	-0.300	0.186
-564.573	406.171	-0.044	0.094
-563.558	-200.000	0.053	-0.283
-562.544	-200.000	0.049	-0.220
-561.529	153.780	0.098	0.136
-560.515	50.641	0.092	0.089
-559.500	-32.500	-0.091	0.052
-558.485	409.189	0.076	-0.163
-557.471	-58.490	0.184	-0.081
-556.456	-200.000	0.032	0.231
-555.442	131.675	0.125	0.164
-554.427	-76.197	-0.320	0.115
-553.412	-52.249	0.297	0.140
-552.398	134.347	-0.109	0.144
-551.383	-200.000	-0.008	0.059
-550.369	-165.596	0.160	0.007
-549.354	-200.000	0.012	-0.112
-548.339	800.000	-0.037	0.134
-547.325	-65.862	-0.048	-0.019
-546.310	-20.655	-0.138	0.086
-545.296	773.958	0.086	-0.239
-544.281	95.451	0.063	0.073
-543.266	-78.196	-0.075	0.026
-542.252	-118.899	-0.333	0.059
-541.237	80.767	-0.108	0.119
-540.223	-200.000	0.018	0.130
-539.208	666.055	0.101	-0.265
-538.193	-31.424	-0.302	0.172
-537.179	586.246	0.048	-0.120
-536.164	66.483	-0.252	0.260
-535.150	-75.683	-0.123	-0.044
-534.135	195.109	0.177	0.273
-533.121	-200.000	0.012	-0.083
-532.106	800.000	-0.033	-0.111
-531.091	236.501	0.175	0.294
-530.077	-137.626	0.406	0.046
-529.062	-39.134	-0.205	-0.109
-528.048	-200.000	-0.008	0.111
-527.033	670.615	0.018	0.047
-526.018	800.000	-0.050	0.174
-525.004	800.000	-0.103	-0.342
-523.989	800.000	-0.085	-0.251
-522.975	-97.672	-0.356	-0.094
-521.960	-140.922	-0.149	-0.015
-520.945	-200.000	0.019	0.150
-519.931	-200.000	-0.048	0.298
-518.916	800.000	-0.055	-0.182
-517.902	-89.399	0.098	-0.029
-516.887	-100.926	0.144	0.036
-515.872	26.262	0.257	0.217
-514.858	-47.226	-0.134	0.066
-513.843	125.900	0.303	0.389
-512.829	-161.357	0.303	0.016
-511.814	289.547	-0.162	0.299
-510.799	227.915	-0.179	0.295
-509.785	125.449	-0.231	0.296
-508.770	175.811	-0.122	0.180
-507.756	71.867	-0.122	-0.129
-506.741	234.040	0.115	0.192
-505.726	25.523	0.139	-0.117
-504.712	-200.000	-0.002	0.289
-503.697	768.177	-0.071	0.196
-502.683	205.924	0.086	0.136
-501.668	-116.066	0.188	-0.036
-500.653	-138.600	0.034	0.004
-499.639	-33.310	-0.061	-0.034
-498.624	210.634	-0.072	0.115
-497.610	253.825	0.044	-0.076
-496.595	-50.078	-0.343	-0.165
-495.581	326.544	0.115	0.223
-494.566	-200.000	-0.003	-0.090
-493.551	800.000	0.020	-0.078
-492.537	-141.608	-0.305	-0.031
-491.522	191.507	-0.034	0.051
-490.508	235.139	0.052	0.086
-489.493	-174.115	0.212	-0.006
-488.478	2.337	0.301	-0.221
-487.464	-200.000	0.010	0.051
-486.449	49.957	0.020	0.019
-485.435	-168.219	0.339	0.013
-484.420	800.000	0.017	0.062
-483.405	575.931	-0.084	0.209
-482.391	405.503	0.064	-0.136
-481.376	48.934	0.164	-0.156
-480.362	275.942	-0.167	0.300
-479.347	-200.000	-0.032	-0.169
-478.332	-200.000	0.018	-0.235
-477.318	-108.656	0.091	-0.020
-476.303	184.865	0.204	0.307
-475.289	800.000	-0.078	-0.278
-474.274	298.238	-0.183	-0.340
-473.259	99.768	-0.115	-0.135
-472.245	131.872	0.173	0.226
-471.230	-78.190	-0.408	0.142
-470.216	53.752	-0.079	0.077
-469.201	-200.000	-0.022	-0.232
-468.186	-65.410	0.293	-0.119
-467.172	-97.636	-0.273	0.072
-466.157	-200.000	0.000	0.021
-465.143	-153.893	0.122	0.008
-464.128	800.000	-0.055	-0.174
-463.113	36.099	0.198	0.176
-462.099	-43.753	-0.297	-0.152
-461.084	800.000	0.074	0.243
-460.070	-59.189	-0.121	-0.053
-459.055	-170.876	-0.203	-0.007
-458.040	-200.000	0.023	-0.126
-457.026	142.610	-0.271	0.365
-456.011	39.023	-0.317	0.287
-454.997	-200.000	0.003	0.189
-453.982	0.823	0.221	-0.160
-452.968	800.000	0.050	-0.161
-451.953	-37.035	-0.245	0.133
-450.938	-7.080	0.123	-0.085
-449.924	-118.197	-0.354	-0.064
-448.909	6.101	-0.172	0.129
-447.895	445.800	0.172	0.383
-446.880	-16.750	0.217	-0.139
-445.865	656.821	0.068	0.176
-444.851	-200.000	0.003	-0.151
-443.836	-129.840	-0.229	0.032
-442.822	-24.352	-0.258	-0.155
-441.807	800.000	0.062	-0.184
-440.792	121.660	-0.158	-0.199
-439.778	800.000	-0.048	-0.137
-438.763	-95.133	-0.215	0.059
-437.749	637.116	0.041	0.105
-436.734	-113.968	0.078	0.015
-435.719	753.607	0.070	-0.192
-434.705	-200.000	0.044	0.266
-433.690	388.485	-0.067	-0.140
-432.676	-60.390	0.320	0.137
-431.661	-48.061	0.076	0.037
-430.646	-112.245	-0.245	-0.050
-429.632	800.000	0.197	-0.728
-428.617	216.685	-0.033	0.054
-427.603	-200.000	0.003	0.155
-426.588	334.918	-0.102	-0.200
-425.573	800.000	0.133	0.383
-424.559	466.387	0.076	-0.172
-423.544	711.428	-0.053	0.143
-422.530	-200.000	0.002	-0.019
-421.515	-132.184	-0.267	-0.035
-420.500	426.934	-0.045	0.099
-419.486	303.420	-0.156	0.291
-418.471	-47.615	0.124	-0.061
-417.457	800.000	-0.096	0.302
-416.442	96.467	-0.040	-0.046
-415.428	104.243	0.188	0.224
-414.413	742.144	0.072	0.195
-413.398	-200.000	-0.001	-0.183
-412.384	-199.230	-0.147	-0.001
-411.369	-200.000	-0.078	-0.365
-410.355	-101.005	0.150	0.037
-409.340	-35.499	0.189	0.103
-408.325	-129.512	0.210	0.029
-407.311	-44.766	0.084	-0.042
-406.296	800.000	-0.116	-0.329
-405.282	800.000	-0.039	-0.153
-404.267	9.600	-0.116	0.088
-403.252	-119.996	0.274	-0.047
-402.238	63.304	-0.034	-0.034
-401.223	357.786	-0.062	0.126
-400.209	-98.536	0.186	0.048
-399.194	-85.552	-0.415	0.130
-398.179	-192.997	0.241	0.002
-397.165	232.505	-0.092	0.153
-396.150	-85.243	-0.226	-0.071
-395.136	540.936	-0.049	-0.118
-394.121	131.892	0.093	-0.121
-393.106	-59.087	-0.432	-0.188
-392.092	-99.448	-0.249	-0.063
-391.077	28.371	-0.074	-0.063
-390.063	-61.006	0.196	0.084
-389.048	800.000	-0.113	-0.338
-388.033	-128.206	0.314	0.045
-387.019	22.091	-0.165	0.136
-386.004	-118.419	-0.108	0.019
-384.990	127.318	-0.103	-0.132
-383.975	-22.606	-0.088	0.053
-382.960	84.409	-0.212	0.234
-381.946	-134.757	-0.175	0.021
-380.931	395.178	-0.083	-0.174
-379.917	-39.872	0.303	0.160
-378.902	29.737	0.104	0.089
-377.888	325.114	0.256	-0.493
-376.873	250.226	-0.236	0.404
-375.858	-200.000	-0.004	0.356
-374.844	-86.920	0.105	0.032
-373.829	-56.907	0.304	0.135
-372.815	-29.563	0.170	0.098
-371.800	96.716	0.100	-0.116
-370.785	65.278	0.265	-0.271
-369.771	-59.240	-0.139	0.061
-368.756	166.248	-0.135	0.193
-367.742	190.234	-0.093	-0.142
-366.727	800.000	-0.098	-0.292
-365.712	800.000	-0.037	-0.112
-364.698	-200.000	0.005	-0.148
-363.683	-200.000	-0.029	-0.412
-362.669	-52.992	0.227	0.105
-361.654	113.339	0.221	0.271
-360.639	-145.378	-0.400	0.036
-359.625	-30.238	0.058	0.033
-358.610	-132.041	-0.191	0.025
-357.596	85.446	0.062	-0.069
-356.581	-72.420	-0.110	0.041
-355.566	515.086	0.055	0.130
-354.552	3.374	0.255	0.187
-353.537	-153.741	0.169	0.012
-352.523	-126.358	-0.125	0.019
-351.508	-73.570	0.072	-0.026
-350.493	-102.131	-0.446	-0.108
-349.479	44.223	0.160	-0.148
-348.464	214.079	-0.143	-0.228
-347.450	800.000	0.029	-0.097
-346.435	-200.000	-0.030	0.276
-345.420	-200.000	-0.032	0.361
-344.406	-200.000	0.010	-0.179
-343.391	-200.000	-0.026	-0.226
-342.377	-37.093	0.108	-0.058
-341.362	800.000	0.032	-0.129
-340.348	800.000	-0.091	-0.273
-339.333	-88.650	0.405	-0.121
-338.318	-80.474	0.097	-0.032
-337.304	117.407	0.079	0.098
-336.289	4.856	-0.237	0.175
-335.275	-8.162	0.198	0.134
-334.260	-83.796	0.201	-0.065
-333.245	111.849	0.202	-0.245
-332.231	-3.599	-0.153	0.107
-331.216	-134.945	-0.277	-0.034
-330.202	-74.558	-0.144	-0.052
-329.187	-200.000	0.041	-0.228
-328.172	-11.233	0.351	0.233
-327.158	246.635	-0.099	-0.169
-326.143	383.372	0.059	-0.122
-325.129	653.409	0.082	-0.212
-324.114	-29.461	-0.431	-0.248
-323.099	34.424	-0.239	-0.210
-322.085	317.576	0.045	0.085
-321.070	91.762	0.211	0.239
-320.056	15.830	-0.074	-0.059
-319.041	-12.066	-0.181	-0.119
-318.026	-60.253	-0.171	-0.073
-317.012	800.000	-0.050	0.201
-315.997	800.000	0.037	-0.157
-314.983	1.276	-0.086	0.062
-313.968	-117.647	0.341	0.062
-312.953	-84.296	-0.196	0.063
-311.939	-134.857	0.210	-0.026
-310.924	-127.859	0.308	-0.045
-309.910	-105.124	-0.161	0.037
-308.895	800.000	-0.070	-0.232
-307.880	-137.360	-0.110	-0.013
-306.866	-104.763	0.361	-0.083
-305.851	291.993	-0.049	-0.089
-304.837	289.167	0.062	-0.113
-303.822	208.984	-0.225	0.354
-302.807	705.963	-0.117	-0.311
-301.793	404.448	-0.077	-0.164
-300.778	800.000	0.043	0.163
-299.764	333.253	-0.048	-0.094
-298.749	37.716	0.400	0.357
-297.735	-55.582	0.166	0.075
-296.720	-166.846	-0.328	-0.014
-295.705	639.664	0.043	-0.111
-294.691	-200.000	0.013	-0.190
-293.676	800.000	0.038	0.125
-292.662	273.304	0.155	0.275
-291.647	800.000	0.104	-0.459
-290.632	-200.000	-0.039	0.266
-289.618	-138.255	-0.123	0.014
-288.603	50.373	-0.062	0.059
-287.589	153.298	0.176	0.242
-286.574	155.280	-0.274	0.379
-285.559	276.108	0.066	-0.117
-284.545	-200.000	-0.003	0.196
-283.530	22.561	0.123	0.101
-282.516	55.985	0.107	0.104
-281.501	-19.495	0.113	-0.071
-280.486	-109.446	0.361	-0.077
-279.472	-200.000	0.006	-0.030
-278.457	-58.305	0.236	-0.103
-277.443	-84.000	0.281	-0.090
-276.428	-139.617	-0.185	-0.020
-275.413	89.114	0.241	0.269
-274.399	-117.830	0.242	0.044
-273.384	159.635	-0.031	0.043
-272.370	-97.429	-0.294	0.077
-271.355	-181.347	-0.039	0.001
-270.340	-82.312	-0.081	-0.026
-269.326	470.374	-0.118	0.266
-268.311	-96.308	-0.219	-0.058
-267.297	-99.654	0.234	0.059
-266.282	-200.000	-0.015	0.270
-265.267	-66.911	0.369	0.146
-264.253	-75.870	0.063	-0.022
-263.238	-200.000	-0.026	0.251
-262.224	-129.808	0.196	-0.027
-261.209	-48.650	-0.198	0.095
-260.195	127.216	-0.140	-0.178
-259.180	-56.373	-0.270	0.120
-258.165	800.000	-0.073	-0.233
-257.151	-92.900	-0.501	-0.141
-256.136	286.985	-0.126	-0.228
-255.122	42.840	0.181	0.166
-254.107	-200.000	0.027	-0.308
-253.092	82.872	0.279	0.305
-252.078	-73.672	0.361	-0.132
-251.063	-123.585	0.158	-0.025
-250.049	-142.418	0.160	0.016
-249.034	-200.000	-0.001	0.209
-248.019	14.794	-0.112	0.088
-247.005	320.774	-0.035	0.066
-245.990	-136.345	0.451	0.053
-244.976	-0.412	0.437	-0.312
-243.961	-200.000	-0.002	0.016
-242.946	-8.676	0.282	-0.190
-241.932	-35.234	-0.463	-0.253
-240.917	42.322	0.164	-0.150
-239.903	213.240	-0.051	-0.080
-238.888	113.935	-0.115	0.140
-237.873	418.489	-0.096	-0.207
-236.859	-57.412	-0.203	-0.090
-235.844	540.287	0.004	-0.009
-234.830	-67.884	-0.046	0.018
-233.815	173.901	-0.246	-0.356
-232.800	800.000	0.041	-0.145
-231.786	800.000	0.140	-0.506
-230.771	-3.378	-0.213	0.149
-229.757	64.417	0.110	-0.111
-228.742	-189.189	-0.122	-0.001
-227.727	187.849	-0.165	-0.247
-226.713	-106.448	-0.098	0.022
-225.698	185.432	0.041	-0.060
-224.684	-17.402	0.152	0.096
-223.669	-200.000	0.000	-0.023
-222.655	220.290	0.069	-0.111
-221.640	761.645	0.115	0.313
-220.625	59.019	-0.094	0.093
-219.611	458.495	-0.069	0.154
-218.596	15.618	-0.087	0.069
-217.582	-53.595	0.173	0.079
-216.567	126.433	0.160	-0.204
-215.552	-112.967	-0.248	0.049
-214.538	-5.837	-0.225	-0.155
-213.523	1.195	0.110	0.079
-212.509	112.620	-0.135	-0.164
-211.494	-33.896	0.164	-0.091
-210.479	-200.000	-0.001	0.036
-209.465	668.231	0.055	-0.142
-208.450	-150.827	-0.084	0.006
-207.436	61.703	0.143	-0.142
-206.421	-200.000	-0.045	-0.202
-205.406	-200.000	0.032	-0.285
-204.392	-52.543	0.064	0.029
-203.377	34.638	-0.218	0.191
-202.363	682.047	0.031	0.082
-201.348	178.142	-0.156	-0.228
-200.333	-25.087	-0.117	-0.069
-199.319	-200.000	0.066	0.301
-198.304	800.000	-0.059	-0.255
-197.290	-200.000	0.019	-0.137
-196.275	121.852	-0.080	-0.100
-195.260	204.683	0.063	0.098
-194.246	114.025	0.016	0.019
-193.231	213.084	0.170	-0.269
-192.217	-64.839	0.291	0.118
-191.202	-44.122	-0.246	-0.124
-190.187	108.794	-0.103	-0.123
-189.173	359.737	-0.058	-0.116
-188.158	-200.000	-0.020	0.204
-187.144	800.000	-0.045	-0.158
-186.129	599.386	-0.140	0.347
-185.114	-123.602	0.126	-0.020
-184.100	-40.469	-0.039	-0.020
-183.085	20.671	-0.263	0.213
-182.071	-5.781	0.195	-0.134
-181.056	159.035	-0.204	0.284
-180.042	304.121	-0.081	-0.150
-179.027	77.246	-0.176	0.187
-178.012	-90.992	0.355	-0.102
-176.998	-50.713	-0.196	-0.092
-175.983	-89.380	0.086	0.025
-174.969	-200.000	0.072	0.329
-173.954	800.000	-0.054	-0.234
-172.939	-118.350	-0.175	-0.031
-171.925	-38.796	0.378	0.200
-170.910	372.949	-0.127	-0.258
-169.896	-200.000	-0.000	-0.098
-168.881	252.798	0.136	-0.232
-167.866	26.633	0.209	-0.175
-166.852	448.975	0.128	0.282
-165.837	188.992	0.152	-0.228
-164.823	69.057	0.111	0.114
-163.808	-24.571	0.186	0.111
-162.793	-59.065	-0.248	-0.107
-161.779	800.000	0.112	0.378
-160.764	-59.023	-0.152	-0.066
-159.750	-113.314	-0.113	-0.022
-158.735	-200.000	0.004	-0.208
-157.720	-200.000	0.004	-0.089
-156.706	76.037	-0.214	-0.226
-155.691	-200.000	-0.018	0.203
-154.677	341.861	0.101	0.198
-153.662	-4.292	0.380	0.263
-152.647	800.000	-0.108	0.349
-151.633	745.801	0.025	0.068
-150.618	-200.000	0.048	0.275
-149.604	-10.937	0.147	-0.097
-148.589	48.319	0.315	-0.295
-147.574	-123.868	-0.329	0.052
-146.560	8.792	-0.193	0.146
-145.545	122.622	0.075	-0.093
-144.531	246.939	0.216	-0.364
-143.516	800.000	-0.096	0.308
-142.502	187.355	0.118	0.176
-141.487	-136.991	0.406	-0.046
-140.472	31.621	0.159	-0.137
-139.458	-62.359	-0.152	-0.063
-138.443	-78.450	0.204	-0.070
-137.429	-174.565	0.329	0.009
-136.414	-16.225	-0.274	-0.174
-135.399	800.000	0.091	0.300
-134.385	-200.000	-0.035	0.200
-133.370	-122.610	-0.154	-0.025
-132.356	-200.000	0.034	-0.160
-131.341	2.979	-0.161	-0.117
-130.326	25.894	-0.178	-0.148
-129.312	-31.447	-0.189	0.106
-128.297	120.991	0.254	0.315
-127.283	352.220	-0.093	0.183
-126.268	-4.478	0.046	0.032
-125.253	67.526	-0.125	-0.127
-124.239	-56.426	0.161	-0.071
-123.224	800.000	0.063	0.208
-122.210	-155.359	0.086	0.006
-121.195	800.000	0.146	-0.430
-120.180	111.646	-0.301	-0.363
-119.166	194.879	-0.107	0.162
-118.151	800.000	0.009	0.031
-117.137	9.372	-0.069	-0.052
-116.122	25.372	-0.088	-0.073
-115.107	-171.569	-0.091	0.003
-114.093	-200.000	0.001	-0.063
-113.078	-200.000	0.060	0.375
-112.064	800.000	0.040	-0.161
-111.049	-69.500	0.088	-0.034
-110.034	-200.000	0.020	0.197
-109.020	-44.470	-0.504	0.252
-108.005	-56.988	-0.396	0.174
-106.991	-164.018	-0.196	0.009
-105.976	491.251	-0.150	0.342
-104.962	-183.715	-0.194	0.003
-103.947	-200.000	0.039	0.275
-102.932	148.434	-0.345	0.465
-101.918	-170.957	-0.084	-0.003
-100.903	89.501	0.120	0.133
-99.889	-77.079	0.264	-0.092
-98.874	394.855	0.187	0.388
-97.859	-50.274	-0.095	0.045
-96.845	800.000	0.090	-0.343
-95.830	-36.829	-0.203	-0.109
-94.816	-142.296	0.320	0.032
-93.801	-166.360	0.341	-0.014
-92.786	-200.000	0.000	-0.138
-91.772	-97.083	-0.070	-0.018
-90.757	800.000	-0.042	0.175
-89.743	-200.000	-0.064	0.282
-88.728	41.216	0.274	-0.247
-87.713	-38.962	-0.042	-0.022
-86.699	452.592	0.060	-0.131
-85.684	-73.699	0.240	0.087
-84.670	-8.321	0.092	-0.062
-83.655	234.029	-0.092	0.151
-82.640	-167.960	-0.303	-0.012
-81.626	626.930	-0.062	0.156
-80.611	97.197	-0.074	-0.085
-79.597	-38.386	-0.203	-0.107
-78.582	-128.383	-0.108	0.015
-77.567	-137.518	0.294	-0.033
-76.553	-200.000	0.042	0.232
-75.538	88.435	0.137	0.152
-74.524	-136.096	-0.096	-0.011
-73.509	232.606	-0.094	0.154
-72.494	-200.000	-0.047	0.296
-71.480	800.000	0.036	0.130
-70.465	291.449	-0.032	0.059
-69.451	800.000	0.035	0.128
-68.436	-130.217	-0.079	-0.011
-67.422	-200.000	-0.035	0.410
-66.407	-147.589	0.186	0.016
-65.392	-55.621	0.056	-0.025
-64.378	-109.812	-0.129	0.027
-63.363	-71.416	0.211	0.079
-62.349	-80.801	0.037	-0.012
-61.334	123.484	-0.578	-0.722
-60.319	86.366	0.164	0.180
-59.305	800.000	-0.218	-0.872
-58.290	244.718	0.270	0.451
-57.276	267.382	0.834	1.453
-56.261	-200.000	77.538	506.208
-55.246	521.775	1313.142	3070.533
-54.232	149.752	2540.986	3430.853
-53.217	107.913	2353.849	2793.894
-52.203	47.684	2096.890	1949.053
-51.188	42.832	2003.359	1818.344
-50.173	41.067	1983.223	1784.189
-49.159	53.358	2022.435	1930.825
-48.144	58.171	2043.703	1994.612
-47.130	43.622	2007.769	1829.209
-46.115	40.933	1996.585	1794.713
-45.100	40.827	1993.780	1791.163
-44.086	40.788	1991.149	1788.378
-43.071	40.692	1989.133	1785.635
-42.057	40.621	1987.476	1783.434
-41.042	40.762	1985.123	1782.518
-40.027	40.812	1982.617	1780.649
-39.013	40.797	1981.352	1779.306
-37.998	40.848	1979.297	1777.846
-36.984	40.818	1977.507	1775.900
-35.969	40.803	1975.899	1774.255
-34.954	40.812	1973.908	1772.475
-33.940	40.875	1972.308	1771.527
-32.925	40.820	1970.889	1769.694
-31.911	40.920	1968.789	1768.630
-30.896	40.864	1967.193	1766.628
-29.881	40.843	1966.039	1765.329
-28.867	40.984	1964.084	1764.758
-27.852	40.959	1962.013	1762.602
-26.838	40.974	1960.275	1761.108
-25.823	40.878	1958.439	1758.535
-24.809	40.914	1956.556	1757.095
-23.794	40.899	1954.881	1755.390
-22.779	40.847	1953.289	1753.431
-21.765	40.871	1951.215	1751.711
-20.750	40.835	1949.959	1750.196
-19.736	40.846	1948.347	1748.779
-18.721	40.894	1946.273	1747.265
-17.706	40.883	1944.804	1745.785
-16.692	40.819	1943.000	1743.534
-15.677	40.792	1941.730	1742.085
-14.663	40.939	1940.082	1741.826
-13.648	40.833	1939.418	1740.234
-12.633	40.872	1937.696	1738.964
-11.619	40.903	1936.060	1737.697
-10.604	40.830	1935.265	1736.275
-9.590	40.816	1933.738	1734.718
-8.575	40.883	1932.296	1733.940
-7.560	40.846	1930.947	1732.336
-6.546	40.870	1929.378	1731.069
-5.531	40.889	1928.055	1729.981
-4.517	40.793	1927.253	1728.349
-3.502	40.900	1925.496	1727.643
-2.487	40.862	1924.365	1726.222
-1.473	40.818	1923.785	1725.251
-0.458	40.935	1919.056	1721.963
0.556	39.568	1898.496	1687.823
1.571	34.369	1874.914	1622.588
2.586	29.342	1894.031	1595.624
3.600	27.764	1930.066	1611.906
4.615	26.839	1925.623	1599.898
5.629	20.135	1822.806	1458.151
6.644	8.367	1696.204	1264.110
7.659	1.932	1653.072	1182.094
8.673	1.493	1648.768	1175.521
9.688	1.365	1647.246	1173.339
10.702	1.227	1646.087	1171.344
11.717	1.166	1643.161	1168.692
12.731	1.532	1642.374	1170.845
13.746	8.646	1660.017	1238.536
14.761	19.479	1684.387	1341.249
15.775	24.625	1693.221	1388.257
16.790	25.216	1693.725	1393.143
17.804	25.413	1693.226	1394.138
18.819	25.388	1692.239	1393.009
19.834	25.476	1691.653	1393.084
20.848	25.730	1690.676	1394.120
21.863	25.803	1690.035	1394.036
22.877	25.736	1689.037	1392.569
23.892	25.815	1687.857	1392.081
24.907	25.710	1687.309	1390.695
25.921	25.719	1686.577	1390.038
26.936	25.794	1684.422	1388.721
27.950	25.821	1683.913	1388.389
28.965	25.725	1683.846	1387.469
29.980	25.819	1682.396	1386.871
30.994	25.900	1681.003	1386.226
32.009	25.853	1679.800	1384.753
33.023	25.755	1679.183	1383.364
34.038	25.814	1678.356	1383.015
35.053	25.758	1677.212	1381.523
36.067	25.785	1676.377	1380.918
37.082	25.740	1675.258	1379.533
38.096	25.873	1673.996	1379.384
39.111	25.820	1673.399	1378.369
40.126	25.710	1673.351	1377.360
41.140	25.841	1672.173	1377.270
42.155	25.822	1670.870	1375.935
43.169	25.746	1669.706	1374.271
44.184	25.826	1668.825	1374.035
45.199	25.757	1667.884	1372.616
46.213	25.737	1666.584	1371.271
47.228	25.708	1665.779	1370.268
48.242	25.785	1664.311	1369.519
49.257	25.798	1662.976	1368.400
50.271	25.867	1661.515	1367.603
51.286	25.780	1660.714	1366.160
52.301	25.748	1659.453	1364.764
53.315	25.780	1658.294	1363.929
54.330	25.794	1656.709	1362.610
55.344	25.781	1655.404	1361.316
56.359	25.748	1654.576	1360.272
57.374	25.817	1652.972	1359.348
58.388	25.879	1652.027	1358.918
59.403	25.802	1650.803	1357.216
60.417	25.880	1649.736	1356.805
61.432	25.806	1649.116	1355.620
62.447	25.797	1647.765	1354.314
63.461	25.783	1647.022	1353.480
64.476	25.855	1645.677	1352.799
65.490	25.815	1644.681	1351.559
66.505	25.895	1643.412	1350.996
67.520	25.726	1642.951	1349.229
68.534	25.847	1641.562	1348.879
69.549	25.878	1640.574	1348.178
70.563	25.845	1639.397	1346.844
71.578	25.807	1638.333	1345.570
72.593	25.868	1637.253	1345.015
73.607	25.863	1636.576	1344.308
74.622	25.898	1635.434	1343.509
75.636	25.799	1635.074	1342.359
76.651	25.798	1633.925	1341.283
77.666	25.829	1633.585	1341.116
78.680	25.847	1632.017	1339.850
79.695	25.854	1631.419	1339.292
80.709	25.845	1630.354	1338.234
81.724	25.821	1629.479	1337.213
82.739	25.809	1628.875	1336.516
83.753	25.732	1628.692	1335.676
84.768	25.794	1627.087	1334.696
85.782	25.858	1626.217	1334.337
86.797	25.799	1625.442	1333.151
87.812	25.805	1624.643	1332.423
88.826	25.860	1623.643	1331.888
89.841	25.781	1622.658	1330.377
90.855	26.002	1621.171	1330.674
91.870	25.855	1620.464	1328.891
92.884	25.901	1619.526	1328.346
93.899	25.871	1618.328	1327.024
94.914	25.865	1617.268	1325.992
95.928	25.829	1615.991	1324.561
96.943	25.814	1614.996	1323.523
97.957	25.788	1613.685	1322.139
98.972	25.870	1612.336	1321.516
99.987	25.918	1610.611	1320.338
101.001	25.864	1609.552	1318.956
102.016	25.806	1607.890	1317.056
103.030	25.838	1606.497	1316.029
104.045	25.811	1606.017	1315.323
105.060	25.848	1604.078	1313.888
106.074	25.823	1603.143	1312.827
107.089	25.822	1601.622	1311.454
108.103	25.817	1600.871	1310.692
109.118	25.851	1599.492	1309.691
110.133	25.810	1599.221	1309.057
111.147	25.957	1597.262	1308.404
112.162	25.891	1596.174	1306.914
113.176	25.888	1594.952	1305.783
114.191	25.917	1593.746	1304.889
115.206	25.871	1592.924	1303.765
116.220	25.871	1591.764	1302.700
117.235	25.852	1590.283	1301.234
118.249	25.911	1589.203	1300.660
119.264	25.882	1588.218	1299.529
120.279	25.922	1586.943	1298.661
121.293	25.940	1585.588	1297.566
122.308	25.951	1584.279	1296.463
123.322	25.954	1583.178	1295.465
124.337	25.973	1581.925	1294.460
125.352	25.893	1581.306	1293.270
126.366	26.010	1580.511	1293.345
127.381	25.837	1579.783	1291.390
128.395	25.985	1578.838	1291.568
129.410	26.022	1577.203	1290.378
130.424	25.963	1576.281	1289.090
131.439	26.008	1574.805	1288.090
132.454	25.964	1574.047	1287.044
133.468	25.928	1572.942	1285.770
134.483	25.987	1571.348	1284.769
135.497	25.994	1569.898	1283.520
136.512	25.963	1568.932	1282.399
137.527	25.918	1568.194	1281.360
138.541	25.985	1567.341	1281.026
139.556	26.028	1565.881	1280.024
140.570	25.953	1565.024	1278.679
141.585	26.019	1563.070	1277.440
142.600	25.964	1562.354	1276.351
143.614	26.027	1561.156	1275.704
144.629	25.987	1560.369	1274.665
145.643	26.043	1558.794	1273.662
146.658	25.928	1557.346	1271.557
147.673	25.960	1555.887	1270.472
148.687	25.912	1555.288	1269.533
149.702	26.024	1553.971	1269.135
150.716	26.058	1552.018	1267.669
151.731	25.972	1551.725	1266.711
152.746	25.986	1550.559	1265.750
153.760	25.944	1549.349	1264.352
154.775	26.028	1548.155	1263.853
155.789	26.001	1547.296	1262.855
156.804	26.081	1545.981	1262.229
157.819	26.033	1545.160	1261.109
158.833	25.936	1544.286	1259.606
159.848	26.017	1543.422	1259.353
160.862	26.088	1542.332	1258.854
161.877	25.996	1541.365	1257.311
162.892	26.085	1540.323	1256.967
163.906	26.042	1539.386	1255.791
164.921	26.115	1538.354	1255.347
165.935	26.173	1537.420	1254.875
166.950	26.126	1536.504	1253.691
167.964	26.089	1536.007	1252.918
168.979	26.125	1534.720	1252.010
169.994	26.130	1533.973	1251.323
171.008	26.130	1532.745	1250.207
172.023	26.049	1532.377	1249.240
173.037	26.156	1531.105	1248.829
174.052	26.053	1530.216	1247.285
175.067	26.116	1529.096	1246.692
176.081	26.108	1528.094	1245.713
177.096	26.185	1527.075	1245.302
178.110	26.164	1526.023	1244.188
179.125	26.133	1525.113	1243.123
180.140	26.110	1524.357	1242.239
181.154	26.174	1523.401	1241.792
182.169	26.225	1522.524	1241.318
183.183	26.113	1521.427	1239.542
184.198	26.214	1520.462	1239.343
185.213	26.127	1520.005	1238.262
186.227	26.161	1519.081	1237.629
187.242	26.186	1518.277	1237.036
188.256	26.203	1517.088	1236.076
189.271	26.229	1516.426	1235.609
190.286	26.233	1515.463	1234.739
191.300	26.304	1514.466	1234.303
192.315	26.211	1513.910	1233.103
193.329	26.166	1512.774	1231.763
194.344	26.093	1512.271	1230.747
195.359	26.160	1511.253	1230.267
196.373	26.362	1510.268	1230.735
197.388	26.184	1509.651	1228.910
198.402	26.146	1508.242	1227.394
199.417	26.123	1507.376	1226.424
200.432	26.167	1506.352	1225.780
201.446	26.176	1506.352	1225.734
202.461	26.196	1505.462	1225.041
203.475	26.264	1504.109	1224.289
204.490	26.231	1503.408	1223.384
205.504	26.214	1502.380	1222.329
206.519	26.154	1501.828	1221.362
207.534	26.219	1501.209	1221.192
208.548	26.254	1499.754	1220.139
209.563	26.260	1499.278	1219.684
210.577	26.263	1497.864	1218.444
211.592	26.309	1497.006	1217.950
212.607	26.255	1496.939	1217.424
213.621	26.300	1496.047	1216.889
214.636	26.346	1495.580	1216.712
215.650	26.314	1494.498	1215.514
216.665	26.317	1493.954	1214.983
217.680	26.288	1492.902	1213.825
218.694	26.312	1492.047	1213.184
219.709	26.369	1491.701	1213.173
220.723	26.372	1490.364	1211.999
221.738	26.389	1489.466	1211.278
222.753	26.343	1488.566	1210.132
223.767	26.219	1488.138	1208.848
224.782	26.213	1487.060	1207.820
225.796	26.348	1485.793	1207.588
226.811	26.392	1485.046	1207.171
227.826	26.312	1485.113	1206.580
228.840	26.404	1484.075	1206.245
229.855	26.387	1483.258	1205.359
230.869	26.363	1482.732	1204.669
231.884	26.427	1481.198	1203.743
232.899	26.476	1480.093	1203.058
233.913	26.362	1479.373	1201.611
234.928	26.415	1478.415	1201.078
235.942	26.454	1477.396	1200.406
236.957	26.469	1476.303	1199.512
237.972	26.424	1475.732	1198.642
238.986	26.464	1474.172	1197.535
240.001	26.454	1473.430	1196.761
241.015	26.426	1472.585	1195.778
242.030	26.572	1471.570	1195.818
243.045	26.613	1470.477	1195.093
244.059	26.620	1469.876	1194.544
245.074	26.522	1469.256	1193.287
246.088	26.569	1468.316	1192.731
247.103	26.611	1467.417	1192.169
248.117	26.634	1466.688	1191.620
249.132	26.579	1466.072	1190.657
250.147	26.561	1465.096	1189.637
251.161	26.569	1464.378	1189.003
252.176	26.620	1463.853	1188.804
253.190	26.791	1462.907	1189.057
254.205	26.610	1462.587	1187.501
255.220	26.672	1461.834	1187.191
256.234	26.611	1460.780	1185.830
257.249	26.580	1460.236	1185.080
258.263	26.685	1459.531	1185.094
259.278	26.744	1458.194	1184.286
260.293	26.814	1457.280	1183.898
261.307	26.789	1456.460	1182.960
262.322	26.692	1456.273	1182.074
263.336	26.762	1455.246	1181.592
264.351	26.755	1454.191	1180.583
265.366	26.688	1453.554	1179.527
266.380	26.807	1452.599	1179.421
267.395	26.765	1451.764	1178.365
268.409	26.734	1450.986	1177.430
269.424	26.759	1449.829	1176.549
270.439	26.741	1449.461	1176.030
271.453	26.717	1448.564	1175.039
272.468	26.790	1447.762	1174.764
273.482	26.805	1447.054	1174.182
274.497	26.777	1446.276	1173.263
275.512	26.719	1445.545	1172.191
276.526	26.808	1445.078	1172.286
277.541	26.826	1443.491	1171.009
278.555	26.868	1443.171	1170.918
279.570	26.891	1442.466	1170.387
280.585	26.914	1441.581	1169.716
281.599	26.889	1440.397	1168.494
282.614	26.843	1439.422	1167.300
283.628	26.850	1438.708	1166.661
284.643	26.802	1438.148	1165.798
285.657	26.845	1437.026	1165.059
286.672	26.860	1436.526	1164.649
287.687	26.903	1435.341	1163.861
288.701	26.860	1434.251	1162.597
289.716	26.850	1433.838	1162.098
290.730	26.929	1433.074	1161.881
291.745	26.937	1432.299	1161.198
292.760	26.978	1431.303	1160.551
293.774	26.946	1430.437	1159.543
294.789	27.083	1429.284	1159.381
295.803	27.072	1428.725	1158.753
296.818	26.995	1428.232	1157.759
297.833	27.012	1427.208	1156.939
298.847	27.055	1426.685	1156.687
299.862	26.936	1425.464	1154.834
300.876	27.026	1424.788	1154.756
301.891	27.043	1423.900	1154.045
302.906	27.061	1423.174	1153.466
303.920	27.055	1422.701	1152.942
304.935	27.110	1422.107	1152.711
305.949	27.165	1421.476	1152.444
306.964	27.144	1420.609	1151.504
307.979	27.123	1419.611	1150.461
308.993	27.171	1418.439	1149.716
310.008	27.143	1417.790	1148.908
311.022	27.200	1416.683	1148.271
312.037	27.123	1416.455	1147.499
313.052	27.187	1415.352	1146.907
314.066	27.122	1414.419	1145.639
315.081	27.228	1412.994	1145.051
316.095	27.243	1412.101	1144.318
317.110	27.146	1411.750	1143.326
318.125	27.145	1411.036	1142.638
319.139	27.151	1410.299	1141.981
320.154	27.214	1409.087	1141.295
321.168	27.175	1408.428	1140.414
322.183	27.293	1407.181	1140.043
323.197	27.301	1406.239	1139.226
324.212	27.308	1405.026	1138.190
325.227	27.293	1404.825	1137.828
326.241	27.320	1403.822	1137.084
327.256	27.349	1403.203	1136.665
328.270	27.393	1402.380	1136.171
329.285	27.347	1401.476	1135.053
330.300	27.258	1401.213	1134.187
331.314	27.307	1400.238	1133.598
332.329	27.352	1399.373	1133.080
333.343	27.389	1398.574	1132.566
334.358	27.406	1398.004	1132.107
335.373	27.491	1397.245	1131.921
336.387	27.430	1396.548	1130.879
337.402	27.478	1395.685	1130.378
338.416	27.511	1395.515	1130.341
339.431	27.457	1395.242	1129.689
340.446	27.538	1394.221	1129.260
341.460	27.509	1393.263	1128.206
342.475	27.451	1392.176	1126.867
343.489	27.537	1391.205	1126.514
344.504	27.570	1390.427	1125.986
345.519	27.608	1389.767	1125.591
346.533	27.591	1388.657	1124.482
347.548	27.538	1388.076	1123.590
348.562	27.509	1387.339	1122.717
349.577	27.467	1386.784	1121.905
350.592	27.621	1385.774	1121.936
351.606	27.644	1384.770	1121.166
352.621	27.486	1384.088	1119.547
353.635	27.501	1383.159	1118.785
354.650	27.619	1382.292	1118.710
355.665	27.710	1380.995	1118.117
356.679	27.632	1380.424	1117.081
357.694	27.678	1379.163	1116.241
358.708	27.660	1378.216	1115.268
359.723	27.696	1377.376	1114.710
360.738	27.648	1376.148	1113.326
361.752	27.653	1375.210	1112.497
362.767	27.591	1374.057	1111.090
363.781	27.672	1373.354	1110.916
364.796	27.700	1372.641	1110.407
365.810	27.788	1371.636	1110.032
366.825	27.708	1371.220	1109.110
367.840	27.726	1370.617	1108.636
368.854	27.757	1369.800	1108.065
369.869	27.744	1369.413	1107.578
370.883	27.927	1368.224	1107.624
371.898	27.804	1367.940	1106.550
372.913	27.887	1367.074	1106.258
373.927	27.929	1366.541	1105.981
374.942	27.807	1366.087	1104.779
375.956	27.771	1365.537	1104.018
376.971	27.809	1364.453	1103.270
377.986	27.875	1363.516	1102.815
379.000	27.907	1362.297	1101.926
380.015	27.943	1361.702	1101.564
381.029	28.037	1361.164	1101.598
382.044	28.008	1360.559	1100.838
383.059	27.936	1360.073	1099.912
384.073	27.917	1359.108	1098.921
385.088	27.993	1359.001	1099.195
386.102	28.019	1358.407	1098.770
387.117	27.910	1357.442	1097.241
388.132	27.940	1357.325	1097.229
389.146	27.951	1356.195	1096.282
390.161	27.974	1355.511	1095.772
391.175	28.073	1354.534	1095.478
392.190	28.046	1354.092	1094.863
393.205	27.972	1353.293	1093.672
394.219	28.114	1352.359	1093.676
395.234	27.995	1351.501	1092.170
396.248	28.130	1350.535	1092.100
397.263	28.105	1349.204	1090.776
398.278	28.093	1348.081	1089.704
399.292	28.203	1347.154	1089.510
400.307	28.212	1346.052	1088.580
401.321	28.083	1345.664	1087.401
402.336	28.278	1344.402	1087.442
403.350	28.136	1343.906	1086.101
404.365	28.121	1342.645	1084.898
405.380	28.192	1342.015	1084.713
406.394	28.251	1341.164	1084.281
407.409	28.159	1340.705	1083.268
408.423	28.151	1339.912	1082.484
409.438	28.257	1339.268	1082.496
410.453	28.290	1338.336	1081.843
411.467	28.349	1337.699	1081.576
412.482	28.333	1337.370	1081.121
413.496	28.385	1336.652	1080.753
414.511	28.284	1335.838	1079.401
415.526	28.283	1335.194	1078.779
416.540	28.303	1334.773	1078.465
417.555	28.281	1333.734	1077.398
418.569	28.320	1333.077	1077.002
419.584	28.391	1332.925	1077.199
420.599	28.324	1332.490	1076.361
421.613	82.757	1331.006	1382.816
422.628	82.851	1330.757	1382.944
