DTS Sentinel unit serial number:	SN413079Multiplexer serial number:	ORYXHardware model number:	OX4-SRSoftware version number:	ORYX F/W v4.00 Oryx Data Collector v3.7.2.0data status	okinstallation	princeton_trtdifferential loss correction	single-endedforward channel	channel 4reverse channel	N/Adate	2019/09/11time	18:35:10forward acquisition time	60.00reverse acquisition time	0.00gamma	496.2192k internal	0.2276k external	0.2276temperature offset calibration	1.0028default loss term (dB/km)	0.3790temperature slope calibration	1.0000multiplexer offset coefficient	1.0000multiplexer slope coefficient	1.0000fibre end	0.00T internal ref (°C)	43.69T ext. ref 1 (°C)	1.17T ext. ref 2 (°C)	36.65length (m)	temperature (°C)	Stokes	anti-Stokes-747.200	135.473	-0.184	-0.246
-746.185	-5.628	-0.121	-0.086
-745.171	800.000	-0.060	-0.214
-744.156	450.579	0.062	0.140
-743.142	16.893	0.123	-0.101
-742.127	800.000	-0.157	0.550
-741.112	-7.419	0.219	0.153
-740.098	59.331	0.104	0.106
-739.083	-144.648	0.409	0.039
-738.069	134.012	0.071	0.095
-737.054	86.739	-0.071	-0.081
-736.039	800.000	0.038	-0.126
-735.025	-70.031	0.048	0.019
-734.010	-200.000	-0.116	-0.617
-732.996	222.983	-0.125	0.207
-731.981	-89.574	-0.433	0.131
-730.966	-200.000	-0.025	-0.186
-729.952	-183.965	0.090	0.002
-728.937	153.551	-0.237	0.335
-727.923	-37.015	0.131	-0.072
-726.908	800.000	0.038	-0.158
-725.894	152.621	-0.134	-0.188
-724.879	-22.258	-0.045	-0.028
-723.864	6.489	0.121	0.092
-722.850	19.406	0.090	-0.075
-721.835	-61.979	-0.103	0.044
-720.821	-76.125	0.128	-0.046
-719.806	-1.857	-0.222	0.161
-718.791	-92.414	0.166	0.048
-717.777	216.838	0.122	-0.200
-716.762	27.101	-0.133	0.114
-715.748	193.396	0.108	0.168
-714.733	467.714	0.079	0.183
-713.718	-111.409	0.065	-0.014
-712.704	-59.671	-0.080	0.035
-711.689	391.107	0.112	0.240
-710.675	46.516	-0.150	0.144
-709.660	-112.561	-0.104	-0.021
-708.645	-200.000	-0.056	0.360
-707.631	73.661	0.109	-0.117
-706.616	-200.000	-0.045	0.242
-705.602	108.225	-0.090	0.111
-704.587	-200.000	-0.019	-0.345
-703.572	44.752	-0.220	-0.209
-702.558	139.693	-0.069	0.094
-701.543	-98.879	0.140	0.037
-700.529	-46.416	0.192	0.097
-699.514	129.265	0.167	0.220
-698.499	-76.956	-0.243	-0.087
-697.485	155.704	0.179	0.254
-696.470	-200.000	-0.025	0.133
-695.456	-124.100	0.166	-0.027
-694.441	122.706	-0.060	0.077
-693.426	-136.518	-0.313	0.037
-692.412	-113.150	-0.146	-0.030
-691.397	133.799	-0.107	0.143
-690.383	-200.000	0.062	-0.297
-689.368	143.302	-0.187	-0.256
-688.354	-200.000	-0.061	-0.321
-687.339	144.617	-0.119	0.164
-686.324	-22.156	-0.203	0.127
-685.310	-98.048	0.199	-0.053
-684.295	696.340	0.175	0.472
-683.281	-34.688	0.231	-0.130
-682.266	-200.000	-0.014	-0.104
-681.251	-62.616	-0.053	-0.022
-680.237	-46.702	0.099	0.050
-679.222	-109.355	0.143	0.031
-678.208	490.294	0.036	0.085
-677.193	-69.244	-0.141	0.056
-676.178	-108.334	-0.226	0.050
-675.164	-56.433	-0.320	-0.146
-674.149	239.290	0.081	-0.139
-673.135	331.938	-0.137	-0.272
-672.120	149.568	-0.233	-0.325
-671.105	9.264	-0.061	-0.048
-670.091	154.971	0.073	0.104
-669.076	675.790	-0.045	-0.121
-668.062	-62.715	-0.210	-0.089
-667.047	249.308	0.021	-0.037
-666.032	242.619	0.142	-0.245
-665.018	-153.640	-0.131	-0.009
-664.003	164.525	0.140	0.203
-662.989	160.594	-0.189	-0.271
-661.974	311.825	0.177	-0.342
-660.959	-23.570	-0.183	-0.113
-659.945	-84.071	-0.265	0.087
-658.930	20.427	-0.096	0.079
-657.916	107.407	-0.226	-0.276
-656.901	-180.578	0.346	-0.007
-655.886	-200.000	-0.024	0.209
-654.872	221.172	0.026	0.043
-653.857	-79.949	-0.047	-0.016
-652.843	171.697	-0.238	-0.351
-651.828	-82.270	0.211	-0.070
-650.814	800.000	-0.092	0.322
-649.799	-200.000	0.000	0.199
-648.784	498.008	-0.049	-0.115
-647.770	245.192	-0.134	0.232
-646.755	-30.576	-0.130	0.075
-645.741	76.722	-0.125	0.136
-644.726	-200.000	0.016	-0.219
-643.711	189.403	0.116	-0.179
-642.697	23.947	-0.152	0.129
-641.682	-126.135	0.287	-0.044
-640.668	-66.260	0.415	0.169
-639.653	188.954	-0.122	0.187
-638.638	66.121	0.112	-0.117
-637.624	-200.000	-0.052	-0.295
-636.609	-200.000	-0.032	-0.210
-635.595	320.820	-0.121	0.236
-634.580	668.842	0.095	-0.254
-633.565	-24.411	0.265	-0.162
-632.551	358.414	-0.133	-0.273
-631.536	800.000	-0.060	-0.247
-630.522	-107.519	-0.097	0.022
-629.507	192.309	0.086	-0.132
-628.492	239.079	-0.153	-0.260
-627.478	-54.217	0.289	-0.135
-626.463	191.080	-0.064	-0.099
-625.449	211.541	0.194	0.312
-624.434	-63.133	-0.068	0.029
-623.419	800.000	0.071	0.201
-622.405	126.326	0.145	0.188
-621.390	7.361	-0.132	0.101
-620.376	-200.000	0.010	-0.091
-619.361	-138.259	-0.170	0.019
-618.346	249.465	-0.129	-0.224
-617.332	127.665	-0.075	0.098
-616.317	-106.609	-0.242	0.055
-615.303	44.568	-0.017	0.016
-614.288	800.000	0.085	-0.260
-613.273	23.905	0.204	0.172
-612.259	130.448	0.155	0.203
-611.244	800.000	0.043	-0.143
-610.230	-200.000	-0.055	-0.313
-609.215	13.563	-0.180	0.143
-608.201	-91.062	0.282	-0.083
-607.186	-200.000	0.061	-0.572
-606.171	101.511	-0.137	0.163
-605.157	-168.569	-0.331	0.013
-604.142	-128.466	0.110	0.016
-603.128	1.958	0.071	-0.053
-602.113	24.052	0.128	-0.108
-601.098	-200.000	-0.071	0.418
-600.084	-124.828	0.334	-0.053
-599.069	-200.000	-0.044	0.273
-598.055	-55.821	0.252	0.115
-597.040	23.039	0.124	0.104
-596.025	-159.224	-0.086	0.005
-595.011	347.272	-0.086	0.174
-593.996	3.964	-0.273	-0.204
-592.982	-200.000	-0.038	0.177
-591.967	-78.244	0.102	-0.036
-590.952	8.117	0.167	-0.129
-589.938	292.191	0.059	-0.110
-588.923	800.000	0.090	-0.344
-587.909	-32.228	0.237	0.136
-586.894	70.581	-0.045	0.048
-585.879	386.544	0.082	0.173
-584.865	-10.816	-0.115	0.078
-583.850	663.824	-0.128	-0.338
-582.836	-49.578	-0.016	-0.008
-581.821	-56.284	0.180	-0.082
-580.806	-87.144	0.065	-0.020
-579.792	32.848	0.175	0.155
-578.777	-98.140	-0.302	-0.079
-577.763	62.442	0.226	0.231
-576.748	-200.000	-0.050	0.396
-575.733	-200.000	-0.005	-0.460
-574.719	66.454	-0.039	-0.041
-573.704	-66.183	-0.346	0.141
-572.690	-200.000	0.024	-0.128
-571.675	-25.908	0.143	-0.086
-570.661	-200.000	0.003	-0.303
-569.646	-148.739	-0.642	0.053
-568.631	-200.000	0.000	-0.218
-567.617	-137.480	0.097	0.011
-566.602	-158.457	0.222	-0.013
-565.588	-200.000	0.005	-0.076
-564.573	18.266	0.206	-0.169
-563.558	440.987	0.105	-0.236
-562.544	521.837	-0.016	0.039
-561.529	19.924	-0.018	-0.015
-560.515	-200.000	-0.008	0.067
-559.500	39.571	-0.171	0.157
-558.485	118.264	-0.308	0.388
-557.471	-136.755	0.440	0.052
-556.456	339.020	-0.037	0.074
-555.442	437.957	-0.020	0.044
-554.427	72.689	-0.157	-0.168
-553.412	215.616	0.168	-0.273
-552.398	-99.834	0.215	0.055
-551.383	725.668	-0.093	-0.252
-550.369	98.671	-0.136	-0.161
-549.354	-182.379	0.020	0.000
-548.339	-47.918	-0.201	-0.099
-547.325	28.065	0.076	-0.066
-546.310	-112.928	-0.477	0.097
-545.296	519.399	0.068	0.163
-544.281	0.536	-0.310	-0.227
-543.266	47.355	0.073	-0.070
-542.252	800.000	0.036	-0.113
-541.237	-56.476	-0.171	-0.078
-540.223	51.822	-0.256	0.249
-539.208	-200.000	-0.065	-0.352
-538.193	-200.000	0.026	-0.208
-537.179	-200.000	0.066	-0.380
-536.164	103.498	-0.049	0.059
-535.150	394.264	0.059	-0.125
-534.135	42.089	-0.251	-0.233
-533.121	-138.362	-0.480	-0.054
-532.106	112.443	0.214	0.265
-531.091	800.000	0.063	-0.202
-530.077	180.237	0.213	0.320
-529.062	-200.000	-0.017	0.226
-528.048	800.000	-0.078	0.277
-527.033	47.273	-0.060	0.057
-526.018	63.673	0.214	-0.220
-525.004	-126.425	-0.127	0.019
-523.989	-24.289	0.213	0.130
-522.975	-106.173	-0.205	0.047
-521.960	119.241	0.160	0.202
-520.945	-200.000	-0.032	0.349
-519.931	418.726	0.092	0.202
-518.916	-103.575	0.382	-0.092
-517.902	-82.892	0.094	-0.031
-516.887	-4.485	-0.169	0.120
-515.872	34.794	-0.255	-0.227
-514.858	-88.015	-0.363	0.111
-513.843	207.954	-0.069	-0.111
-512.829	-29.330	0.281	0.164
-511.814	-200.000	-0.049	-0.301
-510.799	209.701	0.176	0.281
-509.785	-200.000	0.018	0.478
-508.770	78.178	-0.095	-0.103
-507.756	800.000	0.094	-0.305
-506.741	225.330	0.142	0.234
-505.726	-114.182	0.166	-0.033
-504.712	-200.000	-0.031	-0.153
-503.697	25.508	-0.297	-0.252
-502.683	0.414	0.114	-0.083
-501.668	50.739	-0.196	-0.190
-500.653	-64.128	-0.209	-0.087
-499.639	231.090	-0.048	-0.079
-498.624	-10.892	-0.277	0.187
-497.610	313.256	0.280	0.538
-496.595	-165.130	0.054	-0.002
-495.581	-155.263	0.367	-0.024
-494.566	-3.165	0.109	-0.078
-493.551	-169.364	0.262	0.010
-492.537	-23.910	0.023	-0.014
-491.522	25.879	-0.261	-0.222
-490.508	-200.000	-0.002	0.184
-489.493	297.034	-0.098	-0.184
-488.478	-128.128	-0.354	0.052
-487.464	-28.519	0.033	-0.020
-486.449	391.000	0.017	-0.036
-485.435	354.660	-0.173	-0.350
-484.420	800.000	0.169	0.518
-483.405	-200.000	-0.037	0.237
-482.391	-142.086	-0.579	0.059
-481.376	-101.352	0.085	0.021
-480.362	81.962	0.135	0.149
-479.347	-47.667	0.152	-0.075
-478.332	-200.000	-0.063	0.414
-477.318	800.000	0.073	-0.298
-476.303	-200.000	-0.012	0.220
-475.289	11.032	0.076	0.059
-474.274	322.945	-0.143	-0.279
-473.259	-117.797	0.154	-0.028
-472.245	-74.923	0.156	0.057
-471.230	800.000	0.029	-0.117
-470.216	800.000	0.049	0.153
-469.201	174.113	-0.103	0.152
-468.186	35.617	-0.235	0.210
-467.172	229.066	-0.042	-0.070
-466.157	-34.619	-0.283	0.158
-465.143	661.267	0.075	-0.198
-464.128	186.487	0.030	0.046
-463.113	-200.000	0.047	0.357
-462.099	125.836	-0.296	-0.381
-461.084	98.333	-0.279	0.327
-460.070	-32.196	0.073	-0.042
-459.055	38.126	0.145	-0.132
-458.040	-106.175	-0.408	-0.093
-457.026	37.690	0.193	-0.175
-456.011	-151.233	0.100	0.008
-454.997	-200.000	-0.004	0.156
-453.982	226.743	0.214	-0.354
-452.968	271.129	0.164	-0.294
-451.953	42.912	0.101	-0.094
-450.938	351.633	-0.132	-0.267
-449.924	-108.946	0.350	0.076
-448.909	-200.000	-0.039	-0.303
-447.895	-200.000	0.010	0.110
-446.880	-200.000	0.056	0.254
-445.865	70.536	0.206	-0.217
-444.851	-107.658	0.171	-0.038
-443.836	589.619	-0.120	-0.302
-442.822	-52.502	-0.324	-0.153
-441.807	142.194	-0.070	-0.094
-440.792	-200.000	0.077	-0.513
-439.778	-47.556	-0.249	-0.123
-438.763	43.317	-0.284	0.264
-437.749	-86.232	0.221	-0.069
-436.734	-69.900	-0.215	-0.083
-435.719	266.271	-0.119	-0.212
-434.705	437.152	-0.258	0.572
-433.690	-200.000	-0.003	0.113
-432.676	3.897	-0.190	0.141
-431.661	-200.000	-0.010	-0.094
-430.646	-20.047	0.173	-0.109
-429.632	-200.000	0.029	-0.129
-428.617	97.033	0.054	-0.063
-427.603	384.594	-0.125	0.263
-426.588	-106.798	-0.333	0.075
-425.573	-200.000	0.042	0.276
-424.559	209.560	0.064	-0.102
-423.544	800.000	0.121	-0.355
-422.530	275.405	-0.179	-0.323
-421.515	-21.903	0.233	-0.144
-420.500	-195.251	0.285	-0.002
-419.486	-38.348	-0.229	-0.123
-418.471	800.000	-0.088	-0.264
-417.457	800.000	0.066	0.200
-416.442	-116.339	0.166	-0.031
-415.428	-200.000	0.003	-0.065
-414.413	12.061	-0.062	-0.049
-413.398	800.000	-0.081	-0.235
-412.384	45.073	0.193	0.181
-411.369	-200.000	0.017	-0.100
-410.355	167.081	0.078	0.113
-409.340	-28.836	0.309	-0.181
-408.325	-99.118	0.133	-0.034
-407.311	117.992	0.072	0.091
-406.296	-37.093	-0.149	0.081
-405.282	38.016	-0.146	0.132
-404.267	495.253	0.061	-0.142
-403.252	62.087	-0.184	0.186
-402.238	511.315	-0.104	-0.246
-401.223	70.306	-0.235	-0.247
-400.209	-144.141	0.217	0.021
-399.194	501.427	0.061	-0.143
-398.179	77.433	0.119	-0.129
-397.165	165.862	-0.033	0.047
-396.150	364.719	0.166	-0.339
-395.136	-34.572	0.117	0.065
-394.121	-132.871	-0.298	-0.039
-393.106	541.876	-0.040	0.098
-392.092	-41.598	-0.068	0.035
-391.077	-51.183	-0.118	0.056
-390.063	-144.510	-0.237	-0.022
-389.048	-200.000	0.005	-0.083
-388.033	419.358	0.178	-0.388
-387.019	-44.914	-0.245	-0.124
-386.004	-92.881	0.279	0.079
-384.990	778.941	0.050	0.140
-383.975	262.075	-0.102	-0.180
-382.960	-104.954	0.506	0.118
-381.946	-185.445	0.455	-0.007
-380.931	-99.174	0.117	-0.030
-379.917	-119.569	0.157	0.028
-378.902	800.000	-0.028	0.094
-377.888	800.000	-0.036	0.151
-376.873	-200.000	-0.032	0.146
-375.858	-97.088	0.108	-0.029
-374.844	800.000	-0.062	0.236
-373.829	-125.831	-0.069	0.011
-372.815	-153.215	0.124	0.009
-371.800	-54.554	-0.098	0.045
-370.785	-73.110	0.248	-0.092
-369.771	37.905	-0.285	-0.257
-368.756	-108.523	0.316	0.069
-367.742	-36.190	-0.271	-0.149
-366.727	-200.000	-0.001	0.167
-365.712	-200.000	0.034	0.255
-364.698	-66.104	0.195	0.079
-363.683	-76.881	-0.310	-0.110
-362.669	56.619	-0.339	-0.335
-361.654	-28.921	-0.282	0.164
-360.639	-200.000	-0.007	-0.101
-359.625	-200.000	0.029	-0.183
-358.610	-99.124	0.090	-0.023
-357.596	800.000	0.043	-0.178
-356.581	-200.000	-0.004	0.109
-355.566	-200.000	0.004	-0.313
-354.552	-200.000	-0.055	0.427
-353.537	317.071	0.111	-0.213
-352.523	-34.738	-0.354	-0.196
-351.508	-200.000	0.014	-0.255
-350.493	34.942	-0.172	0.152
-349.479	-9.828	-0.403	0.272
-348.464	409.853	0.102	0.220
-347.450	17.187	0.126	0.101
-346.435	201.457	0.051	0.080
-345.420	800.000	0.080	0.251
-344.406	-115.459	0.252	-0.048
-343.391	-44.605	0.133	-0.067
-342.377	-130.893	0.059	-0.008
-341.362	-142.844	-0.131	0.013
-340.348	-47.437	-0.230	0.114
-339.333	-177.043	-0.345	0.009
-338.318	5.207	-0.138	-0.103
-337.304	-200.000	0.042	0.299
-336.289	-71.211	-0.322	-0.123
-335.275	321.694	-0.133	-0.257
-334.260	-85.012	0.133	-0.042
-333.245	236.616	0.094	0.158
-332.231	-164.245	-0.119	-0.006
-331.216	63.660	0.246	0.250
-330.202	86.436	-0.169	-0.189
-329.187	184.749	0.035	-0.052
-328.172	263.619	0.085	-0.150
-327.158	-200.000	-0.027	0.311
-326.143	-200.000	-0.029	0.252
-325.129	-152.302	0.188	-0.014
-324.114	-172.381	0.273	-0.009
-323.099	-130.816	-0.188	0.026
-322.085	-200.000	0.027	-0.324
-321.070	8.369	0.214	-0.163
-320.056	0.346	0.209	0.151
-319.041	800.000	-0.051	0.199
-318.026	-97.196	-0.164	-0.043
-317.012	24.590	-0.045	-0.038
-315.997	-200.000	0.002	0.087
-314.983	-200.000	0.006	-0.098
-313.968	-139.121	0.091	-0.010
-312.953	301.042	0.152	-0.284
-311.939	-178.535	0.389	0.009
-310.924	101.219	0.025	0.030
-309.910	-74.141	-0.182	-0.067
-308.895	-200.000	-0.010	-0.064
-307.880	-150.333	0.185	0.014
-306.866	184.354	0.099	0.149
-305.851	-19.678	-0.230	0.144
-304.837	-154.912	0.143	-0.010
-303.822	-141.594	0.094	0.010
-302.807	-71.363	0.219	0.083
-301.793	-7.045	0.070	0.048
-300.778	47.855	-0.160	-0.151
-299.764	217.329	-0.042	0.068
-298.749	-200.000	-0.173	0.000
-297.735	-31.809	-0.205	0.117
-296.720	-132.489	0.179	0.023
-295.705	-200.000	-0.048	0.237
-294.691	74.200	0.352	0.374
-293.676	244.424	0.125	0.213
-292.662	132.604	0.303	0.395
-291.647	-200.000	-0.048	0.291
-290.632	26.792	-0.129	-0.110
-289.618	-200.000	-0.017	-0.075
-288.603	-200.000	0.010	-0.098
-287.589	800.000	-0.052	0.221
-286.574	-118.624	-0.188	-0.034
-285.559	800.000	-0.088	-0.254
-284.545	-127.220	0.282	-0.042
-283.530	-86.814	-0.085	-0.026
-282.516	-45.596	-0.117	0.059
-281.501	-52.399	-0.197	-0.092
-280.486	-167.738	-0.234	0.009
-279.472	66.062	-0.322	0.331
-278.457	58.563	0.172	0.171
-277.443	-52.769	0.080	-0.037
-276.428	1.044	0.127	-0.092
-275.413	136.818	0.194	0.257
-274.399	-200.000	0.040	0.290
-273.384	800.000	-0.077	-0.245
-272.370	-200.000	-0.001	0.131
-271.355	800.000	0.034	-0.143
-270.340	800.000	0.020	0.080
-269.326	-200.000	0.020	0.188
-268.311	14.388	-0.209	-0.165
-267.297	-200.000	-0.034	-0.266
-266.282	-71.054	0.238	0.091
-265.267	-87.747	0.182	-0.055
-264.253	179.906	-0.118	0.175
-263.238	29.499	0.187	0.160
-262.224	-22.980	0.051	-0.031
-261.209	-200.000	0.001	0.113
-260.195	-200.000	0.001	-0.109
-259.180	-200.000	0.060	0.412
-258.165	-0.314	-0.173	-0.125
-257.151	-200.000	-0.012	0.099
-256.136	330.472	-0.082	-0.160
-255.122	-85.401	-0.156	0.049
-254.107	-102.481	0.251	0.061
-253.092	100.816	0.082	0.097
-252.078	50.243	0.218	-0.208
-251.063	-64.854	-0.199	0.082
-250.049	-88.310	0.027	-0.008
-249.034	-19.758	0.126	0.079
-248.019	-68.137	0.328	-0.129
-247.005	172.256	-0.101	-0.146
-245.990	-152.094	-0.197	-0.014
-244.976	485.623	0.065	-0.149
-243.961	98.093	0.067	0.078
-242.946	-200.000	0.020	-0.159
-241.932	10.671	0.113	-0.087
-240.917	-35.471	0.194	0.107
-239.903	-96.509	0.358	0.096
-238.888	17.518	-0.133	0.107
-237.873	-7.167	-0.113	0.078
-236.859	800.000	-0.093	0.320
-235.844	-5.827	0.237	-0.164
-234.830	12.336	-0.098	0.076
-233.815	800.000	0.125	0.404
-232.800	-167.472	0.156	0.006
-231.786	-15.450	-0.340	0.219
-230.771	-96.440	-0.061	-0.016
-229.757	404.152	-0.052	-0.111
-228.742	20.522	0.235	-0.192
-227.727	192.012	0.138	-0.210
-226.713	-16.137	-0.247	0.159
-225.698	7.050	0.300	0.226
-224.684	800.000	0.069	0.216
-223.669	74.092	-0.185	-0.196
-222.655	115.427	0.169	-0.209
-221.640	-26.905	-0.233	0.137
-220.625	26.392	0.264	-0.223
-219.611	102.999	-0.087	0.103
-218.596	69.863	0.052	0.055
-217.582	5.988	0.066	-0.049
-216.567	-28.344	-0.093	0.054
-215.552	800.000	0.073	-0.208
-214.538	295.899	-0.084	-0.156
-213.523	49.987	-0.262	-0.249
-212.509	-200.000	-0.012	0.073
-211.494	-200.000	0.000	-0.272
-210.479	-14.589	-0.435	-0.282
-209.465	631.444	-0.049	-0.124
-208.450	800.000	-0.105	0.304
-207.436	-104.899	0.236	-0.055
-206.421	-200.000	0.035	0.190
-205.406	169.952	-0.038	0.055
-204.392	430.417	0.100	-0.219
-203.377	-46.699	0.169	0.084
-202.363	-34.016	0.179	-0.099
-201.348	-200.000	-0.076	0.418
-200.333	8.126	0.085	-0.064
-199.319	17.916	-0.157	0.126
-198.304	-112.248	-0.375	0.076
-197.290	38.249	-0.126	0.113
-196.275	20.243	-0.561	-0.457
-195.260	55.038	-0.189	0.185
-194.246	436.022	0.109	-0.239
-193.231	-82.097	0.248	0.081
-192.217	-90.251	0.228	0.067
-191.202	-200.000	-0.015	0.325
-190.187	-78.411	0.354	0.123
-189.173	800.000	-0.045	-0.161
-188.158	-16.821	-0.242	-0.154
-187.144	-77.503	-0.330	0.116
-186.129	202.874	0.169	0.264
-185.114	-6.487	0.190	0.131
-184.100	125.411	-0.124	0.158
-183.085	-140.819	0.163	0.017
-182.071	-200.000	0.040	0.314
-181.056	-200.000	0.019	-0.204
-180.042	-131.552	-0.129	0.017
-179.027	264.083	-0.175	0.308
-178.012	51.053	-0.119	-0.114
-176.998	282.286	0.058	0.105
-175.983	-143.447	-0.248	-0.024
-174.969	-200.000	0.015	0.307
-173.954	-86.223	0.136	-0.042
-172.939	-200.000	-0.000	0.041
-171.925	-200.000	-0.008	0.088
-170.910	-200.000	-0.012	-0.128
-169.896	34.618	0.149	0.131
-168.881	313.430	-0.058	-0.110
-167.866	-150.604	0.438	-0.034
-166.852	40.938	-0.147	0.133
-165.837	367.262	0.054	-0.111
-164.823	-65.721	0.129	-0.052
-163.808	340.177	0.053	0.105
-162.793	748.922	-0.063	-0.172
-161.779	800.000	0.063	0.177
-160.764	-92.395	0.065	0.019
-159.750	-6.273	-0.200	0.138
-158.735	-138.005	0.253	-0.028
-157.720	-20.430	0.281	-0.174
-156.706	-34.259	-0.279	0.154
-155.691	-40.731	0.242	0.126
-154.677	-54.476	-0.080	0.037
-153.662	27.464	0.072	0.061
-152.647	-14.394	-0.165	0.107
-151.633	800.000	0.054	-0.160
-150.618	-26.818	-0.077	0.045
-149.604	170.433	0.176	-0.253
-148.589	93.766	-0.221	0.252
-147.574	-4.887	0.288	0.200
-146.560	82.445	0.210	0.229
-145.545	-61.946	0.154	-0.065
-144.531	-119.407	-0.084	-0.015
-143.516	13.120	-0.147	0.114
-142.502	-200.000	0.028	0.522
-141.487	-96.534	-0.021	-0.006
-140.472	-85.260	-0.044	-0.014
-139.458	-63.721	0.294	-0.121
-138.443	367.843	0.104	0.211
-137.429	-93.867	0.253	0.070
-136.414	333.717	0.052	0.101
-135.399	-164.318	-0.377	-0.017
-134.385	-38.548	0.150	-0.080
-133.370	800.000	-0.076	-0.233
-132.356	-94.415	-0.187	0.051
-131.341	-200.000	0.020	-0.116
-130.326	-90.542	0.105	0.031
-129.312	-200.000	-0.017	-0.106
-128.297	318.857	0.343	0.654
-127.283	6.500	0.223	-0.166
-126.268	-25.367	0.131	-0.078
-125.253	-13.165	0.228	-0.149
-124.239	165.375	-0.157	-0.224
-123.224	-51.738	0.101	0.047
-122.210	52.081	0.204	-0.195
-121.195	-200.000	-0.028	-0.193
-120.180	37.535	-0.145	0.130
-119.166	464.309	-0.141	0.317
-118.151	800.000	-0.053	-0.169
-117.137	23.619	0.177	-0.146
-116.122	9.635	-0.299	0.228
-115.107	783.555	0.089	0.245
-114.093	-200.000	-0.012	0.156
-113.078	288.691	0.064	-0.117
-112.064	800.000	0.071	0.222
-111.049	16.037	0.177	-0.140
-110.034	-77.635	-0.133	0.046
-109.020	28.298	0.164	-0.140
-108.005	195.604	0.062	0.095
-106.991	454.114	-0.060	-0.133
-105.976	69.404	0.040	0.041
-104.962	-121.115	0.138	-0.023
-103.947	-139.984	-0.183	0.019
-102.932	-139.480	0.158	0.017
-101.918	-192.783	-0.318	-0.003
-100.903	705.385	-0.096	-0.256
-99.889	144.833	0.134	-0.181
-98.874	-54.050	0.249	-0.114
-97.859	50.534	0.436	0.414
-96.845	133.638	0.158	-0.205
-95.830	800.000	0.084	0.279
-94.816	315.028	-0.151	0.286
-93.801	-200.000	0.000	-0.278
-92.786	50.735	0.159	-0.152
-91.772	163.494	-0.118	0.167
-90.757	-131.215	0.389	0.052
-89.743	-140.083	-0.130	-0.014
-88.728	227.236	0.086	0.140
-87.713	-200.000	0.033	0.250
-86.699	-200.000	-0.012	0.265
-85.684	-200.000	0.010	0.176
-84.670	446.109	0.182	-0.401
-83.655	99.870	-0.086	-0.100
-82.640	312.837	-0.044	0.083
-81.626	-200.000	0.102	0.639
-80.611	-92.621	-0.199	0.056
-79.597	134.698	-0.225	0.294
-78.582	-102.498	-0.159	-0.038
-77.567	7.287	0.114	0.085
-76.553	73.848	-0.279	0.294
-75.538	-77.207	0.064	0.022
-74.524	399.640	-0.179	-0.376
-73.509	-139.163	0.094	-0.010
-72.494	-161.513	-0.294	0.015
-71.480	42.532	0.133	0.121
-70.465	-144.485	0.125	-0.012
-69.451	-59.906	0.207	-0.089
-68.436	-86.559	-0.090	-0.028
-67.422	-200.000	-0.037	0.562
-66.407	11.749	0.074	0.057
-65.392	-178.081	-0.241	-0.006
-64.378	201.003	-0.121	0.187
-63.363	-200.000	-0.005	-0.065
-62.349	-44.304	-0.314	0.158
-61.334	110.465	-0.561	-0.677
-60.319	-161.099	0.261	0.014
-59.305	800.000	-0.209	-0.743
-58.290	376.585	0.269	0.551
-57.276	800.000	0.412	1.682
-56.261	-200.000	74.116	557.096
-55.246	595.027	1287.968	3196.604
-54.232	143.856	2513.148	3360.625
-53.217	112.699	2365.637	2873.442
-52.203	51.292	2103.173	2002.626
-51.188	45.884	2011.117	1865.894
-50.173	43.955	1992.090	1830.758
-49.159	56.081	2028.187	1974.436
-48.144	61.779	2048.369	2045.800
-47.130	46.653	2013.264	1874.584
-46.115	43.752	2002.231	1837.942
-45.100	43.613	1999.544	1834.143
-44.086	43.583	1997.699	1832.106
-43.071	43.539	1994.961	1829.125
-42.057	43.495	1993.219	1827.055
-41.042	43.581	1991.193	1825.906
-40.027	43.662	1988.968	1824.521
-39.013	43.622	1986.814	1822.115
-37.998	43.668	1985.145	1820.924
-36.984	43.687	1983.313	1819.340
-35.969	43.694	1981.574	1817.743
-34.954	43.686	1979.519	1815.710
-33.940	43.705	1978.093	1814.503
-32.925	43.654	1976.909	1812.887
-31.911	43.804	1974.143	1811.622
-30.896	43.724	1973.138	1809.906
-29.881	43.726	1971.541	1808.391
-28.867	43.714	1969.773	1806.595
-27.852	43.798	1967.796	1805.456
-26.838	43.652	1966.575	1802.960
-25.823	43.684	1964.753	1801.505
-24.809	43.673	1962.618	1799.380
-23.794	43.704	1961.182	1798.262
-22.779	43.760	1958.938	1796.630
-21.765	43.687	1957.536	1794.624
-20.750	43.695	1955.768	1793.009
-19.736	43.633	1954.703	1791.412
-18.721	43.769	1952.758	1790.757
-17.706	43.692	1951.038	1788.430
-16.692	43.715	1949.273	1786.943
-15.677	43.647	1948.201	1785.287
-14.663	43.623	1946.509	1783.461
-13.648	43.678	1945.118	1782.598
-12.633	43.700	1943.946	1781.650
-11.619	43.717	1942.991	1780.848
-10.604	43.695	1941.188	1778.938
-9.590	43.755	1939.398	1777.751
-8.575	43.681	1938.364	1776.082
-7.560	43.637	1937.334	1774.680
-6.546	43.639	1935.795	1773.220
-5.531	43.705	1934.727	1772.749
-4.517	43.723	1933.286	1771.512
-3.502	43.660	1932.162	1769.864
-2.487	43.644	1930.558	1768.181
-1.473	43.630	1929.604	1767.120
-0.458	43.758	1925.497	1764.399
0.556	42.656	1905.097	1733.940
1.571	37.516	1882.742	1669.472
2.586	32.444	1900.844	1641.287
3.600	30.731	1936.652	1656.818
4.615	29.552	1934.437	1644.285
5.629	22.377	1829.275	1494.097
6.644	9.104	1699.041	1282.251
7.659	1.919	1653.162	1191.524
8.673	1.286	1649.055	1183.527
9.688	1.194	1647.259	1181.412
10.702	1.183	1645.690	1180.098
11.717	1.027	1643.334	1177.093
12.731	1.432	1642.530	1179.554
13.746	8.880	1660.948	1250.982
14.761	19.911	1685.903	1356.592
15.775	24.665	1693.047	1399.543
16.790	25.197	1693.082	1403.612
17.804	25.203	1693.078	1403.536
18.819	25.210	1692.090	1402.642
19.834	25.304	1691.436	1402.709
20.848	25.506	1690.750	1403.599
21.863	25.544	1689.858	1403.027
22.877	25.555	1688.921	1402.214
23.892	25.519	1688.077	1401.111
24.907	25.479	1687.069	1399.835
25.921	25.535	1686.213	1399.434
26.936	25.504	1685.101	1398.148
27.950	25.497	1684.323	1397.323
28.965	25.567	1683.258	1396.861
29.980	25.543	1682.595	1396.000
30.994	25.508	1681.386	1394.606
32.009	25.516	1680.373	1393.701
33.023	25.605	1678.959	1393.098
34.038	25.564	1678.185	1392.008
35.053	25.482	1677.463	1390.652
36.067	25.580	1676.305	1390.328
37.082	25.540	1675.356	1389.109
38.096	25.551	1674.699	1388.531
39.111	25.576	1673.758	1387.817
40.126	25.507	1673.062	1386.585
41.140	25.482	1672.315	1385.649
42.155	25.548	1670.990	1384.943
43.169	25.525	1670.012	1383.829
44.184	25.515	1669.219	1382.970
45.199	25.467	1668.068	1381.530
46.213	25.549	1666.080	1380.392
47.228	25.480	1665.266	1379.059
48.242	25.456	1664.172	1377.848
49.257	25.498	1663.354	1377.370
50.271	25.502	1662.338	1376.439
51.286	25.461	1660.810	1374.737
52.301	25.547	1658.969	1373.751
53.315	25.538	1658.201	1372.928
54.330	25.503	1656.806	1371.381
55.344	25.513	1655.610	1370.345
56.359	25.633	1653.952	1369.770
57.374	25.555	1652.805	1368.099
58.388	25.550	1651.957	1367.243
59.403	25.593	1650.574	1366.302
60.417	25.537	1649.814	1365.126
61.432	25.537	1648.893	1364.241
62.447	25.508	1647.956	1363.130
63.461	25.562	1647.389	1362.951
64.476	25.595	1645.987	1361.916
65.490	25.569	1644.805	1360.626
66.505	25.572	1643.715	1359.626
67.520	25.599	1642.616	1358.796
68.534	25.556	1642.160	1357.972
69.549	25.612	1640.704	1357.076
70.563	25.582	1639.581	1355.797
71.578	25.609	1638.191	1354.736
72.593	25.611	1637.665	1354.190
73.607	25.590	1637.194	1353.526
74.622	25.705	1635.519	1352.882
75.636	25.641	1634.601	1351.529
76.651	25.609	1633.894	1350.582
77.666	25.583	1633.043	1349.560
78.680	25.622	1632.059	1348.924
79.695	25.557	1631.202	1347.610
80.709	25.597	1630.390	1347.116
81.724	25.582	1629.688	1346.303
82.739	25.603	1628.827	1345.636
83.753	25.537	1627.692	1344.083
84.768	25.543	1626.859	1343.320
85.782	25.629	1625.732	1342.916
86.797	25.576	1625.083	1341.865
87.812	25.643	1623.511	1340.948
88.826	25.555	1623.080	1339.816
89.841	25.492	1622.202	1338.503
90.855	25.570	1621.259	1338.186
91.870	25.671	1619.993	1337.771
92.884	25.658	1618.685	1336.481
93.899	25.669	1618.183	1336.028
94.914	25.678	1616.964	1334.970
95.928	25.624	1615.650	1333.371
96.943	25.648	1614.564	1332.530
97.957	25.626	1613.257	1331.171
98.972	25.566	1612.506	1329.988
99.987	25.531	1611.404	1328.701
101.001	25.562	1609.613	1327.335
102.016	25.605	1608.170	1326.352
103.030	25.596	1606.607	1324.878
104.045	25.606	1605.409	1323.848
105.060	25.630	1604.267	1322.963
106.074	25.598	1603.256	1321.772
107.089	25.683	1601.657	1320.962
108.103	25.554	1600.865	1319.252
109.118	25.671	1599.829	1319.136
110.133	25.615	1598.902	1317.846
111.147	25.599	1597.773	1316.678
112.162	25.715	1596.221	1316.130
113.176	25.683	1595.302	1315.026
114.191	25.672	1594.255	1313.964
115.206	25.653	1592.983	1312.660
116.220	25.706	1591.671	1311.848
117.235	25.623	1590.750	1310.373
118.249	25.655	1589.764	1309.675
119.264	25.664	1588.404	1308.502
120.279	25.662	1587.720	1307.815
121.293	25.604	1586.361	1306.158
122.308	25.686	1585.608	1306.012
123.322	25.684	1583.969	1304.534
124.337	25.674	1582.873	1303.442
125.352	25.742	1581.130	1302.386
126.366	25.714	1580.956	1301.922
127.381	25.772	1579.664	1301.164
128.395	25.822	1579.049	1300.906
129.410	25.724	1578.047	1299.257
130.424	25.770	1576.510	1298.205
131.439	25.871	1575.357	1297.868
132.454	25.830	1574.525	1296.772
133.468	25.778	1573.104	1295.117
134.483	25.819	1571.085	1293.632
135.497	25.752	1570.922	1292.907
136.512	25.743	1569.749	1291.762
137.527	25.758	1568.511	1290.736
138.541	25.716	1567.516	1289.498
139.556	25.810	1566.586	1289.294
140.570	25.827	1564.583	1287.653
141.585	25.754	1564.141	1286.653
142.600	25.753	1562.830	1285.454
143.614	25.781	1561.718	1284.629
144.629	25.795	1560.678	1283.756
145.643	25.868	1559.427	1283.131
146.658	25.804	1557.833	1281.252
147.673	25.705	1556.641	1279.458
148.687	25.790	1555.582	1279.074
149.702	25.822	1554.686	1278.453
150.716	25.724	1553.405	1276.592
151.731	25.775	1552.368	1275.984
152.746	25.780	1551.188	1274.940
153.760	25.736	1549.987	1273.532
154.775	25.667	1549.203	1272.285
155.789	25.787	1547.819	1271.881
156.804	25.832	1546.415	1270.938
157.819	25.797	1545.715	1269.997
158.833	25.687	1544.830	1268.386
159.848	25.769	1544.055	1268.211
160.862	25.830	1543.086	1267.736
161.877	25.828	1542.318	1266.977
162.892	25.767	1541.458	1265.728
163.906	25.914	1540.666	1266.003
164.921	25.825	1539.390	1264.212
165.935	25.903	1538.708	1264.094
166.950	25.909	1537.801	1263.278
167.964	25.904	1536.734	1262.253
168.979	25.788	1536.155	1260.852
169.994	25.958	1534.666	1260.705
171.008	25.855	1533.837	1259.196
172.023	25.954	1532.837	1258.953
173.037	25.978	1531.843	1258.197
174.052	25.951	1530.869	1257.097
175.067	25.849	1530.194	1255.717
176.081	25.864	1528.975	1254.710
177.096	25.877	1527.885	1253.794
178.110	25.914	1526.803	1253.053
179.125	25.901	1525.853	1252.075
180.140	25.978	1524.738	1251.583
181.154	25.989	1524.413	1251.279
182.169	25.968	1523.553	1250.319
183.183	25.966	1522.153	1249.043
184.198	25.857	1521.759	1247.858
185.213	25.917	1520.826	1247.399
186.227	26.004	1519.364	1246.690
187.242	25.997	1519.178	1246.380
188.256	25.960	1518.025	1245.063
189.271	25.933	1517.678	1244.487
190.286	25.999	1516.411	1243.789
191.300	25.956	1515.906	1242.973
192.315	25.995	1514.875	1242.283
193.329	25.915	1513.673	1240.634
194.344	25.995	1512.608	1240.206
195.359	25.913	1512.056	1239.077
196.373	26.019	1510.949	1238.787
197.388	25.977	1510.030	1237.636
198.402	25.845	1509.585	1236.260
199.417	25.924	1508.200	1235.559
200.432	25.894	1507.573	1234.729
201.446	25.909	1507.135	1234.365
202.461	26.016	1506.186	1234.209
203.475	25.957	1505.446	1233.088
204.490	25.854	1504.591	1231.573
205.504	26.076	1503.175	1231.824
206.519	25.932	1502.398	1230.095
207.534	25.881	1502.145	1229.430
208.548	26.125	1501.013	1230.061
209.563	25.997	1500.404	1228.579
210.577	25.957	1499.340	1227.330
211.592	26.045	1498.482	1227.113
212.607	26.133	1497.336	1226.668
213.621	26.169	1497.369	1226.827
214.636	26.143	1496.478	1225.817
215.650	26.044	1495.824	1224.496
216.665	26.086	1494.877	1223.898
217.680	26.087	1493.943	1223.033
218.694	25.963	1493.503	1221.726
219.709	26.141	1492.316	1221.848
220.723	26.084	1491.407	1220.614
221.738	26.102	1490.740	1220.080
222.753	26.105	1490.053	1219.431
223.767	26.035	1489.162	1218.119
224.782	26.047	1488.213	1217.318
225.796	26.111	1487.412	1216.988
226.811	26.184	1486.427	1216.563
227.826	26.286	1485.538	1216.418
228.840	26.128	1485.181	1214.949
229.855	26.125	1484.478	1214.251
230.869	26.126	1483.715	1213.522
231.884	26.049	1482.664	1212.039
232.899	26.188	1481.670	1212.056
233.913	26.102	1480.938	1210.768
234.928	26.196	1479.511	1210.128
235.942	26.147	1478.635	1208.976
236.957	26.248	1477.509	1208.627
237.972	26.180	1476.623	1207.338
238.986	26.195	1475.481	1206.396
240.001	26.190	1474.641	1205.570
241.015	26.304	1473.400	1205.211
242.030	26.330	1472.684	1204.688
243.045	26.426	1471.434	1204.202
244.059	26.434	1470.938	1203.739
245.074	26.415	1469.909	1202.663
246.088	26.383	1469.488	1202.002
247.103	26.309	1469.213	1201.179
248.117	26.385	1467.921	1200.518
249.132	26.393	1466.605	1199.388
250.147	26.342	1466.031	1198.479
251.161	26.446	1465.615	1198.722
252.176	26.398	1465.250	1197.996
253.190	26.462	1464.350	1197.580
254.205	26.398	1463.271	1196.170
255.220	26.502	1462.337	1195.983
256.234	26.429	1461.673	1194.858
257.249	26.452	1461.016	1194.366
258.263	26.477	1460.396	1193.919
259.278	26.513	1459.455	1193.279
260.293	26.437	1459.151	1192.426
261.307	26.542	1457.913	1191.996
262.322	26.570	1457.197	1191.492
263.336	26.538	1456.436	1190.552
264.351	26.646	1454.979	1189.967
265.366	26.521	1454.378	1188.550
266.380	26.548	1453.591	1187.976
267.395	26.587	1452.433	1187.179
268.409	26.568	1451.941	1186.552
269.424	26.558	1451.065	1185.666
270.439	26.488	1450.319	1184.489
271.453	26.491	1449.502	1183.741
272.468	26.630	1448.315	1183.573
273.482	26.599	1447.911	1182.938
274.497	26.567	1447.201	1182.040
275.512	26.528	1446.566	1181.163
276.526	26.496	1446.241	1180.584
277.541	26.611	1444.863	1180.104
278.555	26.676	1443.999	1179.721
279.570	26.658	1443.404	1179.009
280.585	26.644	1442.516	1178.090
281.599	26.650	1441.611	1177.286
282.614	26.618	1440.643	1176.183
283.628	26.678	1439.238	1175.321
284.643	26.633	1438.358	1174.206
285.657	26.648	1437.901	1173.827
286.672	26.629	1437.159	1172.993
287.687	26.623	1436.416	1172.244
288.701	26.624	1435.418	1171.335
289.716	26.660	1434.919	1171.058
290.730	26.659	1434.272	1170.417
291.745	26.783	1432.942	1170.029
292.760	26.655	1432.301	1168.577
293.774	26.675	1431.587	1168.017
294.789	26.751	1430.773	1167.740
295.803	26.745	1429.821	1166.826
296.818	26.676	1429.458	1165.981
297.833	26.798	1427.947	1165.428
298.847	26.771	1427.283	1164.609
299.862	26.774	1426.691	1164.042
300.876	26.884	1425.867	1163.971
301.891	26.840	1424.710	1162.646
302.906	26.848	1424.054	1162.059
303.920	26.901	1423.621	1161.937
304.935	26.913	1422.770	1161.222
305.949	26.854	1422.353	1160.401
306.964	26.780	1421.459	1159.095
307.979	26.935	1420.143	1158.910
308.993	26.893	1419.599	1158.091
310.008	26.843	1419.057	1157.227
311.022	26.885	1418.187	1156.687
312.037	26.995	1416.490	1155.902
313.052	27.021	1415.769	1155.371
314.066	26.946	1415.523	1154.597
315.081	26.841	1414.621	1153.088
316.095	26.946	1413.876	1153.049
317.110	26.970	1412.533	1152.002
318.125	27.038	1411.473	1151.464
319.139	26.961	1410.694	1150.241
320.154	26.961	1409.926	1149.513
321.168	26.922	1409.255	1148.619
322.183	27.040	1408.310	1148.491
323.197	27.027	1407.479	1147.629
324.212	26.981	1406.604	1146.525
325.227	26.969	1405.835	1145.723
326.241	27.022	1405.180	1145.418
327.256	27.026	1404.439	1144.740
328.270	27.080	1403.545	1144.248
329.285	27.064	1402.521	1143.213
330.300	27.086	1401.681	1142.567
331.314	26.933	1401.297	1141.190
332.329	27.146	1400.184	1141.519
333.343	27.112	1399.616	1140.744
334.358	27.167	1398.872	1140.380
335.373	27.241	1397.930	1139.975
336.387	27.184	1397.482	1139.155
337.402	27.273	1396.560	1138.858
338.416	27.239	1395.976	1138.069
339.431	27.198	1395.839	1137.596
340.446	27.262	1395.385	1137.526
341.460	27.176	1394.287	1135.997
342.475	27.319	1393.191	1135.894
343.489	27.273	1392.439	1134.895
344.504	27.339	1391.754	1134.644
345.519	27.221	1390.763	1133.000
346.533	27.250	1389.382	1131.958
347.548	27.385	1388.402	1131.899
348.562	27.393	1387.716	1131.291
349.577	27.400	1387.055	1130.693
350.592	27.377	1386.477	1129.979
351.606	27.295	1385.923	1128.920
352.621	27.254	1384.495	1127.401
353.635	27.317	1383.997	1127.284
354.650	27.371	1382.994	1126.707
355.665	27.370	1382.067	1125.841
356.679	27.460	1380.852	1125.313
357.694	27.457	1380.097	1124.575
358.708	27.375	1379.567	1123.540
359.723	27.464	1377.855	1122.594
360.738	27.430	1376.762	1121.395
361.752	27.479	1375.407	1120.493
362.767	27.442	1374.604	1119.514
363.781	27.459	1373.513	1118.631
364.796	27.416	1373.538	1118.288
365.810	27.452	1373.159	1118.103
366.825	27.473	1372.155	1117.315
367.840	27.497	1371.222	1116.604
368.854	27.608	1370.385	1116.503
369.869	27.641	1370.135	1116.402
370.883	27.610	1369.565	1115.645
371.898	27.482	1368.991	1114.299
372.913	27.666	1368.118	1114.613
373.927	27.635	1367.225	1113.597
374.942	27.596	1366.238	1112.455
375.956	27.636	1365.755	1112.208
376.971	27.643	1365.089	1111.616
377.986	27.680	1364.034	1110.882
379.000	27.633	1363.477	1110.045
380.015	27.607	1362.946	1109.351
381.029	27.782	1361.852	1109.431
382.044	27.799	1361.602	1109.231
383.059	27.637	1361.103	1107.739
384.073	27.714	1360.270	1107.436
385.088	27.762	1359.762	1107.214
386.102	27.847	1358.889	1106.918
387.117	27.834	1357.930	1105.960
388.132	27.739	1357.629	1105.042
389.146	27.807	1356.934	1104.790
390.161	27.755	1356.136	1103.727
391.175	27.791	1355.983	1103.727
392.190	27.844	1354.500	1102.739
393.205	27.859	1354.155	1102.452
394.219	27.760	1353.073	1100.879
395.234	27.899	1352.114	1100.837
396.248	27.879	1351.060	1099.763
397.263	27.866	1350.187	1098.873
398.278	27.958	1349.012	1098.376
399.292	27.894	1348.172	1097.205
400.307	27.950	1347.598	1096.983
401.321	28.017	1346.150	1096.109
402.336	27.955	1345.492	1095.100
403.350	28.051	1344.155	1094.492
404.365	27.912	1343.427	1092.971
405.380	27.980	1342.435	1092.474
406.394	27.915	1342.054	1091.676
407.409	27.924	1341.638	1091.298
408.423	28.049	1340.695	1091.178
409.438	28.043	1340.074	1090.543
410.453	28.123	1339.046	1090.084
411.467	28.042	1338.604	1089.147
412.482	28.084	1338.388	1089.122
413.496	28.192	1337.200	1088.701
414.511	28.193	1336.566	1088.096
415.526	28.133	1336.137	1087.294
416.540	28.130	1335.188	1086.410
417.555	28.136	1334.716	1085.964
418.569	28.086	1334.206	1085.157
419.584	28.051	1333.560	1084.325
420.599	28.147	1332.880	1084.249
421.613	71.503	1311.700	1312.532
422.628	72.114	1308.603	1312.659
