DTS Sentinel unit serial number:	SN413079Multiplexer serial number:	ORYXHardware model number:	OX4-SRSoftware version number:	ORYX F/W v4.00 Oryx Data Collector v3.7.2.0data status	okinstallation	princeton_trtdifferential loss correction	single-endedforward channel	channel 4reverse channel	N/Adate	2019/09/18time	22:17:34forward acquisition time	60.00reverse acquisition time	0.00gamma	496.2192k internal	0.2333k external	0.2333temperature offset calibration	1.0027default loss term (dB/km)	0.3790temperature slope calibration	1.0000multiplexer offset coefficient	1.0000multiplexer slope coefficient	1.0000fibre end	0.00T internal ref (°C)	24.37T ext. ref 1 (°C)	0.79T ext. ref 2 (°C)	18.20length (m)	temperature (°C)	Stokes	anti-Stokes-747.200	239.999	-0.199	0.334
-746.185	800.000	-0.049	0.146
-745.171	-67.816	-0.363	-0.143
-744.156	800.000	0.023	0.068
-743.142	-200.000	-0.005	0.144
-742.127	-200.000	0.026	0.167
-741.112	-49.267	-0.124	0.059
-740.098	-107.004	-0.040	0.009
-739.083	-43.984	0.272	0.137
-738.069	800.000	-0.028	0.082
-737.054	5.381	0.068	-0.050
-736.039	430.674	-0.058	-0.126
-735.025	-26.410	0.356	0.210
-734.010	-200.000	0.007	0.070
-732.996	-71.532	0.061	-0.023
-731.981	800.000	-0.118	0.442
-730.966	-200.000	0.089	-0.404
-729.952	-200.000	-0.018	-0.181
-728.937	54.490	-0.137	0.133
-727.923	-66.635	-0.223	0.089
-726.908	-146.039	0.273	-0.024
-725.894	-200.000	0.061	-0.341
-724.879	-118.021	-0.127	0.023
-723.864	222.499	-0.179	-0.290
-722.850	47.580	-0.200	-0.187
-721.835	39.256	-0.154	-0.139
-720.821	519.123	-0.125	-0.295
-719.806	-11.405	-0.196	-0.129
-718.791	-166.604	-0.453	-0.019
-717.777	188.478	-0.132	0.199
-716.762	25.414	-0.323	-0.270
-715.748	93.863	-0.155	-0.177
-714.733	-33.925	0.177	-0.098
-713.718	-167.991	-0.294	0.012
-712.704	-26.398	0.058	-0.034
-711.689	-172.014	-0.199	0.006
-710.675	341.522	-0.081	-0.159
-709.660	-121.014	-0.357	0.060
-708.645	61.147	0.077	0.077
-707.631	65.251	0.097	-0.099
-706.616	-200.000	0.007	-0.068
-705.602	149.407	-0.085	-0.116
-704.587	38.709	0.191	-0.171
-703.572	-85.209	-0.345	0.108
-702.558	25.419	0.135	0.113
-701.543	-79.030	-0.291	0.099
-700.529	-73.316	-0.091	0.033
-699.514	800.000	-0.029	0.096
-698.499	731.980	0.041	-0.110
-697.485	266.592	0.008	0.014
-696.470	-200.000	0.011	0.158
-695.456	302.231	0.194	0.360
-694.441	-200.000	0.015	-0.073
-693.426	800.000	-0.122	0.465
-692.412	-170.475	-0.223	-0.008
-691.397	66.610	-0.155	0.159
-690.383	-200.000	-0.055	0.243
-689.368	641.792	-0.017	0.043
-688.354	-183.355	0.350	0.006
-687.339	-130.508	0.228	-0.031
-686.324	-136.999	-0.192	-0.022
-685.310	-132.562	-0.055	-0.007
-684.295	-12.839	-0.124	0.081
-683.281	-200.000	-0.031	-0.280
-682.266	53.004	-0.181	-0.174
-681.251	-137.710	0.458	0.052
-680.237	-200.000	-0.035	0.374
-679.222	-40.605	-0.599	0.312
-678.208	-16.923	0.243	0.154
-677.193	-105.921	-0.204	0.046
-676.178	168.289	0.134	0.191
-675.164	57.429	0.254	-0.248
-674.149	-68.433	-0.219	0.085
-673.135	618.964	0.106	-0.266
-672.120	-65.743	-0.086	-0.035
-671.105	11.349	-0.059	-0.046
-670.091	-31.686	-0.297	-0.167
-669.076	-103.843	-0.134	-0.031
-668.062	197.782	-0.068	0.105
-667.047	-200.000	0.035	-0.185
-666.032	19.826	-0.209	-0.169
-665.018	212.238	-0.093	-0.146
-664.003	-106.600	-0.261	-0.058
-662.989	800.000	-0.004	-0.017
-661.974	205.008	-0.030	0.046
-660.959	402.496	-0.047	-0.100
-659.945	145.487	0.152	0.204
-658.930	-98.942	0.167	0.043
-657.916	-104.215	-0.370	-0.086
-656.901	-39.505	0.187	-0.098
-655.886	385.814	0.062	-0.128
-654.872	-131.093	-0.348	0.047
-653.857	-12.948	-0.371	-0.242
-652.843	-79.266	-0.143	0.049
-651.828	23.999	-0.168	0.139
-650.814	500.677	-0.064	0.149
-649.799	-200.000	-0.002	0.043
-648.784	253.443	0.079	0.135
-647.770	-61.610	-0.102	-0.043
-646.755	255.589	0.210	0.361
-645.741	-74.708	-0.292	0.105
-644.726	-137.309	0.367	0.042
-643.711	-200.000	-0.011	0.192
-642.697	-112.949	0.136	0.027
-641.682	585.388	-0.112	-0.275
-640.668	-15.030	-0.132	-0.085
-639.653	-40.806	-0.128	0.066
-638.638	-141.498	0.047	-0.005
-637.624	278.799	-0.108	0.194
-636.609	-106.686	0.108	0.024
-635.595	-121.412	0.229	-0.038
-634.580	800.000	0.039	-0.113
-633.565	386.733	-0.080	-0.165
-632.551	-35.676	-0.225	0.122
-631.536	-145.643	-0.302	-0.027
-630.522	34.854	0.357	0.312
-629.507	238.821	0.092	0.154
-628.492	536.844	-0.031	0.074
-627.478	-151.159	0.126	-0.009
-626.463	-51.875	0.108	-0.050
-625.449	-200.000	-0.062	-0.299
-624.434	568.414	-0.052	0.126
-623.419	-120.636	-0.097	-0.016
-622.405	-34.250	-0.200	-0.110
-621.390	-200.000	0.007	0.202
-620.376	762.128	-0.129	0.350
-619.361	800.000	-0.030	-0.123
-618.346	152.251	0.085	0.117
-617.332	800.000	0.043	-0.176
-616.317	53.822	-0.076	-0.073
-615.303	48.476	0.035	-0.033
-614.288	-36.289	0.343	0.185
-613.273	800.000	0.050	0.167
-612.259	-95.340	0.231	0.062
-611.244	182.803	-0.138	-0.204
-610.230	25.273	0.063	0.053
-609.215	81.460	-0.052	0.057
-608.201	597.140	0.065	-0.161
-607.186	-90.243	-0.142	0.041
-606.171	-125.026	0.076	-0.012
-605.157	210.513	-0.093	0.146
-604.142	647.304	-0.079	0.201
-603.128	-55.069	0.315	-0.142
-602.113	-16.803	-0.436	-0.275
-601.098	2.545	0.048	0.034
-600.084	5.319	-0.134	-0.099
-599.069	-102.875	-0.293	0.070
-598.055	-19.479	-0.152	-0.094
-597.040	-200.000	0.071	0.514
-596.025	-200.000	-0.042	0.312
-595.011	484.778	0.091	-0.208
-593.996	21.902	-0.298	0.243
-592.982	-38.666	-0.200	0.106
-591.967	-60.937	0.172	-0.073
-590.952	800.000	0.131	0.525
-589.938	-107.410	0.289	-0.063
-588.923	-20.797	0.026	0.016
-587.909	800.000	0.030	0.104
-586.894	-126.072	0.452	0.068
-585.879	-145.483	0.041	0.004
-584.865	-96.313	-0.321	-0.085
-583.850	-144.746	-0.362	-0.033
-582.836	800.000	-0.088	0.274
-581.821	150.960	-0.211	-0.286
-580.806	-157.076	-0.293	0.018
-579.792	-110.532	0.348	0.072
-578.777	-85.407	0.060	-0.019
-577.763	347.974	-0.139	-0.275
-576.748	-43.357	-0.287	0.145
-575.733	-91.274	0.036	0.010
-574.719	3.053	0.177	-0.128
-573.704	4.937	-0.192	0.141
-572.690	-150.727	0.063	0.005
-571.675	800.000	0.097	0.269
-570.661	-100.429	0.533	-0.132
-569.646	-83.223	-0.138	0.044
-568.631	-122.410	-0.143	0.023
-567.617	-38.346	-0.171	0.091
-566.602	-200.000	0.016	-0.391
-565.588	800.000	-0.048	-0.177
-564.573	-200.000	-0.016	0.155
-563.558	4.742	-0.095	0.070
-562.544	-54.273	-0.114	0.052
-561.529	800.000	0.123	-0.387
-560.515	51.184	0.293	-0.278
-559.500	97.764	-0.071	-0.082
-558.485	183.242	-0.094	-0.139
-557.471	-14.160	-0.277	-0.179
-556.456	-57.398	0.141	0.062
-555.442	63.316	-0.036	-0.036
-554.427	42.452	-0.133	-0.121
-553.412	-7.941	-0.245	-0.165
-552.398	49.872	0.067	0.063
-551.383	-200.000	-0.046	0.217
-550.369	800.000	0.006	0.027
-549.354	800.000	0.043	-0.119
-548.339	-155.449	0.199	-0.013
-547.325	-200.000	-0.069	-0.323
-546.310	800.000	0.051	0.169
-545.296	102.551	0.042	-0.049
-544.281	402.758	-0.180	0.377
-543.266	71.504	-0.167	0.173
-542.252	-200.000	0.044	-0.255
-541.237	-52.531	-0.163	-0.075
-540.223	64.200	0.404	0.406
-539.208	-200.000	0.009	0.338
-538.193	35.727	-0.174	0.152
-537.179	-0.976	0.272	-0.192
-536.164	239.503	0.047	-0.078
-535.150	800.000	0.100	0.276
-534.135	-106.994	0.108	0.024
-533.121	-131.161	0.166	-0.022
-532.106	-152.898	-0.098	-0.007
-531.091	-172.084	-0.183	0.006
-530.077	-200.000	-0.118	-0.542
-529.062	-200.000	-0.012	0.094
-528.048	74.852	0.153	0.161
-527.033	800.000	0.127	0.363
-526.018	-200.000	-0.039	-0.184
-525.004	-200.000	-0.017	0.318
-523.989	-122.890	-0.229	0.037
-522.975	-4.664	-0.236	-0.162
-521.960	-180.845	0.049	-0.001
-520.945	47.934	-0.309	-0.288
-519.931	-2.700	0.029	-0.020
-518.916	-69.969	-0.427	-0.162
-517.902	-200.000	0.004	-0.263
-516.887	-57.220	-0.265	-0.116
-515.872	-200.000	0.004	-0.225
-514.858	326.018	0.079	-0.150
-513.843	-82.328	-0.384	0.124
-512.829	-200.000	0.000	0.183
-511.814	800.000	0.065	0.248
-510.799	205.077	-0.039	-0.060
-509.785	800.000	0.090	-0.280
-508.770	79.133	-0.190	0.203
-507.756	800.000	0.046	-0.193
-506.741	228.542	0.133	0.215
-505.726	-137.729	-0.285	-0.032
-504.712	-200.000	-0.006	0.120
-503.697	285.917	0.094	0.169
-502.683	-107.720	-0.121	-0.026
-501.668	800.000	0.088	-0.260
-500.653	300.016	0.074	-0.136
-499.639	-42.553	0.128	0.065
-498.624	585.885	0.114	-0.280
-497.610	-0.009	0.320	0.227
-496.595	162.848	0.237	-0.332
-495.581	69.693	0.152	-0.156
-494.566	-50.828	-0.055	-0.026
-493.551	-74.069	0.248	0.089
-492.537	-133.386	-0.398	0.050
-491.522	-32.411	0.317	0.176
-490.508	-153.245	-0.240	0.017
-489.493	-200.000	-0.042	0.262
-488.478	800.000	-0.201	0.567
-487.464	37.692	-0.173	0.153
-486.449	163.306	-0.194	0.272
-485.435	-18.641	-0.151	0.094
-484.420	304.673	0.045	0.084
-483.405	-200.000	0.026	-0.348
-482.391	-26.292	-0.150	-0.087
-481.376	81.967	-0.116	-0.125
-480.362	-200.000	0.013	0.134
-479.347	-94.894	-0.193	0.052
-478.332	-60.049	-0.183	0.078
-477.318	-200.000	0.007	-0.110
-476.303	588.832	-0.019	0.047
-475.289	38.637	0.177	-0.157
-474.274	-200.000	0.015	0.165
-473.259	102.885	-0.188	-0.219
-472.245	36.978	0.064	-0.057
-471.230	-179.946	0.288	0.006
-470.216	-200.000	-0.023	-0.130
-469.201	800.000	-0.098	-0.409
-468.186	-200.000	0.020	-0.254
-467.172	-99.432	-0.184	0.046
-466.157	-81.102	-0.166	-0.055
-465.143	206.656	-0.138	-0.213
-464.128	-51.780	0.157	-0.073
-463.113	800.000	-0.101	0.282
-462.099	-153.394	-0.135	-0.009
-461.084	94.809	-0.056	0.064
-460.070	-200.000	-0.071	-0.510
-459.055	-161.091	-0.199	-0.010
-458.040	12.521	0.137	-0.105
-457.026	-153.358	0.489	0.034
-456.011	355.137	-0.041	0.082
-454.997	82.828	-0.131	-0.141
-453.982	352.185	0.070	-0.138
-452.968	-79.007	0.338	0.114
-451.953	-200.000	-0.028	-0.131
-450.938	-52.847	0.175	-0.080
-449.924	308.917	0.099	0.184
-448.909	405.601	-0.120	0.251
-447.895	-98.304	0.287	-0.073
-446.880	77.482	-0.088	-0.093
-445.865	457.957	-0.036	-0.079
-444.851	-200.000	0.003	-0.344
-443.836	54.829	-0.167	-0.160
-442.822	253.351	0.079	0.135
-441.807	70.517	0.187	-0.192
-440.792	59.677	-0.173	-0.170
-439.778	-31.973	0.295	-0.164
-438.763	423.842	0.108	0.232
-437.749	380.518	-0.089	0.181
-436.734	287.797	-0.211	-0.380
-435.719	-170.206	-0.244	0.009
-434.705	49.047	-0.157	-0.147
-433.690	-168.289	-0.229	-0.009
-432.676	-200.000	-0.049	0.273
-431.661	-96.429	-0.177	0.046
-430.646	66.254	-0.105	-0.106
-429.632	-200.000	0.014	-0.101
-428.617	800.000	-0.081	-0.258
-427.603	-165.590	0.217	-0.009
-426.588	-33.493	-0.061	0.033
-425.573	285.452	-0.158	-0.283
-424.559	74.280	0.286	0.299
-423.544	-200.000	0.020	-0.182
-422.530	800.000	-0.030	-0.114
-421.515	-100.447	0.130	-0.032
-420.500	-120.362	0.193	0.033
-419.486	800.000	0.087	0.321
-418.471	-20.429	0.062	0.038
-417.457	-200.000	0.079	-0.414
-416.442	-200.000	-0.010	-0.208
-415.428	254.430	0.108	-0.183
-414.413	-134.228	-0.139	-0.017
-413.398	535.027	0.127	0.300
-412.384	337.255	0.176	-0.339
-411.369	202.967	0.181	0.278
-410.355	-122.111	-0.166	-0.027
-409.340	800.000	0.090	-0.275
-408.325	-86.164	-0.177	-0.054
-407.311	800.000	0.086	0.293
-406.296	286.186	0.049	-0.088
-405.282	-200.000	0.015	-0.146
-404.267	671.254	-0.102	0.263
-403.252	-200.000	-0.024	0.194
-402.238	-97.261	0.068	-0.018
-401.223	-17.865	0.182	-0.113
-400.209	-200.000	0.006	0.257
-399.194	800.000	0.041	-0.115
-398.179	800.000	0.069	-0.197
-397.165	795.438	-0.145	0.397
-396.150	-177.700	0.261	0.006
-395.136	261.790	-0.127	-0.218
-394.121	4.353	0.071	0.051
-393.106	-200.000	0.025	-0.199
-392.092	-137.558	-0.341	-0.038
-391.077	552.247	-0.147	0.351
-390.063	8.327	-0.370	0.276
-389.048	-142.482	0.316	0.031
-388.033	214.995	0.100	-0.157
-387.019	40.109	0.226	0.201
-386.004	85.415	-0.012	-0.013
-384.990	-28.473	-0.094	0.053
-383.975	9.827	0.097	0.073
-382.960	41.769	0.260	0.233
-381.946	-200.000	-0.024	0.207
-380.931	-200.000	0.012	0.230
-379.917	209.302	-0.155	0.240
-378.902	-54.721	-0.078	-0.035
-377.888	165.513	0.183	0.256
-376.873	453.553	-0.139	-0.305
-375.858	-57.977	0.139	0.060
-374.844	58.564	-0.059	-0.058
-373.829	-23.093	-0.086	-0.052
-372.815	-200.000	-0.033	0.281
-371.800	-56.144	-0.204	0.090
-370.785	10.122	-0.102	0.077
-369.771	-85.486	0.064	0.020
-368.756	49.943	0.093	-0.087
-367.742	800.000	0.144	-0.393
-366.727	-153.281	-0.210	0.014
-365.712	-90.121	-0.157	-0.045
-364.698	-200.000	-0.041	-0.248
-363.683	-31.905	-0.303	-0.168
-362.669	157.945	-0.173	0.237
-361.654	54.604	-0.294	-0.281
-360.639	28.752	-0.260	-0.219
-359.625	730.726	-0.035	0.094
-358.610	-131.038	0.316	0.042
-357.596	-95.579	0.378	-0.100
-356.581	-48.582	-0.058	0.027
-355.566	105.047	-0.043	-0.051
-354.552	195.481	-0.147	0.221
-353.537	-130.636	-0.195	0.026
-352.523	-69.923	-0.144	0.055
-351.508	-129.281	0.327	0.045
-350.493	-68.726	-0.334	-0.128
-349.479	-200.000	0.028	-0.362
-348.464	-39.449	-0.227	-0.118
-347.450	-99.262	0.254	0.063
-346.435	98.130	-0.109	-0.125
-345.420	-130.305	-0.148	0.020
-344.406	-103.505	0.252	0.059
-343.391	-25.959	0.158	0.092
-342.377	-200.000	0.275	-0.001
-341.362	-200.000	0.016	0.134
-340.348	-22.037	0.182	0.109
-339.333	-200.000	-0.021	0.386
-338.318	71.656	-0.196	0.202
-337.304	355.935	0.318	-0.627
-336.289	-31.388	-0.170	0.095
-335.275	-0.688	0.077	0.054
-334.260	117.055	0.095	-0.115
-333.245	776.969	-0.036	-0.098
-332.231	0.792	0.124	-0.088
-331.216	-21.457	-0.074	-0.044
-330.202	516.173	0.134	-0.311
-329.187	800.000	-0.082	0.280
-328.172	175.549	0.209	-0.299
-327.158	-117.527	0.247	0.044
-326.143	-52.202	0.053	-0.024
-325.129	-67.517	-0.031	0.012
-324.114	800.000	0.110	-0.349
-323.099	800.000	0.038	0.145
-322.085	-98.126	0.546	0.139
-321.070	13.856	-0.252	0.194
-320.056	-73.807	0.183	0.066
-319.041	454.450	-0.117	0.257
-318.026	240.754	0.053	-0.087
-317.012	276.986	0.112	0.198
-315.997	800.000	-0.032	0.105
-314.983	-200.000	0.015	0.191
-313.968	189.835	-0.221	-0.328
-312.953	800.000	0.051	-0.214
-311.939	-100.633	-0.045	-0.011
-310.924	457.225	0.152	0.333
-309.910	-138.750	-0.182	0.020
-308.895	33.205	0.147	0.126
-307.880	-200.000	0.083	0.463
-306.866	-94.394	-0.221	-0.060
-305.851	-103.914	-0.288	0.066
-304.837	-200.000	0.003	-0.070
-303.822	-200.000	-0.029	-0.515
-302.807	173.944	0.097	0.138
-301.793	26.300	0.339	0.280
-300.778	-74.571	-0.360	0.128
-299.764	-200.000	0.022	-0.119
-298.749	196.825	-0.248	0.374
-297.735	34.217	-0.333	-0.287
-296.720	219.536	-0.137	0.217
-295.705	368.656	-0.124	0.247
-294.691	-3.625	-0.298	-0.205
-293.676	800.000	0.027	-0.098
-292.662	-170.486	0.143	0.005
-291.647	67.263	0.299	0.302
-290.632	-152.412	-0.283	-0.020
-289.618	-9.663	-0.267	0.176
-288.603	248.250	0.127	-0.212
-287.589	800.000	0.122	-0.335
-286.574	553.572	0.028	-0.067
-285.559	4.557	-0.235	0.170
-284.545	40.042	-0.061	0.054
-283.530	-114.172	0.331	0.063
-282.516	-150.557	-0.203	-0.015
-281.501	212.782	0.032	-0.050
-280.486	-150.304	0.191	0.015
-279.472	-26.707	0.118	0.068
-278.457	-2.576	0.247	0.171
-277.443	379.895	-0.082	-0.166
-276.428	-200.000	-0.037	0.213
-275.413	222.014	-0.099	-0.157
-274.399	-125.612	-0.301	0.045
-273.384	-24.529	0.177	-0.104
-272.370	244.319	0.119	0.198
-271.355	-200.000	0.028	-0.292
-270.340	-68.884	-0.250	-0.095
-269.326	375.600	0.091	-0.184
-268.311	-91.370	-0.238	-0.067
-267.297	800.000	-0.106	-0.341
-266.282	-200.000	0.031	-0.140
-265.267	-136.625	0.336	0.038
-264.253	1.493	-0.035	0.025
-263.238	1.742	0.026	-0.019
-262.224	411.058	0.078	-0.163
-261.209	-77.048	-0.133	-0.046
-260.195	-156.030	0.246	-0.015
-259.180	162.549	-0.318	-0.440
-258.165	-157.397	0.310	0.018
-257.151	800.000	0.024	-0.074
-256.136	339.949	-0.116	-0.224
-255.122	-108.408	-0.220	0.047
-254.107	800.000	0.107	-0.300
-253.092	-54.737	0.150	0.067
-252.078	-200.000	-0.042	0.207
-251.063	109.305	0.215	0.254
-250.049	-200.000	-0.021	0.139
-249.034	-200.000	-0.001	-0.157
-248.019	27.882	-0.137	-0.114
-247.005	522.411	0.046	0.107
-245.990	-200.000	-0.039	-0.208
-244.976	-136.133	0.115	0.013
-243.961	-37.466	0.121	0.064
-242.946	127.297	-0.047	-0.059
-241.932	343.849	-0.110	0.213
-240.917	-81.907	0.228	-0.074
-239.903	800.000	-0.088	-0.306
-238.888	-200.000	-0.003	-0.047
-237.873	4.608	-0.290	-0.210
-236.859	-63.928	0.262	-0.105
-235.844	234.658	0.035	-0.057
-234.830	-53.671	-0.101	0.045
-233.815	150.590	-0.079	-0.106
-232.800	-200.000	-0.006	0.296
-231.786	294.065	-0.028	0.050
-230.771	800.000	-0.051	0.175
-229.757	-8.997	0.077	0.051
-228.742	29.131	-0.027	-0.023
-227.727	-25.542	0.417	0.243
-226.713	-132.684	0.328	-0.041
-225.698	254.943	-0.050	-0.085
-224.684	44.554	-0.201	-0.182
-223.669	-117.524	0.429	-0.076
-222.655	-41.951	0.128	-0.065
-221.640	-191.623	0.026	-0.000
-220.625	127.927	-0.094	0.117
-219.611	-41.357	-0.216	-0.110
-218.596	-200.000	-0.018	-0.120
-217.582	800.000	0.062	0.172
-216.567	6.700	0.155	-0.114
-215.552	-131.094	-0.161	-0.021
-214.538	-54.774	0.207	0.092
-213.523	-142.013	0.066	-0.006
-212.509	122.256	0.250	-0.307
-211.494	-96.423	-0.319	-0.083
-210.479	147.136	0.189	0.251
-209.465	-200.000	0.019	-0.194
-208.450	-120.136	-0.312	-0.053
-207.436	-62.773	0.046	-0.019
-206.421	-96.841	-0.081	-0.021
-205.406	624.490	0.139	-0.344
-204.392	88.167	-0.093	-0.102
-203.377	-55.448	0.267	-0.118
-202.363	-78.541	-0.201	-0.068
-201.348	570.834	0.023	-0.054
-200.333	90.498	-0.155	0.171
-199.319	328.417	-0.007	0.014
-198.304	42.797	0.231	0.207
-197.290	-146.872	0.126	0.011
-196.275	-200.000	-0.005	0.235
-195.260	57.430	0.245	-0.236
-194.246	90.366	-0.201	0.222
-193.231	-100.991	0.336	-0.081
-192.217	-68.493	0.247	-0.094
-191.202	-200.000	-0.013	-0.263
-190.187	-200.000	-0.024	-0.424
-189.173	494.145	-0.166	0.375
-188.158	-126.215	0.143	0.021
-187.144	542.580	-0.044	0.104
-186.129	165.629	0.166	0.232
-185.114	109.874	-0.152	0.179
-184.100	-22.641	0.126	0.075
-183.085	2.525	0.117	0.083
-182.071	-82.086	-0.192	0.062
-181.056	167.697	0.203	0.284
-180.042	355.434	-0.048	-0.094
-179.027	-123.117	0.257	0.041
-178.012	44.680	-0.287	-0.260
-176.998	800.000	0.148	-0.428
-175.983	-76.571	0.101	-0.035
-174.969	51.355	-0.062	-0.058
-173.954	760.684	0.086	-0.229
-172.939	-173.363	0.131	0.004
-171.925	-32.271	-0.234	-0.129
-170.910	-200.000	-0.012	-0.082
-169.896	-200.000	0.092	0.443
-168.881	-200.000	0.103	0.473
-167.866	48.981	-0.240	0.222
-166.852	-161.620	-0.169	0.008
-165.837	-53.157	0.261	-0.118
-164.823	15.292	0.054	-0.042
-163.808	477.180	0.239	0.532
-162.793	144.083	-0.085	0.112
-161.779	800.000	0.078	0.253
-160.764	208.886	0.070	0.108
-159.750	-70.688	0.247	0.092
-158.735	-14.635	-0.284	-0.179
-157.720	-200.000	-0.061	0.561
-156.706	-120.710	-0.141	-0.023
-155.691	-200.000	-0.022	-0.195
-154.677	127.060	0.101	0.126
-153.662	43.109	0.112	-0.100
-152.647	272.185	0.135	0.233
-151.633	-73.952	0.129	-0.046
-150.618	800.000	0.088	0.374
-149.604	-31.961	-0.092	-0.051
-148.589	-53.298	0.174	0.078
-147.574	609.342	-0.064	-0.158
-146.560	-124.609	0.155	-0.024
-145.545	91.722	-0.122	-0.135
-144.531	150.092	0.312	-0.416
-143.516	-125.255	0.337	0.051
-142.502	223.654	0.116	-0.184
-141.487	211.450	0.188	-0.290
-140.472	329.908	-0.141	0.267
-139.458	629.672	-0.067	-0.166
-138.443	15.400	-0.247	0.190
-137.429	800.000	0.058	-0.181
-136.414	500.904	0.072	0.164
-135.399	800.000	0.162	0.608
-134.385	-61.968	0.065	0.027
-133.370	-131.717	-0.182	-0.023
-132.356	-200.000	0.010	0.346
-131.341	-141.094	-0.251	0.025
-130.326	255.478	0.125	0.210
-129.312	-200.000	0.041	-0.223
-128.297	-200.000	-0.032	0.229
-127.283	244.237	-0.009	-0.014
-126.268	-15.155	-0.232	0.146
-125.253	147.284	0.202	0.267
-124.239	162.579	-0.184	-0.253
-123.224	43.950	0.062	-0.055
-122.210	-181.237	-0.265	-0.005
-121.195	-44.198	-0.238	-0.117
-120.180	370.432	-0.021	0.041
-119.166	-71.291	0.308	-0.113
-118.151	32.893	-0.181	0.154
-117.137	-23.240	-0.361	0.213
-116.122	702.780	0.124	-0.322
-115.107	114.579	0.057	0.069
-114.093	-156.799	-0.174	-0.010
-113.078	-86.062	-0.020	-0.006
-112.064	-200.000	-0.018	-0.105
-111.049	-72.234	0.181	-0.066
-110.034	281.194	0.109	-0.192
-109.020	-200.000	0.036	0.273
-108.005	222.274	0.069	0.109
-106.991	-47.878	0.108	0.051
-105.976	195.422	-0.068	0.102
-104.962	-116.368	0.222	0.040
-103.947	800.000	0.128	-0.479
-102.932	76.897	-0.150	0.156
-101.918	179.301	0.197	0.283
-100.903	56.429	-0.134	0.128
-99.889	-27.774	0.376	0.214
-98.874	-200.000	0.026	0.381
-97.859	-147.450	-0.278	0.023
-96.845	800.000	0.088	0.286
-95.830	-37.745	-0.287	0.150
-94.816	55.943	-0.049	0.047
-93.801	153.118	-0.126	0.169
-92.786	-77.035	0.395	0.135
-91.772	800.000	-0.103	-0.408
-90.757	163.641	-0.070	-0.096
-89.743	120.432	-0.086	0.105
-88.728	289.380	-0.154	0.273
-87.713	91.579	-0.173	0.191
-86.699	-119.900	0.068	-0.011
-85.684	676.244	-0.074	0.189
-84.670	800.000	0.011	0.045
-83.655	-64.544	0.256	-0.102
-82.640	122.230	-0.105	-0.128
-81.626	-200.000	-0.016	-0.118
-80.611	-39.235	-0.078	-0.040
-79.597	-7.472	-0.130	0.086
-78.582	122.097	-0.062	0.076
-77.567	254.471	-0.022	-0.036
-76.553	-200.000	0.006	-0.212
-75.538	535.049	0.102	0.236
-74.524	-59.672	-0.169	0.071
-73.509	505.842	-0.163	0.370
-72.494	145.514	-0.098	-0.129
-71.480	-200.000	0.014	0.271
-70.465	-200.000	0.006	-0.160
-69.451	-34.614	0.419	-0.225
-68.436	545.779	0.103	0.242
-67.422	20.756	0.315	0.250
-66.407	77.638	-0.124	0.129
-65.392	-200.000	0.005	0.256
-64.378	-103.638	-0.410	0.094
-63.363	-80.807	-0.113	0.037
-62.349	-200.000	0.034	0.252
-61.334	49.667	-1.183	-1.091
-60.319	103.311	0.709	0.815
-59.305	446.837	-0.637	-1.371
-58.290	258.155	0.855	1.442
-57.276	487.635	0.660	1.474
-56.261	-200.000	121.266	645.499
-55.246	434.173	1534.260	3263.258
-54.232	146.124	2692.878	3536.982
-53.217	90.175	2309.791	2528.253
-52.203	30.973	2061.654	1729.744
-51.188	26.250	1978.302	1617.572
-50.173	24.899	1962.631	1592.680
-49.159	42.485	2032.347	1809.496
-48.144	40.948	2045.698	1807.352
-47.130	26.548	1999.359	1637.222
-46.115	24.489	1988.032	1609.348
-45.100	24.416	1985.009	1606.178
-44.086	24.287	1983.114	1603.422
-43.071	24.184	1980.660	1600.443
-42.057	24.173	1978.620	1598.633
-41.042	24.260	1976.467	1597.608
-40.027	24.285	1974.469	1596.155
-39.013	24.315	1972.579	1594.837
-37.998	24.244	1971.311	1593.109
-36.984	24.368	1969.253	1592.488
-35.969	24.346	1966.628	1590.109
-34.954	24.284	1965.590	1588.656
-33.940	24.345	1964.308	1588.097
-32.925	24.303	1963.048	1586.648
-31.911	24.328	1961.438	1585.505
-30.896	24.407	1959.373	1584.473
-29.881	24.393	1958.209	1583.342
-28.867	24.500	1956.288	1582.670
-27.852	24.348	1955.048	1580.258
-26.838	24.422	1952.955	1579.164
-25.823	24.434	1951.188	1577.776
-24.809	24.395	1948.740	1575.394
-23.794	24.406	1947.364	1574.317
-22.779	24.434	1945.992	1573.391
-21.765	24.425	1944.173	1571.773
-20.750	24.403	1943.082	1570.639
-19.736	24.476	1941.105	1569.615
-18.721	24.505	1939.360	1568.404
-17.706	24.471	1938.046	1566.977
-16.692	24.391	1936.107	1564.647
-15.677	24.369	1934.401	1563.008
-14.663	24.379	1933.229	1562.090
-13.648	24.379	1932.024	1561.052
-12.633	24.340	1931.368	1560.120
-11.619	24.349	1929.647	1558.751
-10.604	24.345	1928.578	1557.784
-9.590	24.382	1926.838	1556.645
-8.575	24.355	1925.160	1554.993
-7.560	24.363	1924.267	1554.273
-6.546	24.424	1922.902	1553.644
-5.531	24.360	1921.933	1552.246
-4.517	24.378	1920.446	1551.141
-3.502	24.363	1919.272	1549.996
-2.487	24.492	1917.537	1549.650
-1.473	24.401	1917.058	1548.419
-0.458	24.442	1912.058	1544.671
0.556	23.184	1891.952	1515.842
1.571	18.720	1873.126	1462.676
2.586	14.724	1895.797	1445.728
3.600	13.782	1930.485	1463.744
4.615	14.040	1923.372	1460.488
5.629	11.201	1825.730	1362.507
6.644	4.726	1712.560	1227.015
7.659	1.122	1679.411	1175.259
8.673	0.844	1676.297	1170.823
9.688	0.835	1674.923	1169.690
10.702	0.805	1673.728	1168.521
11.717	0.686	1670.134	1164.988
12.731	1.150	1668.827	1167.547
13.746	6.034	1679.056	1212.369
14.761	13.234	1693.246	1278.373
15.775	16.851	1699.352	1310.898
16.790	17.351	1698.644	1314.100
17.804	16.398	1695.545	1304.232
18.819	15.385	1692.519	1293.978
19.834	14.784	1690.678	1287.826
20.848	14.640	1688.452	1284.908
21.863	14.355	1687.411	1281.809
22.877	14.060	1685.377	1277.882
23.892	13.910	1683.890	1275.493
24.907	13.760	1682.787	1273.389
25.921	13.727	1681.651	1272.166
26.936	13.747	1680.991	1271.703
27.950	13.781	1680.120	1271.197
28.965	13.789	1679.349	1270.564
29.980	13.824	1678.512	1270.087
30.994	13.900	1677.620	1269.875
32.009	13.930	1676.579	1269.205
33.023	13.871	1676.124	1268.298
34.038	13.944	1675.159	1268.016
35.053	13.793	1674.572	1266.308
36.067	13.947	1672.832	1266.049
37.082	13.925	1672.000	1265.139
38.096	13.866	1670.941	1263.775
39.111	13.922	1670.307	1263.613
40.126	13.845	1669.541	1262.334
41.140	14.060	1667.781	1262.524
42.155	13.844	1667.161	1260.306
43.169	13.846	1665.197	1258.722
44.184	13.793	1664.474	1257.668
45.199	13.809	1662.890	1256.482
46.213	13.779	1661.988	1255.461
47.228	13.738	1661.172	1254.419
48.242	13.746	1660.157	1253.604
49.257	13.831	1658.290	1252.728
50.271	13.760	1657.782	1251.692
51.286	13.818	1656.058	1250.722
52.301	13.823	1654.911	1249.781
53.315	13.883	1652.945	1248.633
54.330	13.755	1651.905	1246.782
55.344	13.796	1649.895	1245.456
56.359	13.795	1648.668	1244.413
57.374	13.772	1647.707	1243.410
58.388	13.759	1646.681	1242.422
59.403	13.830	1645.145	1241.686
60.417	13.759	1643.568	1239.856
61.432	13.640	1642.828	1238.299
62.447	13.654	1641.708	1237.451
63.461	13.677	1640.373	1236.507
64.476	13.678	1638.915	1235.309
65.490	13.615	1638.214	1234.201
66.505	13.640	1636.882	1233.276
67.520	13.568	1636.018	1231.980
68.534	13.684	1634.307	1231.443
69.549	13.773	1633.141	1231.113
70.563	13.742	1631.976	1229.896
71.578	13.629	1630.806	1228.070
72.593	13.666	1629.661	1227.374
73.607	13.698	1628.366	1226.529
74.622	13.649	1627.472	1225.380
75.636	13.590	1626.590	1224.173
76.651	13.537	1625.712	1223.015
77.666	13.650	1624.717	1222.990
78.680	13.500	1624.495	1221.610
79.695	13.629	1622.814	1221.183
80.709	13.710	1621.330	1220.559
81.724	13.604	1620.983	1219.407
82.739	13.729	1620.093	1219.551
83.753	13.748	1618.388	1218.296
84.768	13.791	1617.966	1218.190
85.782	13.814	1617.050	1217.556
86.797	13.879	1616.237	1217.317
87.812	13.752	1615.697	1215.870
88.826	13.772	1614.462	1214.983
89.841	13.722	1613.325	1213.652
90.855	13.758	1612.243	1212.996
91.870	13.806	1610.809	1212.157
92.884	13.810	1609.974	1211.449
93.899	13.887	1608.829	1211.044
94.914	13.789	1607.653	1209.336
95.928	13.928	1606.445	1209.336
96.943	13.930	1604.961	1208.122
97.957	13.868	1603.747	1206.652
98.972	13.890	1601.902	1205.317
99.987	13.859	1600.990	1204.302
101.001	13.922	1598.919	1203.095
102.016	13.855	1597.629	1201.531
103.030	13.854	1595.882	1200.101
104.045	13.867	1594.626	1199.148
105.060	13.895	1593.691	1198.540
106.074	13.915	1592.299	1197.527
107.089	13.798	1590.658	1195.349
108.103	13.750	1589.198	1193.801
109.118	13.688	1587.803	1192.201
110.133	13.741	1586.364	1191.393
111.147	13.752	1584.894	1190.265
112.162	13.839	1583.295	1189.582
113.176	13.776	1582.349	1188.314
114.191	13.771	1580.963	1187.131
115.206	13.764	1579.438	1185.830
116.220	13.804	1578.614	1185.391
117.235	13.789	1576.947	1183.934
118.249	13.721	1575.982	1182.620
119.264	13.801	1574.180	1181.727
120.279	13.761	1573.036	1180.479
121.293	13.764	1571.592	1179.315
122.308	13.726	1570.817	1178.359
123.322	13.731	1568.319	1176.415
124.337	13.761	1567.086	1175.602
125.352	13.815	1565.575	1174.748
126.366	13.757	1564.526	1173.441
127.381	13.643	1563.566	1171.817
128.395	13.734	1562.292	1171.398
129.410	13.750	1561.145	1170.544
130.424	13.731	1559.628	1169.176
131.439	13.733	1558.253	1168.054
132.454	13.722	1557.064	1166.979
133.468	13.874	1555.427	1166.722
134.483	13.797	1554.085	1165.068
135.497	13.834	1552.555	1164.078
136.512	13.890	1550.985	1163.186
137.527	13.755	1550.123	1161.497
138.541	13.933	1548.645	1161.530
139.556	13.816	1547.134	1159.475
140.570	13.819	1545.891	1158.465
141.585	13.946	1544.619	1158.289
142.600	13.939	1543.460	1157.275
143.614	14.003	1541.826	1156.388
144.629	14.015	1540.337	1155.258
145.643	14.011	1539.416	1154.436
146.658	13.975	1538.260	1153.212
147.673	14.022	1536.642	1152.223
148.687	13.933	1535.667	1150.780
149.702	13.951	1533.738	1149.352
150.716	13.982	1531.937	1148.117
151.731	14.026	1530.587	1147.307
152.746	13.984	1529.723	1146.267
153.760	13.978	1527.826	1144.701
154.775	13.971	1526.768	1143.765
155.789	14.041	1525.163	1142.940
156.804	14.128	1523.518	1142.200
157.819	14.018	1522.713	1140.741
158.833	14.119	1521.251	1140.240
159.848	14.111	1520.533	1139.544
160.862	14.187	1519.027	1138.840
161.877	14.196	1518.186	1138.165
162.892	14.029	1516.778	1135.873
163.906	14.100	1515.533	1135.325
164.921	14.074	1514.116	1133.982
165.935	14.115	1513.222	1133.491
166.950	14.079	1512.238	1132.410
167.964	14.125	1510.764	1131.521
168.979	14.116	1509.828	1130.656
169.994	14.183	1509.096	1130.461
171.008	14.183	1507.937	1129.494
172.023	14.185	1507.012	1128.718
173.037	14.181	1505.605	1127.535
174.052	14.234	1504.224	1126.758
175.067	14.188	1503.287	1125.649
176.081	14.280	1502.263	1125.404
177.096	14.160	1500.831	1123.418
178.110	14.182	1499.413	1122.410
179.125	14.279	1498.116	1121.992
180.140	14.308	1497.186	1121.390
181.154	14.290	1496.409	1120.590
182.169	14.215	1495.459	1119.275
183.183	14.230	1494.346	1118.440
184.198	14.304	1493.096	1117.906
185.213	14.405	1491.727	1117.457
186.227	14.406	1490.755	1116.635
187.242	14.393	1489.437	1115.464
188.256	14.354	1488.978	1114.762
189.271	14.455	1487.557	1114.271
190.286	14.543	1486.183	1113.733
191.300	14.475	1485.044	1112.330
192.315	14.367	1484.181	1110.863
193.329	14.293	1482.731	1109.189
194.344	14.327	1481.707	1108.549
195.359	14.374	1480.534	1107.888
196.373	14.443	1479.345	1107.359
197.388	14.493	1478.337	1106.833
198.402	14.476	1477.073	1105.680
199.417	14.492	1476.480	1105.243
200.432	14.578	1475.255	1104.794
201.446	14.626	1474.336	1104.327
202.461	14.611	1473.008	1103.137
203.475	14.633	1471.903	1102.359
204.490	14.705	1471.063	1102.103
205.504	14.660	1470.025	1100.936
206.519	14.673	1468.582	1099.839
207.534	14.667	1467.404	1098.822
208.548	14.652	1466.216	1097.738
209.563	14.661	1465.330	1097.036
210.577	14.695	1464.524	1096.556
211.592	14.609	1463.922	1095.446
212.607	14.710	1463.042	1095.356
213.621	14.820	1462.506	1095.579
214.636	14.759	1461.125	1094.045
215.650	14.743	1460.180	1093.138
216.665	14.811	1459.309	1092.833
217.680	14.849	1458.231	1092.175
218.694	14.912	1457.396	1091.869
219.709	14.879	1456.780	1091.095
220.723	14.862	1455.679	1090.063
221.738	14.817	1455.073	1089.219
222.753	14.943	1453.657	1088.884
223.767	14.810	1453.227	1087.597
224.782	14.940	1451.856	1087.317
225.796	14.908	1451.002	1086.379
226.811	14.919	1450.381	1085.886
227.826	14.948	1449.777	1085.529
228.840	14.926	1448.627	1084.430
229.855	14.884	1447.875	1083.496
230.869	14.876	1446.939	1082.650
231.884	14.957	1445.606	1082.081
232.899	14.945	1444.493	1081.072
233.913	14.909	1443.667	1080.128
234.928	14.920	1442.212	1079.015
235.942	15.004	1440.711	1078.336
236.957	15.019	1439.764	1077.631
237.972	14.885	1439.009	1076.103
238.986	15.026	1437.917	1076.100
240.001	14.936	1436.888	1074.656
241.015	14.920	1436.015	1073.807
242.030	14.943	1435.099	1073.172
243.045	15.111	1433.343	1072.844
244.059	15.069	1432.518	1071.859
245.074	15.157	1431.709	1071.725
246.088	15.083	1431.811	1071.231
247.103	15.169	1430.439	1070.658
248.117	15.278	1429.467	1070.533
249.132	15.340	1428.230	1069.909
250.147	15.298	1427.563	1069.047
251.161	15.344	1427.309	1069.053
252.176	15.371	1426.538	1068.552
253.190	15.347	1426.099	1067.977
254.205	15.319	1425.115	1066.967
255.220	15.493	1423.748	1066.959
256.234	15.522	1423.258	1066.679
257.249	15.446	1422.504	1065.538
258.263	15.427	1421.698	1064.720
259.278	15.575	1420.099	1064.362
260.293	15.514	1419.476	1063.415
261.307	15.517	1418.881	1062.898
262.322	15.523	1418.523	1062.569
263.336	15.507	1417.766	1061.811
264.351	15.554	1416.392	1060.981
265.366	15.623	1415.587	1060.721
266.380	15.692	1414.008	1059.882
267.395	15.646	1413.329	1058.990
268.409	15.684	1412.827	1058.758
269.424	15.681	1411.419	1057.586
270.439	15.628	1410.888	1056.765
271.453	15.658	1409.667	1055.943
272.468	15.683	1409.091	1055.580
273.482	15.742	1407.924	1054.981
274.497	15.639	1407.458	1053.891
275.512	15.643	1406.024	1052.751
276.526	15.731	1405.196	1052.586
277.541	15.634	1404.348	1051.253
278.555	15.724	1403.839	1051.338
279.570	15.668	1402.820	1050.133
280.585	15.728	1401.617	1049.512
281.599	15.752	1400.958	1049.081
282.614	15.818	1399.762	1048.499
283.628	15.833	1398.892	1047.853
284.643	15.853	1397.609	1046.919
285.657	15.835	1396.442	1045.843
286.672	15.815	1395.931	1045.240
287.687	15.820	1394.836	1044.359
288.701	15.826	1394.129	1043.777
289.716	15.836	1393.180	1043.038
290.730	15.955	1392.215	1042.956
291.745	15.969	1391.172	1042.174
292.760	15.984	1390.329	1041.540
293.774	15.950	1389.595	1040.686
294.789	16.037	1387.905	1039.866
295.803	16.062	1387.581	1039.686
296.818	16.074	1386.517	1038.870
297.833	15.986	1385.876	1037.755
298.847	16.034	1384.750	1037.118
299.862	15.985	1384.127	1036.258
300.876	16.015	1383.263	1035.705
301.891	16.066	1382.048	1035.018
302.906	16.112	1381.248	1034.605
303.920	16.085	1380.648	1033.903
304.935	16.133	1379.995	1033.615
305.949	16.208	1378.685	1033.001
306.964	16.277	1377.996	1032.817
307.979	16.388	1376.322	1032.146
308.993	16.287	1376.169	1031.325
310.008	16.378	1375.107	1030.992
311.022	16.215	1374.294	1029.300
312.037	16.334	1373.315	1029.197
313.052	16.344	1372.298	1028.407
314.066	16.315	1371.385	1027.454
315.081	16.371	1369.637	1026.398
316.095	16.303	1369.046	1025.449
317.110	16.350	1367.897	1024.779
318.125	16.251	1366.932	1023.369
319.139	16.288	1366.577	1023.236
320.154	16.318	1365.371	1022.426
321.168	16.187	1364.936	1021.213
322.183	16.304	1363.481	1020.741
323.197	16.355	1362.532	1020.250
324.212	16.394	1361.488	1019.611
325.227	16.405	1360.736	1019.024
326.241	16.519	1359.663	1018.817
327.256	16.464	1358.905	1017.832
328.270	16.372	1358.025	1016.526
329.285	16.455	1357.314	1016.404
330.300	16.457	1355.965	1015.320
331.314	16.392	1355.948	1014.824
332.329	16.444	1354.358	1013.853
333.343	16.353	1353.799	1012.805
334.358	16.436	1352.809	1012.471
335.373	16.611	1351.458	1012.417
336.387	16.508	1351.483	1011.727
337.402	16.580	1350.536	1011.359
338.416	16.587	1350.024	1010.927
339.431	16.578	1349.351	1010.280
340.446	16.563	1348.805	1009.695
341.460	16.634	1347.835	1009.304
342.475	16.799	1346.020	1008.834
343.489	16.823	1345.483	1008.488
344.504	16.749	1344.539	1007.249
345.519	16.839	1343.872	1007.195
346.533	16.784	1343.016	1006.139
347.548	16.830	1341.970	1005.541
348.562	16.887	1340.885	1004.979
349.577	16.865	1340.310	1004.325
350.592	16.868	1339.570	1003.700
351.606	16.838	1339.065	1003.057
352.621	16.773	1338.258	1001.976
353.635	16.770	1336.805	1000.785
354.650	16.712	1336.242	999.933
355.665	16.858	1334.948	999.734
356.679	16.827	1333.972	998.735
357.694	16.937	1332.736	998.366
358.708	16.944	1331.444	997.351
359.723	16.929	1330.619	996.555
360.738	16.982	1329.791	996.159
361.752	16.964	1328.784	995.215
362.767	16.910	1327.592	993.915
363.781	16.991	1326.465	993.458
364.796	16.952	1325.870	992.694
365.810	16.942	1325.429	992.218
366.825	16.995	1324.553	991.786
367.840	17.015	1323.996	991.401
368.854	17.126	1323.032	991.239
369.869	17.147	1322.341	990.754
370.883	17.191	1321.749	990.479
371.898	17.221	1320.796	989.851
372.913	17.104	1320.236	988.665
373.927	17.190	1319.128	988.246
374.942	17.212	1318.457	987.781
375.956	17.128	1318.331	987.113
376.971	17.251	1316.697	986.517
377.986	17.218	1316.081	985.777
379.000	17.155	1315.342	984.771
380.015	17.195	1314.669	984.414
381.029	17.341	1314.275	984.876
382.044	17.275	1313.608	983.904
383.059	17.345	1312.398	983.316
384.073	17.385	1311.784	983.003
385.088	17.338	1311.417	982.366
386.102	17.502	1310.222	982.330
387.117	17.529	1309.553	981.898
388.132	17.457	1308.754	980.799
389.146	17.486	1307.995	980.312
390.161	17.327	1307.460	978.906
391.175	17.400	1306.490	978.517
392.190	17.312	1306.053	977.594
393.205	17.355	1304.931	976.914
394.219	17.442	1303.870	976.534
395.234	17.579	1302.532	976.230
396.248	17.541	1301.177	974.912
397.263	17.520	1300.038	973.850
398.278	17.532	1298.471	972.657
399.292	17.545	1297.561	971.968
400.307	17.604	1296.470	971.398
401.321	17.616	1295.580	970.718
402.336	17.561	1294.739	969.687
403.350	17.606	1293.643	969.037
404.365	17.430	1292.950	967.431
405.380	17.571	1291.700	967.208
406.394	17.552	1291.053	966.534
407.409	17.674	1290.450	966.688
408.423	17.649	1289.866	966.021
409.438	17.811	1288.940	966.162
410.453	17.720	1288.482	965.217
411.467	17.768	1287.678	964.800
412.482	17.766	1287.042	964.225
413.496	17.783	1286.266	963.658
414.511	17.884	1285.719	963.733
415.526	17.849	1285.070	962.965
416.540	17.805	1284.225	961.997
417.555	17.973	1283.127	962.033
418.569	17.969	1282.651	961.570
419.584	17.974	1282.144	961.135
420.599	18.010	1281.613	960.854
421.613	101.572	1358.760	1489.560
422.628	99.302	1369.945	1489.620
