DTS Sentinel unit serial number:	SN413079Multiplexer serial number:	ORYXHardware model number:	OX4-SRSoftware version number:	ORYX F/W v4.00 Oryx Data Collector v3.7.2.0data status	okinstallation	princeton_trtdifferential loss correction	single-endedforward channel	channel 4reverse channel	N/Adate	2019/09/19time	06:09:35forward acquisition time	60.00reverse acquisition time	0.00gamma	496.2192k internal	0.2340k external	0.2340temperature offset calibration	1.0027default loss term (dB/km)	0.3790temperature slope calibration	1.0000multiplexer offset coefficient	1.0000multiplexer slope coefficient	1.0000fibre end	0.00T internal ref (°C)	19.12T ext. ref 1 (°C)	0.57T ext. ref 2 (°C)	12.73length (m)	temperature (°C)	Stokes	anti-Stokes-747.200	307.931	0.187	-0.350
-746.185	115.945	-0.088	0.108
-745.171	-183.898	0.236	0.004
-744.156	-200.000	0.064	0.322
-743.142	-51.409	-0.069	0.032
-742.127	122.035	-0.127	0.159
-741.112	-103.349	0.304	0.072
-740.098	-129.011	-0.340	0.048
-739.083	800.000	-0.113	0.425
-738.069	243.983	0.080	0.134
-737.054	-169.598	-0.350	-0.013
-736.039	-143.115	-0.141	-0.014
-735.025	-200.000	-0.012	0.064
-734.010	-143.667	0.274	0.026
-732.996	-200.000	-0.044	0.377
-731.981	-9.901	0.123	0.082
-730.966	26.407	0.025	0.021
-729.952	145.210	0.032	0.043
-728.937	-114.328	-0.278	0.054
-727.923	-44.828	-0.176	0.088
-726.908	-45.623	0.105	0.052
-725.894	-122.683	0.102	0.017
-724.879	-59.185	-0.346	-0.150
-723.864	-145.857	0.302	-0.027
-722.850	-0.854	-0.157	-0.111
-721.835	-77.935	0.202	0.070
-720.821	-62.588	-0.406	0.169
-719.806	-88.695	0.055	-0.016
-718.791	-70.015	0.201	0.077
-717.777	-128.438	0.233	0.033
-716.762	297.891	0.060	-0.110
-715.748	-0.728	0.116	-0.082
-714.733	-200.000	-0.001	-0.075
-713.718	-75.326	0.184	0.066
-712.704	-24.649	-0.087	0.052
-711.689	-149.191	0.143	-0.011
-710.675	-195.768	0.166	-0.001
-709.660	-89.151	-0.453	-0.134
-708.645	-92.026	-0.331	-0.094
-707.631	-127.903	0.264	0.038
-706.616	800.000	-0.130	0.420
-705.602	168.271	-0.084	0.120
-704.587	-41.353	-0.255	-0.132
-703.572	242.343	-0.078	0.130
-702.558	-200.000	0.013	-0.238
-701.543	800.000	0.082	0.240
-700.529	-65.405	0.094	-0.038
-699.514	297.370	0.116	-0.213
-698.499	44.609	-0.365	-0.336
-697.485	-200.000	0.015	-0.242
-696.470	-200.000	0.059	-0.480
-695.456	-200.000	-0.038	0.272
-694.441	146.020	0.095	-0.127
-693.426	-200.000	-0.006	-0.066
-692.412	90.640	-0.094	0.106
-691.397	87.663	0.304	-0.337
-690.383	38.655	0.012	-0.011
-689.368	47.233	-0.117	-0.109
-688.354	180.981	0.070	-0.103
-687.339	-89.865	-0.335	-0.098
-686.324	236.568	0.209	0.346
-685.310	301.940	-0.062	-0.114
-684.295	-116.023	-0.111	0.021
-683.281	375.518	-0.054	-0.111
-682.266	-200.000	0.005	0.408
-681.251	-194.144	-0.348	-0.003
-680.237	800.000	0.040	-0.118
-679.222	-200.000	-0.022	0.215
-678.208	275.701	-0.141	0.250
-677.193	413.655	-0.078	-0.167
-676.178	-200.000	0.020	-0.320
-675.164	282.677	0.176	0.316
-674.149	715.468	-0.054	-0.144
-673.135	397.950	0.231	0.484
-672.120	-200.000	-0.008	0.207
-671.105	-200.000	-0.015	0.090
-670.091	-76.930	0.056	0.019
-669.076	-200.000	-0.010	-0.157
-668.062	207.922	-0.126	-0.197
-667.047	238.329	0.161	0.267
-666.032	-162.423	0.323	0.016
-665.018	-75.473	0.216	-0.077
-664.003	800.000	0.086	-0.341
-662.989	-200.000	-0.057	-0.284
-661.974	9.485	-0.187	0.141
-660.959	27.823	-0.237	0.200
-659.945	-200.000	-0.020	0.151
-658.930	392.214	0.077	-0.161
-657.916	257.342	0.183	-0.315
-656.901	206.389	-0.154	0.239
-655.886	64.766	-0.053	-0.054
-654.872	396.053	0.125	-0.261
-653.857	157.174	0.168	-0.232
-652.843	113.942	-0.137	-0.166
-651.828	-129.667	0.043	0.006
-650.814	-200.000	-0.038	0.275
-649.799	-111.303	-0.435	0.089
-648.784	-30.333	-0.167	0.095
-647.770	452.773	-0.127	-0.280
-646.755	800.000	-0.094	0.325
-645.741	292.850	0.062	0.113
-644.726	-200.000	0.012	-0.182
-643.711	23.434	0.132	-0.108
-642.697	-55.331	-0.375	-0.168
-641.682	63.060	0.182	0.182
-640.668	276.733	-0.190	-0.338
-639.653	122.579	0.306	-0.381
-638.638	-200.000	-0.004	-0.082
-637.624	42.483	-0.078	0.071
-636.609	-180.097	-0.191	-0.004
-635.595	800.000	0.108	0.324
-634.580	-200.000	0.047	0.229
-633.565	800.000	0.043	-0.160
-632.551	-165.959	-0.318	0.014
-631.536	241.717	-0.102	-0.170
-630.522	-106.837	0.143	-0.032
-629.507	151.164	-0.106	0.144
-628.492	212.833	-0.124	0.196
-627.478	15.084	-0.275	0.215
-626.463	-15.543	-0.208	0.133
-625.449	-200.000	0.001	0.317
-624.434	-135.109	-0.088	-0.011
-623.419	-200.000	0.003	0.092
-622.405	18.958	-0.106	0.084
-621.390	295.870	-0.069	-0.126
-620.376	-191.129	0.212	0.002
-619.361	-200.000	-0.039	-0.225
-618.346	-47.626	-0.178	-0.086
-617.332	800.000	-0.026	-0.107
-616.317	584.493	-0.063	0.154
-615.303	-121.455	0.250	-0.042
-614.288	55.504	-0.035	-0.034
-613.273	128.382	-0.099	-0.125
-612.259	800.000	-0.103	0.386
-611.244	-200.000	-0.059	0.284
-610.230	-88.875	0.235	0.069
-609.215	105.133	-0.235	-0.277
-608.201	157.073	0.151	-0.209
-607.186	-94.409	0.084	-0.023
-606.171	-200.000	0.022	0.150
-605.157	-79.842	-0.287	-0.096
-604.142	24.207	0.186	-0.153
-603.128	-95.706	-0.079	0.021
-602.113	197.031	0.097	-0.147
-601.098	99.161	-0.076	-0.087
-600.084	-99.607	0.374	0.094
-599.069	-200.000	0.287	0.001
-598.055	10.752	0.119	0.090
-597.040	-200.000	-0.030	-0.156
-596.025	-200.000	0.003	-0.130
-595.011	-200.000	-0.037	-0.287
-593.996	223.569	0.057	-0.091
-592.982	194.602	0.035	-0.054
-591.967	108.839	-0.061	0.072
-590.952	78.110	0.157	0.167
-589.938	64.003	0.183	-0.184
-588.923	500.052	0.069	0.159
-587.909	800.000	0.030	-0.102
-586.894	471.658	-0.130	-0.292
-585.879	-68.932	0.188	-0.072
-584.865	138.684	-0.190	-0.248
-583.850	-200.000	-0.042	-0.269
-582.836	-176.791	-0.234	0.006
-581.821	-58.269	-0.049	-0.021
-580.806	-105.511	-0.218	-0.049
-579.792	231.638	0.044	-0.073
-578.777	53.814	-0.083	-0.079
-577.763	800.000	-0.085	-0.266
-576.748	323.663	-0.075	0.142
-575.733	-37.875	0.010	0.005
-574.719	-135.917	-0.407	0.048
-573.704	65.497	-0.153	0.154
-572.690	-200.000	0.007	0.235
-571.675	29.500	0.171	-0.144
-570.661	-200.000	-0.032	-0.348
-569.646	123.908	-0.183	0.229
-568.631	-24.416	-0.170	0.101
-567.617	-146.103	-0.266	0.023
-566.602	-161.575	0.020	0.001
-565.588	183.125	0.180	-0.265
-564.573	-181.219	-0.271	-0.005
-563.558	47.721	0.266	-0.247
-562.544	43.570	0.124	-0.113
-561.529	-200.000	0.006	-0.039
-560.515	-152.554	-0.225	-0.016
-559.500	42.885	0.071	-0.064
-558.485	751.998	0.069	-0.186
-557.471	-97.791	-0.192	0.049
-556.456	159.091	-0.095	-0.132
-555.442	35.927	0.100	-0.088
-554.427	38.188	-0.090	0.080
-553.412	443.273	0.168	-0.366
-552.398	-200.000	0.011	0.091
-551.383	-200.000	-0.005	-0.371
-550.369	52.679	-0.235	-0.223
-549.354	-200.000	0.024	0.182
-548.339	-176.373	0.206	0.005
-547.325	-80.734	-0.116	0.039
-546.310	-200.000	0.012	-0.072
-545.296	-101.486	0.172	0.042
-544.281	16.118	0.182	0.143
-543.266	-157.039	-0.369	-0.022
-542.252	-128.430	-0.229	0.032
-541.237	72.197	0.044	-0.046
-540.223	-45.227	0.258	-0.128
-539.208	22.330	-0.275	0.224
-538.193	-40.147	0.432	0.224
-537.179	800.000	-0.029	0.081
-536.164	9.071	0.239	0.180
-535.150	17.463	0.116	-0.092
-534.135	425.729	-0.076	-0.163
-533.121	147.078	0.201	-0.268
-532.106	800.000	-0.033	-0.121
-531.091	-103.931	-0.143	-0.033
-530.077	-103.009	0.302	0.071
-529.062	68.680	-0.271	-0.277
-528.048	800.000	-0.041	-0.150
-527.033	800.000	0.053	-0.164
-526.018	-200.000	-0.026	-0.260
-525.004	78.498	-0.096	0.102
-523.989	-200.000	-0.014	0.159
-522.975	75.546	0.023	-0.024
-521.960	108.887	0.174	0.207
-520.945	-200.000	0.048	0.307
-519.931	-19.598	0.196	0.120
-518.916	486.218	-0.138	0.312
-517.902	66.248	-0.047	-0.048
-516.887	-32.731	0.230	0.127
-515.872	800.000	-0.053	0.165
-514.858	194.591	0.050	0.075
-513.843	-159.109	0.277	0.016
-512.829	-4.875	0.180	0.124
-511.814	-200.000	0.016	-0.106
-510.799	156.122	-0.105	-0.144
-509.785	207.797	0.232	-0.360
-508.770	76.148	0.038	0.040
-507.756	619.112	0.073	-0.182
-506.741	800.000	0.158	0.539
-505.726	-94.617	0.095	0.026
-504.712	-44.748	0.104	0.051
-503.697	800.000	-0.063	-0.175
-502.683	5.827	0.099	-0.073
-501.668	135.277	0.151	0.195
-500.653	117.110	-0.207	-0.253
-499.639	220.445	0.141	0.224
-498.624	-47.026	-0.180	-0.087
-497.610	-38.334	0.184	0.097
-496.595	800.000	0.022	0.070
-495.581	387.564	0.155	0.318
-494.566	-200.000	-0.020	0.229
-493.551	800.000	-0.048	-0.154
-492.537	-125.621	-0.095	-0.014
-491.522	-53.205	0.169	0.077
-490.508	5.012	-0.251	-0.183
-489.493	1.192	0.061	0.044
-488.478	-200.000	-0.026	0.178
-487.464	-145.249	-0.325	0.029
-486.449	-29.263	0.193	-0.109
-485.435	227.406	-0.014	0.023
-484.420	-200.000	0.014	0.086
-483.405	800.000	0.043	0.147
-482.391	86.884	-0.085	-0.093
-481.376	800.000	-0.106	0.318
-480.362	31.753	0.227	0.194
-479.347	-63.202	0.200	0.082
-478.332	-11.635	0.157	0.102
-477.318	-200.000	0.002	0.074
-476.303	21.845	-0.111	-0.090
-475.289	-43.388	0.154	0.077
-474.274	-21.975	0.070	-0.042
-473.259	-103.618	-0.348	0.081
-472.245	366.080	-0.143	0.286
-471.230	-38.836	0.202	-0.106
-470.216	222.916	0.077	-0.123
-469.201	67.399	0.183	0.186
-468.186	-200.000	0.025	0.189
-467.172	-67.635	0.096	0.037
-466.157	89.152	-0.177	-0.195
-465.143	-127.342	-0.269	0.039
-464.128	800.000	0.062	0.227
-463.113	-125.651	-0.123	-0.019
-462.099	-79.833	0.050	-0.017
-461.084	-99.145	-0.069	0.017
-460.070	-200.000	-0.017	0.142
-459.055	-180.443	0.021	0.000
-458.040	4.842	-0.046	0.034
-457.026	-200.000	0.114	0.000
-456.011	88.181	-0.203	0.224
-454.997	571.926	-0.024	0.058
-453.982	43.425	0.211	0.191
-452.968	-82.279	0.343	0.111
-451.953	-135.305	-0.124	-0.015
-450.938	0.189	-0.259	0.183
-449.924	-110.730	0.102	-0.021
-448.909	66.723	0.231	-0.233
-447.895	36.483	-0.152	-0.133
-446.880	-30.368	-0.040	0.023
-445.865	317.517	0.196	-0.367
-444.851	27.212	-0.023	0.019
-443.836	-7.663	-0.080	-0.053
-442.822	-119.419	-0.143	0.025
-441.807	-90.137	-0.272	0.079
-440.792	205.422	-0.120	-0.185
-439.778	-177.087	0.289	-0.007
-438.763	-200.000	-0.065	-0.296
-437.749	544.189	-0.107	-0.252
-436.734	-28.110	0.234	-0.134
-435.719	165.709	-0.270	0.379
-434.705	-18.073	0.075	0.046
-433.690	-186.300	-0.086	-0.001
-432.676	800.000	-0.054	-0.156
-431.661	-49.028	0.258	0.122
-430.646	-200.000	-0.038	-0.327
-429.632	800.000	-0.089	-0.287
-428.617	800.000	-0.124	-0.372
-427.603	91.442	-0.063	-0.070
-426.588	-64.696	-0.139	0.056
-425.573	-0.421	-0.050	0.035
-424.559	-200.000	-0.016	0.103
-423.544	3.015	0.150	-0.108
-422.530	-200.000	-0.008	-0.071
-421.515	222.575	0.073	-0.116
-420.500	324.268	0.036	0.068
-419.486	-200.000	0.035	0.283
-418.471	-127.435	-0.081	-0.012
-417.457	-200.000	-0.033	0.330
-416.442	-116.697	0.190	0.035
-415.428	622.386	0.131	-0.326
-414.413	111.487	-0.180	-0.215
-413.398	-39.769	-0.181	-0.093
-412.384	589.013	0.069	-0.168
-411.369	19.309	0.258	0.205
-410.355	658.324	-0.169	0.430
-409.340	-200.000	-0.012	0.112
-408.325	-17.239	-0.291	0.182
-407.311	800.000	-0.040	0.159
-406.296	-107.214	0.410	0.089
-405.282	800.000	0.072	-0.243
-404.267	480.310	-0.027	0.061
-403.252	-71.974	0.362	-0.133
-402.238	-67.970	-0.326	0.126
-401.223	91.844	0.085	0.095
-400.209	94.245	0.045	-0.050
-399.194	-200.000	0.051	0.306
-398.179	122.069	-0.076	0.093
-397.165	-200.000	-0.000	-0.142
-396.150	52.063	0.097	0.092
-395.136	-62.697	0.386	0.158
-394.121	-200.000	-0.015	0.239
-393.106	239.229	0.075	0.123
-392.092	445.485	0.092	-0.199
-391.077	800.000	-0.021	-0.057
-390.063	800.000	-0.006	0.021
-389.048	-118.654	-0.168	-0.029
-388.033	272.091	-0.159	0.278
-387.019	-200.000	-0.086	0.408
-386.004	-200.000	0.026	0.155
-384.990	157.153	0.107	-0.147
-383.975	143.740	-0.281	0.370
-382.960	218.295	-0.072	0.114
-381.946	73.266	0.166	0.172
-380.931	23.771	0.171	0.139
-379.917	800.000	-0.092	-0.279
-378.902	199.716	0.180	-0.273
-377.888	38.003	0.117	0.103
-376.873	-135.992	-0.026	-0.003
-375.858	528.981	-0.120	-0.280
-374.844	-200.000	0.017	-0.205
-373.829	-45.985	-0.245	-0.119
-372.815	-36.979	0.190	0.101
-371.800	-200.000	0.008	0.203
-370.785	-62.802	-0.317	0.130
-369.771	800.000	0.119	-0.498
-368.756	251.745	0.098	0.165
-367.742	-172.092	0.135	-0.004
-366.727	-98.691	-0.014	-0.003
-365.712	-129.437	0.070	-0.010
-364.698	-20.357	0.210	-0.127
-363.683	524.192	0.111	-0.259
-362.669	-69.679	0.231	-0.087
-361.654	252.942	-0.204	0.344
-360.639	-145.763	0.253	-0.022
-359.625	213.889	-0.127	-0.199
-358.610	-54.631	0.171	0.076
-357.596	47.902	-0.252	-0.233
-356.581	800.000	0.059	0.209
-355.566	18.842	0.096	0.076
-354.552	710.528	0.130	-0.340
-353.537	124.189	0.104	0.129
-352.523	-200.000	-0.059	0.309
-351.508	256.935	-0.146	0.248
-350.493	-98.145	0.127	0.032
-349.479	-113.502	0.262	-0.051
-348.464	-115.211	-0.294	-0.055
-347.450	341.141	-0.237	0.457
-346.435	512.424	-0.069	0.158
-345.420	-200.000	0.032	-0.150
-344.406	103.902	-0.114	-0.132
-343.391	441.656	0.237	-0.511
-342.377	-200.000	0.037	-0.182
-341.362	-126.672	-0.068	0.010
-340.348	-51.489	-0.101	0.046
-339.333	-192.365	-0.368	-0.003
-338.318	800.000	0.051	0.158
-337.304	-70.912	0.381	0.142
-336.289	-200.000	-0.023	-0.113
-335.275	101.501	-0.220	-0.253
-334.260	417.202	-0.116	0.245
-333.245	-143.492	-0.296	-0.028
-332.231	-200.000	-0.001	-0.173
-331.216	-200.000	0.043	0.244
-330.202	174.354	0.109	0.155
-329.187	800.000	-0.052	0.209
-328.172	366.519	0.013	-0.025
-327.158	-200.000	-0.011	-0.082
-326.143	800.000	0.007	0.023
-325.129	-81.391	-0.035	-0.011
-324.114	800.000	0.128	0.355
-323.099	305.638	0.094	0.173
-322.085	242.670	-0.131	0.216
-321.070	263.213	-0.022	0.038
-320.056	-92.527	0.201	0.056
-319.041	197.783	0.180	0.271
-318.026	-39.512	0.156	-0.081
-317.012	-104.843	-0.213	-0.048
-315.997	-135.552	-0.503	-0.059
-314.983	800.000	-0.023	0.077
-313.968	-200.000	0.002	0.155
-312.953	-100.009	-0.207	-0.051
-311.939	-200.000	0.031	0.226
-310.924	40.075	-0.190	-0.168
-309.910	-156.198	0.065	-0.004
-308.895	800.000	-0.044	0.147
-307.880	-200.000	-0.016	0.126
-306.866	167.267	0.239	0.334
-305.851	-200.000	0.005	-0.039
-304.837	-39.162	-0.157	-0.081
-303.822	800.000	0.048	-0.186
-302.807	-68.751	-0.081	0.031
-301.793	678.093	-0.088	0.225
-300.778	8.645	-0.156	-0.116
-299.764	262.499	0.138	0.235
-298.749	622.424	-0.122	0.302
-297.735	160.693	0.021	0.029
-296.720	-131.842	-0.305	-0.039
-295.705	196.994	-0.074	-0.111
-294.691	-200.000	-0.008	-0.061
-293.676	233.387	-0.199	-0.323
-292.662	357.513	0.181	0.356
-291.647	-200.000	0.005	0.029
-290.632	241.930	-0.060	0.098
-289.618	-148.234	0.079	-0.006
-288.603	152.751	0.070	-0.094
-287.589	-65.587	0.047	-0.019
-286.574	-200.000	0.037	0.522
-285.559	-90.035	-0.198	0.057
-284.545	-200.000	-0.000	0.030
-283.530	158.360	-0.035	0.048
-282.516	-41.854	0.187	-0.094
-281.501	187.306	0.099	0.146
-280.486	193.649	0.214	0.319
-279.472	-63.972	0.279	-0.112
-278.457	1.005	0.261	0.184
-277.443	-147.656	0.165	-0.014
-276.428	464.119	0.170	0.373
-275.413	102.858	0.174	0.201
-274.399	-200.000	-0.036	-0.207
-273.384	-0.478	-0.169	0.118
-272.370	-65.774	0.047	-0.018
-271.355	-191.375	-0.278	0.003
-270.340	800.000	-0.033	0.094
-269.326	219.373	-0.066	0.104
-268.311	800.000	0.071	-0.200
-267.297	59.921	-0.141	0.137
-266.282	-101.102	0.271	-0.065
-265.267	-200.000	0.004	-0.147
-264.253	800.000	0.045	0.178
-263.238	-200.000	0.029	-0.473
-262.224	800.000	-0.090	-0.342
-261.209	-59.308	-0.392	-0.166
-260.195	-152.424	-0.151	-0.011
-259.180	-5.966	0.156	-0.105
-258.165	-200.000	-0.009	-0.186
-257.151	-109.824	-0.095	-0.020
-256.136	-94.239	0.197	-0.053
-255.122	80.503	-0.142	-0.150
-254.107	172.832	0.044	-0.062
-253.092	800.000	-0.033	0.119
-252.078	503.913	0.148	-0.337
-251.063	-134.838	0.440	0.052
-250.049	3.217	0.113	-0.081
-249.034	-53.256	-0.391	-0.176
-248.019	38.856	0.169	-0.148
-247.005	-200.000	-0.048	-0.425
-245.990	177.434	-0.122	0.175
-244.976	800.000	-0.070	0.292
-243.961	222.356	0.083	0.131
-242.946	68.032	0.091	-0.092
-241.932	-126.622	0.236	0.034
-240.917	99.503	-0.203	-0.231
-239.903	397.197	-0.097	-0.200
-238.888	-200.000	0.048	-0.289
-237.873	-25.766	0.185	-0.107
-236.859	69.546	-0.192	-0.194
-235.844	17.102	-0.168	0.131
-234.830	-1.598	0.194	0.135
-233.815	193.171	-0.123	0.182
-232.800	-30.799	-0.277	-0.154
-231.786	33.433	-0.237	-0.202
-230.771	52.469	0.070	-0.066
-229.757	186.989	-0.094	-0.138
-228.742	-46.607	0.041	0.020
-227.727	-41.089	0.174	-0.088
-226.713	-132.665	0.118	-0.015
-225.698	-63.842	-0.076	0.031
-224.684	-55.569	0.178	-0.078
-223.669	180.433	-0.129	0.185
-222.655	-130.175	-0.121	-0.016
-221.640	40.114	-0.096	-0.085
-220.625	800.000	-0.018	-0.068
-219.611	-16.479	0.263	-0.164
-218.596	800.000	0.035	0.097
-217.582	-72.089	-0.269	0.098
-216.567	-145.583	-0.330	0.029
-215.552	-141.702	0.096	0.009
-214.538	-200.000	-0.047	0.352
-213.523	800.000	0.056	0.154
-212.509	31.627	-0.080	0.067
-211.494	-32.742	0.146	0.080
-210.479	129.587	-0.037	0.046
-209.465	383.105	0.115	0.232
-208.450	152.769	0.103	-0.138
-207.436	-109.845	0.281	-0.058
-206.421	-70.873	-0.117	0.043
-205.406	116.106	-0.155	-0.187
-204.392	194.296	0.069	0.102
-203.377	417.019	0.055	-0.115
-202.363	-84.373	0.414	-0.128
-201.348	-2.295	0.160	-0.110
-200.333	23.680	0.324	-0.262
-199.319	158.998	0.112	-0.153
-198.304	-133.586	-0.117	0.014
-197.290	-177.968	-0.190	0.004
-196.275	-16.924	-0.159	0.099
-195.260	1.546	0.244	0.172
-194.246	121.218	0.235	-0.287
-193.231	-71.386	-0.104	-0.038
-192.217	-200.000	0.001	0.279
-191.202	49.903	0.180	-0.167
-190.187	800.000	0.076	0.246
-189.173	41.477	0.273	-0.243
-188.158	-90.702	-0.101	-0.029
-187.144	-92.429	-0.129	0.036
-186.129	-87.220	0.148	-0.044
-185.114	20.247	0.200	0.158
-184.100	-200.000	0.054	0.271
-183.085	-85.784	-0.375	-0.114
-182.071	48.926	0.119	0.110
-181.056	-137.966	0.263	-0.029
-180.042	643.850	-0.085	-0.212
-179.027	-154.490	0.206	-0.013
-178.012	800.000	0.072	-0.303
-176.998	231.979	-0.165	0.265
-175.983	-45.445	0.149	0.073
-174.969	86.525	-0.157	0.169
-173.954	179.676	-0.187	-0.269
-172.939	-59.185	0.151	-0.064
-171.925	800.000	-0.049	0.206
-170.910	42.557	0.040	0.035
-169.896	55.242	-0.054	-0.052
-168.881	800.000	0.039	-0.143
-167.866	262.641	-0.084	-0.143
-166.852	196.215	-0.238	-0.355
-165.837	23.763	0.049	0.040
-164.823	261.489	-0.049	-0.083
-163.808	670.836	-0.039	-0.100
-162.793	800.000	0.043	-0.172
-161.779	-27.025	0.305	0.175
-160.764	76.403	-0.100	0.104
-159.750	421.587	-0.168	0.354
-158.735	-25.943	0.302	-0.174
-157.720	55.690	-0.282	-0.267
-156.706	482.751	0.143	0.319
-155.691	155.511	0.106	-0.143
-154.677	-74.620	-0.319	-0.112
-153.662	111.123	-0.158	-0.186
-152.647	108.689	-0.103	-0.120
-151.633	-13.206	-0.283	-0.180
-150.618	-200.000	-0.038	0.204
-149.604	-180.848	-0.267	0.005
-148.589	161.066	-0.090	0.123
-147.574	80.087	0.181	0.191
-146.560	-200.000	-0.008	0.199
-145.545	-67.344	0.379	-0.146
-144.531	56.135	0.114	0.109
-143.516	-200.000	-0.018	0.084
-142.502	509.660	0.145	-0.329
-141.487	-44.651	-0.210	-0.102
-140.472	76.662	-0.118	0.123
-139.458	-112.264	0.349	-0.069
-138.443	573.263	0.079	-0.190
-137.429	-75.746	-0.199	-0.069
-136.414	-200.000	0.024	0.106
-135.399	800.000	-0.056	-0.195
-134.385	422.813	-0.031	-0.066
-133.370	0.860	0.096	0.067
-132.356	18.858	-0.329	0.258
-131.341	317.563	0.096	-0.177
-130.326	110.959	-0.228	0.268
-129.312	386.713	0.151	-0.306
-128.297	800.000	0.079	0.310
-127.283	-15.627	-0.210	0.131
-126.268	-75.827	-0.043	0.015
-125.253	-134.087	0.085	0.010
-124.239	-103.426	0.195	0.045
-123.224	-55.902	-0.212	0.093
-122.210	800.000	-0.071	0.217
-121.195	-37.187	0.155	0.081
-120.180	21.834	0.136	0.108
-119.166	-142.019	0.426	-0.042
-118.151	-200.000	0.007	-0.105
-117.137	-88.859	-0.152	0.044
-116.122	800.000	-0.013	0.050
-115.107	-33.852	-0.233	0.125
-114.093	0.184	0.157	-0.110
-113.078	304.494	0.163	-0.296
-112.064	109.623	-0.096	0.113
-111.049	-111.062	0.263	-0.053
-110.034	-200.000	-0.027	0.379
-109.020	-30.210	-0.271	0.151
-108.005	-55.681	-0.157	-0.068
-106.991	-76.647	0.217	-0.074
-105.976	92.712	0.190	-0.210
-104.962	-62.171	0.370	-0.151
-103.947	800.000	-0.055	0.174
-102.932	43.808	0.046	0.042
-101.918	116.698	0.142	-0.170
-100.903	-64.913	-0.287	-0.113
-99.889	71.760	0.340	-0.346
-98.874	-200.000	-0.052	0.328
-97.859	-133.336	0.153	0.019
-96.845	100.971	-0.080	-0.091
-95.830	627.056	0.029	0.071
-94.816	18.368	0.190	-0.148
-93.801	73.077	0.194	-0.198
-92.786	-18.977	0.515	0.313
-91.772	-88.413	0.141	-0.041
-90.757	-42.394	-0.051	0.025
-89.743	-47.899	0.236	-0.111
-88.728	-200.000	0.009	0.099
-87.713	591.820	0.085	0.205
-86.699	109.303	0.164	-0.192
-85.684	-71.751	-0.057	-0.021
-84.670	-200.000	0.022	0.415
-83.655	135.096	0.206	0.261
-82.640	136.021	0.148	0.189
-81.626	127.783	-0.256	0.318
-80.611	-125.932	-0.197	-0.029
-79.597	-179.779	0.331	-0.007
-78.582	347.709	0.205	0.395
-77.567	-200.000	-0.056	0.414
-76.553	-2.359	0.237	0.162
-75.538	431.972	-0.150	-0.318
-74.524	310.235	0.294	-0.537
-73.509	-200.000	0.020	-0.098
-72.494	-142.860	0.180	-0.017
-71.480	-133.273	0.210	0.026
-70.465	-86.638	-0.051	0.015
-69.451	-200.000	0.059	-0.348
-68.436	-200.000	0.027	0.148
-67.422	39.893	-0.138	0.121
-66.407	-65.705	-0.384	0.150
-65.392	-77.882	-0.254	0.086
-64.378	46.373	0.304	-0.275
-63.363	-122.777	-0.174	0.027
-62.349	-146.882	-0.281	-0.024
-61.334	73.938	-1.166	-1.194
-60.319	148.690	0.634	0.836
-59.305	363.781	-0.689	-1.352
-58.290	270.781	0.980	1.683
-57.276	800.000	0.578	1.621
-56.261	-200.000	135.726	627.763
-55.246	342.799	1632.173	3118.444
-54.232	136.415	2778.847	3537.639
-53.217	74.003	2336.719	2392.436
-52.203	25.084	2088.770	1691.532
-51.188	20.747	2009.916	1588.134
-50.173	19.929	1995.980	1569.645
-49.159	38.031	2073.408	1799.236
-48.144	34.809	2083.913	1778.368
-47.130	21.118	2037.163	1612.841
-46.115	19.189	2026.517	1586.596
-45.100	19.030	2023.745	1582.904
-44.086	19.009	2021.540	1580.916
-43.071	19.004	2019.042	1578.859
-42.057	18.996	2016.862	1577.015
-41.042	19.051	2015.059	1576.049
-40.027	19.031	2013.173	1574.328
-39.013	19.040	2010.762	1572.465
-37.998	19.020	2009.577	1571.286
-36.984	19.040	2007.721	1569.959
-35.969	19.059	2005.835	1568.592
-34.954	19.129	2004.414	1568.058
-33.940	19.142	2003.152	1567.129
-32.925	19.104	2001.348	1565.314
-31.911	19.148	1999.834	1564.465
-30.896	19.168	1997.603	1562.840
-29.881	19.154	1996.318	1561.643
-28.867	19.228	1994.543	1560.859
-27.852	19.177	1993.092	1559.203
-26.838	19.200	1990.474	1557.303
-25.823	19.123	1989.671	1555.915
-24.809	19.181	1987.573	1554.737
-23.794	19.205	1985.609	1553.360
-22.779	19.210	1984.238	1552.268
-21.765	19.149	1982.975	1550.665
-20.750	19.176	1981.333	1549.568
-19.736	19.215	1980.014	1548.823
-18.721	19.181	1978.323	1547.134
-17.706	19.208	1976.436	1545.839
-16.692	19.154	1974.943	1544.121
-15.677	19.049	1973.758	1542.196
-14.663	19.104	1972.336	1541.513
-13.648	19.117	1970.762	1540.340
-12.633	19.081	1969.382	1538.883
-11.619	19.128	1968.060	1538.209
-10.604	19.154	1966.389	1537.066
-9.590	19.110	1965.124	1535.625
-8.575	19.068	1963.985	1534.298
-7.560	19.059	1962.543	1533.034
-6.546	19.091	1961.467	1532.414
-5.531	19.104	1959.742	1531.121
-4.517	19.094	1959.138	1530.501
-3.502	19.138	1958.177	1530.082
-2.487	19.137	1956.269	1528.518
-1.473	19.120	1955.393	1527.622
-0.458	19.101	1950.870	1523.862
0.556	17.874	1928.973	1494.269
1.571	13.485	1910.740	1441.873
2.586	9.698	1934.064	1425.908
3.600	8.840	1968.854	1443.702
4.615	8.983	1960.451	1438.691
5.629	7.103	1861.105	1349.651
6.644	3.001	1752.929	1238.093
7.659	0.773	1723.227	1199.350
8.673	0.627	1720.619	1196.268
9.688	0.630	1719.780	1195.608
10.702	0.540	1718.150	1193.654
11.717	0.493	1713.906	1190.235
12.731	0.736	1712.570	1191.115
13.746	4.215	1719.114	1223.039
14.761	10.825	1732.167	1284.609
15.775	15.893	1742.276	1332.195
16.790	17.099	1743.099	1342.244
17.804	16.274	1739.927	1333.175
18.819	15.262	1737.270	1323.030
19.834	14.667	1734.456	1316.081
20.848	14.476	1732.929	1313.306
21.863	14.273	1731.386	1310.419
22.877	13.989	1730.015	1307.037
23.892	13.723	1728.856	1303.956
24.907	13.647	1727.469	1302.193
25.921	13.654	1725.972	1301.004
26.936	13.541	1725.212	1299.432
27.950	13.685	1724.222	1299.698
28.965	13.678	1724.275	1299.569
29.980	13.724	1722.986	1298.839
30.994	13.807	1722.036	1298.658
32.009	13.860	1721.055	1298.221
33.023	13.897	1719.969	1297.579
34.038	13.902	1718.716	1296.556
35.053	13.794	1718.289	1295.275
36.067	13.881	1716.869	1294.766
37.082	13.826	1715.875	1293.479
38.096	13.793	1714.800	1292.295
39.111	13.758	1714.204	1291.454
40.126	13.848	1713.098	1291.208
41.140	13.859	1712.095	1290.429
42.155	13.732	1710.442	1288.082
43.169	13.655	1709.430	1286.608
44.184	13.605	1708.602	1285.481
45.199	13.596	1707.688	1284.612
46.213	13.633	1705.686	1283.276
47.228	13.626	1704.970	1282.569
48.242	13.607	1703.611	1281.287
49.257	13.721	1702.258	1281.035
50.271	13.701	1700.865	1279.718
51.286	13.749	1699.333	1278.828
52.301	13.685	1698.677	1277.727
53.315	13.763	1696.492	1276.572
54.330	13.762	1695.174	1275.454
55.344	13.676	1693.285	1273.265
56.359	13.680	1691.756	1272.031
57.374	13.753	1690.866	1271.804
58.388	13.727	1689.717	1270.635
59.403	13.649	1688.493	1269.001
60.417	13.668	1686.719	1267.698
61.432	13.574	1686.175	1266.465
62.447	13.669	1684.677	1265.949
63.461	13.639	1683.607	1264.805
64.476	13.567	1682.128	1263.033
65.490	13.577	1681.479	1262.514
66.505	13.560	1679.423	1260.725
67.520	13.615	1678.433	1260.288
68.534	13.588	1677.480	1259.259
69.549	13.596	1676.455	1258.437
70.563	13.612	1675.071	1257.409
71.578	13.627	1673.912	1256.543
72.593	13.567	1672.754	1255.102
73.607	13.585	1671.403	1254.118
74.622	13.541	1670.355	1252.889
75.636	13.439	1669.728	1251.533
76.651	13.522	1668.116	1250.841
77.666	13.498	1667.526	1250.107
78.680	13.554	1666.318	1249.513
79.695	13.482	1665.450	1248.210
80.709	13.591	1663.791	1247.677
81.724	13.589	1663.540	1247.364
82.739	13.605	1662.401	1246.516
83.753	13.632	1661.572	1245.987
84.768	13.702	1660.152	1245.340
85.782	13.732	1659.146	1244.701
86.797	13.715	1658.972	1244.336
87.812	13.815	1657.184	1243.634
88.826	13.694	1656.221	1241.889
89.841	13.832	1654.617	1241.611
90.855	13.692	1654.033	1240.014
91.870	13.685	1652.691	1238.848
92.884	13.662	1652.186	1238.187
93.899	13.767	1650.699	1237.745
94.914	13.782	1649.226	1236.646
95.928	13.774	1648.201	1235.711
96.943	13.840	1646.727	1234.984
97.957	13.883	1645.250	1234.085
98.972	13.817	1643.409	1232.111
99.987	13.797	1642.207	1230.949
101.001	13.775	1640.271	1229.229
102.016	13.735	1638.901	1227.796
103.030	13.754	1637.340	1226.657
104.045	13.764	1636.252	1225.809
105.060	13.792	1635.041	1224.998
106.074	13.827	1633.170	1223.749
107.089	13.798	1631.241	1221.983
108.103	13.651	1630.058	1219.906
109.118	13.620	1628.875	1218.680
110.133	13.713	1626.367	1217.382
111.147	13.606	1625.833	1216.086
112.162	13.672	1623.831	1214.967
113.176	13.683	1622.513	1213.954
114.191	13.651	1621.603	1212.928
115.206	13.684	1619.831	1211.741
116.220	13.743	1618.601	1211.141
117.235	13.734	1617.113	1209.859
118.249	13.630	1616.478	1208.518
119.264	13.677	1614.467	1207.245
120.279	13.677	1613.174	1206.174
121.293	13.648	1611.163	1204.358
122.308	13.598	1610.085	1203.078
123.322	13.537	1608.562	1201.392
124.337	13.716	1606.819	1201.284
125.352	13.595	1605.794	1199.530
126.366	13.693	1604.256	1198.986
127.381	13.715	1602.938	1198.055
128.395	13.582	1602.431	1196.606
129.410	13.646	1600.568	1195.574
130.424	13.616	1599.137	1194.180
131.439	13.707	1597.996	1193.877
132.454	13.594	1597.069	1192.266
133.468	13.656	1595.357	1191.333
134.483	13.780	1593.388	1190.642
135.497	13.720	1592.264	1189.266
136.512	13.706	1590.864	1188.018
137.527	13.750	1589.627	1187.303
138.541	13.782	1588.173	1186.339
139.556	13.783	1586.666	1185.118
140.570	13.699	1585.645	1183.651
141.585	13.803	1583.968	1183.039
142.600	13.871	1582.664	1182.442
143.614	13.853	1581.627	1181.434
144.629	13.919	1580.551	1180.996
145.643	13.931	1578.645	1179.550
146.658	14.036	1577.134	1179.064
147.673	13.949	1575.869	1177.398
148.687	13.938	1574.477	1176.177
149.702	13.931	1572.336	1174.423
150.716	13.913	1570.958	1173.161
151.731	13.822	1569.786	1171.544
152.746	13.888	1568.317	1170.805
153.760	13.846	1567.034	1169.446
154.775	13.857	1566.063	1168.699
155.789	14.001	1564.777	1168.647
156.804	13.992	1563.186	1167.296
157.819	13.998	1562.438	1166.669
158.833	13.993	1560.590	1165.157
159.848	14.020	1559.748	1164.615
160.862	14.073	1558.296	1163.798
161.877	14.054	1557.184	1162.733
162.892	14.069	1556.155	1161.964
163.906	14.112	1554.004	1160.556
164.921	13.949	1553.393	1158.856
165.935	14.002	1552.273	1158.293
166.950	14.022	1550.735	1157.179
167.964	14.030	1549.798	1156.433
168.979	14.130	1548.600	1156.130
169.994	14.045	1547.674	1154.749
171.008	14.119	1546.291	1154.128
172.023	14.102	1545.378	1153.226
173.037	14.245	1544.258	1153.281
174.052	14.185	1543.187	1151.963
175.067	14.126	1542.128	1150.660
176.081	14.151	1540.734	1149.696
177.096	14.070	1539.716	1148.275
178.110	14.115	1538.299	1147.420
179.125	14.118	1537.036	1146.399
180.140	14.070	1535.971	1145.176
181.154	14.057	1535.052	1144.297
182.169	14.230	1533.346	1144.117
183.183	14.266	1531.962	1143.230
184.198	14.294	1530.949	1142.566
185.213	14.290	1529.743	1141.537
186.227	14.320	1528.664	1140.832
187.242	14.347	1527.892	1140.343
188.256	14.306	1526.702	1139.071
189.271	14.360	1525.462	1138.415
190.286	14.392	1524.326	1137.687
191.300	14.337	1523.340	1136.474
192.315	14.220	1521.941	1134.531
193.329	14.190	1521.294	1133.747
194.344	14.260	1519.609	1132.864
195.359	14.221	1519.348	1132.306
196.373	14.303	1518.098	1131.832
197.388	14.215	1517.646	1130.798
198.402	14.347	1515.936	1130.316
199.417	14.395	1514.862	1129.738
200.432	14.441	1513.641	1129.045
201.446	14.503	1512.302	1128.364
202.461	14.523	1511.373	1127.706
203.475	14.517	1510.313	1126.777
204.490	14.620	1508.824	1126.260
205.504	14.596	1507.987	1125.371
206.519	14.596	1506.691	1124.309
207.534	14.526	1505.678	1122.982
208.548	14.537	1504.454	1122.042
209.563	14.601	1503.494	1121.656
210.577	14.507	1503.042	1120.588
211.592	14.697	1501.335	1120.494
212.607	14.555	1500.409	1118.746
213.621	14.747	1499.618	1119.346
214.636	14.815	1499.007	1119.250
215.650	14.715	1498.081	1117.788
216.665	14.740	1496.692	1116.818
217.680	14.680	1496.235	1115.977
218.694	14.747	1495.202	1115.560
219.709	14.817	1494.695	1115.548
220.723	14.733	1493.647	1114.103
221.738	14.750	1492.442	1113.222
222.753	14.814	1491.566	1112.898
223.767	14.730	1491.065	1111.865
224.782	14.774	1489.859	1111.160
225.796	14.841	1488.635	1110.590
226.811	14.870	1487.376	1109.749
227.826	14.874	1486.911	1109.327
228.840	14.881	1485.547	1108.259
229.855	14.864	1484.702	1107.418
230.869	14.834	1484.224	1106.767
231.884	14.889	1483.021	1106.137
232.899	14.936	1481.470	1105.188
233.913	14.950	1480.028	1104.110
234.928	14.858	1479.235	1102.811
235.942	14.852	1477.808	1101.611
236.957	14.880	1476.896	1101.018
237.972	14.884	1475.759	1100.098
238.986	14.859	1474.754	1099.093
240.001	14.932	1473.544	1098.568
241.015	14.923	1472.695	1097.783
242.030	14.988	1471.263	1097.043
243.045	14.980	1470.442	1096.282
244.059	15.088	1469.177	1095.950
245.074	15.073	1468.770	1095.447
246.088	15.009	1467.538	1094.014
247.103	15.093	1466.822	1093.931
248.117	15.025	1466.262	1092.977
249.132	14.989	1465.862	1092.342
250.147	15.038	1465.037	1091.954
251.161	15.263	1463.984	1092.541
252.176	15.284	1463.264	1092.041
253.190	15.293	1462.129	1091.154
254.205	15.322	1461.272	1090.610
255.220	15.309	1460.823	1090.094
256.234	15.395	1459.463	1089.537
257.249	15.322	1458.866	1088.526
258.263	15.397	1457.963	1088.240
259.278	15.433	1457.218	1087.823
260.293	15.490	1455.767	1087.013
261.307	15.409	1455.864	1086.461
262.322	15.425	1454.919	1085.765
263.336	15.509	1454.240	1085.702
264.351	15.481	1452.931	1084.453
265.366	15.559	1451.892	1084.081
266.380	15.538	1450.950	1083.149
267.395	15.602	1449.638	1082.483
268.409	15.595	1448.893	1081.785
269.424	15.583	1447.795	1080.794
270.439	15.642	1446.843	1080.368
271.453	15.503	1446.381	1079.032
272.468	15.548	1445.505	1078.575
273.482	15.610	1444.515	1078.139
274.497	15.596	1443.331	1077.071
275.512	15.654	1442.683	1076.865
276.526	15.692	1441.312	1075.990
277.541	15.580	1440.814	1074.804
278.555	15.792	1439.634	1075.186
279.570	15.698	1438.818	1073.878
280.585	15.727	1438.194	1073.500
281.599	15.703	1437.196	1072.510
282.614	15.788	1436.426	1072.379
283.628	15.794	1434.794	1071.106
284.643	15.751	1433.861	1070.043
285.657	15.741	1432.615	1068.951
286.672	15.766	1431.893	1068.480
287.687	15.725	1431.610	1067.915
288.701	15.858	1429.724	1067.256
289.716	16.022	1428.570	1067.338
290.730	15.882	1428.330	1066.174
291.745	15.927	1427.209	1065.532
292.760	15.848	1426.368	1064.312
293.774	15.887	1425.457	1063.781
294.789	15.922	1424.130	1062.918
295.803	15.937	1423.504	1062.453
296.818	15.919	1423.081	1061.928
297.833	15.995	1421.742	1061.314
298.847	16.025	1420.771	1060.688
299.862	15.953	1419.745	1059.372
300.876	15.923	1418.751	1058.348
301.891	16.020	1417.631	1058.030
302.906	16.034	1417.313	1057.787
303.920	16.014	1416.497	1056.954
304.935	16.102	1415.441	1056.627
305.949	16.150	1414.495	1056.126
306.964	16.188	1413.553	1055.570
307.979	16.141	1412.674	1054.522
308.993	16.214	1411.316	1053.871
310.008	16.149	1410.774	1052.969
311.022	16.139	1409.972	1052.213
312.037	16.196	1408.935	1051.706
313.052	16.272	1407.769	1051.211
314.066	16.249	1406.836	1050.280
315.081	16.255	1405.439	1049.182
316.095	16.232	1404.701	1048.395
317.110	16.253	1403.852	1047.801
318.125	16.254	1402.658	1046.821
319.139	16.291	1401.677	1046.224
320.154	16.187	1401.304	1045.211
321.168	16.252	1399.907	1044.476
322.183	16.292	1398.741	1043.765
323.197	16.205	1398.398	1042.876
324.212	16.231	1397.298	1042.127
325.227	16.364	1396.060	1041.931
326.241	16.351	1394.761	1040.787
327.256	16.327	1394.492	1040.349
328.270	16.332	1393.541	1039.576
329.285	16.348	1392.679	1038.941
330.300	16.365	1391.400	1038.000
331.314	16.403	1390.467	1037.442
332.329	16.397	1389.698	1036.740
333.343	16.332	1388.771	1035.563
334.358	16.336	1387.940	1034.876
335.373	16.457	1387.251	1035.010
336.387	16.369	1386.734	1033.993
337.402	16.526	1385.438	1033.893
338.416	16.467	1384.826	1032.990
339.431	16.529	1384.374	1032.938
340.446	16.596	1383.519	1032.616
341.460	16.576	1382.800	1031.864
342.475	16.587	1381.405	1030.802
343.489	16.699	1380.388	1030.637
344.504	16.690	1379.508	1029.833
345.519	16.653	1378.776	1028.970
346.533	16.711	1377.551	1028.317
347.548	16.792	1376.353	1027.824
348.562	16.801	1376.030	1027.545
349.577	16.765	1375.080	1026.523
350.592	16.832	1373.907	1025.962
351.606	16.782	1372.896	1024.815
352.621	16.724	1372.465	1024.052
353.635	16.747	1371.172	1023.136
354.650	16.759	1370.040	1022.274
355.665	16.686	1369.417	1021.280
356.679	16.722	1368.008	1020.354
357.694	16.795	1366.717	1019.738
358.708	16.877	1365.461	1019.204
359.723	16.895	1364.530	1018.529
360.738	16.824	1363.733	1017.418
361.752	16.818	1362.637	1016.476
362.767	16.829	1361.470	1015.578
363.781	16.953	1360.379	1015.418
364.796	16.844	1360.214	1014.550
365.810	16.984	1359.432	1014.717
366.825	16.975	1358.769	1014.077
367.840	16.966	1357.782	1013.200
368.854	17.035	1357.072	1012.988
369.869	17.073	1356.599	1012.775
370.883	17.143	1355.557	1012.325
371.898	17.150	1354.805	1011.717
372.913	17.151	1353.886	1010.947
373.927	17.120	1353.471	1010.360
374.942	17.053	1352.883	1009.437
375.956	17.152	1351.803	1009.125
376.971	17.175	1350.550	1008.239
377.986	17.061	1349.916	1007.001
379.000	17.203	1349.258	1007.262
380.015	17.152	1348.526	1006.326
381.029	17.234	1347.637	1006.055
382.044	17.285	1346.368	1005.322
383.059	17.265	1346.026	1004.863
384.073	17.237	1345.232	1004.015
385.088	17.276	1344.658	1003.724
386.102	17.302	1344.271	1003.505
387.117	17.341	1343.021	1002.712
388.132	17.390	1342.291	1002.369
389.146	17.331	1341.348	1001.224
390.161	17.395	1340.336	1000.759
391.175	17.320	1339.373	999.510
392.190	17.423	1338.865	999.648
393.205	17.377	1338.181	998.776
394.219	17.505	1336.965	998.530
395.234	17.494	1336.000	997.659
396.248	17.570	1334.253	996.710
397.263	17.518	1333.028	995.406
398.278	17.399	1332.038	993.884
399.292	17.397	1331.117	993.093
400.307	17.482	1330.023	992.684
401.321	17.476	1328.795	991.649
402.336	17.488	1327.751	990.852
403.350	17.541	1326.628	990.235
404.365	17.529	1325.974	989.586
405.380	17.489	1325.031	988.562
406.394	17.443	1324.477	987.797
407.409	17.531	1323.623	987.581
408.423	17.614	1323.265	987.710
409.438	17.690	1322.120	987.207
410.453	17.650	1321.364	986.323
411.467	17.618	1320.789	985.621
412.482	17.779	1319.680	985.634
413.496	17.769	1319.181	985.118
414.511	17.788	1318.364	984.534
415.526	17.681	1318.110	983.635
416.540	17.838	1316.825	983.497
417.555	17.826	1316.460	983.067
418.569	17.898	1315.910	982.987
419.584	17.963	1314.668	982.342
420.599	18.001	1314.353	982.241
421.613	102.038	1365.155	1494.310
422.628	100.568	1372.481	1494.398
