DTS Sentinel unit serial number:	SN413079Multiplexer serial number:	ORYXHardware model number:	OX4-SRSoftware version number:	ORYX F/W v4.00 Oryx Data Collector v3.7.2.0data status	okinstallation	princeton_trtdifferential loss correction	single-endedforward channel	channel 4reverse channel	N/Adate	2019/09/15time	12:09:34forward acquisition time	60.00reverse acquisition time	0.00gamma	496.2192k internal	0.2296k external	0.2296temperature offset calibration	1.0016default loss term (dB/km)	0.3790temperature slope calibration	1.0000multiplexer offset coefficient	1.0000multiplexer slope coefficient	1.0000fibre end	0.00T internal ref (°C)	34.55T ext. ref 1 (°C)	5.03T ext. ref 2 (°C)	31.02length (m)	temperature (°C)	Stokes	anti-Stokes-747.200	210.817	0.074	-0.119
-746.185	65.207	0.134	-0.138
-745.171	330.077	0.099	-0.195
-744.156	-200.000	0.041	0.194
-743.142	20.763	-0.210	-0.174
-742.127	-140.982	-0.121	0.013
-741.112	800.000	0.074	0.269
-740.098	99.120	-0.120	0.141
-739.083	45.117	-0.168	-0.158
-738.069	308.701	0.121	0.232
-737.054	800.000	-0.037	0.122
-736.039	216.392	-0.256	0.416
-735.025	58.294	0.194	0.194
-734.010	205.091	0.091	-0.145
-732.996	800.000	0.196	-0.567
-731.981	-29.048	-0.114	0.067
-730.966	-133.388	0.151	0.019
-729.952	800.000	-0.059	0.252
-728.937	-40.220	0.141	-0.075
-727.923	275.411	0.138	0.250
-726.908	-5.752	-0.254	-0.177
-725.894	-5.517	0.148	-0.103
-724.879	352.158	-0.036	-0.074
-723.864	-38.328	-0.229	-0.124
-722.850	-155.243	-0.210	-0.014
-721.835	-119.756	-0.238	-0.042
-720.821	-200.000	-0.035	-0.164
-719.806	800.000	-0.062	0.208
-718.791	283.256	0.173	0.317
-717.777	-53.394	-0.300	0.140
-716.762	206.363	-0.222	0.353
-715.748	64.468	0.032	0.033
-714.733	-127.761	-0.234	-0.034
-713.718	-98.452	0.243	-0.063
-712.704	525.355	-0.034	0.081
-711.689	262.089	0.045	-0.080
-710.675	212.062	0.114	0.184
-709.660	800.000	0.039	-0.146
-708.645	463.059	0.100	-0.228
-707.631	-200.000	-0.025	-0.241
-706.616	-97.904	-0.472	0.124
-705.602	-57.621	-0.233	0.104
-704.587	-110.140	-0.156	0.033
-703.572	132.297	-0.127	0.166
-702.558	-200.000	0.022	-0.138
-701.543	-154.367	-0.205	-0.014
-700.529	-44.513	-0.075	0.038
-699.514	-200.000	-0.001	-0.023
-698.499	800.000	-0.147	-0.553
-697.485	333.633	-0.059	-0.117
-696.470	103.983	0.067	-0.080
-695.456	52.034	-0.084	-0.081
-694.441	-38.238	-0.053	0.029
-693.426	-31.833	0.195	-0.112
-692.412	800.000	-0.082	-0.310
-691.397	-103.010	-0.165	0.040
-690.383	-83.645	0.371	0.121
-689.368	5.287	0.112	0.084
-688.354	-130.273	-0.213	-0.030
-687.339	-53.369	0.298	0.139
-686.324	-200.000	-0.026	0.325
-685.310	800.000	0.010	0.039
-684.295	-120.610	-0.455	0.079
-683.281	606.982	0.169	-0.431
-682.266	114.333	0.139	0.172
-681.251	66.986	-0.287	-0.298
-680.237	800.000	0.116	0.475
-679.222	-124.280	0.190	-0.030
-678.208	800.000	0.050	-0.145
-677.193	-10.234	0.153	0.104
-676.178	569.874	0.051	-0.127
-675.164	800.000	0.049	0.191
-674.149	-19.803	-0.403	-0.254
-673.135	-88.764	-0.439	-0.133
-672.120	194.938	0.167	-0.258
-671.105	-45.835	0.080	-0.040
-670.091	-180.737	-0.427	0.009
-669.076	4.458	-0.199	-0.148
-668.062	417.937	-0.171	-0.372
-667.047	-200.000	-0.017	0.181
-666.032	-200.000	-0.003	0.073
-665.018	-87.391	0.322	0.100
-664.003	20.653	-0.168	0.139
-662.989	-195.170	0.025	0.000
-661.974	800.000	-0.110	-0.338
-660.959	-120.708	-0.442	-0.076
-659.945	-123.059	-0.294	0.048
-658.930	141.886	0.095	0.129
-657.916	800.000	-0.048	0.180
-656.901	800.000	0.081	-0.301
-655.886	-200.000	-0.019	0.088
-654.872	-111.403	0.302	0.063
-653.857	-25.409	0.332	0.200
-652.843	-200.000	0.024	-0.148
-651.828	-136.844	0.223	0.026
-650.814	9.141	0.137	0.105
-649.799	-164.887	-0.270	-0.012
-648.784	-99.962	-0.173	-0.044
-647.770	-200.000	-0.015	0.272
-646.755	332.228	0.136	-0.267
-645.741	129.840	-0.057	-0.074
-644.726	472.896	-0.143	0.328
-643.711	-17.773	-0.223	-0.143
-642.697	-200.000	-0.015	-0.105
-641.682	800.000	-0.019	0.084
-640.668	-80.502	0.067	-0.023
-639.653	-3.534	0.271	0.192
-638.638	340.046	0.101	-0.200
-637.624	-200.000	-0.011	0.128
-636.609	-200.000	-0.019	-0.120
-635.595	-21.870	0.119	0.074
-634.580	-200.000	0.005	-0.187
-633.565	-130.072	-0.142	0.020
-632.551	140.074	-0.052	0.070
-631.536	-135.787	0.168	0.020
-630.522	-131.262	-0.460	-0.062
-629.507	-130.938	-0.205	-0.028
-628.492	-108.420	0.421	-0.092
-627.478	-23.272	-0.130	-0.080
-626.463	-19.582	-0.189	-0.119
-625.449	381.074	0.161	0.336
-624.434	176.475	-0.114	-0.168
-623.419	800.000	-0.031	-0.088
-622.405	-137.660	0.250	-0.029
-621.390	-159.565	-0.231	-0.013
-620.376	800.000	0.075	-0.260
-619.361	800.000	-0.066	-0.188
-618.346	31.777	-0.150	-0.131
-617.332	142.995	0.125	0.170
-616.317	-7.251	-0.162	-0.111
-615.303	-168.198	0.098	0.004
-614.288	67.377	0.196	0.204
-613.273	688.234	0.072	-0.191
-612.259	105.713	-0.194	-0.234
-611.244	31.540	-0.320	-0.280
-610.230	-200.000	0.121	-0.000
-609.215	-99.081	0.449	0.116
-608.201	-98.733	0.101	0.026
-607.186	-200.000	-0.019	-0.124
-606.171	10.039	-0.050	0.038
-605.157	-200.000	0.014	0.143
-604.142	-200.000	-0.007	0.053
-603.128	190.496	-0.111	0.169
-602.113	-41.402	0.316	0.165
-601.098	800.000	0.062	-0.176
-600.084	-97.384	0.417	-0.110
-599.069	-9.646	-0.194	-0.132
-598.055	-78.157	-0.204	0.071
-597.040	-65.614	-0.345	-0.140
-596.025	-160.734	-0.262	0.014
-595.011	-86.687	-0.324	0.101
-593.996	800.000	-0.126	0.362
-592.982	-61.542	0.157	0.067
-591.967	-36.289	0.206	-0.113
-590.952	-191.749	-0.369	0.004
-589.938	-153.006	0.280	0.020
-588.923	62.591	-0.142	0.144
-587.909	-200.000	0.029	-0.149
-586.894	489.859	-0.072	-0.166
-585.879	139.257	0.061	-0.081
-584.865	228.018	-0.055	-0.091
-583.850	-200.000	-0.030	0.180
-582.836	-3.941	-0.203	-0.143
-581.821	-200.000	0.023	-0.373
-580.806	66.958	-0.010	-0.011
-579.792	99.256	-0.202	-0.238
-578.777	-3.325	-0.093	0.066
-577.763	-99.886	-0.311	-0.079
-576.748	-182.257	0.367	0.007
-575.733	-143.965	0.184	0.018
-574.719	-36.980	-0.347	-0.189
-573.704	163.201	0.092	-0.131
-572.690	197.887	-0.131	0.204
-571.675	98.625	0.051	-0.060
-570.661	0.444	-0.057	-0.042
-569.646	-154.807	-0.355	-0.024
-568.631	-59.667	-0.508	-0.221
-567.617	179.567	0.051	-0.075
-566.602	29.229	0.300	0.258
-565.588	-162.810	0.107	-0.005
-564.573	800.000	-0.076	0.254
-563.558	442.281	0.066	-0.147
-562.544	-62.523	0.157	-0.066
-561.529	-200.000	-0.019	0.163
-560.515	-200.000	0.053	-0.256
-559.500	-200.000	0.031	0.232
-558.485	6.364	0.163	0.123
-557.471	-12.177	-0.198	0.131
-556.456	800.000	-0.075	0.215
-555.442	66.011	-0.092	-0.095
-554.427	-97.505	0.249	0.066
-553.412	-200.000	-0.022	-0.113
-552.398	197.348	0.037	-0.056
-551.383	-164.437	-0.592	-0.027
-550.369	-96.383	-0.335	-0.090
-549.354	-41.591	0.163	-0.085
-548.339	13.214	0.166	-0.131
-547.325	-200.000	-0.053	0.283
-546.310	800.000	-0.046	0.178
-545.296	732.480	0.030	0.081
-544.281	800.000	0.079	-0.336
-543.266	-141.000	-0.253	-0.026
-542.252	20.266	-0.052	-0.043
-541.237	-200.000	0.065	-0.388
-540.223	171.067	-0.106	-0.154
-539.208	22.785	0.286	0.238
-538.193	-200.000	-0.002	0.094
-537.179	-200.000	-0.023	0.121
-536.164	-54.755	0.322	0.147
-535.150	-72.762	0.200	-0.075
-534.135	20.886	0.257	-0.211
-533.121	213.667	-0.051	-0.081
-532.106	94.390	-0.080	0.092
-531.091	155.888	0.066	-0.092
-530.077	13.301	0.179	-0.140
-529.062	12.360	-0.075	-0.059
-528.048	-23.448	0.158	0.096
-527.033	114.299	0.300	-0.370
-526.018	-200.000	0.020	-0.128
-525.004	-10.758	-0.099	0.066
-523.989	-105.325	-0.231	-0.053
-522.975	57.491	-0.051	0.050
-521.960	-83.750	0.424	-0.137
-520.945	16.617	0.162	0.130
-519.931	-200.000	-0.015	0.241
-518.916	-101.039	-0.196	-0.049
-517.902	360.149	-0.053	0.107
-516.887	23.818	-0.218	0.182
-515.872	-200.000	0.038	0.204
-514.858	-147.221	0.219	0.019
-513.843	135.592	-0.271	-0.357
-512.829	-110.668	0.351	0.073
-511.814	-48.063	-0.206	0.101
-510.799	-8.326	-0.149	-0.101
-509.785	138.920	0.199	0.264
-508.770	-35.870	-0.233	0.128
-507.756	-143.632	0.428	0.041
-506.741	-108.711	-0.285	-0.062
-505.726	-95.082	-0.087	-0.024
-504.712	-200.000	0.033	0.148
-503.697	527.560	-0.103	-0.246
-502.683	228.451	-0.038	0.062
-501.668	-47.465	-0.372	-0.183
-500.653	-5.148	0.327	0.228
-499.639	96.732	0.148	0.171
-498.624	800.000	0.016	0.053
-497.610	800.000	-0.037	-0.131
-496.595	-58.416	-0.165	0.073
-495.581	-200.000	-0.024	0.268
-494.566	-200.000	0.032	0.310
-493.551	-33.818	0.255	-0.142
-492.537	439.821	-0.103	0.229
-491.522	133.416	-0.194	0.254
-490.508	-16.403	-0.108	-0.069
-489.493	361.549	0.146	-0.297
-488.478	209.226	-0.076	0.121
-487.464	15.047	-0.219	0.173
-486.449	-23.183	0.420	0.256
-485.435	-200.000	0.007	0.297
-484.420	-200.000	0.012	-0.194
-483.405	800.000	-0.007	0.023
-482.391	114.543	0.099	0.122
-481.376	21.408	0.201	-0.165
-480.362	182.515	-0.044	-0.065
-479.347	-1.055	0.354	0.253
-478.332	-91.725	-0.360	0.103
-477.318	-200.000	0.035	-0.348
-476.303	800.000	0.022	0.090
-475.289	800.000	0.046	0.152
-474.274	-200.000	0.010	0.197
-473.259	141.661	0.150	-0.201
-472.245	-108.901	-0.339	-0.073
-471.230	45.842	-0.238	-0.222
-470.216	119.107	-0.086	0.108
-469.201	-200.000	-0.030	0.268
-468.186	605.332	-0.112	-0.282
-467.172	-59.020	0.284	0.124
-466.157	-65.233	0.206	-0.084
-465.143	18.197	0.219	-0.177
-464.128	-154.222	0.240	0.016
-463.113	29.069	-0.187	-0.161
-462.099	-200.000	0.018	-0.145
-461.084	-4.156	-0.299	0.209
-460.070	196.312	-0.081	0.125
-459.055	-62.565	-0.341	0.143
-458.040	34.942	0.291	-0.257
-457.026	-25.774	0.291	-0.173
-456.011	11.527	0.198	0.154
-454.997	67.682	0.142	-0.147
-453.982	144.828	-0.160	-0.216
-452.968	-89.468	-0.090	-0.027
-451.953	-80.823	-0.024	0.008
-450.938	800.000	-0.036	0.142
-449.924	142.042	-0.036	0.048
-448.909	-0.849	0.113	-0.080
-447.895	-198.044	-0.315	-0.002
-446.880	-151.643	-0.093	0.007
-445.865	-59.007	-0.283	-0.123
-444.851	1.246	0.452	-0.327
-443.836	-141.151	-0.197	0.020
-442.822	800.000	-0.141	-0.438
-441.807	-131.203	0.284	0.038
-440.792	-200.000	-0.066	0.296
-439.778	-181.772	-0.063	0.001
-438.763	55.317	-0.131	0.128
-437.749	-119.404	0.301	-0.053
-436.734	-200.000	0.056	0.362
-435.719	-14.260	0.058	-0.038
-434.705	227.329	-0.072	-0.117
-433.690	161.028	-0.088	-0.124
-432.676	-98.392	-0.087	0.023
-431.661	-160.387	0.189	0.010
-430.646	39.280	-0.181	0.163
-429.632	-44.001	-0.330	0.167
-428.617	-75.333	-0.224	0.080
-427.603	-106.856	-0.215	0.048
-426.588	-190.719	-0.498	-0.005
-425.573	-76.339	-0.158	-0.056
-424.559	-200.000	-0.056	-0.284
-423.544	484.247	-0.083	-0.191
-422.530	-13.191	-0.040	-0.026
-421.515	-200.000	0.035	0.287
-420.500	41.058	0.119	-0.108
-419.486	-15.766	-0.122	-0.078
-418.471	-147.321	-0.221	0.019
-417.457	-67.717	-0.109	0.043
-416.442	-200.000	-0.002	0.087
-415.428	155.855	-0.135	0.187
-414.413	-50.718	-0.439	-0.208
-413.398	-200.000	0.021	-0.300
-412.384	106.393	-0.063	-0.076
-411.369	17.864	0.031	-0.025
-410.355	-200.000	0.031	-0.141
-409.340	800.000	0.052	-0.156
-408.325	-45.194	-0.410	-0.205
-407.311	-25.694	0.206	0.123
-406.296	295.730	0.202	-0.373
-405.282	-115.718	-0.170	0.032
-404.267	162.344	-0.052	0.073
-403.252	-42.369	0.265	0.136
-402.238	-76.556	-0.337	-0.119
-401.223	-43.693	0.151	-0.077
-400.209	-122.361	-0.371	0.061
-399.194	141.146	-0.126	-0.168
-398.179	422.135	0.096	0.207
-397.165	-200.000	0.011	0.349
-396.150	68.433	0.201	0.207
-395.136	-86.501	0.294	0.091
-394.121	-9.797	0.331	0.222
-393.106	720.929	-0.127	0.341
-392.092	209.027	0.113	0.178
-391.077	-200.000	-0.320	0.001
-390.063	-200.000	-0.034	0.265
-389.048	-32.738	0.257	0.144
-388.033	-200.000	0.013	0.166
-387.019	-71.995	0.307	-0.115
-386.004	47.688	-0.130	-0.122
-384.990	800.000	0.046	-0.196
-383.975	-93.216	0.409	0.114
-382.960	173.543	0.117	-0.170
-381.946	541.207	-0.133	0.320
-380.931	-70.578	0.038	-0.015
-379.917	724.957	-0.145	-0.389
-378.902	-47.449	0.126	-0.062
-377.888	-200.000	-0.014	-0.266
-376.873	321.434	-0.149	-0.285
-375.858	115.349	0.054	-0.066
-374.844	-200.000	0.008	0.133
-373.829	-128.639	-0.340	-0.048
-372.815	-29.807	0.178	-0.102
-371.800	-200.000	-0.018	0.126
-370.785	-136.400	0.037	0.004
-369.771	800.000	0.023	-0.064
-368.756	-162.837	0.188	0.009
-367.742	-52.451	0.199	-0.093
-366.727	21.029	-0.034	-0.028
-365.712	-73.969	0.119	-0.044
-364.698	34.766	-0.357	0.314
-363.683	80.440	-0.177	-0.192
-362.669	163.330	0.250	-0.354
-361.654	-200.000	0.021	0.406
-360.639	278.353	0.128	-0.229
-359.625	248.115	-0.207	-0.352
-358.610	248.286	0.125	0.213
-357.596	-170.839	-0.245	-0.008
-356.581	-200.000	0.002	-0.130
-355.566	47.830	-0.087	-0.082
-354.552	-59.863	0.158	0.068
-353.537	800.000	0.128	0.388
-352.523	-97.259	0.173	0.045
-351.508	-52.563	0.402	-0.187
-350.493	38.626	-0.192	0.172
-349.479	26.612	0.259	0.218
-348.464	-200.000	-0.020	-0.168
-347.450	412.113	0.083	-0.178
-346.435	-200.000	0.012	-0.100
-345.420	9.928	0.160	-0.122
-344.406	-38.231	0.210	0.112
-343.391	599.174	0.035	0.088
-342.377	-12.570	0.100	-0.065
-341.362	485.713	0.066	0.151
-340.348	436.850	-0.057	-0.124
-339.333	23.614	0.055	0.046
-338.318	-41.223	0.142	0.073
-337.304	-58.460	0.129	0.056
-336.289	115.330	-0.080	0.098
-335.275	211.719	0.280	-0.443
-334.260	-144.107	-0.330	-0.031
-333.245	42.404	-0.148	0.135
-332.231	-184.753	0.246	-0.004
-331.216	-200.000	0.014	0.391
-330.202	-200.000	0.059	-0.293
-329.187	-200.000	-0.018	-0.081
-328.172	105.064	0.196	0.232
-327.158	67.119	-0.153	0.157
-326.143	-104.574	0.216	0.050
-325.129	800.000	-0.089	-0.282
-324.114	-18.620	0.190	0.119
-323.099	428.938	-0.063	-0.136
-322.085	-19.025	-0.313	0.196
-321.070	-5.020	0.120	0.083
-320.056	-200.000	0.009	-0.156
-319.041	252.347	0.082	-0.141
-318.026	-200.000	0.031	0.253
-317.012	-200.000	0.015	-0.096
-315.997	3.478	0.053	-0.039
-314.983	-75.323	0.390	-0.140
-313.968	800.000	-0.085	0.252
-312.953	-200.000	0.007	0.037
-311.939	-142.205	-0.117	0.012
-310.924	-20.891	0.080	0.049
-309.910	237.767	-0.070	0.116
-308.895	215.448	0.021	0.034
-307.880	48.358	0.192	-0.180
-306.866	-200.000	-0.009	0.044
-305.851	-123.702	-0.353	0.056
-304.837	382.806	0.024	0.049
-303.822	445.033	-0.110	0.242
-302.807	-200.000	0.009	-0.134
-301.793	800.000	0.066	-0.262
-300.778	75.395	-0.120	0.127
-299.764	800.000	-0.063	-0.211
-298.749	-200.000	0.020	0.350
-297.735	-99.820	0.117	-0.029
-296.720	-198.366	-0.207	-0.001
-295.705	-51.778	0.141	-0.066
-294.691	17.413	0.165	0.132
-293.676	9.074	0.315	0.239
-292.662	658.655	0.084	0.216
-291.647	708.634	-0.023	0.061
-290.632	800.000	-0.102	-0.348
-289.618	-142.702	-0.175	-0.017
-288.603	238.033	0.074	0.124
-287.589	287.951	-0.068	0.124
-286.574	-95.036	-0.128	0.035
-285.559	-52.586	0.216	0.100
-284.545	-35.060	-0.128	-0.070
-283.530	-52.459	-0.372	0.173
-282.516	-18.484	0.244	0.153
-281.501	-70.791	0.202	-0.077
-280.486	-15.856	0.232	-0.148
-279.472	-30.891	-0.012	0.007
-278.457	-25.093	-0.080	0.048
-277.443	-200.000	0.010	-0.051
-276.428	190.360	0.082	-0.123
-275.413	800.000	-0.047	0.132
-274.399	153.312	-0.071	-0.097
-273.384	-91.600	0.082	0.023
-272.370	166.068	0.182	-0.258
-271.355	18.711	-0.124	0.100
-270.340	-162.263	0.187	-0.009
-269.326	-101.044	0.178	0.044
-268.311	183.199	0.062	0.092
-267.297	63.915	0.078	0.079
-266.282	-155.175	-0.138	-0.009
-265.267	-200.000	-0.022	-0.329
-264.253	787.085	0.105	0.290
-263.238	73.265	-0.117	0.123
-262.224	800.000	0.020	-0.080
-261.209	22.876	0.096	-0.079
-260.195	-59.102	0.170	0.074
-259.180	-71.518	-0.174	0.065
-258.165	357.358	-0.074	-0.148
-257.151	800.000	0.080	-0.294
-256.136	71.752	-0.104	-0.108
-255.122	-144.302	0.323	0.030
-254.107	87.688	-0.126	0.139
-253.092	256.720	-0.198	0.340
-252.078	-200.000	-0.028	0.307
-251.063	-38.732	0.169	-0.089
-250.049	252.351	-0.217	-0.371
-249.034	-200.000	-0.010	-0.193
-248.019	3.003	0.117	-0.085
-247.005	157.619	0.043	0.059
-245.990	-200.000	0.037	0.359
-244.976	-103.287	0.300	0.071
-243.961	87.018	-0.278	0.308
-242.946	800.000	-0.028	-0.102
-241.932	129.171	0.334	-0.426
-240.917	800.000	-0.071	-0.229
-239.903	540.557	-0.030	0.072
-238.888	52.232	0.210	0.201
-237.873	-142.909	-0.473	0.046
-236.859	-137.771	0.265	-0.030
-235.844	-106.523	-0.108	-0.024
-234.830	192.504	-0.101	0.153
-233.815	-133.229	-0.148	-0.019
-232.800	-200.000	0.046	0.406
-231.786	-200.000	-0.017	0.177
-230.771	602.302	-0.114	0.283
-229.757	166.873	-0.101	-0.143
-228.742	-45.452	-0.263	0.130
-227.727	-200.000	0.006	0.324
-226.713	62.704	0.314	0.314
-225.698	-200.000	0.051	-0.278
-224.684	211.387	0.160	-0.252
-223.669	-80.904	-0.197	-0.066
-222.655	-78.515	-0.175	0.060
-221.640	31.208	0.176	0.151
-220.625	63.991	0.129	-0.130
-219.611	-142.368	-0.072	0.007
-218.596	-200.000	0.006	0.376
-217.582	-45.325	0.339	0.168
-216.567	36.454	-0.100	-0.088
-215.552	-40.008	0.009	0.005
-214.538	-12.566	-0.262	-0.171
-213.523	800.000	0.070	-0.270
-212.509	-52.768	-0.273	-0.126
-211.494	-200.000	0.032	-0.163
-210.479	-45.763	-0.416	0.205
-209.465	301.265	0.140	0.258
-208.450	-89.062	0.149	0.044
-207.436	34.794	-0.135	-0.118
-206.421	-25.358	0.120	0.071
-205.406	422.741	-0.014	-0.029
-204.392	-98.300	0.106	-0.027
-203.377	-97.378	0.532	0.138
-202.363	185.445	-0.251	-0.373
-201.348	-7.644	-0.017	0.012
-200.333	143.053	0.220	0.293
-199.319	452.499	-0.077	0.170
-198.304	81.776	0.075	-0.081
-197.290	-42.167	-0.266	-0.136
-196.275	155.079	0.165	0.227
-195.260	-6.779	0.302	-0.205
-194.246	-175.338	0.223	0.006
-193.231	-200.000	0.014	0.367
-192.217	-200.000	0.027	-0.151
-191.202	-50.456	-0.128	-0.060
-190.187	16.200	-0.089	-0.070
-189.173	800.000	-0.076	-0.327
-188.158	-200.000	0.036	0.216
-187.144	800.000	0.085	-0.234
-186.129	48.862	0.185	-0.173
-185.114	-200.000	0.002	0.087
-184.100	-23.422	-0.217	-0.131
-183.085	62.420	0.103	0.103
-182.071	71.158	-0.096	0.099
-181.056	800.000	-0.060	0.219
-180.042	117.418	-0.145	0.179
-179.027	-167.277	-0.070	-0.003
-178.012	800.000	-0.060	-0.261
-176.998	396.515	0.020	-0.041
-175.983	301.527	0.301	-0.556
-174.969	-103.518	0.126	0.030
-173.954	40.898	-0.169	-0.152
-172.939	-123.222	0.360	0.058
-171.925	-80.264	-0.371	0.124
-170.910	158.019	0.235	0.325
-169.896	62.529	-0.242	-0.242
-168.881	-7.624	0.124	-0.084
-167.866	-91.274	-0.027	0.008
-166.852	-3.632	0.230	0.160
-165.837	-51.600	0.147	0.069
-164.823	-82.824	0.304	0.098
-163.808	189.307	-0.146	0.219
-162.793	-41.710	0.038	0.020
-161.779	-19.140	-0.217	0.135
-160.764	464.403	0.130	-0.290
-159.750	-200.000	0.004	0.083
-158.735	-200.000	-0.001	0.181
-157.720	484.068	-0.023	-0.053
-156.706	-200.000	-0.042	-0.206
-155.691	-200.000	-0.044	-0.197
-154.677	-123.989	-0.217	-0.034
-153.662	68.700	-0.120	-0.123
-152.647	800.000	0.040	-0.122
-151.633	15.461	-0.057	0.044
-150.618	-55.374	0.054	-0.024
-149.604	-200.000	-0.051	-0.242
-148.589	-62.129	0.262	0.109
-147.574	169.612	-0.255	-0.363
-146.560	-68.180	-0.365	-0.142
-145.545	-200.000	0.021	-0.123
-144.531	-200.000	0.017	-0.164
-143.516	-200.000	-0.024	-0.163
-142.502	-45.832	0.360	-0.177
-141.487	4.239	-0.257	0.188
-140.472	150.466	0.221	0.300
-139.458	-95.979	-0.085	-0.023
-138.443	-36.493	0.276	-0.148
-137.429	-44.763	-0.436	0.217
-136.414	-119.093	-0.183	-0.032
-135.399	-200.000	-0.035	0.304
-134.385	71.657	0.239	-0.248
-133.370	523.766	-0.020	0.046
-132.356	6.937	-0.086	-0.064
-131.341	83.207	-0.069	-0.075
-130.326	-48.495	0.193	-0.093
-129.312	45.528	0.162	-0.149
-128.297	-49.214	-0.148	0.071
-127.283	800.000	-0.152	0.511
-126.268	519.047	0.092	0.215
-125.253	-200.000	0.009	-0.328
-124.239	-110.385	-0.243	0.050
-123.224	-81.728	-0.170	-0.056
-122.210	-194.412	0.425	0.003
-121.195	-191.985	-0.219	0.002
-120.180	324.790	-0.060	0.115
-119.166	75.173	-0.234	0.246
-118.151	65.856	-0.115	0.116
-117.137	-70.472	-0.282	0.106
-116.122	-180.588	0.238	0.005
-115.107	-200.000	0.021	0.192
-114.093	-60.099	-0.340	-0.145
-113.078	310.692	-0.041	0.076
-112.064	234.688	-0.244	-0.400
-111.049	777.125	0.063	0.172
-110.034	126.798	-0.187	0.236
-109.020	800.000	-0.049	0.170
-108.005	-200.000	-0.057	0.388
-106.991	291.049	0.135	0.244
-105.976	593.157	-0.071	-0.176
-104.962	800.000	0.043	-0.135
-103.947	800.000	-0.040	-0.113
-102.932	473.269	-0.043	-0.096
-101.918	225.447	-0.094	0.151
-100.903	211.296	0.126	-0.197
-99.889	-51.665	0.251	-0.116
-98.874	598.982	-0.076	-0.189
-97.859	31.819	-0.386	-0.331
-96.845	-128.774	-0.296	-0.042
-95.830	-111.723	0.256	0.052
-94.816	4.459	0.190	0.138
-93.801	236.319	0.078	-0.129
-92.786	32.213	0.279	-0.240
-91.772	800.000	0.060	0.214
-90.757	282.355	-0.123	-0.220
-89.743	570.703	-0.036	-0.088
-88.728	20.251	0.200	0.161
-87.713	-51.434	0.200	0.093
-86.699	800.000	0.116	-0.389
-85.684	488.084	0.085	-0.193
-84.670	197.108	-0.119	0.181
-83.655	-121.647	0.178	0.029
-82.640	187.412	0.162	0.241
-81.626	102.457	-0.111	0.129
-80.611	-61.534	-0.044	0.018
-79.597	-21.276	-0.066	-0.040
-78.582	-14.307	-0.151	0.097
-77.567	-72.664	-0.233	0.086
-76.553	141.810	-0.208	0.275
-75.538	-200.000	-0.002	0.033
-74.524	-66.673	-0.038	0.015
-73.509	-200.000	0.037	-0.181
-72.494	-39.260	0.126	-0.066
-71.480	150.567	0.131	0.178
-70.465	18.035	0.294	0.234
-69.451	800.000	-0.098	0.303
-68.436	-200.000	-0.024	0.202
-67.422	-12.464	-0.415	-0.269
-66.407	-200.000	0.014	-0.112
-65.392	670.287	0.152	-0.391
-64.378	-131.180	0.160	-0.021
-63.363	-61.368	0.214	0.090
-62.349	-1.338	0.262	0.184
-61.334	88.695	-0.766	-0.847
-60.319	311.359	0.161	0.300
-59.305	-200.000	0.118	-1.196
-58.290	526.815	0.460	1.077
-57.276	420.628	0.775	1.651
-56.261	-200.000	95.683	559.866
-55.246	624.453	1383.373	3467.761
-54.232	184.665	2603.431	3837.099
-53.217	111.369	2339.355	2804.187
-52.203	41.172	2086.697	1874.937
-51.188	36.274	1999.620	1752.291
-50.173	34.637	1981.314	1721.432
-49.159	48.695	2031.715	1893.936
-48.144	51.435	2051.669	1937.513
-47.130	36.966	2009.473	1766.959
-46.115	34.574	1997.778	1734.891
-45.100	34.510	1994.533	1731.417
-44.086	34.521	1992.132	1729.367
-43.071	34.372	1989.758	1725.892
-42.057	34.461	1987.124	1724.338
-41.042	34.422	1985.569	1722.568
-40.027	34.420	1983.974	1721.096
-39.013	34.532	1981.052	1719.505
-37.998	34.439	1979.639	1717.378
-36.984	34.479	1978.244	1716.452
-35.969	34.423	1975.809	1713.772
-34.954	34.491	1973.955	1712.709
-33.940	34.509	1972.540	1711.574
-32.925	34.603	1970.734	1710.783
-31.911	34.514	1969.370	1708.730
-30.896	34.514	1967.687	1707.200
-29.881	34.565	1965.917	1706.052
-28.867	34.629	1964.439	1705.275
-27.852	34.617	1962.459	1703.379
-26.838	34.653	1960.397	1701.846
-25.823	34.583	1959.306	1700.205
-24.809	34.510	1957.245	1697.703
-23.794	34.560	1955.416	1696.489
-22.779	34.529	1954.053	1694.972
-21.765	34.511	1952.296	1693.213
-20.750	34.515	1950.524	1691.648
-19.736	34.559	1949.287	1690.900
-18.721	34.561	1948.117	1689.837
-17.706	34.535	1946.354	1688.009
-16.692	34.525	1944.111	1685.907
-15.677	34.558	1942.816	1685.012
-14.663	34.605	1941.013	1683.789
-13.648	34.604	1939.807	1682.671
-12.633	34.619	1938.579	1681.670
-11.619	34.564	1937.162	1679.891
-10.604	34.542	1935.887	1678.526
-9.590	34.629	1934.373	1677.915
-8.575	34.555	1933.467	1676.408
-7.560	34.580	1931.392	1674.760
-6.546	34.667	1930.213	1674.435
-5.531	34.558	1929.663	1672.939
-4.517	34.503	1928.561	1671.433
-3.502	34.519	1927.499	1670.588
-2.487	34.608	1925.960	1669.966
-1.473	34.568	1925.104	1668.809
-0.458	34.654	1920.431	1665.439
0.556	33.761	1901.609	1641.308
1.571	29.970	1882.881	1592.469
2.586	25.897	1905.371	1575.817
3.600	24.722	1940.763	1594.479
4.615	24.027	1936.506	1584.658
5.629	18.800	1834.777	1457.056
6.644	9.857	1715.134	1290.707
7.659	5.475	1678.041	1228.340
8.673	5.092	1674.120	1222.356
9.688	5.029	1672.830	1220.815
10.702	5.030	1671.513	1219.750
11.717	4.960	1668.221	1216.695
12.731	5.425	1668.295	1220.269
13.746	11.467	1682.538	1278.005
14.761	18.382	1696.727	1343.075
15.775	19.491	1696.400	1351.390
16.790	18.117	1692.664	1337.547
17.804	17.061	1688.759	1326.099
18.819	16.040	1685.505	1315.467
19.834	15.418	1682.715	1308.325
20.848	15.091	1681.643	1304.826
21.863	14.850	1679.701	1301.329
22.877	14.613	1678.368	1298.332
23.892	14.423	1677.063	1295.731
24.907	14.287	1676.062	1293.787
25.921	14.278	1675.024	1292.802
26.936	14.338	1673.669	1292.108
27.950	14.308	1673.019	1291.263
28.965	14.357	1672.721	1291.299
29.980	14.404	1672.071	1291.047
30.994	14.407	1670.920	1290.065
32.009	14.530	1669.656	1289.922
33.023	14.546	1669.374	1289.718
34.038	14.579	1667.941	1288.753
35.053	14.525	1666.479	1287.091
36.067	14.465	1665.172	1285.501
37.082	14.357	1664.383	1283.946
38.096	14.467	1663.072	1283.672
39.111	14.443	1662.540	1282.960
40.126	14.482	1661.755	1282.542
41.140	14.441	1660.809	1281.384
42.155	14.463	1658.557	1279.703
43.169	14.294	1657.820	1277.720
44.184	14.328	1656.629	1276.953
45.199	14.185	1655.921	1275.197
46.213	14.217	1654.287	1274.072
47.228	14.314	1652.866	1273.608
48.242	14.323	1651.627	1272.607
49.257	14.378	1650.778	1272.258
50.271	14.397	1649.541	1271.342
51.286	14.451	1648.105	1270.535
52.301	14.313	1647.363	1268.795
53.315	14.387	1645.661	1267.941
54.330	14.429	1643.845	1266.749
55.344	14.296	1642.537	1264.615
56.359	14.279	1640.870	1263.088
57.374	14.298	1639.833	1262.326
58.388	14.272	1639.139	1261.480
59.403	14.271	1637.221	1259.889
60.417	14.214	1636.029	1258.424
61.432	14.143	1635.363	1257.266
62.447	14.224	1633.857	1256.606
63.461	14.135	1632.876	1255.070
64.476	14.133	1631.552	1253.931
65.490	14.098	1630.380	1252.651
66.505	14.108	1629.345	1251.824
67.520	14.150	1628.357	1251.269
68.534	14.153	1627.492	1250.517
69.549	14.240	1626.626	1250.389
70.563	14.161	1625.020	1248.455
71.578	14.194	1623.577	1247.484
72.593	14.116	1623.155	1246.462
73.607	14.144	1621.703	1245.447
74.622	14.047	1620.508	1243.695
75.636	14.032	1619.613	1242.788
76.651	14.023	1618.844	1242.019
77.666	14.139	1617.640	1241.854
78.680	14.163	1616.757	1241.244
79.695	14.031	1616.946	1240.292
80.709	14.148	1615.329	1239.813
81.724	14.082	1615.147	1239.076
82.739	14.238	1614.333	1239.499
83.753	14.198	1613.152	1238.186
84.768	14.324	1611.856	1238.020
85.782	14.351	1611.949	1238.183
86.797	14.365	1610.635	1237.169
87.812	14.467	1609.549	1236.978
88.826	14.373	1608.693	1235.513
89.841	14.347	1607.236	1234.095
90.855	14.350	1606.376	1233.346
91.870	14.410	1605.547	1233.043
92.884	14.436	1604.801	1232.555
93.899	14.498	1603.530	1231.926
94.914	14.496	1602.051	1230.665
95.928	14.584	1600.576	1230.073
96.943	14.504	1599.998	1228.930
97.957	14.477	1598.528	1227.496
98.972	14.546	1596.641	1226.446
99.987	14.456	1595.121	1224.512
101.001	14.513	1593.195	1223.343
102.016	14.517	1591.481	1221.948
103.030	14.370	1590.870	1220.290
104.045	14.467	1589.855	1220.116
105.060	14.507	1587.956	1218.839
106.074	14.501	1586.914	1217.887
107.089	14.383	1584.732	1215.249
108.103	14.231	1583.562	1213.136
109.118	14.166	1582.119	1211.451
110.133	14.167	1580.907	1210.421
111.147	14.158	1579.666	1209.296
112.162	14.112	1578.302	1207.811
113.176	14.126	1577.074	1206.872
114.191	14.298	1575.178	1206.556
115.206	14.282	1574.272	1205.642
116.220	14.254	1573.205	1204.517
117.235	14.270	1571.497	1203.212
118.249	14.179	1570.305	1201.536
119.264	14.268	1568.830	1200.949
120.279	14.288	1567.925	1200.293
121.293	14.198	1566.119	1198.154
122.308	14.177	1564.420	1196.594
123.322	14.207	1563.003	1195.625
124.337	14.114	1562.104	1194.159
125.352	14.142	1560.602	1193.109
126.366	14.143	1559.464	1192.138
127.381	14.049	1558.063	1190.294
128.395	14.118	1557.131	1189.971
129.410	14.180	1555.680	1189.197
130.424	14.193	1554.368	1188.179
131.439	14.224	1552.736	1187.049
132.454	14.234	1551.834	1186.330
133.468	14.223	1550.354	1185.011
134.483	14.357	1548.867	1184.726
135.497	14.285	1547.842	1183.323
136.512	14.295	1546.273	1182.094
137.527	14.333	1544.901	1181.208
138.541	14.300	1543.529	1179.819
139.556	14.379	1542.126	1179.199
140.570	14.360	1540.819	1177.964
141.585	14.426	1539.424	1177.255
142.600	14.495	1538.300	1176.778
143.614	14.525	1536.830	1175.766
144.629	14.571	1535.767	1175.172
145.643	14.566	1534.993	1174.437
146.658	14.621	1533.083	1173.259
147.673	14.603	1531.079	1171.500
148.687	14.495	1530.264	1170.014
149.702	14.498	1528.873	1168.867
150.716	14.432	1526.944	1166.824
151.731	14.374	1525.850	1165.483
152.746	14.444	1524.327	1164.702
153.760	14.509	1522.636	1163.764
154.775	14.456	1521.934	1162.751
155.789	14.622	1520.254	1162.525
156.804	14.599	1519.357	1161.572
157.819	14.581	1518.201	1160.461
158.833	14.671	1516.919	1160.003
159.848	14.631	1515.661	1158.663
160.862	14.690	1514.399	1158.008
161.877	14.666	1513.334	1156.925
162.892	14.628	1512.357	1155.808
163.906	14.634	1510.852	1154.599
164.921	14.589	1509.296	1152.999
165.935	14.512	1508.735	1151.938
166.950	14.475	1508.026	1151.032
167.964	14.530	1506.398	1150.070
168.979	14.568	1505.409	1149.473
169.994	14.590	1504.227	1148.621
171.008	14.588	1503.451	1147.918
172.023	14.606	1502.361	1147.105
173.037	14.673	1501.118	1146.516
174.052	14.662	1500.270	1145.690
175.067	14.736	1499.501	1145.506
176.081	14.717	1497.681	1143.887
177.096	14.669	1496.276	1142.385
178.110	14.610	1494.751	1140.712
179.125	14.564	1494.094	1139.797
180.140	14.590	1493.077	1139.098
181.154	14.696	1492.296	1139.125
182.169	14.787	1490.583	1138.338
183.183	14.786	1489.311	1137.261
184.198	14.781	1488.498	1136.502
185.213	14.816	1487.772	1136.084
186.227	14.798	1486.594	1134.962
187.242	14.932	1485.591	1135.007
188.256	14.973	1484.231	1134.147
189.271	14.965	1483.134	1133.150
190.286	15.073	1481.879	1132.822
191.300	15.020	1481.458	1132.045
192.315	14.793	1480.079	1129.358
193.329	14.666	1478.470	1127.173
194.344	14.673	1477.174	1126.132
195.359	14.635	1476.504	1125.266
196.373	14.786	1475.067	1125.089
197.388	14.785	1474.718	1124.716
198.402	14.935	1473.260	1124.511
199.417	15.019	1472.274	1124.223
200.432	15.029	1471.414	1123.537
201.446	15.200	1470.427	1123.826
202.461	15.181	1469.418	1122.827
203.475	15.126	1468.588	1121.729
204.490	15.207	1467.396	1121.262
205.504	15.193	1466.173	1120.134
206.519	15.050	1465.166	1118.308
207.534	15.025	1463.474	1116.755
208.548	15.137	1462.508	1116.661
209.563	15.072	1461.514	1115.374
210.577	15.132	1460.482	1114.888
211.592	15.083	1459.565	1113.759
212.607	15.125	1458.833	1113.386
213.621	15.217	1458.296	1113.484
214.636	15.236	1457.401	1112.831
215.650	15.206	1455.787	1111.303
216.665	15.217	1455.362	1110.950
217.680	15.226	1454.758	1110.451
218.694	15.309	1453.945	1110.280
219.709	15.388	1452.699	1109.754
220.723	15.382	1452.085	1109.148
221.738	15.390	1450.984	1108.262
222.753	15.334	1450.387	1107.336
223.767	15.281	1449.081	1105.891
224.782	15.429	1447.872	1105.845
225.796	15.305	1447.750	1104.839
226.811	15.503	1446.311	1104.948
227.826	15.517	1445.894	1104.622
228.840	15.500	1444.273	1103.177
229.855	15.458	1443.298	1102.057
230.869	15.418	1442.418	1101.023
231.884	15.409	1441.545	1100.205
232.899	15.471	1440.170	1099.459
233.913	15.420	1439.381	1098.426
234.928	15.359	1437.731	1096.670
235.942	15.296	1436.851	1095.495
236.957	15.311	1435.531	1094.485
237.972	15.347	1434.214	1093.621
238.986	15.337	1433.421	1092.854
240.001	15.261	1432.671	1091.690
241.015	15.376	1431.516	1091.462
242.030	15.492	1430.091	1091.035
243.045	15.448	1429.473	1090.182
244.059	15.486	1428.426	1089.534
245.074	15.491	1427.794	1088.984
246.088	15.527	1427.084	1088.579
247.103	15.596	1425.938	1088.057
248.117	15.577	1425.546	1087.540
249.132	15.662	1424.587	1087.259
250.147	15.809	1424.282	1087.882
251.161	15.784	1423.221	1086.817
252.176	15.866	1422.660	1086.818
253.190	15.968	1422.069	1086.932
254.205	15.958	1421.727	1086.508
255.220	15.963	1420.532	1085.533
256.234	15.946	1419.723	1084.703
257.249	16.035	1418.851	1084.514
258.263	16.075	1417.673	1083.781
259.278	15.965	1417.011	1082.468
260.293	16.051	1416.070	1082.208
261.307	16.074	1415.204	1081.593
262.322	16.184	1414.062	1081.332
263.336	16.075	1413.840	1080.369
264.351	16.192	1412.642	1080.105
265.366	16.161	1411.752	1079.135
266.380	16.121	1410.645	1077.938
267.395	16.263	1409.563	1077.918
268.409	16.174	1409.228	1076.997
269.424	16.186	1408.046	1076.075
270.439	16.101	1407.083	1074.705
271.453	16.176	1406.021	1074.274
272.468	16.118	1405.164	1073.155
273.482	16.076	1404.393	1072.206
274.497	16.094	1403.517	1071.556
275.512	16.102	1402.662	1070.859
276.526	16.227	1401.446	1070.630
277.541	16.106	1400.823	1069.294
278.555	16.127	1400.299	1068.933
279.570	16.212	1399.027	1068.402
280.585	16.315	1397.810	1068.029
281.599	16.337	1397.123	1067.554
282.614	16.256	1396.639	1066.575
283.628	16.281	1395.418	1065.707
284.643	16.359	1393.849	1064.907
285.657	16.307	1392.739	1063.632
286.672	16.288	1392.050	1062.897
287.687	16.361	1391.137	1062.563
288.701	16.328	1390.206	1061.550
289.716	16.368	1389.987	1061.538
290.730	16.321	1388.973	1060.376
291.745	16.262	1387.871	1059.071
292.760	16.340	1386.654	1058.539
293.774	16.396	1385.642	1058.024
294.789	16.325	1384.927	1056.942
295.803	16.426	1384.150	1056.888
296.818	16.448	1383.323	1056.298
297.833	16.450	1382.137	1055.308
298.847	16.459	1381.278	1054.619
299.862	16.424	1380.143	1053.441
300.876	16.436	1379.077	1052.609
301.891	16.445	1378.488	1052.118
302.906	16.537	1377.624	1051.941
303.920	16.563	1376.756	1051.347
304.935	16.699	1375.902	1051.448
305.949	16.648	1375.406	1050.655
306.964	16.768	1374.940	1050.953
307.979	16.755	1373.740	1049.862
308.993	16.738	1373.073	1049.155
310.008	16.693	1371.785	1047.799
311.022	16.781	1370.844	1047.532
312.037	16.755	1370.003	1046.635
313.052	16.797	1368.733	1045.831
314.066	16.699	1367.798	1044.420
315.081	16.767	1366.515	1043.768
316.095	16.638	1365.582	1042.169
317.110	16.463	1364.670	1040.300
318.125	16.650	1363.946	1040.808
319.139	16.645	1363.275	1040.177
320.154	16.671	1361.988	1039.259
321.168	16.628	1361.015	1038.162
322.183	16.697	1360.115	1037.806
323.197	16.722	1358.805	1036.868
324.212	16.784	1357.688	1036.301
325.227	16.722	1357.465	1035.661
326.241	16.701	1356.734	1034.885
327.256	16.766	1355.531	1034.273
328.270	16.798	1354.292	1033.433
329.285	16.802	1353.670	1032.885
330.300	16.815	1352.791	1032.207
331.314	16.803	1351.861	1031.330
332.329	16.821	1350.909	1030.624
333.343	16.841	1350.369	1030.241
334.358	16.885	1349.306	1029.608
335.373	16.964	1348.289	1029.217
336.387	16.959	1347.808	1028.733
337.402	16.983	1347.101	1028.248
338.416	16.900	1346.648	1027.303
339.431	16.946	1345.765	1026.818
340.446	17.020	1344.835	1026.468
341.460	17.048	1344.099	1025.986
342.475	17.020	1343.182	1025.021
343.489	17.150	1342.258	1025.011
344.504	17.165	1341.774	1024.642
345.519	17.220	1340.650	1024.023
346.533	17.359	1339.236	1023.688
347.548	17.286	1338.638	1022.705
348.562	17.418	1337.678	1022.673
349.577	17.407	1336.545	1021.652
350.592	17.282	1336.395	1020.693
351.606	17.191	1335.036	1019.020
352.621	17.268	1333.660	1018.341
353.635	17.126	1333.239	1017.079
354.650	17.177	1332.052	1016.388
355.665	17.212	1331.135	1015.812
356.679	17.198	1330.135	1014.874
357.694	17.232	1329.058	1014.166
358.708	17.235	1327.756	1013.097
359.723	17.379	1326.787	1013.130
360.738	17.338	1325.952	1012.156
361.752	17.325	1325.029	1011.283
362.767	17.398	1323.469	1010.442
363.781	17.262	1323.430	1009.513
364.796	17.361	1322.256	1009.115
365.810	17.416	1321.425	1008.717
366.825	17.398	1320.856	1008.088
367.840	17.502	1320.489	1008.331
368.854	17.573	1319.350	1007.794
369.869	17.454	1319.350	1007.000
370.883	17.716	1317.993	1007.423
371.898	17.701	1317.313	1006.727
372.913	17.643	1316.688	1005.821
373.927	17.567	1315.780	1004.588
374.942	17.595	1314.659	1003.808
375.956	17.621	1314.136	1003.475
376.971	17.704	1313.353	1003.272
377.986	17.688	1312.512	1002.447
379.000	17.628	1311.800	1001.464
380.015	17.639	1311.152	1000.946
381.029	17.726	1310.102	1000.566
382.044	17.796	1309.536	1000.456
383.059	17.767	1308.968	999.763
384.073	17.836	1307.805	999.187
385.088	17.803	1307.654	998.796
386.102	17.800	1307.149	998.301
387.117	17.910	1305.991	997.971
388.132	17.941	1305.182	997.447
389.146	17.903	1304.187	996.373
390.161	17.885	1303.257	995.473
391.175	17.830	1302.793	994.708
392.190	17.824	1302.197	994.132
393.205	17.810	1301.036	993.075
394.219	17.951	1299.636	992.738
395.234	17.962	1298.901	992.154
396.248	17.976	1297.448	991.036
397.263	17.992	1295.721	989.723
398.278	17.882	1294.704	988.220
399.292	17.870	1293.772	987.356
400.307	17.804	1293.042	986.328
401.321	17.810	1291.613	985.184
402.336	17.765	1290.845	984.254
403.350	17.834	1289.617	983.624
404.365	17.798	1288.489	982.474
405.380	17.870	1287.991	982.422
406.394	17.841	1287.093	981.482
407.409	17.953	1286.292	981.426
408.423	17.969	1285.458	980.795
409.438	18.119	1284.975	981.204
410.453	18.081	1284.533	980.557
411.467	18.155	1283.830	980.361
412.482	18.178	1283.075	979.828
413.496	18.201	1282.632	979.533
414.511	18.248	1281.740	979.038
415.526	18.312	1280.975	978.733
416.540	18.274	1280.280	977.895
417.555	18.367	1279.423	977.686
418.569	18.306	1279.068	976.979
419.584	18.287	1279.045	976.765
420.599	18.336	1278.067	976.212
421.613	137.355	1430.288	1789.508
422.628	132.245	1452.487	1789.644
