DTS Sentinel unit serial number:	SN413079Multiplexer serial number:	ORYXHardware model number:	OX4-SRSoftware version number:	ORYX F/W v4.00 Oryx Data Collector v3.7.2.0data status	okinstallation	princeton_trtdifferential loss correction	single-endedforward channel	channel 4reverse channel	N/Adate	2019/09/16time	03:41:34forward acquisition time	60.00reverse acquisition time	0.00gamma	496.2192k internal	0.2320k external	0.2320temperature offset calibration	0.9979default loss term (dB/km)	0.3790temperature slope calibration	1.0000multiplexer offset coefficient	1.0000multiplexer slope coefficient	1.0000fibre end	0.00T internal ref (°C)	27.56T ext. ref 1 (°C)	10.62T ext. ref 2 (°C)	21.75length (m)	temperature (°C)	Stokes	anti-Stokes-747.200	40.753	0.133	0.121
-746.185	383.202	0.091	0.190
-745.171	242.700	0.189	0.320
-744.156	800.000	-0.084	0.323
-743.142	-135.789	-0.151	0.018
-742.127	-19.954	-0.224	0.140
-741.112	-26.160	-0.251	-0.149
-740.098	-1.823	0.127	-0.090
-739.083	-50.113	0.103	0.049
-738.069	-200.000	-0.027	0.150
-737.054	595.244	-0.105	-0.263
-736.039	-57.386	-0.378	-0.168
-735.025	800.000	-0.016	0.059
-734.010	193.485	-0.167	0.255
-732.996	-36.251	-0.238	-0.130
-731.981	-0.956	0.267	-0.191
-730.966	235.990	-0.053	-0.088
-729.952	-113.014	-0.236	0.047
-728.937	179.100	0.093	-0.138
-727.923	44.481	0.158	-0.147
-726.908	-200.000	-0.023	-0.223
-725.894	46.570	0.227	-0.213
-724.879	170.229	0.173	0.250
-723.864	612.366	-0.183	0.462
-722.850	319.174	0.087	0.166
-721.835	-136.017	-0.174	0.021
-720.821	90.997	-0.133	-0.151
-719.806	-47.351	-0.230	-0.113
-718.791	131.811	-0.184	-0.240
-717.777	-16.340	-0.194	0.125
-716.762	-116.927	-0.175	-0.032
-715.748	278.517	-0.111	-0.200
-714.733	506.758	0.104	0.244
-713.718	227.688	-0.196	0.322
-712.704	-30.538	0.205	-0.117
-711.689	-46.853	-0.073	0.036
-710.675	-70.232	-0.111	0.043
-709.660	-42.777	0.122	-0.063
-708.645	-200.000	0.079	-0.418
-707.631	439.652	-0.071	0.157
-706.616	-36.882	0.382	0.207
-705.602	65.009	-0.208	-0.212
-704.587	-129.908	-0.185	-0.026
-703.572	800.000	-0.024	0.103
-702.558	1.429	0.051	0.037
-701.543	800.000	0.050	-0.216
-700.529	-9.646	0.277	0.187
-699.514	-114.131	0.143	-0.028
-698.499	-131.422	0.152	0.020
-697.485	12.142	-0.256	0.199
-696.470	-41.081	-0.217	-0.113
-695.456	154.891	-0.164	0.227
-694.441	-10.859	-0.142	0.095
-693.426	-200.000	0.011	-0.250
-692.412	-200.000	0.010	0.143
-691.397	383.896	0.193	0.402
-690.383	40.663	-0.226	-0.206
-689.368	189.282	0.142	-0.214
-688.354	516.344	-0.067	-0.157
-687.339	445.802	-0.097	-0.214
-686.324	-184.570	0.150	0.002
-685.310	-200.000	0.040	0.286
-684.295	-200.000	-0.022	-0.354
-683.281	-200.000	0.033	0.187
-682.266	-200.000	0.035	-0.182
-681.251	60.453	-0.130	-0.130
-680.237	0.921	0.014	-0.010
-679.222	-126.475	0.131	0.020
-678.208	150.613	0.183	0.250
-677.193	800.000	0.039	0.127
-676.178	800.000	0.083	-0.252
-675.164	233.346	-0.084	0.140
-674.149	214.616	0.082	-0.132
-673.135	-200.000	-0.012	0.070
-672.120	-200.000	0.013	-0.194
-671.105	208.917	0.130	-0.206
-670.091	-61.203	-0.434	0.184
-669.076	324.562	-0.107	0.205
-668.062	69.460	0.070	0.073
-667.047	319.455	0.068	0.131
-666.032	-103.277	-0.249	-0.059
-665.018	75.650	-0.065	0.069
-664.003	-24.928	-0.177	0.106
-662.989	-133.089	0.152	-0.019
-661.974	160.493	-0.114	0.160
-660.959	147.023	-0.172	-0.233
-659.945	720.837	-0.043	0.116
-658.930	532.122	-0.065	0.156
-657.916	-200.000	-0.001	0.240
-656.901	135.718	0.112	0.147
-655.886	50.165	0.217	0.207
-654.872	46.596	-0.116	0.109
-653.857	-200.000	-0.002	-0.202
-652.843	-126.561	-0.159	0.024
-651.828	-68.668	-0.188	-0.073
-650.814	800.000	-0.028	-0.104
-649.799	-200.000	-0.040	0.340
-648.784	5.010	-0.182	0.135
-647.770	-200.000	-0.052	-0.236
-646.755	35.825	0.202	0.179
-645.741	800.000	-0.106	-0.389
-644.726	-41.097	0.330	0.172
-643.711	-32.168	0.189	0.106
-642.697	-139.594	0.138	-0.015
-641.682	-21.473	-0.088	-0.054
-640.668	-32.610	0.310	-0.174
-639.653	-91.390	-0.160	0.046
-638.638	-81.097	-0.119	-0.039
-637.624	2.480	0.337	-0.246
-636.609	-71.768	-0.132	-0.050
-635.595	66.314	0.214	0.219
-634.580	128.537	-0.178	0.229
-633.565	-200.000	-0.030	0.233
-632.551	800.000	-0.055	-0.220
-631.536	-200.000	-0.027	-0.173
-630.522	-148.405	0.117	-0.010
-629.507	700.888	-0.135	0.359
-628.492	-69.515	-0.316	0.122
-627.478	800.000	0.025	0.077
-626.463	-200.000	-0.027	-0.163
-625.449	613.346	0.003	0.007
-624.434	67.486	-0.120	0.123
-623.419	800.000	-0.052	0.202
-622.405	-96.387	0.019	0.005
-621.390	-151.529	-0.142	0.011
-620.376	-200.000	0.028	0.222
-619.361	256.050	-0.020	0.034
-618.346	-82.544	0.502	-0.164
-617.332	-40.123	-0.142	-0.074
-616.317	-12.163	0.178	-0.117
-615.303	-182.398	-0.140	0.003
-614.288	335.042	-0.065	0.127
-613.273	-22.948	0.401	0.243
-612.259	-21.495	-0.224	0.138
-611.244	232.145	0.183	-0.302
-610.230	-148.890	0.185	-0.015
-609.215	-0.107	-0.364	0.261
-608.201	392.329	-0.215	0.449
-607.186	-200.000	0.061	0.331
-606.171	-185.480	-0.157	-0.002
-605.157	-113.286	0.364	0.072
-604.142	-81.885	-0.240	0.079
-603.128	162.883	-0.061	0.086
-602.113	-87.728	-0.175	-0.053
-601.098	-156.931	-0.254	0.016
-600.084	-122.875	-0.201	-0.033
-599.069	-7.270	0.353	-0.241
-598.055	-200.000	0.009	-0.411
-597.040	375.032	0.096	-0.196
-596.025	110.106	0.146	-0.176
-595.011	-130.652	-0.349	0.047
-593.996	800.000	-0.073	0.207
-592.982	800.000	-0.040	0.124
-591.967	57.792	-0.042	0.042
-590.952	-132.251	0.297	-0.039
-589.938	34.397	-0.195	-0.171
-588.923	175.298	0.088	-0.128
-587.909	-190.310	0.327	-0.004
-586.894	-22.113	0.136	0.083
-585.879	-66.158	-0.341	0.136
-584.865	800.000	-0.124	0.405
-583.850	614.551	0.141	-0.356
-582.836	-56.315	-0.248	-0.111
-581.821	-34.852	-0.088	-0.049
-580.806	-200.000	-0.054	0.283
-579.792	-85.325	0.124	0.039
-578.777	-164.820	-0.035	0.002
-577.763	750.565	0.107	-0.290
-576.748	703.281	-0.115	-0.304
-575.733	-109.939	-0.209	-0.044
-574.719	-200.000	0.008	0.071
-573.704	-60.153	-0.158	0.068
-572.690	-97.408	0.034	-0.009
-571.675	505.752	0.162	-0.376
-570.661	-46.146	0.345	0.171
-569.646	46.606	-0.123	-0.115
-568.631	171.706	-0.006	-0.009
-567.617	-98.787	0.323	-0.082
-566.602	-21.452	-0.053	-0.032
-565.588	-70.285	0.086	0.033
-564.573	-39.887	0.239	-0.125
-563.558	-200.000	0.008	-0.298
-562.544	-152.113	0.401	0.029
-561.529	297.847	0.136	-0.250
-560.515	800.000	0.057	-0.166
-559.500	800.000	0.119	0.360
-558.485	430.731	-0.108	0.235
-557.471	136.480	0.106	-0.139
-556.456	-4.726	0.125	0.087
-555.442	800.000	-0.044	-0.147
-554.427	800.000	-0.065	0.237
-553.412	-92.903	-0.267	0.075
-552.398	467.752	0.072	0.163
-551.383	-200.000	-0.001	0.142
-550.369	-200.000	0.017	0.160
-549.354	113.002	0.205	-0.250
-548.339	424.696	0.086	0.186
-547.325	-99.391	-0.126	-0.032
-546.310	113.684	-0.120	-0.146
-545.296	-108.748	-0.233	-0.050
-544.281	-3.436	-0.083	-0.058
-543.266	161.829	-0.238	-0.335
-542.252	-200.000	-0.031	-0.163
-541.237	451.794	-0.128	-0.284
-540.223	75.138	-0.299	0.316
-539.208	-200.000	0.059	0.334
-538.193	800.000	0.040	0.169
-537.179	-200.000	0.059	0.271
-536.164	-85.942	0.161	-0.050
-535.150	-50.435	-0.369	0.175
-534.135	-196.254	0.161	0.001
-533.121	-161.468	0.365	-0.019
-532.106	-90.676	-0.165	0.048
-531.091	-31.154	-0.126	0.071
-530.077	-84.402	-0.261	-0.083
-529.062	258.076	-0.153	0.265
-528.048	-86.205	0.183	-0.057
-527.033	-43.658	-0.216	-0.109
-526.018	-200.000	0.008	0.188
-525.004	144.422	-0.196	0.263
-523.989	146.944	0.191	-0.257
-522.975	-37.363	-0.420	-0.225
-521.960	-75.019	-0.268	0.096
-520.945	800.000	-0.057	0.171
-519.931	800.000	0.039	-0.145
-518.916	-160.898	-0.274	0.014
-517.902	-55.495	0.173	0.078
-516.887	60.940	-0.261	0.259
-515.872	172.992	-0.085	0.123
-514.858	-134.766	0.107	0.013
-513.843	-15.453	0.182	-0.117
-512.829	-47.608	-0.324	0.158
-511.814	-111.945	0.176	-0.035
-510.799	-38.118	-0.338	-0.180
-509.785	-48.338	0.563	0.272
-508.770	183.590	-0.066	-0.098
-507.756	-200.000	-0.027	-0.260
-506.741	-28.667	0.087	-0.050
-505.726	-55.754	-0.278	0.124
-504.712	142.645	-0.117	-0.156
-503.697	138.546	0.202	-0.265
-502.683	-156.925	0.208	-0.013
-501.668	-13.435	-0.261	0.170
-500.653	-200.000	-0.042	0.374
-499.639	-179.014	-0.299	-0.007
-498.624	-107.216	-0.324	-0.071
-497.610	620.271	-0.054	0.137
-496.595	-48.903	0.249	0.120
-495.581	79.336	0.201	0.216
-494.566	-180.018	0.127	-0.003
-493.551	120.949	0.045	0.056
-492.537	227.788	-0.041	-0.067
-491.522	107.144	-0.134	0.160
-490.508	8.284	0.094	0.071
-489.493	29.855	-0.275	-0.235
-488.478	800.000	-0.058	-0.209
-487.464	-200.000	-0.049	0.367
-486.449	49.046	-0.368	-0.346
-485.435	800.000	-0.077	-0.245
-484.420	-200.000	-0.015	-0.220
-483.405	242.898	0.103	-0.173
-482.391	-85.812	-0.427	0.132
-481.376	259.172	-0.066	0.114
-480.362	-187.311	0.270	0.004
-479.347	-200.000	-0.017	0.199
-478.332	-70.868	-0.110	0.041
-477.318	-37.594	0.119	0.063
-476.303	19.410	0.353	0.284
-475.289	126.536	0.205	-0.260
-474.274	-70.625	0.117	-0.044
-473.259	201.662	-0.063	0.097
-472.245	11.244	0.164	0.126
-471.230	235.589	0.151	-0.250
-470.216	-16.436	0.025	-0.016
-469.201	-200.000	0.009	-0.361
-468.186	800.000	-0.078	-0.286
-467.172	-95.685	-0.140	-0.037
-466.157	800.000	-0.073	0.215
-465.143	77.518	0.076	-0.081
-464.128	316.273	-0.051	0.096
-463.113	72.241	-0.337	0.351
-462.099	-94.286	-0.306	-0.084
-461.084	25.047	-0.056	-0.046
-460.070	262.141	0.110	0.191
-459.055	77.704	0.316	0.337
-458.040	-120.918	-0.315	-0.053
-457.026	800.000	-0.084	-0.327
-456.011	506.312	-0.026	-0.061
-454.997	-117.753	-0.468	0.084
-453.982	98.648	-0.072	0.083
-452.968	244.888	-0.110	-0.185
-451.953	-94.926	0.379	-0.102
-450.938	548.411	-0.107	-0.257
-449.924	800.000	0.046	-0.191
-448.909	-200.000	-0.015	0.136
-447.895	-127.626	0.108	-0.016
-446.880	-67.192	0.448	0.176
-445.865	-0.622	-0.082	0.058
-444.851	-120.681	-0.278	0.047
-443.836	88.891	0.159	0.177
-442.822	-77.644	-0.148	-0.051
-441.807	-200.000	-0.027	-0.380
-440.792	104.367	0.056	-0.065
-439.778	-56.525	-0.159	-0.070
-438.763	216.405	-0.085	0.134
-437.749	-200.000	-0.010	0.181
-436.734	-200.000	-0.069	-0.324
-435.719	223.969	-0.024	-0.039
-434.705	383.927	0.053	0.110
-433.690	800.000	-0.088	-0.246
-432.676	800.000	0.046	-0.182
-431.661	42.899	-0.100	-0.091
-430.646	156.447	0.208	-0.286
-429.632	-47.070	0.130	-0.063
-428.617	-200.000	-0.005	0.255
-427.603	227.863	0.042	-0.068
-426.588	-21.499	0.275	-0.167
-425.573	-10.134	-0.044	-0.029
-424.559	669.444	-0.048	0.123
-423.544	-145.937	0.563	-0.050
-422.530	-123.132	0.241	-0.039
-421.515	127.317	-0.081	-0.103
-420.500	236.093	0.073	0.120
-419.486	9.998	-0.257	-0.195
-418.471	202.938	0.031	0.047
-417.457	81.410	0.150	0.162
-416.442	-200.000	-0.012	0.186
-415.428	800.000	0.084	-0.355
-414.413	211.234	-0.041	0.064
-413.398	18.282	0.228	-0.182
-412.384	121.031	-0.180	0.224
-411.369	-200.000	0.022	-0.352
-410.355	-200.000	-0.019	-0.260
-409.340	800.000	-0.026	-0.073
-408.325	-84.119	0.202	0.064
-407.311	-200.000	-0.038	-0.290
-406.296	-200.000	0.061	0.430
-405.282	430.305	0.040	0.085
-404.267	43.116	-0.141	0.128
-403.252	395.046	-0.057	0.118
-402.238	-99.455	-0.199	-0.050
-401.223	27.881	0.295	0.248
-400.209	193.860	-0.107	0.161
-399.194	-200.000	-0.012	0.076
-398.179	-200.000	-0.020	0.357
-397.165	-200.000	-0.001	-0.075
-396.150	-69.537	-0.135	0.052
-395.136	-69.424	-0.358	-0.137
-394.121	69.510	0.207	-0.213
-393.106	-42.479	-0.200	0.102
-392.092	311.042	0.082	-0.153
-391.077	-200.000	-0.007	-0.165
-390.063	800.000	0.112	-0.427
-389.048	422.426	0.151	-0.324
-388.033	-200.000	0.015	-0.255
-387.019	-20.027	-0.201	-0.124
-386.004	272.416	0.119	-0.209
-384.990	-46.391	-0.159	-0.078
-383.975	-200.000	-0.032	-0.151
-382.960	121.838	0.175	0.217
-381.946	-44.033	-0.441	-0.221
-380.931	-104.354	0.218	0.050
-379.917	-10.516	0.199	-0.131
-378.902	800.000	0.018	0.070
-377.888	-134.214	-0.476	-0.058
-376.873	136.500	0.073	0.095
-375.858	61.780	-0.042	-0.042
-374.844	-141.470	0.414	-0.042
-373.829	-10.391	0.220	0.145
-372.815	79.965	0.227	0.243
-371.800	113.676	0.098	-0.118
-370.785	-200.000	0.003	0.021
-369.771	125.061	-0.171	-0.215
-368.756	-2.323	-0.169	-0.118
-367.742	242.278	-0.153	-0.255
-366.727	449.107	-0.027	-0.059
-365.712	-200.000	-0.075	0.505
-364.698	-200.000	-0.120	-0.000
-363.683	800.000	-0.058	0.172
-362.669	-98.665	-0.089	-0.023
-361.654	-200.000	0.051	-0.269
-360.639	-200.000	0.094	0.411
-359.625	-144.795	0.066	0.006
-358.610	253.468	-0.064	-0.109
-357.596	793.046	-0.180	-0.495
-356.581	-148.351	0.192	-0.016
-355.566	-200.000	-0.006	-0.051
-354.552	-98.855	0.154	0.039
-353.537	145.629	-0.214	-0.286
-352.523	-153.887	-0.341	0.023
-351.508	-55.221	-0.045	0.020
-350.493	450.228	0.130	0.286
-349.479	-100.741	-0.203	0.050
-348.464	391.795	0.031	-0.063
-347.450	-200.000	-0.013	0.105
-346.435	-200.000	-0.016	-0.133
-345.420	-200.000	0.058	0.433
-344.406	-125.807	0.222	-0.033
-343.391	169.630	0.149	-0.212
-342.377	-86.700	-0.370	0.113
-341.362	475.850	-0.075	0.170
-340.348	-88.956	-0.395	0.116
-339.333	-200.000	-0.018	0.373
-338.318	93.260	-0.088	0.099
-337.304	113.102	-0.096	-0.116
-336.289	-200.000	-0.057	0.264
-335.275	-200.000	-0.077	-0.353
-334.260	-89.888	0.315	0.092
-333.245	-123.246	-0.107	0.017
-332.231	19.060	-0.063	0.050
-331.216	778.488	0.020	-0.055
-330.202	-200.000	-0.049	0.381
-329.187	96.870	-0.210	-0.240
-328.172	209.351	0.190	0.296
-327.158	-9.659	0.075	-0.050
-326.143	-12.728	0.274	0.178
-325.129	522.580	-0.110	0.257
-324.114	800.000	0.102	0.301
-323.099	-159.354	-0.164	0.009
-322.085	-26.385	0.178	-0.104
-321.070	-35.753	-0.429	-0.231
-320.056	-200.000	-0.015	-0.215
-319.041	-200.000	-0.015	-0.244
-318.026	-173.781	0.099	0.003
-317.012	-6.529	0.355	-0.241
-315.997	39.954	0.122	0.109
-314.983	-200.000	-0.010	0.184
-313.968	-68.982	0.196	0.075
-312.953	800.000	0.043	-0.127
-311.939	-200.000	-0.067	0.362
-310.924	-200.000	0.093	0.436
-309.910	-200.000	-0.027	0.119
-308.895	203.019	0.013	-0.020
-307.880	-6.311	0.211	0.143
-306.866	296.795	-0.123	-0.225
-305.851	-58.392	-0.142	0.061
-304.837	-69.321	0.376	-0.143
-303.822	38.153	-0.041	-0.037
-302.807	-46.712	0.415	0.202
-301.793	-200.000	-0.198	-0.001
-300.778	267.816	-0.074	0.129
-299.764	293.215	-0.058	-0.104
-298.749	-63.327	-0.265	0.109
-297.735	-22.361	0.115	0.069
-296.720	209.424	0.143	-0.223
-295.705	92.512	0.157	-0.176
-294.691	-68.550	-0.176	0.068
-293.676	-37.068	0.145	-0.077
-292.662	-200.000	-0.068	0.312
-291.647	-200.000	0.050	0.292
-290.632	-5.426	0.104	-0.071
-289.618	-200.000	0.004	-0.234
-288.603	-60.499	0.217	-0.092
-287.589	-67.849	-0.111	-0.043
-286.574	-200.000	-0.009	0.150
-285.559	30.502	-0.031	0.026
-284.545	446.116	-0.076	0.165
-283.530	-200.000	-0.012	-0.173
-282.516	-93.857	0.079	0.022
-281.501	51.271	-0.273	0.258
-280.486	81.890	-0.037	0.040
-279.472	157.839	0.198	0.273
-278.457	-23.208	-0.083	0.050
-277.443	335.190	0.127	-0.245
-276.428	-104.787	-0.161	0.037
-275.413	17.325	-0.041	-0.032
-274.399	-132.761	0.100	-0.013
-273.384	-119.318	0.395	-0.068
-272.370	523.000	0.148	-0.346
-271.355	-42.145	0.291	-0.148
-270.340	97.561	-0.124	0.142
-269.326	148.329	-0.032	0.043
-268.311	-200.000	-0.013	0.143
-267.297	-134.330	0.084	-0.010
-266.282	150.382	-0.276	0.372
-265.267	593.038	0.080	0.196
-264.253	-14.112	0.258	-0.165
-263.238	-44.435	0.295	0.146
-262.224	-200.000	-0.044	-0.242
-261.209	198.393	-0.169	0.257
-260.195	92.124	-0.292	0.327
-259.180	386.944	0.110	-0.225
-258.165	82.254	0.201	0.216
-257.151	368.178	-0.078	0.156
-256.136	-96.832	0.079	0.021
-255.122	-35.475	-0.324	0.175
-254.107	-83.013	0.148	0.047
-253.092	800.000	0.085	0.249
-252.078	321.466	0.097	-0.184
-251.063	800.000	-0.041	0.168
-250.049	-66.428	0.300	-0.118
-249.034	-16.180	0.244	0.154
-248.019	800.000	-0.094	-0.340
-247.005	-17.246	-0.130	0.081
-245.990	229.306	-0.064	-0.104
-244.976	39.511	0.156	-0.139
-243.961	-200.000	-0.016	0.313
-242.946	85.008	-0.084	0.091
-241.932	448.180	-0.065	-0.142
-240.917	-80.991	-0.084	0.028
-239.903	143.044	-0.062	0.082
-238.888	800.000	-0.152	-0.468
-237.873	49.795	-0.147	-0.138
-236.859	174.751	0.099	0.142
-235.844	-41.087	0.121	-0.062
-234.830	48.742	-0.196	0.182
-233.815	-91.881	-0.101	-0.029
-232.800	31.064	0.181	-0.154
-231.786	800.000	0.050	0.181
-230.771	-200.000	0.008	0.190
-229.757	390.776	0.103	-0.213
-228.742	-200.000	0.022	0.200
-227.727	-134.540	0.334	0.040
-226.713	-111.813	0.066	-0.013
-225.698	104.318	0.104	0.122
-224.684	-27.515	0.156	-0.090
-223.669	-180.714	-0.179	-0.004
-222.655	800.000	0.081	0.243
-221.640	-69.347	-0.216	0.082
-220.625	-130.318	0.128	-0.017
-219.611	800.000	-0.061	0.169
-218.596	-52.480	-0.439	-0.201
-217.582	-96.020	0.121	-0.032
-216.567	-163.289	-0.305	0.014
-215.552	-68.927	-0.448	0.171
-214.538	-53.447	0.109	0.049
-213.523	241.273	-0.029	-0.047
-212.509	-200.000	-0.020	0.215
-211.494	-61.036	0.170	0.071
-210.479	599.928	-0.082	-0.202
-209.465	40.260	0.164	-0.146
-208.450	533.143	0.068	-0.160
-207.436	501.639	-0.072	-0.164
-206.421	76.855	0.144	-0.152
-205.406	-110.965	-0.193	-0.039
-204.392	-53.530	0.215	0.097
-203.377	-23.874	0.148	0.088
-202.363	87.968	-0.281	0.308
-201.348	-56.878	0.050	-0.022
-200.333	238.091	-0.062	0.101
-199.319	-200.000	0.031	0.435
-198.304	800.000	0.117	0.385
-197.290	-61.460	-0.258	-0.108
-196.275	-91.964	0.304	0.085
-195.260	-152.217	0.102	0.007
-194.246	-85.470	0.305	-0.094
-193.231	-130.164	0.294	0.040
-192.217	247.316	0.086	-0.144
-191.202	-200.000	-0.044	-0.255
-190.187	59.338	0.046	0.045
-189.173	237.429	-0.150	-0.246
-188.158	800.000	-0.080	-0.302
-187.144	-71.135	0.126	0.047
-186.129	-200.000	0.049	0.352
-185.114	-89.018	-0.166	0.049
-184.100	-159.233	0.123	-0.007
-183.085	248.720	0.166	-0.278
-182.071	-200.000	0.015	-0.419
-181.056	252.198	0.077	0.130
-180.042	-71.179	0.064	-0.024
-179.027	-29.963	-0.128	0.072
-178.012	38.242	0.251	0.221
-176.998	53.518	0.066	0.063
-175.983	314.890	0.109	0.203
-174.969	23.156	0.188	0.153
-173.954	753.105	-0.042	-0.112
-172.939	-39.371	-0.049	-0.025
-171.925	65.594	-0.139	0.139
-170.910	-200.000	0.069	0.426
-169.896	-200.000	0.039	-0.249
-168.881	800.000	0.123	-0.349
-167.866	-124.696	0.255	-0.039
-166.852	800.000	0.115	-0.437
-165.837	186.280	-0.219	-0.322
-164.823	33.980	0.253	-0.218
-163.808	259.651	0.078	0.133
-162.793	-200.000	-0.071	-0.400
-161.779	-200.000	-0.056	-0.601
-160.764	-195.712	-0.115	0.001
-159.750	-97.386	0.166	-0.043
-158.735	107.368	-0.169	-0.199
-157.720	800.000	-0.118	-0.399
-156.706	237.504	0.153	0.251
-155.691	66.925	-0.135	-0.135
-154.677	-119.775	-0.278	0.047
-153.662	177.249	-0.124	-0.179
-152.647	200.435	0.243	-0.369
-151.633	-119.014	-0.171	-0.030
-150.618	261.645	-0.157	0.268
-149.604	-200.000	0.003	0.136
-148.589	144.548	0.146	-0.192
-147.574	158.936	-0.094	0.130
-146.560	800.000	0.050	0.184
-145.545	65.020	-0.051	0.051
-144.531	150.296	-0.089	0.119
-143.516	-8.373	-0.062	-0.041
-142.502	165.352	0.119	-0.166
-141.487	-200.000	-0.004	-0.180
-140.472	272.495	-0.125	-0.219
-139.458	6.054	0.042	-0.030
-138.443	43.823	-0.235	0.213
-137.429	800.000	0.040	0.171
-136.414	-117.239	-0.165	-0.030
-135.399	-200.000	0.045	0.302
-134.385	800.000	-0.074	-0.311
-133.370	-88.423	-0.061	0.018
-132.356	-167.527	-0.156	0.006
-131.341	-68.596	0.182	-0.069
-130.326	-89.758	0.215	0.062
-129.312	-52.669	-0.459	-0.209
-128.297	-160.687	-0.032	-0.002
-127.283	106.008	0.083	0.097
-126.268	157.668	0.111	0.152
-125.253	88.313	0.037	0.041
-124.239	464.625	0.106	-0.234
-123.224	-86.509	-0.387	-0.117
-122.210	-96.256	-0.149	0.039
-121.195	-92.813	-0.252	-0.070
-120.180	127.876	-0.146	-0.183
-119.166	-137.867	0.389	0.043
-118.151	-147.781	-0.414	0.034
-117.137	12.198	-0.294	0.223
-116.122	-200.000	0.004	0.241
-115.107	800.000	0.064	-0.213
-114.093	-38.686	-0.088	0.046
-113.078	-74.956	0.189	-0.067
-112.064	-123.426	-0.201	0.032
-111.049	-107.191	0.205	-0.045
-110.034	-152.611	0.226	0.016
-109.020	800.000	-0.039	-0.159
-108.005	-73.545	-0.164	-0.059
-106.991	281.454	0.167	0.294
-105.976	115.823	-0.110	-0.133
-104.962	243.875	-0.150	0.248
-103.947	-47.584	0.328	0.157
-102.932	399.790	-0.070	0.145
-101.918	-25.466	-0.339	0.198
-100.903	800.000	0.053	0.169
-99.889	-78.198	0.151	0.051
-98.874	25.292	0.339	0.277
-97.859	166.342	-0.192	0.268
-96.845	166.662	-0.111	-0.155
-95.830	-26.590	0.272	0.157
-94.816	60.156	-0.148	-0.144
-93.801	33.153	0.334	-0.285
-92.786	121.684	0.051	-0.063
-91.772	522.717	0.038	-0.089
-90.757	305.069	-0.091	0.167
-89.743	-90.063	0.025	0.007
-88.728	-200.000	0.047	0.360
-87.713	-84.134	-0.182	0.057
-86.699	15.736	0.071	0.055
-85.684	-123.369	-0.101	-0.016
-84.670	-144.070	0.347	-0.032
-83.655	-200.000	0.030	0.212
-82.640	-200.000	0.017	0.295
-81.626	5.752	-0.121	-0.088
-80.611	-183.223	0.254	0.004
-79.597	-65.401	0.319	0.126
-78.582	-200.000	0.015	-0.072
-77.567	-94.802	0.020	-0.005
-76.553	53.160	-0.066	-0.062
-75.538	-22.559	-0.475	-0.283
-74.524	-18.553	0.258	0.158
-73.509	-87.249	0.149	-0.045
-72.494	-34.088	-0.089	0.048
-71.480	647.957	0.076	0.191
-70.465	192.802	-0.024	0.035
-69.451	-200.000	0.066	-0.373
-68.436	800.000	0.059	0.182
-67.422	800.000	0.091	0.259
-66.407	-200.000	0.014	0.059
-65.392	-191.081	-0.195	-0.002
-64.378	-106.096	0.238	0.053
-63.363	389.148	0.145	0.295
-62.349	90.969	0.125	0.138
-61.334	61.512	-0.949	-0.929
-60.319	-48.694	0.400	0.189
-59.305	-200.000	-0.188	-0.932
-58.290	375.010	0.547	1.098
-57.276	270.941	0.906	1.570
-56.261	-200.000	112.932	644.646
-55.246	470.141	1502.813	3324.774
-54.232	144.795	2679.549	3525.368
-53.217	94.402	2324.279	2598.476
-52.203	33.917	2073.591	1776.818
-51.188	29.305	1987.282	1661.357
-50.173	27.936	1970.149	1634.724
-49.159	46.428	2027.890	1850.923
-48.144	45.419	2044.271	1856.647
-47.130	29.906	2003.539	1680.131
-46.115	27.614	1993.319	1650.773
-45.100	27.521	1990.628	1647.632
-44.086	27.466	1988.397	1645.227
-43.071	27.395	1985.492	1642.118
-42.057	27.363	1983.381	1640.022
-41.042	27.318	1982.275	1638.636
-40.027	27.420	1979.740	1637.391
-39.013	27.401	1978.127	1635.823
-37.998	27.476	1976.047	1634.712
-36.984	27.474	1974.445	1633.303
-35.969	27.475	1972.260	1631.441
-34.954	27.524	1970.714	1630.533
-33.940	27.528	1968.980	1629.072
-32.925	27.500	1968.154	1628.074
-31.911	27.524	1965.990	1626.428
-30.896	27.535	1964.089	1624.894
-29.881	27.574	1963.055	1624.322
-28.867	27.606	1960.587	1622.498
-27.852	27.573	1959.582	1621.311
-26.838	27.646	1957.747	1620.370
-25.823	27.665	1955.551	1618.659
-24.809	27.629	1954.111	1617.088
-23.794	27.650	1952.039	1615.489
-22.779	27.564	1950.329	1613.250
-21.765	27.510	1948.804	1611.448
-20.750	27.611	1946.944	1610.738
-19.736	27.658	1945.673	1610.040
-18.721	27.643	1943.785	1608.279
-17.706	27.545	1942.533	1606.318
-16.692	27.617	1940.587	1605.278
-15.677	27.580	1939.118	1603.670
-14.663	27.564	1938.054	1602.588
-13.648	27.583	1936.149	1601.117
-12.633	27.589	1935.593	1600.650
-11.619	27.582	1933.900	1599.119
-10.604	27.581	1932.353	1597.773
-9.590	27.576	1931.124	1596.649
-8.575	27.526	1930.354	1595.506
-7.560	27.630	1928.474	1594.803
-6.546	27.569	1927.425	1593.338
-5.531	27.641	1925.758	1592.521
-4.517	27.569	1924.636	1590.906
-3.502	27.580	1923.830	1590.271
-2.487	27.530	1922.599	1588.752
-1.473	27.563	1921.606	1588.159
-0.458	27.634	1916.878	1584.804
0.556	25.580	1897.456	1556.693
1.571	21.341	1878.435	1504.545
2.586	17.589	1900.902	1489.652
3.600	16.675	1936.673	1509.403
4.615	16.587	1931.164	1504.201
5.629	15.284	1839.039	1421.275
6.644	12.522	1734.900	1318.557
7.659	10.844	1704.359	1282.007
8.673	10.704	1701.353	1278.526
9.688	10.606	1700.201	1276.777
10.702	10.674	1698.361	1275.821
11.717	10.507	1695.267	1272.072
12.731	10.822	1693.146	1272.834
13.746	12.732	1697.881	1291.270
14.761	15.924	1703.739	1320.682
15.775	17.469	1705.900	1334.365
16.790	17.206	1703.835	1330.572
17.804	16.158	1700.224	1319.436
18.819	15.143	1696.990	1308.886
19.834	14.533	1694.527	1302.105
20.848	14.156	1692.636	1297.596
21.863	13.972	1690.718	1294.584
22.877	13.660	1689.752	1291.299
23.892	13.494	1687.963	1288.523
24.907	13.442	1687.074	1287.325
25.921	13.374	1686.149	1285.979
26.936	13.339	1685.444	1285.051
27.950	13.405	1684.523	1284.755
28.965	13.406	1683.978	1284.232
29.980	13.422	1683.084	1283.559
30.994	13.501	1681.709	1283.005
32.009	13.574	1680.350	1282.424
33.023	13.616	1679.773	1282.192
34.038	13.675	1678.800	1281.795
35.053	13.621	1677.726	1280.443
36.067	13.581	1676.387	1278.999
37.082	13.533	1674.939	1277.412
38.096	13.519	1674.272	1276.679
39.111	13.575	1673.605	1276.490
40.126	13.623	1672.369	1275.809
41.140	13.501	1671.915	1274.403
42.155	13.429	1670.016	1272.292
43.169	13.398	1668.654	1270.906
44.184	13.351	1667.292	1269.393
45.199	13.345	1666.473	1268.610
46.213	13.365	1665.227	1267.708
47.228	13.316	1663.777	1266.117
48.242	13.402	1662.687	1265.834
49.257	13.443	1661.529	1265.150
50.271	13.469	1660.163	1264.198
51.286	13.436	1659.119	1263.036
52.301	13.489	1657.125	1261.811
53.315	13.494	1656.384	1261.172
54.330	13.463	1654.162	1259.135
55.344	13.464	1652.684	1257.907
56.359	13.364	1651.742	1256.323
57.374	13.407	1650.405	1255.515
58.388	13.426	1649.402	1254.785
59.403	13.396	1648.012	1253.394
60.417	13.255	1646.717	1251.227
61.432	13.249	1645.280	1249.983
62.447	13.277	1644.641	1249.600
63.461	13.288	1643.232	1248.497
64.476	13.299	1642.307	1247.767
65.490	13.275	1640.826	1246.354
66.505	13.228	1639.870	1245.160
67.520	13.285	1638.648	1244.549
68.534	13.313	1637.789	1243.999
69.549	13.258	1636.650	1242.609
70.563	13.269	1635.494	1241.703
71.578	13.300	1634.293	1240.920
72.593	13.239	1633.620	1239.836
73.607	13.099	1632.807	1238.066
74.622	13.163	1631.602	1237.517
75.636	13.171	1630.289	1236.473
76.651	13.153	1629.528	1235.654
77.666	13.147	1628.858	1234.986
78.680	13.153	1627.437	1233.847
79.695	13.152	1626.957	1233.368
80.709	13.217	1625.934	1232.964
81.724	13.239	1625.369	1232.595
82.739	13.278	1624.480	1232.099
83.753	13.347	1623.511	1231.771
84.768	13.399	1622.466	1231.258
85.782	13.513	1621.382	1231.173
86.797	13.488	1620.642	1230.320
87.812	13.585	1619.729	1230.237
88.826	13.467	1618.295	1228.160
89.841	13.474	1617.223	1227.290
90.855	13.442	1615.928	1225.962
91.870	13.456	1615.128	1225.353
92.884	13.485	1614.466	1224.952
93.899	13.524	1613.255	1224.214
94.914	13.490	1611.949	1222.863
95.928	13.531	1610.818	1222.202
96.943	13.628	1609.507	1221.809
97.957	13.553	1607.834	1219.881
98.972	13.527	1606.344	1218.451
99.987	13.528	1604.589	1217.023
101.001	13.580	1602.579	1215.768
102.016	13.598	1601.105	1214.676
103.030	13.526	1600.141	1213.315
104.045	13.426	1599.184	1211.745
105.060	13.525	1597.627	1211.182
106.074	13.442	1596.169	1209.361
107.089	13.460	1594.350	1208.012
108.103	13.309	1593.014	1205.792
109.118	13.266	1591.565	1204.271
110.133	13.309	1589.607	1202.997
111.147	13.297	1588.692	1202.108
112.162	13.311	1587.567	1201.253
113.176	13.308	1586.103	1200.024
114.191	13.379	1584.644	1199.321
115.206	13.402	1583.442	1198.472
116.220	13.349	1582.046	1196.932
117.235	13.324	1580.332	1195.349
118.249	13.338	1579.311	1194.569
119.264	13.375	1577.750	1193.553
120.279	13.318	1576.451	1192.047
121.293	13.256	1574.983	1190.389
122.308	13.239	1573.816	1189.279
123.322	13.243	1572.225	1188.001
124.337	13.277	1570.470	1186.816
125.352	13.343	1568.837	1185.948
126.366	13.263	1568.568	1185.065
127.381	13.341	1566.835	1184.207
128.395	13.273	1565.890	1182.906
129.410	13.270	1564.335	1181.602
130.424	13.332	1562.473	1180.533
131.439	13.323	1561.788	1179.848
132.454	13.341	1560.342	1178.781
133.468	13.333	1558.902	1177.534
134.483	13.408	1557.524	1176.922
135.497	13.410	1556.198	1175.828
136.512	13.399	1554.903	1174.666
137.527	13.314	1553.893	1173.201
138.541	13.415	1552.388	1172.671
139.556	13.427	1551.137	1171.713
140.570	13.406	1549.412	1170.157
141.585	13.489	1547.961	1169.541
142.600	13.562	1546.626	1168.943
143.614	13.575	1545.536	1168.108
144.629	13.631	1544.341	1167.498
145.643	13.684	1542.781	1166.588
146.658	13.727	1541.758	1166.011
147.673	13.751	1539.868	1164.650
148.687	13.650	1538.508	1162.813
149.702	13.574	1537.178	1161.170
150.716	13.661	1534.891	1159.943
151.731	13.572	1533.584	1158.232
152.746	13.555	1533.035	1157.602
153.760	13.635	1530.945	1156.477
154.775	13.563	1530.064	1155.206
155.789	13.669	1528.643	1154.770
156.804	13.701	1527.459	1153.998
157.819	13.721	1526.299	1153.156
158.833	13.663	1525.074	1151.726
159.848	13.791	1523.861	1151.595
160.862	13.761	1522.907	1150.563
161.877	13.793	1521.978	1149.985
162.892	13.858	1519.856	1148.728
163.906	13.693	1519.131	1146.938
164.921	13.527	1517.958	1144.806
165.935	13.589	1516.785	1144.242
166.950	13.616	1516.161	1143.859
167.964	13.697	1514.412	1142.999
168.979	13.669	1513.175	1141.770
169.994	13.714	1512.425	1141.414
171.008	13.658	1511.106	1139.932
172.023	13.681	1510.600	1139.606
173.037	13.891	1508.777	1139.568
174.052	13.818	1508.267	1138.583
175.067	13.966	1506.769	1138.369
176.081	13.812	1505.729	1136.424
177.096	13.692	1504.806	1134.811
178.110	13.702	1503.245	1133.600
179.125	13.701	1501.843	1132.437
180.140	13.768	1500.539	1131.808
181.154	13.851	1499.657	1131.610
182.169	13.865	1498.564	1130.777
183.183	13.902	1497.342	1130.008
184.198	13.875	1496.716	1129.256
185.213	13.826	1495.773	1128.109
186.227	13.935	1494.010	1127.415
187.242	14.013	1493.403	1127.389
188.256	14.039	1492.400	1126.709
189.271	14.108	1490.799	1125.868
190.286	14.016	1490.259	1124.740
191.300	14.044	1488.739	1123.683
192.315	13.836	1487.667	1121.368
193.329	13.786	1486.204	1119.831
194.344	13.753	1485.149	1118.711
195.359	13.803	1484.155	1118.198
196.373	13.787	1483.393	1117.419
197.388	13.893	1482.779	1117.569
198.402	13.906	1481.328	1116.467
199.417	14.079	1480.036	1116.553
200.432	14.223	1478.568	1116.312
201.446	14.216	1478.087	1115.805
202.461	14.209	1476.765	1114.662
203.475	14.303	1475.563	1114.286
204.490	14.279	1474.630	1113.322
205.504	14.173	1473.922	1111.984
206.519	14.266	1471.701	1110.829
207.534	14.204	1470.930	1109.732
208.548	14.224	1469.790	1108.911
209.563	14.217	1468.881	1108.080
210.577	14.213	1467.768	1107.111
211.592	14.202	1467.146	1106.476
212.607	14.253	1466.396	1106.152
213.621	14.318	1465.619	1105.895
214.636	14.310	1465.220	1105.445
215.650	14.348	1463.799	1104.528
216.665	14.358	1462.972	1103.874
217.680	14.444	1462.056	1103.653
218.694	14.444	1461.282	1102.969
219.709	14.412	1460.548	1102.106
220.723	14.385	1459.802	1101.266
221.738	14.430	1458.317	1100.350
222.753	14.472	1457.056	1099.578
223.767	14.536	1456.205	1099.256
224.782	14.483	1455.201	1098.057
225.796	14.465	1454.529	1097.333
226.811	14.578	1453.740	1097.384
227.826	14.655	1452.689	1097.000
228.840	14.494	1452.154	1095.439
229.855	14.494	1450.967	1094.445
230.869	14.501	1450.244	1093.848
231.884	14.518	1448.847	1092.809
232.899	14.469	1447.968	1091.731
233.913	14.474	1446.372	1090.461
234.928	14.497	1445.368	1089.760
235.942	14.495	1443.853	1088.506
236.957	14.384	1443.387	1087.339
237.972	14.413	1442.265	1086.581
238.986	14.462	1440.996	1085.854
240.001	14.500	1439.813	1085.109
241.015	14.554	1438.860	1084.651
242.030	14.500	1437.988	1083.545
243.045	14.524	1436.655	1082.602
244.059	14.573	1435.780	1082.162
245.074	14.631	1434.938	1081.809
246.088	14.627	1434.502	1081.359
247.103	14.625	1433.659	1080.615
248.117	14.707	1432.587	1080.238
249.132	14.828	1431.433	1080.055
250.147	14.760	1431.427	1079.516
251.161	14.904	1430.776	1079.861
252.176	14.918	1430.092	1079.336
253.190	15.043	1429.109	1079.310
254.205	14.992	1428.425	1078.368
255.220	15.000	1427.746	1077.809
256.234	15.087	1426.457	1077.303
257.249	15.109	1425.856	1076.895
258.263	15.025	1425.163	1075.734
259.278	15.081	1424.145	1075.233
260.293	15.116	1422.861	1074.390
261.307	15.203	1421.817	1074.066
262.322	15.166	1421.601	1073.573
263.336	15.223	1420.864	1073.284
264.351	15.208	1419.513	1072.072
265.366	15.245	1418.173	1071.199
266.380	15.298	1417.377	1070.847
267.395	15.304	1416.510	1070.136
268.409	15.224	1416.158	1069.259
269.424	15.242	1414.775	1068.241
270.439	15.186	1413.698	1066.974
271.453	15.247	1412.626	1066.455
272.468	15.163	1411.757	1065.176
273.482	15.307	1411.106	1065.501
274.497	15.174	1410.519	1064.121
275.512	15.297	1408.996	1063.661
276.526	15.224	1408.522	1062.741
277.541	15.338	1407.097	1062.296
278.555	15.221	1406.523	1061.028
279.570	15.263	1405.848	1060.692
280.585	15.276	1405.207	1060.193
281.599	15.327	1404.156	1059.630
282.614	15.340	1403.241	1058.928
283.628	15.405	1402.299	1058.532
284.643	15.358	1401.005	1057.169
285.657	15.347	1399.863	1056.142
286.672	15.322	1399.333	1055.490
287.687	15.390	1398.276	1055.028
288.701	15.479	1396.852	1054.423
289.716	15.453	1396.172	1053.652
290.730	15.413	1395.733	1052.972
291.745	15.529	1394.078	1052.360
292.760	15.449	1393.370	1051.234
293.774	15.445	1392.519	1050.471
294.789	15.626	1390.765	1050.185
295.803	15.540	1390.630	1049.455
296.818	15.673	1389.652	1049.456
297.833	15.595	1388.698	1048.156
298.847	15.550	1387.429	1046.823
299.862	15.624	1386.656	1046.611
300.876	15.606	1385.815	1045.767
301.891	15.529	1385.346	1044.843
302.906	15.687	1384.010	1044.723
303.920	15.665	1383.409	1044.042
304.935	15.729	1383.060	1044.085
305.949	15.722	1382.127	1043.244
306.964	15.852	1381.235	1043.287
307.979	15.819	1380.290	1042.276
308.993	15.866	1379.340	1041.753
310.008	15.792	1378.451	1040.532
311.022	15.846	1377.126	1039.778
312.037	15.897	1376.709	1039.683
313.052	15.812	1375.854	1038.421
314.066	15.907	1374.507	1037.899
315.081	15.757	1373.500	1036.121
316.095	15.825	1372.076	1035.373
317.110	15.778	1371.198	1034.331
318.125	15.752	1370.376	1033.462
319.139	15.883	1369.369	1033.412
320.154	15.822	1367.991	1031.908
321.168	15.742	1367.312	1030.815
322.183	15.846	1366.384	1030.663
323.197	15.804	1366.032	1030.049
324.212	15.763	1364.939	1028.883
325.227	15.847	1364.117	1028.684
326.241	15.840	1363.258	1027.898
327.256	15.908	1362.017	1027.290
328.270	15.918	1361.269	1026.695
329.285	15.962	1360.447	1026.255
330.300	15.930	1359.333	1025.125
331.314	15.946	1358.250	1024.317
332.329	15.950	1357.605	1023.763
333.343	15.966	1356.591	1023.007
334.358	15.980	1356.121	1022.645
335.373	15.992	1355.068	1021.837
336.387	16.092	1354.292	1021.763
337.402	16.053	1353.547	1020.878
338.416	16.026	1353.127	1020.303
339.431	16.208	1352.249	1020.657
340.446	16.121	1351.564	1019.523
341.460	16.218	1350.413	1019.146
342.475	16.281	1349.642	1018.855
343.489	16.268	1349.019	1018.218
344.504	16.316	1347.800	1017.495
345.519	16.236	1346.977	1016.301
346.533	16.307	1346.274	1016.109
347.548	16.358	1345.226	1015.538
348.562	16.403	1344.756	1015.363
349.577	16.428	1343.781	1014.688
350.592	16.444	1343.070	1014.156
351.606	16.386	1342.197	1013.057
352.621	16.241	1340.858	1011.089
353.635	16.268	1339.635	1010.238
354.650	16.331	1339.003	1010.053
355.665	16.247	1337.897	1008.626
356.679	16.278	1336.931	1007.995
357.694	16.338	1335.686	1007.321
358.708	16.385	1334.991	1006.991
359.723	16.430	1333.614	1006.128
360.738	16.429	1332.725	1005.364
361.752	16.581	1331.341	1005.134
362.767	16.520	1330.405	1003.978
363.781	16.412	1329.983	1002.930
364.796	16.510	1328.729	1002.476
365.810	16.510	1328.615	1002.300
366.825	16.566	1327.508	1001.706
367.840	16.547	1327.162	1001.249
368.854	16.635	1326.275	1001.008
369.869	16.701	1325.529	1000.748
370.883	16.786	1324.893	1000.682
371.898	16.685	1324.466	999.671
372.913	16.672	1323.227	998.575
373.927	16.696	1322.135	997.801
374.942	16.685	1321.730	997.342
375.956	16.740	1320.730	996.823
376.971	16.823	1319.692	996.440
377.986	16.746	1318.904	995.307
379.000	16.860	1318.071	995.259
380.015	16.738	1317.551	994.061
381.029	16.896	1316.901	994.410
382.044	16.817	1316.370	993.456
383.059	16.881	1315.329	992.959
384.073	16.888	1314.818	992.529
385.088	17.018	1313.744	992.389
386.102	16.931	1313.455	991.574
387.117	17.074	1312.471	991.577
388.132	17.008	1311.547	990.408
389.146	16.974	1310.296	989.176
390.161	16.848	1309.863	988.030
391.175	16.882	1309.437	987.814
392.190	16.861	1308.559	986.947
393.205	16.963	1307.773	986.859
394.219	16.956	1306.505	985.776
395.234	16.979	1305.500	985.062
396.248	17.080	1304.308	984.661
397.263	16.998	1302.988	983.100
398.278	17.064	1300.901	981.822
399.292	17.063	1300.110	981.133
400.307	17.115	1299.281	980.722
401.321	16.935	1298.805	979.235
402.336	16.887	1297.513	977.896
403.350	16.976	1296.749	977.748
404.365	16.867	1295.661	976.212
405.380	16.986	1294.642	976.045
406.394	16.964	1293.889	975.263
407.409	17.064	1293.154	975.198
408.423	17.169	1292.249	975.030
409.438	17.245	1291.937	975.145
410.453	17.257	1290.866	974.317
411.467	17.253	1290.196	973.708
412.482	17.222	1290.003	973.297
413.496	17.298	1288.913	972.820
414.511	17.358	1288.189	972.535
415.526	17.468	1287.197	972.325
416.540	17.448	1286.832	971.851
417.555	17.467	1286.167	971.369
418.569	17.451	1285.744	970.872
419.584	17.479	1285.191	970.528
420.599	17.457	1284.540	969.825
421.613	97.069	1355.715	1477.557
422.628	95.028	1366.026	1477.644
