DTS Sentinel unit serial number:	SN413079Multiplexer serial number:	ORYXHardware model number:	OX4-SRSoftware version number:	ORYX F/W v4.00 Oryx Data Collector v3.7.2.0data status	okinstallation	princeton_trtdifferential loss correction	single-endedforward channel	channel 4reverse channel	N/Adate	2019/09/18time	19:05:35forward acquisition time	60.00reverse acquisition time	0.00gamma	496.2192k internal	0.2305k external	0.2305temperature offset calibration	1.0023default loss term (dB/km)	0.3790temperature slope calibration	1.0000multiplexer offset coefficient	1.0000multiplexer slope coefficient	1.0000fibre end	0.00T internal ref (°C)	35.47T ext. ref 1 (°C)	0.94T ext. ref 2 (°C)	24.65length (m)	temperature (°C)	Stokes	anti-Stokes-747.200	-152.670	0.587	-0.043
-746.185	33.593	0.050	0.044
-745.171	-149.038	0.073	-0.006
-744.156	-141.711	-0.144	0.015
-743.142	21.388	0.213	-0.177
-742.127	-200.000	0.011	0.155
-741.112	-200.000	0.053	-0.244
-740.098	183.241	0.112	0.168
-739.083	-10.938	0.109	0.073
-738.069	529.958	0.066	0.158
-737.054	-86.785	0.101	-0.031
-736.039	63.914	-0.234	-0.239
-735.025	-116.908	0.015	-0.003
-734.010	-153.371	-0.293	-0.021
-732.996	-93.752	-0.134	-0.038
-731.981	-200.000	-0.005	0.100
-730.966	376.265	-0.093	-0.192
-729.952	-90.007	-0.317	0.094
-728.937	-1.712	-0.217	-0.156
-727.923	-85.601	0.322	0.102
-726.908	-72.541	0.080	0.030
-725.894	-29.870	-0.049	-0.028
-724.879	-200.000	0.020	-0.128
-723.864	800.000	0.062	-0.201
-722.850	134.877	0.213	-0.281
-721.835	-200.000	0.039	0.194
-720.821	135.398	0.107	0.141
-719.806	-69.785	-0.365	-0.142
-718.791	800.000	-0.084	0.279
-717.777	800.000	0.125	0.385
-716.762	-76.610	0.264	0.094
-715.748	234.824	-0.171	-0.287
-714.733	143.933	-0.202	-0.274
-713.718	-53.535	-0.081	0.038
-712.704	-19.724	-0.010	0.006
-711.689	-168.000	-0.080	0.003
-710.675	-67.961	0.193	0.077
-709.660	-113.376	-0.377	0.075
-708.645	-39.081	0.201	-0.107
-707.631	800.000	-0.041	-0.143
-706.616	-200.000	-0.010	0.171
-705.602	67.203	-0.113	0.117
-704.587	-0.726	-0.057	0.041
-703.572	708.173	0.083	0.222
-702.558	21.701	-0.351	0.291
-701.543	800.000	-0.066	0.225
-700.529	-66.378	0.161	0.065
-699.514	-200.000	0.005	-0.295
-698.499	295.146	-0.101	-0.187
-697.485	93.692	0.315	0.363
-696.470	800.000	-0.072	-0.216
-695.456	513.391	0.088	0.207
-694.441	368.729	-0.074	0.151
-693.426	-200.000	-0.029	0.229
-692.412	800.000	0.099	-0.330
-691.397	116.281	0.117	0.146
-690.383	114.273	0.211	0.261
-689.368	-79.381	0.176	-0.061
-688.354	-10.587	-0.041	0.027
-687.339	800.000	0.100	-0.412
-686.324	30.666	-0.198	-0.172
-685.310	362.126	-0.019	-0.039
-684.295	108.312	-0.171	-0.207
-683.281	-161.231	-0.182	-0.010
-682.266	-157.306	-0.228	-0.014
-681.251	-58.862	0.169	-0.074
-680.237	800.000	0.057	-0.246
-679.222	-200.000	0.018	0.210
-678.208	-119.935	-0.463	0.081
-677.193	309.294	0.105	0.199
-676.178	-200.000	-0.056	-0.343
-675.164	-200.000	0.021	0.459
-674.149	124.591	-0.341	-0.436
-673.135	-100.549	-0.281	-0.071
-672.120	194.158	0.087	-0.134
-671.105	-66.272	0.324	0.131
-670.091	156.159	0.289	-0.404
-669.076	-88.799	-0.379	-0.114
-668.062	-36.663	-0.273	0.149
-667.047	-200.000	0.001	-0.103
-666.032	146.645	-0.195	-0.266
-665.018	-200.000	0.015	-0.239
-664.003	-188.693	0.157	-0.002
-662.989	113.158	0.086	-0.106
-661.974	-23.804	-0.072	0.044
-660.959	-53.446	-0.265	0.123
-659.945	94.303	0.079	-0.091
-658.930	-65.076	-0.261	0.107
-657.916	-36.299	0.121	0.066
-656.901	350.281	-0.055	-0.110
-655.886	126.607	-0.137	0.176
-654.872	248.526	0.015	-0.026
-653.857	-85.155	-0.179	-0.057
-652.843	-13.745	-0.198	0.130
-651.828	57.892	-0.138	0.137
-650.814	266.893	-0.041	-0.073
-649.799	-160.374	-0.269	0.015
-648.784	81.420	0.069	-0.075
-647.770	180.882	0.081	-0.120
-646.755	-19.073	0.175	-0.110
-645.741	800.000	0.027	0.100
-644.726	170.557	0.123	0.179
-643.711	-162.832	-0.414	0.020
-642.697	-5.331	-0.125	0.087
-641.682	-200.000	-0.008	0.240
-640.668	-21.935	0.285	-0.175
-639.653	-103.049	0.141	-0.034
-638.638	-123.613	0.134	0.022
-637.624	63.170	0.084	0.086
-636.609	800.000	-0.040	0.129
-635.595	-77.326	-0.035	0.012
-634.580	800.000	0.072	-0.291
-633.565	-151.220	-0.196	-0.015
-632.551	161.067	0.089	0.125
-631.536	261.213	-0.057	-0.100
-630.522	-19.991	-0.202	0.127
-629.507	-200.000	0.012	0.078
-628.492	800.000	-0.043	0.127
-627.478	410.277	-0.101	0.216
-626.463	596.931	0.124	0.310
-625.449	-200.000	-0.022	0.230
-624.434	-132.736	0.041	0.005
-623.419	33.636	0.285	-0.251
-622.405	-10.254	-0.057	0.038
-621.390	668.386	-0.061	-0.160
-620.376	-152.486	-0.148	-0.011
-619.361	472.230	-0.060	0.136
-618.346	345.766	0.098	-0.196
-617.332	158.098	-0.087	0.122
-616.317	87.371	0.268	-0.301
-615.303	-29.984	-0.203	-0.117
-614.288	-200.000	0.009	0.159
-613.273	708.595	0.037	0.100
-612.259	-108.601	0.229	0.050
-611.244	29.745	-0.192	-0.166
-610.230	79.084	0.226	0.245
-609.215	-200.000	-0.002	0.009
-608.201	-101.588	0.241	-0.059
-607.186	-106.991	0.282	-0.063
-606.171	7.873	-0.218	-0.166
-605.157	800.000	-0.092	-0.347
-604.142	-52.523	-0.121	-0.057
-603.128	0.587	0.115	-0.083
-602.113	800.000	-0.118	-0.397
-601.098	-200.000	-0.015	0.219
-600.084	-200.000	0.024	-0.252
-599.069	-200.000	0.019	0.114
-598.055	55.431	-0.102	-0.100
-597.040	-200.000	-0.011	0.388
-596.025	245.311	0.210	-0.358
-595.011	800.000	0.050	-0.142
-593.996	-111.918	0.246	0.050
-592.982	-1.212	0.168	-0.120
-591.967	220.426	-0.143	0.232
-590.952	634.714	0.072	-0.185
-589.938	124.647	0.222	-0.283
-588.923	-200.000	0.001	-0.178
-587.909	-200.000	-0.050	0.332
-586.894	-65.921	0.035	0.014
-585.879	-109.171	0.058	-0.012
-584.865	-6.098	0.341	-0.236
-583.850	-137.966	-0.257	0.029
-582.836	43.869	0.289	-0.268
-581.821	-11.201	0.286	-0.191
-580.806	10.976	-0.070	-0.054
-579.792	296.677	-0.118	0.218
-578.777	-143.191	0.181	0.018
-577.763	52.479	-0.041	0.039
-576.748	800.000	0.079	0.324
-575.733	-65.330	-0.084	-0.034
-574.719	-200.000	-0.028	0.147
-573.704	-43.716	-0.149	0.076
-572.690	124.005	-0.054	0.068
-571.675	276.303	0.201	-0.361
-570.661	-130.051	-0.061	-0.008
-569.646	-135.052	0.421	-0.051
-568.631	-100.331	-0.483	-0.121
-567.617	-114.617	-0.151	-0.029
-566.602	-140.274	0.255	0.027
-565.588	-200.000	-0.050	0.254
-564.573	179.184	-0.082	0.122
-563.558	234.192	-0.180	0.300
-562.544	84.952	-0.192	0.212
-561.529	166.389	0.097	0.139
-560.515	42.073	-0.036	0.033
-559.500	11.788	-0.303	-0.235
-558.485	-200.000	-0.000	-0.112
-557.471	8.517	-0.256	-0.195
-556.456	800.000	0.052	-0.157
-555.442	80.315	-0.125	0.136
-554.427	800.000	-0.135	0.445
-553.412	49.881	0.235	-0.224
-552.398	26.778	-0.086	-0.072
-551.383	8.794	0.092	-0.070
-550.369	32.572	0.177	-0.155
-549.354	20.922	0.406	-0.332
-548.339	-38.358	-0.376	0.201
-547.325	-101.027	-0.149	0.037
-546.310	157.844	0.170	0.238
-545.296	116.704	-0.152	0.188
-544.281	26.843	0.049	0.042
-543.266	106.604	-0.096	0.115
-542.252	800.000	0.108	0.331
-541.237	115.249	0.086	-0.106
-540.223	-43.423	-0.164	-0.084
-539.208	800.000	0.097	-0.351
-538.193	-68.016	-0.192	0.076
-537.179	13.599	-0.255	0.200
-536.164	-62.616	0.239	0.100
-535.150	-149.827	-0.101	-0.008
-534.135	800.000	-0.030	-0.085
-533.121	-200.000	-0.016	-0.112
-532.106	-200.000	-0.024	-0.154
-531.091	744.106	-0.061	-0.165
-530.077	-200.000	-0.036	-0.184
-529.062	-42.213	0.228	-0.117
-528.048	1.145	0.055	-0.040
-527.033	-37.123	-0.088	-0.047
-526.018	-87.684	0.179	0.055
-525.004	-200.000	-0.018	-0.126
-523.989	17.619	0.217	-0.174
-522.975	293.276	0.109	-0.202
-521.960	-200.000	0.011	0.129
-520.945	-200.000	0.001	0.126
-519.931	-200.000	-0.078	0.379
-518.916	-85.352	0.079	0.025
-517.902	263.452	0.105	-0.184
-516.887	-89.458	0.316	0.094
-515.872	-115.290	0.216	-0.041
-514.858	284.538	0.199	0.361
-513.843	-200.000	0.049	0.262
-512.829	800.000	0.019	-0.072
-511.814	38.302	0.105	0.094
-510.799	446.534	-0.175	-0.389
-509.785	-200.000	-0.028	-0.498
-508.770	-200.000	0.001	0.269
-507.756	279.436	0.045	0.080
-506.741	-69.724	-0.189	-0.073
-505.726	-65.981	0.257	0.104
-504.712	-167.592	0.364	-0.015
-503.697	191.724	0.165	-0.250
-502.683	-94.055	-0.105	-0.029
-501.668	431.711	-0.075	0.165
-500.653	44.983	-0.230	-0.214
-499.639	-94.924	-0.148	0.040
-498.624	101.990	0.132	-0.155
-497.610	-200.000	0.000	-0.170
-496.595	-114.635	0.025	-0.005
-495.581	-200.000	0.031	0.280
-494.566	-200.000	-0.028	0.178
-493.551	31.223	-0.287	0.248
-492.537	-92.955	-0.310	0.087
-491.522	-200.000	0.010	0.232
-490.508	297.597	0.120	-0.222
-489.493	-11.498	-0.065	-0.043
-488.478	-153.325	-0.387	0.027
-487.464	69.491	0.174	0.180
-486.449	-200.000	-0.009	-0.461
-485.435	-140.431	0.098	-0.010
-484.420	423.164	0.028	0.061
-483.405	-28.197	-0.089	0.052
-482.391	-200.000	-0.027	-0.227
-481.376	800.000	0.135	-0.434
-480.362	-28.965	-0.159	0.092
-479.347	-200.000	-0.031	0.162
-478.332	203.013	-0.111	-0.173
-477.318	417.699	0.122	0.263
-476.303	-200.000	0.002	-0.119
-475.289	-189.105	-0.404	0.005
-474.274	100.785	0.008	-0.010
-473.259	-156.368	-0.455	-0.029
-472.245	335.444	0.045	-0.088
-471.230	-200.000	-0.042	0.227
-470.216	-79.667	-0.210	-0.071
-469.201	242.712	-0.209	0.353
-468.186	-63.568	-0.368	-0.152
-467.172	78.850	-0.275	-0.297
-466.157	800.000	-0.045	0.183
-465.143	46.356	0.191	-0.178
-464.128	233.573	-0.100	-0.166
-463.113	-130.462	-0.221	-0.030
-462.099	-70.199	0.154	-0.059
-461.084	-200.000	0.026	0.348
-460.070	75.620	-0.120	-0.127
-459.055	146.702	-0.116	0.157
-458.040	33.546	-0.102	-0.089
-457.026	-200.000	-0.004	0.301
-456.011	-115.241	-0.159	-0.030
-454.997	178.859	0.146	0.214
-453.982	23.260	-0.063	0.052
-452.968	16.811	0.278	0.222
-451.953	305.479	0.186	0.347
-450.938	155.004	-0.031	-0.043
-449.924	-72.000	-0.070	0.026
-448.909	8.001	-0.223	0.168
-447.895	800.000	-0.055	-0.168
-446.880	83.554	0.042	-0.046
-445.865	20.528	0.202	-0.165
-444.851	-160.553	-0.431	-0.023
-443.836	-151.756	-0.400	-0.030
-442.822	-103.304	0.223	-0.053
-441.807	181.605	0.077	-0.114
-440.792	-24.141	-0.141	-0.085
-439.778	-47.742	-0.182	-0.089
-438.763	430.136	-0.037	0.081
-437.749	-200.000	-0.024	0.230
-436.734	-104.962	0.104	0.024
-435.719	-200.000	0.113	0.519
-434.705	117.020	-0.085	0.104
-433.690	124.584	-0.113	-0.143
-432.676	-200.000	0.014	-0.322
-431.661	209.901	-0.190	-0.299
-430.646	45.755	-0.224	-0.208
-429.632	800.000	-0.030	-0.127
-428.617	224.798	0.042	0.069
-427.603	-23.976	0.149	0.089
-426.588	-200.000	-0.004	0.240
-425.573	-131.457	-0.364	0.048
-424.559	163.814	-0.093	0.132
-423.544	93.822	-0.092	0.105
-422.530	-200.000	0.048	-0.307
-421.515	410.327	0.189	0.403
-420.500	76.657	-0.203	0.216
-419.486	800.000	0.082	-0.320
-418.471	-78.548	-0.230	-0.079
-417.457	-34.093	-0.343	0.189
-416.442	-101.242	0.179	0.044
-415.428	371.086	0.131	0.267
-414.413	800.000	-0.024	0.069
-413.398	3.357	0.100	-0.073
-412.384	-137.088	-0.117	-0.013
-411.369	-52.550	-0.228	0.106
-410.355	800.000	-0.050	-0.210
-409.340	-59.285	-0.149	0.065
-408.325	-120.411	-0.035	0.006
-407.311	18.631	0.272	-0.218
-406.296	-200.000	-0.032	-0.273
-405.282	-100.134	-0.471	-0.118
-404.267	-200.000	-0.027	-0.216
-403.252	89.518	-0.068	-0.076
-402.238	-43.963	-0.192	-0.097
-401.223	100.999	-0.254	0.297
-400.209	-143.087	0.228	-0.022
-399.194	545.045	0.112	0.268
-398.179	-200.000	0.028	-0.129
-397.165	-5.758	0.125	0.086
-396.150	-200.000	0.076	-0.477
-395.136	61.171	0.071	-0.071
-394.121	52.112	0.247	0.236
-393.106	-200.000	0.038	0.319
-392.092	-137.129	-0.142	0.016
-391.077	20.906	-0.159	0.129
-390.063	-173.494	-0.173	-0.005
-389.048	-200.000	-0.036	-0.175
-388.033	-83.356	-0.110	0.035
-387.019	-31.263	0.311	-0.176
-386.004	412.627	0.024	-0.050
-384.990	90.973	0.318	0.357
-383.975	-200.000	0.040	-0.186
-382.960	-49.162	0.156	-0.075
-381.946	-200.000	0.078	0.643
-380.931	-83.117	0.085	0.027
-379.917	-130.545	0.098	0.013
-378.902	82.522	-0.073	-0.079
-377.888	-190.167	0.256	-0.003
-376.873	23.842	-0.194	-0.160
-375.858	-101.989	0.099	-0.024
-374.844	341.524	-0.028	0.055
-373.829	800.000	0.091	-0.337
-372.815	334.695	-0.057	-0.111
-371.800	109.390	0.023	0.028
-370.785	-78.676	-0.214	-0.073
-369.771	-200.000	-0.003	0.269
-368.756	-98.058	0.074	-0.019
-367.742	800.000	0.056	0.155
-366.727	92.149	-0.128	0.144
-365.712	685.192	0.019	0.050
-364.698	-200.000	-0.005	0.209
-363.683	-200.000	0.012	-0.163
-362.669	-87.594	-0.344	0.104
-361.654	-12.050	0.270	-0.177
-360.639	800.000	0.040	-0.150
-359.625	-117.512	-0.079	-0.014
-358.610	5.312	0.037	0.027
-357.596	27.145	0.073	-0.061
-356.581	86.101	0.143	-0.157
-355.566	50.027	-0.222	0.210
-354.552	800.000	0.063	0.239
-353.537	137.865	-0.156	0.205
-352.523	800.000	-0.030	-0.089
-351.508	-107.083	0.208	-0.046
-350.493	28.233	0.213	0.180
-349.479	-10.687	0.034	0.023
-348.464	-200.000	0.027	0.306
-347.450	-42.828	0.182	-0.092
-346.435	-200.000	0.071	0.341
-345.420	-12.545	-0.156	0.102
-344.406	-200.000	0.064	-0.452
-343.391	-200.000	0.041	0.275
-342.377	-200.000	-0.007	0.063
-341.362	-200.000	-0.449	-0.000
-340.348	-83.166	0.424	-0.137
-339.333	-200.000	0.019	0.232
-338.318	622.201	0.060	0.152
-337.304	-58.026	0.151	0.066
-336.289	36.700	-0.172	0.152
-335.275	800.000	-0.044	-0.174
-334.260	-160.522	0.295	0.016
-333.245	293.567	-0.195	-0.357
-332.231	-90.444	0.413	0.120
-331.216	-200.000	-0.041	0.343
-330.202	-97.714	0.261	0.068
-329.187	510.807	0.103	-0.240
-328.172	-127.787	0.289	-0.042
-327.158	-113.601	-0.258	-0.050
-326.143	303.108	0.151	0.281
-325.129	103.166	0.065	0.076
-324.114	-24.466	0.288	0.172
-323.099	785.905	0.010	0.028
-322.085	-44.541	0.352	-0.176
-321.070	42.078	0.362	-0.329
-320.056	26.130	-0.214	0.179
-319.041	390.439	-0.123	-0.256
-318.026	-200.000	-0.012	0.136
-317.012	38.738	-0.150	-0.134
-315.997	625.608	0.136	-0.344
-314.983	-200.000	-0.039	-0.278
-313.968	800.000	0.044	-0.163
-312.953	55.478	-0.142	0.138
-311.939	800.000	0.075	0.270
-310.924	-46.359	0.112	-0.055
-309.910	-139.033	-0.185	0.020
-308.895	-62.977	-0.205	0.085
-307.880	-128.513	-0.117	-0.017
-306.866	-71.481	-0.159	0.059
-305.851	90.335	-0.074	0.083
-304.837	83.049	0.178	-0.194
-303.822	-81.614	0.320	0.105
-302.807	-200.000	-0.024	0.149
-301.793	41.124	-0.170	0.154
-300.778	800.000	-0.015	0.047
-299.764	-43.956	-0.406	-0.204
-298.749	-200.000	0.027	-0.231
-297.735	508.976	0.100	0.233
-296.720	-107.394	0.371	0.081
-295.705	130.231	-0.079	0.101
-294.691	10.884	0.261	-0.199
-293.676	-200.000	0.004	-0.038
-292.662	-80.318	-0.442	0.148
-291.647	800.000	0.063	-0.198
-290.632	-146.959	-0.168	-0.014
-289.618	159.382	-0.236	-0.328
-288.603	-160.308	0.240	-0.013
-287.589	560.565	0.089	0.215
-286.574	-77.295	-0.254	0.088
-285.559	-132.859	-0.343	-0.044
-284.545	-49.702	0.116	-0.055
-283.530	-190.275	-0.086	0.001
-282.516	522.631	0.107	-0.251
-281.501	-34.350	-0.217	0.119
-280.486	800.000	-0.061	-0.196
-279.472	148.045	-0.085	-0.115
-278.457	800.000	-0.055	-0.230
-277.443	800.000	-0.034	-0.095
-276.428	-117.868	0.352	-0.063
-275.413	-200.000	0.008	0.041
-274.399	333.049	0.091	0.175
-273.384	-120.227	-0.382	-0.065
-272.370	-200.000	0.055	0.327
-271.355	193.836	-0.083	0.125
-270.340	396.883	-0.024	0.050
-269.326	-107.562	-0.240	0.053
-268.311	-200.000	-0.003	0.148
-267.297	502.237	-0.080	-0.186
-266.282	-94.134	0.220	-0.060
-265.267	280.412	0.236	-0.421
-264.253	-200.000	-0.007	0.458
-263.238	-79.148	0.146	-0.050
-262.224	7.492	0.094	-0.070
-261.209	208.762	0.061	-0.095
-260.195	-145.477	0.140	0.013
-259.180	-60.652	-0.121	0.051
-258.165	800.000	-0.026	-0.081
-257.151	-200.000	-0.011	0.115
-256.136	800.000	0.087	-0.253
-255.122	121.114	-0.140	-0.174
-254.107	-132.257	0.112	-0.014
-253.092	-59.282	0.114	0.049
-252.078	501.936	-0.067	-0.154
-251.063	61.545	-0.283	-0.281
-250.049	-49.995	-0.171	-0.081
-249.034	-57.394	0.283	0.124
-248.019	108.413	-0.226	-0.269
-247.005	-71.801	0.116	-0.043
-245.990	-1.812	0.048	-0.034
-244.976	17.502	0.158	-0.125
-243.961	606.669	0.191	-0.475
-242.946	-18.071	-0.257	0.161
-241.932	-200.000	0.065	0.384
-240.917	762.475	-0.050	0.137
-239.903	9.991	0.292	0.221
-238.888	800.000	-0.012	0.045
-237.873	547.237	0.051	-0.123
-236.859	-161.016	0.129	0.007
-235.844	236.482	0.097	0.159
-234.830	-200.000	0.019	0.110
-233.815	-155.882	-0.063	-0.004
-232.800	800.000	0.109	0.396
-231.786	-68.672	-0.230	0.089
-230.771	112.060	-0.152	-0.184
-229.757	800.000	0.037	-0.108
-228.742	248.510	-0.180	0.304
-227.727	34.266	-0.083	-0.072
-226.713	-70.359	-0.169	0.064
-225.698	-2.343	0.061	0.043
-224.684	-200.000	-0.042	0.276
-223.669	800.000	0.042	-0.142
-222.655	-3.083	-0.350	0.244
-221.640	-200.000	-0.007	-0.244
-220.625	800.000	0.092	0.285
-219.611	-134.213	-0.334	-0.041
-218.596	-119.507	0.113	0.019
-217.582	75.270	0.040	0.042
-216.567	800.000	0.047	-0.141
-215.552	800.000	0.004	-0.017
-214.538	-8.158	-0.150	0.100
-213.523	800.000	-0.019	-0.073
-212.509	-5.554	-0.163	-0.111
-211.494	365.603	0.050	0.100
-210.479	171.654	-0.071	0.102
-209.465	360.727	0.158	0.316
-208.450	-33.374	0.046	0.025
-207.436	7.745	-0.180	-0.134
-206.421	-159.767	0.490	0.027
-205.406	356.889	0.089	0.176
-204.392	-151.617	-0.283	-0.021
-203.377	71.331	0.229	-0.236
-202.363	-18.349	0.372	-0.232
-201.348	-39.735	0.108	-0.056
-200.333	-16.606	0.245	0.154
-199.319	-4.313	-0.232	-0.160
-198.304	-51.367	0.157	0.073
-197.290	-200.000	0.003	-0.078
-196.275	276.157	-0.078	0.139
-195.260	-200.000	0.020	-0.215
-194.246	36.308	-0.134	-0.118
-193.231	-200.000	-0.015	0.465
-192.217	800.000	0.087	0.367
-191.202	-174.093	-0.152	0.004
-190.187	-96.748	0.325	-0.085
-189.173	-46.643	0.101	0.049
-188.158	167.115	-0.136	-0.192
-187.144	-130.611	-0.328	-0.044
-186.129	-20.523	0.224	-0.137
-185.114	-96.183	0.127	-0.034
-184.100	-32.447	-0.038	-0.021
-183.085	-200.000	-0.011	-0.185
-182.071	-200.000	0.004	-0.353
-181.056	-65.014	-0.047	0.019
-180.042	-117.325	0.162	0.029
-179.027	-117.966	0.504	-0.090
-178.012	-35.598	-0.098	0.053
-176.998	800.000	0.034	0.122
-175.983	-109.964	-0.025	-0.005
-174.969	-23.380	-0.105	-0.063
-173.954	-50.015	0.206	0.097
-172.939	800.000	0.024	-0.072
-171.925	-75.512	0.408	0.144
-170.910	-20.628	-0.073	0.045
-169.896	234.441	-0.096	0.158
-168.881	-200.000	-0.016	-0.105
-167.866	-200.000	0.213	-0.001
-166.852	-44.054	0.190	-0.095
-165.837	-110.456	0.252	0.052
-164.823	32.111	-0.048	-0.041
-163.808	-23.023	-0.168	0.100
-162.793	-200.000	0.009	-0.451
-161.779	57.419	-0.162	-0.158
-160.764	-124.501	0.329	-0.051
-159.750	-45.104	0.122	-0.060
-158.735	-200.000	-0.011	-0.108
-157.720	29.421	-0.294	-0.248
-156.706	236.992	-0.193	0.318
-155.691	-58.879	0.214	0.092
-154.677	104.743	0.249	-0.292
-153.662	-142.751	-0.212	-0.021
-152.647	800.000	-0.105	0.345
-151.633	-128.896	-0.347	-0.048
-150.618	-125.372	-0.413	-0.063
-149.604	800.000	-0.049	0.213
-148.589	84.154	0.187	0.203
-147.574	-155.113	-0.232	-0.015
-146.560	182.283	-0.088	0.128
-145.545	206.537	-0.100	0.155
-144.531	-130.463	0.062	0.008
-143.516	317.062	0.214	-0.401
-142.502	-200.000	0.010	-0.045
-141.487	-171.742	-0.239	-0.008
-140.472	800.000	-0.098	0.295
-139.458	-9.331	0.071	0.047
-138.443	-38.772	-0.186	0.098
-137.429	-82.556	0.412	-0.133
-136.414	-200.000	0.005	-0.228
-135.399	-200.000	0.006	-0.162
-134.385	-160.934	0.238	0.012
-133.370	-200.000	0.037	0.165
-132.356	800.000	0.083	0.244
-131.341	274.896	-0.115	0.203
-130.326	550.729	0.010	0.024
-129.312	56.711	-0.177	-0.171
-128.297	174.053	0.083	0.119
-127.283	-56.100	0.082	0.036
-126.268	-152.239	-0.194	0.014
-125.253	-91.968	-0.108	0.030
-124.239	-22.912	-0.218	0.130
-123.224	580.301	-0.093	0.226
-122.210	-200.000	-0.009	0.314
-121.195	41.984	0.160	0.144
-120.180	27.963	0.395	0.331
-119.166	-65.022	-0.184	-0.074
-118.151	-200.000	0.000	0.052
-117.137	-21.839	-0.054	-0.033
-116.122	-200.000	-0.008	0.141
-115.107	800.000	-0.030	-0.119
-114.093	89.720	0.130	-0.145
-113.078	-200.000	0.075	0.402
-112.064	66.496	0.222	0.224
-111.049	800.000	0.071	0.207
-110.034	-95.798	0.241	-0.064
-109.020	-46.695	-0.183	0.089
-108.005	-78.514	0.234	-0.080
-106.991	-88.749	0.272	-0.080
-105.976	230.356	-0.222	0.360
-104.962	-133.695	0.184	-0.023
-103.947	-200.000	0.001	0.324
-102.932	52.051	-0.150	-0.142
-101.918	-24.142	0.184	0.109
-100.903	-200.000	0.016	-0.227
-99.889	-96.450	0.180	0.047
-98.874	-62.619	0.482	0.198
-97.859	-12.238	0.156	0.101
-96.845	-200.000	0.027	0.150
-95.830	-99.161	-0.130	0.033
-94.816	-166.910	0.214	-0.009
-93.801	-55.506	-0.413	0.184
-92.786	23.694	-0.044	0.036
-91.772	103.678	0.137	0.159
-90.757	128.511	-0.142	-0.180
-89.743	120.275	-0.167	0.205
-88.728	-21.506	0.156	-0.095
-87.713	279.963	0.142	0.252
-86.699	-68.038	0.161	0.062
-85.684	800.000	0.066	0.193
-84.670	376.768	0.019	0.039
-83.655	27.979	0.209	0.174
-82.640	-200.000	-0.009	0.042
-81.626	-77.770	-0.260	0.089
-80.611	-200.000	-0.052	-0.437
-79.597	-83.719	0.195	-0.062
-78.582	28.030	0.197	0.165
-77.567	-200.000	0.042	0.269
-76.553	-18.879	0.340	0.210
-75.538	-60.943	0.264	-0.111
-74.524	68.287	0.156	0.159
-73.509	800.000	0.066	-0.230
-72.494	42.803	0.157	-0.142
-71.480	-95.667	-0.318	0.084
-70.465	-134.826	0.108	0.013
-69.451	279.378	0.111	0.197
-68.436	294.784	-0.042	0.075
-67.422	-28.870	0.217	0.124
-66.407	-52.690	-0.136	0.062
-65.392	45.364	0.128	-0.117
-64.378	-200.000	-0.032	0.198
-63.363	6.996	0.473	0.350
-62.349	-21.209	0.494	-0.299
-61.334	160.075	-0.743	-1.027
-60.319	-1.236	0.537	0.376
-59.305	800.000	-0.289	-1.120
-58.290	286.927	0.470	0.842
-57.276	800.000	0.544	1.620
-56.261	-200.000	95.069	570.605
-55.246	541.317	1383.048	3264.038
-54.232	151.782	2587.497	3493.209
-53.217	104.570	2336.708	2726.099
-52.203	42.145	2089.070	1878.936
-51.188	37.341	2001.957	1757.200
-50.173	35.710	1984.201	1726.906
-49.159	50.406	2032.081	1902.386
-48.144	52.943	2051.246	1943.300
-47.130	37.852	2011.953	1770.340
-46.115	35.554	2000.569	1739.462
-45.100	35.423	1997.628	1735.656
-44.086	35.361	1995.474	1733.150
-43.071	35.321	1992.949	1730.532
-42.057	35.294	1990.953	1728.483
-41.042	35.412	1988.986	1727.769
-40.027	35.338	1987.325	1725.599
-39.013	35.366	1985.247	1723.973
-37.998	35.393	1983.719	1722.822
-36.984	35.357	1981.875	1720.828
-35.969	35.434	1979.638	1719.505
-34.954	35.419	1977.702	1717.625
-33.940	35.407	1976.611	1716.500
-32.925	35.471	1974.584	1715.241
-31.911	35.535	1973.009	1714.377
-30.896	35.564	1970.949	1712.784
-29.881	35.494	1969.713	1711.017
-28.867	35.587	1967.882	1710.182
-27.852	35.541	1965.903	1707.987
-26.838	35.525	1964.065	1706.184
-25.823	35.517	1962.426	1704.617
-24.809	35.475	1960.531	1702.527
-23.794	35.474	1958.831	1700.977
-22.779	35.449	1957.343	1699.395
-21.765	35.477	1955.343	1697.840
-20.750	35.488	1953.632	1696.388
-19.736	35.440	1952.814	1695.185
-18.721	35.572	1950.615	1694.370
-17.706	35.484	1949.405	1692.478
-16.692	35.570	1947.008	1691.091
-15.677	35.510	1946.072	1689.676
-14.663	35.527	1944.684	1688.555
-13.648	35.408	1944.031	1686.876
-12.633	35.472	1942.205	1685.790
-11.619	35.492	1940.605	1684.511
-10.604	35.465	1939.075	1682.878
-9.590	35.443	1937.988	1681.675
-8.575	35.450	1936.607	1680.464
-7.560	35.416	1935.494	1679.141
-6.546	35.490	1933.620	1678.092
-5.531	35.473	1932.429	1676.841
-4.517	35.443	1931.476	1675.685
-3.502	35.389	1929.999	1673.869
-2.487	35.445	1928.761	1673.217
-1.473	35.390	1928.414	1672.367
-0.458	35.316	1923.572	1667.463
0.556	33.222	1900.409	1628.129
1.571	26.800	1874.486	1551.049
2.586	20.772	1891.802	1513.020
3.600	18.664	1925.677	1521.314
4.615	17.995	1920.135	1510.882
5.629	14.074	1822.729	1401.129
6.644	6.233	1704.390	1248.037
7.659	1.465	1666.158	1182.887
8.673	1.063	1662.195	1176.849
9.688	0.974	1661.003	1175.214
10.702	0.896	1660.217	1173.949
11.717	0.807	1656.723	1170.684
12.731	1.266	1655.880	1173.532
13.746	6.809	1667.434	1224.692
14.761	14.260	1682.554	1293.788
15.775	17.489	1686.927	1322.155
16.790	17.552	1685.666	1321.541
17.804	16.533	1682.569	1311.100
18.819	15.612	1679.364	1301.359
19.834	14.976	1676.666	1294.232
20.848	14.716	1674.985	1290.814
21.863	14.442	1673.730	1287.614
22.877	14.239	1671.653	1284.339
23.892	13.893	1670.729	1280.847
24.907	13.816	1669.203	1278.965
25.921	13.796	1668.232	1277.954
26.936	13.781	1667.510	1277.178
27.950	13.855	1666.503	1276.859
28.965	13.917	1666.216	1277.002
29.980	13.936	1665.473	1276.470
30.994	13.919	1664.652	1275.591
32.009	14.048	1663.498	1275.583
33.023	14.047	1662.390	1274.616
34.038	14.059	1661.890	1274.210
35.053	13.951	1660.857	1272.479
36.067	14.010	1659.386	1271.696
37.082	14.038	1658.517	1271.129
38.096	14.068	1657.742	1270.650
39.111	14.003	1656.697	1269.240
40.126	14.056	1655.542	1268.646
41.140	14.022	1654.648	1267.591
42.155	13.863	1653.869	1265.670
43.169	13.868	1651.685	1263.923
44.184	13.815	1651.577	1263.327
45.199	13.776	1650.077	1261.775
46.213	13.866	1648.539	1261.170
47.228	13.903	1647.477	1260.524
48.242	13.861	1646.481	1259.332
49.257	13.937	1644.781	1258.499
50.271	13.876	1643.913	1257.261
51.286	13.905	1642.369	1256.185
52.301	13.907	1641.333	1255.300
53.315	13.932	1639.857	1254.245
54.330	13.891	1638.283	1252.623
55.344	13.877	1636.820	1251.284
56.359	13.758	1635.647	1249.383
57.374	13.869	1634.024	1248.869
58.388	13.876	1633.185	1248.169
59.403	13.906	1631.598	1247.069
60.417	13.810	1630.345	1245.283
61.432	13.789	1629.123	1244.085
62.447	13.786	1627.861	1242.983
63.461	13.758	1626.852	1241.898
64.476	13.725	1625.771	1240.713
65.490	13.726	1624.017	1239.275
66.505	13.706	1623.165	1238.362
67.520	13.732	1622.298	1237.785
68.534	13.756	1621.427	1237.189
69.549	13.722	1620.665	1236.249
70.563	13.805	1618.967	1235.465
71.578	13.817	1617.350	1234.209
72.593	13.847	1616.223	1233.459
73.607	13.713	1615.374	1231.707
74.622	13.760	1614.501	1231.286
75.636	13.700	1613.317	1229.828
76.651	13.634	1612.744	1228.793
77.666	13.666	1611.487	1227.965
78.680	13.707	1610.477	1227.389
79.695	13.658	1610.229	1226.730
80.709	13.700	1608.456	1225.577
81.724	13.732	1607.786	1225.196
82.739	13.799	1606.593	1224.675
83.753	13.706	1605.678	1223.181
84.768	13.877	1604.492	1223.433
85.782	13.834	1604.080	1222.687
86.797	13.939	1602.881	1222.440
87.812	13.992	1601.736	1221.853
88.826	13.858	1600.766	1220.013
89.841	13.859	1599.362	1218.847
90.855	13.902	1598.615	1218.484
91.870	13.825	1597.774	1217.169
92.884	13.965	1596.331	1216.992
93.899	13.958	1595.430	1216.143
94.914	13.867	1594.165	1214.409
95.928	13.989	1592.951	1214.263
96.943	14.009	1591.743	1213.384
97.957	13.947	1590.637	1211.979
98.972	13.918	1588.932	1210.363
99.987	13.960	1586.882	1208.999
101.001	13.953	1585.637	1207.895
102.016	13.958	1584.058	1206.622
103.030	13.921	1583.030	1205.462
104.045	13.930	1581.948	1204.593
105.060	13.993	1580.114	1203.549
106.074	13.908	1579.010	1201.984
107.089	13.921	1577.397	1200.746
108.103	13.840	1575.635	1198.715
109.118	13.700	1574.918	1197.056
110.133	13.813	1573.127	1196.400
111.147	13.909	1571.355	1195.634
112.162	13.793	1570.539	1194.076
113.176	13.826	1569.267	1193.238
114.191	13.809	1568.162	1192.172
115.206	13.834	1566.797	1191.210
116.220	13.920	1565.037	1190.381
117.235	13.895	1564.001	1189.311
118.249	13.823	1562.676	1187.681
119.264	13.882	1561.265	1186.928
120.279	13.875	1560.142	1185.914
121.293	13.806	1558.717	1184.238
122.308	13.895	1556.724	1183.249
123.322	13.913	1555.517	1182.357
124.337	13.875	1553.741	1180.634
125.352	13.880	1552.302	1179.471
126.366	13.824	1551.498	1178.356
127.381	13.845	1550.175	1177.396
128.395	13.769	1549.039	1175.894
129.410	13.894	1547.739	1175.684
130.424	13.893	1546.157	1174.372
131.439	13.862	1544.920	1173.111
132.454	13.880	1543.637	1172.157
133.468	13.878	1542.512	1171.189
134.483	13.969	1540.416	1170.131
135.497	13.996	1539.556	1169.565
136.512	13.966	1538.350	1168.337
137.527	14.009	1536.901	1167.436
138.541	13.930	1535.511	1165.722
139.556	13.995	1534.059	1164.974
140.570	13.990	1532.731	1163.829
141.585	14.009	1531.292	1162.764
142.600	14.078	1529.920	1162.103
143.614	14.067	1528.928	1161.167
144.629	14.082	1527.699	1160.238
145.643	14.163	1526.106	1159.487
146.658	14.120	1524.772	1158.074
147.673	14.027	1523.634	1156.457
148.687	14.088	1521.829	1155.412
149.702	14.108	1520.236	1154.237
150.716	14.077	1518.898	1152.907
151.731	14.096	1517.120	1151.585
152.746	14.004	1516.188	1150.141
153.760	14.076	1514.576	1149.311
154.775	14.030	1514.055	1148.499
155.789	14.090	1512.332	1147.502
156.804	14.083	1511.158	1146.459
157.819	14.189	1509.280	1145.663
158.833	14.211	1508.014	1144.756
159.848	14.223	1506.890	1143.879
160.862	14.214	1506.072	1143.097
161.877	14.292	1504.575	1142.396
162.892	14.294	1503.754	1141.682
163.906	14.198	1502.326	1139.846
164.921	14.222	1500.967	1138.878
165.935	14.247	1500.158	1138.330
166.950	14.206	1499.594	1137.523
167.964	14.259	1498.203	1136.730
168.979	14.170	1497.554	1135.529
169.994	14.200	1496.168	1134.584
171.008	14.250	1495.070	1133.989
172.023	14.285	1494.252	1133.507
173.037	14.322	1492.659	1132.450
174.052	14.379	1491.872	1132.139
175.067	14.386	1490.778	1131.257
176.081	14.256	1489.553	1129.347
177.096	14.294	1488.346	1128.587
178.110	14.296	1487.246	1127.670
179.125	14.268	1485.905	1126.364
180.140	14.308	1484.468	1125.441
181.154	14.313	1483.600	1124.719
182.169	14.296	1482.675	1123.801
183.183	14.504	1481.068	1123.886
184.198	14.501	1479.838	1122.833
185.213	14.332	1479.520	1121.356
186.227	14.504	1477.707	1121.040
187.242	14.475	1477.115	1120.296
188.256	14.573	1475.470	1119.609
189.271	14.529	1474.808	1118.713
190.286	14.631	1473.257	1118.119
191.300	14.535	1472.702	1116.952
192.315	14.413	1471.282	1114.967
193.329	14.483	1469.945	1114.318
194.344	14.482	1468.816	1113.359
195.359	14.509	1468.145	1112.931
196.373	14.495	1467.056	1111.917
197.388	14.561	1465.906	1111.385
198.402	14.549	1465.239	1110.701
199.417	14.587	1463.796	1109.759
200.432	14.603	1462.679	1108.919
201.446	14.696	1461.220	1108.338
202.461	14.729	1460.423	1107.849
203.475	14.704	1459.428	1106.831
204.490	14.760	1458.112	1106.110
205.504	14.725	1457.305	1105.168
206.519	14.813	1456.305	1104.889
207.534	14.827	1454.514	1103.526
208.548	14.751	1453.307	1102.013
209.563	14.773	1452.959	1101.798
210.577	14.765	1451.863	1100.816
211.592	14.763	1450.869	1099.950
212.607	14.801	1450.372	1099.730
213.621	14.852	1449.442	1099.261
214.636	14.856	1448.192	1098.239
215.650	14.882	1447.683	1097.928
216.665	14.894	1446.817	1097.254
217.680	14.820	1445.793	1095.892
218.694	14.887	1445.012	1095.643
219.709	15.039	1444.032	1095.799
220.723	15.004	1442.893	1094.610
221.738	14.997	1442.316	1094.032
222.753	14.888	1441.544	1092.636
223.767	14.979	1440.344	1092.222
224.782	14.995	1439.346	1091.477
225.796	15.010	1438.234	1090.631
226.811	15.058	1437.770	1090.492
227.826	15.067	1436.920	1089.811
228.840	15.088	1436.081	1089.218
229.855	15.043	1435.163	1088.129
230.869	14.984	1434.489	1087.143
231.884	15.062	1433.193	1086.568
232.899	14.990	1431.944	1085.062
233.913	15.045	1430.853	1084.493
234.928	15.013	1429.763	1083.363
235.942	15.085	1428.553	1082.818
236.957	14.980	1427.264	1081.067
237.972	15.003	1426.521	1080.557
238.986	15.075	1425.066	1079.819
240.001	15.086	1423.961	1078.958
241.015	14.969	1423.109	1077.467
242.030	15.097	1422.037	1077.379
243.045	15.129	1421.187	1076.850
244.059	15.202	1420.260	1076.517
245.074	15.229	1419.213	1075.801
246.088	15.151	1418.546	1074.702
247.103	15.285	1417.748	1074.861
248.117	15.223	1417.127	1073.902
249.132	15.288	1415.897	1073.288
250.147	15.249	1415.940	1072.979
251.161	15.414	1414.697	1072.994
252.176	15.518	1413.775	1072.862
253.190	15.499	1413.082	1072.123
254.205	15.539	1412.215	1071.628
255.220	15.588	1411.366	1071.197
256.234	15.520	1411.040	1070.424
257.249	15.515	1410.220	1069.677
258.263	15.556	1409.017	1068.931
259.278	15.550	1408.050	1068.062
260.293	15.622	1407.014	1067.637
261.307	15.616	1406.046	1066.773
262.322	15.646	1405.617	1066.541
263.336	15.634	1405.030	1065.924
264.351	15.637	1403.864	1064.965
265.366	15.642	1403.159	1064.370
266.380	15.753	1401.775	1063.926
267.395	15.637	1401.194	1062.656
268.409	15.842	1399.962	1062.925
269.424	15.749	1399.352	1061.778
270.439	15.706	1398.255	1060.583
271.453	15.760	1397.086	1059.943
272.468	15.717	1396.407	1059.065
273.482	15.688	1395.972	1058.457
274.497	15.778	1394.795	1058.035
275.512	15.803	1393.819	1057.361
276.526	15.762	1393.091	1056.457
277.541	15.783	1392.054	1055.709
278.555	15.742	1391.165	1054.683
279.570	15.784	1390.587	1054.417
280.585	15.733	1389.894	1053.477
281.599	15.910	1388.690	1053.579
282.614	15.935	1387.644	1052.847
283.628	15.973	1386.773	1052.334
284.643	15.892	1385.938	1051.100
285.657	15.998	1384.610	1050.662
286.672	15.976	1383.671	1049.718
287.687	15.968	1382.742	1048.874
288.701	15.979	1381.742	1048.086
289.716	16.001	1381.157	1047.687
290.730	16.041	1380.305	1047.197
291.745	16.114	1379.208	1046.728
292.760	15.991	1378.639	1045.441
293.774	16.064	1377.230	1044.727
294.789	16.109	1376.349	1044.250
295.803	16.181	1375.513	1043.969
296.818	16.163	1374.837	1043.249
297.833	16.122	1373.725	1042.059
298.847	16.067	1372.840	1040.956
299.862	16.147	1371.900	1040.648
300.876	16.241	1370.529	1040.096
301.891	16.200	1369.824	1039.217
302.906	16.217	1369.022	1038.617
303.920	16.236	1368.345	1038.130
304.935	16.277	1367.591	1037.716
305.949	16.308	1366.613	1037.073
306.964	16.290	1366.136	1036.512
307.979	16.350	1364.678	1035.681
308.993	16.428	1363.703	1035.328
310.008	16.419	1362.826	1034.515
311.022	16.413	1361.726	1033.553
312.037	16.357	1361.387	1032.861
313.052	16.338	1360.174	1031.732
314.066	16.418	1359.501	1031.618
315.081	16.372	1358.553	1030.525
316.095	16.349	1357.365	1029.392
317.110	16.381	1356.458	1028.810
318.125	16.447	1355.039	1028.043
319.139	16.423	1353.837	1026.895
320.154	16.400	1353.346	1026.292
321.168	16.395	1352.367	1025.431
322.183	16.355	1351.524	1024.456
323.197	16.436	1350.329	1023.952
324.212	16.477	1349.674	1023.615
325.227	16.485	1348.785	1022.896
326.241	16.473	1348.347	1022.401
327.256	16.474	1347.457	1021.640
328.270	16.507	1346.500	1021.021
329.285	16.618	1345.159	1020.584
330.300	16.461	1344.681	1019.188
331.314	16.449	1343.674	1018.259
332.329	16.494	1342.584	1017.614
333.343	16.568	1341.825	1017.394
334.358	16.541	1341.112	1016.604
335.373	16.602	1340.523	1016.431
336.387	16.701	1339.273	1015.992
337.402	16.573	1338.772	1014.750
338.416	16.610	1337.784	1014.136
339.431	16.632	1337.508	1013.968
340.446	16.714	1336.597	1013.677
341.460	16.761	1335.511	1013.046
342.475	16.790	1334.217	1012.148
343.489	16.784	1333.904	1011.782
344.504	16.754	1333.129	1010.927
345.519	16.799	1332.185	1010.393
346.533	16.859	1331.237	1009.943
347.548	16.922	1330.058	1009.332
348.562	16.937	1329.226	1008.702
349.577	17.033	1328.755	1008.825
350.592	16.985	1328.136	1007.980
351.606	16.893	1327.164	1006.605
352.621	16.893	1325.768	1005.460
353.635	16.905	1324.565	1004.531
354.650	16.894	1324.061	1003.995
355.665	16.878	1323.157	1003.124
356.679	16.915	1322.025	1002.396
357.694	16.893	1320.827	1001.267
358.708	17.007	1319.778	1001.058
359.723	16.914	1319.132	999.930
360.738	16.954	1318.018	999.233
361.752	17.046	1316.896	998.833
362.767	17.037	1315.624	997.730
363.781	16.997	1314.971	996.912
364.796	17.124	1314.184	996.971
365.810	17.187	1313.230	996.530
366.825	17.110	1312.652	995.553
367.840	17.200	1312.030	995.522
368.854	17.258	1311.227	995.160
369.869	17.115	1310.860	993.960
370.883	17.259	1310.070	994.110
371.898	17.274	1309.322	993.548
372.913	17.224	1308.808	992.777
373.927	17.166	1307.955	991.702
374.942	17.211	1307.007	991.159
375.956	17.317	1305.890	990.841
376.971	17.335	1305.420	990.500
377.986	17.296	1304.596	989.563
379.000	17.339	1303.694	989.038
380.015	17.432	1302.731	988.761
381.029	17.334	1302.357	987.819
382.044	17.461	1301.528	987.844
383.059	17.473	1300.871	987.327
384.073	17.477	1300.334	986.855
385.088	17.425	1299.917	986.149
386.102	17.467	1299.035	985.638
387.117	17.549	1297.911	985.169
388.132	17.482	1297.427	984.331
389.146	17.501	1296.419	983.588
390.161	17.506	1295.801	983.061
391.175	17.473	1295.024	982.195
392.190	17.545	1294.065	981.793
393.205	17.536	1293.338	981.105
394.219	17.522	1292.691	980.444
395.234	17.638	1290.672	979.493
396.248	17.642	1289.614	978.625
397.263	17.617	1288.407	977.481
398.278	17.695	1286.794	976.619
399.292	17.635	1286.048	975.620
400.307	17.617	1285.113	974.724
401.321	17.634	1284.068	973.941
402.336	17.565	1283.070	972.703
403.350	17.656	1282.274	972.533
404.365	17.594	1281.285	971.343
405.380	17.654	1280.366	970.903
406.394	17.720	1279.753	970.729
407.409	17.690	1278.783	969.738
408.423	17.772	1278.249	969.709
409.438	17.739	1277.706	969.025
410.453	17.771	1276.631	968.305
411.467	17.768	1276.244	967.908
412.482	17.787	1275.736	967.548
413.496	17.901	1274.703	967.326
414.511	17.885	1273.877	966.523
415.526	17.942	1273.255	966.286
416.540	17.947	1272.474	965.634
417.555	17.870	1272.249	964.947
418.569	17.969	1271.522	964.870
419.584	18.009	1270.916	964.548
420.599	18.129	1269.950	964.406
421.613	92.757	1344.587	1445.176
422.628	90.645	1355.435	1445.283
