DTS Sentinel unit serial number:	SN413079Multiplexer serial number:	ORYXHardware model number:	OX4-SRSoftware version number:	ORYX F/W v4.00 Oryx Data Collector v3.7.2.0data status	okinstallation	princeton_trtdifferential loss correction	single-endedforward channel	channel 4reverse channel	N/Adate	2019/09/15time	11:13:35forward acquisition time	60.00reverse acquisition time	0.00gamma	496.2192k internal	0.2298k external	0.2298temperature offset calibration	1.0014default loss term (dB/km)	0.3790temperature slope calibration	1.0000multiplexer offset coefficient	1.0000multiplexer slope coefficient	1.0000fibre end	0.00T internal ref (°C)	34.31T ext. ref 1 (°C)	5.03T ext. ref 2 (°C)	29.70length (m)	temperature (°C)	Stokes	anti-Stokes-747.200	232.311	-0.134	-0.225
-746.185	414.806	-0.090	0.195
-745.171	34.570	-0.251	-0.224
-744.156	-94.856	-0.401	-0.111
-743.142	-9.396	-0.248	0.169
-742.127	-104.773	-0.208	-0.049
-741.112	800.000	0.094	-0.273
-740.098	-200.000	-0.020	0.505
-739.083	-116.547	0.158	0.030
-738.069	-200.000	-0.009	0.065
-737.054	-76.943	-0.241	0.086
-736.039	-24.097	-0.375	-0.228
-735.025	444.999	-0.031	0.069
-734.010	-72.777	-0.429	-0.161
-732.996	256.005	-0.066	0.115
-731.981	214.887	0.075	0.121
-730.966	-190.863	-0.370	0.004
-729.952	-200.000	0.030	-0.149
-728.937	225.635	-0.238	-0.393
-727.923	800.000	0.044	0.180
-726.908	358.598	-0.025	-0.051
-725.894	449.591	0.040	0.090
-724.879	-140.895	-0.263	0.028
-723.864	-57.102	0.174	-0.078
-722.850	165.482	-0.118	0.170
-721.835	-177.733	-0.174	0.004
-720.821	-148.988	-0.262	0.021
-719.806	502.613	-0.113	0.267
-718.791	800.000	-0.036	0.107
-717.777	800.000	0.034	0.137
-716.762	-40.198	0.173	0.092
-715.748	183.188	-0.161	-0.242
-714.733	800.000	0.076	0.301
-713.718	25.075	0.256	-0.217
-712.704	60.128	0.250	-0.252
-711.689	115.069	0.076	0.095
-710.675	-28.286	0.133	-0.078
-709.660	-161.636	-0.071	0.004
-708.645	-56.350	-0.365	-0.165
-707.631	800.000	-0.085	0.240
-706.616	11.310	0.119	0.093
-705.602	-200.000	0.037	0.264
-704.587	255.780	-0.119	-0.207
-703.572	324.328	-0.211	-0.410
-702.558	0.493	-0.167	-0.122
-701.543	693.790	-0.090	-0.240
-700.529	-104.101	0.411	0.098
-699.514	543.215	-0.100	-0.244
-698.499	-200.000	0.013	-0.203
-697.485	-200.000	0.006	-0.119
-696.470	449.760	0.018	-0.042
-695.456	76.671	0.096	0.104
-694.441	83.619	-0.221	-0.246
-693.426	-200.000	-0.038	0.260
-692.412	-27.557	-0.271	0.160
-691.397	-177.799	-0.272	0.007
-690.383	263.763	0.253	-0.447
-689.368	-200.000	-0.002	0.154
-688.354	-200.000	-0.038	0.221
-687.339	-139.864	-0.201	-0.022
-686.324	177.235	-0.067	0.099
-685.310	-97.429	0.369	0.098
-684.295	213.716	0.112	-0.180
-683.281	800.000	0.023	0.090
-682.266	2.706	0.094	-0.070
-681.251	-63.330	0.124	-0.052
-680.237	138.098	0.025	0.034
-679.222	800.000	0.087	0.382
-678.208	-200.000	-0.013	-0.086
-677.193	-26.815	-0.068	0.040
-676.178	31.286	-0.239	-0.209
-675.164	-200.000	0.007	-0.167
-674.149	50.670	-0.108	0.104
-673.135	-200.000	0.036	0.182
-672.120	-169.362	0.143	-0.005
-671.105	-200.000	-0.072	-0.400
-670.091	-133.987	-0.281	-0.035
-669.076	-148.361	0.229	0.019
-668.062	-183.783	0.144	0.002
-667.047	431.852	0.051	-0.113
-666.032	800.000	0.024	0.094
-665.018	-94.738	-0.141	-0.039
-664.003	-64.009	0.030	0.012
-662.989	154.136	-0.187	0.262
-661.974	-54.602	-0.232	-0.107
-660.959	-116.822	-0.123	-0.023
-659.945	800.000	0.022	-0.085
-658.930	247.904	0.126	0.217
-657.916	-141.529	-0.248	-0.026
-656.901	800.000	0.062	0.217
-655.886	-200.000	-0.035	-0.158
-654.872	800.000	0.140	0.417
-653.857	-10.775	-0.116	0.078
-652.843	393.935	0.208	-0.441
-651.828	-42.831	0.280	-0.145
-650.814	240.669	-0.053	-0.090
-649.799	-200.000	-0.061	-0.384
-648.784	-21.601	-0.206	-0.128
-647.770	-28.535	0.024	-0.014
-646.755	222.489	-0.076	0.125
-645.741	51.225	-0.219	0.211
-644.726	-200.000	-0.206	0.001
-643.711	718.426	-0.171	-0.461
-642.697	-131.687	0.308	-0.041
-641.682	449.599	-0.080	-0.179
-640.668	-141.007	0.299	-0.031
-639.653	-13.588	-0.117	0.077
-638.638	-133.902	0.238	0.030
-637.624	-95.549	0.260	-0.071
-636.609	-200.000	0.016	-0.294
-635.595	16.864	0.143	-0.115
-634.580	-142.459	-0.435	0.043
-633.565	-200.000	-0.001	-0.178
-632.551	800.000	0.038	-0.127
-631.536	220.053	0.125	-0.204
-630.522	112.472	0.178	-0.219
-629.507	-200.000	-0.018	-0.127
-628.492	-56.487	0.207	-0.093
-627.478	-200.000	0.018	-0.443
-626.463	800.000	0.017	0.059
-625.449	132.499	0.261	0.342
-624.434	-108.172	-0.122	0.027
-623.419	800.000	0.046	-0.195
-622.405	800.000	0.059	0.178
-621.390	-105.158	-0.245	0.057
-620.376	-200.000	0.044	-0.293
-619.361	263.947	-0.091	0.161
-618.346	110.433	-0.059	0.072
-617.332	-139.352	-0.137	0.015
-616.317	-148.281	-0.340	-0.028
-615.303	21.855	0.157	-0.130
-614.288	-200.000	0.014	-0.373
-613.273	160.656	-0.261	0.370
-612.259	-200.000	-0.085	0.387
-611.244	800.000	-0.027	0.113
-610.230	-200.000	-0.418	0.000
-609.215	800.000	-0.071	-0.300
-608.201	-166.210	0.283	-0.012
-607.186	455.952	0.050	-0.113
-606.171	384.734	-0.099	-0.207
-605.157	-6.215	-0.137	-0.095
-604.142	800.000	0.060	0.208
-603.128	-39.937	-0.231	-0.122
-602.113	-142.740	-0.156	0.015
-601.098	-119.772	0.096	0.017
-600.084	250.113	0.017	0.030
-599.069	184.174	-0.068	0.102
-598.055	-79.609	0.164	0.056
-597.040	342.307	-0.072	0.144
-596.025	-0.676	-0.216	-0.156
-595.011	191.088	-0.157	-0.239
-593.996	130.150	0.097	0.126
-592.982	-139.655	-0.043	-0.005
-591.967	23.002	-0.283	0.236
-590.952	29.862	-0.142	0.123
-589.938	-188.757	-0.335	-0.004
-588.923	203.847	-0.159	0.250
-587.909	426.855	0.095	-0.207
-586.894	-144.582	0.206	0.019
-585.879	-200.000	0.008	0.265
-584.865	-137.408	0.095	0.011
-583.850	-61.088	0.052	0.022
-582.836	-90.008	0.027	-0.008
-581.821	98.952	-0.118	0.138
-580.806	800.000	-0.060	-0.197
-579.792	196.768	0.149	0.230
-578.777	428.931	-0.037	-0.082
-577.763	-200.000	0.019	0.124
-576.748	-200.000	-0.022	0.233
-575.733	10.295	-0.108	0.083
-574.719	-200.000	-0.026	-0.152
-573.704	471.379	-0.051	-0.115
-572.690	546.093	0.067	0.161
-571.675	-118.801	0.278	0.050
-570.661	11.697	0.108	0.084
-569.646	-99.926	0.207	0.052
-568.631	101.419	0.122	0.144
-567.617	-70.199	-0.160	0.062
-566.602	766.538	-0.045	0.123
-565.588	399.092	-0.020	-0.043
-564.573	94.976	0.034	0.039
-563.558	800.000	0.070	0.277
-562.544	26.472	-0.050	0.043
-561.529	626.901	0.133	0.339
-560.515	395.754	-0.004	0.009
-559.500	-71.762	0.264	-0.100
-558.485	59.343	0.171	0.171
-557.471	3.837	0.161	-0.119
-556.456	-121.427	-0.303	-0.051
-555.442	-200.000	-0.036	-0.375
-554.427	-200.000	0.010	-0.047
-553.412	-169.623	0.193	0.007
-552.398	-200.000	0.010	0.111
-551.383	-64.916	-0.167	0.069
-550.369	91.948	0.035	-0.040
-549.354	-113.932	0.106	0.021
-548.339	304.968	-0.048	-0.091
-547.325	14.708	0.067	-0.053
-546.310	-146.881	-0.041	0.004
-545.296	-200.000	0.003	-0.075
-544.281	800.000	0.040	-0.113
-543.266	-139.589	0.150	-0.016
-542.252	124.472	-0.161	0.205
-541.237	-59.752	0.280	-0.122
-540.223	775.198	0.034	0.094
-539.208	101.047	0.239	-0.281
-538.193	-95.563	0.230	0.062
-537.179	-129.251	-0.096	-0.014
-536.164	-200.000	-0.022	-0.143
-535.150	-200.000	0.039	-0.275
-534.135	-69.965	0.313	-0.121
-533.121	-125.053	-0.494	0.077
-532.106	215.761	0.164	0.263
-531.091	-127.741	-0.248	-0.036
-530.077	239.409	0.148	0.250
-529.062	17.555	-0.178	0.143
-528.048	-50.913	0.025	-0.012
-527.033	-11.587	0.294	0.195
-526.018	800.000	0.053	0.167
-525.004	-95.274	-0.145	0.040
-523.989	-51.500	0.313	-0.148
-522.975	402.120	0.135	0.286
-521.960	230.958	0.097	-0.161
-520.945	-119.700	-0.199	0.035
-519.931	19.021	-0.072	-0.058
-518.916	-3.432	0.244	-0.172
-517.902	57.846	0.248	-0.245
-516.887	31.656	-0.059	0.051
-515.872	-141.126	-0.164	-0.017
-514.858	-200.000	-0.000	-0.171
-513.843	140.090	-0.067	-0.089
-512.829	-36.477	-0.179	-0.097
-511.814	-200.000	-0.002	-0.288
-510.799	-200.000	0.002	-0.058
-509.785	52.152	-0.195	-0.188
-508.770	-8.557	0.211	-0.143
-507.756	210.808	-0.143	-0.228
-506.741	-75.833	0.394	-0.141
-505.726	-85.748	-0.409	-0.128
-504.712	76.196	0.211	-0.226
-503.697	37.098	-0.316	0.283
-502.683	-152.849	-0.081	-0.006
-501.668	-57.083	0.124	0.055
-500.653	31.665	-0.267	-0.233
-499.639	-99.512	-0.175	-0.045
-498.624	96.457	-0.089	-0.103
-497.610	-22.359	-0.070	-0.043
-496.595	-51.124	0.062	0.029
-495.581	50.320	0.305	0.291
-494.566	-198.427	-0.229	0.001
-493.551	-45.860	-0.171	-0.085
-492.537	-145.591	0.170	-0.015
-491.522	-37.076	0.261	-0.142
-490.508	-117.239	0.007	-0.001
-489.493	15.076	0.154	-0.122
-488.478	-85.570	0.302	-0.095
-487.464	-200.000	-0.005	0.068
-486.449	800.000	0.043	-0.171
-485.435	23.474	-0.193	-0.160
-484.420	-8.509	0.200	0.136
-483.405	207.717	-0.116	-0.183
-482.391	-200.000	-0.043	0.191
-481.376	-11.077	-0.088	0.059
-480.362	800.000	-0.094	0.271
-479.347	-200.000	0.025	0.245
-478.332	107.077	-0.080	-0.096
-477.318	-143.996	-0.370	0.035
-476.303	-58.427	-0.246	0.108
-475.289	-200.000	0.037	-0.180
-474.274	309.086	-0.096	-0.182
-473.259	-200.000	-0.028	0.133
-472.245	-47.866	0.342	-0.167
-471.230	-45.965	0.081	0.040
-470.216	52.415	-0.166	-0.160
-469.201	-87.680	-0.178	-0.054
-468.186	83.639	0.160	0.176
-467.172	-200.000	0.015	0.251
-466.157	-28.027	0.159	0.093
-465.143	-200.000	-0.029	-0.217
-464.128	81.875	0.202	0.221
-463.113	-46.684	0.178	0.088
-462.099	-85.993	0.364	-0.114
-461.084	10.540	-0.041	-0.032
-460.070	42.438	-0.278	-0.255
-459.055	-67.640	0.069	-0.027
-458.040	800.000	-0.040	-0.174
-457.026	44.336	0.091	0.084
-456.011	47.729	0.121	-0.114
-454.997	800.000	0.007	-0.023
-453.982	243.666	0.122	0.207
-452.968	-70.900	-0.102	-0.039
-451.953	-35.474	0.125	0.069
-450.938	-58.941	0.212	-0.092
-449.924	-200.000	0.002	-0.013
-448.909	-131.586	-0.161	-0.021
-447.895	61.893	-0.285	-0.287
-446.880	20.857	0.147	0.120
-445.865	-200.000	-0.049	0.398
-444.851	-119.561	-0.378	0.066
-443.836	-120.108	-0.073	-0.013
-442.822	-53.450	-0.281	-0.130
-441.807	-70.206	-0.053	0.020
-440.792	-200.000	-0.037	0.188
-439.778	77.124	-0.100	0.107
-438.763	-200.000	0.012	-0.054
-437.749	-6.654	-0.184	0.127
-436.734	-95.072	-0.181	-0.049
-435.719	-200.000	-0.030	0.198
-434.705	-98.058	-0.203	-0.053
-433.690	-93.135	0.257	-0.072
-432.676	-200.000	0.001	-0.170
-431.661	-138.497	0.336	-0.037
-430.646	800.000	-0.054	0.178
-429.632	86.634	-0.371	0.413
-428.617	-75.561	-0.167	-0.060
-427.603	42.511	0.281	0.258
-426.588	-160.721	0.200	-0.011
-425.573	614.591	-0.115	-0.290
-424.559	-200.000	-0.057	0.253
-423.544	-95.571	0.200	-0.054
-422.530	-200.000	-0.016	0.251
-421.515	-69.885	0.150	0.058
-420.500	229.489	0.082	0.135
-419.486	213.682	-0.196	-0.313
-418.471	236.639	-0.148	-0.247
-417.457	50.944	0.217	0.207
-416.442	-83.359	0.163	0.053
-415.428	800.000	0.067	-0.191
-414.413	644.597	0.061	-0.157
-413.398	246.875	-0.091	-0.155
-412.384	800.000	-0.169	-0.573
-411.369	-200.000	0.016	-0.159
-410.355	94.885	-0.202	0.231
-409.340	-120.913	0.094	0.016
-408.325	-79.866	0.270	-0.091
-407.311	-200.000	0.034	0.199
-406.296	11.005	0.316	0.244
-405.282	-26.010	-0.160	-0.095
-404.267	80.138	0.329	-0.357
-403.252	-70.327	0.057	-0.022
-402.238	-81.769	0.207	-0.068
-401.223	-40.319	-0.393	0.206
-400.209	-200.000	0.006	-0.214
-399.194	7.718	-0.133	0.100
-398.179	-200.000	-0.025	-0.272
-397.165	800.000	-0.010	0.039
-396.150	-56.318	-0.214	0.096
-395.136	-200.000	-0.013	0.213
-394.121	-200.000	-0.031	0.418
-393.106	101.970	0.176	0.206
-392.092	116.027	0.166	0.204
-391.077	-100.241	0.372	-0.093
-390.063	-91.704	-0.240	0.069
-389.048	-163.010	-0.261	0.013
-388.033	-98.448	-0.243	0.063
-387.019	-58.735	0.155	0.067
-386.004	-35.667	-0.106	0.058
-384.990	228.408	-0.100	0.164
-383.975	-121.268	0.246	0.041
-382.960	109.937	0.120	-0.145
-381.946	-6.233	0.138	-0.095
-380.931	252.596	-0.125	0.214
-379.917	215.940	-0.101	-0.161
-378.902	-13.879	0.339	0.220
-377.888	-120.287	-0.177	-0.030
-376.873	-96.742	-0.374	0.099
-375.858	-115.358	-0.154	0.029
-374.844	-137.231	0.286	0.033
-373.829	60.408	-0.129	0.129
-372.815	55.075	0.130	-0.126
-371.800	-90.485	-0.061	-0.018
-370.785	800.000	0.060	-0.244
-369.771	-42.851	-0.087	-0.044
-368.756	21.377	-0.161	0.131
-367.742	-3.004	-0.165	0.116
-366.727	-129.837	0.172	-0.024
-365.712	784.175	0.035	0.096
-364.698	-48.416	0.211	-0.102
-363.683	638.783	0.020	0.051
-362.669	118.233	0.079	-0.098
-361.654	188.406	0.148	0.223
-360.639	149.878	0.091	-0.124
-359.625	-92.266	-0.215	-0.061
-358.610	-114.871	-0.156	0.030
-357.596	-200.000	0.037	-0.193
-356.581	-198.696	-0.077	0.000
-355.566	277.257	0.079	0.141
-354.552	344.175	-0.149	0.294
-353.537	22.541	-0.121	0.099
-352.523	-200.000	-0.037	-0.234
-351.508	-200.000	-0.025	0.182
-350.493	800.000	-0.118	0.364
-349.479	-42.062	0.144	0.074
-348.464	-113.066	-0.406	0.081
-347.450	-200.000	-0.004	0.153
-346.435	-200.000	0.047	0.285
-345.420	-165.918	0.413	0.018
-344.406	-72.175	-0.200	0.075
-343.391	-4.737	0.106	-0.074
-342.377	-78.419	0.180	0.062
-341.362	447.589	-0.098	0.217
-340.348	-74.889	-0.271	0.098
-339.333	29.922	-0.250	-0.214
-338.318	-74.628	-0.072	0.026
-337.304	-13.040	0.197	-0.129
-336.289	2.854	-0.138	-0.101
-335.275	-200.000	-0.074	0.338
-334.260	155.151	-0.171	0.237
-333.245	-117.311	0.083	0.015
-332.231	18.374	0.085	0.068
-331.216	-62.080	0.315	0.132
-330.202	45.617	-0.143	0.133
-329.187	-200.000	-0.046	0.240
-328.172	73.958	0.153	0.162
-327.158	-200.000	-0.106	-0.493
-326.143	312.274	0.088	-0.165
-325.129	-24.598	-0.295	-0.176
-324.114	-26.376	0.233	0.137
-323.099	94.442	-0.203	0.231
-322.085	61.668	0.113	-0.113
-321.070	35.776	0.144	0.127
-320.056	-121.933	0.234	-0.039
-319.041	-156.363	0.229	-0.014
-318.026	800.000	0.054	-0.191
-317.012	218.763	-0.221	0.355
-315.997	800.000	0.059	0.230
-314.983	-73.668	-0.109	0.040
-313.968	800.000	0.066	-0.257
-312.953	-200.000	-0.009	0.092
-311.939	393.843	0.038	-0.080
-310.924	19.144	0.154	0.124
-309.910	-64.227	-0.324	0.133
-308.895	-161.328	-0.189	-0.010
-307.880	-132.776	0.114	0.015
-306.866	-23.070	-0.079	0.048
-305.851	-154.351	-0.125	0.008
-304.837	-148.317	0.251	0.021
-303.822	800.000	0.057	0.220
-302.807	-106.902	0.108	-0.024
-301.793	202.491	0.073	-0.112
-300.778	800.000	0.068	0.231
-299.764	-61.882	-0.176	-0.074
-298.749	483.374	-0.037	0.084
-297.735	172.964	-0.219	-0.317
-296.720	-66.661	0.268	-0.107
-295.705	-94.575	0.119	-0.032
-294.691	-126.627	-0.313	-0.047
-293.676	-15.683	-0.353	-0.226
-292.662	349.950	-0.064	0.128
-291.647	-135.143	-0.334	0.040
-290.632	-200.000	-0.004	-0.253
-289.618	689.543	0.029	0.076
-288.603	316.017	0.065	-0.123
-287.589	-87.524	0.062	0.019
-286.574	344.394	0.129	0.254
-285.559	-55.290	0.312	0.141
-284.545	-25.615	0.130	0.077
-283.530	-200.000	-0.032	-0.150
-282.516	-200.000	0.004	0.043
-281.501	-21.933	0.196	-0.119
-280.486	-23.484	0.286	-0.172
-279.472	-113.657	0.117	-0.023
-278.457	-200.000	-0.064	-0.501
-277.443	19.473	0.158	0.127
-276.428	-150.884	-0.079	-0.006
-275.413	-200.000	-0.014	0.065
-274.399	-34.456	0.212	-0.116
-273.384	63.261	0.143	0.143
-272.370	252.895	0.098	0.167
-271.355	-200.000	-0.011	-0.239
-270.340	158.835	0.039	0.055
-269.326	-200.000	0.036	0.251
-268.311	-143.092	0.286	0.028
-267.297	169.105	-0.076	0.108
-266.282	207.379	0.207	-0.323
-265.267	-59.608	0.189	0.081
-264.253	222.025	-0.229	0.369
-263.238	-64.085	0.109	0.044
-262.224	-17.036	-0.067	-0.042
-261.209	-87.675	0.136	-0.041
-260.195	-180.332	0.356	-0.007
-259.180	-108.762	0.092	-0.020
-258.165	-11.000	-0.145	0.096
-257.151	-200.000	0.050	-0.372
-256.136	107.761	0.107	-0.128
-255.122	227.521	0.097	-0.157
-254.107	800.000	0.052	-0.201
-253.092	272.813	-0.117	-0.206
-252.078	-139.037	0.358	0.039
-251.063	-65.175	-0.101	0.041
-250.049	72.467	-0.174	0.181
-249.034	800.000	-0.073	0.254
-248.019	256.682	-0.102	-0.176
-247.005	176.344	0.139	0.203
-245.990	-11.680	-0.153	-0.101
-244.976	-200.000	0.015	-0.115
-243.961	-200.000	-0.025	-0.388
-242.946	-200.000	0.039	-0.212
-241.932	23.823	0.048	-0.039
-240.917	4.812	-0.199	0.146
-239.903	-20.602	-0.184	-0.113
-238.888	-195.062	-0.391	-0.003
-237.873	57.581	-0.103	-0.101
-236.859	-116.581	0.276	0.051
-235.844	-136.226	0.168	0.020
-234.830	-111.745	0.336	0.068
-233.815	14.265	0.321	-0.251
-232.800	800.000	-0.028	-0.123
-231.786	166.992	0.063	-0.089
-230.771	-131.652	-0.229	-0.030
-229.757	-137.360	0.209	-0.024
-228.742	153.564	-0.122	0.168
-227.727	1.399	0.015	0.011
-226.713	-200.000	0.051	-0.383
-225.698	-200.000	0.014	-0.322
-224.684	-106.142	0.089	-0.020
-223.669	51.763	0.162	0.154
-222.655	-194.323	0.274	0.002
-221.640	115.391	-0.031	-0.037
-220.625	772.209	-0.145	-0.395
-219.611	133.354	0.136	0.176
-218.596	668.354	-0.104	0.269
-217.582	35.102	0.104	0.091
-216.567	-99.645	-0.108	-0.027
-215.552	-25.917	0.182	0.107
-214.538	-200.000	-0.017	0.156
-213.523	430.625	-0.128	0.277
-212.509	44.894	0.238	0.219
-211.494	-121.924	0.141	0.023
-210.479	63.387	0.089	-0.089
-209.465	-200.000	-0.009	0.302
-208.450	-200.000	0.008	0.201
-207.436	800.000	-0.057	0.240
-206.421	-134.758	0.330	-0.040
-205.406	-121.077	-0.299	-0.050
-204.392	384.314	0.096	0.197
-203.377	-117.524	0.223	-0.040
-202.363	-95.623	-0.223	-0.060
-201.348	37.675	-0.156	0.138
-200.333	110.050	-0.101	0.121
-199.319	564.764	-0.087	0.210
-198.304	-18.150	-0.107	-0.067
-197.290	-158.079	-0.223	-0.013
-196.275	-122.353	0.087	-0.014
-195.260	800.000	-0.118	-0.382
-194.246	-143.621	-0.084	-0.008
-193.231	-200.000	-0.030	0.202
-192.217	518.178	0.017	0.039
-191.202	-31.138	0.200	0.113
-190.187	54.374	-0.174	-0.167
-189.173	273.140	0.137	0.242
-188.158	-134.483	-0.171	-0.021
-187.144	580.901	0.069	0.170
-186.129	-200.000	0.001	0.023
-185.114	800.000	-0.069	-0.253
-184.100	-199.641	-0.171	0.001
-183.085	-156.722	-0.255	-0.016
-182.071	139.965	-0.262	0.345
-181.056	-200.000	0.002	0.123
-180.042	45.492	0.155	0.143
-179.027	-109.452	0.401	-0.085
-178.012	120.012	0.233	-0.289
-176.998	251.311	-0.166	0.281
-175.983	-49.387	-0.376	-0.179
-174.969	800.000	0.027	0.110
-173.954	-60.588	-0.289	0.123
-172.939	213.651	0.189	-0.298
-171.925	-200.000	0.007	0.122
-170.910	301.828	-0.002	-0.004
-169.896	800.000	-0.149	-0.416
-168.881	340.543	0.050	0.098
-167.866	-35.167	-0.256	0.139
-166.852	-123.301	0.215	-0.034
-165.837	-200.000	0.013	-0.106
-164.823	-32.977	-0.179	-0.099
-163.808	800.000	-0.157	-0.519
-162.793	-143.540	0.117	-0.011
-161.779	65.888	0.197	-0.199
-160.764	-133.821	0.087	0.011
-159.750	-145.154	-0.148	-0.013
-158.735	-149.464	0.063	0.005
-157.720	17.905	-0.302	0.240
-156.706	-164.769	-0.324	-0.015
-155.691	47.294	0.131	-0.121
-154.677	-37.274	-0.301	-0.160
-153.662	-200.000	-0.026	-0.195
-152.647	126.107	0.158	0.200
-151.633	96.701	-0.068	0.078
-150.618	10.414	0.383	0.291
-149.604	800.000	0.032	-0.126
-148.589	48.516	0.162	0.152
-147.574	-200.000	-0.008	0.240
-146.560	102.542	0.139	-0.162
-145.545	-75.664	0.229	0.081
-144.531	146.461	0.185	0.247
-143.516	-39.940	-0.133	-0.069
-142.502	14.367	0.261	0.203
-141.487	662.713	-0.082	0.210
-140.472	-23.150	-0.017	0.010
-139.458	800.000	-0.035	-0.113
-138.443	-200.000	-0.011	0.086
-137.429	-200.000	0.057	0.264
-136.414	-200.000	0.055	0.515
-135.399	13.432	0.034	-0.026
-134.385	-90.464	-0.310	0.089
-133.370	134.300	0.182	-0.235
-132.356	-14.514	0.213	-0.137
-131.341	800.000	-0.085	0.258
-130.326	322.484	0.199	0.378
-129.312	365.179	0.085	0.170
-128.297	800.000	-0.109	-0.305
-127.283	-200.000	0.037	0.221
-126.268	-53.304	0.281	0.128
-125.253	-155.888	-0.051	0.003
-124.239	-152.999	-0.342	-0.024
-123.224	800.000	-0.077	0.245
-122.210	800.000	0.033	-0.132
-121.195	-169.754	-0.136	0.005
-120.180	-91.927	0.262	-0.074
-119.166	178.390	0.182	0.265
-118.151	391.761	-0.131	-0.271
-117.137	-71.483	-0.195	0.073
-116.122	233.696	-0.055	-0.091
-115.107	98.955	-0.205	-0.236
-114.093	-200.000	-0.023	-0.106
-113.078	-65.410	0.252	-0.101
-112.064	-200.000	0.062	0.364
-111.049	35.394	0.238	0.208
-110.034	47.991	0.211	0.197
-109.020	-99.390	0.284	0.071
-108.005	-155.867	-0.211	-0.013
-106.991	-113.088	0.137	-0.027
-105.976	-22.874	0.111	-0.067
-104.962	-200.000	0.045	0.304
-103.947	21.701	-0.233	0.189
-102.932	310.943	0.239	0.446
-101.918	425.170	0.043	0.092
-100.903	-106.362	-0.325	0.072
-99.889	-182.374	0.227	-0.004
-98.874	-32.931	0.117	0.065
-97.859	248.423	-0.105	0.177
-96.845	-79.776	0.107	-0.036
-95.830	-89.447	-0.164	-0.048
-94.816	-157.020	0.234	-0.014
-93.801	-200.000	0.061	-0.317
-92.786	454.689	0.033	0.072
-91.772	-200.000	-0.004	0.116
-90.757	-152.097	-0.277	0.020
-89.743	-131.726	-0.482	0.063
-88.728	329.616	0.062	-0.118
-87.713	800.000	0.035	-0.131
-86.699	800.000	-0.030	-0.084
-85.684	-116.101	-0.167	0.031
-84.670	14.647	0.138	0.107
-83.655	-87.296	-0.052	-0.016
-82.640	454.539	0.099	-0.218
-81.626	-7.962	0.094	0.063
-80.611	-181.910	0.306	-0.006
-79.597	-2.853	0.260	0.180
-78.582	-166.869	0.171	-0.007
-77.567	800.000	-0.028	-0.119
-76.553	280.373	0.083	0.147
-75.538	-200.000	-0.048	0.361
-74.524	-116.714	-0.141	-0.026
-73.509	-200.000	-0.036	-0.158
-72.494	24.584	0.102	0.084
-71.480	20.568	-0.241	0.194
-70.465	-66.377	-0.338	0.134
-69.451	35.613	0.111	0.097
-68.436	-35.909	0.230	-0.124
-67.422	-12.092	-0.194	0.126
-66.407	130.482	-0.052	-0.066
-65.392	-127.557	0.180	0.026
-64.378	408.287	-0.157	0.330
-63.363	48.577	-0.230	-0.214
-62.349	-47.553	-0.213	-0.103
-61.334	81.080	-0.809	-0.868
-60.319	10.566	0.169	0.128
-59.305	-200.000	-0.044	-1.008
-58.290	188.897	0.642	0.955
-57.276	352.846	0.759	1.496
-56.261	-200.000	97.158	571.099
-55.246	620.091	1399.236	3495.733
-54.232	183.059	2615.838	3838.134
-53.217	110.693	2339.917	2796.628
-52.203	40.901	2086.160	1870.655
-51.188	36.000	1998.294	1747.470
-50.173	34.400	1980.294	1717.261
-49.159	48.627	2031.773	1892.113
-48.144	51.384	2051.606	1935.696
-47.130	36.735	2008.849	1763.124
-46.115	34.416	1996.955	1731.576
-45.100	34.234	1994.098	1727.382
-44.086	34.117	1992.324	1724.722
-43.071	34.141	1989.268	1722.217
-42.057	34.079	1987.450	1720.018
-41.042	34.182	1985.240	1718.968
-40.027	34.227	1983.062	1717.416
-39.013	34.206	1981.032	1715.404
-37.998	34.091	1979.351	1712.845
-36.984	34.234	1977.406	1712.379
-35.969	34.242	1975.180	1710.457
-34.954	34.282	1973.275	1709.103
-33.940	34.279	1971.860	1707.775
-32.925	34.378	1970.523	1707.441
-31.911	34.319	1968.073	1704.725
-30.896	34.245	1967.331	1703.351
-29.881	34.338	1965.024	1702.111
-28.867	34.357	1964.172	1701.482
-27.852	34.403	1961.995	1699.936
-26.838	34.359	1959.525	1697.332
-25.823	34.278	1958.409	1695.578
-24.809	34.404	1955.783	1694.363
-23.794	34.308	1955.088	1692.835
-22.779	34.353	1952.737	1691.138
-21.765	34.333	1951.014	1689.399
-20.750	34.339	1949.522	1688.096
-19.736	34.329	1948.446	1687.008
-18.721	34.378	1946.597	1685.773
-17.706	34.358	1945.443	1684.528
-16.692	34.274	1943.953	1682.429
-15.677	34.416	1942.302	1682.189
-14.663	34.335	1940.502	1679.843
-13.648	34.339	1939.054	1678.557
-12.633	34.451	1938.004	1678.568
-11.619	34.315	1937.393	1676.775
-10.604	34.291	1935.463	1674.827
-9.590	34.340	1934.321	1674.204
-8.575	34.322	1932.858	1672.713
-7.560	34.298	1931.195	1670.998
-6.546	34.327	1930.257	1670.377
-5.531	34.343	1928.991	1669.351
-4.517	34.337	1927.747	1668.157
-3.502	34.310	1926.744	1666.989
-2.487	34.336	1925.315	1665.910
-1.473	34.368	1924.260	1665.213
-0.458	34.500	1919.341	1662.038
0.556	33.188	1900.445	1634.486
1.571	29.016	1880.590	1581.497
2.586	24.790	1902.781	1563.182
3.600	23.678	1939.063	1582.941
4.615	23.065	1934.733	1573.809
5.629	18.125	1833.614	1449.649
6.644	9.523	1714.875	1287.158
7.659	5.323	1677.973	1226.450
8.673	5.155	1674.084	1222.177
9.688	5.039	1672.930	1220.326
10.702	5.011	1671.406	1218.886
11.717	4.905	1668.750	1216.011
12.731	5.450	1667.988	1219.598
13.746	11.241	1681.667	1274.899
14.761	18.067	1696.846	1339.996
15.775	19.301	1697.137	1349.777
16.790	18.180	1693.104	1337.690
17.804	17.103	1689.397	1326.235
18.819	16.009	1686.226	1315.087
19.834	15.396	1683.782	1308.287
20.848	15.140	1682.153	1304.910
21.863	14.828	1680.580	1301.153
22.877	14.636	1678.932	1298.265
23.892	14.494	1677.324	1295.803
24.907	14.259	1677.000	1293.615
25.921	14.260	1675.467	1292.324
26.936	14.255	1675.200	1291.967
27.950	14.314	1674.044	1291.414
28.965	14.372	1673.093	1291.017
29.980	14.436	1672.121	1290.649
30.994	14.397	1671.554	1289.799
32.009	14.538	1670.243	1289.757
33.023	14.550	1669.386	1289.074
34.038	14.510	1668.057	1287.625
35.053	14.519	1667.395	1287.071
36.067	14.480	1665.835	1285.457
37.082	14.519	1664.312	1284.465
38.096	14.443	1663.925	1283.466
39.111	14.509	1663.326	1283.399
40.126	14.543	1662.256	1282.721
41.140	14.378	1662.057	1281.185
42.155	14.401	1659.921	1279.605
43.169	14.317	1658.200	1277.519
44.184	14.207	1657.217	1275.801
45.199	14.203	1655.665	1274.467
46.213	14.258	1654.458	1273.843
47.228	14.214	1653.789	1272.879
48.242	14.380	1652.164	1272.783
49.257	14.381	1651.505	1272.173
50.271	14.474	1650.117	1271.700
51.286	14.452	1648.396	1270.093
52.301	14.460	1647.220	1269.138
53.315	14.327	1646.424	1267.398
54.330	14.444	1644.364	1266.591
55.344	14.328	1642.542	1264.194
56.359	14.215	1641.471	1262.405
57.374	14.293	1640.335	1262.008
58.388	14.314	1639.220	1261.194
59.403	14.244	1637.846	1259.496
60.417	14.211	1636.404	1258.031
61.432	14.195	1635.519	1257.114
62.447	14.169	1634.525	1256.046
63.461	14.123	1633.328	1254.670
64.476	14.099	1632.196	1253.508
65.490	14.124	1630.733	1252.460
66.505	14.158	1629.245	1251.464
67.520	14.022	1629.122	1250.231
68.534	14.104	1628.378	1250.171
69.549	14.156	1626.802	1249.236
70.563	14.220	1625.670	1248.736
71.578	14.245	1624.064	1247.584
72.593	14.141	1623.378	1246.163
73.607	14.018	1622.477	1244.444
74.622	13.964	1621.077	1242.857
75.636	14.024	1620.312	1242.606
76.651	13.986	1619.996	1241.971
77.666	14.117	1618.696	1241.844
78.680	14.082	1617.658	1240.675
79.695	14.055	1617.003	1239.859
80.709	14.028	1616.117	1238.873
81.724	14.136	1615.046	1238.744
82.739	14.295	1613.964	1238.989
83.753	14.293	1613.269	1238.331
84.768	14.224	1613.072	1237.560
85.782	14.445	1611.716	1238.048
86.797	14.395	1610.922	1236.959
87.812	14.528	1609.714	1236.905
88.826	14.418	1608.656	1235.169
89.841	14.340	1607.355	1233.480
90.855	14.386	1606.028	1232.698
91.870	14.271	1605.682	1231.473
92.884	14.466	1604.571	1231.951
93.899	14.395	1603.578	1230.558
94.914	14.553	1601.613	1230.104
95.928	14.473	1601.371	1229.218
96.943	14.522	1599.561	1228.085
97.957	14.474	1598.377	1226.708
98.972	14.500	1596.500	1225.355
99.987	14.584	1594.621	1224.418
101.001	14.472	1593.363	1222.526
102.016	14.510	1591.705	1221.421
103.030	14.399	1590.347	1219.456
104.045	14.481	1589.254	1219.115
105.060	14.460	1588.205	1218.047
106.074	14.386	1586.968	1216.453
107.089	14.450	1585.094	1215.371
108.103	14.238	1583.774	1212.709
109.118	14.194	1582.292	1211.144
110.133	14.112	1580.836	1209.330
111.147	14.103	1579.776	1208.343
112.162	14.247	1577.809	1207.779
113.176	14.238	1576.349	1206.491
114.191	14.267	1575.084	1205.623
115.206	14.277	1574.213	1204.921
116.220	14.299	1572.777	1203.877
117.235	14.308	1571.181	1202.615
118.249	14.290	1570.105	1201.556
119.264	14.261	1568.512	1200.017
120.279	14.249	1567.340	1198.931
121.293	14.164	1565.780	1197.020
122.308	14.256	1564.251	1196.402
123.322	14.182	1562.936	1194.760
124.337	14.165	1561.493	1193.435
125.352	14.085	1559.977	1191.591
126.366	14.119	1559.217	1191.155
127.381	14.222	1557.909	1190.784
128.395	14.049	1557.214	1188.909
129.410	14.217	1555.531	1188.719
130.424	14.175	1554.665	1187.652
131.439	14.248	1552.891	1186.716
132.454	14.237	1551.972	1185.827
133.468	14.281	1550.101	1184.606
134.483	14.369	1548.738	1184.083
135.497	14.284	1547.505	1182.432
136.512	14.278	1546.090	1181.204
137.527	14.312	1544.956	1180.475
138.541	14.270	1543.968	1179.322
139.556	14.439	1542.152	1179.020
140.570	14.361	1541.081	1177.546
141.585	14.506	1539.744	1177.447
142.600	14.548	1538.484	1176.678
143.614	14.505	1537.645	1175.629
144.629	14.543	1536.363	1174.814
145.643	14.667	1534.751	1174.345
146.658	14.616	1533.738	1173.111
147.673	14.700	1531.374	1171.785
148.687	14.560	1530.586	1170.095
149.702	14.505	1529.047	1168.436
150.716	14.541	1527.115	1167.106
151.731	14.446	1525.902	1165.413
152.746	14.526	1524.579	1164.857
153.760	14.504	1523.211	1163.554
154.775	14.461	1522.194	1162.377
155.789	14.536	1520.851	1161.765
156.804	14.596	1519.413	1160.985
157.819	14.592	1518.507	1160.160
158.833	14.642	1517.454	1159.600
159.848	14.651	1516.421	1158.775
160.862	14.677	1515.356	1158.037
161.877	14.770	1513.578	1157.222
162.892	14.649	1512.716	1155.622
163.906	14.591	1511.293	1154.027
164.921	14.602	1509.939	1152.968
165.935	14.539	1509.091	1151.789
166.950	14.576	1508.257	1151.303
167.964	14.566	1507.071	1150.228
168.979	14.654	1505.676	1149.663
169.994	14.685	1505.133	1149.361
171.008	14.584	1503.985	1147.693
172.023	14.611	1502.791	1146.863
173.037	14.632	1501.842	1146.179
174.052	14.734	1500.718	1145.923
175.067	14.797	1499.549	1145.361
176.081	14.780	1498.393	1144.259
177.096	14.750	1496.893	1142.809
178.110	14.634	1495.458	1140.816
179.125	14.652	1494.284	1139.944
180.140	14.695	1493.532	1139.561
181.154	14.744	1492.042	1138.659
182.169	14.659	1491.643	1137.673
183.183	14.809	1490.157	1137.461
184.198	14.798	1489.196	1136.549
185.213	14.902	1488.475	1136.612
186.227	14.872	1487.023	1135.199
187.242	14.908	1485.965	1134.529
188.256	14.969	1485.192	1134.255
189.271	14.939	1484.086	1133.105
190.286	14.979	1482.763	1132.270
191.300	14.957	1481.837	1131.309
192.315	14.726	1480.712	1128.794
193.329	14.670	1478.976	1126.990
194.344	14.625	1478.070	1125.893
195.359	14.759	1476.993	1125.879
196.373	14.688	1476.652	1125.041
197.388	14.828	1475.070	1124.677
198.402	14.897	1474.350	1124.495
199.417	14.914	1472.929	1123.422
200.432	15.113	1471.732	1123.750
201.446	15.161	1470.671	1123.161
202.461	15.169	1470.004	1122.606
203.475	15.258	1468.690	1122.097
204.490	15.314	1467.864	1121.740
205.504	15.264	1466.803	1120.496
206.519	15.146	1465.465	1118.587
207.534	15.105	1464.449	1117.441
208.548	15.175	1463.140	1116.807
209.563	15.068	1462.434	1115.460
210.577	15.129	1460.984	1114.661
211.592	15.080	1460.260	1113.686
212.607	15.163	1459.711	1113.718
213.621	15.135	1459.304	1113.122
214.636	15.247	1458.423	1113.094
215.650	15.280	1456.893	1112.048
216.665	15.276	1456.106	1111.321
217.680	15.239	1455.720	1110.685
218.694	15.404	1454.684	1110.892
219.709	15.374	1454.017	1110.083
220.723	15.322	1452.874	1108.768
221.738	15.394	1451.550	1108.137
222.753	15.409	1450.656	1107.457
223.767	15.348	1449.700	1106.223
224.782	15.376	1448.905	1105.704
225.796	15.423	1448.085	1105.287
226.811	15.473	1447.196	1104.840
227.826	15.499	1446.718	1104.551
228.840	15.585	1445.289	1103.926
229.855	15.425	1444.580	1102.238
230.869	15.465	1443.273	1101.407
231.884	15.361	1442.759	1100.236
232.899	15.390	1441.387	1099.277
233.913	15.353	1440.243	1098.066
234.928	15.325	1438.997	1096.839
235.942	15.356	1437.837	1096.061
236.957	15.325	1436.577	1094.801
237.972	15.370	1435.250	1093.986
238.986	15.354	1434.366	1093.107
240.001	15.383	1433.231	1092.339
241.015	15.408	1432.423	1091.788
242.030	15.445	1430.804	1090.696
243.045	15.347	1430.480	1089.713
244.059	15.499	1429.540	1089.893
245.074	15.541	1428.933	1089.601
246.088	15.593	1427.954	1089.100
247.103	15.626	1427.167	1088.614
248.117	15.654	1426.531	1088.212
249.132	15.681	1425.742	1087.690
250.147	15.716	1425.038	1087.286
251.161	15.812	1424.468	1087.376
252.176	15.892	1423.937	1087.386
253.190	15.997	1423.068	1087.307
254.205	15.976	1422.391	1086.555
255.220	16.026	1421.331	1085.972
256.234	16.131	1420.709	1086.077
257.249	16.053	1419.648	1084.670
258.263	16.138	1419.083	1084.691
259.278	16.082	1417.573	1083.081
260.293	16.002	1417.003	1082.033
261.307	16.043	1416.404	1081.744
262.322	16.149	1415.240	1081.440
263.336	16.227	1414.581	1081.338
264.351	16.159	1413.662	1080.109
265.366	16.263	1412.678	1079.926
266.380	16.179	1411.493	1078.384
267.395	16.256	1410.708	1078.179
268.409	16.290	1410.044	1077.797
269.424	16.169	1409.266	1076.334
270.439	16.173	1407.836	1075.172
271.453	16.205	1406.809	1074.494
272.468	16.197	1405.825	1073.600
273.482	16.090	1405.304	1072.423
274.497	16.130	1404.308	1071.827
275.512	16.277	1402.968	1071.641
276.526	16.188	1402.792	1070.848
277.541	16.202	1401.159	1069.596
278.555	16.088	1400.761	1068.471
279.570	16.138	1400.136	1068.221
280.585	16.309	1398.985	1068.326
281.599	16.388	1397.805	1067.832
282.614	16.381	1397.382	1067.370
283.628	16.311	1396.165	1065.902
284.643	16.223	1395.454	1064.711
285.657	16.266	1394.450	1064.124
286.672	16.269	1393.201	1063.096
287.687	16.354	1392.180	1062.753
288.701	16.400	1390.861	1061.945
289.716	16.285	1390.292	1060.692
290.730	16.306	1389.636	1060.232
291.745	16.358	1388.443	1059.553
292.760	16.442	1387.174	1059.020
293.774	16.459	1386.393	1058.432
294.789	16.403	1385.834	1057.564
295.803	16.499	1385.261	1057.633
296.818	16.586	1383.736	1056.917
297.833	16.538	1382.817	1055.823
298.847	16.423	1382.323	1054.637
299.862	16.350	1381.251	1053.270
300.876	16.448	1380.360	1053.103
301.891	16.524	1379.014	1052.457
302.906	16.589	1378.321	1052.241
303.920	16.648	1377.643	1051.995
304.935	16.653	1376.826	1051.314
305.949	16.749	1376.112	1051.271
306.964	16.752	1375.505	1050.728
307.979	16.808	1374.663	1050.343
308.993	16.761	1373.577	1049.126
310.008	16.730	1372.649	1048.134
311.022	16.823	1371.276	1047.569
312.037	16.788	1370.777	1046.876
313.052	16.826	1369.525	1046.064
314.066	16.837	1368.563	1045.306
315.081	16.791	1367.667	1044.242
316.095	16.637	1366.668	1042.441
317.110	16.676	1365.633	1041.800
318.125	16.610	1364.789	1040.655
319.139	16.618	1363.911	1039.947
320.154	16.632	1362.719	1039.032
321.168	16.689	1361.890	1038.657
322.183	16.711	1360.955	1037.986
323.197	16.681	1359.652	1036.714
324.212	16.798	1358.809	1036.699
325.227	16.789	1358.292	1036.156
326.241	16.764	1357.389	1035.224
327.256	16.781	1356.520	1034.570
328.270	16.825	1355.998	1034.349
329.285	16.830	1354.799	1033.373
330.300	16.768	1353.850	1032.184
331.314	16.746	1352.898	1031.234
332.329	16.806	1351.968	1030.795
333.343	16.802	1351.237	1030.125
334.358	16.753	1350.611	1029.257
335.373	16.814	1349.760	1028.889
336.387	16.952	1348.585	1028.737
337.402	17.052	1347.647	1028.536
338.416	16.936	1346.871	1027.155
339.431	17.035	1346.652	1027.494
340.446	16.987	1346.021	1026.628
341.460	17.094	1345.007	1026.411
342.475	17.202	1343.907	1026.134
343.489	17.284	1342.896	1025.766
344.504	17.216	1342.103	1024.659
345.519	17.263	1341.571	1024.448
346.533	17.309	1340.231	1023.608
347.548	17.352	1339.528	1023.243
348.562	17.426	1338.628	1022.912
349.577	17.329	1338.110	1021.842
350.592	17.341	1337.099	1021.051
351.606	17.273	1336.057	1019.755
352.621	17.287	1334.862	1018.838
353.635	17.122	1334.121	1017.193
354.650	17.171	1333.178	1016.678
355.665	17.172	1332.285	1015.914
356.679	17.212	1331.195	1015.231
357.694	17.258	1329.729	1014.299
358.708	17.320	1328.974	1014.002
359.723	17.331	1328.196	1013.381
360.738	17.389	1326.822	1012.592
361.752	17.384	1325.669	1011.594
362.767	17.390	1325.052	1011.066
363.781	17.393	1323.874	1010.097
364.796	17.346	1323.423	1009.381
365.810	17.408	1322.542	1008.988
366.825	17.418	1322.127	1008.642
367.840	17.529	1321.258	1008.546
368.854	17.585	1320.390	1008.127
369.869	17.684	1320.024	1008.345
370.883	17.719	1319.240	1007.866
371.898	17.689	1318.496	1007.030
372.913	17.553	1317.674	1005.510
373.927	17.533	1316.895	1004.709
374.942	17.610	1315.885	1004.303
375.956	17.664	1315.360	1004.133
376.971	17.646	1314.572	1003.336
377.986	17.640	1313.244	1002.195
379.000	17.646	1312.855	1001.850
380.015	17.735	1311.895	1001.549
381.029	17.828	1310.820	1001.185
382.044	17.821	1309.822	1000.291
383.059	17.834	1309.165	999.781
384.073	17.788	1309.112	999.378
385.088	17.849	1308.036	998.827
386.102	17.814	1307.720	998.292
387.117	17.943	1306.987	998.397
388.132	17.876	1305.812	997.023
389.146	17.859	1304.789	996.055
390.161	17.844	1304.303	995.507
391.175	17.848	1303.477	994.812
392.190	17.781	1302.855	993.856
393.205	17.839	1301.552	993.115
394.219	17.939	1300.660	992.930
395.234	17.936	1299.404	991.866
396.248	17.828	1298.393	990.375
397.263	17.881	1296.978	989.516
398.278	17.877	1295.535	988.306
399.292	17.902	1294.249	987.381
400.307	17.878	1293.243	986.391
401.321	17.793	1292.262	985.063
402.336	17.895	1291.346	984.868
403.350	17.814	1290.202	983.437
404.365	17.827	1289.016	982.521
405.380	17.861	1288.816	982.478
406.394	17.922	1287.701	981.890
407.409	17.914	1286.868	981.124
408.423	18.046	1286.442	981.474
409.438	18.044	1286.048	981.074
410.453	18.262	1284.961	981.405
411.467	18.173	1284.918	980.778
412.482	18.259	1283.904	980.409
413.496	18.239	1283.475	979.881
414.511	18.321	1282.213	979.296
415.526	18.283	1281.904	978.761
416.540	18.249	1281.386	978.081
417.555	18.513	1279.943	978.399
418.569	18.462	1279.684	977.825
419.584	18.391	1279.432	977.139
420.599	18.438	1278.630	976.712
421.613	137.571	1431.036	1790.636
422.628	132.452	1453.237	1790.740
