DTS Sentinel unit serial number:	SN413079Multiplexer serial number:	ORYXHardware model number:	OX4-SRSoftware version number:	ORYX F/W v4.00 Oryx Data Collector v3.7.2.0data status	okinstallation	princeton_trtdifferential loss correction	single-endedforward channel	channel 4reverse channel	N/Adate	2019/09/14time	22:37:35forward acquisition time	60.00reverse acquisition time	0.00gamma	496.2192k internal	0.2305k external	0.2305temperature offset calibration	1.0064default loss term (dB/km)	0.3790temperature slope calibration	1.0000multiplexer offset coefficient	1.0000multiplexer slope coefficient	1.0000fibre end	0.00T internal ref (°C)	32.50T ext. ref 1 (°C)	4.67T ext. ref 2 (°C)	27.56length (m)	temperature (°C)	Stokes	anti-Stokes-747.200	120.752	0.333	-0.421
-746.185	800.000	0.096	0.348
-745.171	64.696	-0.267	-0.274
-744.156	-27.814	-0.173	0.102
-743.142	-16.267	-0.033	-0.021
-742.127	75.165	-0.296	0.317
-741.112	800.000	0.010	0.043
-740.098	-108.770	-0.318	-0.069
-739.083	-56.744	-0.225	-0.101
-738.069	-65.788	0.234	0.095
-737.054	22.912	-0.181	-0.151
-736.039	-200.000	-0.030	-0.337
-735.025	-0.044	-0.080	0.058
-734.010	58.014	-0.063	-0.062
-732.996	-200.000	0.064	-0.419
-731.981	-88.424	0.081	-0.025
-730.966	-28.469	0.053	0.031
-729.952	83.028	-0.097	-0.107
-728.937	-45.840	0.030	-0.015
-727.923	76.892	0.055	0.060
-726.908	800.000	-0.044	0.170
-725.894	800.000	0.090	0.317
-724.879	800.000	0.043	-0.121
-723.864	-135.463	-0.124	0.015
-722.850	-29.946	0.125	0.072
-721.835	800.000	0.087	-0.304
-720.821	81.841	0.165	0.182
-719.806	-81.214	-0.296	0.099
-718.791	-0.997	0.207	-0.149
-717.777	-48.229	-0.078	-0.038
-716.762	311.159	-0.097	0.186
-715.748	-200.000	-0.021	0.193
-714.733	-200.000	-0.022	-0.372
-713.718	-78.987	-0.193	0.067
-712.704	80.542	-0.076	-0.083
-711.689	-77.698	-0.134	0.047
-710.675	-86.346	0.116	0.036
-709.660	550.395	-0.059	-0.143
-708.645	121.071	0.261	0.330
-707.631	-167.818	0.214	-0.009
-706.616	-143.954	0.197	-0.019
-705.602	800.000	-0.012	-0.051
-704.587	159.601	-0.126	-0.179
-703.572	-200.000	0.033	-0.193
-702.558	-200.000	0.035	0.368
-701.543	-200.000	-0.020	0.107
-700.529	208.876	0.094	0.149
-699.514	580.485	0.040	-0.099
-698.499	-111.524	0.044	0.009
-697.485	356.588	0.107	-0.217
-696.470	163.684	-0.081	0.116
-695.456	-200.000	-0.010	0.211
-694.441	-200.000	0.038	0.298
-693.426	146.544	0.263	0.358
-692.412	128.169	0.098	-0.126
-691.397	-200.000	0.007	-0.358
-690.383	658.437	0.074	-0.193
-689.368	57.320	-0.137	0.136
-688.354	-111.219	-0.124	-0.026
-687.339	17.488	0.017	-0.014
-686.324	800.000	-0.040	0.130
-685.310	395.665	0.054	0.114
-684.295	-8.433	0.190	-0.130
-683.281	-200.000	-0.001	0.165
-682.266	-83.761	-0.174	-0.056
-681.251	334.856	0.143	0.280
-680.237	-107.950	-0.107	-0.024
-679.222	-46.886	-0.311	0.154
-678.208	-126.094	0.396	0.060
-677.193	-80.313	0.401	0.136
-676.178	185.306	-0.037	-0.056
-675.164	-200.000	-0.001	0.036
-674.149	167.636	-0.044	-0.063
-673.135	9.908	-0.106	0.082
-672.120	-200.000	-0.021	0.152
-671.105	17.256	-0.143	0.115
-670.091	150.731	-0.168	-0.232
-669.076	-167.266	0.234	-0.010
-668.062	118.540	0.034	-0.042
-667.047	-32.802	0.094	-0.053
-666.032	-38.669	0.266	0.142
-665.018	-109.775	-0.385	0.082
-664.003	-59.274	-0.193	-0.084
-662.989	-178.231	0.185	-0.004
-661.974	44.892	-0.195	0.182
-660.959	17.102	-0.172	-0.138
-659.945	50.557	-0.206	-0.198
-658.930	-24.929	-0.171	-0.103
-657.916	20.155	-0.404	0.331
-656.901	-56.130	-0.112	0.050
-655.886	10.612	-0.191	-0.147
-654.872	-72.834	-0.168	0.063
-653.857	-143.697	-0.364	-0.035
-652.843	-194.600	0.106	-0.001
-651.828	108.334	-0.209	0.252
-650.814	-46.682	-0.243	-0.121
-649.799	-200.000	-0.018	-0.124
-648.784	-82.015	-0.286	-0.095
-647.770	-15.333	-0.139	-0.090
-646.755	-200.000	-0.019	-0.362
-645.741	37.384	0.284	-0.255
-644.726	577.741	0.116	0.287
-643.711	-200.000	-0.003	0.279
-642.697	571.138	0.043	0.106
-641.682	93.928	-0.138	0.159
-640.668	-71.823	-0.207	0.078
-639.653	-12.008	-0.281	-0.187
-638.638	-134.034	0.165	0.021
-637.624	42.358	0.182	0.168
-636.609	-41.499	0.058	-0.030
-635.595	13.182	-0.240	0.188
-634.580	-100.711	-0.247	0.062
-633.565	-200.000	0.032	-0.178
-632.551	-101.363	0.210	0.052
-631.536	60.225	0.145	-0.145
-630.522	106.409	-0.228	-0.274
-629.507	-170.398	0.055	0.002
-628.492	-57.528	-0.084	-0.037
-627.478	800.000	-0.047	-0.178
-626.463	2.300	0.130	-0.096
-625.449	27.532	0.209	0.178
-624.434	-75.093	0.212	0.077
-623.419	226.339	0.098	0.160
-622.405	-117.432	-0.090	-0.017
-621.390	-138.748	-0.197	-0.022
-620.376	-59.298	-0.098	0.043
-619.361	-5.706	0.165	-0.114
-618.346	-92.142	-0.185	0.053
-617.332	-136.732	-0.122	0.014
-616.317	-59.061	-0.611	0.267
-615.303	-12.830	-0.108	-0.071
-614.288	434.750	-0.119	0.263
-613.273	-91.656	0.245	0.071
-612.259	573.550	0.023	0.057
-611.244	2.072	-0.098	-0.072
-610.230	-200.000	0.022	-0.364
-609.215	-200.000	-0.033	-0.156
-608.201	-89.271	0.295	-0.088
-607.186	64.631	-0.272	0.278
-606.171	368.171	-0.045	-0.093
-605.157	800.000	-0.021	0.072
-604.142	-200.000	0.042	0.235
-603.128	61.102	0.214	-0.215
-602.113	-129.721	-0.045	-0.006
-601.098	-173.317	0.347	-0.011
-600.084	168.440	0.317	-0.457
-599.069	-164.666	-0.494	0.023
-598.055	-25.128	-0.116	0.069
-597.040	-200.000	0.035	-0.198
-596.025	-200.000	-0.008	0.243
-595.011	-78.086	-0.329	0.114
-593.996	-121.598	0.058	-0.010
-592.982	-92.654	-0.054	0.015
-591.967	190.874	-0.068	0.104
-590.952	-200.000	0.029	-0.207
-589.938	558.353	0.117	-0.285
-588.923	204.654	-0.165	-0.259
-587.909	800.000	-0.138	-0.403
-586.894	-121.261	-0.235	0.040
-585.879	106.549	-0.249	0.298
-584.865	800.000	0.080	0.239
-583.850	292.903	0.133	0.246
-582.836	109.590	-0.055	0.066
-581.821	800.000	0.060	0.215
-580.806	-200.000	-0.006	0.275
-579.792	58.425	0.137	0.135
-578.777	113.694	0.148	-0.181
-577.763	-135.427	-0.093	-0.011
-576.748	705.064	0.113	-0.301
-575.733	800.000	0.099	-0.299
-574.719	800.000	0.054	0.153
-573.704	800.000	-0.075	0.237
-572.690	575.846	0.051	-0.127
-571.675	3.635	-0.284	-0.209
-570.661	35.910	-0.157	0.139
-569.646	410.005	0.147	0.316
-568.631	142.134	0.136	-0.182
-567.617	800.000	-0.108	-0.312
-566.602	59.818	-0.066	0.065
-565.588	-45.947	0.165	-0.082
-564.573	75.229	0.118	-0.125
-563.558	-6.757	0.204	0.140
-562.544	-115.398	-0.144	-0.027
-561.529	-200.000	-0.017	-0.092
-560.515	-200.000	0.203	-0.001
-559.500	610.158	0.117	0.296
-558.485	-46.711	0.114	-0.057
-557.471	-200.000	-0.003	0.302
-556.456	167.790	-0.183	0.262
-555.442	32.316	0.165	0.144
-554.427	76.516	-0.170	0.182
-553.412	-24.676	-0.383	-0.230
-552.398	98.019	-0.066	0.076
-551.383	-122.037	-0.373	0.062
-550.369	800.000	0.138	-0.391
-549.354	-162.859	0.239	0.012
-548.339	800.000	-0.056	0.207
-547.325	-51.900	0.231	-0.109
-546.310	-59.071	0.158	0.069
-545.296	-113.878	0.144	0.028
-544.281	-200.000	0.032	-0.234
-543.266	800.000	-0.099	0.321
-542.252	-200.000	-0.004	0.025
-541.237	-62.959	-0.229	0.095
-540.223	-200.000	-0.067	0.485
-539.208	-35.999	-0.360	0.197
-538.193	145.742	-0.206	0.279
-537.179	123.792	0.245	0.310
-536.164	11.566	-0.005	-0.004
-535.150	-200.000	-0.010	0.258
-534.135	226.361	-0.151	-0.247
-533.121	-161.058	0.272	-0.014
-532.106	429.861	0.058	-0.128
-531.091	440.007	0.111	0.244
-530.077	75.169	0.088	-0.094
-529.062	56.760	0.131	0.129
-528.048	800.000	-0.122	0.431
-527.033	2.236	-0.100	-0.073
-526.018	-200.000	0.007	-0.255
-525.004	-3.016	0.404	-0.284
-523.989	30.180	0.292	-0.251
-522.975	-200.000	-0.006	0.155
-521.960	-73.121	-0.151	-0.056
-520.945	-54.149	0.119	-0.054
-519.931	-200.000	0.008	-0.109
-518.916	-200.000	-0.012	0.129
-517.902	124.690	-0.154	-0.195
-516.887	-200.000	-0.016	-0.108
-515.872	800.000	-0.043	-0.126
-514.858	-8.736	0.282	0.191
-513.843	109.897	-0.187	0.226
-512.829	99.995	0.251	-0.294
-511.814	116.374	0.066	-0.082
-510.799	800.000	0.146	0.434
-509.785	24.511	0.128	0.107
-508.770	800.000	-0.054	-0.186
-507.756	800.000	-0.041	-0.125
-506.741	8.970	0.125	-0.095
-505.726	669.036	-0.043	0.111
-504.712	137.822	0.061	-0.080
-503.697	-180.800	-0.102	0.002
-502.683	5.308	-0.360	-0.268
-501.668	5.479	-0.349	-0.260
-500.653	205.276	-0.196	-0.308
-499.639	-164.524	-0.259	0.012
-498.624	92.086	-0.168	0.191
-497.610	800.000	-0.090	0.394
-496.595	-66.336	-0.131	-0.053
-495.581	704.434	-0.108	0.288
-494.566	800.000	-0.047	-0.194
-493.551	-200.000	0.004	-0.158
-492.537	-100.651	0.099	0.025
-491.522	525.265	0.094	0.222
-490.508	-106.294	-0.384	0.087
-489.493	800.000	0.051	-0.146
-488.478	-123.182	0.255	-0.041
-487.464	-109.405	-0.318	0.068
-486.449	-200.000	0.002	0.198
-485.435	90.305	0.106	-0.120
-484.420	-18.298	0.246	0.155
-483.405	-200.000	0.005	0.160
-482.391	-200.000	-0.006	-0.192
-481.376	20.894	-0.338	0.276
-480.362	-133.151	0.260	0.033
-479.347	103.388	-0.250	-0.296
-478.332	272.097	0.033	-0.058
-477.318	217.553	0.083	-0.133
-476.303	289.675	0.051	0.093
-475.289	-200.000	-0.018	0.175
-474.274	197.221	0.079	0.121
-473.259	3.310	-0.153	0.112
-472.245	-200.000	0.020	-0.147
-471.230	6.955	0.114	0.086
-470.216	141.155	-0.070	-0.093
-469.201	-117.138	-0.117	0.021
-468.186	9.077	-0.156	0.119
-467.172	123.605	0.116	-0.146
-466.157	165.774	-0.270	0.385
-465.143	18.885	-0.195	0.157
-464.128	-200.000	0.061	-0.285
-463.113	-17.688	-0.181	-0.114
-462.099	-112.814	-0.077	-0.015
-461.084	231.224	0.168	0.278
-460.070	53.992	0.178	-0.172
-459.055	-200.000	0.026	-0.400
-458.040	337.078	-0.110	-0.214
-457.026	-200.000	0.036	0.202
-456.011	-65.863	-0.071	0.028
-454.997	126.794	-0.114	-0.146
-453.982	-28.088	0.011	-0.006
-452.968	8.660	-0.251	0.190
-451.953	800.000	0.019	0.064
-450.938	-84.251	0.283	0.090
-449.924	0.331	-0.247	0.177
-448.909	116.527	-0.168	0.208
-447.895	228.756	0.074	-0.122
-446.880	-200.000	-0.019	0.354
-445.865	225.779	-0.062	-0.101
-444.851	-109.522	0.402	-0.085
-443.836	-200.000	-0.009	0.133
-442.822	36.710	0.177	0.157
-441.807	344.893	0.102	-0.201
-440.792	800.000	-0.026	-0.089
-439.778	748.960	0.036	0.097
-438.763	334.969	-0.168	-0.327
-437.749	255.874	0.122	-0.211
-436.734	-200.000	-0.011	-0.202
-435.719	-60.597	0.157	0.067
-434.705	48.873	0.186	0.175
-433.690	-105.438	-0.140	0.032
-432.676	8.015	-0.178	-0.134
-431.661	-59.909	0.283	-0.122
-430.646	-84.044	0.211	0.067
-429.632	165.708	-0.245	-0.349
-428.617	800.000	-0.049	0.210
-427.603	23.700	0.166	0.137
-426.588	337.065	-0.092	0.179
-425.573	196.954	0.179	-0.274
-424.559	21.176	-0.496	-0.405
-423.544	-27.661	-0.069	-0.040
-422.530	-96.759	-0.167	0.044
-421.515	291.360	-0.035	-0.065
-420.500	283.441	-0.080	0.145
-419.486	34.661	-0.209	-0.184
-418.471	-23.806	-0.139	0.083
-417.457	-42.532	-0.101	0.052
-416.442	-140.287	0.055	-0.006
-415.428	708.527	0.107	0.284
-414.413	54.197	0.173	0.167
-413.398	-130.101	0.102	0.014
-412.384	-90.776	0.088	-0.025
-411.369	800.000	-0.049	0.149
-410.355	800.000	-0.090	-0.256
-409.340	56.015	-0.112	0.109
-408.325	44.056	-0.247	0.228
-407.311	95.289	0.089	0.102
-406.296	-200.000	0.019	0.091
-405.282	-162.566	-0.200	-0.010
-404.267	-200.000	-0.016	0.155
-403.252	2.464	-0.177	0.129
-402.238	145.455	0.065	0.088
-401.223	-30.420	-0.156	-0.089
-400.209	-65.434	-0.177	-0.071
-399.194	507.210	-0.103	0.240
-398.179	-6.692	0.274	-0.187
-397.165	207.796	-0.111	0.175
-396.150	-36.518	-0.281	-0.152
-395.136	-89.473	-0.122	0.036
-394.121	800.000	-0.094	-0.286
-393.106	-120.910	-0.425	-0.072
-392.092	-200.000	0.007	-0.211
-391.077	542.388	-0.020	0.048
-390.063	-64.346	0.140	-0.057
-389.048	-75.571	-0.163	0.058
-388.033	800.000	0.080	-0.254
-387.019	-90.540	0.142	-0.041
-386.004	800.000	0.059	0.187
-384.990	-200.000	-0.006	-0.076
-383.975	-200.000	-0.038	-0.198
-382.960	-200.000	-0.031	-0.348
-381.946	-39.778	-0.149	0.078
-380.931	-200.000	-0.031	-0.141
-379.917	30.392	0.250	0.215
-378.902	-86.340	-0.195	-0.060
-377.888	-100.361	0.434	0.108
-376.873	12.760	-0.161	-0.124
-375.858	132.978	0.196	0.254
-374.844	800.000	0.075	-0.306
-373.829	-129.077	0.400	-0.056
-372.815	-114.137	0.319	0.062
-371.800	26.349	0.164	0.137
-370.785	-200.000	0.015	0.251
-369.771	-129.004	-0.221	-0.031
-368.756	-51.677	-0.267	-0.125
-367.742	-86.589	-0.314	-0.096
-366.727	-23.527	-0.183	-0.110
-365.712	41.997	0.086	-0.078
-364.698	-200.000	0.027	-0.225
-363.683	-119.317	0.165	-0.029
-362.669	800.000	0.035	-0.129
-361.654	-36.193	0.228	0.124
-360.639	-200.000	0.009	-0.150
-359.625	252.627	-0.114	-0.194
-358.610	-200.000	0.014	0.083
-357.596	800.000	-0.035	-0.103
-356.581	277.971	0.105	-0.188
-355.566	-50.119	-0.073	0.035
-354.552	-200.000	-0.027	-0.153
-353.537	800.000	0.116	0.332
-352.523	-147.795	0.218	0.018
-351.508	662.563	0.049	-0.127
-350.493	-68.311	0.135	0.053
-349.479	800.000	0.102	0.285
-348.464	-7.844	-0.234	0.158
-347.450	251.282	-0.059	-0.100
-346.435	138.574	-0.059	0.078
-345.420	-155.647	-0.090	0.006
-344.406	176.934	-0.207	0.302
-343.391	55.365	0.145	-0.140
-342.377	-94.945	0.190	-0.052
-341.362	432.945	-0.124	0.269
-340.348	800.000	0.059	-0.218
-339.333	167.676	0.039	-0.055
-338.318	800.000	-0.054	0.177
-337.304	432.898	0.138	0.301
-336.289	223.375	-0.046	-0.074
-335.275	138.923	0.136	0.179
-334.260	-27.570	-0.077	-0.045
-333.245	-200.000	0.030	0.293
-332.231	95.551	0.040	0.046
-331.216	-21.960	0.011	0.006
-330.202	502.377	-0.099	-0.230
-329.187	-3.305	-0.326	-0.227
-328.172	-130.259	0.261	0.036
-327.158	-200.000	-0.018	0.589
-326.143	-115.119	-0.199	0.038
-325.129	-105.055	0.194	0.045
-324.114	509.167	0.058	-0.136
-323.099	-89.387	0.103	-0.030
-322.085	40.979	0.164	0.148
-321.070	233.954	-0.232	0.382
-320.056	800.000	0.126	0.374
-319.041	-16.714	0.042	-0.026
-318.026	-101.844	-0.073	-0.018
-317.012	-200.000	0.015	-0.236
-315.997	-41.225	0.229	-0.118
-314.983	-38.711	0.197	0.104
-313.968	800.000	-0.109	-0.308
-312.953	-200.000	0.047	-0.243
-311.939	-43.252	-0.038	0.019
-310.924	-200.000	0.007	-0.041
-309.910	61.942	-0.083	-0.083
-308.895	-200.000	-0.005	0.047
-307.880	-200.000	-0.094	0.566
-306.866	-200.000	0.025	-0.252
-305.851	525.935	-0.139	-0.328
-304.837	-200.000	-0.052	0.278
-303.822	9.677	-0.200	0.151
-302.807	-200.000	0.071	-0.336
-301.793	69.225	-0.155	0.159
-300.778	-200.000	-0.035	-0.159
-299.764	470.297	0.003	-0.006
-298.749	800.000	-0.117	-0.417
-297.735	55.493	-0.110	-0.106
-296.720	-95.041	0.416	0.113
-295.705	800.000	0.044	0.180
-294.691	-121.222	0.321	-0.054
-293.676	103.961	-0.111	0.130
-292.662	8.883	-0.413	-0.311
-291.647	-200.000	0.001	-0.204
-290.632	-65.068	0.158	-0.064
-289.618	-200.000	-0.067	0.365
-288.603	237.108	-0.077	-0.128
-287.589	-111.596	0.146	0.030
-286.574	42.704	-0.217	0.197
-285.559	313.112	0.067	0.127
-284.545	800.000	0.027	-0.092
-283.530	17.259	0.104	-0.082
-282.516	800.000	-0.034	-0.127
-281.501	800.000	0.021	-0.063
-280.486	105.293	-0.156	-0.184
-279.472	800.000	-0.062	-0.172
-278.457	97.527	0.095	0.109
-277.443	-200.000	-0.080	0.379
-276.428	766.893	-0.089	0.241
-275.413	-46.481	0.156	-0.077
-274.399	-40.198	0.229	0.119
-273.384	252.126	0.137	-0.233
-272.370	-61.739	0.281	-0.118
-271.355	96.237	0.051	0.058
-270.340	49.135	-0.168	-0.157
-269.326	116.386	0.120	-0.147
-268.311	800.000	0.046	-0.201
-267.297	92.965	0.209	-0.236
-266.282	-130.755	-0.076	0.010
-265.267	215.650	0.068	0.108
-264.253	-200.000	0.000	-0.425
-263.238	-71.610	0.146	-0.055
-262.224	-200.000	0.004	0.279
-261.209	800.000	0.108	-0.331
-260.195	641.735	0.042	-0.106
-259.180	-95.333	0.208	-0.056
-258.165	-106.321	-0.117	0.026
-257.151	588.753	0.098	0.241
-256.136	-200.000	0.019	0.253
-255.122	134.668	-0.121	-0.157
-254.107	548.152	0.083	-0.197
-253.092	800.000	0.069	-0.234
-252.078	-78.217	-0.094	-0.032
-251.063	78.523	0.339	0.362
-250.049	82.173	-0.168	0.182
-249.034	57.733	-0.224	0.219
-248.019	800.000	0.058	0.209
-247.005	305.660	0.061	-0.114
-245.990	343.501	0.174	-0.340
-244.976	-41.120	0.199	-0.103
-243.961	-75.451	0.313	0.111
-242.946	-173.489	-0.660	-0.020
-241.932	-57.598	0.526	0.230
-240.917	-140.461	-0.358	0.037
-239.903	-45.906	-0.238	-0.117
-238.888	800.000	0.063	0.209
-237.873	136.507	0.044	-0.057
-236.859	45.199	-0.123	-0.113
-235.844	595.363	-0.111	-0.275
-234.830	135.936	0.176	-0.229
-233.815	-75.461	0.124	-0.044
-232.800	-115.656	0.252	0.047
-231.786	-29.261	-0.131	-0.075
-230.771	-118.801	0.027	-0.005
-229.757	-62.083	-0.131	0.055
-228.742	245.143	0.198	0.331
-227.727	-11.380	-0.411	0.270
-226.713	-134.445	0.130	0.016
-225.698	-117.516	0.128	0.023
-224.684	-98.090	0.279	-0.072
-223.669	297.364	0.012	-0.022
-222.655	95.216	0.184	0.209
-221.640	-200.000	-0.004	-0.242
-220.625	-200.000	-0.043	0.245
-219.611	-88.785	0.162	-0.048
-218.596	-119.337	0.268	-0.046
-217.582	-200.000	0.013	0.102
-216.567	-48.625	0.367	-0.176
-215.552	-58.837	0.189	-0.081
-214.538	-34.856	-0.161	-0.088
-213.523	-139.520	0.187	0.020
-212.509	-48.154	0.095	0.046
-211.494	-156.806	-0.285	-0.017
-210.479	19.497	-0.097	0.078
-209.465	-165.034	0.415	0.018
-208.450	-113.148	-0.091	0.018
-207.436	-200.000	0.051	-0.240
-206.421	-42.302	0.318	-0.162
-205.406	-22.278	0.227	-0.137
-204.392	78.371	-0.247	0.263
-203.377	277.107	0.238	0.421
-202.363	654.621	0.086	-0.220
-201.348	48.880	0.144	-0.134
-200.333	-200.000	0.006	-0.182
-199.319	-95.997	-0.361	-0.096
-198.304	-61.683	0.098	-0.041
-197.290	-111.875	0.066	0.013
-196.275	-158.045	0.022	-0.001
-195.260	-200.000	-0.053	0.273
-194.246	-75.838	-0.047	0.017
-193.231	800.000	0.065	0.224
-192.217	-105.856	-0.203	0.046
-191.202	-83.491	0.234	0.075
-190.187	-200.000	-0.013	-0.093
-189.173	-200.000	0.028	0.140
-188.158	-200.000	0.031	0.394
-187.144	329.776	0.142	0.272
-186.129	420.611	-0.111	0.236
-185.114	-94.181	-0.166	0.045
-184.100	-7.062	-0.234	0.158
-183.085	145.757	-0.054	-0.073
-182.071	-24.394	-0.052	-0.031
-181.056	-70.937	0.126	-0.047
-180.042	-76.618	-0.108	-0.038
-179.027	-200.000	0.014	-0.176
-178.012	53.631	0.113	-0.108
-176.998	-196.254	-0.305	0.002
-175.983	87.542	0.228	-0.251
-174.969	-200.000	0.004	0.018
-173.954	800.000	0.061	0.225
-172.939	81.303	0.183	-0.197
-171.925	-54.008	0.177	0.080
-170.910	142.124	0.034	0.044
-169.896	-200.000	-0.037	-0.298
-168.881	-68.576	0.068	0.026
-167.866	-11.377	0.169	-0.111
-166.852	-200.000	-0.018	0.163
-165.837	-128.719	0.255	-0.036
-164.823	-162.901	-0.402	0.019
-163.808	-200.000	-0.049	-0.300
-162.793	-82.563	0.218	0.070
-161.779	301.963	-0.108	-0.199
-160.764	-72.300	0.355	-0.131
-159.750	6.644	-0.059	-0.043
-158.735	-200.000	-0.023	-0.128
-157.720	-128.515	-0.189	-0.027
-156.706	-53.881	-0.056	-0.026
-155.691	-121.492	-0.262	0.043
-154.677	-200.000	0.042	-0.236
-153.662	-100.589	-0.141	-0.035
-152.647	800.000	0.028	-0.115
-151.633	-27.013	0.097	0.056
-150.618	-88.846	-0.311	0.092
-149.604	143.491	0.029	-0.039
-148.589	-121.577	0.266	-0.044
-147.574	-5.613	0.072	-0.049
-146.560	-131.067	0.444	0.059
-145.545	-1.165	-0.156	0.109
-144.531	31.508	-0.084	-0.072
-143.516	800.000	-0.009	-0.024
-142.502	-129.574	-0.169	0.023
-141.487	-161.356	0.270	-0.014
-140.472	92.696	0.098	0.110
-139.458	-146.233	-0.147	-0.013
-138.443	-93.348	0.138	-0.038
-137.429	-2.912	0.312	0.217
-136.414	-103.780	-0.059	0.014
-135.399	800.000	-0.058	-0.163
-134.385	10.643	-0.222	-0.168
-133.370	-122.580	0.243	0.039
-132.356	248.310	0.063	-0.106
-131.341	550.835	-0.042	0.099
-130.326	-116.504	0.137	0.025
-129.312	797.713	-0.062	-0.170
-128.297	-69.276	0.156	-0.060
-127.283	-95.967	-0.319	0.084
-126.268	-200.000	-0.010	-0.250
-125.253	-76.680	-0.265	-0.092
-124.239	293.668	0.158	-0.287
-123.224	-75.599	0.104	0.037
-122.210	127.796	0.196	0.247
-121.195	-127.599	0.069	0.010
-120.180	76.810	0.006	0.007
-119.166	-74.528	0.060	-0.021
-118.151	-200.000	0.022	-0.271
-117.137	-200.000	-0.003	0.159
-116.122	249.777	0.179	-0.302
-115.107	142.187	-0.214	0.282
-114.093	800.000	0.109	-0.322
-113.078	800.000	0.056	-0.192
-112.064	-200.000	0.040	0.201
-111.049	20.057	0.114	0.091
-110.034	-57.043	0.172	-0.075
-109.020	400.635	0.034	0.071
-108.005	276.899	0.175	-0.308
-106.991	-200.000	0.005	0.138
-105.976	-82.563	0.048	-0.016
-104.962	-34.980	0.143	0.078
-103.947	49.303	-0.486	-0.453
-102.932	12.626	0.076	-0.058
-101.918	-82.636	0.210	-0.067
-100.903	5.412	0.193	-0.141
-99.889	92.517	0.126	0.141
-98.874	166.940	0.059	-0.084
-97.859	-20.245	0.106	-0.065
-96.845	-200.000	0.002	-0.172
-95.830	-60.775	-0.118	-0.049
-94.816	-200.000	0.024	0.269
-93.801	103.647	-0.056	0.065
-92.786	242.644	0.088	-0.147
-91.772	-200.000	0.008	-0.191
-90.757	800.000	0.070	-0.259
-89.743	-0.189	-0.208	-0.147
-88.728	-33.901	-0.095	0.052
-87.713	-55.026	0.132	0.059
-86.699	-140.142	-0.328	0.034
-85.684	-200.000	-0.004	0.070
-84.670	81.471	-0.201	0.216
-83.655	281.498	-0.110	0.196
-82.640	-73.870	0.253	-0.091
-81.626	-35.567	0.134	-0.072
-80.611	589.969	0.023	-0.056
-79.597	-165.835	-0.279	0.012
-78.582	-200.000	0.030	-0.217
-77.567	-33.507	-0.106	0.058
-76.553	49.228	0.020	-0.018
-75.538	-200.000	0.032	0.396
-74.524	-9.610	0.089	0.059
-73.509	-179.420	-0.197	-0.004
-72.494	-137.749	0.279	0.031
-71.480	-124.952	-0.381	0.058
-70.465	-93.659	0.398	0.109
-69.451	-85.179	0.146	-0.045
-68.436	-159.319	-0.025	0.001
-67.422	800.000	-0.060	-0.239
-66.407	67.817	-0.196	-0.198
-65.392	-99.828	0.222	0.055
-64.378	-200.000	0.036	-0.242
-63.363	339.028	0.121	0.233
-62.349	-5.169	0.315	0.215
-61.334	39.657	-1.071	-0.952
-60.319	61.027	0.549	0.540
-59.305	668.986	-0.356	-0.912
-58.290	371.483	0.557	1.121
-57.276	732.238	0.545	1.444
-56.261	-200.000	94.820	577.391
-55.246	650.318	1370.359	3475.374
-54.232	195.869	2549.883	3841.976
-53.217	109.905	2299.511	2732.355
-52.203	39.175	2062.129	1827.231
-51.188	34.286	1977.694	1708.619
-50.173	32.720	1959.683	1679.062
-49.159	47.400	2008.544	1853.579
-48.144	48.982	2026.206	1884.074
-47.130	34.971	1988.233	1723.632
-46.115	32.546	1978.572	1693.416
-45.100	32.417	1975.761	1689.786
-44.086	32.416	1972.579	1686.985
-43.071	32.378	1970.430	1684.738
-42.057	32.240	1968.418	1681.714
-41.042	32.342	1966.209	1680.674
-40.027	32.316	1964.086	1678.558
-39.013	32.407	1961.962	1677.490
-37.998	32.353	1960.778	1675.933
-36.984	32.382	1959.095	1674.683
-35.969	32.394	1956.530	1672.532
-34.954	32.552	1954.904	1672.481
-33.940	32.481	1953.335	1670.443
-32.925	32.521	1952.200	1669.755
-31.911	32.549	1950.753	1668.700
-30.896	32.578	1948.957	1667.354
-29.881	32.528	1947.842	1665.897
-28.867	32.506	1946.223	1664.251
-27.852	32.538	1944.182	1662.719
-26.838	32.549	1941.977	1660.869
-25.823	32.602	1939.668	1659.295
-24.809	32.495	1938.563	1657.335
-23.794	32.489	1936.859	1655.761
-22.779	32.506	1935.310	1654.521
-21.765	32.513	1933.130	1652.657
-20.750	32.556	1931.274	1651.383
-19.736	32.471	1930.390	1649.809
-18.721	32.498	1928.930	1648.738
-17.706	32.473	1927.299	1647.054
-16.692	32.527	1925.348	1645.794
-15.677	32.530	1924.053	1644.651
-14.663	32.582	1922.145	1643.405
-13.648	32.517	1921.054	1641.847
-12.633	32.537	1919.544	1640.663
-11.619	32.602	1918.362	1640.156
-10.604	32.510	1916.954	1638.082
-9.590	32.466	1915.434	1636.338
-8.575	32.535	1914.146	1635.774
-7.560	32.542	1912.739	1634.562
-6.546	32.533	1912.060	1633.843
-5.531	32.429	1911.366	1632.280
-4.517	32.555	1909.431	1631.658
-3.502	32.506	1908.138	1630.064
-2.487	32.482	1907.036	1628.852
-1.473	32.525	1906.391	1628.606
-0.458	32.600	1901.562	1625.062
0.556	32.257	1882.370	1597.904
1.571	28.130	1863.425	1546.863
2.586	24.199	1885.605	1531.426
3.600	23.224	1921.432	1551.844
4.615	22.557	1916.511	1541.895
5.629	17.481	1815.687	1418.467
6.644	8.952	1698.283	1259.885
7.659	5.061	1662.747	1203.437
8.673	4.766	1659.041	1198.376
9.688	4.637	1657.937	1196.485
10.702	4.627	1656.877	1195.539
11.717	4.660	1653.507	1193.252
12.731	5.135	1652.806	1196.281
13.746	10.682	1665.710	1248.266
14.761	17.853	1681.768	1315.664
15.775	19.979	1682.957	1332.858
16.790	19.070	1679.513	1323.034
17.804	17.939	1676.752	1312.055
18.819	16.875	1673.576	1301.286
19.834	16.213	1671.117	1294.185
20.848	16.079	1669.512	1291.805
21.863	15.781	1667.892	1288.151
22.877	15.600	1666.145	1285.308
23.892	15.380	1665.251	1282.822
24.907	15.274	1663.987	1280.925
25.921	15.302	1662.774	1280.090
26.936	15.260	1662.118	1279.147
27.950	15.342	1660.844	1278.684
28.965	15.358	1660.687	1278.571
29.980	15.417	1659.756	1278.192
30.994	15.413	1659.030	1277.487
32.009	15.526	1657.538	1277.085
33.023	15.619	1656.708	1277.037
34.038	15.612	1656.031	1276.353
35.053	15.585	1654.660	1274.978
36.067	15.489	1653.463	1273.214
37.082	15.505	1652.655	1272.599
38.096	15.457	1651.844	1271.500
39.111	15.467	1651.103	1270.892
40.126	15.611	1649.933	1270.967
41.140	15.502	1648.949	1269.270
42.155	15.379	1647.503	1267.120
43.169	15.182	1646.161	1264.487
44.184	15.213	1644.739	1263.518
45.199	15.155	1643.738	1262.199
46.213	15.166	1642.433	1261.172
47.228	15.227	1641.404	1260.727
48.242	15.350	1640.612	1260.928
49.257	15.372	1639.524	1260.150
50.271	15.342	1638.329	1258.891
51.286	15.420	1636.668	1258.092
52.301	15.369	1635.682	1256.839
53.315	15.382	1634.822	1256.166
54.330	15.385	1632.957	1254.643
55.344	15.338	1631.154	1252.792
56.359	15.216	1629.909	1250.819
57.374	15.251	1628.690	1250.036
58.388	15.285	1627.626	1249.360
59.403	15.256	1626.126	1247.883
60.417	15.137	1624.572	1245.696
61.432	15.096	1623.996	1244.834
62.447	15.082	1622.916	1243.794
63.461	15.129	1621.677	1243.084
64.476	15.063	1620.693	1241.727
65.490	15.069	1618.970	1240.340
66.505	14.975	1618.799	1239.404
67.520	15.041	1617.067	1238.457
68.534	15.139	1615.905	1238.188
69.549	15.066	1615.511	1237.233
70.563	15.118	1613.828	1236.219
71.578	15.103	1612.520	1234.999
72.593	15.030	1611.760	1233.766
73.607	14.953	1610.838	1232.387
74.622	14.929	1609.442	1231.028
75.636	14.911	1608.011	1229.697
76.651	14.951	1607.563	1229.539
77.666	15.018	1606.735	1229.288
78.680	14.865	1606.407	1227.807
79.695	14.974	1604.709	1227.197
80.709	15.007	1604.070	1226.843
81.724	15.130	1603.101	1226.897
82.739	15.165	1602.608	1226.668
83.753	15.192	1601.394	1225.825
84.768	15.306	1601.223	1226.418
85.782	15.327	1600.298	1225.759
86.797	15.408	1599.006	1225.247
87.812	15.345	1598.301	1224.137
88.826	15.412	1597.140	1223.634
89.841	15.398	1595.857	1222.440
90.855	15.311	1595.501	1221.426
91.870	15.376	1594.356	1220.914
92.884	15.446	1593.103	1220.357
93.899	15.427	1592.405	1219.575
94.914	15.511	1590.735	1218.797
95.928	15.512	1589.818	1217.990
96.943	15.614	1588.279	1217.447
97.957	15.510	1587.401	1215.914
98.972	15.494	1585.251	1214.038
99.987	15.401	1584.444	1212.643
101.001	15.454	1582.364	1211.324
102.016	15.417	1580.717	1209.690
103.030	15.374	1580.000	1208.730
104.045	15.432	1578.782	1208.106
105.060	15.530	1576.808	1207.191
106.074	15.335	1575.875	1204.967
107.089	15.352	1574.072	1203.607
108.103	15.257	1572.319	1201.482
109.118	15.128	1571.513	1199.833
110.133	15.175	1569.480	1198.511
111.147	15.133	1568.396	1197.280
112.162	15.138	1566.921	1196.082
113.176	15.088	1565.286	1194.373
114.191	15.074	1564.321	1193.428
115.206	15.133	1563.432	1193.063
116.220	15.194	1561.664	1192.042
117.235	15.219	1560.617	1191.320
118.249	15.231	1559.158	1190.184
119.264	15.271	1558.008	1189.485
120.279	15.144	1556.471	1187.308
121.293	15.113	1554.927	1185.807
122.308	15.152	1553.354	1184.772
123.322	15.087	1551.723	1182.968
124.337	15.043	1550.327	1181.488
125.352	15.052	1549.004	1180.439
126.366	15.067	1547.758	1179.490
127.381	15.096	1546.968	1178.988
128.395	15.079	1545.772	1177.851
129.410	15.056	1544.863	1176.895
130.424	15.068	1543.796	1176.058
131.439	15.177	1541.864	1175.250
132.454	15.203	1540.685	1174.427
133.468	15.257	1539.108	1173.500
134.483	15.237	1537.664	1172.156
135.497	15.336	1536.118	1171.568
136.512	15.286	1535.334	1170.516
137.527	15.199	1533.818	1168.651
138.541	15.163	1533.083	1167.735
139.556	15.258	1531.594	1167.159
140.570	15.301	1529.868	1166.036
141.585	15.332	1529.043	1165.523
142.600	15.385	1527.992	1164.988
143.614	15.523	1526.687	1164.848
144.629	15.521	1525.449	1163.784
145.643	15.510	1524.173	1162.635
146.658	15.636	1522.543	1162.157
147.673	15.564	1521.515	1160.773
148.687	15.540	1519.383	1158.875
149.702	15.375	1518.662	1157.087
150.716	15.478	1516.612	1156.133
151.731	15.373	1515.363	1154.354
152.746	15.375	1514.138	1153.332
153.760	15.413	1512.853	1152.511
154.775	15.436	1511.316	1151.396
155.789	15.457	1510.656	1150.940
156.804	15.536	1509.014	1150.125
157.819	15.583	1507.812	1149.431
158.833	15.575	1506.888	1148.568
159.848	15.541	1505.766	1147.380
160.862	15.536	1505.250	1146.849
161.877	15.745	1503.667	1146.971
162.892	15.664	1502.087	1145.109
163.906	15.481	1501.035	1142.961
164.921	15.502	1499.425	1141.778
165.935	15.406	1499.003	1140.705
166.950	15.519	1497.530	1140.246
167.964	15.549	1496.408	1139.493
168.979	15.513	1495.980	1138.828
169.994	15.579	1494.318	1137.905
171.008	15.580	1493.376	1137.097
172.023	15.575	1492.493	1136.287
173.037	15.628	1491.193	1135.553
174.052	15.765	1490.272	1135.680
175.067	15.722	1489.720	1134.870
176.081	15.708	1488.119	1133.450
177.096	15.608	1486.771	1131.653
178.110	15.515	1485.387	1129.875
179.125	15.546	1484.323	1129.174
180.140	15.533	1483.387	1128.271
181.154	15.596	1482.514	1127.934
182.169	15.625	1481.211	1127.037
183.183	15.623	1480.050	1126.039
184.198	15.710	1479.015	1125.737
185.213	15.794	1477.977	1125.408
186.227	15.762	1477.265	1124.551
187.242	15.892	1475.539	1124.005
188.256	15.903	1474.747	1123.377
189.271	15.988	1473.596	1122.965
190.286	15.969	1472.929	1122.234
191.300	15.974	1471.442	1121.034
192.315	15.697	1470.167	1118.125
193.329	15.540	1468.804	1115.940
194.344	15.661	1467.266	1115.476
195.359	15.693	1466.422	1114.949
196.373	15.689	1465.989	1114.495
197.388	15.790	1465.093	1114.389
198.402	15.858	1464.529	1114.310
199.417	15.920	1463.329	1113.710
200.432	16.041	1462.585	1113.840
201.446	16.059	1461.766	1113.240
202.461	16.229	1459.937	1112.871
203.475	16.114	1459.411	1111.607
204.490	16.180	1458.507	1111.257
205.504	16.159	1457.002	1109.873
206.519	16.159	1455.484	1108.621
207.534	16.062	1454.624	1107.230
208.548	15.937	1453.606	1105.538
209.563	15.954	1452.559	1104.757
210.577	16.011	1451.498	1104.225
211.592	16.042	1450.465	1103.539
212.607	16.110	1449.823	1103.402
213.621	16.184	1449.014	1103.175
214.636	16.244	1448.078	1102.751
215.650	16.228	1447.365	1102.011
216.665	16.209	1446.367	1101.027
217.680	16.247	1445.751	1100.712
218.694	16.270	1444.952	1100.155
219.709	16.344	1444.029	1099.836
220.723	16.367	1443.115	1099.190
221.738	16.306	1442.207	1098.008
222.753	16.323	1441.192	1097.247
223.767	16.324	1440.244	1096.432
224.782	16.184	1439.617	1094.949
225.796	16.315	1438.749	1095.046
226.811	16.439	1437.799	1095.029
227.826	16.506	1436.787	1094.594
228.840	16.430	1436.299	1093.632
229.855	16.391	1434.796	1092.140
230.869	16.283	1434.041	1090.770
231.884	16.387	1432.934	1090.502
232.899	16.480	1431.542	1089.948
233.913	16.263	1430.881	1087.949
234.928	16.330	1429.587	1087.300
235.942	16.336	1428.025	1086.056
236.957	16.247	1427.249	1084.793
237.972	16.240	1425.867	1083.603
238.986	16.291	1424.878	1083.087
240.001	16.314	1423.611	1082.173
241.015	16.330	1423.035	1081.743
242.030	16.267	1421.991	1080.452
243.045	16.318	1421.407	1080.238
244.059	16.427	1420.321	1080.011
245.074	16.430	1419.494	1079.309
246.088	16.441	1418.892	1078.824
247.103	16.574	1417.756	1078.714
248.117	16.641	1416.644	1078.199
249.132	16.669	1416.049	1077.828
250.147	16.682	1415.684	1077.536
251.161	16.800	1415.407	1077.984
252.176	16.891	1414.698	1077.925
253.190	17.054	1413.702	1078.108
254.205	16.880	1413.641	1076.857
255.220	17.038	1412.113	1076.604
256.234	17.032	1411.560	1076.045
257.249	17.059	1410.897	1075.621
258.263	17.080	1409.536	1074.620
259.278	17.016	1408.800	1073.555
260.293	17.064	1407.970	1073.131
261.307	17.070	1406.516	1071.969
262.322	17.149	1406.012	1071.991
263.336	17.122	1405.385	1071.243
264.351	17.152	1404.762	1070.865
265.366	17.207	1403.595	1070.227
266.380	17.188	1403.097	1069.630
267.395	17.158	1401.832	1068.382
268.409	17.251	1400.785	1068.074
269.424	17.197	1399.836	1066.921
270.439	17.179	1399.050	1066.113
271.453	17.211	1397.425	1064.984
272.468	17.156	1396.846	1064.100
273.482	17.094	1396.093	1063.043
274.497	17.232	1394.846	1062.865
275.512	17.151	1393.944	1061.575
276.526	16.991	1393.735	1060.325
277.541	17.151	1392.720	1060.456
278.555	17.082	1392.095	1059.453
279.570	17.151	1391.119	1059.052
280.585	17.147	1390.173	1058.209
281.599	17.386	1389.386	1059.008
282.614	17.377	1388.173	1057.935
283.628	17.318	1387.359	1056.853
284.643	17.322	1385.835	1055.621
285.657	17.281	1384.928	1054.581
286.672	17.259	1384.368	1053.930
287.687	17.378	1383.387	1053.821
288.701	17.285	1382.261	1052.296
289.716	17.209	1382.000	1051.535
290.730	17.339	1380.978	1051.467
291.745	17.269	1380.198	1050.348
292.760	17.322	1378.999	1049.673
293.774	17.332	1378.031	1048.900
294.789	17.430	1376.765	1048.449
295.803	17.524	1376.341	1048.616
296.818	17.471	1375.402	1047.478
297.833	17.450	1374.144	1046.300
298.847	17.447	1372.996	1045.313
299.862	17.409	1372.398	1044.537
300.876	17.415	1371.346	1043.677
301.891	17.434	1370.480	1043.045
302.906	17.431	1369.983	1042.555
303.920	17.571	1369.260	1042.767
304.935	17.630	1368.375	1042.363
305.949	17.571	1368.194	1041.774
306.964	17.795	1366.788	1041.976
307.979	17.694	1366.109	1040.750
308.993	17.767	1364.507	1039.883
310.008	17.732	1363.934	1039.140
311.022	17.649	1363.184	1037.972
312.037	17.718	1361.684	1037.157
313.052	17.784	1361.194	1037.095
314.066	17.740	1360.262	1036.027
315.081	17.755	1358.666	1034.809
316.095	17.670	1357.596	1033.387
317.110	17.507	1357.307	1032.087
318.125	17.650	1355.863	1031.765
319.139	17.703	1354.921	1031.274
320.154	17.648	1353.691	1029.916
321.168	17.676	1353.113	1029.554
322.183	17.686	1351.866	1028.573
323.197	17.727	1351.015	1028.083
324.212	17.699	1350.441	1027.391
325.227	17.716	1349.466	1026.655
326.241	17.686	1348.982	1026.018
327.256	17.873	1347.537	1025.955
328.270	17.749	1346.941	1024.662
329.285	17.710	1346.327	1023.872
330.300	17.723	1345.048	1022.884
331.314	17.668	1344.645	1022.159
332.329	17.814	1343.331	1021.944
333.343	17.723	1342.791	1020.897
334.358	17.756	1341.695	1020.169
335.373	17.852	1340.760	1019.944
336.387	17.909	1339.982	1019.605
337.402	17.961	1339.094	1019.150
338.416	18.003	1338.564	1018.907
339.431	17.978	1337.828	1018.102
340.446	18.004	1337.759	1018.116
341.460	18.021	1336.502	1017.170
342.475	18.168	1335.649	1017.309
343.489	18.233	1334.846	1016.994
344.504	18.211	1333.820	1015.992
345.519	18.306	1332.666	1015.585
346.533	18.347	1331.996	1015.224
347.548	18.321	1330.958	1014.193
348.562	18.293	1330.472	1013.565
349.577	18.460	1329.581	1013.783
350.592	18.253	1329.156	1012.150
351.606	18.248	1327.894	1011.066
352.621	18.186	1326.428	1009.493
353.635	18.180	1325.335	1008.541
354.650	18.189	1324.398	1007.789
355.665	18.139	1323.683	1006.865
356.679	18.091	1322.612	1005.674
357.694	18.171	1321.684	1005.349
358.708	18.170	1320.675	1004.488
359.723	18.204	1319.321	1003.571
360.738	18.276	1318.522	1003.296
361.752	18.253	1317.898	1002.596
362.767	18.300	1316.758	1001.914
363.781	18.319	1315.596	1001.055
364.796	18.367	1315.407	1001.101
365.810	18.328	1314.652	1000.212
366.825	18.417	1313.794	999.992
367.840	18.492	1313.267	999.937
368.854	18.547	1312.328	999.458
369.869	18.685	1311.777	999.752
370.883	18.686	1311.072	999.130
371.898	18.725	1310.168	998.583
372.913	18.657	1308.892	997.123
373.927	18.619	1308.231	996.312
374.942	18.558	1307.872	995.599
375.956	18.611	1306.883	995.062
376.971	18.698	1306.253	995.002
377.986	18.595	1305.525	993.759
379.000	18.698	1304.287	993.328
380.015	18.723	1303.628	992.880
381.029	18.797	1302.928	992.688
382.044	18.758	1302.467	992.022
383.059	18.848	1301.619	991.809
384.073	18.875	1301.028	991.429
385.088	18.808	1300.389	990.467
386.102	18.798	1299.745	989.833
387.117	18.796	1299.148	989.278
388.132	18.830	1298.083	988.573
389.146	18.792	1297.020	987.456
390.161	18.621	1296.676	986.128
391.175	18.726	1295.729	985.919
392.190	18.645	1294.551	984.475
393.205	18.798	1293.883	984.754
394.219	18.859	1293.196	984.492
395.234	19.046	1291.123	983.897
396.248	18.888	1290.242	982.238
397.263	18.853	1289.137	981.112
398.278	18.961	1287.473	980.374
399.292	18.845	1286.399	978.810
400.307	18.771	1285.556	977.658
401.321	18.738	1284.249	976.388
402.336	18.645	1283.964	975.558
403.350	18.750	1282.488	974.949
404.365	18.618	1281.979	973.724
405.380	18.822	1280.833	973.921
406.394	18.833	1279.866	973.163
407.409	18.907	1279.066	972.889
408.423	18.905	1278.966	972.717
409.438	18.990	1278.389	972.670
410.453	19.097	1277.461	972.481
411.467	19.059	1276.902	971.757
412.482	19.210	1276.545	972.251
413.496	19.250	1275.434	971.547
414.511	19.200	1274.581	970.527
415.526	19.314	1273.544	970.297
416.540	19.364	1273.027	970.098
417.555	19.476	1272.462	970.208
418.569	19.306	1272.436	969.147
419.584	19.324	1271.726	968.624
420.599	19.324	1270.817	967.843
421.613	140.989	1431.693	1794.736
422.628	135.503	1455.111	1794.826
