DTS Sentinel unit serial number:	SN413079Multiplexer serial number:	ORYXHardware model number:	OX4-SRSoftware version number:	ORYX F/W v4.00 Oryx Data Collector v3.7.2.0data status	okinstallation	princeton_trtdifferential loss correction	single-endedforward channel	channel 4reverse channel	N/Adate	2019/09/16time	09:37:34forward acquisition time	60.00reverse acquisition time	0.00gamma	496.2192k internal	0.2305k external	0.2305temperature offset calibration	0.9968default loss term (dB/km)	0.3790temperature slope calibration	1.0000multiplexer offset coefficient	1.0000multiplexer slope coefficient	1.0000fibre end	0.00T internal ref (°C)	32.19T ext. ref 1 (°C)	12.25T ext. ref 2 (°C)	30.08length (m)	temperature (°C)	Stokes	anti-Stokes-747.200	-51.692	0.305	0.145
-746.185	417.405	-0.114	0.248
-745.171	-71.560	-0.100	0.038
-744.156	434.015	0.158	-0.349
-743.142	800.000	0.063	-0.261
-742.127	-200.000	-0.020	0.233
-741.112	15.078	0.259	0.207
-740.098	17.895	0.245	0.198
-739.083	102.248	0.284	0.338
-738.069	349.518	-0.154	0.309
-737.054	-200.000	-0.006	0.037
-736.039	-69.211	-0.144	0.056
-735.025	-70.842	-0.086	0.033
-734.010	800.000	-0.050	-0.192
-732.996	-200.000	-0.029	-0.326
-731.981	-200.000	0.047	-0.220
-730.966	-0.655	-0.257	-0.185
-729.952	364.199	-0.074	-0.151
-728.937	216.200	0.109	-0.177
-727.923	-200.000	-0.000	-0.057
-726.908	2.371	-0.160	-0.118
-725.894	-200.000	0.035	-0.326
-724.879	128.973	-0.037	0.048
-723.864	-12.447	0.146	-0.097
-722.850	-56.758	0.582	0.262
-721.835	677.755	0.098	-0.260
-720.821	0.000	-0.251	-0.182
-719.806	209.062	-0.080	-0.127
-718.791	-200.000	0.045	-0.220
-717.777	-166.370	-0.340	0.015
-716.762	-102.560	-0.376	0.091
-715.748	-72.466	0.348	-0.131
-714.733	-101.155	0.274	0.068
-713.718	-28.373	-0.187	0.110
-712.704	-200.000	-0.023	-0.503
-711.689	800.000	-0.047	0.158
-710.675	-200.000	-0.031	0.143
-709.660	-71.150	0.036	-0.014
-708.645	-200.000	-0.095	-0.425
-707.631	-9.334	-0.244	-0.166
-706.616	0.316	-0.092	0.067
-705.602	239.619	-0.070	-0.119
-704.587	-139.931	0.132	-0.014
-703.572	38.894	-0.175	-0.159
-702.558	-121.605	-0.528	-0.089
-701.543	-200.000	-0.017	-0.252
-700.529	-80.895	0.086	0.029
-699.514	100.767	-0.059	-0.070
-698.499	-139.361	0.418	-0.046
-697.485	-77.603	0.134	-0.047
-696.470	233.958	0.136	0.228
-695.456	-41.727	0.084	-0.044
-694.441	-17.163	0.289	-0.185
-693.426	236.539	0.252	-0.424
-692.412	800.000	0.042	0.158
-691.397	-200.000	-0.020	-0.194
-690.383	39.121	0.408	-0.371
-689.368	69.299	-0.209	-0.218
-688.354	-107.722	0.059	-0.013
-687.339	-67.338	0.300	-0.120
-686.324	-200.000	-0.009	0.104
-685.310	-125.452	-0.335	0.052
-684.295	11.528	0.061	-0.048
-683.281	-172.320	0.202	-0.007
-682.266	-155.391	0.175	0.011
-681.251	-85.277	-0.059	0.019
-680.237	-46.303	0.104	-0.052
-679.222	339.120	0.078	0.155
-678.208	-200.000	-0.037	-0.358
-677.193	551.392	0.158	-0.386
-676.178	11.228	-0.058	-0.045
-675.164	-105.651	-0.417	-0.096
-674.149	800.000	0.029	0.110
-673.135	216.333	0.111	-0.180
-672.120	-17.685	-0.297	0.190
-671.105	-200.000	-0.009	-0.079
-670.091	250.023	0.089	-0.153
-669.076	-95.191	0.195	0.053
-668.062	-83.168	0.237	-0.077
-667.047	-161.997	0.090	0.005
-666.032	371.647	0.082	-0.170
-665.018	212.621	-0.186	-0.298
-664.003	-70.536	0.179	0.069
-662.989	800.000	0.126	0.381
-661.974	107.612	-0.173	0.209
-660.959	-91.347	0.091	0.027
-659.945	56.834	0.305	-0.301
-658.930	-200.000	0.053	-0.376
-657.916	733.153	0.098	-0.266
-656.901	79.723	0.080	-0.087
-655.886	-68.328	-0.119	0.047
-654.872	43.376	0.198	0.183
-653.857	719.861	0.024	-0.065
-652.843	-52.215	-0.184	-0.086
-651.828	-200.000	0.008	-0.174
-650.814	59.516	-0.023	-0.023
-649.799	46.556	0.142	0.134
-648.784	-69.608	-0.524	0.203
-647.770	-200.000	-0.024	-0.108
-646.755	-143.689	0.134	0.013
-645.741	-174.614	0.095	0.003
-644.726	-54.745	0.125	0.057
-643.711	88.009	-0.057	-0.064
-642.697	69.343	-0.217	-0.226
-641.682	14.906	-0.214	-0.170
-640.668	157.541	0.052	-0.072
-639.653	159.222	-0.174	-0.246
-638.638	-97.075	-0.302	0.080
-637.624	-60.528	-0.281	-0.121
-636.609	-200.000	-0.019	-0.439
-635.595	-200.000	0.000	-0.163
-634.580	83.924	0.104	-0.115
-633.565	-83.492	-0.244	0.079
-632.551	-92.070	-0.026	0.007
-631.536	-54.589	-0.260	-0.119
-630.522	-76.194	0.197	0.070
-629.507	629.727	-0.083	0.212
-628.492	135.013	0.076	0.101
-627.478	-200.000	-0.027	-0.168
-626.463	299.250	0.017	-0.032
-625.449	-17.778	-0.292	-0.185
-624.434	-133.912	-0.116	-0.015
-623.419	272.741	0.314	0.561
-622.405	139.599	0.127	-0.169
-621.390	564.792	0.046	0.114
-620.376	-200.000	0.040	0.198
-619.361	-8.950	-0.123	-0.084
-618.346	-47.662	-0.336	0.165
-617.332	-200.000	0.009	0.069
-616.317	156.944	0.252	0.352
-615.303	-200.000	-0.023	-0.342
-614.288	203.680	-0.116	-0.181
-613.273	-200.000	-0.078	-0.353
-612.259	800.000	0.103	0.430
-611.244	2.618	-0.052	0.038
-610.230	-86.778	-0.306	0.095
-609.215	-42.308	-0.150	-0.078
-608.201	-200.000	0.013	0.079
-607.186	94.950	0.091	0.105
-606.171	-200.000	0.039	-0.222
-605.157	-200.000	-0.027	0.127
-604.142	-82.989	0.288	0.094
-603.128	-5.553	-0.271	-0.188
-602.113	-113.399	0.330	-0.066
-601.098	-115.495	0.367	0.070
-600.084	328.402	-0.092	-0.179
-599.069	800.000	0.110	-0.320
-598.055	165.967	0.220	-0.315
-597.040	279.884	-0.112	-0.202
-596.025	135.239	-0.113	-0.149
-595.011	-44.040	-0.128	0.065
-593.996	-28.205	0.285	0.167
-592.982	-35.691	0.122	0.067
-591.967	521.791	0.094	0.222
-590.952	-200.000	0.002	-0.024
-589.938	-62.286	0.307	0.129
-588.923	30.783	0.081	0.070
-587.909	18.917	0.065	-0.053
-586.894	-0.725	0.126	-0.090
-585.879	428.653	-0.140	0.305
-584.865	-86.610	-0.188	0.058
-583.850	800.000	0.107	-0.363
-582.836	70.896	0.169	-0.178
-581.821	-74.496	0.124	-0.045
-580.806	25.288	0.045	-0.038
-579.792	-50.374	0.146	0.070
-578.777	-28.727	0.030	0.017
-577.763	-65.800	-0.218	-0.088
-576.748	-200.000	0.029	-0.299
-575.733	7.491	-0.200	-0.151
-574.719	-10.375	-0.343	-0.230
-573.704	518.476	-0.033	-0.078
-572.690	58.657	-0.209	-0.207
-571.675	-200.000	-0.020	0.151
-570.661	102.489	-0.129	-0.153
-569.646	92.569	-0.040	0.045
-568.631	-200.000	-0.080	0.375
-567.617	-20.836	0.246	-0.153
-566.602	-44.389	-0.115	0.058
-565.588	-200.000	-0.040	0.202
-564.573	553.778	-0.103	-0.251
-563.558	304.666	-0.146	0.274
-562.544	-19.559	-0.231	-0.145
-561.529	-101.122	0.117	0.029
-560.515	-113.620	0.290	-0.057
-559.500	-200.000	0.047	-0.331
-558.485	499.202	0.045	0.104
-557.471	800.000	0.060	-0.186
-556.456	-200.000	-0.032	-0.194
-555.442	28.522	-0.172	-0.147
-554.427	175.080	0.122	-0.178
-553.412	-147.709	0.213	0.018
-552.398	-10.899	-0.311	0.208
-551.383	-200.000	-0.043	-0.249
-550.369	-155.530	-0.493	0.032
-549.354	392.475	0.111	-0.232
-548.339	-2.394	0.338	0.239
-547.325	-73.272	-0.293	-0.108
-546.310	287.222	-0.091	-0.165
-545.296	1.953	0.283	-0.206
-544.281	105.304	-0.260	-0.309
-543.266	-160.021	0.126	0.007
-542.252	-80.854	0.292	-0.098
-541.237	-72.153	0.193	-0.072
-540.223	193.431	-0.090	0.137
-539.208	65.808	0.040	-0.041
-538.193	8.980	-0.112	-0.085
-537.179	254.096	-0.116	-0.200
-536.164	800.000	-0.044	-0.160
-535.150	-95.548	-0.121	-0.033
-534.135	137.660	0.162	0.214
-533.121	764.514	0.098	0.268
-532.106	-200.000	-0.009	0.052
-531.091	-136.566	0.233	-0.027
-530.077	363.798	-0.041	0.084
-529.062	800.000	-0.021	-0.070
-528.048	327.197	0.193	0.373
-527.033	-161.989	-0.073	0.004
-526.018	87.006	-0.097	-0.108
-525.004	210.170	0.056	-0.089
-523.989	351.713	0.162	-0.323
-522.975	-11.472	-0.205	0.136
-521.960	34.927	-0.226	0.199
-520.945	-200.000	-0.000	-0.337
-519.931	301.325	0.265	-0.493
-518.916	23.871	-0.152	0.126
-517.902	343.182	-0.048	0.096
-516.887	-191.441	-0.220	-0.002
-515.872	520.874	0.033	-0.078
-514.858	-200.000	0.022	-0.108
-513.843	-134.486	0.332	-0.041
-512.829	-75.062	0.179	0.065
-511.814	-25.053	0.150	-0.090
-510.799	33.898	-0.021	0.018
-509.785	800.000	-0.068	-0.281
-508.770	-200.000	0.010	0.052
-507.756	136.274	0.090	0.118
-506.741	800.000	0.053	0.178
-505.726	244.688	-0.094	-0.159
-504.712	80.436	0.090	0.098
-503.697	-200.000	0.006	-0.146
-502.683	-54.975	-0.174	-0.079
-501.668	-200.000	0.096	-0.502
-500.653	-49.913	0.314	-0.150
-499.639	-30.740	-0.222	0.127
-498.624	-18.953	0.372	-0.233
-497.610	-87.453	0.207	-0.063
-496.595	-116.382	0.057	-0.011
-495.581	-102.953	0.073	-0.018
-494.566	800.000	-0.085	-0.266
-493.551	18.335	-0.080	0.064
-492.537	-94.381	0.082	0.023
-491.522	303.879	-0.100	0.187
-490.508	-96.743	-0.333	-0.088
-489.493	-200.000	-0.079	0.435
-488.478	-200.000	-0.036	0.276
-487.464	7.224	0.328	-0.247
-486.449	-72.522	-0.040	0.015
-485.435	-149.714	0.037	0.003
-484.420	-109.965	0.131	-0.028
-483.405	227.319	0.117	0.192
-482.391	-120.901	-0.114	0.019
-481.376	48.974	-0.159	-0.150
-480.362	149.321	0.159	0.217
-479.347	-16.638	0.208	-0.133
-478.332	-200.000	-0.025	0.484
-477.318	282.878	0.069	0.125
-476.303	-4.064	0.186	-0.130
-475.289	349.032	-0.141	-0.281
-474.274	251.194	-0.018	0.031
-473.259	-35.602	-0.257	-0.140
-472.245	-61.422	0.330	0.140
-471.230	-145.204	-0.101	-0.009
-470.216	9.983	0.145	0.111
-469.201	-142.511	-0.370	-0.037
-468.186	-4.066	-0.245	-0.171
-467.172	800.000	-0.044	0.185
-466.157	800.000	0.046	-0.158
-465.143	61.612	0.104	-0.104
-464.128	168.355	-0.027	-0.039
-463.113	219.162	0.130	-0.209
-462.099	-154.491	-0.138	0.009
-461.084	141.356	-0.128	0.170
-460.070	569.755	0.039	0.095
-459.055	-53.230	0.187	-0.086
-458.040	-200.000	-0.012	0.233
-457.026	323.266	-0.144	0.276
-456.011	257.852	-0.209	-0.362
-454.997	-200.000	-0.023	0.356
-453.982	-102.116	-0.347	0.084
-452.968	800.000	0.054	0.197
-451.953	88.467	-0.092	0.102
-450.938	800.000	-0.021	0.079
-449.924	-16.246	0.131	0.084
-448.909	367.505	-0.207	-0.420
-447.895	-105.092	-0.209	0.048
-446.880	-104.546	0.237	-0.055
-445.865	32.710	0.193	0.168
-444.851	-200.000	-0.055	-0.625
-443.836	-85.597	-0.142	0.044
-442.822	-116.991	-0.424	-0.078
-441.807	-12.926	0.257	0.168
-440.792	276.701	0.168	0.300
-439.778	48.954	0.249	-0.235
-438.763	85.625	-0.211	-0.234
-437.749	800.000	-0.097	-0.288
-436.734	-68.421	-0.155	0.061
-435.719	-200.000	-0.049	-0.268
-434.705	800.000	0.083	0.324
-433.690	-64.698	-0.167	-0.068
-432.676	35.737	-0.045	-0.040
-431.661	-9.596	0.289	0.194
-430.646	354.924	0.146	-0.293
-429.632	800.000	-0.040	-0.164
-428.617	-122.102	-0.339	0.056
-427.603	-48.177	-0.042	0.020
-426.588	800.000	0.042	0.185
-425.573	52.595	0.089	0.085
-424.559	92.451	0.081	0.092
-423.544	-200.000	0.020	0.157
-422.530	-43.998	-0.165	-0.084
-421.515	-64.845	-0.238	0.097
-420.500	-200.000	-0.027	0.120
-419.486	800.000	0.005	-0.020
-418.471	-200.000	0.015	-0.111
-417.457	242.146	-0.173	0.291
-416.442	-200.000	0.014	0.523
-415.428	-200.000	0.017	-0.170
-414.413	105.796	-0.096	0.114
-413.398	194.729	-0.210	0.320
-412.384	175.256	0.145	-0.210
-411.369	200.426	0.089	0.137
-410.355	800.000	0.065	-0.235
-409.340	-142.261	-0.245	0.024
-408.325	-76.847	-0.219	0.077
-407.311	-200.000	-0.079	-0.532
-406.296	6.287	0.107	0.080
-405.282	-200.000	-0.000	-0.102
-404.267	-121.337	-0.192	-0.032
-403.252	-0.697	0.063	0.045
-402.238	-176.746	0.165	-0.004
-401.223	374.333	0.021	-0.044
-400.209	12.894	-0.168	-0.130
-399.194	-83.048	-0.228	-0.074
-398.179	172.523	0.134	0.194
-397.165	20.572	-0.092	-0.075
-396.150	-200.000	0.022	0.127
-395.136	737.920	-0.074	0.198
-394.121	383.859	-0.102	0.212
-393.106	123.009	0.152	-0.191
-392.092	-200.000	0.038	0.297
-391.077	5.546	0.234	-0.174
-390.063	50.516	0.070	-0.066
-389.048	-45.302	0.082	0.041
-388.033	-97.360	0.361	0.094
-387.019	-190.702	-0.043	-0.000
-386.004	2.911	-0.214	-0.156
-384.990	-81.029	-0.107	0.036
-383.975	87.100	-0.089	-0.099
-382.960	-200.000	0.010	0.166
-381.946	449.416	0.112	0.249
-380.931	800.000	0.040	0.114
-379.917	0.577	-0.233	0.167
-378.902	-104.559	0.639	0.148
-377.888	-9.131	-0.157	-0.106
-376.873	-72.520	-0.178	-0.066
-375.858	-136.437	-0.215	-0.025
-374.844	137.586	0.144	-0.189
-373.829	800.000	0.050	-0.158
-372.815	177.408	-0.109	0.160
-371.800	250.006	0.179	-0.304
-370.785	-88.724	0.099	-0.030
-369.771	-21.517	-0.273	0.167
-368.756	153.948	0.155	-0.214
-367.742	-18.338	0.092	0.057
-366.727	141.874	-0.098	-0.130
-365.712	-200.000	-0.000	-0.052
-364.698	800.000	0.185	-0.586
-363.683	-5.698	0.421	-0.289
-362.669	195.381	-0.087	0.132
-361.654	-37.422	0.315	-0.169
-360.639	-37.741	-0.359	-0.192
-359.625	695.933	-0.108	0.284
-358.610	-56.036	-0.241	-0.108
-357.596	-106.507	-0.421	-0.094
-356.581	195.694	0.198	0.302
-355.566	144.903	-0.121	-0.162
-354.552	39.022	0.181	0.162
-353.537	-22.780	0.188	-0.114
-352.523	-82.015	-0.465	-0.152
-351.508	-139.330	0.133	0.014
-350.493	-124.063	-0.386	-0.061
-349.479	-139.218	-0.277	0.030
-348.464	-200.000	0.011	-0.071
-347.450	-66.852	0.416	0.165
-346.435	-150.155	0.059	0.005
-345.420	-200.000	0.027	0.150
-344.406	-74.149	-0.244	-0.089
-343.391	365.864	-0.155	-0.312
-342.377	662.319	0.036	0.094
-341.362	24.268	0.298	-0.247
-340.348	748.875	0.049	0.132
-339.333	179.170	-0.120	0.175
-338.318	0.453	-0.183	0.131
-337.304	-171.394	0.171	-0.006
-336.289	800.000	-0.065	0.182
-335.275	-200.000	0.000	-0.357
-334.260	-123.185	-0.145	0.023
-333.245	-200.000	-0.027	0.225
-332.231	800.000	0.058	0.252
-331.216	-127.457	-0.271	-0.040
-330.202	-158.130	0.290	0.017
-329.187	-162.615	0.281	0.014
-328.172	-110.783	0.250	0.052
-327.158	-185.975	-0.255	-0.004
-326.143	-147.943	-0.357	0.030
-325.129	92.040	-0.107	0.121
-324.114	20.578	-0.279	-0.226
-323.099	-138.537	0.196	-0.022
-322.085	-115.300	0.269	-0.051
-321.070	318.238	-0.114	0.217
-320.056	66.600	0.052	-0.052
-319.041	-191.133	-0.179	0.002
-318.026	-62.552	-0.302	-0.126
-317.012	-42.184	0.126	-0.064
-315.997	-67.073	-0.082	0.032
-314.983	35.928	-0.127	0.112
-313.968	-97.980	-0.136	0.035
-312.953	-200.000	-0.047	0.208
-311.939	-200.000	0.015	-0.258
-310.924	-0.028	-0.037	0.026
-309.910	-78.317	-0.104	-0.036
-308.895	-81.158	0.292	-0.097
-307.880	-100.206	0.335	-0.083
-306.866	800.000	-0.054	-0.210
-305.851	16.114	-0.149	-0.118
-304.837	-121.208	0.195	0.033
-303.822	800.000	-0.062	0.178
-302.807	117.530	0.215	0.264
-301.793	297.941	0.162	0.297
-300.778	-200.000	0.009	-0.148
-299.764	-200.000	-0.053	0.324
-298.749	-200.000	-0.003	0.081
-297.735	-173.194	0.523	0.016
-296.720	353.722	0.113	-0.224
-295.705	-86.361	0.111	0.034
-294.691	-77.628	0.158	0.055
-293.676	-73.003	-0.266	-0.098
-292.662	-200.000	0.025	-0.309
-291.647	-19.136	0.225	-0.140
-290.632	-28.074	-0.335	-0.194
-289.618	-123.672	0.228	-0.036
-288.603	800.000	0.035	0.098
-287.589	-142.138	-0.358	0.036
-286.574	254.064	0.183	-0.312
-285.559	-9.413	0.233	0.156
-284.545	800.000	-0.081	-0.231
-283.530	-107.772	-0.207	0.045
-282.516	-50.514	0.180	0.085
-281.501	411.058	0.184	0.390
-280.486	90.987	0.108	0.121
-279.472	-200.000	0.018	0.116
-278.457	121.556	0.240	0.300
-277.443	-56.645	-0.234	0.103
-276.428	17.197	0.139	-0.110
-275.413	-80.656	-0.249	0.083
-274.399	-55.437	-0.240	-0.107
-273.384	800.000	0.082	0.337
-272.370	-200.000	0.012	0.223
-271.355	127.533	0.027	0.034
-270.340	-200.000	-0.019	0.118
-269.326	15.250	-0.155	-0.121
-268.311	261.912	-0.139	0.241
-267.297	49.997	-0.304	0.287
-266.282	233.055	0.098	0.161
-265.267	-150.255	-0.177	-0.014
-264.253	48.448	-0.175	0.163
-263.238	38.995	-0.229	0.205
-262.224	59.592	-0.100	-0.099
-261.209	800.000	-0.058	-0.240
-260.195	-24.656	0.145	-0.086
-259.180	44.570	0.229	0.210
-258.165	-134.862	-0.100	-0.012
-257.151	377.503	-0.042	0.087
-256.136	-20.236	-0.223	0.137
-255.122	-57.430	-0.063	-0.027
-254.107	34.482	0.216	-0.188
-253.092	800.000	-0.075	-0.277
-252.078	307.057	-0.132	-0.246
-251.063	-41.950	0.286	0.146
-250.049	48.420	-0.109	-0.102
-249.034	-96.465	-0.331	-0.087
-248.019	-200.000	0.019	-0.267
-247.005	-200.000	-0.091	-0.000
-245.990	-200.000	0.039	0.341
-244.976	-144.758	0.370	0.034
-243.961	148.188	0.039	0.052
-242.946	111.244	0.135	-0.162
-241.932	504.542	0.119	0.275
-240.917	-8.866	0.311	0.208
-239.903	167.127	-0.100	0.142
-238.888	231.318	-0.338	0.552
-237.873	279.722	0.041	-0.073
-236.859	-200.000	-0.048	-0.233
-235.844	-200.000	0.004	0.033
-234.830	90.874	0.231	-0.258
-233.815	111.680	0.162	0.195
-232.800	800.000	0.051	-0.148
-231.786	-92.349	-0.083	0.023
-230.771	-94.002	-0.146	-0.040
-229.757	19.860	0.087	0.070
-228.742	762.420	0.052	-0.140
-227.727	216.971	0.055	-0.087
-226.713	-57.732	0.151	-0.066
-225.698	800.000	-0.071	0.255
-224.684	-121.521	-0.229	-0.038
-223.669	800.000	0.048	0.190
-222.655	33.107	0.226	0.196
-221.640	-200.000	-0.029	0.205
-220.625	-128.112	-0.127	0.018
-219.611	800.000	-0.086	0.340
-218.596	-135.316	-0.568	-0.068
-217.582	-200.000	-0.016	0.072
-216.567	-42.741	-0.231	0.117
-215.552	-200.000	-0.060	0.421
-214.538	-4.373	-0.139	-0.096
-213.523	-12.423	-0.270	0.176
-212.509	800.000	-0.055	-0.232
-211.494	70.226	0.097	-0.100
-210.479	362.419	0.103	0.205
-209.465	38.788	0.308	-0.274
-208.450	16.532	0.077	0.061
-207.436	127.045	0.208	-0.263
-206.421	-200.000	0.062	-0.275
-205.406	-100.403	0.233	-0.058
-204.392	35.334	-0.022	-0.020
-203.377	-23.274	-0.294	0.176
-202.363	-58.230	-0.419	0.182
-201.348	107.452	-0.017	0.021
-200.333	708.373	0.022	0.058
-199.319	800.000	-0.042	0.158
-198.304	-107.899	-0.285	-0.062
-197.290	601.313	-0.031	-0.077
-196.275	-131.224	0.275	-0.036
-195.260	-200.000	0.029	0.234
-194.246	-5.425	0.186	-0.127
-193.231	-19.799	0.251	0.155
-192.217	99.811	0.037	0.042
-191.202	117.779	0.112	-0.137
-190.187	615.650	-0.079	-0.197
-189.173	58.638	0.153	-0.149
-188.158	28.387	0.264	0.222
-187.144	-200.000	-0.017	0.195
-186.129	80.830	-0.100	-0.108
-185.114	74.819	0.201	0.211
-184.100	-200.000	0.035	-0.331
-183.085	43.415	-0.068	0.062
-182.071	72.821	0.124	0.129
-181.056	-131.653	-0.052	-0.007
-180.042	-86.802	0.089	-0.027
-179.027	115.660	0.110	0.134
-178.012	537.420	0.131	0.310
-176.998	-91.997	0.244	0.069
-175.983	-7.679	0.280	0.189
-174.969	-21.442	0.210	-0.127
-173.954	800.000	0.096	0.343
-172.939	292.355	0.098	-0.179
-171.925	247.491	0.216	-0.363
-170.910	43.660	0.215	0.196
-169.896	12.346	0.266	0.204
-168.881	800.000	0.132	0.393
-167.866	624.104	0.077	-0.194
-166.852	550.009	-0.096	0.228
-165.837	300.875	-0.046	0.084
-164.823	-68.939	0.344	-0.132
-163.808	800.000	0.045	-0.136
-162.793	-200.000	-0.005	0.036
-161.779	31.114	0.218	-0.186
-160.764	246.236	0.252	-0.422
-159.750	385.046	-0.008	-0.017
-158.735	160.224	0.268	0.372
-157.720	8.576	-0.207	-0.155
-156.706	22.306	-0.141	0.115
-155.691	17.779	-0.197	0.156
-154.677	449.912	-0.147	0.322
-153.662	800.000	-0.033	0.109
-152.647	-200.000	-0.015	0.232
-151.633	55.347	0.082	0.078
-150.618	-66.720	0.198	0.078
-149.604	294.335	-0.113	0.205
-148.589	94.230	-0.087	0.099
-147.574	605.326	0.129	0.319
-146.560	64.339	-0.098	0.098
-145.545	-200.000	0.023	-0.160
-144.531	264.512	-0.085	-0.147
-143.516	7.336	0.311	0.231
-142.502	-100.726	-0.161	-0.040
-141.487	-200.000	0.046	0.218
-140.472	-64.251	0.332	0.135
-139.458	34.002	0.141	-0.122
-138.443	-34.366	0.232	0.126
-137.429	484.512	-0.137	0.309
-136.414	-52.793	-0.167	-0.077
-135.399	-200.000	-0.040	0.314
-134.385	800.000	-0.037	0.126
-133.370	-200.000	0.004	-0.312
-132.356	-200.000	0.004	-0.037
-131.341	158.740	-0.194	-0.268
-130.326	-35.650	-0.165	0.089
-129.312	187.372	0.174	-0.258
-128.297	202.701	-0.164	-0.252
-127.283	46.748	-0.092	-0.085
-126.268	-180.691	-0.069	-0.001
-125.253	214.976	-0.050	-0.079
-124.239	-200.000	0.085	-0.426
-123.224	22.911	-0.205	-0.167
-122.210	-133.620	-0.114	-0.014
-121.195	-88.203	0.207	0.062
-120.180	-109.791	0.330	0.069
-119.166	-62.603	-0.008	0.003
-118.151	635.311	-0.155	0.389
-117.137	-32.113	0.239	0.133
-116.122	20.636	-0.089	0.072
-115.107	-200.000	-0.036	-0.290
-114.093	-34.451	0.176	-0.096
-113.078	800.000	-0.064	0.208
-112.064	-46.304	0.126	0.061
-111.049	-18.423	-0.217	0.135
-110.034	-200.000	-0.004	0.020
-109.020	-156.882	0.216	0.013
-108.005	-18.910	0.184	0.113
-106.991	-73.110	0.209	-0.076
-105.976	-33.831	-0.160	-0.088
-104.962	800.000	-0.029	0.083
-103.947	96.433	0.103	-0.117
-102.932	-147.865	0.267	-0.022
-101.918	90.114	0.175	-0.194
-100.903	334.029	0.085	0.164
-99.889	33.752	-0.117	0.101
-98.874	800.000	0.044	-0.153
-97.859	-46.023	0.179	0.088
-96.845	76.771	-0.215	0.227
-95.830	341.485	-0.027	-0.052
-94.816	169.679	0.100	0.142
-93.801	-89.365	-0.149	0.044
-92.786	27.760	-0.086	-0.072
-91.772	-200.000	0.051	-0.274
-90.757	200.159	0.129	-0.196
-89.743	-200.000	-0.005	-0.189
-88.728	-43.948	0.176	0.088
-87.713	-122.217	0.109	-0.018
-86.699	120.130	-0.132	0.162
-85.684	-64.293	0.270	0.109
-84.670	-58.757	0.396	-0.170
-83.655	185.708	0.254	0.375
-82.640	129.978	0.055	-0.070
-81.626	454.152	0.169	-0.372
-80.611	50.321	-0.177	0.166
-79.597	81.069	-0.109	0.117
-78.582	161.901	0.024	0.034
-77.567	103.752	0.271	-0.316
-76.553	-200.000	0.033	-0.351
-75.538	-20.699	0.100	-0.061
-74.524	-74.523	0.343	-0.122
-73.509	-186.853	0.263	-0.004
-72.494	-71.329	-0.079	-0.029
-71.480	-43.893	0.181	-0.090
-70.465	-200.000	-0.017	0.086
-69.451	-200.000	-0.015	0.155
-68.436	-2.016	0.229	0.159
-67.422	-9.812	-0.064	-0.042
-66.407	-100.577	-0.157	-0.039
-65.392	243.125	-0.074	0.123
-64.378	87.826	0.125	0.138
-63.363	594.187	0.053	0.129
-62.349	-200.000	-0.050	-0.223
-61.334	43.160	-1.003	-0.907
-60.319	-12.482	0.504	0.326
-59.305	580.522	-0.400	-0.971
-58.290	135.589	0.782	1.008
-57.276	381.591	0.686	1.397
-56.261	-200.000	95.055	566.682
-55.246	514.810	1418.599	3280.139
-54.232	149.193	2614.698	3504.886
-53.217	100.813	2352.508	2708.647
-52.203	38.603	2103.378	1858.350
-51.188	33.780	2017.648	1738.499
-50.173	32.310	1999.510	1709.457
-49.159	47.255	2046.255	1887.050
-48.144	48.356	2065.470	1914.825
-47.130	34.500	2027.631	1753.445
-46.115	32.176	2017.462	1723.297
-45.100	32.073	2014.523	1719.777
-44.086	32.116	2011.628	1717.629
-43.071	32.003	2009.432	1714.655
-42.057	32.004	2006.532	1712.119
-41.042	31.978	2004.920	1710.438
-40.027	32.042	2003.074	1709.380
-39.013	32.077	2000.913	1707.790
-37.998	32.088	1999.039	1706.218
-36.984	32.080	1997.473	1704.743
-35.969	32.151	1994.991	1703.198
-34.954	32.198	1993.467	1702.260
-33.940	32.164	1992.292	1700.878
-32.925	32.252	1990.261	1699.875
-31.911	32.290	1988.757	1698.863
-30.896	32.179	1987.583	1696.792
-29.881	32.166	1986.127	1695.362
-28.867	32.211	1984.489	1694.300
-27.852	32.232	1982.560	1692.776
-26.838	32.234	1980.267	1690.776
-25.823	32.179	1978.791	1688.954
-24.809	32.206	1976.561	1687.222
-23.794	32.245	1974.720	1685.931
-22.779	32.158	1972.973	1683.594
-21.765	32.214	1971.566	1682.830
-20.750	32.213	1969.678	1681.139
-19.736	32.205	1967.982	1679.553
-18.721	32.163	1966.894	1678.183
-17.706	32.224	1964.707	1676.798
-16.692	32.149	1963.456	1674.993
-15.677	32.198	1961.319	1673.538
-14.663	32.284	1959.601	1672.775
-13.648	32.166	1959.038	1671.178
-12.633	32.285	1957.566	1670.912
-11.619	32.232	1956.365	1669.352
-10.604	32.190	1954.737	1667.525
-9.590	32.248	1952.948	1666.447
-8.575	32.220	1951.712	1665.081
-7.560	32.189	1950.990	1664.122
-6.546	32.135	1949.865	1662.613
-5.531	32.184	1948.537	1661.855
-4.517	32.219	1947.254	1661.004
-3.502	32.147	1945.992	1659.221
-2.487	32.236	1944.746	1658.876
-1.473	32.216	1943.815	1657.843
-0.458	32.355	1939.414	1655.248
0.556	30.725	1920.673	1632.775
1.571	27.353	1903.324	1588.513
2.586	23.945	1927.129	1578.055
3.600	23.106	1964.317	1600.778
4.615	22.628	1960.453	1593.171
5.629	19.949	1864.051	1491.641
6.644	15.133	1753.290	1363.767
7.659	12.510	1718.581	1315.688
8.673	12.263	1715.646	1311.350
9.688	12.320	1714.052	1310.470
10.702	12.291	1712.387	1308.852
11.717	12.137	1709.150	1305.035
12.731	12.432	1707.938	1306.341
13.746	15.732	1715.547	1338.351
14.761	18.722	1721.763	1366.920
15.775	18.439	1718.597	1362.035
16.790	17.353	1714.434	1350.001
17.804	16.198	1711.331	1338.284
18.819	15.096	1707.758	1326.643
19.834	14.485	1705.127	1319.648
20.848	14.152	1703.233	1315.432
21.863	13.850	1701.539	1311.621
22.877	13.554	1700.258	1308.180
23.892	13.399	1698.453	1305.453
24.907	13.282	1697.461	1303.657
25.921	13.232	1696.566	1302.457
26.936	13.204	1695.445	1301.260
27.950	13.298	1694.624	1301.254
28.965	13.310	1694.072	1300.813
29.980	13.346	1693.047	1300.189
30.994	13.452	1692.171	1300.233
32.009	13.527	1690.790	1299.652
33.023	13.546	1689.951	1299.037
34.038	13.524	1689.452	1298.364
35.053	13.429	1688.496	1296.772
36.067	13.412	1686.875	1295.283
37.082	13.443	1685.561	1294.401
38.096	13.459	1685.054	1294.019
39.111	13.458	1684.089	1293.155
40.126	13.593	1682.935	1293.208
41.140	13.465	1682.215	1291.540
42.155	13.384	1681.042	1289.898
43.169	13.323	1679.051	1287.782
44.184	13.217	1678.697	1286.566
45.199	13.233	1677.020	1285.298
46.213	13.256	1675.648	1284.308
47.228	13.220	1674.367	1282.932
48.242	13.324	1673.002	1282.579
49.257	13.384	1672.094	1282.239
50.271	13.355	1671.006	1281.067
51.286	13.406	1669.315	1280.046
52.301	13.421	1668.564	1279.478
53.315	13.313	1667.030	1277.349
54.330	13.308	1665.523	1276.042
55.344	13.315	1663.920	1274.757
56.359	13.358	1661.813	1273.361
57.374	13.326	1660.868	1272.277
58.388	13.291	1659.614	1270.934
59.403	13.291	1658.520	1269.991
60.417	13.159	1657.790	1268.298
61.432	13.242	1656.112	1267.539
62.447	13.193	1655.591	1266.659
63.461	13.108	1654.274	1264.887
64.476	13.149	1652.894	1264.030
65.490	13.151	1651.538	1262.897
66.505	13.148	1650.334	1261.846
67.520	13.073	1649.844	1260.783
68.534	13.178	1648.574	1260.502
69.549	13.236	1646.859	1259.525
70.563	13.173	1646.526	1258.677
71.578	13.298	1644.259	1257.785
72.593	13.098	1643.694	1255.718
73.607	13.051	1642.793	1254.564
74.622	13.071	1641.873	1253.900
75.636	13.025	1641.129	1252.875
76.651	13.091	1640.496	1252.780
77.666	13.034	1639.633	1251.579
78.680	13.121	1638.320	1251.120
79.695	13.077	1637.543	1250.083
80.709	13.165	1636.243	1249.645
81.724	13.011	1635.632	1247.910
82.739	13.281	1634.686	1249.113
83.753	13.271	1633.758	1248.221
84.768	13.260	1632.775	1247.274
85.782	13.276	1632.240	1246.878
86.797	13.477	1630.990	1247.328
87.812	13.443	1629.772	1246.027
88.826	13.418	1628.790	1244.982
89.841	13.311	1627.434	1243.028
90.855	13.380	1626.763	1242.927
91.870	13.366	1625.662	1241.867
92.884	13.455	1624.591	1241.607
93.899	13.532	1623.353	1241.128
94.914	13.445	1622.675	1239.849
95.928	13.482	1621.324	1238.981
96.943	13.518	1619.365	1237.648
97.957	13.523	1618.112	1236.614
98.972	13.470	1616.005	1234.498
99.987	13.401	1615.504	1233.493
101.001	13.376	1613.889	1231.964
102.016	13.452	1611.933	1230.931
103.030	13.305	1610.988	1229.009
104.045	13.407	1609.819	1228.761
105.060	13.423	1608.465	1227.738
106.074	13.368	1606.533	1225.749
107.089	13.308	1605.101	1224.107
108.103	13.195	1603.539	1221.973
109.118	13.169	1602.279	1220.707
110.133	13.254	1600.739	1220.055
111.147	13.201	1599.638	1218.717
112.162	13.203	1598.284	1217.589
113.176	13.208	1596.631	1216.263
114.191	13.263	1595.339	1215.574
115.206	13.299	1594.073	1214.770
116.220	13.260	1592.851	1213.445
117.235	13.338	1591.439	1212.830
118.249	13.331	1590.058	1211.623
119.264	13.274	1589.046	1210.323
120.279	13.295	1586.940	1208.769
121.293	13.252	1585.876	1207.535
122.308	13.251	1584.523	1206.391
123.322	13.234	1582.957	1204.967
124.337	13.135	1581.983	1203.401
125.352	13.163	1580.582	1202.429
126.366	13.208	1579.082	1201.512
127.381	13.105	1577.688	1199.592
128.395	13.190	1576.811	1199.435
129.410	13.231	1575.397	1198.558
130.424	13.164	1573.789	1196.740
131.439	13.228	1572.790	1196.339
132.454	13.256	1571.341	1195.333
133.468	13.312	1569.821	1194.471
134.483	13.228	1569.022	1193.155
135.497	13.270	1567.351	1192.083
136.512	13.289	1565.837	1190.962
137.527	13.316	1564.446	1189.990
138.541	13.469	1562.563	1189.555
139.556	13.348	1561.693	1187.918
140.570	13.399	1559.936	1186.845
141.585	13.422	1558.605	1185.892
142.600	13.471	1557.487	1185.287
143.614	13.535	1556.375	1184.793
144.629	13.513	1555.385	1183.775
145.643	13.544	1553.921	1182.774
146.658	13.570	1552.375	1181.685
147.673	13.581	1550.681	1180.367
148.687	13.502	1549.119	1178.508
149.702	13.493	1547.627	1177.205
150.716	13.452	1545.974	1175.557
151.731	13.494	1544.485	1174.614
152.746	13.431	1543.554	1173.360
153.760	13.418	1541.718	1171.766
154.775	13.441	1540.721	1171.068
155.789	13.666	1539.026	1171.263
156.804	13.552	1537.954	1169.540
157.819	13.598	1536.328	1168.524
158.833	13.612	1535.651	1168.003
159.848	13.578	1535.021	1167.186
160.862	13.673	1533.385	1166.505
161.877	13.692	1531.893	1165.404
162.892	13.676	1530.912	1164.438
163.906	13.549	1529.441	1162.327
164.921	13.479	1528.341	1160.896
165.935	13.543	1527.102	1160.298
166.950	13.542	1525.559	1159.021
167.964	13.596	1525.326	1159.117
168.979	13.665	1524.014	1158.497
169.994	13.526	1523.156	1156.776
171.008	13.601	1521.819	1156.178
172.023	13.631	1520.662	1155.407
173.037	13.675	1519.667	1154.856
174.052	13.750	1518.326	1154.254
175.067	13.760	1517.351	1153.482
176.081	13.615	1516.479	1151.713
177.096	13.638	1515.024	1150.665
178.110	13.655	1513.813	1149.757
179.125	13.700	1512.493	1148.968
180.140	13.734	1511.217	1148.133
181.154	13.743	1510.459	1147.512
182.169	13.763	1509.523	1146.844
183.183	13.769	1508.189	1145.767
184.198	13.812	1507.214	1145.225
185.213	13.832	1506.212	1144.497
186.227	13.875	1504.920	1143.710
187.242	13.858	1503.389	1142.329
188.256	13.929	1502.418	1141.978
189.271	13.971	1501.952	1141.814
190.286	13.961	1500.552	1140.577
191.300	13.925	1499.736	1139.610
192.315	13.751	1498.672	1137.509
193.329	13.747	1496.955	1136.073
194.344	13.634	1495.821	1134.339
195.359	13.687	1495.323	1134.225
196.373	13.661	1494.506	1133.328
197.388	13.788	1493.176	1133.089
198.402	13.886	1491.871	1132.667
199.417	13.888	1490.976	1131.901
200.432	14.016	1489.825	1131.800
201.446	14.172	1488.766	1131.950
202.461	14.129	1487.719	1130.765
203.475	14.092	1486.745	1129.672
204.490	14.112	1485.779	1128.977
205.504	14.169	1484.315	1128.152
206.519	14.190	1483.215	1127.355
207.534	14.074	1481.922	1125.489
208.548	14.043	1480.744	1124.280
209.563	14.104	1479.469	1123.631
210.577	14.141	1478.926	1123.369
211.592	14.070	1477.707	1121.862
212.607	14.161	1477.289	1122.061
213.621	14.251	1476.534	1121.994
214.636	14.197	1475.515	1120.756
215.650	14.209	1474.229	1119.760
216.665	14.239	1473.413	1119.246
217.680	14.300	1472.899	1119.161
218.694	14.365	1471.839	1118.694
219.709	14.420	1471.097	1118.402
220.723	14.385	1470.011	1117.242
221.738	14.341	1468.871	1115.980
222.753	14.386	1467.993	1115.518
223.767	14.320	1467.108	1114.305
224.782	14.296	1466.415	1113.520
225.796	14.406	1465.047	1113.115
226.811	14.548	1464.010	1113.182
227.826	14.477	1463.700	1112.372
228.840	14.437	1462.908	1111.407
229.855	14.385	1461.556	1109.931
230.869	14.490	1460.543	1109.761
231.884	14.341	1459.967	1108.239
232.899	14.444	1458.705	1107.867
233.913	14.389	1457.374	1106.392
234.928	14.330	1456.307	1105.089
235.942	14.318	1455.275	1104.131
236.957	14.404	1453.682	1103.392
237.972	14.343	1452.822	1102.238
238.986	14.334	1451.647	1101.190
240.001	14.362	1450.981	1100.772
241.015	14.421	1449.449	1099.904
242.030	14.428	1448.459	1099.105
243.045	14.514	1447.376	1098.751
244.059	14.506	1446.537	1097.959
245.074	14.560	1445.706	1097.588
246.088	14.559	1445.177	1097.082
247.103	14.689	1444.205	1097.107
248.117	14.688	1443.153	1096.203
249.132	14.662	1442.781	1095.654
250.147	14.591	1442.650	1094.991
251.161	14.735	1441.798	1095.188
252.176	14.797	1440.898	1094.815
253.190	14.915	1440.118	1094.898
254.205	14.952	1438.804	1094.046
255.220	14.982	1437.838	1093.408
256.234	14.976	1437.754	1093.207
257.249	15.092	1436.216	1092.700
258.263	15.018	1435.179	1091.328
259.278	15.104	1433.992	1090.894
260.293	15.047	1433.455	1090.019
261.307	15.071	1432.881	1089.639
262.322	15.158	1432.083	1089.504
263.336	15.161	1431.470	1088.960
264.351	15.216	1430.175	1088.237
265.366	15.192	1429.195	1087.237
266.380	15.168	1428.300	1086.302
267.395	15.163	1427.441	1085.520
268.409	15.154	1426.605	1084.731
269.424	15.209	1425.434	1084.102
270.439	15.085	1424.908	1082.801
271.453	15.113	1423.375	1081.725
272.468	15.136	1422.795	1081.335
273.482	15.210	1421.580	1080.796
274.497	15.121	1420.931	1079.633
275.512	15.115	1420.063	1078.837
276.526	15.110	1419.027	1077.925
277.541	15.135	1417.830	1077.077
278.555	15.182	1417.089	1076.722
279.570	15.212	1416.704	1076.529
280.585	15.217	1415.267	1075.371
281.599	15.280	1414.423	1075.041
282.614	15.291	1413.869	1074.594
283.628	15.295	1412.807	1073.718
284.643	15.302	1411.440	1072.629
285.657	15.313	1410.144	1071.621
286.672	15.311	1409.508	1071.032
287.687	15.358	1408.759	1070.667
288.701	15.391	1407.491	1069.817
289.716	15.284	1407.047	1068.706
290.730	15.341	1406.061	1068.222
291.745	15.418	1404.852	1067.697
292.760	15.315	1404.137	1066.406
293.774	15.471	1402.756	1066.252
294.789	15.394	1401.743	1064.899
295.803	15.482	1401.158	1064.921
296.818	15.550	1399.985	1064.363
297.833	15.538	1399.243	1063.633
298.847	15.433	1398.031	1061.953
299.862	15.494	1397.135	1061.562
300.876	15.478	1396.107	1060.584
301.891	15.534	1395.500	1060.388
302.906	15.509	1395.062	1059.804
303.920	15.577	1394.092	1059.397
304.935	15.647	1393.056	1058.962
305.949	15.640	1392.639	1058.501
306.964	15.821	1391.045	1058.340
307.979	15.736	1390.737	1057.472
308.993	15.737	1389.581	1056.508
310.008	15.740	1388.734	1055.792
311.022	15.709	1387.804	1054.795
312.037	15.789	1386.777	1054.426
313.052	15.715	1386.175	1053.407
314.066	15.736	1384.823	1052.421
315.081	15.711	1383.643	1051.271
316.095	15.683	1382.743	1050.324
317.110	15.684	1381.523	1049.308
318.125	15.728	1380.608	1048.797
319.139	15.682	1379.475	1047.555
320.154	15.645	1378.836	1046.749
321.168	15.662	1377.732	1045.919
322.183	15.755	1376.792	1045.694
323.197	15.782	1375.789	1045.005
324.212	15.788	1375.016	1044.364
325.227	15.824	1374.193	1043.873
326.241	15.862	1373.150	1043.220
327.256	15.892	1371.886	1042.356
328.270	15.840	1371.605	1041.727
329.285	15.919	1370.092	1040.972
330.300	15.945	1369.421	1040.533
331.314	15.906	1368.307	1039.352
332.329	15.860	1367.655	1038.483
333.343	15.937	1366.504	1037.992
334.358	15.863	1365.756	1036.875
335.373	15.909	1364.961	1036.462
336.387	15.959	1364.192	1036.095
337.402	16.014	1363.336	1035.689
338.416	16.028	1362.906	1035.362
339.431	16.108	1362.408	1035.378
340.446	16.133	1361.530	1034.776
341.460	16.083	1360.552	1033.633
342.475	16.171	1359.335	1033.153
343.489	16.302	1358.670	1033.362
344.504	16.302	1357.600	1032.456
345.519	16.183	1357.125	1031.274
346.533	16.242	1356.144	1030.800
347.548	16.409	1354.942	1030.815
348.562	16.244	1354.344	1029.258
349.577	16.336	1353.496	1029.088
350.592	16.416	1352.326	1028.593
351.606	16.260	1351.512	1026.932
352.621	16.243	1350.342	1025.848
353.635	16.214	1349.579	1025.002
354.650	16.146	1348.623	1023.776
355.665	16.203	1347.667	1023.306
356.679	16.325	1346.249	1022.873
357.694	16.319	1345.215	1021.964
358.708	16.349	1344.046	1021.168
359.723	16.286	1343.338	1020.156
360.738	16.297	1342.551	1019.533
361.752	16.364	1341.271	1018.880
362.767	16.359	1340.407	1018.102
363.781	16.359	1339.407	1017.250
364.796	16.343	1338.882	1016.668
365.810	16.287	1338.177	1015.706
366.825	16.475	1337.345	1016.112
367.840	16.519	1336.518	1015.660
368.854	16.599	1335.626	1015.373
369.869	16.599	1334.929	1014.754
370.883	16.709	1334.333	1014.866
371.898	16.641	1333.566	1013.785
372.913	16.515	1333.018	1012.528
373.927	16.668	1331.525	1012.217
374.942	16.566	1331.510	1011.509
375.956	16.621	1330.409	1010.907
376.971	16.621	1329.585	1010.196
377.986	16.654	1328.706	1009.632
379.000	16.733	1327.540	1009.129
380.015	16.697	1327.180	1008.549
381.029	16.829	1326.659	1008.850
382.044	16.821	1325.888	1008.130
383.059	16.895	1324.938	1007.758
384.073	16.873	1324.282	1007.037
385.088	16.842	1323.707	1006.331
386.102	16.850	1323.057	1005.790
387.117	16.865	1322.400	1005.290
388.132	16.906	1321.481	1004.749
389.146	16.843	1320.393	1003.458
390.161	16.829	1319.663	1002.731
391.175	16.876	1318.863	1002.314
392.190	16.852	1317.901	1001.354
393.205	16.901	1317.146	1000.982
394.219	16.902	1315.909	999.959
395.234	16.988	1314.903	999.614
396.248	16.972	1313.368	998.261
397.263	17.006	1312.180	997.472
398.278	16.977	1310.889	996.231
399.292	17.015	1309.689	995.453
400.307	16.924	1308.511	993.937
401.321	16.844	1307.546	992.645
402.336	16.917	1306.619	992.285
403.350	16.831	1305.994	991.217
404.365	16.917	1304.337	990.377
405.380	16.939	1303.855	990.050
406.394	16.924	1303.061	989.268
407.409	17.091	1302.661	989.854
408.423	17.067	1301.830	988.995
409.438	17.077	1300.900	988.258
410.453	17.146	1300.238	988.067
411.467	17.139	1299.692	987.525
412.482	17.206	1298.951	987.267
413.496	17.238	1298.245	986.829
414.511	17.273	1297.511	986.383
415.526	17.247	1296.618	985.470
416.540	17.405	1295.942	985.784
417.555	17.382	1295.278	985.055
418.569	17.425	1294.399	984.552
419.584	17.429	1294.192	984.331
420.599	17.328	1293.719	983.300
421.613	92.249	1350.530	1456.899
422.628	90.661	1358.762	1456.985
