DTS Sentinel unit serial number:	SN413079Multiplexer serial number:	ORYXHardware model number:	OX4-SRSoftware version number:	ORYX F/W v4.00 Oryx Data Collector v3.7.2.0data status	okinstallation	princeton_trtdifferential loss correction	single-endedforward channel	channel 4reverse channel	N/Adate	2019/09/13time	19:21:34forward acquisition time	60.00reverse acquisition time	0.00gamma	496.2192k internal	0.2314k external	0.2314temperature offset calibration	1.0165default loss term (dB/km)	0.3790temperature slope calibration	1.0000multiplexer offset coefficient	1.0000multiplexer slope coefficient	1.0000fibre end	0.00T internal ref (°C)	31.06T ext. ref 1 (°C)	3.78T ext. ref 2 (°C)	24.50length (m)	temperature (°C)	Stokes	anti-Stokes-747.200	800.000	-0.009	-0.032
-746.185	-144.401	-0.107	0.010
-745.171	-51.108	0.096	0.046
-744.156	24.612	0.029	0.025
-743.142	-63.374	-0.191	0.080
-742.127	800.000	0.176	0.557
-741.112	800.000	0.054	0.202
-740.098	-200.000	0.006	0.421
-739.083	800.000	0.038	0.137
-738.069	325.048	0.159	0.309
-737.054	-40.854	-0.102	-0.053
-736.039	-160.849	-0.518	0.028
-735.025	89.637	0.320	0.362
-734.010	-27.368	-0.067	-0.039
-732.996	800.000	-0.037	0.116
-731.981	294.491	-0.180	0.334
-730.966	-52.950	-0.237	0.111
-729.952	548.680	-0.099	-0.240
-728.937	-100.931	-0.148	0.037
-727.923	-131.715	-0.253	-0.034
-726.908	148.593	-0.140	-0.191
-725.894	194.947	-0.184	-0.283
-724.879	271.288	-0.098	-0.174
-723.864	63.989	-0.127	0.129
-722.850	135.108	0.062	-0.081
-721.835	-69.822	-0.248	0.096
-720.821	-200.000	0.001	0.059
-719.806	219.162	-0.183	0.296
-718.791	-58.164	0.325	0.143
-717.777	-200.000	0.039	-0.441
-716.762	19.254	-0.153	0.124
-715.748	44.437	0.289	0.269
-714.733	-200.000	-0.055	-0.252
-713.718	26.047	0.184	0.155
-712.704	-163.004	-0.161	0.008
-711.689	-28.226	-0.062	0.036
-710.675	90.520	-0.243	0.275
-709.660	-103.072	0.232	0.056
-708.645	-124.940	0.166	0.026
-707.631	-69.985	0.206	-0.079
-706.616	-123.954	0.216	0.034
-705.602	800.000	0.005	0.017
-704.587	-200.000	0.018	0.189
-703.572	232.772	0.132	0.220
-702.558	-84.795	0.344	0.109
-701.543	267.221	0.138	-0.245
-700.529	-200.000	-0.006	0.220
-699.514	-168.040	-0.079	0.003
-698.499	388.677	0.196	0.410
-697.485	-143.782	0.296	0.028
-696.470	-200.000	-0.040	0.183
-695.456	-200.000	0.005	0.204
-694.441	65.299	0.061	-0.063
-693.426	291.762	-0.139	0.256
-692.412	-200.000	0.004	0.050
-691.397	-200.000	-0.013	0.275
-690.383	43.756	0.330	-0.306
-689.368	-200.000	0.039	-0.371
-688.354	-200.000	-0.010	-0.152
-687.339	800.000	-0.060	0.186
-686.324	49.450	-0.177	-0.168
-685.310	206.513	0.129	0.203
-684.295	-46.926	-0.200	-0.099
-683.281	-21.871	-0.336	-0.206
-682.266	29.895	0.221	0.191
-681.251	184.825	-0.230	-0.345
-680.237	-200.000	0.017	-0.078
-679.222	-156.389	0.317	0.020
-678.208	-149.999	0.096	0.008
-677.193	-70.754	-0.153	-0.058
-676.178	-117.322	-0.310	0.057
-675.164	-4.536	0.112	-0.078
-674.149	424.237	0.131	0.285
-673.135	-188.007	-0.225	-0.003
-672.120	-56.681	0.110	-0.049
-671.105	-35.417	0.242	0.133
-670.091	-108.040	-0.182	0.040
-669.076	-8.079	0.126	0.086
-668.062	-15.793	0.142	-0.092
-667.047	115.396	0.267	-0.329
-666.032	800.000	-0.029	0.127
-665.018	109.023	0.201	-0.242
-664.003	-92.461	0.198	0.056
-662.989	315.555	-0.189	-0.360
-661.974	-200.000	-0.029	0.340
-660.959	15.626	0.344	-0.273
-659.945	-108.485	-0.306	0.067
-658.930	-200.000	-0.014	-0.089
-657.916	78.435	-0.112	-0.120
-656.901	445.392	0.040	-0.088
-655.886	218.435	-0.198	-0.320
-654.872	57.113	0.348	-0.343
-653.857	33.818	0.249	-0.219
-652.843	-200.000	0.020	-0.207
-651.828	-54.959	0.217	0.099
-650.814	-188.480	-0.648	0.008
-649.799	193.421	-0.186	-0.285
-648.784	6.911	0.104	-0.079
-647.770	-135.536	0.317	-0.038
-646.755	-119.097	-0.141	-0.025
-645.741	109.967	-0.059	-0.071
-644.726	-65.236	0.422	-0.172
-643.711	79.423	0.290	-0.314
-642.697	-26.666	-0.107	0.063
-641.682	-85.504	-0.434	-0.136
-640.668	-28.167	0.276	-0.161
-639.653	136.805	-0.083	0.109
-638.638	448.366	-0.008	-0.019
-637.624	800.000	0.031	0.089
-636.609	-149.619	0.192	0.015
-635.595	272.561	0.167	0.298
-634.580	-119.339	0.132	0.023
-633.565	421.238	-0.054	-0.117
-632.551	800.000	-0.040	-0.122
-631.536	-200.000	-0.028	-0.196
-630.522	-82.447	-0.384	0.126
-629.507	-96.438	-0.332	-0.088
-628.492	-200.000	-0.066	-0.454
-627.478	-185.602	0.212	-0.003
-626.463	-163.146	0.161	-0.008
-625.449	-72.310	-0.317	0.118
-624.434	-158.221	-0.264	-0.016
-623.419	-160.263	0.160	-0.009
-622.405	800.000	-0.027	-0.117
-621.390	135.623	-0.159	-0.209
-620.376	-200.000	-0.008	0.123
-619.361	528.137	-0.109	-0.259
-618.346	-62.789	0.051	0.021
-617.332	27.529	0.263	-0.223
-616.317	329.765	0.152	-0.294
-615.303	-49.224	-0.075	-0.036
-614.288	32.265	0.088	0.077
-613.273	800.000	0.020	-0.068
-612.259	-187.942	-0.127	0.002
-611.244	-169.168	0.139	0.005
-610.230	177.785	0.127	-0.187
-609.215	38.278	-0.115	0.103
-608.201	33.530	0.076	0.067
-607.186	-41.077	-0.275	0.143
-606.171	800.000	0.098	0.319
-605.157	100.033	0.178	-0.208
-604.142	-200.000	0.024	-0.186
-603.128	-73.154	-0.170	0.063
-602.113	56.979	0.062	-0.061
-601.098	28.997	0.128	0.109
-600.084	-85.209	-0.075	0.024
-599.069	800.000	0.060	-0.207
-598.055	92.522	-0.051	-0.057
-597.040	109.969	-0.018	-0.021
-596.025	-200.000	0.033	-0.184
-595.011	800.000	0.071	-0.216
-593.996	-200.000	0.002	0.165
-592.982	-200.000	0.054	-0.359
-591.967	377.808	-0.068	-0.140
-590.952	-29.775	-0.198	0.114
-589.938	-90.094	-0.232	-0.068
-588.923	-99.836	-0.135	0.034
-587.909	800.000	0.073	0.217
-586.894	383.658	0.103	0.215
-585.879	-200.000	0.039	-0.230
-584.865	-161.765	-0.347	0.018
-583.850	-200.000	-0.048	0.571
-582.836	127.160	0.056	-0.072
-581.821	24.977	-0.123	-0.103
-580.806	18.730	0.234	-0.189
-579.792	66.332	0.121	0.124
-578.777	766.288	0.021	0.058
-577.763	-57.019	-0.387	-0.172
-576.748	94.443	-0.023	-0.026
-575.733	-78.236	-0.056	-0.019
-574.719	232.990	0.105	0.174
-573.704	-147.319	-0.235	-0.020
-572.690	-102.362	-0.387	-0.093
-571.675	-125.403	-0.284	-0.044
-570.661	-103.128	-0.217	0.052
-569.646	800.000	0.071	0.221
-568.631	-22.131	0.290	0.177
-567.617	-200.000	-0.034	0.370
-566.602	5.208	-0.263	0.195
-565.588	-188.390	0.197	-0.002
-564.573	53.780	-0.224	0.216
-563.558	28.707	-0.297	-0.253
-562.544	111.493	0.093	-0.112
-561.529	18.436	0.146	0.118
-560.515	-29.427	-0.215	-0.124
-559.500	-200.000	0.002	-0.106
-558.485	-167.911	0.161	-0.006
-557.471	520.250	0.078	0.183
-556.456	-200.000	-0.028	-0.394
-555.442	714.921	0.073	0.196
-554.427	-66.104	-0.279	-0.112
-553.412	-200.000	-0.016	-0.315
-552.398	168.112	0.225	-0.323
-551.383	-200.000	-0.026	0.163
-550.369	-200.000	-0.032	0.208
-549.354	137.356	0.086	-0.113
-548.339	126.763	0.090	0.114
-547.325	-117.025	-0.272	-0.050
-546.310	-121.242	0.352	-0.059
-545.296	800.000	0.001	-0.003
-544.281	800.000	0.104	0.374
-543.266	-200.000	0.029	-0.293
-542.252	-200.000	-0.037	-0.276
-541.237	-74.530	-0.013	0.005
-540.223	40.348	-0.071	-0.064
-539.208	680.415	-0.036	0.095
-538.193	143.938	-0.100	-0.134
-537.179	-3.240	-0.176	-0.123
-536.164	-45.183	-0.093	-0.047
-535.150	-44.020	0.092	-0.047
-534.135	668.594	0.047	-0.123
-533.121	800.000	-0.066	-0.204
-532.106	-71.640	-0.093	0.035
-531.091	70.673	-0.200	-0.208
-530.077	112.940	0.154	-0.187
-529.062	-26.621	-0.278	0.164
-528.048	-85.227	0.092	0.029
-527.033	104.695	-0.072	-0.085
-526.018	-200.000	0.020	-0.136
-525.004	140.842	-0.185	-0.246
-523.989	-200.000	-0.045	-0.224
-522.975	-166.079	-0.229	0.010
-521.960	-54.552	-0.357	0.162
-520.945	32.284	0.242	0.210
-519.931	-123.704	0.392	0.062
-518.916	-126.129	-0.224	-0.034
-517.902	-37.309	-0.181	-0.097
-516.887	54.821	-0.108	0.104
-515.872	-59.989	-0.231	0.099
-514.858	152.050	-0.085	-0.117
-513.843	-130.721	0.090	0.012
-512.829	615.018	0.119	0.300
-511.814	315.891	0.068	-0.128
-510.799	800.000	0.053	0.170
-509.785	283.723	-0.073	0.132
-508.770	-120.109	0.222	-0.038
-507.756	-43.996	-0.267	-0.135
-506.741	-100.111	0.155	0.039
-505.726	-200.000	-0.031	0.193
-504.712	85.282	-0.081	0.090
-503.697	31.292	0.193	-0.167
-502.683	-1.959	-0.109	0.077
-501.668	-54.169	-0.157	-0.072
-500.653	7.104	0.190	0.142
-499.639	-86.626	-0.221	0.068
-498.624	-109.506	-0.125	-0.027
-497.610	-200.000	-0.011	-0.073
-496.595	5.513	-0.078	-0.057
-495.581	77.197	-0.196	-0.209
-494.566	-200.000	-0.026	0.388
-493.551	338.513	0.122	-0.239
-492.537	79.833	0.066	-0.071
-491.522	-43.955	-0.331	0.167
-490.508	800.000	0.086	-0.280
-489.493	79.723	-0.114	-0.123
-488.478	88.922	-0.127	-0.142
-487.464	-107.417	0.108	-0.024
-486.449	-132.305	0.157	-0.020
-485.435	39.803	0.377	-0.340
-484.420	-75.019	0.359	-0.129
-483.405	-76.834	0.131	0.046
-482.391	144.287	-0.058	-0.078
-481.376	-49.858	0.280	0.134
-480.362	-116.566	-0.070	-0.013
-479.347	800.000	-0.058	-0.223
-478.332	-200.000	-0.043	0.308
-477.318	-105.044	0.207	0.048
-476.303	-105.394	-0.297	-0.068
-475.289	143.956	-0.010	-0.013
-474.274	273.065	0.122	0.217
-473.259	-200.000	0.022	-0.223
-472.245	3.079	0.108	0.079
-471.230	262.197	-0.097	0.168
-470.216	-25.360	0.250	0.149
-469.201	-200.000	-0.087	-0.402
-468.186	-62.529	0.146	0.061
-467.172	-200.000	-0.035	-0.463
-466.157	56.049	0.323	0.314
-465.143	-101.334	0.087	0.021
-464.128	89.821	-0.127	0.143
-463.113	32.849	0.159	-0.138
-462.099	-165.202	0.101	0.004
-461.084	-200.000	0.010	-0.109
-460.070	162.959	-0.143	-0.201
-459.055	800.000	-0.053	0.196
-458.040	-200.000	0.045	-0.282
-457.026	800.000	-0.081	0.318
-456.011	800.000	-0.038	-0.123
-454.997	-136.810	0.384	-0.044
-453.982	132.435	0.086	0.111
-452.968	14.681	-0.123	-0.096
-451.953	-200.000	0.026	-0.178
-450.938	500.650	0.120	0.278
-449.924	8.471	0.257	0.194
-448.909	-136.312	-0.099	-0.012
-447.895	150.273	-0.048	0.066
-446.880	70.168	0.092	-0.095
-445.865	800.000	-0.136	-0.425
-444.851	-83.340	-0.069	-0.022
-443.836	131.882	0.101	0.131
-442.822	-49.376	-0.065	-0.031
-441.807	210.451	0.201	0.316
-440.792	-200.000	-0.029	-0.158
-439.778	-157.569	-0.220	-0.013
-438.763	-0.520	0.191	0.136
-437.749	663.473	-0.166	0.429
-436.734	-61.361	0.114	-0.048
-435.719	31.928	0.094	0.081
-434.705	-126.670	0.159	0.024
-433.690	211.175	-0.147	0.232
-432.676	800.000	0.043	0.183
-431.661	-132.526	0.164	-0.021
-430.646	800.000	-0.022	-0.092
-429.632	-162.381	-0.045	0.002
-428.617	-139.197	-0.444	-0.048
-427.603	130.535	-0.129	-0.166
-426.588	-5.451	-0.218	-0.150
-425.573	-200.000	0.002	-0.165
-424.559	-30.463	0.168	0.096
-423.544	-69.413	0.247	0.095
-422.530	65.661	-0.096	0.098
-421.515	434.428	-0.139	0.303
-420.500	-36.379	0.035	-0.019
-419.486	644.133	-0.097	-0.247
-418.471	-77.528	-0.174	0.060
-417.457	-50.991	-0.174	-0.082
-416.442	114.436	-0.147	0.179
-415.428	355.672	-0.115	0.229
-414.413	-116.344	-0.193	0.036
-413.398	578.225	0.027	0.066
-412.384	-200.000	0.043	0.203
-411.369	177.075	-0.194	-0.283
-410.355	481.814	-0.050	0.113
-409.340	219.140	-0.053	0.085
-408.325	250.179	-0.112	-0.190
-407.311	330.864	-0.176	-0.340
-406.296	-105.806	0.119	-0.027
-405.282	-55.961	-0.176	-0.079
-404.267	-70.717	0.065	0.024
-403.252	-200.000	0.029	0.327
-402.238	-200.000	0.007	-0.178
-401.223	-200.000	-0.013	-0.258
-400.209	-200.000	0.011	-0.073
-399.194	-200.000	0.039	-0.339
-398.179	800.000	0.105	0.315
-397.165	-200.000	0.005	-0.039
-396.150	-118.743	-0.341	-0.060
-395.136	-168.176	0.314	0.012
-394.121	577.985	0.061	-0.148
-393.106	232.916	-0.186	0.305
-392.092	110.004	-0.123	-0.147
-391.077	-200.000	0.022	-0.158
-390.063	-200.000	0.045	0.363
-389.048	-65.510	0.130	0.052
-388.033	-200.000	-0.004	0.177
-387.019	-200.000	0.047	0.390
-386.004	-200.000	-0.016	-0.200
-384.990	-32.765	-0.239	0.133
-383.975	-200.000	0.051	0.302
-382.960	123.688	-0.209	0.262
-381.946	156.197	-0.142	0.196
-380.931	-200.000	-0.004	-0.068
-379.917	-200.000	0.007	0.656
-378.902	33.093	0.025	-0.021
-377.888	-165.120	0.354	-0.016
-376.873	106.110	0.039	-0.047
-375.858	-78.638	0.224	0.077
-374.844	-200.000	0.044	0.241
-373.829	146.418	0.194	-0.261
-372.815	176.305	-0.132	0.191
-371.800	-65.465	-0.145	-0.058
-370.785	-54.471	-0.128	0.058
-369.771	-200.000	-0.046	0.277
-368.756	185.686	-0.195	-0.290
-367.742	800.000	0.040	0.132
-366.727	-93.347	0.140	0.039
-365.712	342.765	0.102	-0.200
-364.698	-49.455	0.086	0.041
-363.683	-147.869	0.249	0.021
-362.669	-200.000	0.012	0.243
-361.654	50.619	-0.201	-0.190
-360.639	210.433	0.095	0.150
-359.625	259.497	0.084	0.145
-358.610	683.207	0.032	-0.084
-357.596	800.000	-0.131	0.365
-356.581	-104.622	0.276	0.063
-355.566	-120.388	-0.285	0.048
-354.552	-200.000	-0.045	0.251
-353.537	12.662	-0.164	-0.126
-352.523	48.506	-0.079	-0.073
-351.508	800.000	0.020	-0.078
-350.493	94.023	0.117	0.132
-349.479	-200.000	0.042	-0.308
-348.464	-62.623	0.286	0.118
-347.450	-140.056	-0.409	0.043
-346.435	63.019	-0.089	-0.089
-345.420	405.635	0.188	0.395
-344.406	-46.304	0.123	-0.060
-343.391	-200.000	0.007	-0.106
-342.377	-7.179	-0.126	-0.086
-341.362	321.198	0.189	0.358
-340.348	-200.000	-0.039	-0.266
-339.333	392.966	0.109	0.226
-338.318	30.459	-0.436	-0.372
-337.304	-59.050	0.182	-0.079
-336.289	214.919	-0.205	0.324
-335.275	-28.970	0.046	-0.027
-334.260	-35.882	0.117	0.063
-333.245	-69.329	-0.075	-0.029
-332.231	800.000	0.105	-0.360
-331.216	144.310	0.156	-0.207
-330.202	82.325	-0.346	0.374
-329.187	18.827	0.017	0.014
-328.172	74.169	-0.121	-0.127
-327.158	-6.721	-0.035	0.024
-326.143	19.667	-0.138	-0.111
-325.129	-200.000	0.001	-0.007
-324.114	68.372	0.440	-0.450
-323.099	34.204	0.252	0.220
-322.085	-38.362	-0.428	-0.226
-321.070	0.392	-0.230	-0.164
-320.056	21.411	-0.288	-0.234
-319.041	-200.000	0.054	-0.301
-318.026	-7.401	0.089	-0.060
-317.012	-97.749	0.190	0.049
-315.997	-200.000	0.067	0.323
-314.983	-50.241	0.033	0.016
-313.968	-127.328	-0.099	-0.014
-312.953	19.880	-0.128	-0.103
-311.939	82.120	0.164	0.177
-310.924	-89.618	-0.103	-0.030
-309.910	-200.000	-0.014	-0.138
-308.895	-155.189	0.146	0.010
-307.880	467.327	0.056	0.126
-306.866	-25.708	0.214	-0.126
-305.851	800.000	-0.076	-0.316
-304.837	-49.283	0.072	-0.034
-303.822	556.249	0.037	0.089
-302.807	-54.547	-0.151	0.068
-301.793	335.497	0.022	-0.043
-300.778	-102.660	0.220	-0.052
-299.764	-31.037	-0.177	0.100
-298.749	-200.000	-0.030	-0.178
-297.735	-200.000	-0.004	0.097
-296.720	-76.225	-0.597	0.210
-295.705	-45.528	-0.141	-0.070
-294.691	624.746	0.081	-0.203
-293.676	10.926	0.330	-0.251
-292.662	239.508	-0.053	0.087
-291.647	220.616	-0.073	0.117
-290.632	-200.000	-0.008	0.089
-289.618	-29.578	-0.239	-0.136
-288.603	43.516	-0.246	-0.224
-287.589	-138.788	-0.130	0.014
-286.574	15.764	0.149	-0.116
-285.559	194.684	0.249	-0.376
-284.545	75.065	0.087	0.091
-283.530	152.680	0.124	-0.168
-282.516	-200.000	0.076	0.403
-281.501	89.723	0.279	-0.310
-280.486	60.799	0.164	0.161
-279.472	32.590	0.122	0.105
-278.457	278.899	-0.099	-0.176
-277.443	-108.803	-0.064	-0.014
-276.428	-85.832	0.095	0.029
-275.413	98.933	0.169	0.194
-274.399	-200.000	-0.032	0.234
-273.384	-94.901	-0.244	0.066
-272.370	-128.903	0.389	-0.054
-271.355	38.240	-0.137	-0.122
-270.340	-200.000	-0.013	0.354
-269.326	142.244	0.155	-0.204
-268.311	-119.954	0.594	-0.102
-267.297	-101.120	0.066	0.016
-266.282	-41.487	0.090	-0.046
-265.267	800.000	-0.093	0.284
-264.253	800.000	-0.076	0.326
-263.238	-200.000	0.025	0.319
-262.224	-11.833	0.188	0.123
-261.209	-113.805	-0.192	0.037
-260.195	-200.000	-0.016	0.119
-259.180	-77.493	0.149	-0.051
-258.165	-79.160	-0.234	0.079
-257.151	-74.317	-0.196	-0.071
-256.136	-135.132	0.180	0.022
-255.122	-8.123	0.188	0.126
-254.107	157.080	-0.154	-0.211
-253.092	-200.000	-0.006	-0.132
-252.078	-4.514	-0.119	-0.082
-251.063	800.000	-0.071	0.197
-250.049	-200.000	0.046	0.256
-249.034	-200.000	0.000	-0.287
-248.019	-91.878	-0.203	0.057
-247.005	-5.537	0.249	0.170
-245.990	800.000	0.060	0.227
-244.976	-169.335	0.284	0.010
-243.961	60.949	0.302	-0.298
-242.946	-64.070	-0.246	-0.100
-241.932	-70.649	0.225	-0.085
-240.917	-32.655	-0.066	-0.037
-239.903	-200.000	0.000	0.169
-238.888	52.319	-0.278	0.263
-237.873	-52.203	-0.242	0.112
-236.859	-68.142	-0.337	0.130
-235.844	41.294	-0.291	0.262
-234.830	-87.043	0.191	-0.058
-233.815	-47.665	-0.098	0.047
-232.800	619.523	-0.121	-0.303
-231.786	-118.641	0.252	-0.044
-230.771	800.000	0.029	-0.091
-229.757	-58.893	0.385	-0.165
-228.742	-9.827	0.414	0.274
-227.727	94.175	-0.088	0.100
-226.713	209.566	0.038	-0.060
-225.698	-21.509	0.250	0.151
-224.684	-200.000	-0.011	0.209
-223.669	-69.349	-0.048	0.018
-222.655	-200.000	0.000	0.205
-221.640	-200.000	0.043	-0.319
-220.625	-27.127	0.179	-0.104
-219.611	-24.222	-0.205	-0.121
-218.596	-15.568	0.252	-0.160
-217.582	-200.000	0.036	-0.240
-216.567	-7.969	0.128	-0.086
-215.552	-200.000	0.010	0.223
-214.538	-103.893	-0.286	0.066
-213.523	-200.000	0.028	-0.218
-212.509	312.652	-0.161	-0.300
-211.494	533.456	0.079	-0.185
-210.479	9.072	-0.145	0.109
-209.465	-52.451	0.272	-0.125
-208.450	-163.155	0.055	-0.003
-207.436	125.570	-0.268	0.336
-206.421	-200.000	0.055	-0.321
-205.406	-200.000	-0.035	-0.173
-204.392	-154.690	-0.472	-0.031
-203.377	-0.973	0.216	0.152
-202.363	217.759	-0.239	-0.378
-201.348	-200.000	0.036	0.305
-200.333	-80.408	0.342	0.113
-199.319	-200.000	-0.020	0.112
-198.304	-200.000	-0.039	0.263
-197.290	-200.000	0.030	0.227
-196.275	-44.567	0.197	-0.098
-195.260	800.000	-0.071	0.219
-194.246	11.588	0.359	-0.274
-193.231	-92.009	-0.181	-0.051
-192.217	-200.000	-0.011	0.228
-191.202	23.550	0.206	0.168
-190.187	-132.835	0.250	0.032
-189.173	-108.041	0.327	0.070
-188.158	56.930	-0.139	-0.135
-187.144	-125.159	0.198	0.030
-186.129	-16.093	0.203	-0.128
-185.114	136.024	-0.108	-0.140
-184.100	-10.490	-0.154	0.101
-183.085	-38.562	-0.085	-0.045
-182.071	-18.347	-0.141	-0.088
-181.056	466.643	0.083	0.185
-180.042	0.769	0.162	0.115
-179.027	-62.609	0.241	0.099
-178.012	-101.471	0.243	0.059
-176.998	106.396	-0.252	0.296
-175.983	-88.793	0.165	0.048
-174.969	-160.294	-0.161	0.009
-173.954	-84.999	0.133	0.041
-172.939	-91.376	-0.364	0.103
-171.925	-133.556	-0.033	-0.004
-170.910	-49.701	0.090	-0.042
-169.896	62.957	0.023	-0.023
-168.881	29.565	0.053	-0.045
-167.866	-105.593	-0.158	-0.036
-166.852	-200.000	-0.007	-0.067
-165.837	39.788	0.104	-0.092
-164.823	213.939	-0.112	-0.175
-163.808	-14.321	0.331	0.212
-162.793	-200.000	-0.024	-0.252
-161.779	-45.069	0.218	-0.107
-160.764	-200.000	0.038	0.204
-159.750	-200.000	0.063	0.283
-158.735	-63.064	-0.209	0.086
-157.720	-200.000	-0.064	0.408
-156.706	-122.431	0.080	-0.013
-155.691	-200.000	0.136	-0.000
-154.677	200.421	-0.026	-0.040
-153.662	-17.032	0.209	0.131
-152.647	1.059	-0.229	0.163
-151.633	-111.145	0.102	-0.021
-150.618	-118.205	-0.463	-0.082
-149.604	-28.332	0.177	-0.101
-148.589	-200.000	0.374	0.001
-147.574	-200.000	-0.047	0.278
-146.560	-200.000	-0.053	0.416
-145.545	800.000	0.041	0.114
-144.531	174.661	0.047	-0.068
-143.516	155.462	0.128	-0.175
-142.502	111.120	-0.151	0.180
-141.487	-70.577	0.227	0.085
-140.472	-61.776	-0.300	-0.125
-139.458	180.398	-0.163	0.237
-138.443	-152.244	0.095	-0.007
-137.429	104.604	-0.022	-0.026
-136.414	39.056	0.097	-0.086
-135.399	-106.006	0.096	0.021
-134.385	-17.709	0.330	-0.205
-133.370	-115.171	-0.098	0.018
-132.356	-200.000	0.040	0.181
-131.341	355.982	0.273	-0.538
-130.326	426.013	0.169	-0.360
-129.312	-200.000	0.006	0.459
-128.297	168.218	0.121	0.170
-127.283	117.065	0.062	-0.075
-126.268	-12.330	-0.433	-0.280
-125.253	17.062	-0.092	-0.072
-124.239	-30.433	0.170	-0.095
-123.224	4.926	-0.087	0.063
-122.210	48.671	-0.207	0.192
-121.195	168.598	0.186	-0.262
-120.180	53.110	0.045	0.043
-119.166	123.595	-0.095	0.118
-118.151	-120.123	-0.139	0.024
-117.137	800.000	0.005	-0.020
-116.122	-50.272	0.084	-0.039
-115.107	-181.720	-0.224	-0.004
-114.093	157.317	-0.134	0.183
-113.078	272.150	0.102	0.177
-112.064	-75.164	0.052	-0.019
-111.049	123.022	-0.227	0.281
-110.034	291.413	-0.106	0.191
-109.020	181.815	-0.213	0.310
-108.005	292.692	-0.049	-0.088
-106.991	-200.000	-0.005	-0.041
-105.976	253.169	-0.125	-0.211
-104.962	16.298	-0.131	-0.102
-103.947	-138.426	0.430	-0.047
-102.932	-53.696	0.286	0.129
-101.918	348.277	0.127	0.247
-100.903	53.028	-0.229	0.217
-99.889	-163.497	0.157	-0.007
-98.874	238.102	0.200	0.327
-97.859	-69.287	-0.620	0.236
-96.845	800.000	-0.057	0.230
-95.830	-107.679	-0.110	-0.024
-94.816	800.000	0.065	-0.251
-93.801	-63.853	0.267	-0.108
-92.786	-68.283	0.234	-0.090
-91.772	57.354	-0.085	-0.082
-90.757	516.322	0.208	-0.480
-89.743	-88.520	0.091	-0.027
-88.728	41.859	0.309	-0.277
-87.713	-18.313	0.108	-0.067
-86.699	171.611	0.266	-0.378
-85.684	661.393	-0.036	-0.091
-84.670	132.602	-0.216	-0.276
-83.655	-200.000	-0.006	0.051
-82.640	-102.174	0.300	-0.071
-81.626	302.715	0.162	-0.297
-80.611	446.096	-0.049	0.107
-79.597	-200.000	-0.023	-0.283
-78.582	125.499	0.219	0.274
-77.567	39.517	0.228	-0.202
-76.553	20.824	-0.173	0.138
-75.538	-34.159	-0.122	0.066
-74.524	683.762	-0.054	0.140
-73.509	-78.254	-0.297	-0.101
-72.494	-101.453	0.255	0.061
-71.480	-200.000	-0.037	-0.293
-70.465	16.129	0.084	0.066
-69.451	371.181	0.043	0.086
-68.436	800.000	0.051	-0.161
-67.422	295.231	0.155	0.279
-66.407	-130.555	-0.236	-0.031
-65.392	-69.762	-0.152	-0.057
-64.378	-72.064	-0.141	-0.052
-63.363	-35.226	0.043	-0.023
-62.349	-33.897	0.252	0.137
-61.334	90.949	-0.981	-1.086
-60.319	27.324	0.535	0.444
-59.305	324.256	-0.459	-0.865
-58.290	56.807	1.016	0.977
-57.276	800.000	0.568	1.603
-56.261	-200.000	102.608	594.536
-55.246	552.817	1434.646	3402.557
-54.232	184.201	2628.954	3841.811
-53.217	106.253	2305.643	2695.996
-52.203	37.671	2060.241	1805.089
-51.188	32.829	1976.070	1688.075
-50.173	31.327	1958.083	1659.319
-49.159	47.172	2013.172	1849.159
-48.144	47.990	2030.535	1872.407
-47.130	33.459	1989.517	1704.966
-46.115	31.127	1978.687	1674.713
-45.100	31.015	1976.247	1671.585
-44.086	30.917	1974.158	1668.868
-43.071	30.898	1971.506	1666.390
-42.057	30.920	1969.153	1664.538
-41.042	30.835	1967.603	1662.396
-40.027	30.993	1965.296	1661.790
-39.013	30.993	1963.549	1660.245
-37.998	31.045	1961.452	1658.869
-36.984	31.009	1959.642	1656.955
-35.969	30.967	1957.550	1654.748
-34.954	31.059	1955.687	1653.923
-33.940	31.080	1954.383	1652.942
-32.925	31.032	1953.212	1651.457
-31.911	31.020	1951.480	1649.828
-30.896	31.056	1949.869	1648.715
-29.881	31.011	1948.395	1647.009
-28.867	31.139	1946.819	1646.737
-27.852	31.134	1944.751	1644.877
-26.838	31.193	1942.962	1643.821
-25.823	31.080	1940.948	1641.057
-24.809	31.134	1939.317	1640.087
-23.794	31.086	1938.389	1638.818
-22.779	31.072	1936.532	1637.060
-21.765	31.079	1935.105	1635.851
-20.750	31.116	1932.730	1634.097
-19.736	31.039	1931.604	1632.411
-18.721	31.175	1929.118	1631.433
-17.706	31.073	1928.073	1629.589
-16.692	31.117	1926.602	1628.672
-15.677	31.059	1925.296	1626.994
-14.663	31.078	1923.711	1625.756
-13.648	31.026	1922.349	1624.090
-12.633	31.155	1921.133	1624.116
-11.619	31.092	1920.012	1622.560
-10.604	31.015	1918.610	1620.642
-9.590	30.964	1917.049	1618.817
-8.575	31.053	1915.942	1618.587
-7.560	31.098	1914.342	1617.560
-6.546	31.026	1913.089	1615.817
-5.531	31.081	1912.071	1615.371
-4.517	31.095	1910.582	1614.164
-3.502	31.087	1909.363	1613.001
-2.487	30.991	1908.740	1611.585
-1.473	31.119	1906.758	1610.952
-0.458	31.132	1902.525	1607.425
0.556	32.248	1881.485	1575.585
1.571	27.190	1861.324	1516.491
2.586	22.611	1882.024	1494.499
3.600	21.387	1916.949	1511.528
4.615	20.595	1910.453	1499.440
5.629	15.657	1810.748	1380.607
6.644	7.803	1695.558	1232.039
7.659	4.046	1660.805	1178.141
8.673	3.794	1657.507	1173.783
9.688	3.760	1656.445	1172.667
10.702	3.728	1655.056	1171.338
11.717	3.829	1652.009	1169.841
12.731	4.290	1651.082	1172.569
13.746	9.454	1662.630	1219.892
14.761	17.504	1679.970	1293.926
15.775	21.223	1686.870	1327.448
16.790	21.271	1685.084	1326.288
17.804	20.398	1682.243	1317.317
18.819	19.361	1678.952	1306.766
19.834	18.787	1676.386	1300.308
20.848	18.507	1675.191	1297.153
21.863	18.430	1673.573	1295.197
22.877	18.211	1672.573	1292.656
23.892	18.057	1671.600	1290.626
24.907	17.896	1670.806	1288.687
25.921	17.896	1669.288	1287.398
26.936	17.923	1668.048	1286.532
27.950	17.921	1667.294	1285.821
28.965	17.991	1666.501	1285.626
29.980	18.025	1666.023	1285.398
30.994	18.070	1665.318	1285.076
32.009	18.292	1663.489	1285.224
33.023	18.298	1663.077	1284.837
34.038	18.335	1662.236	1284.349
35.053	18.290	1660.879	1282.845
36.067	18.189	1659.826	1281.164
37.082	18.090	1658.543	1279.320
38.096	18.108	1657.970	1278.897
39.111	18.171	1657.122	1278.606
40.126	18.270	1656.186	1278.510
41.140	18.153	1655.220	1276.777
42.155	18.028	1653.228	1274.194
43.169	17.876	1651.604	1271.697
44.184	17.768	1650.572	1269.983
45.199	17.681	1649.972	1268.769
46.213	17.730	1648.418	1267.821
47.228	17.723	1647.582	1267.018
48.242	17.880	1646.554	1267.276
49.257	18.036	1645.548	1267.550
50.271	17.979	1644.597	1266.282
51.286	18.047	1643.383	1265.734
52.301	18.119	1641.704	1264.868
53.315	18.078	1640.244	1263.327
54.330	17.878	1639.158	1260.899
55.344	17.861	1636.944	1258.962
56.359	17.889	1634.990	1257.556
57.374	17.718	1634.742	1255.994
58.388	17.866	1633.155	1255.751
59.403	17.740	1632.225	1253.996
60.417	17.725	1630.649	1252.569
61.432	17.668	1629.470	1251.127
62.447	17.563	1628.724	1249.678
63.461	17.556	1627.130	1248.290
64.476	17.523	1626.017	1247.083
65.490	17.549	1624.429	1245.946
66.505	17.424	1623.556	1244.254
67.520	17.438	1623.339	1244.079
68.534	17.600	1621.475	1243.724
69.549	17.600	1621.074	1243.306
70.563	17.616	1619.436	1242.058
71.578	17.598	1618.032	1240.742
72.593	17.434	1617.508	1239.035
73.607	17.363	1615.847	1237.134
74.622	17.283	1615.412	1236.108
75.636	17.406	1613.967	1235.787
76.651	17.438	1613.053	1235.209
77.666	17.450	1612.743	1234.955
78.680	17.434	1611.912	1234.089
79.695	17.448	1611.174	1233.517
80.709	17.511	1610.157	1233.090
81.724	17.611	1609.588	1233.262
82.739	17.755	1608.697	1233.514
83.753	17.790	1607.775	1232.954
84.768	17.949	1607.135	1233.500
85.782	18.016	1606.235	1233.182
86.797	18.173	1605.652	1233.762
87.812	18.209	1605.164	1233.534
88.826	18.092	1604.005	1231.691
89.841	17.993	1602.473	1229.694
90.855	17.924	1602.468	1229.088
91.870	18.111	1600.582	1228.877
92.884	18.159	1599.935	1228.613
93.899	18.194	1599.108	1228.125
94.914	18.187	1598.119	1227.205
95.928	18.233	1596.528	1226.205
96.943	18.344	1594.969	1225.688
97.957	18.218	1593.879	1223.846
98.972	18.192	1592.342	1222.369
99.987	18.141	1590.820	1220.729
101.001	18.190	1589.331	1219.827
102.016	18.107	1588.384	1218.399
103.030	18.130	1586.531	1217.033
104.045	18.133	1585.731	1216.336
105.060	18.121	1584.310	1215.051
106.074	18.109	1582.607	1213.557
107.089	17.819	1581.075	1210.213
108.103	17.694	1579.071	1207.691
109.118	17.561	1577.161	1205.183
110.133	17.486	1576.171	1203.788
111.147	17.545	1574.953	1203.168
112.162	17.524	1573.574	1201.858
113.176	17.660	1572.045	1201.544
114.191	17.719	1570.607	1200.754
115.206	17.776	1569.523	1200.220
116.220	17.815	1568.191	1199.367
117.235	17.669	1567.002	1197.328
118.249	17.611	1566.000	1196.052
119.264	17.714	1564.495	1195.516
120.279	17.614	1563.160	1193.692
121.293	17.527	1561.309	1191.564
122.308	17.585	1559.736	1190.664
123.322	17.444	1558.326	1188.499
124.337	17.435	1556.416	1186.874
125.352	17.476	1555.155	1186.090
126.366	17.409	1554.361	1184.914
127.381	17.342	1553.480	1183.672
128.395	17.394	1551.950	1182.762
129.410	17.463	1550.506	1182.038
130.424	17.363	1549.573	1180.523
131.439	17.455	1547.929	1179.805
132.454	17.603	1546.808	1179.870
133.468	17.679	1545.745	1179.483
134.483	17.677	1543.900	1177.960
135.497	17.722	1542.690	1177.238
136.512	17.571	1542.165	1175.691
137.527	17.646	1540.697	1174.985
138.541	17.832	1539.073	1174.925
139.556	17.871	1537.986	1174.258
140.570	17.808	1536.976	1172.951
141.585	17.898	1535.412	1172.271
142.600	17.995	1534.073	1171.816
143.614	18.100	1533.413	1171.924
144.629	18.143	1532.579	1171.481
145.643	18.301	1530.658	1170.987
146.658	18.220	1530.165	1169.950
147.673	18.150	1528.563	1168.144
148.687	18.116	1526.217	1166.020
149.702	17.991	1525.029	1164.158
150.716	17.886	1523.372	1162.071
151.731	17.784	1522.267	1160.432
152.746	17.908	1520.559	1159.870
153.760	17.836	1518.993	1158.088
154.775	17.924	1517.478	1157.426
155.789	17.908	1517.416	1157.168
156.804	18.044	1515.619	1156.615
157.819	18.075	1514.470	1155.846
158.833	18.070	1513.384	1154.881
159.848	18.013	1513.044	1154.133
160.862	18.289	1511.148	1154.444
161.877	18.290	1510.055	1153.518
162.892	18.126	1508.746	1151.312
163.906	17.886	1507.124	1148.356
164.921	17.822	1505.920	1146.904
165.935	17.864	1504.253	1145.820
166.950	17.898	1503.582	1145.430
167.964	18.069	1502.198	1145.422
168.979	17.960	1501.894	1144.361
169.994	17.885	1500.819	1142.937
171.008	17.876	1499.707	1141.929
172.023	18.030	1498.187	1141.700
173.037	18.135	1497.001	1141.395
174.052	18.145	1496.109	1140.681
175.067	18.196	1495.220	1140.242
176.081	18.129	1493.857	1138.660
177.096	17.968	1492.599	1136.524
178.110	17.770	1491.475	1134.254
179.125	17.957	1489.980	1134.256
180.140	18.033	1489.444	1134.257
181.154	18.088	1488.070	1133.475
182.169	18.075	1486.787	1132.307
183.183	18.206	1485.954	1132.444
184.198	18.252	1484.894	1131.838
185.213	18.287	1484.075	1131.344
186.227	18.329	1482.722	1130.491
187.242	18.408	1482.033	1130.388
188.256	18.416	1480.733	1129.348
189.271	18.402	1480.016	1128.609
190.286	18.501	1478.908	1128.315
191.300	18.488	1478.292	1127.657
192.315	18.126	1476.433	1123.761
193.329	17.880	1474.850	1120.845
194.344	17.824	1474.031	1119.754
195.359	17.977	1472.738	1119.675
196.373	18.045	1472.184	1119.603
197.388	18.213	1470.979	1119.689
198.402	18.229	1470.380	1119.238
199.417	18.365	1469.382	1119.263
200.432	18.473	1468.544	1119.232
201.446	18.620	1468.149	1119.789
202.461	18.718	1466.918	1119.391
203.475	18.780	1465.992	1118.993
204.490	18.859	1464.935	1118.598
205.504	18.702	1463.751	1116.573
206.519	18.482	1462.703	1114.251
207.534	18.492	1460.958	1112.887
208.548	18.407	1460.444	1111.846
209.563	18.401	1459.164	1110.731
210.577	18.505	1457.962	1110.389
211.592	18.478	1457.301	1109.616
212.607	18.506	1456.904	1109.396
213.621	18.600	1456.250	1109.405
214.636	18.771	1455.212	1109.622
215.650	18.727	1454.302	1108.548
216.665	18.646	1453.031	1106.959
217.680	18.638	1452.885	1106.701
218.694	18.779	1452.006	1106.836
219.709	18.954	1450.861	1106.993
220.723	18.984	1449.843	1106.314
221.738	18.856	1449.024	1104.765
222.753	18.796	1447.762	1103.320
223.767	18.851	1446.942	1102.955
224.782	18.726	1445.889	1101.251
225.796	18.796	1445.296	1101.151
226.811	18.999	1444.565	1101.795
227.826	19.041	1443.987	1101.528
228.840	18.914	1442.883	1099.778
229.855	18.755	1441.720	1097.775
230.869	18.751	1440.449	1096.686
231.884	18.810	1439.677	1096.375
232.899	18.859	1438.351	1095.583
233.913	18.635	1437.331	1093.283
234.928	18.547	1436.433	1091.939
235.942	18.566	1434.650	1090.610
236.957	18.575	1433.195	1089.461
237.972	18.589	1432.580	1088.990
238.986	18.528	1431.499	1087.682
240.001	18.572	1430.446	1087.065
241.015	18.499	1429.467	1085.767
242.030	18.598	1428.471	1085.536
243.045	18.705	1427.636	1085.484
244.059	18.930	1426.476	1085.927
245.074	18.803	1425.979	1084.650
246.088	18.781	1425.279	1083.884
247.103	18.869	1424.752	1083.940
248.117	18.906	1423.687	1083.267
249.132	19.049	1422.823	1083.416
250.147	19.122	1422.453	1083.499
251.161	19.352	1421.866	1084.405
252.176	19.553	1421.108	1084.989
253.190	19.473	1420.882	1084.223
254.205	19.584	1419.705	1083.922
255.220	19.638	1419.252	1083.821
256.234	19.620	1418.248	1082.846
257.249	19.671	1417.336	1082.373
258.263	19.604	1416.586	1081.284
259.278	19.535	1416.105	1080.386
260.293	19.551	1414.613	1079.254
261.307	19.640	1413.748	1079.054
262.322	19.702	1413.107	1078.855
263.336	19.742	1412.828	1078.800
264.351	19.758	1411.464	1077.760
265.366	19.840	1410.665	1077.565
266.380	19.769	1409.961	1076.495
267.395	19.772	1408.960	1075.652
268.409	19.782	1408.253	1075.078
269.424	19.724	1406.796	1073.509
270.439	19.565	1406.063	1071.871
271.453	19.601	1404.632	1070.907
272.468	19.595	1404.056	1070.338
273.482	19.569	1403.419	1069.596
274.497	19.404	1402.698	1067.928
275.512	19.404	1401.515	1066.931
276.526	19.589	1400.045	1066.864
277.541	19.522	1399.541	1065.971
278.555	19.499	1398.911	1065.254
279.570	19.626	1397.704	1065.026
280.585	19.649	1396.988	1064.529
281.599	19.768	1396.370	1064.696
282.614	19.920	1395.427	1064.816
283.628	19.840	1393.991	1063.137
284.643	19.696	1393.013	1061.411
285.657	19.614	1391.959	1060.008
286.672	19.666	1391.249	1059.693
287.687	19.751	1390.215	1059.332
288.701	19.715	1389.386	1058.388
289.716	19.701	1388.464	1057.506
290.730	19.719	1387.920	1057.107
291.745	19.731	1386.685	1056.150
292.760	19.705	1385.853	1055.263
293.774	19.890	1384.416	1055.204
294.789	19.849	1383.873	1054.444
295.803	19.783	1383.388	1053.578
296.818	19.986	1382.776	1054.260
297.833	19.837	1381.563	1052.332
298.847	19.745	1380.191	1050.634
299.862	19.750	1379.390	1049.966
300.876	19.816	1378.117	1049.304
301.891	19.851	1377.483	1048.940
302.906	19.907	1376.903	1048.741
303.920	20.027	1376.096	1048.762
304.935	20.102	1375.735	1048.850
305.949	20.216	1374.886	1048.800
306.964	20.220	1374.190	1048.199
307.979	20.293	1373.311	1047.876
308.993	20.209	1372.029	1046.296
310.008	20.125	1371.197	1045.063
311.022	20.110	1370.561	1044.395
312.037	20.273	1369.478	1044.458
313.052	20.262	1368.252	1043.367
314.066	20.186	1367.139	1041.970
315.081	20.184	1365.768	1040.821
316.095	20.017	1364.707	1038.919
317.110	19.887	1363.776	1037.339
318.125	19.921	1362.562	1036.529
319.139	19.911	1361.805	1035.798
320.154	19.964	1360.998	1035.413
321.168	19.968	1359.867	1034.484
322.183	19.914	1358.973	1033.391
323.197	19.901	1358.435	1032.808
324.212	20.019	1357.174	1032.463
325.227	20.054	1356.573	1032.123
326.241	20.085	1355.623	1031.491
327.256	20.138	1355.192	1031.390
328.270	20.096	1354.158	1030.263
329.285	20.013	1353.197	1028.945
330.300	20.046	1352.036	1028.170
331.314	20.017	1351.521	1027.518
332.329	20.043	1350.585	1026.863
333.343	19.987	1349.766	1025.819
334.358	20.025	1349.174	1025.505
335.373	20.056	1348.486	1025.077
336.387	20.254	1347.414	1025.338
337.402	20.300	1346.722	1024.994
338.416	20.312	1346.233	1024.600
339.431	20.372	1345.615	1024.398
340.446	20.369	1345.369	1024.101
341.460	20.482	1344.107	1023.715
342.475	20.582	1342.913	1023.302
343.489	20.771	1341.902	1023.555
344.504	20.765	1341.021	1022.758
345.519	20.805	1340.288	1022.342
346.533	20.824	1339.317	1021.620
347.548	20.709	1339.031	1020.639
348.562	20.834	1338.174	1020.628
349.577	20.861	1337.332	1020.050
350.592	20.769	1336.185	1018.549
351.606	20.643	1334.971	1016.799
352.621	20.492	1333.474	1014.685
353.635	20.363	1333.066	1013.530
354.650	20.433	1331.850	1012.924
355.665	20.522	1330.436	1012.277
356.679	20.454	1329.407	1011.012
357.694	20.565	1328.609	1010.958
358.708	20.525	1327.788	1010.016
359.723	20.652	1326.575	1009.739
360.738	20.706	1325.884	1009.439
361.752	20.603	1324.809	1007.931
362.767	20.603	1323.690	1006.993
363.781	20.668	1323.067	1006.802
364.796	20.706	1322.095	1006.198
365.810	20.726	1321.770	1005.972
366.825	20.920	1321.102	1006.501
367.840	21.008	1320.400	1006.380
368.854	21.042	1319.919	1006.120
369.869	21.120	1319.676	1006.295
370.883	21.196	1318.093	1005.437
371.898	21.104	1317.977	1004.733
372.913	21.017	1317.213	1003.559
373.927	20.933	1316.240	1002.246
374.942	20.994	1315.094	1001.634
375.956	21.110	1314.745	1001.945
376.971	21.129	1313.614	1001.105
377.986	21.137	1312.656	1000.332
379.000	21.136	1312.100	999.815
380.015	21.261	1311.004	999.609
381.029	21.245	1311.061	999.470
382.044	21.331	1310.017	999.079
383.059	21.343	1309.432	998.613
384.073	21.323	1308.628	997.796
385.088	21.287	1308.037	997.055
386.102	21.354	1307.108	996.635
387.117	21.257	1306.778	995.744
388.132	21.362	1305.536	995.311
389.146	21.074	1304.733	992.967
390.161	21.130	1303.986	992.632
391.175	21.077	1302.747	991.300
392.190	21.107	1301.939	990.765
393.205	21.135	1301.334	990.378
394.219	21.208	1300.311	989.923
395.234	21.338	1299.423	989.898
396.248	21.223	1298.348	988.344
397.263	21.237	1296.750	987.117
398.278	21.123	1295.263	985.254
399.292	21.075	1294.651	984.430
400.307	21.046	1292.947	982.886
401.321	20.873	1292.419	981.419
402.336	20.935	1291.057	980.650
403.350	21.004	1289.846	980.028
404.365	21.000	1288.869	979.179
405.380	21.019	1288.314	978.776
406.394	21.160	1287.781	979.075
407.409	21.184	1287.237	978.713
408.423	21.229	1286.503	978.320
409.438	21.434	1285.920	978.936
410.453	21.396	1285.240	978.118
411.467	21.557	1284.716	978.532
412.482	21.600	1284.318	978.386
413.496	21.616	1283.496	977.762
414.511	21.620	1283.099	977.397
415.526	21.685	1282.367	977.113
416.540	21.801	1281.601	977.086
417.555	21.873	1280.745	976.752
418.569	21.913	1279.931	976.267
419.584	21.778	1279.766	975.305
420.599	21.768	1279.174	974.709
421.613	145.405	1432.958	1794.698
422.628	140.056	1455.326	1794.794
