DTS Sentinel unit serial number:	SN413079Multiplexer serial number:	ORYXHardware model number:	OX4-SRSoftware version number:	ORYX F/W v4.00 Oryx Data Collector v3.7.2.0data status	okinstallation	princeton_trtdifferential loss correction	single-endedforward channel	channel 4reverse channel	N/Adate	2019/09/18time	15:01:35forward acquisition time	60.00reverse acquisition time	0.00gamma	496.2192k internal	0.2299k external	0.2299temperature offset calibration	1.0003default loss term (dB/km)	0.3790temperature slope calibration	1.0000multiplexer offset coefficient	1.0000multiplexer slope coefficient	1.0000fibre end	0.00T internal ref (°C)	35.23T ext. ref 1 (°C)	0.74T ext. ref 2 (°C)	30.73length (m)	temperature (°C)	Stokes	anti-Stokes-747.200	63.758	0.282	0.289
-746.185	116.006	0.185	0.231
-745.171	-200.000	-0.024	0.277
-744.156	-200.000	-0.030	0.345
-743.142	-101.832	-0.145	-0.036
-742.127	-14.967	-0.087	-0.057
-741.112	0.884	0.427	-0.312
-740.098	-200.000	-0.003	0.080
-739.083	800.000	-0.053	0.156
-738.069	53.785	-0.123	0.121
-737.054	-79.237	-0.052	-0.018
-736.039	57.863	-0.234	0.233
-735.025	446.862	0.064	-0.143
-734.010	10.855	-0.309	-0.241
-732.996	147.662	-0.242	0.332
-731.981	-116.286	-0.117	0.022
-730.966	18.059	0.112	-0.091
-729.952	180.274	-0.205	0.306
-728.937	-200.000	-0.015	0.102
-727.923	-122.589	-0.432	0.072
-726.908	-27.242	-0.150	-0.089
-725.894	190.177	0.188	-0.287
-724.879	-6.663	-0.263	-0.183
-723.864	0.890	-0.081	0.059
-722.850	-200.000	-0.014	-0.110
-721.835	325.155	-0.028	0.055
-720.821	261.393	0.119	0.211
-719.806	40.837	0.178	-0.163
-718.791	-200.000	0.017	0.189
-717.777	800.000	0.072	0.243
-716.762	-200.000	0.056	0.268
-715.748	-200.000	-0.038	-0.270
-714.733	-98.024	-0.214	-0.056
-713.718	-133.457	0.021	0.003
-712.704	251.581	-0.093	-0.161
-711.689	-112.646	0.213	-0.043
-710.675	-200.000	-0.019	-0.147
-709.660	-158.564	-0.280	-0.016
-708.645	168.532	0.092	-0.133
-707.631	-200.000	0.001	0.077
-706.616	-120.290	-0.038	-0.007
-705.602	-200.000	-0.036	0.194
-704.587	-45.126	0.322	-0.163
-703.572	29.974	-0.047	-0.041
-702.558	-86.289	-0.419	0.131
-701.543	-104.355	0.147	-0.035
-700.529	800.000	-0.069	0.199
-699.514	-70.413	-0.124	-0.048
-698.499	-99.426	0.259	-0.067
-697.485	-200.000	-0.020	-0.113
-696.470	47.387	-0.174	-0.165
-695.456	-200.000	-0.051	0.283
-694.441	-149.935	-0.139	-0.011
-693.426	-12.583	0.260	-0.173
-692.412	-49.484	-0.144	0.070
-691.397	506.448	-0.118	0.280
-690.383	33.292	-0.163	-0.144
-689.368	-200.000	-0.271	0.001
-688.354	-18.413	0.114	-0.072
-687.339	293.410	0.254	0.472
-686.324	467.739	-0.032	0.074
-685.310	321.642	0.102	-0.197
-684.295	34.888	-0.159	-0.141
-683.281	-42.535	0.150	-0.078
-682.266	8.690	-0.092	-0.071
-681.251	80.408	-0.088	0.097
-680.237	-200.000	0.039	0.230
-679.222	-200.000	-0.009	-0.059
-678.208	46.870	-0.085	-0.080
-677.193	-109.620	-0.167	-0.036
-676.178	800.000	-0.050	-0.176
-675.164	-57.544	0.332	0.148
-674.149	-98.333	-0.358	0.094
-673.135	800.000	-0.071	-0.203
-672.120	-65.304	0.270	0.110
-671.105	-172.372	0.087	-0.003
-670.091	-193.714	0.473	-0.004
-669.076	-13.898	-0.075	-0.049
-668.062	-142.500	0.203	0.020
-667.047	320.353	-0.121	0.234
-666.032	-110.912	0.100	-0.021
-665.018	-39.990	-0.116	-0.062
-664.003	186.964	0.062	-0.095
-662.989	62.483	0.303	0.308
-661.974	94.364	0.121	-0.140
-660.959	-200.000	0.000	-0.112
-659.945	487.502	-0.059	0.136
-658.930	-39.907	-0.301	0.160
-657.916	-122.385	0.249	0.041
-656.901	-27.990	-0.081	-0.048
-655.886	-158.807	0.218	0.013
-654.872	800.000	0.137	-0.490
-653.857	43.742	0.135	-0.126
-652.843	-34.643	0.266	0.148
-651.828	-38.646	0.226	-0.122
-650.814	-158.988	0.054	0.003
-649.799	-53.630	-0.204	0.095
-648.784	77.022	0.210	0.227
-647.770	172.907	0.010	-0.014
-646.755	800.000	0.086	-0.286
-645.741	-200.000	0.047	-0.377
-644.726	35.008	-0.186	-0.166
-643.711	-123.799	-0.306	-0.049
-642.697	-200.000	-0.007	-0.141
-641.682	37.662	0.096	0.086
-640.668	-40.782	0.302	0.159
-639.653	120.930	-0.259	0.328
-638.638	-43.453	-0.272	-0.140
-637.624	-200.000	-0.023	-0.157
-636.609	-200.000	-0.009	0.079
-635.595	703.083	-0.065	0.174
-634.580	-88.000	-0.407	0.124
-633.565	800.000	-0.107	-0.300
-632.551	-200.000	-0.043	-0.447
-631.536	-146.903	0.310	0.027
-630.522	224.783	-0.214	-0.351
-629.507	-147.527	-0.203	0.017
-628.492	-159.639	-0.375	0.021
-627.478	150.862	-0.099	0.137
-626.463	137.964	-0.028	0.037
-625.449	-200.000	-0.025	0.240
-624.434	-147.249	0.182	0.016
-623.419	178.666	0.082	0.121
-622.405	-49.492	-0.199	-0.096
-621.390	800.000	0.066	-0.197
-620.376	225.089	0.076	0.125
-619.361	800.000	0.044	0.124
-618.346	128.458	0.165	-0.213
-617.332	-200.000	-0.013	0.106
-616.317	103.077	0.099	0.118
-615.303	-38.113	-0.124	-0.067
-614.288	200.420	0.207	-0.323
-613.273	800.000	0.027	0.102
-612.259	186.363	0.079	-0.120
-611.244	-91.974	-0.132	0.038
-610.230	-168.574	-0.176	-0.007
-609.215	-200.000	0.016	-0.146
-608.201	117.395	-0.201	-0.251
-607.186	97.175	-0.308	-0.358
-606.171	-200.000	-0.044	-0.204
-605.157	-86.518	0.213	0.066
-604.142	-53.914	-0.178	-0.082
-603.128	-200.000	-0.018	-0.086
-602.113	-29.335	-0.081	-0.047
-601.098	-72.888	0.500	-0.186
-600.084	-11.215	-0.051	-0.034
-599.069	181.416	-0.059	-0.089
-598.055	-63.569	-0.215	-0.090
-597.040	-73.545	0.397	-0.147
-596.025	-183.116	-0.090	-0.002
-595.011	352.969	0.173	0.348
-593.996	287.854	-0.198	-0.363
-592.982	105.098	0.254	-0.305
-591.967	-139.091	-0.169	0.019
-590.952	800.000	0.107	0.411
-589.938	1.265	0.101	0.073
-588.923	-144.936	-0.135	-0.013
-587.909	-200.000	-0.001	0.192
-586.894	-43.794	-0.275	0.140
-585.879	-86.124	0.178	-0.056
-584.865	-165.943	-0.139	-0.006
-583.850	177.425	0.049	0.073
-582.836	-7.047	-0.145	0.100
-581.821	155.951	0.122	-0.171
-580.806	-12.509	0.109	-0.072
-579.792	800.000	0.083	0.235
-578.777	800.000	0.043	-0.134
-577.763	-200.000	-0.015	-0.218
-576.748	306.599	0.113	-0.213
-575.733	-11.180	0.061	0.041
-574.719	32.429	0.208	0.182
-573.704	-121.611	-0.136	0.023
-572.690	800.000	0.059	-0.171
-571.675	302.817	0.141	-0.264
-570.661	-200.000	-0.010	0.158
-569.646	193.262	0.155	0.237
-568.631	-89.340	0.408	0.122
-567.617	91.195	0.221	0.252
-566.602	-200.000	0.004	-0.087
-565.588	768.868	0.148	-0.410
-564.573	592.914	0.044	0.111
-563.558	-73.230	-0.066	-0.024
-562.544	336.107	-0.102	-0.200
-561.529	409.310	-0.132	0.283
-560.515	-118.625	-0.126	0.022
-559.500	-200.000	-0.003	0.395
-558.485	255.507	-0.152	0.263
-557.471	197.512	-0.100	0.154
-556.456	-200.000	-0.011	-0.203
-555.442	41.936	-0.058	0.053
-554.427	-142.807	-0.199	0.020
-553.412	211.290	0.133	0.212
-552.398	-48.753	-0.050	-0.024
-551.383	144.809	0.125	0.170
-550.369	-48.310	-0.079	0.039
-549.354	800.000	0.089	-0.340
-548.339	-95.581	-0.145	0.039
-547.325	171.021	-0.102	-0.149
-546.310	180.518	-0.133	-0.198
-545.296	800.000	-0.057	0.189
-544.281	-85.874	0.083	0.026
-543.266	22.132	0.185	0.153
-542.252	-51.309	-0.103	-0.049
-541.237	-200.000	-0.032	0.243
-540.223	87.626	0.105	-0.118
-539.208	16.672	-0.240	0.192
-538.193	-88.252	0.179	0.054
-537.179	-68.170	0.212	-0.084
-536.164	-61.979	0.255	-0.108
-535.150	386.982	0.022	0.047
-534.135	157.741	0.227	0.318
-533.121	-57.162	-0.064	-0.029
-532.106	-200.000	0.012	0.227
-531.091	-200.000	-0.003	0.119
-530.077	-137.738	-0.097	0.011
-529.062	-85.126	-0.344	-0.109
-528.048	722.064	-0.108	-0.292
-527.033	-200.000	-0.000	-0.033
-526.018	34.275	-0.284	-0.250
-525.004	-163.825	0.263	-0.012
-523.989	140.740	-0.056	0.074
-522.975	-200.000	-0.032	0.194
-521.960	-6.680	-0.115	-0.079
-520.945	-178.644	0.339	0.008
-519.931	-200.000	0.038	0.219
-518.916	-159.345	-0.189	0.011
-517.902	-49.379	-0.362	-0.175
-516.887	-113.771	0.200	-0.039
-515.872	248.724	0.011	-0.018
-514.858	800.000	-0.063	0.240
-513.843	800.000	0.021	-0.091
-512.829	333.057	0.179	0.350
-511.814	-111.651	0.177	0.036
-510.799	-75.591	0.308	-0.111
-509.785	-116.764	-0.160	0.030
-508.770	64.210	-0.135	-0.137
-507.756	-73.751	0.147	0.054
-506.741	-74.354	0.409	0.149
-505.726	158.728	-0.214	-0.301
-504.712	-76.869	-0.211	-0.074
-503.697	-112.775	0.278	0.056
-502.683	377.363	-0.132	-0.272
-501.668	-103.543	-0.161	-0.038
-500.653	422.241	-0.089	-0.194
-499.639	89.998	0.198	-0.224
-498.624	-46.337	-0.196	0.097
-497.610	-22.973	0.181	0.110
-496.595	-156.517	-0.227	0.014
-495.581	34.188	0.119	0.104
-494.566	183.857	-0.210	0.314
-493.551	10.581	0.087	-0.067
-492.537	-200.000	-0.008	-0.186
-491.522	71.668	-0.104	-0.110
-490.508	-117.513	-0.368	-0.067
-489.493	-161.461	0.238	0.012
-488.478	-59.161	-0.217	-0.095
-487.464	-48.213	0.056	-0.027
-486.449	103.688	0.160	0.190
-485.435	-99.890	-0.012	-0.003
-484.420	-140.750	-0.188	-0.020
-483.405	-83.103	0.240	-0.078
-482.391	-101.139	0.146	0.036
-481.376	-200.000	0.051	0.348
-480.362	-86.253	0.394	-0.123
-479.347	-200.000	0.010	-0.181
-478.332	112.421	0.128	0.156
-477.318	-118.791	-0.203	-0.036
-476.303	120.265	0.050	0.063
-475.289	399.490	-0.197	0.417
-474.274	417.136	-0.178	-0.384
-473.259	-147.094	-0.606	-0.052
-472.245	-32.801	-0.272	-0.153
-471.230	-200.000	0.033	-0.246
-470.216	-200.000	-0.021	0.243
-469.201	224.225	-0.049	-0.080
-468.186	769.015	0.130	-0.356
-467.172	-200.000	-0.009	-0.182
-466.157	416.598	-0.073	-0.158
-465.143	400.183	0.157	-0.333
-464.128	-147.266	-0.152	0.013
-463.113	-200.000	-0.001	0.276
-462.099	-40.612	-0.054	-0.028
-461.084	205.574	-0.147	0.231
-460.070	-200.000	-0.011	0.200
-459.055	800.000	0.042	-0.129
-458.040	249.149	-0.060	-0.103
-457.026	-14.563	0.202	0.131
-456.011	110.300	-0.021	-0.026
-454.997	-93.412	-0.128	-0.036
-453.982	0.227	0.287	0.206
-452.968	-22.066	0.121	0.074
-451.953	659.644	0.143	-0.371
-450.938	338.592	-0.038	-0.075
-449.924	523.296	-0.097	-0.230
-448.909	-200.000	-0.037	-0.224
-447.895	800.000	0.062	0.214
-446.880	-133.909	-0.274	0.034
-445.865	-200.000	0.000	0.115
-444.851	695.009	0.015	-0.039
-443.836	23.874	-0.069	-0.058
-442.822	-46.881	-0.473	0.233
-441.807	800.000	0.144	0.431
-440.792	-141.509	0.069	0.007
-439.778	408.048	-0.117	-0.249
-438.763	-96.542	-0.378	-0.101
-437.749	-55.294	0.232	-0.105
-436.734	436.187	-0.036	0.080
-435.719	165.923	0.256	0.366
-434.705	-119.635	-0.113	-0.020
-433.690	-29.136	0.195	0.113
-432.676	199.057	-0.076	0.118
-431.661	-200.000	0.003	0.157
-430.646	-80.713	0.186	0.062
-429.632	-41.684	0.264	-0.137
-428.617	9.611	-0.269	-0.205
-427.603	-62.894	-0.488	0.204
-426.588	11.871	0.299	0.232
-425.573	-118.432	0.179	0.032
-424.559	113.557	0.125	-0.153
-423.544	92.006	-0.195	0.222
-422.530	-200.000	0.004	-0.048
-421.515	212.367	0.117	-0.186
-420.500	574.361	0.049	-0.121
-419.486	-200.000	0.036	-0.399
-418.471	559.032	0.156	-0.380
-417.457	-15.983	0.168	0.108
-416.442	99.076	0.176	0.204
-415.428	-4.717	-0.269	0.187
-414.413	-200.000	0.033	0.198
-413.398	-200.000	0.034	-0.399
-412.384	11.348	-0.323	0.249
-411.369	800.000	-0.052	0.161
-410.355	146.676	-0.135	0.182
-409.340	-200.000	-0.011	-0.161
-408.325	800.000	-0.033	0.102
-407.311	-82.764	-0.161	-0.052
-406.296	325.124	0.067	-0.128
-405.282	242.468	0.056	-0.094
-404.267	-200.000	0.009	-0.427
-403.252	-132.602	-0.043	0.005
-402.238	-200.000	-0.010	0.084
-401.223	800.000	0.087	0.285
-400.209	616.914	0.058	-0.146
-399.194	138.022	-0.131	-0.173
-398.179	-112.211	-0.127	0.026
-397.165	66.377	-0.105	-0.107
-396.150	-200.000	0.018	0.110
-395.136	-137.699	0.062	0.007
-394.121	-7.098	0.201	-0.137
-393.106	-29.778	0.186	-0.107
-392.092	-38.975	0.366	0.194
-391.077	-44.615	0.235	0.118
-390.063	800.000	-0.039	0.134
-389.048	800.000	0.042	0.167
-388.033	800.000	0.163	0.477
-387.019	-200.000	-0.016	0.146
-386.004	-60.869	-0.167	-0.071
-384.990	8.965	0.344	-0.261
-383.975	421.271	-0.062	0.133
-382.960	-16.986	0.177	-0.113
-381.946	361.072	-0.025	-0.051
-380.931	-30.342	0.181	0.103
-379.917	215.365	0.157	0.251
-378.902	-69.932	-0.092	-0.035
-377.888	147.073	0.088	-0.119
-376.873	-200.000	-0.006	-0.219
-375.858	28.186	-0.150	-0.128
-374.844	-68.505	-0.408	0.159
-373.829	-77.095	-0.305	0.107
-372.815	354.811	0.098	-0.196
-371.800	-159.302	0.143	0.008
-370.785	4.250	-0.156	-0.115
-369.771	-106.994	-0.403	-0.090
-368.756	-140.109	-0.151	-0.016
-367.742	35.017	0.060	0.053
-366.727	7.575	-0.071	-0.053
-365.712	265.388	-0.164	0.287
-364.698	-139.939	0.221	0.023
-363.683	800.000	-0.099	-0.367
-362.669	175.321	0.009	0.013
-361.654	-38.246	0.115	-0.061
-360.639	61.226	0.220	0.220
-359.625	-89.810	0.203	0.060
-358.610	-200.000	-0.001	0.253
-357.596	-59.992	0.298	-0.128
-356.581	138.649	-0.079	-0.104
-355.566	-157.638	0.251	-0.015
-354.552	-53.466	-0.295	0.136
-353.537	-21.708	0.220	0.135
-352.523	-200.000	-0.020	0.105
-351.508	-200.000	0.017	0.170
-350.493	-114.922	0.211	0.040
-349.479	800.000	0.039	-0.152
-348.464	-200.000	0.045	0.339
-347.450	800.000	0.114	-0.322
-346.435	-200.000	-0.031	-0.140
-345.420	748.522	-0.082	0.222
-344.406	27.360	0.144	0.121
-343.391	-157.183	-0.274	-0.017
-342.377	120.244	0.022	-0.028
-341.362	-72.390	0.062	-0.023
-340.348	-200.000	-0.039	-0.523
-339.333	-200.000	0.006	0.084
-338.318	-200.000	0.065	-0.355
-337.304	681.744	-0.080	-0.211
-336.289	263.965	0.102	0.178
-335.275	-86.407	-0.170	0.053
-334.260	-84.837	-0.180	0.057
-333.245	636.335	0.123	0.313
-332.231	-111.376	-0.314	0.064
-331.216	-97.496	0.086	0.022
-330.202	51.407	-0.188	0.179
-329.187	5.625	-0.225	0.167
-328.172	800.000	-0.058	-0.180
-327.158	-179.833	0.038	-0.001
-326.143	-54.292	0.209	0.095
-325.129	800.000	-0.059	0.209
-324.114	294.402	-0.126	0.232
-323.099	800.000	0.071	-0.217
-322.085	176.387	0.041	0.060
-321.070	-43.455	-0.260	0.132
-320.056	78.496	0.055	-0.059
-319.041	-61.647	-0.202	-0.085
-318.026	538.542	0.121	0.290
-317.012	800.000	-0.129	-0.379
-315.997	67.051	0.097	-0.100
-314.983	-158.037	0.132	0.008
-313.968	-1.418	-0.036	0.026
-312.953	-98.513	-0.099	0.025
-311.939	-68.629	0.154	0.060
-310.924	-92.649	0.159	-0.045
-309.910	-200.000	-0.024	-0.383
-308.895	135.376	0.077	-0.100
-307.880	-200.000	0.029	-0.187
-306.866	25.706	-0.031	0.026
-305.851	-101.416	-0.097	0.024
-304.837	800.000	0.122	0.379
-303.822	800.000	-0.039	0.134
-302.807	-92.974	0.226	-0.063
-301.793	163.685	-0.090	-0.127
-300.778	109.270	0.219	-0.263
-299.764	-200.000	-0.017	0.110
-298.749	105.124	-0.240	0.284
-297.735	-48.166	-0.097	0.047
-296.720	143.111	-0.209	-0.279
-295.705	5.751	0.157	0.117
-294.691	133.233	-0.189	0.245
-293.676	421.503	-0.103	-0.221
-292.662	-32.715	0.191	0.106
-291.647	-33.028	0.270	-0.150
-290.632	-31.813	-0.107	0.060
-289.618	-127.791	-0.242	-0.035
-288.603	-137.596	0.031	-0.003
-287.589	-53.944	-0.460	-0.210
-286.574	635.644	0.147	-0.375
-285.559	65.806	0.139	-0.141
-284.545	114.413	-0.055	-0.067
-283.530	800.000	-0.063	-0.203
-282.516	-200.000	0.021	0.110
-281.501	-200.000	0.068	0.420
-280.486	-55.067	0.136	0.061
-279.472	4.172	-0.221	0.162
-278.457	487.088	-0.076	-0.174
-277.443	-200.000	0.033	0.273
-276.428	5.243	0.058	0.043
-275.413	-179.731	0.083	0.002
-274.399	800.000	-0.081	0.306
-273.384	-131.440	-0.126	0.017
-272.370	-50.476	0.028	-0.013
-271.355	-200.000	-0.037	0.481
-270.340	-12.851	-0.150	0.098
-269.326	-200.000	0.029	0.213
-268.311	57.183	-0.168	-0.164
-267.297	197.942	0.356	0.545
-266.282	44.050	-0.177	0.163
-265.267	136.210	-0.132	-0.172
-264.253	67.648	-0.206	0.211
-263.238	649.091	0.087	0.222
-262.224	800.000	0.065	0.217
-261.209	545.948	0.155	-0.371
-260.195	-9.634	0.104	-0.070
-259.180	85.315	0.183	0.201
-258.165	-53.606	0.182	0.083
-257.151	608.878	-0.112	0.281
-256.136	215.299	-0.150	-0.239
-255.122	4.845	0.171	-0.126
-254.107	-200.000	-0.061	-0.347
-253.092	-95.960	-0.169	0.045
-252.078	-200.000	0.008	0.355
-251.063	-129.504	0.073	-0.010
-250.049	0.332	0.400	0.286
-249.034	67.319	-0.255	-0.260
-248.019	8.494	0.202	-0.152
-247.005	-4.039	0.113	0.079
-245.990	25.318	0.163	-0.136
-244.976	-52.844	-0.350	-0.161
-243.961	-94.791	-0.270	-0.073
-242.946	-81.721	0.047	0.016
-241.932	800.000	-0.036	0.148
-240.917	50.601	-0.170	-0.160
-239.903	-134.041	0.306	-0.038
-238.888	800.000	0.054	-0.203
-237.873	-200.000	0.010	0.246
-236.859	619.253	-0.052	-0.131
-235.844	52.135	-0.187	-0.179
-234.830	165.021	0.095	0.134
-233.815	-200.000	-0.000	-0.002
-232.800	-47.689	-0.255	-0.124
-231.786	126.148	0.175	-0.221
-230.771	6.427	-0.194	-0.144
-229.757	-200.000	-0.048	-0.278
-228.742	-25.579	0.090	0.053
-227.727	570.656	-0.088	-0.215
-226.713	-177.935	0.236	0.006
-225.698	-27.225	0.262	0.153
-224.684	-92.550	0.139	-0.039
-223.669	800.000	-0.024	-0.098
-222.655	800.000	-0.107	-0.352
-221.640	800.000	-0.052	-0.167
-220.625	-40.765	0.121	0.063
-219.611	154.281	0.099	0.136
-218.596	-89.479	-0.155	-0.046
-217.582	-44.102	-0.257	0.129
-216.567	-36.050	-0.028	-0.015
-215.552	-123.567	0.244	-0.039
-214.538	-43.465	-0.326	0.165
-213.523	-200.000	-0.029	-0.288
-212.509	255.765	-0.065	0.112
-211.494	95.240	-0.102	-0.116
-210.479	-135.769	0.305	0.036
-209.465	19.390	0.118	-0.095
-208.450	-45.055	0.190	-0.095
-207.436	-60.211	0.353	0.150
-206.421	-132.699	0.359	-0.046
-205.406	800.000	-0.105	-0.342
-204.392	-59.292	-0.211	0.091
-203.377	-200.000	0.037	0.511
-202.363	96.018	-0.152	-0.174
-201.348	800.000	0.033	-0.101
-200.333	3.675	-0.265	-0.193
-199.319	108.134	-0.124	0.148
-198.304	12.076	0.176	-0.135
-197.290	-102.505	-0.019	0.005
-196.275	89.203	0.160	-0.178
-195.260	-29.318	0.254	-0.145
-194.246	123.866	0.096	-0.121
-193.231	-96.084	0.029	0.008
-192.217	350.920	0.172	0.339
-191.202	48.093	0.166	0.155
-190.187	92.014	-0.074	-0.083
-189.173	72.654	-0.103	0.107
-188.158	-200.000	0.007	-0.078
-187.144	19.034	0.164	0.132
-186.129	644.119	-0.096	-0.245
-185.114	-200.000	-0.019	0.307
-184.100	-130.581	0.357	0.048
-183.085	-77.144	-0.231	0.080
-182.071	63.642	-0.276	0.276
-181.056	-114.420	-0.378	-0.072
-180.042	588.065	-0.133	0.327
-179.027	-116.162	0.060	0.011
-178.012	-58.609	0.120	0.052
-176.998	-200.000	0.001	-0.255
-175.983	-200.000	0.524	0.001
-174.969	494.964	0.100	-0.230
-173.954	116.109	-0.103	-0.126
-172.939	800.000	0.087	-0.325
-171.925	-63.181	0.141	-0.058
-170.910	-60.537	-0.162	0.069
-169.896	88.624	0.178	-0.197
-168.881	-200.000	-0.014	0.106
-167.866	45.081	0.052	-0.048
-166.852	152.320	0.088	-0.119
-165.837	800.000	0.093	0.256
-164.823	470.580	0.085	0.191
-163.808	49.409	0.314	0.294
-162.793	-93.043	-0.128	-0.036
-161.779	150.757	0.095	0.128
-160.764	402.913	0.041	0.087
-159.750	405.453	-0.069	0.146
-158.735	226.230	0.133	0.215
-157.720	-81.702	-0.222	0.073
-156.706	-200.000	-0.011	0.253
-155.691	-34.207	0.086	0.047
-154.677	19.970	0.096	-0.077
-153.662	-35.104	-0.447	0.243
-152.647	800.000	0.075	-0.222
-151.633	100.475	0.042	0.049
-150.618	197.313	-0.078	0.119
-149.604	-131.182	0.053	-0.007
-148.589	-7.412	-0.198	0.134
-147.574	666.186	-0.032	-0.082
-146.560	120.430	0.300	-0.372
-145.545	-24.273	-0.069	0.041
-144.531	-64.763	0.221	-0.089
-143.516	-87.423	0.233	-0.070
-142.502	115.334	0.346	0.422
-141.487	-185.232	0.124	-0.002
-140.472	800.000	-0.010	-0.034
-139.458	-144.235	0.088	0.008
-138.443	-122.702	0.296	0.048
-137.429	184.450	-0.142	0.209
-136.414	-4.046	-0.375	-0.259
-135.399	-157.988	0.336	-0.020
-134.385	-33.774	-0.222	-0.122
-133.370	-85.330	-0.379	-0.118
-132.356	39.232	0.346	0.309
-131.341	-140.791	-0.300	0.031
-130.326	-182.390	-0.140	0.003
-129.312	-130.998	0.204	0.027
-128.297	-73.091	0.176	0.064
-127.283	-19.245	0.311	-0.192
-126.268	800.000	-0.097	-0.323
-125.253	800.000	-0.045	-0.153
-124.239	-87.735	0.132	-0.040
-123.224	-200.000	0.003	0.068
-122.210	-188.026	0.215	-0.003
-121.195	161.717	-0.270	0.376
-120.180	202.384	0.174	-0.268
-119.166	672.075	0.060	-0.154
-118.151	-200.000	0.035	0.242
-117.137	-23.942	0.169	-0.101
-116.122	-200.000	-0.031	-0.179
-115.107	41.116	-0.273	0.245
-114.093	800.000	0.114	-0.393
-113.078	122.477	-0.024	-0.030
-112.064	-200.000	-0.014	-0.071
-111.049	-30.120	-0.059	-0.034
-110.034	16.946	0.098	0.077
-109.020	-16.189	0.042	-0.027
-108.005	7.679	-0.261	0.194
-106.991	-121.313	0.224	-0.037
-105.976	-200.000	-0.010	0.101
-104.962	-200.000	-0.033	0.213
-103.947	56.829	-0.135	0.131
-102.932	-118.916	0.192	0.034
-101.918	800.000	0.020	0.059
-100.903	-200.000	-0.016	0.380
-99.889	298.582	0.063	0.115
-98.874	-156.724	0.316	-0.019
-97.859	-75.692	0.164	-0.058
-96.845	97.085	-0.249	0.285
-95.830	-94.962	0.381	-0.103
-94.816	45.222	-0.193	-0.177
-93.801	246.181	0.141	-0.236
-92.786	-96.197	0.308	-0.081
-91.772	-113.658	0.083	0.016
-90.757	-170.300	0.289	0.010
-89.743	-150.892	-0.311	-0.023
-88.728	-26.386	-0.059	-0.034
-87.713	289.094	-0.062	-0.112
-86.699	-200.000	-0.056	-0.275
-85.684	-152.750	0.366	-0.026
-84.670	-101.787	-0.193	-0.047
-83.655	628.203	0.043	-0.109
-82.640	81.773	-0.117	0.126
-81.626	-26.229	0.066	0.038
-80.611	16.864	-0.311	-0.245
-79.597	-34.781	0.359	0.195
-78.582	-155.037	-0.187	0.012
-77.567	64.208	-0.030	-0.030
-76.553	-140.308	0.121	-0.013
-75.538	800.000	0.047	0.133
-74.524	-52.931	-0.189	-0.086
-73.509	382.899	-0.069	-0.142
-72.494	213.649	-0.217	-0.341
-71.480	-124.175	0.359	0.056
-70.465	-43.742	0.217	0.108
-69.451	800.000	-0.089	0.309
-68.436	-67.779	-0.045	-0.017
-67.422	-170.164	0.381	0.013
-66.407	239.016	0.193	0.318
-65.392	684.792	-0.097	-0.251
-64.378	-73.914	-0.085	-0.031
-63.363	-54.192	0.357	0.161
-62.349	-200.000	0.047	0.311
-61.334	38.757	-1.067	-0.947
-60.319	-200.000	0.094	0.585
-59.305	358.209	-0.336	-0.666
-58.290	10.739	0.658	0.498
-57.276	800.000	0.516	1.425
-56.261	-200.000	94.553	551.692
-55.246	513.431	1407.054	3258.632
-54.232	143.715	2636.217	3488.980
-53.217	103.116	2377.644	2767.364
-52.203	41.779	2121.261	1909.615
-51.188	36.832	2032.437	1784.152
-50.173	35.321	2013.428	1753.590
-49.159	48.458	2063.787	1919.444
-48.144	51.151	2083.240	1962.448
-47.130	37.632	2041.336	1799.079
-46.115	35.231	2029.728	1766.677
-45.100	35.203	2026.499	1763.532
-44.086	35.146	2024.186	1760.926
-43.071	35.132	2021.928	1758.766
-42.057	35.020	2019.545	1755.592
-41.042	35.093	2017.022	1754.002
-40.027	35.099	2015.169	1752.377
-39.013	35.115	2013.409	1750.919
-37.998	35.128	2011.328	1749.160
-36.984	35.146	2009.621	1747.769
-35.969	35.113	2007.854	1745.869
-34.954	35.272	2005.654	1745.331
-33.940	35.219	2004.320	1743.614
-32.925	35.247	2002.414	1742.147
-31.911	35.316	2000.421	1740.970
-30.896	35.262	1999.246	1739.388
-29.881	35.279	1997.706	1738.132
-28.867	35.309	1995.356	1736.288
-27.852	35.252	1994.298	1734.784
-26.838	35.259	1992.193	1732.946
-25.823	35.268	1990.113	1731.153
-24.809	35.287	1988.038	1729.450
-23.794	35.238	1986.854	1727.908
-22.779	35.221	1984.794	1725.898
-21.765	35.231	1983.619	1724.892
-20.750	35.201	1982.266	1723.380
-19.736	35.383	1979.597	1722.630
-18.721	35.231	1978.898	1720.581
-17.706	35.293	1976.559	1719.044
-16.692	35.228	1975.217	1717.225
-15.677	35.252	1973.446	1715.832
-14.663	35.195	1972.108	1714.086
-13.648	35.262	1971.284	1713.904
-12.633	35.240	1970.056	1712.574
-11.619	35.266	1968.267	1711.178
-10.604	35.186	1967.506	1709.731
-9.590	35.299	1965.490	1708.922
-8.575	35.234	1964.565	1707.472
-7.560	35.205	1963.236	1705.987
-6.546	35.276	1961.641	1705.167
-5.531	35.308	1960.106	1704.048
-4.517	35.261	1959.268	1702.838
-3.502	35.342	1957.831	1702.238
-2.487	35.275	1956.614	1700.520
-1.473	35.353	1955.955	1700.571
-0.458	35.294	1951.726	1696.308
0.556	34.033	1930.909	1669.147
1.571	29.489	1910.301	1611.621
2.586	24.791	1931.122	1587.464
3.600	23.008	1966.407	1600.198
4.615	21.952	1960.801	1585.955
5.629	16.898	1857.849	1459.165
6.644	7.214	1732.105	1282.236
7.659	1.370	1691.175	1205.535
8.673	0.880	1687.481	1198.914
9.688	0.778	1686.355	1197.202
10.702	0.734	1684.750	1195.607
11.717	0.548	1681.780	1191.925
12.731	1.091	1681.504	1195.912
13.746	7.845	1695.825	1259.595
14.761	15.756	1711.980	1334.479
15.775	17.928	1713.516	1352.781
16.790	17.285	1711.202	1345.750
17.804	16.374	1708.048	1335.947
18.819	15.397	1704.388	1325.254
19.834	14.777	1702.303	1318.624
20.848	14.458	1700.327	1314.460
21.863	14.243	1698.375	1311.145
22.877	13.952	1697.068	1307.724
23.892	13.733	1695.658	1304.801
24.907	13.609	1694.348	1302.701
25.921	13.553	1693.825	1301.749
26.936	13.569	1692.978	1301.105
27.950	13.643	1691.726	1300.606
28.965	13.686	1691.517	1300.667
29.980	13.659	1690.550	1299.601
30.994	13.773	1689.450	1299.535
32.009	13.802	1688.617	1299.004
33.023	13.718	1688.055	1297.796
34.038	13.804	1686.941	1297.498
35.053	13.756	1686.307	1296.521
36.067	13.856	1684.451	1295.765
37.082	13.748	1683.338	1293.946
38.096	13.780	1682.411	1293.371
39.111	13.650	1682.517	1292.324
40.126	13.815	1681.138	1292.434
41.140	13.775	1680.093	1291.207
42.155	13.622	1679.028	1289.079
43.169	13.549	1678.017	1287.622
44.184	13.577	1676.098	1286.253
45.199	13.558	1675.086	1285.221
46.213	13.580	1674.007	1284.450
47.228	13.555	1672.981	1283.353
48.242	13.588	1671.705	1282.513
49.257	13.719	1669.966	1282.085
50.271	13.672	1668.776	1280.689
51.286	13.614	1667.737	1279.331
52.301	13.599	1666.418	1278.095
53.315	13.685	1664.682	1277.311
54.330	13.763	1663.003	1276.506
55.344	13.632	1662.153	1274.734
56.359	13.603	1660.549	1273.174
57.374	13.608	1659.506	1272.300
58.388	13.587	1658.439	1271.205
59.403	13.514	1657.042	1269.462
60.417	13.464	1655.539	1267.818
61.432	13.531	1654.210	1267.198
62.447	13.494	1653.379	1266.170
63.461	13.476	1652.146	1264.972
64.476	13.453	1651.026	1263.829
65.490	13.517	1649.658	1263.158
66.505	13.385	1648.884	1261.443
67.520	13.558	1647.329	1261.461
68.534	13.547	1646.320	1260.496
69.549	13.611	1645.095	1259.928
70.563	13.527	1644.206	1258.500
71.578	13.561	1643.374	1258.011
72.593	13.506	1641.760	1256.247
73.607	13.537	1640.308	1255.258
74.622	13.517	1639.183	1254.136
75.636	13.433	1638.767	1253.071
76.651	13.422	1638.165	1252.412
77.666	13.488	1636.850	1251.796
78.680	13.385	1635.987	1250.248
79.695	13.505	1634.606	1249.987
80.709	13.513	1633.696	1249.246
81.724	13.552	1632.392	1248.429
82.739	13.484	1631.752	1247.321
83.753	13.533	1630.983	1246.989
84.768	13.579	1629.798	1246.315
85.782	13.675	1628.931	1246.270
86.797	13.696	1628.335	1245.857
87.812	13.663	1627.069	1244.531
88.826	13.657	1625.549	1243.212
89.841	13.578	1624.397	1241.634
90.855	13.686	1623.322	1241.508
91.870	13.561	1623.111	1240.303
92.884	13.678	1621.597	1239.910
93.899	13.745	1620.474	1239.440
94.914	13.701	1619.148	1237.988
95.928	13.801	1617.514	1237.374
96.943	13.774	1616.194	1236.055
97.957	13.827	1614.927	1235.371
98.972	13.678	1613.353	1232.955
99.987	13.718	1612.088	1232.176
101.001	13.682	1610.168	1230.325
102.016	13.734	1608.801	1229.562
103.030	13.653	1607.385	1227.768
104.045	13.704	1606.288	1227.203
105.060	13.713	1604.640	1225.902
106.074	13.727	1603.229	1224.817
107.089	13.560	1601.593	1222.224
108.103	13.538	1600.431	1221.070
109.118	13.552	1598.937	1219.926
110.133	13.496	1597.874	1218.590
111.147	13.589	1595.856	1217.633
112.162	13.616	1594.314	1216.543
113.176	13.605	1592.980	1215.338
114.191	13.569	1591.803	1214.070
115.206	13.646	1590.589	1213.599
116.220	13.594	1589.486	1212.269
117.235	13.595	1587.769	1210.863
118.249	13.643	1586.929	1210.464
119.264	13.609	1585.248	1208.822
120.279	13.576	1583.614	1207.235
121.293	13.638	1582.073	1206.401
122.308	13.665	1580.404	1205.219
123.322	13.637	1578.824	1203.703
124.337	13.684	1576.898	1202.472
125.352	13.606	1576.470	1201.475
126.366	13.595	1574.970	1200.142
127.381	13.549	1573.898	1198.886
128.395	13.585	1572.926	1198.304
129.410	13.573	1571.393	1196.939
130.424	13.637	1570.052	1196.273
131.439	13.698	1568.778	1195.637
132.454	13.662	1567.202	1194.074
133.468	13.731	1566.128	1193.644
134.483	13.669	1565.022	1192.249
135.497	13.771	1563.387	1191.630
136.512	13.669	1562.367	1190.016
137.527	13.645	1560.988	1188.689
138.541	13.678	1559.480	1187.674
139.556	13.722	1557.677	1186.511
140.570	13.733	1557.105	1186.050
141.585	13.729	1555.628	1184.787
142.600	13.790	1554.295	1184.104
143.614	13.902	1552.680	1183.566
144.629	13.846	1551.623	1182.255
145.643	13.856	1550.214	1181.150
146.658	13.903	1548.823	1180.320
147.673	13.860	1547.072	1178.577
148.687	13.858	1545.567	1177.311
149.702	13.832	1544.409	1176.141
150.716	13.778	1543.211	1174.738
151.731	13.827	1541.350	1173.569
152.746	13.857	1539.490	1172.262
153.760	13.862	1538.330	1171.311
154.775	13.847	1537.172	1170.219
155.789	13.869	1536.153	1169.492
156.804	13.913	1535.051	1168.858
157.819	13.936	1533.257	1167.552
158.833	13.964	1532.189	1166.829
159.848	14.008	1530.773	1165.958
160.862	14.018	1529.511	1164.965
161.877	13.982	1528.561	1163.886
162.892	13.969	1527.031	1162.529
163.906	14.005	1525.482	1161.499
164.921	13.871	1524.383	1159.622
165.935	13.923	1523.603	1159.288
166.950	13.985	1522.248	1158.584
167.964	13.869	1521.169	1156.856
168.979	13.949	1519.909	1156.354
169.994	13.995	1518.708	1155.656
171.008	13.929	1518.107	1154.638
172.023	13.954	1516.700	1153.638
173.037	13.999	1515.438	1152.887
174.052	14.002	1514.403	1152.017
175.067	13.976	1513.792	1151.274
176.081	13.968	1512.205	1149.908
177.096	14.142	1510.436	1149.664
178.110	14.003	1509.658	1148.012
179.125	14.038	1508.331	1147.142
180.140	13.952	1507.919	1146.132
181.154	14.030	1506.565	1145.543
182.169	14.002	1505.229	1144.227
183.183	14.170	1503.952	1144.316
184.198	14.180	1502.760	1143.375
185.213	14.178	1501.786	1142.517
186.227	14.091	1500.999	1141.224
187.242	14.224	1499.960	1141.246
188.256	14.256	1498.705	1140.404
189.271	14.206	1497.929	1139.376
190.286	14.330	1496.459	1139.001
191.300	14.225	1495.530	1137.474
192.315	14.145	1494.692	1136.194
193.329	14.129	1493.123	1134.786
194.344	14.173	1491.786	1133.971
195.359	14.178	1490.966	1133.280
196.373	14.158	1490.047	1132.345
197.388	14.261	1488.774	1131.978
198.402	14.339	1487.746	1131.627
199.417	14.388	1486.385	1130.824
200.432	14.335	1485.572	1129.748
201.446	14.379	1484.868	1129.410
202.461	14.460	1483.663	1128.945
203.475	14.487	1482.293	1127.980
204.490	14.572	1481.348	1127.736
205.504	14.491	1480.484	1126.433
206.519	14.472	1479.103	1125.157
207.534	14.432	1477.718	1123.735
208.548	14.445	1476.709	1122.952
209.563	14.445	1475.928	1122.261
210.577	14.516	1474.097	1121.249
211.592	14.547	1473.270	1120.726
212.607	14.486	1473.307	1120.247
213.621	14.551	1472.416	1119.907
214.636	14.655	1471.207	1119.586
215.650	14.539	1470.456	1118.136
216.665	14.573	1469.536	1117.568
217.680	14.667	1468.435	1117.260
218.694	14.581	1468.297	1116.482
219.709	14.711	1466.781	1116.099
220.723	14.692	1465.378	1114.803
221.738	14.652	1464.888	1114.064
222.753	14.713	1464.093	1113.771
223.767	14.644	1463.288	1112.601
224.782	14.589	1462.249	1111.345
225.796	14.760	1461.135	1111.533
226.811	14.858	1459.706	1111.004
227.826	14.797	1459.304	1110.191
228.840	14.819	1458.775	1109.836
229.855	14.789	1457.374	1108.474
230.869	14.873	1456.498	1108.264
231.884	14.682	1455.672	1106.277
232.899	14.709	1454.241	1105.272
233.913	14.795	1453.203	1104.953
234.928	14.702	1452.507	1103.711
235.942	14.723	1451.080	1102.667
236.957	14.679	1449.784	1101.295
237.972	14.732	1448.243	1100.374
238.986	14.700	1447.293	1099.342
240.001	14.753	1446.796	1099.222
241.015	14.802	1445.367	1098.358
242.030	14.785	1444.529	1097.512
243.045	14.869	1443.392	1097.102
244.059	14.952	1442.452	1096.836
245.074	14.923	1441.376	1095.733
246.088	14.955	1440.534	1095.201
247.103	14.962	1440.085	1094.808
248.117	14.938	1439.485	1094.100
249.132	15.065	1438.158	1093.826
250.147	15.041	1437.943	1093.410
251.161	15.165	1437.009	1093.407
252.176	15.193	1435.993	1092.725
253.190	15.238	1435.127	1092.261
254.205	15.117	1434.687	1091.040
255.220	15.120	1434.176	1090.577
256.234	15.283	1432.712	1090.423
257.249	15.252	1431.813	1089.444
258.263	15.286	1431.301	1089.178
259.278	15.370	1429.518	1088.270
260.293	15.286	1429.106	1087.315
261.307	15.296	1428.564	1086.871
262.322	15.295	1427.833	1086.213
263.336	15.320	1427.094	1085.717
264.351	15.477	1425.458	1085.393
265.366	15.443	1424.709	1084.502
266.380	15.464	1423.950	1083.963
267.395	15.543	1422.479	1083.261
268.409	15.523	1421.732	1082.466
269.424	15.517	1420.886	1081.690
270.439	15.531	1419.820	1080.870
271.453	15.443	1418.957	1079.550
272.468	15.551	1417.874	1079.329
273.482	15.451	1417.245	1078.108
274.497	15.418	1416.652	1077.351
275.512	15.462	1415.623	1076.757
276.526	15.532	1414.642	1076.361
277.541	15.586	1413.087	1075.429
278.555	15.503	1412.529	1074.378
279.570	15.573	1411.812	1074.183
280.585	15.528	1411.196	1073.336
281.599	15.597	1410.654	1073.268
282.614	15.652	1409.440	1072.601
283.628	15.743	1407.665	1071.738
284.643	15.690	1406.949	1070.761
285.657	15.632	1406.204	1069.730
286.672	15.662	1405.097	1068.981
287.687	15.737	1403.769	1068.351
288.701	15.657	1402.961	1067.133
289.716	15.720	1402.258	1066.905
290.730	15.743	1401.308	1066.232
291.745	15.700	1399.909	1064.806
292.760	15.720	1399.540	1064.558
293.774	15.741	1398.269	1063.627
294.789	15.752	1397.108	1062.722
295.803	15.832	1396.435	1062.617
296.818	15.790	1395.402	1061.476
297.833	15.919	1394.579	1061.564
298.847	15.805	1393.964	1060.286
299.862	15.767	1392.761	1059.036
300.876	15.698	1391.998	1057.933
301.891	15.848	1391.085	1058.083
302.906	15.818	1390.157	1057.100
303.920	15.991	1389.269	1057.415
304.935	16.016	1388.628	1056.992
305.949	15.921	1387.807	1055.678
306.964	15.947	1387.033	1055.155
307.979	16.102	1385.971	1055.225
308.993	16.088	1384.529	1053.950
310.008	16.018	1384.134	1053.115
311.022	16.139	1382.908	1052.848
312.037	16.189	1381.413	1051.925
313.052	16.136	1380.991	1051.181
314.066	16.186	1380.024	1050.664
315.081	16.050	1378.795	1048.790
316.095	16.104	1377.900	1048.350
317.110	16.043	1376.945	1047.151
318.125	16.165	1375.867	1046.998
319.139	16.083	1375.200	1045.890
320.154	16.093	1373.856	1044.832
321.168	16.080	1372.998	1044.010
322.183	16.163	1372.012	1043.684
323.197	16.027	1371.640	1042.465
324.212	16.056	1370.350	1041.571
325.227	16.255	1369.634	1042.162
326.241	16.242	1368.376	1041.034
327.256	16.263	1367.728	1040.582
328.270	16.128	1367.185	1039.244
329.285	16.206	1366.012	1038.738
330.300	16.335	1364.814	1038.531
331.314	16.306	1364.110	1037.721
332.329	16.193	1363.180	1036.232
333.343	16.132	1362.819	1035.492
334.358	16.225	1362.009	1035.351
335.373	16.334	1360.788	1035.002
336.387	16.222	1359.672	1033.376
337.402	16.367	1358.880	1033.567
338.416	16.337	1358.358	1032.895
339.431	16.440	1357.807	1033.015
340.446	16.457	1357.184	1032.557
341.460	16.421	1355.892	1031.260
342.475	16.436	1355.177	1030.717
343.489	16.540	1354.080	1030.422
344.504	16.588	1353.276	1030.012
345.519	16.535	1352.243	1028.815
346.533	16.632	1351.063	1028.414
347.548	16.636	1350.431	1027.867
348.562	16.708	1349.353	1027.392
349.577	16.582	1349.395	1026.566
350.592	16.607	1348.737	1026.127
351.606	16.614	1347.454	1025.102
352.621	16.614	1346.121	1023.997
353.635	16.642	1344.836	1023.104
354.650	16.667	1344.256	1022.723
355.665	16.676	1343.413	1022.045
356.679	16.612	1342.212	1020.653
357.694	16.653	1341.114	1019.973
358.708	16.664	1340.132	1019.205
359.723	16.762	1338.816	1018.702
360.738	16.740	1338.109	1017.940
361.752	16.751	1337.355	1017.345
362.767	16.713	1335.982	1015.984
363.781	16.818	1335.225	1015.943
364.796	16.824	1334.293	1015.184
365.810	16.748	1333.610	1014.116
366.825	16.834	1332.864	1013.976
367.840	16.811	1332.174	1013.225
368.854	16.860	1331.212	1012.694
369.869	16.919	1330.865	1012.694
370.883	16.954	1330.401	1012.460
371.898	16.971	1329.459	1011.753
372.913	16.983	1328.691	1011.152
373.927	16.935	1327.519	1009.886
374.942	16.901	1326.913	1009.135
375.956	16.838	1326.423	1008.294
376.971	16.999	1325.017	1008.097
377.986	16.970	1324.462	1007.411
379.000	17.070	1323.188	1006.946
380.015	17.082	1322.504	1006.410
381.029	17.073	1322.016	1005.894
382.044	17.069	1321.570	1005.440
383.059	17.129	1320.165	1004.641
384.073	17.297	1319.498	1005.034
385.088	17.232	1319.126	1004.279
386.102	17.218	1318.436	1003.581
387.117	17.192	1317.987	1002.998
388.132	17.223	1316.981	1002.325
389.146	17.295	1315.981	1001.902
390.161	17.162	1315.098	1000.357
391.175	17.215	1314.627	1000.223
392.190	17.215	1313.704	999.434
393.205	17.259	1312.650	998.800
394.219	17.362	1311.433	998.388
395.234	17.393	1309.963	997.365
396.248	17.224	1309.635	996.034
397.263	17.248	1308.174	994.975
398.278	17.269	1306.813	993.977
399.292	17.298	1305.548	993.098
400.307	17.350	1304.163	992.256
401.321	17.283	1303.323	991.143
402.336	17.336	1302.436	990.686
403.350	17.272	1301.322	989.377
404.365	17.428	1300.352	989.459
405.380	17.219	1300.081	987.952
406.394	17.360	1299.115	987.951
407.409	17.368	1298.195	987.212
408.423	17.447	1297.639	987.156
409.438	17.464	1296.997	986.679
410.453	17.579	1296.166	986.627
411.467	17.500	1295.364	985.474
412.482	17.600	1294.272	985.131
413.496	17.597	1294.115	984.909
414.511	17.669	1293.363	984.665
415.526	17.563	1292.776	983.520
416.540	17.804	1291.709	984.009
417.555	17.686	1291.177	982.839
418.569	17.675	1290.419	982.110
419.584	17.686	1289.551	981.427
420.599	17.773	1289.091	981.490
421.613	90.474	1345.757	1440.904
422.628	88.905	1353.969	1441.022
