DTS Sentinel unit serial number:	SN413079Multiplexer serial number:	ORYXHardware model number:	OX4-SRSoftware version number:	ORYX F/W v4.00 Oryx Data Collector v3.7.2.0data status	okinstallation	princeton_trtdifferential loss correction	single-endedforward channel	channel 4reverse channel	N/Adate	2019/09/19time	10:57:35forward acquisition time	60.00reverse acquisition time	0.00gamma	496.2192k internal	0.2327k external	0.2327temperature offset calibration	1.0019default loss term (dB/km)	0.3790temperature slope calibration	1.0000multiplexer offset coefficient	1.0000multiplexer slope coefficient	1.0000fibre end	0.00T internal ref (°C)	24.81T ext. ref 1 (°C)	0.75T ext. ref 2 (°C)	20.38length (m)	temperature (°C)	Stokes	anti-Stokes-747.200	-110.573	-0.064	0.013
-746.185	-75.823	-0.283	0.101
-745.171	-107.760	-0.085	0.019
-744.156	800.000	0.060	0.176
-743.142	-200.000	0.058	0.465
-742.127	-200.000	-0.043	0.201
-741.112	800.000	0.060	0.225
-740.098	16.277	-0.128	0.102
-739.083	800.000	0.126	-0.527
-738.069	-200.000	0.003	0.107
-737.054	-54.516	-0.107	-0.049
-736.039	-180.438	-0.517	-0.011
-735.025	-200.000	0.006	0.155
-734.010	-69.284	-0.276	-0.107
-732.996	800.000	-0.009	0.029
-731.981	9.899	0.024	0.018
-730.966	-45.919	0.243	-0.121
-729.952	-86.893	-0.163	-0.050
-728.937	-61.275	-0.288	-0.122
-727.923	95.806	0.097	-0.111
-726.908	-106.025	-0.204	-0.046
-725.894	-200.000	-0.113	0.523
-724.879	-200.000	0.022	0.115
-723.864	512.534	-0.075	-0.175
-722.850	-18.743	-0.105	0.066
-721.835	-70.935	-0.509	0.193
-720.821	800.000	0.012	0.043
-719.806	368.230	0.024	-0.049
-718.791	-83.255	-0.215	0.069
-717.777	-22.653	-0.064	0.039
-716.762	260.803	0.066	0.115
-715.748	-200.000	0.013	0.314
-714.733	-200.000	0.006	-0.125
-713.718	-38.204	0.087	0.047
-712.704	-200.000	0.006	0.090
-711.689	-152.454	0.185	-0.013
-710.675	46.085	-0.165	-0.154
-709.660	-11.759	0.192	-0.127
-708.645	96.200	0.319	-0.368
-707.631	606.352	0.028	0.071
-706.616	62.919	-0.194	0.195
-705.602	-81.413	0.487	-0.161
-704.587	12.960	0.143	-0.112
-703.572	-4.046	0.257	-0.179
-702.558	180.535	-0.258	0.381
-701.543	101.436	-0.200	0.235
-700.529	45.234	0.254	-0.236
-699.514	-5.356	-0.347	0.240
-698.499	-200.000	-0.058	-0.310
-697.485	-117.858	0.153	-0.028
-696.470	565.997	0.078	-0.190
-695.456	-128.875	-0.444	-0.063
-694.441	10.148	0.173	0.133
-693.426	2.688	-0.163	-0.119
-692.412	800.000	0.043	0.148
-691.397	162.424	0.213	0.301
-690.383	-127.280	-0.318	0.047
-689.368	-90.047	0.209	-0.061
-688.354	662.396	0.049	0.127
-687.339	-143.826	0.264	0.025
-686.324	-185.475	-0.534	-0.008
-685.310	-36.978	-0.318	-0.171
-684.295	36.806	-0.169	-0.150
-683.281	-90.011	0.259	-0.076
-682.266	-66.586	-0.101	-0.040
-681.251	268.363	-0.120	-0.211
-680.237	800.000	-0.033	-0.140
-679.222	-135.085	-0.104	-0.013
-678.208	293.732	0.100	0.183
-677.193	-113.604	0.324	0.064
-676.178	232.175	0.092	0.152
-675.164	-22.623	0.219	0.133
-674.149	60.148	0.080	-0.080
-673.135	795.861	-0.069	-0.190
-672.120	355.301	-0.073	-0.145
-671.105	92.811	-0.080	-0.091
-670.091	800.000	-0.071	-0.311
-669.076	-200.000	0.012	0.189
-668.062	311.112	0.080	0.150
-667.047	-90.759	0.346	0.100
-666.032	29.793	-0.218	-0.186
-665.018	-5.885	0.234	-0.161
-664.003	800.000	-0.118	0.379
-662.989	-113.541	-0.106	0.021
-661.974	-4.943	-0.130	-0.090
-660.959	800.000	-0.103	0.374
-659.945	647.491	0.097	0.250
-658.930	-200.000	-0.013	-0.221
-657.916	-200.000	-0.035	-0.178
-656.901	67.928	-0.123	-0.126
-655.886	81.141	0.090	-0.098
-654.872	-200.000	0.008	-0.131
-653.857	-111.254	-0.374	0.077
-652.843	390.603	0.098	-0.204
-651.828	800.000	0.085	0.332
-650.814	549.572	0.068	0.164
-649.799	35.341	0.080	0.070
-648.784	-86.718	-0.189	0.058
-647.770	70.314	0.050	-0.052
-646.755	-43.741	-0.148	-0.075
-645.741	-29.076	-0.109	-0.063
-644.726	800.000	-0.018	-0.070
-643.711	-200.000	0.024	0.235
-642.697	-188.514	0.166	-0.002
-641.682	800.000	-0.062	-0.178
-640.668	643.421	-0.032	0.082
-639.653	90.322	-0.263	-0.295
-638.638	-110.362	-0.176	0.037
-637.624	-200.000	-0.044	-0.213
-636.609	800.000	0.046	0.156
-635.595	537.606	0.125	0.298
-634.580	-144.444	-0.416	0.039
-633.565	488.090	0.206	0.472
-632.551	-56.231	0.266	-0.119
-631.536	430.251	-0.042	0.091
-630.522	81.515	-0.220	-0.239
-629.507	18.445	0.304	-0.244
-628.492	-109.217	-0.284	-0.061
-627.478	252.995	-0.259	0.444
-626.463	-200.000	-0.029	-0.143
-625.449	-200.000	0.050	-0.222
-624.434	66.108	0.343	-0.350
-623.419	-200.000	0.030	0.161
-622.405	-93.985	-0.182	-0.050
-621.390	-94.019	-0.073	0.020
-620.376	-97.083	0.165	0.043
-619.361	800.000	-0.068	0.214
-618.346	-38.367	-0.436	-0.231
-617.332	439.562	0.042	-0.092
-616.317	-78.253	-0.066	-0.023
-615.303	-1.001	-0.023	-0.016
-614.288	372.050	-0.120	-0.245
-613.273	498.965	0.164	0.378
-612.259	-99.420	-0.225	-0.057
-611.244	-15.594	-0.179	0.114
-610.230	69.954	-0.166	0.172
-609.215	327.497	-0.106	0.204
-608.201	489.345	-0.028	-0.065
-607.186	0.532	-0.129	-0.093
-606.171	-42.729	0.235	-0.120
-605.157	21.991	-0.072	0.059
-604.142	-81.622	-0.237	0.078
-603.128	-200.000	-0.028	0.320
-602.113	400.326	-0.098	0.206
-601.098	103.932	-0.290	0.342
-600.084	-200.000	-0.007	-0.056
-599.069	-131.123	-0.286	0.038
-598.055	-6.270	-0.350	0.239
-597.040	120.885	0.040	0.050
-596.025	79.510	0.086	0.093
-595.011	119.692	0.269	-0.335
-593.996	-89.587	-0.294	-0.087
-592.982	76.972	-0.156	-0.166
-591.967	-178.230	-0.201	-0.005
-590.952	-45.676	0.070	0.035
-589.938	-77.094	0.070	0.024
-588.923	-200.000	-0.024	-0.159
-587.909	129.647	-0.142	-0.182
-586.894	-4.322	0.217	-0.151
-585.879	-200.000	0.024	0.231
-584.865	-177.093	-0.037	-0.001
-583.850	-129.147	-0.363	-0.051
-582.836	-176.497	-0.334	-0.009
-581.821	-116.818	-0.232	-0.043
-580.806	-111.594	-0.084	0.017
-579.792	-39.415	-0.185	-0.097
-578.777	-200.000	-0.017	0.215
-577.763	-130.371	-0.148	0.020
-576.748	662.174	-0.076	-0.197
-575.733	-200.000	-0.007	0.186
-574.719	-11.042	-0.182	0.120
-573.704	800.000	-0.089	-0.260
-572.690	-76.929	0.106	0.037
-571.675	-200.000	0.003	0.455
-570.661	-200.000	0.168	0.000
-569.646	-163.581	-0.288	0.014
-568.631	-35.372	-0.157	-0.085
-567.617	-46.650	0.318	-0.156
-566.602	-0.990	0.247	0.175
-565.588	-147.567	-0.327	-0.028
-564.573	-87.755	-0.123	-0.037
-563.558	44.276	-0.139	-0.127
-562.544	-146.867	0.210	-0.018
-561.529	-200.000	0.004	0.075
-560.515	-200.000	-0.025	-0.283
-559.500	-200.000	0.026	-0.214
-558.485	330.010	-0.109	-0.210
-557.471	-200.000	0.018	0.462
-556.456	53.239	0.159	-0.153
-555.442	115.359	-0.240	-0.294
-554.427	137.638	0.183	-0.240
-553.412	271.034	0.105	-0.184
-552.398	-200.000	-0.056	-0.280
-551.383	-147.897	0.290	0.024
-550.369	106.502	-0.020	-0.023
-549.354	-184.098	0.285	-0.005
-548.339	159.379	0.089	0.123
-547.325	-61.246	-0.155	0.065
-546.310	-200.000	0.007	-0.085
-545.296	-63.336	0.117	0.048
-544.281	376.389	-0.111	0.227
-543.266	800.000	0.094	-0.271
-542.252	7.878	0.020	-0.015
-541.237	-39.195	-0.295	0.155
-540.223	-135.594	-0.436	0.052
-539.208	58.839	0.212	0.209
-538.193	800.000	0.065	0.274
-537.179	65.431	-0.159	0.161
-536.164	-69.057	-0.221	0.085
-535.150	-73.571	-0.189	-0.069
-534.135	-106.409	0.269	0.060
-533.121	-200.000	-0.023	-0.220
-532.106	145.329	-0.136	-0.182
-531.091	-112.956	0.306	0.061
-530.077	443.537	-0.100	0.219
-529.062	129.634	-0.051	-0.065
-528.048	441.472	0.020	-0.044
-527.033	80.905	0.070	-0.075
-526.018	-48.621	0.046	0.022
-525.004	-200.000	0.079	0.427
-523.989	-200.000	0.030	-0.140
-522.975	333.214	-0.118	-0.228
-521.960	800.000	0.078	0.241
-520.945	367.359	0.088	-0.178
-519.931	5.568	0.159	-0.117
-518.916	-148.561	-0.365	0.030
-517.902	149.014	-0.104	0.140
-516.887	421.102	-0.180	-0.385
-515.872	17.179	0.332	0.263
-514.858	-200.000	-0.042	-0.288
-513.843	134.271	-0.103	0.133
-512.829	306.770	-0.046	-0.085
-511.814	-200.000	0.006	-0.065
-510.799	21.821	-0.088	0.072
-509.785	-148.249	0.258	-0.021
-508.770	145.138	-0.134	0.179
-507.756	-200.000	0.027	-0.344
-506.741	-142.831	0.206	0.020
-505.726	800.000	-0.022	0.086
-504.712	49.863	0.105	0.099
-503.697	254.372	-0.263	0.450
-502.683	10.837	0.235	-0.180
-501.668	194.077	-0.032	0.049
-500.653	-61.849	0.072	-0.030
-499.639	-15.876	-0.161	-0.103
-498.624	128.994	-0.108	0.138
-497.610	-162.999	0.393	-0.019
-496.595	315.728	-0.198	-0.373
-495.581	82.054	-0.140	-0.152
-494.566	148.228	-0.097	0.131
-493.551	57.694	0.249	0.243
-492.537	-22.645	0.219	-0.132
-491.522	-24.483	-0.332	0.198
-490.508	185.565	0.044	0.066
-489.493	13.411	-0.092	0.071
-488.478	13.749	0.159	-0.124
-487.464	-200.000	0.011	0.059
-486.449	-55.102	0.136	-0.061
-485.435	24.759	0.100	0.083
-484.420	30.941	-0.124	-0.106
-483.405	800.000	0.204	-0.567
-482.391	-200.000	-0.015	0.385
-481.376	800.000	0.034	-0.134
-480.362	-32.204	-0.004	-0.002
-479.347	-19.834	-0.284	-0.175
-478.332	109.921	-0.058	-0.069
-477.318	741.841	-0.108	0.290
-476.303	-200.000	0.020	0.108
-475.289	-78.761	-0.204	-0.069
-474.274	-84.344	0.204	-0.064
-473.259	-0.056	-0.179	-0.127
-472.245	-169.865	-0.323	0.012
-471.230	-171.439	0.077	-0.003
-470.216	238.570	-0.063	-0.104
-469.201	27.605	-0.232	-0.195
-468.186	800.000	-0.074	0.216
-467.172	-200.000	-0.016	0.132
-466.157	1.771	-0.405	-0.291
-465.143	-200.000	-0.002	0.026
-464.128	11.416	-0.121	-0.093
-463.113	-19.489	-0.159	0.098
-462.099	-62.390	-0.098	0.040
-461.084	29.215	0.284	0.240
-460.070	-30.430	-0.127	-0.072
-459.055	800.000	0.041	-0.113
-458.040	-135.266	-0.040	-0.005
-457.026	227.403	-0.024	-0.039
-456.011	309.590	0.073	0.137
-454.997	214.570	0.122	-0.192
-453.982	-4.698	0.081	-0.056
-452.968	-200.000	-0.024	-0.119
-451.953	-66.467	0.190	0.075
-450.938	-200.000	-0.000	0.060
-449.924	-75.739	0.148	0.052
-448.909	-71.794	0.121	-0.045
-447.895	800.000	0.076	-0.305
-446.880	800.000	-0.112	-0.399
-445.865	-47.906	0.249	-0.120
-444.851	46.634	-0.181	-0.167
-443.836	-40.538	-0.211	-0.109
-442.822	8.446	-0.355	0.266
-441.807	800.000	-0.101	0.293
-440.792	-119.617	0.353	-0.061
-439.778	-69.706	-0.099	-0.038
-438.763	-138.416	-0.347	-0.038
-437.749	-200.000	-0.036	-0.177
-436.734	-200.000	0.027	-0.255
-435.719	-95.633	-0.253	-0.068
-434.705	-200.000	-0.031	-0.169
-433.690	204.012	0.022	0.034
-432.676	800.000	-0.039	0.157
-431.661	-200.000	-0.005	-0.102
-430.646	800.000	0.082	0.259
-429.632	-200.000	-0.007	0.165
-428.617	-112.526	-0.162	0.032
-427.603	-200.000	0.058	0.296
-426.588	-14.550	0.133	0.085
-425.573	398.601	0.101	0.211
-424.559	41.839	0.148	-0.134
-423.544	24.670	-0.067	0.055
-422.530	524.231	-0.084	0.198
-421.515	800.000	-0.067	0.244
-420.500	-200.000	0.007	0.270
-419.486	31.574	0.308	0.264
-418.471	800.000	0.056	-0.170
-417.457	32.696	-0.139	0.119
-416.442	231.638	0.096	0.157
-415.428	171.364	0.167	-0.238
-414.413	485.336	0.026	-0.060
-413.398	48.085	0.199	0.185
-412.384	800.000	-0.023	0.072
-411.369	52.696	-0.072	-0.069
-410.355	-200.000	-0.022	0.309
-409.340	7.989	0.074	-0.055
-408.325	-200.000	-0.002	-0.123
-407.311	-42.560	-0.194	-0.098
-406.296	-200.000	-0.087	-0.491
-405.282	-200.000	0.007	-0.105
-404.267	-162.540	0.062	0.003
-403.252	800.000	0.086	-0.266
-402.238	356.701	0.062	0.123
-401.223	367.723	0.149	0.300
-400.209	-200.000	0.003	0.100
-399.194	94.843	0.211	0.239
-398.179	22.199	-0.143	-0.116
-397.165	-19.417	0.319	0.197
-396.150	-77.434	-0.158	-0.055
-395.136	-200.000	-0.012	0.301
-394.121	800.000	-0.047	0.201
-393.106	-200.000	0.031	0.204
-392.092	132.078	-0.145	0.185
-391.077	-100.202	0.450	0.111
-390.063	19.455	-0.295	-0.236
-389.048	-119.932	0.065	-0.011
-388.033	82.383	-0.043	0.047
-387.019	78.554	0.165	-0.176
-386.004	41.098	0.289	-0.259
-384.990	593.936	0.110	0.271
-383.975	341.564	0.079	0.153
-382.960	-200.000	0.011	0.064
-381.946	-200.000	0.006	0.106
-380.931	64.410	-0.107	-0.107
-379.917	-73.317	0.455	0.165
-378.902	-121.870	-0.175	-0.029
-377.888	193.422	0.229	0.344
-376.873	800.000	0.069	0.288
-375.858	-149.284	0.380	-0.030
-374.844	-200.000	-0.027	0.345
-373.829	-13.021	0.034	-0.022
-372.815	-112.741	-0.373	0.074
-371.800	-10.107	0.150	0.099
-370.785	-200.000	-0.041	0.188
-369.771	-200.000	0.018	-0.214
-368.756	15.795	0.094	0.074
-367.742	800.000	0.023	-0.076
-366.727	-113.563	0.266	0.052
-365.712	583.994	-0.132	-0.323
-364.698	-200.000	0.056	0.296
-363.683	-162.839	-0.111	-0.005
-362.669	-148.828	-0.166	0.013
-361.654	238.974	0.050	-0.083
-360.639	-72.262	0.360	-0.132
-359.625	51.042	0.278	-0.262
-358.610	-25.835	0.219	0.128
-357.596	-150.974	0.246	-0.018
-356.581	136.923	-0.024	-0.032
-355.566	-132.242	-0.241	-0.031
-354.552	-30.945	-0.126	-0.070
-353.537	-37.655	0.182	-0.096
-352.523	-90.927	0.131	-0.037
-351.508	-10.454	-0.200	-0.132
-350.493	-200.000	0.003	0.185
-349.479	-158.589	0.326	0.019
-348.464	402.669	-0.044	0.092
-347.450	-114.609	-0.345	0.066
-346.435	309.800	0.196	-0.364
-345.420	-113.842	-0.437	0.084
-344.406	-200.000	0.001	0.132
-343.391	-41.396	-0.167	-0.085
-342.377	-200.000	-0.014	0.264
-341.362	-141.259	0.168	-0.017
-340.348	711.999	-0.074	0.194
-339.333	578.808	-0.033	-0.079
-338.318	37.234	0.231	-0.203
-337.304	-108.893	0.144	-0.030
-336.289	-49.432	-0.276	0.131
-335.275	163.994	-0.096	0.134
-334.260	-200.000	0.015	-0.176
-333.245	-184.579	0.197	-0.003
-332.231	-107.576	-0.052	0.011
-331.216	137.682	0.137	-0.178
-330.202	109.411	0.194	0.231
-329.187	-87.851	-0.505	-0.151
-328.172	800.000	0.076	-0.309
-327.158	800.000	-0.060	0.173
-326.143	214.195	-0.036	-0.057
-325.129	212.246	0.065	0.102
-324.114	-134.439	0.251	-0.031
-323.099	-105.350	-0.080	-0.018
-322.085	-124.153	0.268	0.042
-321.070	800.000	-0.032	-0.120
-320.056	-122.419	0.276	0.045
-319.041	-124.976	0.195	-0.030
-318.026	-148.766	-0.258	-0.021
-317.012	330.167	0.036	0.069
-315.997	9.673	-0.071	0.053
-314.983	324.145	-0.101	-0.191
-313.968	-85.088	0.167	0.052
-312.953	-12.076	0.510	-0.331
-311.939	-152.111	-0.103	0.007
-310.924	-89.089	0.350	-0.102
-309.910	628.996	-0.064	0.162
-308.895	-200.000	-0.001	-0.062
-307.880	641.366	0.054	-0.135
-306.866	172.365	-0.163	-0.233
-305.851	800.000	-0.046	-0.137
-304.837	163.838	0.119	0.167
-303.822	-78.685	0.171	0.058
-302.807	-200.000	-0.012	-0.071
-301.793	-116.062	0.389	0.072
-300.778	-107.219	-0.356	0.078
-299.764	25.112	-0.033	-0.027
-298.749	100.261	0.133	0.153
-297.735	148.297	0.067	0.089
-296.720	121.574	-0.131	0.162
-295.705	-200.000	-0.016	-0.292
-294.691	-119.469	0.157	-0.027
-293.676	-7.678	0.287	-0.192
-292.662	219.440	-0.232	0.368
-291.647	-25.476	0.183	0.107
-290.632	-67.110	0.085	-0.033
-289.618	-200.000	-0.024	-0.157
-288.603	-83.458	0.128	-0.041
-287.589	800.000	0.043	0.126
-286.574	-1.542	-0.138	0.096
-285.559	479.598	0.143	-0.321
-284.545	-96.339	0.214	0.056
-283.530	-24.716	-0.222	0.131
-282.516	-200.000	0.045	0.250
-281.501	132.652	0.354	-0.453
-280.486	-13.651	-0.081	-0.052
-279.472	379.906	-0.208	0.421
-278.457	-79.049	0.255	0.086
-277.443	800.000	0.065	-0.243
-276.428	-200.000	0.060	0.370
-275.413	-58.602	0.243	-0.105
-274.399	-110.724	0.230	0.047
-273.384	-200.000	-0.015	-0.124
-272.370	391.366	0.152	0.312
-271.355	-200.000	-0.017	0.089
-270.340	35.257	0.138	-0.120
-269.326	-200.000	0.040	-0.279
-268.311	-85.021	0.165	0.051
-267.297	-200.000	0.009	0.426
-266.282	615.683	0.164	-0.407
-265.267	800.000	-0.036	0.141
-264.253	-71.678	0.318	-0.117
-263.238	41.349	0.068	0.061
-262.224	800.000	-0.087	-0.291
-261.209	-15.380	0.149	0.094
-260.195	-200.000	-0.005	0.052
-259.180	-0.866	-0.269	-0.188
-258.165	-200.000	-0.020	0.142
-257.151	-30.832	0.060	0.033
-256.136	-72.457	-0.210	0.077
-255.122	-200.000	-0.003	-0.222
-254.107	-200.000	-0.029	-0.715
-253.092	-200.000	-0.002	-0.259
-252.078	-200.000	0.001	-0.080
-251.063	-200.000	-0.016	-0.097
-250.049	-124.986	0.102	-0.015
-249.034	-9.809	0.132	0.087
-248.019	-64.753	-0.117	0.047
-247.005	800.000	0.052	-0.221
-245.990	-119.369	-0.263	-0.045
-244.976	-70.173	0.247	0.093
-243.961	-35.471	-0.074	-0.040
-242.946	-81.368	0.390	-0.127
-241.932	4.182	0.126	-0.091
-240.917	427.385	-0.098	-0.209
-239.903	-48.228	-0.074	-0.035
-238.888	-119.840	0.126	-0.021
-237.873	9.216	-0.144	0.107
-236.859	471.720	0.029	0.064
-235.844	531.523	-0.149	0.347
-234.830	92.058	0.300	-0.334
-233.815	-200.000	0.039	0.188
-232.800	247.855	-0.135	0.225
-231.786	-7.425	0.239	-0.160
-230.771	-120.206	0.111	0.019
-229.757	-119.817	-0.161	-0.027
-228.742	506.642	0.063	-0.144
-227.727	-200.000	-0.035	0.169
-226.713	-69.648	0.349	-0.132
-225.698	-154.262	-0.486	0.032
-224.684	151.320	0.113	0.153
-223.669	83.004	0.248	-0.266
-222.655	-24.630	-0.218	-0.128
-221.640	-26.438	-0.107	0.062
-220.625	97.497	-0.194	0.220
-219.611	800.000	-0.054	-0.203
-218.596	-2.086	0.067	0.046
-217.582	-158.280	-0.212	-0.012
-216.567	-25.444	-0.172	-0.100
-215.552	-41.868	0.327	-0.166
-214.538	-47.687	-0.174	0.083
-213.523	-94.606	0.161	0.043
-212.509	-70.873	0.076	0.028
-211.494	-56.638	-0.191	0.083
-210.479	-89.520	-0.105	0.031
-209.465	-118.257	-0.163	0.029
-208.450	195.775	0.035	0.053
-207.436	-200.000	0.022	0.190
-206.421	67.611	-0.245	-0.247
-205.406	-137.183	0.231	-0.026
-204.392	51.398	0.295	0.277
-203.377	-200.000	-0.001	0.193
-202.363	38.225	-0.170	-0.149
-201.348	-63.175	0.296	-0.120
-200.333	109.542	-0.231	-0.273
-199.319	-118.236	-0.282	0.050
-198.304	503.438	-0.089	0.202
-197.290	-94.432	0.073	-0.020
-196.275	46.170	-0.181	-0.166
-195.260	86.073	0.225	-0.244
-194.246	-71.330	-0.084	0.031
-193.231	75.716	0.084	0.088
-192.217	-95.752	-0.166	-0.044
-191.202	258.998	-0.154	0.262
-190.187	307.502	-0.127	0.234
-189.173	1.909	0.069	0.049
-188.158	17.396	0.098	0.077
-187.144	-83.687	0.254	0.080
-186.129	-200.000	0.051	-0.379
-185.114	-4.174	0.302	-0.207
-184.100	45.126	-0.329	-0.299
-183.085	-11.573	-0.163	-0.106
-182.071	306.820	-0.146	-0.269
-181.056	-200.000	-0.027	-0.162
-180.042	-19.335	0.369	0.226
-179.027	384.097	-0.103	0.208
-178.012	259.442	-0.103	0.176
-176.998	47.908	0.008	-0.007
-175.983	49.444	-0.422	0.392
-174.969	-200.000	-0.021	-0.143
-173.954	800.000	-0.073	0.240
-172.939	282.361	0.192	0.340
-171.925	-9.947	-0.130	-0.086
-170.910	800.000	-0.021	-0.069
-169.896	-119.723	0.417	-0.071
-168.881	360.385	-0.135	-0.266
-167.866	43.236	0.085	-0.076
-166.852	259.516	-0.210	-0.357
-165.837	23.888	0.184	0.150
-164.823	9.860	0.190	-0.142
-163.808	-200.000	0.026	0.153
-162.793	-31.566	-0.233	0.129
-161.779	351.071	0.051	-0.099
-160.764	800.000	-0.053	-0.220
-159.750	144.063	0.201	0.264
-158.735	162.274	-0.123	0.170
-157.720	91.810	-0.111	0.123
-156.706	-77.973	0.191	0.065
-155.691	-200.000	0.013	0.153
-154.677	-200.000	-0.003	0.203
-153.662	-45.705	0.480	-0.234
-152.647	-125.257	-0.169	0.025
-151.633	0.402	-0.043	-0.030
-150.618	72.951	0.179	0.184
-149.604	-200.000	-0.000	-0.241
-148.589	219.270	0.272	0.429
-147.574	-19.576	-0.277	0.169
-146.560	362.368	0.104	0.205
-145.545	-55.647	-0.240	0.106
-144.531	-51.896	0.345	-0.158
-143.516	262.412	-0.128	-0.218
-142.502	604.931	0.070	0.171
-141.487	-200.000	-0.047	0.385
-140.472	-200.000	-0.004	0.332
-139.458	-9.358	0.062	0.040
-138.443	-200.000	-0.009	-0.168
-137.429	-10.544	0.383	-0.249
-136.414	-90.894	0.047	0.013
-135.399	800.000	0.055	0.156
-134.385	-136.636	0.429	0.049
-133.370	-71.771	0.198	-0.073
-132.356	-166.569	0.301	-0.012
-131.341	-1.273	-0.176	0.122
-130.326	-108.538	-0.323	0.068
-129.312	-200.000	0.020	-0.200
-128.297	-13.372	0.225	0.143
-127.283	50.616	0.355	0.330
-126.268	120.636	-0.063	-0.077
-125.253	-61.167	-0.341	-0.142
-124.239	771.477	-0.114	0.305
-123.224	-23.993	-0.224	-0.132
-122.210	-122.307	0.118	-0.019
-121.195	-76.069	0.079	-0.028
-120.180	15.529	0.326	0.252
-119.166	-147.640	-0.165	0.014
-118.151	336.788	0.024	0.045
-117.137	503.876	0.122	-0.277
-116.122	-7.908	-0.145	-0.096
-115.107	-117.381	0.079	-0.014
-114.093	-125.312	0.200	-0.030
-113.078	440.028	0.109	-0.234
-112.064	-200.000	-0.267	0.000
-111.049	-67.294	0.254	-0.098
-110.034	-200.000	0.001	-0.230
-109.020	-147.927	-0.183	-0.015
-108.005	-72.518	0.225	0.082
-106.991	-200.000	0.065	0.348
-105.976	38.044	0.272	-0.238
-104.962	155.223	-0.089	-0.120
-103.947	800.000	-0.119	-0.511
-102.932	587.636	-0.078	-0.188
-101.918	-81.695	0.450	-0.145
-100.903	-200.000	-0.035	-0.603
-99.889	-200.000	-0.011	-0.107
-98.874	-77.978	0.540	-0.183
-97.859	-121.890	-0.078	-0.013
-96.845	-200.000	0.005	-0.090
-95.830	18.668	0.049	0.039
-94.816	-88.206	-0.079	-0.023
-93.801	-5.923	0.085	0.057
-92.786	423.175	0.053	0.111
-91.772	-200.000	-0.065	0.302
-90.757	351.772	0.181	-0.352
-89.743	-106.833	0.248	-0.054
-88.728	34.762	-0.254	-0.218
-87.713	-82.058	0.042	-0.013
-86.699	-37.865	0.187	-0.098
-85.684	367.600	-0.135	-0.268
-84.670	800.000	-0.065	-0.263
-83.655	324.721	0.099	0.187
-82.640	-87.196	0.380	-0.113
-81.626	800.000	0.036	-0.114
-80.611	-163.361	0.237	0.011
-79.597	-200.000	0.015	-0.143
-78.582	-151.963	0.155	-0.011
-77.567	591.269	0.028	0.068
-76.553	228.909	0.051	0.082
-75.538	-78.461	0.227	-0.077
-74.524	-128.523	0.099	-0.014
-73.509	-200.000	-0.045	-0.329
-72.494	561.258	-0.160	0.381
-71.480	-200.000	0.068	0.461
-70.465	543.596	-0.156	0.366
-69.451	-18.465	-0.166	0.101
-68.436	-129.382	0.345	0.047
-67.422	151.216	0.138	0.184
-66.407	83.775	0.041	0.044
-65.392	-200.000	0.005	-0.054
-64.378	-85.278	-0.261	-0.080
-63.363	-200.000	-0.005	0.043
-62.349	800.000	-0.057	0.168
-61.334	64.572	-0.915	-0.905
-60.319	221.874	0.465	0.735
-59.305	132.435	-0.745	-0.942
-58.290	190.670	0.683	1.008
-57.276	800.000	0.601	1.752
-56.261	-200.000	122.256	614.322
-55.246	372.692	1586.599	3164.619
-54.232	135.785	2764.978	3533.615
-53.217	85.727	2362.737	2549.284
-52.203	31.147	2101.298	1769.151
-51.188	26.474	2015.598	1654.312
-50.173	25.204	1998.439	1628.644
-49.159	41.663	2065.456	1836.104
-48.144	40.421	2080.456	1837.857
-47.130	26.964	2034.032	1673.698
-46.115	24.844	2023.078	1645.156
-45.100	24.737	2019.415	1641.127
-44.086	24.719	2017.389	1639.250
-43.071	24.713	2014.664	1636.917
-42.057	24.648	2012.491	1634.496
-41.042	24.635	2011.474	1633.482
-40.027	24.607	2009.475	1631.540
-39.013	24.675	2006.908	1630.005
-37.998	24.640	2005.694	1628.640
-36.984	24.745	2003.593	1627.821
-35.969	24.697	2001.816	1625.882
-34.954	24.755	1999.742	1624.663
-33.940	24.777	1998.215	1623.549
-32.925	24.828	1996.737	1622.746
-31.911	24.771	1995.293	1620.997
-30.896	24.801	1993.661	1619.873
-29.881	24.839	1991.784	1618.634
-28.867	24.900	1990.357	1617.957
-27.852	24.947	1988.397	1616.729
-26.838	24.892	1986.874	1614.929
-25.823	24.895	1984.837	1613.235
-24.809	24.897	1983.303	1611.941
-23.794	24.899	1981.310	1610.274
-22.779	24.794	1980.282	1608.436
-21.765	24.838	1978.275	1607.132
-20.750	24.830	1976.207	1605.322
-19.736	24.793	1975.367	1604.241
-18.721	24.896	1973.465	1603.552
-17.706	24.868	1971.454	1601.603
-16.692	24.829	1970.038	1600.040
-15.677	24.906	1968.135	1599.119
-14.663	24.842	1966.838	1597.435
-13.648	24.754	1966.125	1596.008
-12.633	24.795	1964.378	1594.893
-11.619	24.848	1963.158	1594.310
-10.604	24.791	1962.179	1592.943
-9.590	24.810	1960.594	1591.759
-8.575	24.809	1958.762	1590.202
-7.560	24.859	1957.800	1589.801
-6.546	24.788	1956.458	1588.021
-5.531	24.841	1955.146	1587.360
-4.517	24.862	1953.855	1586.435
-3.502	24.887	1952.613	1585.582
-2.487	24.809	1951.510	1583.938
-1.473	24.826	1950.371	1583.104
-0.458	24.930	1945.646	1580.124
0.556	23.772	1926.226	1553.609
1.571	19.719	1907.158	1502.931
2.586	15.938	1930.867	1488.131
3.600	14.993	1965.973	1506.552
4.615	14.940	1959.949	1501.324
5.629	11.830	1859.085	1397.420
6.644	4.973	1742.598	1254.711
7.659	1.132	1708.451	1199.665
8.673	0.829	1705.538	1195.119
9.688	0.744	1704.435	1193.568
10.702	0.776	1703.173	1192.833
11.717	0.640	1699.190	1188.868
12.731	1.109	1697.633	1191.355
13.746	6.251	1708.647	1239.578
14.761	13.168	1723.350	1304.937
15.775	16.669	1728.535	1336.434
16.790	17.128	1728.412	1339.841
17.804	16.274	1725.368	1330.636
18.819	15.402	1721.772	1320.883
19.834	14.799	1719.652	1314.404
20.848	14.445	1718.101	1310.317
21.863	14.236	1716.477	1307.320
22.877	14.013	1714.487	1303.940
23.892	13.741	1713.576	1301.000
24.907	13.575	1712.636	1298.872
25.921	13.524	1711.512	1297.503
26.936	13.588	1710.661	1297.239
27.950	13.633	1709.417	1296.533
28.965	13.702	1708.597	1296.338
29.980	13.686	1708.008	1295.650
30.994	13.778	1707.041	1295.523
32.009	13.867	1705.791	1295.151
33.023	13.836	1705.524	1294.594
34.038	13.850	1704.662	1293.936
35.053	13.811	1703.786	1292.848
36.067	13.802	1702.126	1291.409
37.082	13.799	1701.058	1290.462
38.096	13.792	1700.138	1289.589
39.111	13.779	1699.430	1288.841
40.126	13.753	1699.012	1288.204
41.140	13.754	1697.683	1287.097
42.155	13.713	1696.430	1285.709
43.169	13.596	1695.261	1283.806
44.184	13.580	1693.993	1282.606
45.199	13.639	1692.189	1281.582
46.213	13.616	1691.649	1280.888
47.228	13.563	1690.185	1279.252
48.242	13.691	1688.464	1278.822
49.257	13.623	1687.762	1277.657
50.271	13.756	1686.420	1277.550
51.286	13.732	1685.092	1276.247
52.301	13.683	1683.723	1274.724
53.315	13.732	1681.998	1273.678
54.330	13.668	1681.132	1272.418
55.344	13.635	1679.367	1270.720
56.359	13.668	1677.621	1269.535
57.374	13.690	1676.233	1268.540
58.388	13.713	1674.986	1267.660
59.403	13.673	1673.418	1266.057
60.417	13.604	1672.456	1264.691
61.432	13.629	1671.140	1263.774
62.447	13.614	1670.144	1262.799
63.461	13.554	1669.151	1261.474
64.476	13.555	1668.222	1260.668
65.490	13.507	1666.808	1259.127
66.505	13.533	1665.460	1258.195
67.520	13.650	1664.046	1257.902
68.534	13.563	1663.310	1256.571
69.549	13.556	1662.404	1255.728
70.563	13.589	1661.220	1254.970
71.578	13.503	1659.572	1252.967
72.593	13.461	1658.627	1251.826
73.607	13.578	1657.560	1251.788
74.622	13.417	1656.426	1249.606
75.636	13.476	1655.459	1249.211
76.651	13.475	1654.344	1248.255
77.666	13.519	1653.721	1248.007
78.680	13.472	1652.555	1246.658
79.695	13.475	1651.360	1245.673
80.709	13.469	1650.324	1244.735
81.724	13.565	1649.096	1244.421
82.739	13.642	1647.564	1243.732
83.753	13.574	1647.121	1242.772
84.768	13.557	1646.564	1242.114
85.782	13.645	1645.205	1241.644
86.797	13.761	1644.076	1241.545
87.812	13.687	1643.515	1240.464
88.826	13.689	1642.086	1239.291
89.841	13.609	1640.794	1237.608
90.855	13.620	1640.255	1237.170
91.870	13.674	1639.207	1236.675
92.884	13.741	1637.776	1235.982
93.899	13.660	1637.053	1234.728
94.914	13.690	1635.757	1233.866
95.928	13.674	1634.791	1232.906
96.943	13.828	1632.723	1232.384
97.957	13.781	1631.320	1230.865
98.972	13.726	1629.848	1229.235
99.987	13.683	1628.788	1228.009
101.001	13.743	1626.744	1226.806
102.016	13.678	1625.595	1225.349
103.030	13.666	1624.104	1224.031
104.045	13.726	1622.293	1223.000
105.060	13.699	1621.474	1222.074
106.074	13.771	1620.011	1221.394
107.089	13.627	1618.670	1219.213
108.103	13.623	1616.970	1217.795
109.118	13.542	1615.668	1216.115
110.133	13.557	1614.392	1215.159
111.147	13.617	1612.927	1214.382
112.162	13.625	1611.239	1213.066
113.176	13.587	1609.830	1211.618
114.191	13.580	1608.431	1210.411
115.206	13.605	1607.715	1209.947
116.220	13.761	1605.657	1209.423
117.235	13.671	1604.757	1207.983
118.249	13.703	1603.278	1206.996
119.264	13.661	1602.192	1205.769
120.279	13.767	1600.443	1205.116
121.293	13.634	1599.076	1203.016
122.308	13.658	1597.611	1201.978
123.322	13.620	1596.211	1200.544
124.337	13.624	1594.625	1199.273
125.352	13.765	1592.999	1198.966
126.366	13.649	1592.609	1197.729
127.381	13.549	1591.806	1196.295
128.395	13.613	1590.551	1195.709
129.410	13.660	1588.448	1194.358
130.424	13.643	1587.085	1193.106
131.439	13.613	1585.831	1191.845
132.454	13.672	1584.646	1191.269
133.468	13.703	1582.926	1190.093
134.483	13.797	1581.172	1189.346
135.497	13.656	1580.308	1187.579
136.512	13.758	1578.726	1187.018
137.527	13.717	1577.576	1185.750
138.541	13.719	1576.086	1184.540
139.556	13.731	1574.314	1183.193
140.570	13.765	1573.097	1182.411
141.585	13.723	1572.068	1181.234
142.600	13.790	1570.680	1180.569
143.614	13.932	1569.431	1180.531
144.629	13.880	1568.179	1179.120
145.643	13.966	1566.525	1178.379
146.658	13.863	1565.589	1176.840
147.673	13.961	1563.601	1175.933
148.687	13.881	1562.274	1174.265
149.702	13.873	1560.742	1172.956
150.716	13.881	1558.933	1171.552
151.731	13.817	1557.923	1170.233
152.746	13.907	1556.644	1169.804
153.760	13.714	1554.999	1167.107
154.775	13.871	1553.643	1167.087
155.789	13.812	1552.540	1165.745
156.804	13.962	1550.818	1165.402
157.819	13.957	1549.712	1164.432
158.833	13.986	1548.705	1163.775
159.848	14.078	1547.371	1163.315
160.862	14.018	1546.533	1162.161
161.877	14.045	1545.062	1161.143
162.892	14.041	1543.481	1159.820
163.906	13.999	1542.400	1158.615
164.921	13.952	1541.494	1157.504
165.935	13.979	1539.955	1156.431
166.950	14.007	1539.015	1155.820
167.964	14.016	1537.616	1154.729
168.979	14.087	1536.318	1154.147
169.994	14.073	1535.615	1153.418
171.008	14.036	1534.787	1152.438
172.023	14.122	1533.400	1151.890
173.037	14.116	1531.996	1150.689
174.052	14.164	1530.828	1150.047
175.067	14.116	1530.370	1149.265
176.081	14.173	1528.581	1148.217
177.096	14.078	1527.478	1146.627
178.110	14.105	1525.999	1145.607
179.125	14.037	1525.132	1144.385
180.140	14.024	1523.981	1143.332
181.154	14.145	1522.744	1143.131
182.169	14.066	1521.498	1141.555
183.183	14.169	1520.178	1141.168
184.198	14.254	1519.410	1141.074
185.213	14.202	1517.975	1139.541
186.227	14.353	1516.611	1139.445
187.242	14.311	1515.863	1138.497
188.256	14.376	1514.878	1138.101
189.271	14.307	1513.995	1136.865
190.286	14.330	1513.086	1136.237
191.300	14.234	1512.211	1134.825
192.315	14.257	1510.431	1133.549
193.329	14.142	1509.661	1132.085
194.344	14.252	1508.282	1131.699
195.359	14.299	1507.029	1130.978
196.373	14.282	1506.421	1130.309
197.388	14.258	1505.634	1129.457
198.402	14.314	1504.229	1128.682
199.417	14.379	1502.897	1128.020
200.432	14.304	1502.027	1126.760
201.446	14.510	1500.704	1127.058
202.461	14.530	1499.344	1126.074
203.475	14.573	1498.228	1125.430
204.490	14.575	1496.882	1124.327
205.504	14.626	1496.050	1123.952
206.519	14.545	1495.194	1122.664
207.534	14.585	1493.773	1121.761
208.548	14.510	1492.834	1120.456
209.563	14.506	1491.678	1119.462
210.577	14.606	1490.574	1119.203
211.592	14.572	1489.890	1118.364
212.607	14.612	1489.068	1117.914
213.621	14.673	1488.086	1117.485
214.636	14.586	1487.683	1116.502
215.650	14.604	1485.919	1115.205
216.665	14.535	1485.687	1114.471
217.680	14.621	1484.927	1114.375
218.694	14.667	1483.509	1113.515
219.709	14.704	1482.876	1113.188
220.723	14.853	1481.343	1112.937
221.738	14.805	1480.702	1112.033
222.753	14.747	1479.963	1110.993
223.767	14.618	1479.195	1109.460
224.782	14.729	1477.966	1109.183
225.796	14.780	1476.733	1108.495
226.811	14.856	1476.020	1108.364
227.826	14.814	1475.282	1107.437
228.840	14.788	1474.558	1106.624
229.855	14.825	1473.630	1106.070
230.869	14.854	1472.302	1105.171
231.884	14.893	1471.403	1104.652
232.899	14.782	1470.327	1103.013
233.913	14.820	1469.234	1102.349
234.928	14.815	1468.096	1101.365
235.942	14.802	1466.845	1100.245
236.957	14.833	1465.437	1099.292
237.972	14.822	1464.421	1098.359
238.986	14.841	1463.273	1097.525
240.001	14.814	1462.219	1096.465
241.015	14.824	1461.412	1095.828
242.030	14.935	1460.094	1095.470
243.045	14.819	1459.293	1094.012
244.059	14.943	1458.181	1093.895
245.074	14.987	1457.049	1093.232
246.088	14.963	1456.726	1092.737
247.103	15.075	1455.826	1092.698
248.117	15.067	1455.145	1092.034
249.132	15.088	1454.231	1091.393
250.147	15.042	1453.218	1090.237
251.161	15.185	1452.486	1090.522
252.176	15.177	1452.129	1090.107
253.190	15.320	1450.737	1089.889
254.205	15.295	1450.294	1089.302
255.220	15.255	1449.324	1088.216
256.234	15.282	1448.226	1087.473
257.249	15.326	1447.819	1087.353
258.263	15.273	1447.329	1086.547
259.278	15.290	1446.241	1085.744
260.293	15.346	1445.129	1085.173
261.307	15.374	1444.425	1084.732
262.322	15.472	1443.523	1084.592
263.336	15.464	1442.661	1083.793
264.351	15.494	1441.485	1083.012
265.366	15.453	1440.519	1081.926
266.380	15.484	1439.842	1081.522
267.395	15.443	1438.752	1080.340
268.409	15.488	1437.898	1079.896
269.424	15.449	1436.974	1078.851
270.439	15.491	1436.046	1078.331
271.453	15.532	1434.568	1077.389
272.468	15.580	1433.834	1077.050
273.482	15.590	1433.392	1076.686
274.497	15.512	1432.664	1075.544
275.512	15.535	1431.385	1074.639
276.526	15.593	1430.648	1074.361
277.541	15.501	1430.141	1073.297
278.555	15.713	1428.973	1073.678
279.570	15.619	1427.765	1072.078
280.585	15.561	1427.001	1071.035
281.599	15.706	1425.927	1071.058
282.614	15.667	1425.140	1070.128
283.628	15.669	1423.954	1069.151
284.643	15.686	1422.767	1068.274
285.657	15.728	1421.454	1067.465
286.672	15.720	1420.372	1066.503
287.687	15.716	1419.680	1065.865
288.701	15.822	1418.674	1065.688
289.716	15.707	1418.571	1064.783
290.730	15.772	1417.553	1064.340
291.745	15.800	1416.221	1063.419
292.760	15.787	1415.225	1062.499
293.774	15.821	1413.775	1061.530
294.789	15.884	1412.951	1061.214
295.803	15.892	1412.888	1061.124
296.818	15.927	1411.437	1060.160
297.833	15.867	1410.355	1058.876
298.847	15.884	1409.381	1058.160
299.862	15.985	1408.142	1057.768
300.876	15.930	1407.636	1056.947
301.891	15.949	1406.354	1056.010
302.906	15.886	1406.121	1055.348
303.920	16.035	1404.944	1055.305
304.935	16.085	1404.559	1055.235
305.949	16.105	1403.376	1054.378
306.964	16.135	1402.577	1053.874
307.979	16.142	1401.509	1053.021
308.993	16.100	1400.424	1051.851
310.008	16.116	1399.681	1051.296
311.022	16.105	1398.675	1050.383
312.037	16.259	1397.208	1050.144
313.052	16.193	1396.457	1049.079
314.066	16.201	1395.347	1048.198
315.081	16.110	1394.433	1046.854
316.095	16.105	1393.407	1045.965
317.110	16.213	1392.474	1045.836
318.125	16.231	1391.185	1044.888
319.139	16.154	1390.528	1043.829
320.154	16.109	1389.614	1042.772
321.168	16.156	1388.356	1042.022
322.183	16.255	1387.354	1041.788
323.197	16.246	1386.719	1041.166
324.212	16.180	1385.841	1040.006
325.227	16.233	1384.928	1039.561
326.241	16.214	1383.733	1038.449
327.256	16.277	1383.022	1038.216
328.270	16.245	1382.268	1037.357
329.285	16.310	1381.603	1037.170
330.300	16.344	1380.423	1036.400
331.314	16.284	1379.636	1035.350
332.329	16.323	1378.867	1034.918
333.343	16.388	1377.566	1034.249
334.358	16.375	1376.816	1033.513
335.373	16.406	1376.050	1033.039
336.387	16.411	1375.317	1032.429
337.402	16.386	1374.917	1031.882
338.416	16.509	1373.502	1031.477
339.431	16.453	1373.011	1030.678
340.446	16.474	1372.163	1030.076
341.460	16.440	1371.532	1029.307
342.475	16.561	1370.367	1029.074
343.489	16.601	1369.365	1028.478
344.504	16.614	1368.442	1027.772
345.519	16.589	1367.659	1026.942
346.533	16.694	1366.604	1026.692
347.548	16.645	1365.336	1025.353
348.562	16.724	1364.884	1025.402
349.577	16.801	1364.216	1025.277
350.592	16.786	1363.291	1024.402
351.606	16.788	1362.413	1023.659
352.621	16.732	1361.083	1022.231
353.635	16.668	1360.292	1021.163
354.650	16.663	1359.658	1020.565
355.665	16.665	1358.472	1019.600
356.679	16.754	1357.283	1019.150
357.694	16.728	1356.391	1018.231
358.708	16.716	1355.849	1017.663
359.723	16.758	1354.329	1016.683
360.738	16.820	1352.935	1015.924
361.752	16.770	1352.231	1015.005
362.767	16.818	1350.729	1014.073
363.781	16.787	1349.985	1013.241
364.796	16.817	1349.397	1012.890
365.810	16.879	1348.643	1012.603
366.825	16.932	1347.909	1012.277
367.840	16.913	1346.685	1011.157
368.854	17.040	1346.266	1011.507
369.869	17.061	1345.668	1011.097
370.883	16.886	1345.411	1009.768
371.898	17.081	1344.289	1009.999
372.913	17.071	1343.219	1009.049
373.927	17.120	1342.300	1008.560
374.942	17.137	1341.550	1008.006
375.956	16.991	1341.248	1006.822
376.971	17.146	1339.966	1006.693
377.986	17.102	1339.280	1005.827
379.000	17.101	1338.450	1005.107
380.015	17.129	1337.956	1004.813
381.029	17.087	1337.223	1003.925
382.044	17.237	1336.162	1003.926
383.059	17.278	1335.529	1003.606
384.073	17.265	1334.619	1002.754
385.088	17.316	1333.700	1002.278
386.102	17.338	1333.187	1001.930
387.117	17.346	1332.499	1001.372
388.132	17.342	1331.552	1000.548
389.146	17.324	1330.827	999.811
390.161	17.280	1330.248	999.029
391.175	17.278	1329.548	998.403
392.190	17.293	1328.696	997.761
393.205	17.362	1327.626	997.274
394.219	17.433	1327.108	997.216
395.234	17.475	1325.202	995.942
396.248	17.364	1323.885	994.212
397.263	17.426	1322.818	993.683
398.278	17.326	1321.649	992.137
399.292	17.363	1320.430	991.349
400.307	17.382	1319.218	990.461
401.321	17.397	1318.249	989.732
402.336	17.386	1317.389	988.937
403.350	17.413	1316.143	988.068
404.365	17.470	1315.542	987.865
405.380	17.418	1314.755	986.883
406.394	17.447	1313.746	986.208
407.409	17.449	1313.158	985.689
408.423	17.559	1312.460	985.712
409.438	17.480	1311.655	984.569
410.453	17.643	1311.067	984.980
411.467	17.625	1310.025	984.007
412.482	17.684	1309.518	983.879
413.496	17.623	1308.857	982.941
414.511	17.676	1308.176	982.649
415.526	17.659	1307.201	981.731
416.540	17.763	1306.038	981.373
417.555	17.789	1305.810	981.262
418.569	17.674	1305.665	980.405
419.584	17.796	1304.694	980.291
420.599	17.857	1304.069	980.085
421.613	99.595	1360.828	1486.349
422.628	97.957	1369.042	1486.428
