DTS Sentinel unit serial number:	SN413079Multiplexer serial number:	ORYXHardware model number:	OX4-SRSoftware version number:	ORYX F/W v4.00 Oryx Data Collector v3.7.2.0data status	okinstallation	princeton_trtdifferential loss correction	single-endedforward channel	channel 4reverse channel	N/Adate	2019/09/13time	20:37:35forward acquisition time	60.00reverse acquisition time	0.00gamma	496.2192k internal	0.2319k external	0.2319temperature offset calibration	1.0137default loss term (dB/km)	0.3790temperature slope calibration	1.0000multiplexer offset coefficient	1.0000multiplexer slope coefficient	1.0000fibre end	0.00T internal ref (°C)	28.98T ext. ref 1 (°C)	3.21T ext. ref 2 (°C)	23.44length (m)	temperature (°C)	Stokes	anti-Stokes-747.200	-198.252	-0.304	0.002
-746.185	664.995	0.070	0.184
-745.171	-200.000	0.295	-0.001
-744.156	65.657	-0.370	0.379
-743.142	-174.534	0.139	0.004
-742.127	-4.819	0.089	0.062
-741.112	-38.012	-0.168	0.090
-740.098	136.359	-0.206	0.271
-739.083	584.907	-0.096	-0.238
-738.069	390.297	0.117	0.245
-737.054	-119.625	-0.214	0.037
-736.039	167.186	-0.187	0.269
-735.025	-200.000	-0.028	0.340
-734.010	-90.553	0.227	-0.066
-732.996	-133.669	-0.457	-0.058
-731.981	420.366	-0.118	-0.256
-730.966	800.000	-0.110	-0.314
-729.952	-45.672	0.257	-0.129
-728.937	-24.724	-0.084	-0.051
-727.923	-98.986	-0.383	0.098
-726.908	-164.735	-0.462	-0.021
-725.894	15.696	-0.075	0.059
-724.879	-200.000	0.002	-0.061
-723.864	26.868	-0.341	-0.289
-722.850	440.042	0.113	-0.249
-721.835	-41.127	-0.122	-0.064
-720.821	-190.077	-0.236	-0.003
-719.806	622.631	-0.063	-0.160
-718.791	20.376	-0.278	0.227
-717.777	-200.000	0.097	-0.483
-716.762	800.000	0.094	-0.273
-715.748	-105.489	-0.178	-0.041
-714.733	-200.000	-0.014	0.311
-713.718	-125.532	0.041	-0.006
-712.704	-31.098	0.153	-0.087
-711.689	26.672	0.094	-0.080
-710.675	-67.874	-0.064	0.025
-709.660	800.000	0.033	0.128
-708.645	482.223	0.115	-0.265
-707.631	69.650	-0.153	-0.159
-706.616	260.457	0.066	-0.115
-705.602	-108.838	-0.096	-0.021
-704.587	-136.020	0.330	-0.039
-703.572	-24.956	-0.270	-0.162
-702.558	191.522	-0.196	0.299
-701.543	-200.000	0.049	0.348
-700.529	-91.154	0.086	0.025
-699.514	-33.707	0.268	-0.150
-698.499	10.412	-0.081	0.063
-697.485	800.000	-0.039	0.169
-696.470	-104.677	0.200	-0.047
-695.456	-66.096	0.069	0.028
-694.441	-200.000	0.069	0.394
-693.426	-132.837	0.085	-0.011
-692.412	115.134	0.087	0.108
-691.397	-200.000	0.052	0.290
-690.383	-194.745	0.415	0.003
-689.368	97.074	-0.170	0.197
-688.354	173.979	-0.139	-0.203
-687.339	-135.040	-0.189	-0.023
-686.324	-200.000	-0.062	0.284
-685.310	-200.000	0.042	-0.213
-684.295	338.975	0.090	0.177
-683.281	-200.000	-0.009	0.188
-682.266	10.402	0.048	-0.037
-681.251	276.901	0.148	0.266
-680.237	-16.709	-0.127	-0.081
-679.222	-200.000	-0.033	0.427
-678.208	156.721	0.147	0.205
-677.193	-153.937	0.158	0.011
-676.178	521.979	0.050	-0.120
-675.164	773.691	-0.084	0.231
-674.149	-200.000	-0.014	-0.123
-673.135	-145.966	-0.220	0.020
-672.120	800.000	0.050	-0.190
-671.105	579.678	-0.060	-0.147
-670.091	800.000	-0.067	-0.213
-669.076	-200.000	0.015	0.145
-668.062	-91.963	-0.293	-0.084
-667.047	615.544	0.106	-0.267
-666.032	-200.000	-0.042	-0.284
-665.018	800.000	-0.100	0.369
-664.003	-97.619	-0.227	-0.059
-662.989	-14.909	0.189	-0.122
-661.974	689.986	-0.037	0.098
-660.959	-127.298	0.103	0.015
-659.945	116.794	0.044	-0.054
-658.930	-116.406	0.109	0.020
-657.916	-200.000	0.028	-0.318
-656.901	533.400	-0.063	-0.151
-655.886	-200.000	0.023	-0.138
-654.872	135.831	-0.079	0.104
-653.857	24.328	0.343	-0.286
-652.843	299.704	-0.121	-0.225
-651.828	-67.543	0.359	-0.142
-650.814	19.340	0.081	-0.066
-649.799	3.758	-0.253	-0.187
-648.784	-30.949	0.079	0.045
-647.770	9.808	-0.149	0.114
-646.755	-85.642	-0.116	-0.036
-645.741	-146.855	0.152	-0.013
-644.726	73.439	0.145	0.153
-643.711	38.580	0.234	0.210
-642.697	-32.242	0.287	-0.162
-641.682	-40.700	-0.121	0.063
-640.668	-200.000	-0.030	0.159
-639.653	-54.441	0.130	0.060
-638.638	-144.189	0.076	0.007
-637.624	-22.340	0.222	0.136
-636.609	800.000	0.046	0.167
-635.595	800.000	-0.127	0.427
-634.580	-200.000	-0.046	-0.226
-633.565	-108.732	0.228	-0.049
-632.551	347.984	0.089	-0.176
-631.536	-200.000	-0.041	-0.196
-630.522	800.000	-0.084	-0.286
-629.507	270.730	0.107	-0.189
-628.492	44.965	-0.152	0.141
-627.478	49.680	0.317	-0.301
-626.463	-200.000	-0.024	-0.523
-625.449	631.126	-0.163	-0.415
-624.434	20.024	0.151	-0.123
-623.419	-76.604	-0.149	0.053
-622.405	36.229	-0.423	-0.375
-621.390	-99.581	0.195	-0.049
-620.376	-117.147	-0.334	0.061
-619.361	-126.230	-0.136	0.020
-618.346	-137.114	0.093	0.011
-617.332	-122.084	0.179	-0.030
-616.317	9.980	0.246	0.188
-615.303	138.651	0.166	-0.219
-614.288	-196.976	-0.151	-0.001
-613.273	563.488	-0.216	0.525
-612.259	-142.617	0.243	-0.024
-611.244	-200.000	0.005	-0.020
-610.230	50.445	-0.283	0.269
-609.215	800.000	-0.020	-0.088
-608.201	-103.364	-0.255	-0.060
-607.186	-119.194	-0.278	-0.049
-606.171	-104.355	-0.408	0.095
-605.157	-200.000	0.169	-0.000
-604.142	-88.330	-0.256	0.077
-603.128	800.000	0.042	0.148
-602.113	-200.000	-0.077	-0.346
-601.098	-68.895	-0.177	0.069
-600.084	78.503	0.364	-0.391
-599.069	800.000	0.026	0.080
-598.055	273.322	0.043	0.076
-597.040	-62.797	-0.207	-0.086
-596.025	-200.000	0.012	-0.106
-595.011	166.360	-0.066	0.094
-593.996	-200.000	0.019	-0.140
-592.982	-200.000	-0.078	-0.431
-591.967	57.694	-0.099	0.097
-590.952	360.071	-0.098	0.198
-589.938	463.673	-0.037	-0.083
-588.923	792.984	-0.069	-0.191
-587.909	-11.916	-0.216	-0.142
-586.894	189.194	-0.202	-0.304
-585.879	-2.538	-0.070	-0.049
-584.865	-152.884	-0.208	-0.015
-583.850	-95.731	-0.319	-0.086
-582.836	-163.192	-0.298	0.014
-581.821	-57.523	-0.251	-0.111
-580.806	-200.000	-0.051	0.504
-579.792	-163.547	0.211	-0.010
-578.777	-200.000	0.010	-0.269
-577.763	121.484	0.203	-0.255
-576.748	-59.614	-0.123	-0.053
-575.733	800.000	0.095	-0.330
-574.719	4.308	-0.106	-0.078
-573.704	-75.606	-0.173	-0.062
-572.690	-139.214	-0.383	-0.042
-571.675	-57.945	0.248	-0.109
-570.661	41.306	-0.144	0.131
-569.646	800.000	0.039	-0.141
-568.631	-181.876	0.148	0.003
-567.617	-135.759	0.081	-0.010
-566.602	-200.000	-0.025	-0.161
-565.588	616.335	0.152	-0.382
-564.573	646.939	-0.044	0.114
-563.558	87.479	-0.146	0.162
-562.544	-152.238	0.451	0.033
-561.529	-200.000	-0.053	-0.398
-560.515	-163.892	0.117	0.005
-559.500	35.809	0.204	0.180
-558.485	-124.679	0.082	-0.013
-557.471	100.573	0.081	0.094
-556.456	-106.211	0.203	-0.046
-555.442	350.318	0.109	-0.216
-554.427	-47.026	-0.245	-0.120
-553.412	-200.000	0.032	-0.198
-552.398	111.210	-0.145	-0.175
-551.383	-62.568	0.066	-0.028
-550.369	183.832	-0.032	0.047
-549.354	166.750	-0.096	-0.136
-548.339	800.000	0.051	0.187
-547.325	-200.000	0.033	-0.293
-546.310	-169.133	-0.366	-0.014
-545.296	-164.675	0.113	-0.005
-544.281	-60.708	-0.214	-0.091
-543.266	11.064	-0.276	0.212
-542.252	-28.166	-0.108	0.063
-541.237	800.000	0.104	-0.330
-540.223	359.803	0.012	0.023
-539.208	-133.493	-0.486	0.061
-538.193	-128.306	-0.231	-0.033
-537.179	-200.000	-0.028	0.242
-536.164	10.360	-0.085	0.065
-535.150	277.218	0.035	0.063
-534.135	-200.000	0.016	0.084
-533.121	-200.000	0.036	-0.257
-532.106	-200.000	0.005	0.066
-531.091	800.000	-0.054	0.219
-530.077	800.000	-0.058	0.218
-529.062	184.613	0.123	-0.183
-528.048	-200.000	0.011	0.226
-527.033	800.000	-0.048	0.208
-526.018	-39.417	0.253	0.133
-525.004	409.343	0.091	-0.193
-523.989	23.956	0.112	-0.093
-522.975	-154.785	-0.318	0.021
-521.960	-2.518	0.183	0.129
-520.945	81.071	0.114	0.124
-519.931	800.000	0.041	0.126
-518.916	-200.000	0.069	0.320
-517.902	91.052	-0.133	-0.150
-516.887	-200.000	0.021	0.240
-515.872	-34.029	0.185	0.102
-514.858	-18.074	0.405	-0.254
-513.843	-3.160	-0.037	0.026
-512.829	-200.000	-0.042	0.198
-511.814	-54.832	-0.192	0.087
-510.799	609.647	0.082	0.206
-509.785	-177.560	-0.163	-0.004
-508.770	62.147	0.083	-0.083
-507.756	-200.000	0.081	-0.471
-506.741	800.000	0.103	0.425
-505.726	175.616	-0.099	-0.143
-504.712	800.000	0.095	0.299
-503.697	-200.000	0.022	0.130
-502.683	800.000	-0.049	0.211
-501.668	51.420	-0.225	0.214
-500.653	122.475	0.059	-0.074
-499.639	105.423	-0.283	0.336
-498.624	162.133	0.126	0.177
-497.610	71.425	-0.240	-0.250
-496.595	46.513	0.098	0.091
-495.581	-200.000	0.035	0.238
-494.566	800.000	-0.032	0.090
-493.551	70.553	0.102	0.105
-492.537	64.221	-0.191	0.193
-491.522	-64.648	-0.215	0.087
-490.508	15.977	0.176	-0.139
-489.493	-37.627	0.028	-0.015
-488.478	-148.500	0.320	-0.026
-487.464	-192.250	0.373	-0.004
-486.449	800.000	-0.036	0.109
-485.435	205.860	0.029	-0.045
-484.420	800.000	-0.025	-0.087
-483.405	-156.501	0.138	0.009
-482.391	800.000	-0.094	0.272
-481.376	-103.081	0.097	-0.023
-480.362	-109.510	-0.141	-0.030
-479.347	-62.084	-0.203	-0.085
-478.332	269.585	-0.087	-0.152
-477.318	76.845	0.148	0.158
-476.303	-200.000	-0.011	-0.106
-475.289	109.829	0.116	0.139
-474.274	225.602	0.038	-0.062
-473.259	10.434	0.160	0.122
-472.245	800.000	-0.023	-0.090
-471.230	91.572	-0.237	-0.267
-470.216	-99.690	0.140	0.035
-469.201	-187.384	0.308	-0.004
-468.186	-9.959	0.198	0.132
-467.172	800.000	-0.040	-0.118
-466.157	-37.966	0.397	-0.211
-465.143	-129.338	-0.162	0.023
-464.128	-131.508	-0.257	-0.034
-463.113	-168.330	-0.238	-0.009
-462.099	83.614	0.239	-0.261
-461.084	-157.911	0.191	0.011
-460.070	651.221	-0.049	0.126
-459.055	41.264	-0.190	-0.172
-458.040	63.791	0.021	0.021
-457.026	144.618	-0.256	0.342
-456.011	-74.506	0.277	0.100
-454.997	-200.000	0.027	0.155
-453.982	-38.452	0.051	0.027
-452.968	-125.817	-0.178	0.027
-451.953	-110.675	0.356	-0.074
-450.938	-41.604	0.305	0.157
-449.924	635.963	-0.065	-0.166
-448.909	16.957	-0.199	0.158
-447.895	800.000	0.041	-0.139
-446.880	-94.067	0.308	0.084
-445.865	800.000	-0.054	0.230
-444.851	-128.445	-0.134	-0.019
-443.836	-200.000	0.032	0.312
-442.822	112.571	0.262	-0.317
-441.807	512.047	0.102	0.239
-440.792	49.176	0.109	0.102
-439.778	39.611	-0.304	0.272
-438.763	-162.228	-0.131	0.007
-437.749	-115.758	-0.585	-0.109
-436.734	-200.000	0.047	-0.519
-435.719	-83.194	0.143	-0.046
-434.705	800.000	-0.099	-0.326
-433.690	-109.679	-0.174	0.037
-432.676	-116.444	-0.164	-0.030
-431.661	800.000	-0.030	-0.093
-430.646	-33.191	0.225	0.125
-429.632	440.610	0.054	0.118
-428.617	-41.892	-0.152	-0.078
-427.603	77.416	0.277	-0.295
-426.588	146.645	0.260	0.349
-425.573	210.050	-0.040	0.063
-424.559	-200.000	0.019	-0.334
-423.544	27.751	0.203	-0.171
-422.530	-200.000	0.004	0.281
-421.515	697.324	0.083	0.217
-420.500	23.934	-0.087	0.072
-419.486	200.001	-0.140	0.214
-418.471	-200.000	-0.011	-0.055
-417.457	461.719	0.044	0.099
-416.442	566.269	0.117	-0.282
-415.428	-20.445	-0.197	0.121
-414.413	69.556	0.247	-0.254
-413.398	15.362	-0.102	0.080
-412.384	145.625	-0.173	-0.231
-411.369	218.255	0.116	-0.185
-410.355	-51.034	0.123	0.058
-409.340	-45.575	-0.160	-0.079
-408.325	14.604	-0.139	0.109
-407.311	70.012	0.062	0.064
-406.296	-200.000	0.024	-0.363
-405.282	391.051	0.236	-0.489
-404.267	-200.000	-0.058	-0.374
-403.252	360.386	-0.181	0.361
-402.238	-35.333	0.272	-0.148
-401.223	-161.386	0.386	0.020
-400.209	74.358	-0.107	0.112
-399.194	456.816	-0.077	0.171
-398.179	6.566	-0.214	0.159
-397.165	18.846	0.351	-0.280
-396.150	-200.000	-0.024	-0.272
-395.136	48.703	-0.159	-0.149
-394.121	49.964	0.196	-0.185
-393.106	-156.143	-0.175	0.011
-392.092	-111.411	0.088	0.018
-391.077	159.546	0.120	0.166
-390.063	-88.320	0.392	0.117
-389.048	-49.237	0.358	-0.171
-388.033	-102.945	0.346	-0.082
-387.019	-27.106	-0.304	0.177
-386.004	28.307	-0.240	-0.202
-384.990	715.109	0.133	0.352
-383.975	419.093	-0.097	-0.208
-382.960	-52.853	0.169	0.078
-381.946	-200.000	0.064	0.292
-380.931	266.310	0.094	-0.163
-379.917	-31.613	0.187	0.105
-378.902	-179.985	-0.291	-0.006
-377.888	-200.000	0.023	-0.188
-376.873	-200.000	0.016	-0.069
-375.858	75.652	-0.036	-0.038
-374.844	-200.000	0.026	-0.138
-373.829	-13.653	-0.204	-0.132
-372.815	357.374	-0.140	0.279
-371.800	-71.593	0.146	0.054
-370.785	281.242	0.101	0.181
-369.771	-200.000	-0.006	-0.229
-368.756	-3.148	-0.178	0.124
-367.742	196.132	-0.024	0.037
-366.727	-92.361	0.319	-0.089
-365.712	-127.823	-0.251	-0.036
-364.698	455.953	0.062	-0.137
-363.683	800.000	0.091	-0.263
-362.669	800.000	0.028	0.090
-361.654	59.480	0.180	0.177
-360.639	100.131	0.226	0.262
-359.625	-120.858	-0.154	-0.026
-358.610	-200.000	0.011	-0.175
-357.596	-168.224	-0.243	0.009
-356.581	-139.974	0.137	0.014
-355.566	-200.000	-0.026	-0.230
-354.552	-200.000	-0.044	-0.358
-353.537	39.430	-0.232	0.207
-352.523	800.000	-0.086	-0.259
-351.508	800.000	-0.048	-0.145
-350.493	496.337	-0.023	-0.052
-349.479	800.000	0.022	-0.065
-348.464	144.341	0.136	0.181
-347.450	-5.746	0.106	0.072
-346.435	-200.000	-0.006	-0.080
-345.420	-101.107	0.123	0.030
-344.406	-200.000	0.014	0.146
-343.391	800.000	-0.038	0.115
-342.377	-35.316	-0.230	0.125
-341.362	-136.437	0.377	-0.044
-340.348	311.288	-0.163	0.305
-339.333	-50.258	-0.219	0.103
-338.318	-200.000	-0.004	-0.028
-337.304	-34.512	0.179	-0.098
-336.289	18.139	-0.139	0.110
-335.275	-5.502	0.084	-0.058
-334.260	-157.101	-0.157	0.010
-333.245	253.043	0.125	-0.212
-332.231	451.040	-0.073	0.160
-331.216	-176.041	0.023	0.001
-330.202	5.468	0.232	0.170
-329.187	-137.064	0.162	-0.018
-328.172	-108.410	-0.198	-0.042
-327.158	-146.531	0.040	0.003
-326.143	-200.000	-0.036	0.366
-325.129	93.821	0.116	0.130
-324.114	-200.000	0.003	-0.155
-323.099	10.376	-0.125	0.095
-322.085	31.430	-0.081	-0.069
-321.070	-200.000	0.021	0.096
-320.056	-106.235	-0.256	-0.057
-319.041	83.214	-0.136	0.147
-318.026	185.632	-0.094	0.139
-317.012	35.879	-0.169	-0.148
-315.997	186.857	0.254	0.377
-314.983	135.425	0.072	0.093
-313.968	-39.088	-0.223	-0.117
-312.953	-68.032	-0.128	-0.050
-311.939	-200.000	0.026	0.223
-310.924	800.000	0.050	-0.139
-309.910	800.000	0.065	0.192
-308.895	-74.529	0.205	0.074
-307.880	-151.159	0.302	-0.023
-306.866	123.442	0.146	-0.183
-305.851	-17.474	-0.324	-0.203
-304.837	-152.702	0.291	-0.021
-303.822	-200.000	-0.026	-0.349
-302.807	800.000	0.103	0.297
-301.793	-200.000	0.017	0.291
-300.778	-107.219	0.347	0.076
-299.764	800.000	0.049	0.180
-298.749	327.069	-0.118	0.224
-297.735	800.000	0.049	0.136
-296.720	626.550	0.045	-0.113
-295.705	56.196	0.155	-0.150
-294.691	800.000	0.099	0.379
-293.676	19.190	-0.373	-0.298
-292.662	33.148	-0.158	-0.136
-291.647	-160.060	-0.086	0.005
-290.632	-200.000	0.002	-0.066
-289.618	-10.790	-0.159	-0.104
-288.603	13.242	0.066	0.051
-287.589	-166.332	-0.265	-0.011
-286.574	101.880	0.198	0.229
-285.559	800.000	-0.086	-0.322
-284.545	-140.875	-0.222	0.023
-283.530	373.628	0.083	0.168
-282.516	-134.930	-0.349	-0.042
-281.501	46.307	-0.100	0.092
-280.486	800.000	-0.062	0.239
-279.472	-112.754	0.212	0.042
-278.457	-117.925	-0.211	-0.038
-277.443	-30.834	-0.290	-0.163
-276.428	-200.000	-0.008	-0.081
-275.413	70.046	-0.200	0.205
-274.399	800.000	0.046	0.152
-273.384	-2.581	-0.104	0.072
-272.370	-56.030	-0.375	0.166
-271.355	558.150	0.099	0.236
-270.340	168.334	-0.072	0.102
-269.326	-200.000	-0.081	0.504
-268.311	-2.762	0.157	-0.109
-267.297	556.227	0.124	0.297
-266.282	-96.754	-0.086	-0.023
-265.267	3.444	0.065	-0.047
-264.253	73.902	0.189	0.197
-263.238	-145.673	-0.335	0.030
-262.224	2.226	0.187	0.134
-261.209	-30.444	-0.102	-0.058
-260.195	32.791	-0.272	-0.234
-259.180	794.519	0.040	-0.110
-258.165	-55.932	0.203	0.090
-257.151	-165.778	0.313	0.013
-256.136	-200.000	-0.014	0.149
-255.122	-200.000	0.023	-0.134
-254.107	-200.000	0.006	0.087
-253.092	372.548	-0.077	0.155
-252.078	224.799	0.107	0.172
-251.063	143.913	0.140	-0.185
-250.049	-98.132	0.260	0.066
-249.034	341.367	0.031	-0.060
-248.019	-200.000	0.025	0.351
-247.005	-200.000	0.012	-0.060
-245.990	-12.357	-0.086	0.056
-244.976	296.113	0.163	0.297
-243.961	49.394	-0.082	-0.077
-242.946	-200.000	0.012	-0.155
-241.932	-127.026	0.266	-0.039
-240.917	800.000	0.111	-0.336
-239.903	75.366	0.216	0.226
-238.888	-34.321	-0.308	-0.168
-237.873	291.126	-0.156	-0.281
-236.859	800.000	-0.176	-0.544
-235.844	-200.000	-0.046	0.246
-234.830	-43.120	-0.209	0.105
-233.815	800.000	0.114	-0.406
-232.800	-94.134	-0.286	-0.078
-231.786	-14.278	-0.110	0.070
-230.771	-200.000	0.025	0.208
-229.757	440.149	0.118	-0.255
-228.742	271.971	-0.098	0.171
-227.727	244.016	0.267	-0.444
-226.713	-52.697	0.246	0.113
-225.698	-34.288	0.102	-0.055
-224.684	800.000	-0.100	-0.322
-223.669	235.894	0.073	-0.120
-222.655	86.085	-0.216	0.236
-221.640	93.469	-0.068	0.077
-220.625	-77.266	-0.162	0.056
-219.611	-21.189	0.226	-0.137
-218.596	506.355	0.087	-0.201
-217.582	-200.000	-0.009	-0.127
-216.567	-200.000	0.085	0.376
-215.552	-143.641	-0.057	-0.005
-214.538	-200.000	-0.037	0.342
-213.523	-30.566	-0.149	-0.083
-212.509	-200.000	-0.033	-0.197
-211.494	95.832	0.134	0.152
-210.479	239.753	0.066	0.108
-209.465	-200.000	-0.011	0.071
-208.450	-92.950	-0.217	0.060
-207.436	-17.145	0.308	0.193
-206.421	148.151	-0.218	-0.292
-205.406	-200.000	-0.052	-0.267
-204.392	-57.013	-0.139	-0.061
-203.377	800.000	0.099	0.279
-202.363	18.214	-0.049	0.039
-201.348	234.675	0.129	-0.211
-200.333	800.000	0.103	-0.330
-199.319	-86.294	-0.267	0.081
-198.304	12.969	0.239	0.183
-197.290	295.491	-0.135	0.244
-196.275	-200.000	-0.080	0.349
-195.260	25.491	-0.166	0.137
-194.246	-60.210	0.329	-0.139
-193.231	-127.951	0.141	0.020
-192.217	-21.223	0.119	0.072
-191.202	-13.696	-0.233	-0.149
-190.187	154.814	0.190	-0.259
-189.173	377.205	-0.028	-0.058
-188.158	272.509	0.051	-0.089
-187.144	800.000	0.016	0.051
-186.129	214.826	0.073	0.114
-185.114	146.525	0.143	0.190
-184.100	88.498	0.273	0.300
-183.085	40.851	-0.309	0.276
-182.071	232.810	-0.214	-0.348
-181.056	318.715	0.027	-0.050
-180.042	-200.000	0.004	-0.083
-179.027	800.000	-0.054	-0.201
-178.012	-158.386	-0.461	-0.027
-176.998	252.687	-0.071	0.121
-175.983	-53.083	0.102	0.046
-174.969	724.564	-0.066	0.175
-173.954	-154.020	0.015	-0.001
-172.939	520.513	0.143	0.331
-171.925	-156.437	-0.148	-0.009
-170.910	-200.000	-0.013	-0.320
-169.896	8.287	0.155	0.115
-168.881	-68.381	0.307	-0.118
-167.866	-125.797	0.183	-0.027
-166.852	-200.000	-0.043	-0.217
-165.837	617.718	0.057	-0.141
-164.823	-200.000	0.033	0.146
-163.808	-66.444	0.342	0.134
-162.793	-58.677	-0.064	0.027
-161.779	-200.000	0.015	-0.086
-160.764	81.978	-0.260	-0.278
-159.750	59.730	0.285	0.278
-158.735	-200.000	-0.032	0.189
-157.720	-200.000	0.005	-0.265
-156.706	124.952	-0.106	-0.132
-155.691	534.632	0.101	0.237
-154.677	-8.895	0.313	0.207
-153.662	-138.604	-0.013	0.001
-152.647	-0.363	-0.106	0.074
-151.633	800.000	0.058	-0.159
-150.618	144.971	-0.131	0.173
-149.604	-118.697	0.207	-0.036
-148.589	-103.914	-0.229	0.053
-147.574	121.770	0.153	0.188
-146.560	38.426	-0.135	0.119
-145.545	29.836	-0.157	-0.133
-144.531	-27.691	-0.213	-0.122
-143.516	-48.860	0.145	0.069
-142.502	-74.122	0.363	0.130
-141.487	-127.549	0.169	0.024
-140.472	-200.000	0.036	0.161
-139.458	43.136	-0.234	-0.211
-138.443	9.973	0.114	-0.085
-137.429	-54.091	0.221	0.099
-136.414	11.610	-0.086	-0.065
-135.399	395.545	0.090	0.186
-134.385	367.988	0.015	0.030
-133.370	-115.518	0.269	0.050
-132.356	-200.000	0.130	-0.000
-131.341	265.841	-0.149	-0.257
-130.326	109.569	0.153	-0.181
-129.312	800.000	0.066	0.284
-128.297	150.380	0.103	-0.138
-127.283	118.029	0.187	0.228
-126.268	-200.000	-0.012	-0.107
-125.253	-141.583	-0.291	-0.029
-124.239	-133.501	0.194	-0.024
-123.224	359.940	0.053	-0.105
-122.210	185.582	0.196	-0.288
-121.195	-35.469	-0.126	-0.068
-120.180	-200.000	-0.015	0.337
-119.166	5.458	-0.159	0.116
-118.151	-200.000	-0.070	0.393
-117.137	108.373	-0.018	0.022
-116.122	-173.065	-0.009	-0.000
-115.107	144.996	0.158	-0.208
-114.093	-66.169	0.185	0.073
-113.078	-200.000	0.041	0.296
-112.064	-200.000	-0.017	0.199
-111.049	29.608	-0.051	0.043
-110.034	-130.648	0.288	-0.038
-109.020	8.865	-0.234	-0.174
-108.005	-110.334	0.406	0.083
-106.991	113.986	0.183	0.220
-105.976	126.709	0.085	0.106
-104.962	-73.067	0.419	0.152
-103.947	-123.800	-0.125	-0.019
-102.932	-154.442	-0.055	0.004
-101.918	11.501	0.431	-0.326
-100.903	-8.159	-0.134	0.089
-99.889	-200.000	0.000	-0.140
-98.874	-68.974	0.270	-0.103
-97.859	-200.000	0.022	0.147
-96.845	-200.000	0.010	0.334
-95.830	-200.000	0.041	0.384
-94.816	500.142	0.210	0.479
-93.801	124.812	0.039	-0.049
-92.786	-22.420	-0.215	-0.128
-91.772	-160.816	0.327	-0.017
-90.757	-90.785	-0.179	0.051
-89.743	-158.880	0.061	-0.003
-88.728	86.699	-0.179	-0.194
-87.713	-161.211	0.229	0.012
-86.699	-132.732	-0.222	0.028
-85.684	52.725	0.305	-0.287
-84.670	308.959	-0.098	-0.180
-83.655	273.864	0.131	0.229
-82.640	-2.545	0.081	-0.056
-81.626	-136.034	0.131	0.015
-80.611	-50.692	0.209	0.097
-79.597	800.000	0.075	-0.244
-78.582	800.000	0.052	0.149
-77.567	-200.000	-0.029	0.186
-76.553	91.170	-0.133	-0.147
-75.538	-155.467	0.377	-0.024
-74.524	509.302	-0.064	0.147
-73.509	800.000	-0.071	0.249
-72.494	-139.772	-0.187	-0.020
-71.480	-33.918	0.150	0.081
-70.465	132.922	-0.038	0.048
-69.451	-12.424	0.203	0.131
-68.436	-196.586	-0.367	0.002
-67.422	-45.966	-0.242	0.118
-66.407	136.735	0.092	0.118
-65.392	800.000	0.107	-0.349
-64.378	-200.000	0.012	0.112
-63.363	109.319	0.173	-0.204
-62.349	800.000	-0.049	-0.155
-61.334	112.511	-0.967	-1.153
-60.319	14.927	0.596	0.459
-59.305	392.247	-0.542	-1.109
-58.290	239.192	0.603	0.988
-57.276	-200.000	0.226	1.519
-56.261	-200.000	112.472	643.746
-55.246	521.421	1517.113	3506.109
-54.232	174.174	2701.848	3845.101
-53.217	102.091	2317.500	2665.039
-52.203	35.609	2064.751	1785.961
-51.188	30.902	1982.229	1672.382
-50.173	29.443	1966.468	1646.021
-49.159	46.452	2026.167	1850.587
-48.144	46.220	2042.069	1862.933
-47.130	31.329	1998.915	1690.057
-46.115	28.982	1989.100	1660.536
-45.100	28.925	1986.256	1657.582
-44.086	28.903	1983.448	1654.979
-43.071	28.819	1980.890	1652.018
-42.057	28.823	1979.135	1650.527
-41.042	28.867	1977.274	1649.306
-40.027	28.862	1975.633	1647.829
-39.013	28.922	1973.300	1646.352
-37.998	28.948	1971.163	1644.738
-36.984	28.906	1969.443	1642.863
-35.969	28.891	1967.893	1641.370
-34.954	29.000	1965.567	1640.334
-33.940	28.932	1964.692	1638.934
-32.925	29.037	1962.972	1638.372
-31.911	28.989	1961.335	1636.516
-30.896	28.922	1959.647	1634.439
-29.881	29.047	1958.063	1634.164
-28.867	28.996	1956.781	1632.582
-27.852	29.022	1954.864	1631.144
-26.838	29.054	1952.650	1629.519
-25.823	29.033	1951.521	1628.323
-24.809	29.010	1950.197	1626.948
-23.794	29.028	1948.140	1625.334
-22.779	29.041	1946.338	1623.880
-21.765	29.041	1944.402	1622.196
-20.750	29.025	1943.214	1620.999
-19.736	29.024	1941.376	1619.395
-18.721	28.935	1940.305	1617.651
-17.706	29.012	1938.373	1616.660
-16.692	29.056	1936.519	1615.434
-15.677	28.983	1934.869	1613.351
-14.663	28.982	1933.360	1612.018
-13.648	29.029	1932.332	1611.507
-12.633	28.995	1931.196	1610.204
-11.619	28.984	1930.110	1609.137
-10.604	28.910	1929.027	1607.523
-9.590	28.984	1927.160	1606.547
-8.575	28.939	1926.109	1605.215
-7.560	28.988	1924.754	1604.449
-6.546	29.010	1923.273	1603.342
-5.531	29.035	1921.868	1602.326
-4.517	28.992	1920.754	1600.962
-3.502	29.010	1919.766	1600.228
-2.487	29.018	1918.296	1599.008
-1.473	29.053	1917.076	1598.235
-0.458	29.043	1912.482	1594.257
0.556	29.831	1892.337	1565.095
1.571	25.306	1872.924	1510.906
2.586	21.056	1895.555	1492.748
3.600	19.942	1930.353	1510.299
4.615	19.409	1923.624	1500.269
5.629	14.715	1823.050	1382.920
6.644	7.050	1707.341	1235.379
7.659	3.483	1673.894	1183.730
8.673	3.131	1670.915	1178.823
9.688	3.205	1669.591	1178.352
10.702	3.222	1668.237	1177.425
11.717	3.272	1664.845	1175.305
12.731	3.734	1663.693	1177.913
13.746	8.874	1675.959	1225.883
14.761	16.719	1693.623	1299.104
15.775	20.581	1699.616	1333.262
16.790	20.545	1698.752	1332.191
17.804	19.756	1695.445	1323.443
18.819	18.775	1691.838	1313.014
19.834	18.107	1689.409	1305.914
20.848	17.841	1688.317	1302.923
21.863	17.699	1687.228	1300.880
22.877	17.578	1685.635	1298.619
23.892	17.363	1684.492	1295.980
24.907	17.329	1683.510	1294.851
25.921	17.228	1682.862	1293.469
26.936	17.311	1681.410	1292.872
27.950	17.294	1680.536	1291.958
28.965	17.335	1680.156	1291.862
29.980	17.438	1678.738	1291.437
30.994	17.600	1677.746	1291.789
32.009	17.580	1677.154	1291.072
33.023	17.769	1676.079	1291.555
34.038	17.688	1675.650	1290.503
35.053	17.645	1674.032	1288.814
36.067	17.531	1673.021	1287.063
37.082	17.542	1671.279	1285.693
38.096	17.504	1670.294	1284.531
39.111	17.528	1669.764	1284.189
40.126	17.583	1669.400	1284.209
41.140	17.562	1668.027	1282.882
42.155	17.328	1666.424	1279.776
43.169	17.126	1664.921	1276.994
44.184	17.110	1663.469	1275.646
45.199	17.028	1662.200	1273.945
46.213	17.058	1661.368	1273.418
47.228	17.142	1660.382	1273.178
48.242	17.296	1659.383	1273.453
49.257	17.498	1658.393	1274.089
50.271	17.381	1656.897	1271.959
51.286	17.383	1655.876	1271.076
52.301	17.412	1653.950	1269.697
53.315	17.464	1652.865	1269.146
54.330	17.440	1651.394	1267.725
55.344	17.218	1649.720	1264.674
56.359	17.247	1647.864	1263.355
57.374	17.135	1647.467	1262.104
58.388	17.232	1645.801	1261.438
59.403	17.122	1644.824	1259.757
60.417	17.050	1643.364	1257.997
61.432	17.108	1642.263	1257.476
62.447	17.041	1641.281	1256.116
63.461	16.980	1639.498	1254.187
64.476	17.063	1638.498	1253.926
65.490	16.956	1637.844	1252.519
66.505	16.929	1636.277	1251.016
67.520	16.876	1635.466	1249.892
68.534	16.872	1634.715	1249.182
69.549	16.928	1633.109	1248.251
70.563	16.899	1631.739	1246.885
71.578	17.013	1630.311	1246.519
72.593	16.827	1629.409	1244.351
73.607	16.764	1628.724	1243.259
74.622	16.710	1627.652	1241.930
75.636	16.652	1626.957	1240.865
76.651	16.856	1625.319	1241.004
77.666	16.774	1624.620	1239.761
78.680	16.824	1623.824	1239.405
79.695	16.837	1623.560	1239.192
80.709	16.893	1622.461	1238.649
81.724	17.026	1621.017	1238.413
82.739	17.067	1620.725	1238.380
83.753	17.114	1620.277	1238.271
84.768	17.243	1619.530	1238.527
85.782	17.451	1618.303	1238.996
86.797	17.525	1617.792	1239.033
87.812	17.579	1616.821	1238.568
88.826	17.471	1615.933	1236.998
89.841	17.323	1614.984	1235.082
90.855	17.392	1613.714	1234.506
91.870	17.526	1611.990	1234.047
92.884	17.442	1612.036	1233.366
93.899	17.580	1610.770	1233.284
94.914	17.589	1609.566	1232.318
95.928	17.626	1608.278	1231.497
96.943	17.704	1606.828	1230.834
97.957	17.676	1605.344	1229.394
98.972	17.470	1603.885	1226.677
99.987	17.521	1602.500	1225.876
101.001	17.518	1600.768	1224.427
102.016	17.504	1599.636	1223.349
103.030	17.510	1598.415	1222.349
104.045	17.468	1597.028	1220.878
105.060	17.480	1595.938	1220.028
106.074	17.398	1594.425	1218.172
107.089	17.334	1592.363	1216.029
108.103	17.074	1590.629	1212.741
109.118	16.949	1588.940	1210.460
110.133	16.891	1587.912	1209.155
111.147	16.945	1585.930	1207.920
112.162	16.978	1584.800	1207.185
113.176	16.981	1583.315	1205.970
114.191	16.979	1582.556	1205.276
115.206	17.093	1581.180	1204.927
116.220	17.110	1580.295	1204.269
117.235	17.092	1578.697	1202.813
118.249	17.091	1577.408	1201.716
119.264	17.113	1576.073	1200.754
120.279	17.029	1574.824	1199.098
121.293	16.966	1573.467	1197.516
122.308	16.923	1571.840	1195.871
123.322	16.903	1570.066	1194.270
124.337	16.818	1568.799	1192.607
125.352	16.757	1568.058	1191.511
126.366	16.767	1566.899	1190.594
127.381	16.838	1564.955	1189.505
128.395	16.775	1564.413	1188.547
129.410	16.886	1562.622	1187.863
130.424	16.848	1561.666	1186.762
131.439	16.894	1560.257	1185.911
132.454	17.026	1558.907	1185.701
133.468	17.110	1557.315	1184.967
134.483	16.979	1556.493	1183.329
135.497	17.126	1554.985	1183.096
136.512	17.096	1554.182	1182.178
137.527	17.126	1552.390	1180.919
138.541	17.207	1551.041	1180.351
139.556	17.204	1550.278	1179.643
140.570	17.326	1548.721	1179.202
141.585	17.293	1547.620	1178.028
142.600	17.344	1546.800	1177.650
143.614	17.446	1545.593	1177.337
144.629	17.656	1543.900	1177.392
145.643	17.599	1542.950	1176.168
146.658	17.654	1541.723	1175.508
147.673	17.510	1540.355	1173.370
148.687	17.414	1538.440	1171.144
149.702	17.383	1536.884	1169.644
150.716	17.307	1535.214	1167.748
151.731	17.261	1534.027	1166.425
152.746	17.173	1533.116	1165.030
153.760	17.232	1531.059	1163.768
154.775	17.184	1530.229	1162.704
155.789	17.295	1529.220	1162.596
156.804	17.431	1528.118	1162.585
157.819	17.416	1526.981	1161.511
158.833	17.509	1525.413	1160.851
159.848	17.560	1524.667	1160.526
160.862	17.617	1523.904	1160.231
161.877	17.679	1522.562	1159.533
162.892	17.539	1521.029	1157.309
163.906	17.378	1519.225	1154.737
164.921	17.295	1518.051	1153.180
165.935	17.257	1516.981	1152.012
166.950	17.251	1516.128	1151.217
167.964	17.338	1514.503	1150.469
168.979	17.411	1513.394	1150.020
169.994	17.332	1512.855	1148.975
171.008	17.391	1511.511	1148.251
172.023	17.400	1510.640	1147.553
173.037	17.414	1509.068	1146.350
174.052	17.586	1508.337	1146.850
175.067	17.593	1507.599	1146.237
176.081	17.487	1506.118	1144.294
177.096	17.322	1504.729	1142.031
178.110	17.260	1503.478	1140.566
179.125	17.268	1502.161	1139.517
180.140	17.429	1500.849	1139.501
181.154	17.456	1499.990	1138.928
182.169	17.449	1499.658	1138.530
183.183	17.573	1498.170	1138.127
184.198	17.617	1497.332	1137.684
185.213	17.712	1496.210	1137.365
186.227	17.682	1495.252	1136.332
187.242	17.771	1494.514	1136.266
188.256	17.667	1493.567	1134.753
189.271	17.776	1492.455	1134.534
190.286	17.853	1491.750	1134.410
191.300	17.778	1490.762	1133.059
192.315	17.454	1488.854	1129.359
193.329	17.226	1487.264	1126.540
194.344	17.273	1485.997	1125.792
195.359	17.316	1485.053	1125.265
196.373	17.456	1484.691	1125.815
197.388	17.563	1483.375	1125.425
198.402	17.642	1482.535	1125.212
199.417	17.834	1481.621	1125.685
200.432	17.884	1481.121	1125.533
201.446	18.045	1480.208	1125.798
202.461	18.075	1479.060	1125.026
203.475	18.154	1477.985	1124.626
204.490	18.206	1477.113	1124.209
205.504	18.131	1476.058	1122.808
206.519	17.944	1474.523	1120.316
207.534	17.762	1473.776	1118.459
208.548	17.846	1472.338	1117.815
209.563	17.755	1471.170	1116.233
210.577	17.803	1470.558	1115.985
211.592	17.918	1469.375	1115.741
212.607	17.809	1468.920	1114.587
213.621	18.028	1468.495	1115.596
214.636	18.039	1467.959	1115.163
215.650	17.977	1466.244	1113.352
216.665	17.926	1465.470	1112.337
217.680	18.118	1464.454	1112.715
218.694	18.169	1463.810	1112.462
219.709	18.257	1463.235	1112.496
220.723	18.200	1462.388	1111.386
221.738	18.206	1461.459	1110.619
222.753	18.176	1460.184	1109.355
223.767	18.163	1459.304	1108.506
224.782	18.282	1457.986	1108.175
225.796	18.294	1456.973	1107.389
226.811	18.268	1456.907	1107.071
227.826	18.345	1456.061	1106.825
228.840	18.269	1454.830	1105.301
229.855	18.185	1453.723	1103.821
230.869	18.158	1452.854	1102.890
231.884	18.123	1452.250	1102.106
232.899	18.086	1450.902	1100.750
233.913	18.031	1449.617	1099.323
234.928	17.973	1448.231	1097.803
235.942	17.863	1447.230	1096.240
236.957	17.913	1445.852	1095.423
237.972	17.992	1444.507	1094.810
238.986	17.860	1443.837	1093.360
240.001	18.021	1442.679	1093.415
241.015	18.140	1441.126	1092.906
242.030	18.105	1440.096	1091.800
243.045	18.082	1439.871	1091.388
244.059	18.215	1438.756	1091.298
245.074	18.325	1437.850	1091.211
246.088	18.211	1437.115	1089.832
247.103	18.291	1436.609	1089.861
248.117	18.318	1436.001	1089.473
249.132	18.398	1434.964	1089.099
250.147	18.587	1434.518	1089.866
251.161	18.694	1434.008	1090.063
252.176	18.850	1433.429	1090.516
253.190	18.925	1432.745	1090.373
254.205	18.835	1432.207	1089.296
255.220	19.011	1430.975	1089.381
256.234	19.034	1430.140	1088.795
257.249	19.011	1429.573	1088.121
258.263	19.015	1428.607	1087.313
259.278	19.065	1427.743	1086.874
260.293	18.902	1426.689	1084.948
261.307	18.902	1426.214	1084.491
262.322	18.981	1425.480	1084.336
263.336	19.018	1425.190	1084.251
264.351	19.192	1423.162	1083.711
265.366	19.145	1422.808	1083.046
266.380	19.213	1421.767	1082.584
267.395	19.211	1420.525	1081.531
268.409	19.124	1420.144	1080.598
269.424	18.995	1418.714	1078.611
270.439	19.069	1417.207	1077.831
271.453	19.126	1416.332	1077.423
272.468	18.973	1415.531	1075.767
273.482	19.044	1414.922	1075.649
274.497	18.777	1414.517	1073.577
275.512	18.824	1413.249	1072.813
276.526	18.841	1412.523	1072.272
277.541	18.837	1411.469	1071.353
278.555	18.976	1410.468	1071.363
279.570	19.083	1409.449	1071.166
280.585	19.090	1408.403	1070.319
281.599	19.147	1407.971	1070.249
282.614	19.298	1407.222	1070.521
283.628	19.190	1406.024	1068.843
284.643	19.070	1404.581	1066.908
285.657	19.097	1403.693	1066.310
286.672	19.082	1402.649	1065.329
287.687	19.090	1401.725	1064.582
288.701	19.060	1401.102	1063.828
289.716	19.128	1400.369	1063.600
290.730	19.180	1399.479	1063.149
291.745	19.090	1398.518	1061.768
292.760	19.169	1397.553	1061.430
293.774	19.122	1396.409	1060.181
294.789	19.183	1395.811	1060.004
295.803	19.248	1395.266	1059.896
296.818	19.395	1394.122	1059.836
297.833	19.209	1393.135	1057.851
298.847	19.151	1392.125	1056.635
299.862	19.227	1390.791	1055.998
300.876	19.245	1389.919	1055.348
301.891	19.292	1389.046	1054.880
302.906	19.345	1388.086	1054.382
303.920	19.351	1388.020	1054.274
304.935	19.470	1387.399	1054.438
305.949	19.564	1386.710	1054.398
306.964	19.588	1385.699	1053.679
307.979	19.743	1384.483	1053.607
308.993	19.597	1383.784	1052.091
310.008	19.579	1382.641	1051.024
311.022	19.514	1381.969	1050.020
312.037	19.632	1380.489	1049.523
313.052	19.718	1379.786	1049.417
314.066	19.501	1378.927	1047.353
315.081	19.343	1378.158	1045.717
316.095	19.424	1376.061	1044.529
317.110	19.283	1375.225	1042.948
318.125	19.214	1374.199	1041.658
319.139	19.253	1373.990	1041.646
320.154	19.331	1372.688	1041.036
321.168	19.390	1371.276	1040.230
322.183	19.416	1370.512	1039.711
323.197	19.289	1370.149	1038.578
324.212	19.406	1369.072	1038.376
325.227	19.452	1368.079	1037.806
326.241	19.463	1366.986	1036.952
327.256	19.504	1366.331	1036.609
328.270	19.470	1365.789	1035.902
329.285	19.532	1364.420	1035.148
330.300	19.424	1363.912	1034.021
331.314	19.317	1363.167	1032.726
332.329	19.368	1362.180	1032.188
333.343	19.471	1360.804	1031.670
334.358	19.517	1360.047	1031.280
335.373	19.532	1359.531	1030.887
336.387	19.662	1359.004	1031.173
337.402	19.657	1357.813	1030.147
338.416	19.741	1357.310	1030.175
339.431	19.813	1356.837	1030.157
340.446	19.875	1355.983	1029.788
341.460	19.890	1355.012	1029.047
342.475	19.990	1353.999	1028.780
343.489	20.109	1353.515	1029.028
344.504	20.077	1353.125	1028.447
345.519	20.049	1352.318	1027.580
346.533	20.147	1351.048	1027.103
347.548	20.177	1350.373	1026.680
348.562	20.315	1349.271	1026.566
349.577	20.189	1348.884	1025.433
350.592	20.102	1347.705	1023.934
351.606	19.961	1346.664	1022.218
352.621	19.943	1345.031	1020.782
353.635	19.880	1343.829	1019.411
354.650	19.849	1342.923	1018.451
355.665	19.821	1342.167	1017.621
356.679	19.797	1341.733	1017.060
357.694	19.975	1340.251	1016.891
358.708	20.007	1339.291	1016.265
359.723	20.059	1338.163	1015.620
360.738	20.098	1337.335	1015.131
361.752	20.075	1336.322	1014.136
362.767	20.105	1335.011	1013.231
363.781	20.016	1334.638	1012.334
364.796	20.062	1333.721	1011.818
365.810	20.140	1332.852	1011.527
366.825	20.312	1332.499	1012.174
367.840	20.407	1331.796	1012.105
368.854	20.338	1331.392	1011.303
369.869	20.548	1330.279	1011.594
370.883	20.608	1329.922	1011.577
371.898	20.409	1329.344	1009.895
372.913	20.398	1328.168	1008.848
373.927	20.443	1326.912	1008.067
374.942	20.368	1326.400	1007.150
375.956	20.593	1325.673	1007.815
376.971	20.507	1324.899	1006.636
377.986	20.443	1323.883	1005.406
379.000	20.486	1323.450	1005.238
380.015	20.510	1322.857	1004.839
381.029	20.557	1322.354	1004.639
382.044	20.697	1321.107	1004.410
383.059	20.775	1320.483	1004.298
384.073	20.761	1319.673	1003.513
385.088	20.644	1319.144	1002.344
386.102	20.615	1318.728	1001.777
387.117	20.774	1318.045	1002.079
388.132	20.675	1316.952	1000.592
389.146	20.466	1315.902	998.506
390.161	20.459	1314.861	997.586
391.175	20.494	1314.477	997.407
392.190	20.504	1313.594	996.708
393.205	20.467	1312.536	995.602
394.219	20.633	1311.676	995.816
395.234	20.664	1310.754	995.203
396.248	20.704	1309.188	994.157
397.263	20.592	1307.757	992.342
398.278	20.518	1306.197	990.650
399.292	20.481	1305.533	989.844
400.307	20.473	1304.099	988.623
401.321	20.355	1303.179	987.168
402.336	20.358	1302.049	986.245
403.350	20.262	1301.304	985.047
404.365	20.344	1300.313	984.676
405.380	20.341	1299.575	984.010
406.394	20.408	1298.930	983.819
407.409	20.531	1298.486	984.091
408.423	20.647	1297.404	983.840
409.438	20.787	1297.080	984.299
410.453	20.814	1296.239	983.724
411.467	20.786	1296.113	983.385
412.482	21.036	1295.253	984.053
413.496	20.980	1294.301	982.926
414.511	21.107	1293.761	983.148
415.526	21.051	1293.330	982.419
416.540	21.197	1292.388	982.437
417.555	21.243	1291.942	982.270
418.569	21.303	1291.197	981.955
419.584	21.138	1290.625	980.506
420.599	21.215	1289.615	980.081
421.613	145.378	1435.168	1798.275
422.628	140.329	1456.313	1798.384
