DTS Sentinel unit serial number:	SN413079Multiplexer serial number:	ORYXHardware model number:	OX4-SRSoftware version number:	ORYX F/W v4.00 Oryx Data Collector v3.7.2.0data status	okinstallation	princeton_trtdifferential loss correction	single-endedforward channel	channel 4reverse channel	N/Adate	2019/09/14time	22:05:35forward acquisition time	60.00reverse acquisition time	0.00gamma	496.2192k internal	0.2306k external	0.2306temperature offset calibration	1.0068default loss term (dB/km)	0.3790temperature slope calibration	1.0000multiplexer offset coefficient	1.0000multiplexer slope coefficient	1.0000fibre end	0.00T internal ref (°C)	32.67T ext. ref 1 (°C)	4.72T ext. ref 2 (°C)	27.66length (m)	temperature (°C)	Stokes	anti-Stokes-747.200	-45.787	-0.415	-0.209
-746.185	-200.000	-0.072	0.400
-745.171	14.558	0.204	-0.162
-744.156	-200.000	-0.028	0.197
-743.142	399.379	0.064	0.136
-742.127	-200.000	0.035	0.290
-741.112	456.778	0.003	0.006
-740.098	-200.000	0.013	0.228
-739.083	222.596	0.036	-0.060
-738.069	800.000	-0.058	-0.229
-737.054	-36.521	-0.371	-0.203
-736.039	737.006	-0.073	-0.199
-735.025	-147.516	0.216	0.019
-734.010	217.479	-0.107	0.174
-732.996	-200.000	0.016	-0.112
-731.981	58.618	-0.056	-0.056
-730.966	11.281	0.218	0.169
-729.952	-27.009	-0.258	0.153
-728.937	407.613	0.074	0.159
-727.923	-200.000	-0.016	-0.096
-726.908	-117.835	-0.416	-0.076
-725.894	-200.000	0.012	0.369
-724.879	117.523	0.039	-0.049
-723.864	704.062	-0.126	-0.339
-722.850	-27.186	0.128	0.076
-721.835	-111.049	0.052	0.011
-720.821	244.105	0.149	-0.255
-719.806	800.000	0.090	0.281
-718.791	-109.181	-0.205	0.044
-717.777	34.059	0.047	-0.042
-716.762	22.831	-0.227	-0.189
-715.748	800.000	0.042	-0.178
-714.733	191.334	-0.179	-0.273
-713.718	492.178	0.048	-0.112
-712.704	4.787	0.119	0.089
-711.689	28.207	-0.081	-0.069
-710.675	-200.000	0.043	-0.299
-709.660	-42.872	0.286	-0.147
-708.645	-1.981	0.088	-0.063
-707.631	-200.000	-0.012	-0.072
-706.616	-55.899	-0.055	0.025
-705.602	-112.031	-0.098	0.020
-704.587	-200.000	-0.003	0.053
-703.572	52.290	0.107	-0.104
-702.558	-40.959	-0.114	0.060
-701.543	344.735	-0.141	0.280
-700.529	289.103	-0.060	0.110
-699.514	36.756	-0.044	-0.040
-698.499	-76.397	0.196	0.070
-697.485	-158.009	0.182	-0.011
-696.470	-200.000	-0.055	0.341
-695.456	182.753	0.219	-0.328
-694.441	62.488	-0.275	0.278
-693.426	-90.543	0.011	0.003
-692.412	-76.658	0.184	-0.065
-691.397	99.421	-0.338	0.397
-690.383	-108.687	-0.072	0.016
-689.368	18.077	-0.127	0.103
-688.354	677.485	-0.098	0.259
-687.339	30.060	0.105	-0.090
-686.324	-200.000	-0.043	-0.282
-685.310	2.062	0.043	-0.031
-684.295	271.912	0.155	-0.278
-683.281	670.771	0.046	0.121
-682.266	-145.758	0.059	-0.005
-681.251	88.944	0.053	0.060
-680.237	-200.000	0.020	-0.108
-679.222	-22.131	0.099	0.061
-678.208	-200.000	0.069	-0.532
-677.193	800.000	0.044	-0.144
-676.178	-12.485	-0.295	0.195
-675.164	147.292	-0.083	0.113
-674.149	60.241	-0.222	-0.223
-673.135	-105.246	-0.336	-0.078
-672.120	58.987	0.078	0.078
-671.105	415.777	-0.101	-0.217
-670.091	78.209	0.116	0.126
-669.076	-9.924	-0.161	-0.109
-668.062	116.588	0.152	-0.189
-667.047	-176.403	-0.212	0.006
-666.032	-200.000	-0.066	-0.304
-665.018	-200.000	0.007	-0.029
-664.003	-54.466	0.376	-0.173
-662.989	51.852	-0.241	-0.233
-661.974	139.117	0.081	0.108
-660.959	93.766	-0.191	-0.220
-659.945	251.441	-0.176	-0.303
-658.930	230.183	-0.109	0.180
-657.916	219.943	-0.043	0.069
-656.901	2.988	-0.105	0.078
-655.886	277.496	0.126	0.227
-654.872	360.762	-0.085	-0.172
-653.857	-200.000	-0.008	-0.218
-652.843	338.814	0.043	0.084
-651.828	-126.231	0.338	-0.051
-650.814	425.758	-0.062	0.135
-649.799	-10.686	0.114	-0.076
-648.784	-80.398	-0.068	0.023
-647.770	-200.000	0.024	0.295
-646.755	-145.167	-0.155	-0.014
-645.741	-140.503	0.149	0.016
-644.726	800.000	-0.057	0.241
-643.711	-79.557	-0.285	0.098
-642.697	43.374	-0.254	0.236
-641.682	-200.000	0.094	-0.426
-640.668	-45.165	-0.275	0.139
-639.653	141.120	-0.073	0.097
-638.638	-66.137	-0.090	-0.037
-637.624	800.000	0.172	0.499
-636.609	140.265	-0.235	-0.314
-635.595	-27.195	0.554	-0.327
-634.580	-200.000	0.008	0.092
-633.565	147.087	-0.247	-0.337
-632.551	144.589	0.323	-0.438
-631.536	7.590	0.164	-0.124
-630.522	800.000	0.030	0.087
-629.507	-200.000	0.026	0.162
-628.492	-66.248	0.200	-0.081
-627.478	800.000	-0.037	0.107
-626.463	-43.536	-0.195	0.100
-625.449	41.022	0.258	0.236
-624.434	561.211	0.157	-0.384
-623.419	-200.000	0.009	0.331
-622.405	-200.000	-0.045	-0.405
-621.390	-114.611	0.164	0.032
-620.376	800.000	0.035	0.146
-619.361	-26.513	-0.186	-0.110
-618.346	-12.628	-0.170	-0.112
-617.332	-63.179	0.329	0.137
-616.317	-200.000	0.014	0.134
-615.303	188.674	0.039	-0.060
-614.288	1.194	-0.134	0.097
-613.273	268.374	0.070	0.125
-612.259	-91.557	-0.174	-0.050
-611.244	-167.602	-0.111	0.004
-610.230	-178.563	0.193	-0.005
-609.215	800.000	0.011	-0.045
-608.201	-108.910	0.381	-0.082
-607.186	-5.926	-0.079	-0.055
-606.171	129.375	-0.122	0.157
-605.157	-51.601	-0.077	-0.036
-604.142	-59.301	-0.213	0.093
-603.128	206.144	-0.120	0.189
-602.113	273.755	-0.075	0.134
-601.098	7.265	0.331	0.250
-600.084	800.000	0.050	-0.186
-599.069	-200.000	-0.055	0.276
-598.055	-200.000	-0.047	0.279
-597.040	362.574	0.161	-0.328
-596.025	-63.595	0.165	0.068
-595.011	-44.170	-0.086	0.044
-593.996	-125.732	-0.356	0.055
-592.982	-8.335	0.176	0.120
-591.967	322.358	0.061	-0.118
-590.952	-200.000	-0.012	-0.235
-589.938	-200.000	-0.043	-0.350
-588.923	40.431	0.131	0.119
-587.909	48.715	0.073	0.069
-586.894	-84.759	0.148	0.047
-585.879	33.117	-0.276	-0.242
-584.865	-111.502	0.458	-0.094
-583.850	429.217	-0.044	-0.097
-582.836	-172.389	0.397	0.013
-581.821	-195.348	0.145	-0.001
-580.806	-163.510	0.247	-0.012
-579.792	12.088	-0.155	-0.121
-578.777	-45.904	-0.250	-0.125
-577.763	28.527	0.082	0.070
-576.748	-27.040	0.166	-0.098
-575.733	200.825	-0.080	0.124
-574.719	-40.370	0.176	0.092
-573.704	-111.556	-0.431	0.088
-572.690	-200.000	-0.004	-0.249
-571.675	-100.641	0.099	-0.025
-570.661	371.693	-0.089	-0.182
-569.646	43.143	0.294	0.271
-568.631	-54.041	-0.104	0.048
-567.617	-200.000	0.047	-0.509
-566.602	88.729	0.093	0.105
-565.588	-25.145	-0.124	-0.074
-564.573	-106.315	0.157	-0.035
-563.558	476.975	-0.012	-0.027
-562.544	-93.281	-0.171	-0.048
-561.529	531.441	0.115	0.275
-560.515	173.395	-0.140	0.204
-559.500	439.852	0.034	-0.075
-558.485	393.824	-0.089	-0.186
-557.471	384.993	0.158	-0.329
-556.456	106.568	0.016	0.020
-555.442	800.000	-0.040	-0.161
-554.427	-102.869	-0.358	-0.086
-553.412	94.434	-0.147	-0.168
-552.398	-81.512	-0.208	-0.069
-551.383	-154.886	0.293	0.020
-550.369	-86.306	-0.304	-0.095
-549.354	194.168	0.007	-0.010
-548.339	583.417	-0.033	-0.082
-547.325	143.881	0.079	-0.106
-546.310	-59.731	0.038	0.017
-545.296	63.656	0.145	-0.147
-544.281	764.339	-0.042	0.114
-543.266	775.757	0.106	0.293
-542.252	-104.182	-0.238	-0.056
-541.237	-200.000	0.020	0.602
-540.223	137.943	0.073	0.096
-539.208	-107.200	-0.218	-0.048
-538.193	-20.520	-0.209	0.130
-537.179	-144.804	-0.130	-0.012
-536.164	-111.664	0.136	0.028
-535.150	35.643	-0.234	0.207
-534.135	614.920	0.116	0.294
-533.121	-200.000	-0.008	0.217
-532.106	2.020	0.151	-0.110
-531.091	-138.255	0.261	0.029
-530.077	800.000	-0.043	0.167
-529.062	29.829	0.081	0.069
-528.048	-83.653	-0.134	0.043
-527.033	-144.878	0.313	0.029
-526.018	-35.358	-0.323	0.177
-525.004	-92.210	-0.311	-0.088
-523.989	-49.920	-0.287	-0.137
-522.975	52.949	0.141	0.136
-521.960	231.672	-0.090	-0.148
-520.945	25.380	-0.322	0.270
-519.931	-152.151	0.065	-0.005
-518.916	48.516	0.151	0.143
-517.902	-200.000	0.020	-0.127
-516.887	288.474	0.117	0.214
-515.872	258.577	-0.326	-0.567
-514.858	-200.000	-0.012	-0.267
-513.843	135.947	0.203	0.266
-512.829	-200.000	-0.021	-0.195
-511.814	29.425	0.068	0.058
-510.799	288.232	-0.066	-0.120
-509.785	-105.955	-0.401	0.091
-508.770	277.835	-0.054	-0.097
-507.756	104.308	-0.102	-0.121
-506.741	318.126	0.096	-0.184
-505.726	93.372	-0.028	0.032
-504.712	56.527	0.140	-0.137
-503.697	-74.587	0.017	-0.006
-502.683	154.984	-0.125	-0.173
-501.668	-200.000	0.007	0.251
-500.653	-33.084	-0.157	0.088
-499.639	-200.000	-0.028	-0.126
-498.624	183.835	0.124	0.185
-497.610	-200.000	0.004	0.156
-496.595	-30.382	-0.337	0.193
-495.581	-32.958	-0.204	-0.114
-494.566	-58.650	0.103	0.045
-493.551	116.513	0.170	-0.210
-492.537	3.002	-0.195	0.143
-491.522	-200.000	-0.047	-0.306
-490.508	-8.045	0.116	-0.079
-489.493	-200.000	0.017	0.302
-488.478	-28.528	-0.147	0.085
-487.464	-63.617	-0.302	-0.125
-486.449	98.268	-0.246	-0.285
-485.435	-112.406	-0.270	-0.054
-484.420	195.062	0.085	0.130
-483.405	-30.256	0.091	-0.052
-482.391	33.446	0.081	-0.071
-481.376	-45.533	0.172	0.086
-480.362	5.526	-0.134	-0.100
-479.347	257.199	-0.073	0.127
-478.332	139.758	0.185	0.246
-477.318	-134.599	-0.304	0.037
-476.303	400.343	0.077	0.162
-475.289	-67.059	-0.066	0.026
-474.274	-80.464	-0.199	0.067
-473.259	22.137	-0.030	0.025
-472.245	48.626	0.027	0.026
-471.230	-8.251	0.149	0.101
-470.216	-150.971	0.133	-0.010
-469.201	-200.000	0.004	-0.342
-468.186	20.878	-0.086	-0.070
-467.172	800.000	0.020	0.057
-466.157	-200.000	0.003	0.143
-465.143	-5.344	-0.141	0.097
-464.128	170.507	-0.252	0.363
-463.113	-68.124	-0.079	0.031
-462.099	-67.816	0.232	-0.091
-461.084	-43.626	0.224	-0.114
-460.070	800.000	0.027	-0.077
-459.055	402.015	-0.044	-0.092
-458.040	-70.310	0.241	-0.092
-457.026	-200.000	-0.007	-0.122
-456.011	54.115	0.043	0.042
-454.997	77.166	0.059	-0.063
-453.982	-131.694	-0.132	0.017
-452.968	-165.091	-0.318	-0.014
-451.953	-143.262	0.315	-0.030
-450.938	322.213	0.135	0.258
-449.924	800.000	-0.058	0.227
-448.909	-41.717	-0.094	0.048
-447.895	-200.000	-0.036	0.199
-446.880	800.000	0.061	-0.239
-445.865	186.863	0.111	0.167
-444.851	-200.000	0.023	0.320
-443.836	114.809	0.071	0.087
-442.822	113.169	0.139	0.170
-441.807	800.000	-0.047	0.147
-440.792	114.128	-0.038	0.047
-439.778	-200.000	0.012	-0.377
-438.763	-90.595	0.228	0.066
-437.749	64.615	0.146	-0.148
-436.734	9.494	0.066	0.050
-435.719	111.904	0.192	-0.233
-434.705	-48.053	0.238	-0.116
-433.690	-127.961	0.091	-0.013
-432.676	-200.000	0.037	-0.352
-431.661	160.121	-0.051	0.071
-430.646	-151.931	0.276	-0.020
-429.632	240.031	-0.106	0.177
-428.617	800.000	0.091	0.338
-427.603	-74.535	0.243	-0.088
-426.588	583.468	-0.059	-0.146
-425.573	103.401	0.223	0.263
-424.559	-19.611	-0.254	-0.158
-423.544	205.693	-0.176	0.275
-422.530	402.241	-0.090	0.191
-421.515	85.982	0.279	-0.308
-420.500	62.733	-0.071	-0.071
-419.486	124.156	-0.126	-0.159
-418.471	800.000	0.039	-0.134
-417.457	210.973	0.086	0.136
-416.442	89.308	0.203	-0.227
-415.428	51.906	-0.113	0.108
-414.413	-200.000	0.071	-0.317
-413.398	-70.916	-0.224	-0.085
-412.384	-68.049	0.223	0.087
-411.369	-122.356	0.268	0.044
-410.355	16.884	0.135	0.107
-409.340	-85.173	-0.307	0.096
-408.325	-89.685	0.332	-0.098
-407.311	-200.000	0.026	-0.143
-406.296	-53.057	0.022	-0.010
-405.282	-89.494	-0.430	-0.127
-404.267	-5.351	0.088	0.061
-403.252	186.216	-0.102	-0.152
-402.238	187.684	0.062	-0.093
-401.223	70.231	0.195	-0.202
-400.209	593.837	0.103	-0.255
-399.194	800.000	-0.020	-0.068
-398.179	-200.000	-0.026	0.435
-397.165	-106.374	-0.238	-0.053
-396.150	-200.000	0.000	-0.084
-395.136	-7.837	-0.142	0.096
-394.121	206.251	0.183	-0.286
-393.106	581.855	-0.143	0.351
-392.092	-200.000	0.017	0.130
-391.077	146.633	0.190	0.256
-390.063	-52.968	0.101	0.046
-389.048	533.741	0.123	-0.292
-388.033	-63.646	0.134	0.055
-387.019	75.121	-0.159	-0.168
-386.004	96.382	0.015	0.017
-384.990	506.255	-0.023	-0.052
-383.975	170.969	0.088	0.126
-382.960	-200.000	0.003	0.061
-381.946	53.217	-0.211	-0.203
-380.931	17.877	0.199	-0.159
-379.917	38.297	-0.180	0.161
-378.902	-30.987	-0.211	-0.120
-377.888	-200.000	-0.026	0.439
-376.873	153.735	-0.217	-0.299
-375.858	-111.270	-0.197	-0.040
-374.844	-163.220	0.473	0.023
-373.829	141.556	-0.145	0.192
-372.815	-27.358	0.353	-0.206
-371.800	800.000	0.054	-0.184
-370.785	209.805	0.052	0.083
-369.771	-39.571	0.069	-0.036
-368.756	76.083	-0.133	-0.141
-367.742	800.000	-0.050	-0.139
-366.727	378.801	-0.048	0.098
-365.712	7.490	-0.094	0.071
-364.698	554.543	0.131	-0.316
-363.683	-89.930	-0.169	0.050
-362.669	-106.768	-0.266	0.059
-361.654	-140.236	-0.038	-0.004
-360.639	800.000	-0.113	0.360
-359.625	-93.478	0.033	-0.009
-358.610	78.383	-0.030	-0.033
-357.596	485.357	0.113	-0.259
-356.581	274.341	0.102	-0.181
-355.566	800.000	0.052	-0.205
-354.552	328.424	0.119	-0.228
-353.537	233.918	0.121	-0.200
-352.523	564.382	0.103	0.250
-351.508	-93.103	0.123	0.034
-350.493	-200.000	0.013	0.125
-349.479	-200.000	-0.035	0.192
-348.464	-200.000	0.038	0.331
-347.450	36.312	-0.252	0.222
-346.435	31.560	-0.115	-0.099
-345.420	142.171	-0.108	0.144
-344.406	-130.311	0.079	0.011
-343.391	13.060	0.108	0.083
-342.377	344.521	0.065	0.128
-341.362	-97.940	0.107	0.028
-340.348	-98.375	0.500	0.128
-339.333	435.672	-0.065	-0.142
-338.318	-200.000	0.013	-0.136
-337.304	183.156	-0.201	0.297
-336.289	266.384	-0.187	-0.327
-335.275	-58.911	0.309	-0.134
-334.260	117.321	-0.094	0.115
-333.245	-53.160	-0.063	-0.029
-332.231	426.574	-0.207	-0.446
-331.216	13.093	-0.172	-0.134
-330.202	800.000	-0.011	-0.044
-329.187	661.387	0.110	0.285
-328.172	32.059	-0.330	-0.285
-327.158	576.439	-0.018	-0.045
-326.143	26.044	0.185	0.154
-325.129	-9.567	0.060	-0.040
-324.114	-43.734	-0.173	-0.087
-323.099	84.340	-0.038	-0.042
-322.085	-200.000	-0.017	0.137
-321.070	333.156	0.072	-0.138
-320.056	547.134	-0.150	0.360
-319.041	-118.416	-0.152	-0.027
-318.026	491.316	0.187	-0.429
-317.012	373.886	-0.213	-0.433
-315.997	401.466	-0.115	-0.243
-314.983	-107.463	-0.285	0.063
-313.968	-128.859	0.268	0.038
-312.953	-34.516	0.230	-0.126
-311.939	70.014	0.026	0.027
-310.924	-69.160	-0.138	0.053
-309.910	197.193	-0.124	0.190
-308.895	-23.005	0.262	0.158
-307.880	-200.000	-0.019	0.128
-306.866	-200.000	-0.007	0.253
-305.851	-139.744	-0.114	-0.012
-304.837	-167.966	0.121	-0.005
-303.822	-200.000	0.025	0.209
-302.807	-200.000	0.012	0.120
-301.793	511.727	0.050	0.117
-300.778	-62.882	0.138	-0.057
-299.764	800.000	-0.106	-0.312
-298.749	385.402	-0.123	-0.254
-297.735	-12.028	0.388	0.254
-296.720	-200.000	-0.024	-0.341
-295.705	-40.383	0.135	-0.070
-294.691	371.347	0.064	-0.131
-293.676	-143.291	-0.215	-0.021
-292.662	117.926	-0.097	-0.119
-291.647	-123.180	-0.349	-0.056
-290.632	-200.000	-0.044	-0.235
-289.618	132.360	0.111	0.144
-288.603	-13.954	0.087	-0.056
-287.589	79.568	-0.173	0.186
-286.574	-86.664	-0.291	0.089
-285.559	63.502	0.033	0.033
-284.545	-129.230	-0.246	0.034
-283.530	144.870	0.225	-0.300
-282.516	-60.229	0.177	0.075
-281.501	-200.000	-0.026	-0.179
-280.486	55.336	-0.082	0.079
-279.472	-117.187	-0.141	0.026
-278.457	-47.294	-0.142	-0.069
-277.443	403.766	0.058	-0.122
-276.428	800.000	-0.092	0.286
-275.413	-200.000	-0.055	0.353
-274.399	483.671	0.055	-0.125
-273.384	48.653	-0.040	0.038
-272.370	105.145	-0.274	0.323
-271.355	363.413	-0.097	-0.194
-270.340	-180.102	0.167	-0.004
-269.326	-64.330	-0.193	-0.078
-268.311	-200.000	0.035	0.266
-267.297	-41.434	-0.227	-0.117
-266.282	800.000	-0.077	-0.256
-265.267	27.641	0.182	-0.153
-264.253	-0.781	-0.075	0.053
-263.238	88.848	0.199	-0.221
-262.224	-130.497	0.387	0.052
-261.209	-110.140	0.301	0.063
-260.195	800.000	-0.008	-0.029
-259.180	-49.515	0.078	0.037
-258.165	-13.609	-0.126	0.082
-257.151	390.912	0.113	0.234
-256.136	36.431	-0.220	-0.194
-255.122	-200.000	0.023	0.164
-254.107	-200.000	0.004	0.032
-253.092	85.210	0.154	-0.168
-252.078	-200.000	0.000	0.173
-251.063	-200.000	-0.002	0.122
-250.049	-0.537	-0.176	-0.125
-249.034	-62.449	-0.212	-0.088
-248.019	-200.000	-0.013	0.246
-247.005	315.340	-0.097	-0.182
-245.990	-200.000	0.001	0.041
-244.976	-98.204	0.191	-0.049
-243.961	-40.959	0.199	-0.103
-242.946	182.516	-0.118	-0.174
-241.932	-119.569	0.194	0.034
-240.917	800.000	-0.115	-0.409
-239.903	170.604	-0.145	0.207
-238.888	-124.328	0.073	0.011
-237.873	132.981	-0.272	-0.350
-236.859	36.182	-0.182	0.160
-235.844	-178.033	0.418	-0.010
-234.830	-144.212	0.128	-0.012
-233.815	-200.000	-0.040	0.190
-232.800	476.241	-0.076	0.172
-231.786	23.484	0.192	0.158
-230.771	-200.000	0.034	0.169
-229.757	106.505	0.152	-0.179
-228.742	800.000	0.039	0.118
-227.727	-96.511	0.082	-0.021
-226.713	-168.182	0.071	0.003
-225.698	-113.053	0.153	-0.030
-224.684	22.144	-0.059	0.048
-223.669	-200.000	0.026	0.206
-222.655	165.064	0.034	-0.048
-221.640	244.148	-0.191	-0.320
-220.625	397.898	0.115	0.239
-219.611	-164.906	0.320	0.014
-218.596	800.000	-0.049	0.191
-217.582	-137.605	-0.484	0.054
-216.567	115.651	-0.161	0.196
-215.552	800.000	0.110	-0.354
-214.538	213.743	-0.084	-0.132
-213.523	-161.017	-0.204	-0.011
-212.509	406.132	0.068	-0.143
-211.494	-101.919	-0.256	-0.062
-210.479	223.134	-0.055	0.089
-209.465	-200.000	-0.020	0.209
-208.450	188.033	-0.150	0.223
-207.436	-9.441	0.174	0.116
-206.421	800.000	0.027	-0.087
-205.406	-200.000	-0.064	-0.365
-204.392	165.722	-0.028	0.040
-203.377	-62.808	-0.039	0.016
-202.363	800.000	-0.117	-0.353
-201.348	-8.762	-0.081	0.054
-200.333	-2.150	0.070	-0.049
-199.319	-62.688	0.249	-0.103
-198.304	-148.510	0.107	0.009
-197.290	-138.664	0.114	-0.012
-196.275	3.658	0.375	0.272
-195.260	238.241	-0.181	0.298
-194.246	-200.000	-0.002	-0.140
-193.231	543.483	0.048	-0.114
-192.217	49.523	-0.133	0.125
-191.202	54.898	-0.155	-0.149
-190.187	-17.511	0.145	0.091
-189.173	15.570	0.289	0.226
-188.158	194.437	0.106	0.160
-187.144	146.892	-0.068	-0.091
-186.129	-200.000	0.080	0.413
-185.114	-45.792	-0.075	0.037
-184.100	36.619	0.190	-0.167
-183.085	6.226	-0.309	0.228
-182.071	-200.000	0.016	0.241
-181.056	107.801	-0.067	0.079
-180.042	424.520	0.046	0.098
-179.027	-125.308	-0.149	0.023
-178.012	57.808	-0.058	0.056
-176.998	800.000	0.083	-0.241
-175.983	367.134	-0.101	0.202
-174.969	184.875	-0.116	0.172
-173.954	-146.349	0.379	-0.033
-172.939	17.391	-0.211	0.167
-171.925	299.739	0.254	-0.465
-170.910	36.333	0.068	-0.060
-169.896	44.384	-0.067	0.061
-168.881	76.012	0.164	0.173
-167.866	-11.071	-0.164	-0.107
-166.852	-15.982	0.231	0.146
-165.837	-108.791	-0.081	0.017
-164.823	-200.000	-0.017	-0.117
-163.808	274.548	0.133	-0.233
-162.793	178.594	0.082	0.120
-161.779	-140.386	0.057	0.006
-160.764	152.787	0.027	0.037
-159.750	-31.163	-0.232	0.130
-158.735	-123.109	-0.311	0.050
-157.720	623.062	0.073	0.183
-156.706	-76.710	0.125	-0.044
-155.691	-133.229	-0.263	0.033
-154.677	-26.342	-0.293	-0.171
-153.662	271.762	0.125	-0.220
-152.647	-71.063	0.281	-0.105
-151.633	-100.398	0.218	0.054
-150.618	38.468	-0.073	0.065
-149.604	-173.992	-0.166	0.005
-148.589	171.776	-0.033	0.048
-147.574	330.501	0.099	0.190
-146.560	800.000	0.046	0.171
-145.545	96.629	0.193	-0.219
-144.531	800.000	-0.010	0.040
-143.516	800.000	0.075	-0.251
-142.502	246.130	0.095	-0.159
-141.487	-200.000	-0.002	0.076
-140.472	-114.215	-0.155	0.030
-139.458	-200.000	0.011	0.066
-138.443	346.210	-0.149	-0.290
-137.429	60.515	-0.033	-0.032
-136.414	49.196	-0.147	-0.137
-135.399	-107.012	0.457	0.100
-134.385	104.268	-0.133	0.156
-133.370	-64.746	0.034	-0.014
-132.356	-200.000	0.022	0.150
-131.341	754.989	0.041	-0.110
-130.326	231.615	0.226	-0.369
-129.312	-200.000	-0.043	-0.204
-128.297	-24.831	-0.131	-0.077
-127.283	766.284	-0.098	0.265
-126.268	-85.589	-0.232	0.071
-125.253	295.870	0.101	-0.183
-124.239	-200.000	0.041	0.321
-123.224	-159.121	-0.435	0.024
-122.210	-88.376	0.160	0.047
-121.195	-45.597	0.279	-0.137
-120.180	-156.611	-0.169	0.010
-119.166	-40.032	0.077	0.040
-118.151	139.946	0.091	0.119
-117.137	108.466	-0.189	0.224
-116.122	127.356	0.172	0.217
-115.107	800.000	0.075	0.237
-114.093	508.422	-0.177	0.409
-113.078	-200.000	0.002	-0.045
-112.064	-130.536	0.196	-0.026
-111.049	53.468	-0.121	0.115
-110.034	-51.066	0.143	-0.067
-109.020	270.774	0.095	-0.166
-108.005	116.930	0.163	0.199
-106.991	800.000	0.070	0.244
-105.976	388.357	-0.077	0.159
-104.962	-200.000	-0.009	0.099
-103.947	-200.000	-0.030	0.451
-102.932	-200.000	0.028	-0.229
-101.918	-27.730	0.127	-0.073
-100.903	90.043	0.067	-0.075
-99.889	-85.526	0.098	0.030
-98.874	-24.708	0.255	0.151
-97.859	-200.000	-0.034	0.210
-96.845	-124.342	0.146	-0.023
-95.830	-176.447	-0.138	-0.004
-94.816	372.089	-0.018	0.036
-93.801	126.314	-0.087	-0.109
-92.786	-74.799	0.237	-0.084
-91.772	800.000	-0.047	-0.129
-90.757	384.470	-0.177	-0.362
-89.743	-31.588	0.078	0.043
-88.728	-43.464	-0.117	0.059
-87.713	80.686	0.265	0.283
-86.699	-131.757	0.101	-0.013
-85.684	-144.901	0.301	-0.027
-84.670	-129.802	0.357	0.049
-83.655	-200.000	-0.078	-0.351
-82.640	404.645	-0.166	0.348
-81.626	9.290	-0.140	-0.105
-80.611	326.336	0.114	0.217
-79.597	800.000	-0.107	-0.327
-78.582	96.619	0.261	-0.296
-77.567	-45.797	0.272	0.133
-76.553	164.843	-0.035	0.049
-75.538	13.728	0.359	-0.277
-74.524	-200.000	0.038	0.186
-73.509	389.558	-0.036	0.073
-72.494	499.762	0.027	0.061
-71.480	141.219	0.203	0.266
-70.465	-53.863	0.073	-0.033
-69.451	-200.000	-0.024	0.117
-68.436	-200.000	0.040	0.316
-67.422	58.411	0.261	-0.254
-66.407	104.490	0.100	0.117
-65.392	151.041	0.084	0.114
-64.378	-8.336	-0.193	0.128
-63.363	-46.081	0.097	-0.047
-62.349	-56.937	0.108	-0.047
-61.334	47.440	-0.870	-0.803
-60.319	22.048	0.664	0.537
-59.305	-200.000	-0.220	-1.136
-58.290	800.000	0.330	1.070
-57.276	744.438	0.606	1.615
-56.261	-200.000	95.613	573.701
-55.246	640.990	1372.643	3460.912
-54.232	195.820	2552.757	3844.526
-53.217	109.984	2300.083	2732.802
-52.203	39.306	2061.495	1827.241
-51.188	34.401	1977.358	1708.762
-50.173	32.902	1959.445	1679.886
-49.159	47.690	2007.887	1854.914
-48.144	48.961	2025.952	1882.984
-47.130	35.056	1987.976	1723.563
-46.115	32.617	1977.840	1692.830
-45.100	32.567	1975.467	1690.282
-44.086	32.539	1972.898	1687.766
-43.071	32.564	1969.894	1685.354
-42.057	32.435	1967.969	1682.486
-41.042	32.482	1965.505	1680.737
-40.027	32.619	1963.273	1679.978
-39.013	32.614	1961.347	1678.220
-37.998	32.646	1959.320	1676.701
-36.984	32.593	1958.387	1675.363
-35.969	32.580	1956.356	1673.446
-34.954	32.683	1954.030	1672.303
-33.940	32.649	1953.441	1671.437
-32.925	32.720	1951.317	1670.179
-31.911	32.685	1950.112	1668.773
-30.896	32.667	1948.361	1667.045
-29.881	32.699	1947.032	1666.123
-28.867	32.720	1945.691	1665.103
-27.852	32.651	1943.932	1662.919
-26.838	32.718	1941.369	1661.255
-25.823	32.727	1939.376	1659.562
-24.809	32.687	1938.172	1658.106
-23.794	32.711	1936.413	1656.753
-22.779	32.692	1934.277	1654.689
-21.765	32.566	1932.952	1652.388
-20.750	32.682	1931.117	1651.772
-19.736	32.700	1929.550	1650.521
-18.721	32.710	1927.446	1648.743
-17.706	32.711	1926.231	1647.646
-16.692	32.626	1924.476	1645.338
-15.677	32.711	1922.960	1644.718
-14.663	32.699	1921.371	1643.191
-13.648	32.775	1920.026	1642.637
-12.633	32.696	1918.992	1641.000
-11.619	32.675	1917.821	1639.750
-10.604	32.770	1915.810	1638.793
-9.590	32.667	1914.760	1636.934
-8.575	32.698	1913.535	1636.084
-7.560	32.678	1912.698	1635.131
-6.546	32.536	1911.597	1632.897
-5.531	32.739	1909.666	1632.938
-4.517	32.772	1908.309	1632.003
-3.502	32.709	1907.336	1630.563
-2.487	32.666	1906.431	1629.348
-1.473	32.678	1905.650	1628.723
-0.458	32.672	1901.108	1624.726
0.556	32.491	1881.154	1597.688
1.571	28.417	1861.961	1546.940
2.586	24.369	1884.527	1530.895
3.600	23.350	1920.496	1551.058
4.615	22.678	1915.476	1541.001
5.629	17.641	1814.406	1417.763
6.644	9.027	1696.906	1258.533
7.659	5.108	1660.963	1201.629
8.673	4.761	1658.127	1196.807
9.688	4.785	1655.666	1195.105
10.702	4.652	1655.268	1193.696
11.717	4.672	1652.360	1191.644
12.731	5.147	1651.411	1194.491
13.746	10.745	1664.442	1246.889
14.761	18.157	1679.555	1315.310
15.775	20.086	1681.616	1331.647
16.790	19.095	1678.653	1321.579
17.804	18.049	1675.384	1310.865
18.819	17.090	1672.024	1300.779
19.834	16.423	1669.156	1293.326
20.848	16.100	1668.282	1290.067
21.863	15.933	1666.367	1287.199
22.877	15.675	1665.038	1284.082
23.892	15.471	1664.145	1281.729
24.907	15.348	1662.810	1279.647
25.921	15.378	1661.944	1279.095
26.936	15.341	1661.365	1278.252
27.950	15.418	1659.481	1277.275
28.965	15.369	1659.734	1276.989
29.980	15.537	1658.472	1277.182
30.994	15.539	1657.845	1276.595
32.009	15.690	1656.356	1276.486
33.023	15.818	1655.508	1276.693
34.038	15.754	1655.048	1275.736
35.053	15.676	1653.739	1274.027
36.067	15.576	1652.224	1271.986
37.082	15.570	1651.037	1270.919
38.096	15.542	1650.590	1270.245
39.111	15.550	1649.444	1269.314
40.126	15.637	1648.964	1269.489
41.140	15.603	1648.073	1268.437
42.155	15.492	1646.085	1265.952
43.169	15.330	1644.799	1263.634
44.184	15.297	1643.472	1262.257
45.199	15.323	1642.380	1261.497
46.213	15.385	1640.842	1260.670
47.228	15.349	1640.413	1259.961
48.242	15.468	1638.852	1259.540
49.257	15.476	1638.042	1258.869
50.271	15.592	1636.465	1258.414
51.286	15.490	1635.605	1256.877
52.301	15.596	1633.948	1256.286
53.315	15.495	1633.107	1254.770
54.330	15.502	1631.393	1253.396
55.344	15.321	1629.922	1250.804
56.359	15.335	1628.586	1249.774
57.374	15.382	1627.755	1249.378
58.388	15.309	1626.885	1248.057
59.403	15.336	1625.178	1246.836
60.417	15.316	1623.583	1245.353
61.432	15.292	1622.805	1244.469
62.447	15.233	1621.506	1242.928
63.461	15.185	1620.314	1241.549
64.476	15.221	1619.299	1240.926
65.490	15.220	1618.207	1239.969
66.505	15.168	1617.059	1238.595
67.520	15.130	1616.343	1237.655
68.534	15.222	1615.107	1237.284
69.549	15.180	1614.312	1236.251
70.563	15.186	1613.055	1235.224
71.578	15.205	1611.949	1234.413
72.593	15.255	1610.274	1233.387
73.607	15.100	1609.458	1231.513
74.622	15.116	1608.104	1230.484
75.636	15.051	1607.394	1229.352
76.651	15.094	1606.185	1228.635
77.666	15.073	1606.178	1228.367
78.680	15.146	1604.566	1227.564
79.695	15.062	1604.180	1226.545
80.709	15.220	1603.038	1226.717
81.724	15.247	1602.004	1226.014
82.739	15.274	1601.629	1225.815
83.753	15.366	1601.112	1225.988
84.768	15.367	1600.049	1225.072
85.782	15.455	1599.194	1224.949
86.797	15.547	1598.234	1224.777
87.812	15.614	1597.305	1224.447
88.826	15.521	1595.992	1222.649
89.841	15.415	1595.212	1221.175
90.855	15.496	1594.018	1220.744
91.870	15.433	1593.390	1219.695
92.884	15.431	1592.733	1219.066
93.899	15.525	1591.570	1218.752
94.914	15.621	1590.061	1218.185
95.928	15.587	1589.258	1217.215
96.943	15.648	1587.511	1216.215
97.957	15.597	1586.332	1214.837
98.972	15.556	1584.549	1213.064
99.987	15.655	1582.636	1212.207
101.001	15.614	1581.613	1211.022
102.016	15.599	1580.096	1209.645
103.030	15.539	1578.594	1207.953
104.045	15.523	1578.019	1207.291
105.060	15.612	1576.585	1206.730
106.074	15.486	1575.229	1204.678
107.089	15.506	1573.136	1203.117
108.103	15.267	1572.087	1200.492
109.118	15.266	1570.115	1198.874
110.133	15.156	1569.561	1197.563
111.147	15.153	1567.967	1196.214
112.162	15.252	1566.348	1195.585
113.176	15.202	1565.285	1194.311
114.191	15.234	1563.802	1193.297
115.206	15.349	1562.743	1193.206
116.220	15.367	1561.451	1192.240
117.235	15.432	1559.743	1191.292
118.249	15.306	1559.015	1189.735
119.264	15.288	1557.535	1188.374
120.279	15.379	1555.425	1187.303
121.293	15.265	1554.664	1185.809
122.308	15.112	1553.443	1183.692
123.322	15.160	1551.440	1182.402
124.337	15.140	1549.773	1180.884
125.352	15.140	1548.761	1180.014
126.366	15.158	1547.555	1179.116
127.381	15.122	1546.680	1178.092
128.395	15.217	1545.479	1177.736
129.410	15.225	1544.174	1176.697
130.424	15.316	1542.432	1175.901
131.439	15.235	1541.803	1174.749
132.454	15.263	1540.461	1173.818
133.468	15.322	1538.592	1172.704
134.483	15.349	1537.273	1171.782
135.497	15.356	1536.526	1171.161
136.512	15.441	1534.496	1170.103
137.527	15.448	1533.303	1169.137
138.541	15.343	1532.144	1167.423
139.556	15.439	1530.651	1166.843
140.570	15.479	1529.762	1166.342
141.585	15.600	1528.355	1166.008
142.600	15.537	1527.500	1164.813
143.614	15.570	1526.456	1164.146
144.629	15.787	1524.397	1163.972
145.643	15.721	1523.460	1162.699
146.658	15.740	1522.713	1162.153
147.673	15.734	1520.353	1160.211
148.687	15.622	1518.925	1158.244
149.702	15.519	1517.546	1156.381
150.716	15.549	1515.884	1155.219
151.731	15.582	1514.458	1154.256
152.746	15.536	1513.381	1153.022
153.760	15.557	1511.720	1151.799
154.775	15.527	1510.970	1150.918
155.789	15.609	1509.616	1150.347
156.804	15.635	1508.675	1149.707
157.819	15.681	1507.432	1148.973
158.833	15.728	1505.908	1148.031
159.848	15.754	1504.988	1147.400
160.862	15.756	1503.944	1146.519
161.877	15.803	1502.648	1145.749
162.892	15.817	1501.406	1144.799
163.906	15.687	1500.268	1142.943
164.921	15.551	1498.621	1140.661
165.935	15.552	1498.069	1140.146
166.950	15.580	1496.993	1139.420
167.964	15.632	1495.597	1138.607
168.979	15.657	1494.458	1137.813
169.994	15.653	1494.017	1137.344
171.008	15.563	1493.166	1135.988
172.023	15.653	1491.816	1135.467
173.037	15.694	1490.686	1134.787
174.052	15.851	1489.429	1134.784
175.067	15.899	1488.111	1134.005
176.081	15.737	1487.338	1132.224
177.096	15.638	1485.823	1130.306
178.110	15.672	1484.851	1129.694
179.125	15.703	1483.635	1128.877
180.140	15.673	1482.891	1128.012
181.154	15.710	1481.544	1127.138
182.169	15.791	1480.443	1126.739
183.183	15.813	1479.406	1125.998
184.198	15.837	1478.438	1125.319
185.213	15.925	1477.107	1124.798
186.227	15.853	1476.343	1123.634
187.242	15.996	1475.015	1123.482
188.256	16.042	1473.979	1122.896
189.271	16.130	1472.920	1122.577
190.286	16.177	1471.768	1121.910
191.300	16.077	1470.688	1120.327
192.315	15.929	1469.384	1118.253
193.329	15.684	1467.835	1115.346
194.344	15.624	1467.034	1114.240
195.359	15.679	1466.114	1113.810
196.373	15.852	1465.207	1114.169
197.388	15.920	1464.409	1113.914
198.402	16.006	1463.106	1113.392
199.417	16.064	1462.248	1113.021
200.432	16.164	1461.205	1112.791
201.446	16.194	1460.877	1112.638
202.461	16.276	1459.316	1111.888
203.475	16.316	1458.575	1111.490
204.490	16.350	1457.582	1110.860
205.504	16.346	1456.448	1109.874
206.519	16.177	1455.466	1107.916
207.534	16.185	1453.982	1106.740
208.548	16.168	1452.942	1105.740
209.563	16.219	1451.983	1105.243
210.577	16.119	1451.314	1103.985
211.592	16.061	1450.376	1102.793
212.607	16.202	1449.546	1102.984
213.621	16.278	1448.704	1102.742
214.636	16.352	1447.783	1102.429
215.650	16.406	1446.613	1101.789
216.665	16.317	1446.109	1100.729
217.680	16.305	1445.136	1099.813
218.694	16.379	1444.469	1099.691
219.709	16.395	1443.754	1099.150
220.723	16.386	1442.538	1098.071
221.738	16.450	1441.860	1097.876
222.753	16.516	1440.584	1097.234
223.767	16.438	1439.915	1096.119
224.782	16.456	1438.486	1095.052
225.796	16.499	1437.620	1094.573
226.811	16.554	1436.833	1094.236
227.826	16.582	1436.558	1094.107
228.840	16.528	1435.388	1092.774
229.855	16.446	1434.655	1091.589
230.869	16.430	1433.668	1090.641
231.884	16.469	1432.618	1089.994
232.899	16.495	1431.113	1088.921
233.913	16.435	1429.954	1087.555
234.928	16.413	1428.595	1086.288
235.942	16.384	1427.299	1085.017
236.957	16.410	1426.261	1084.299
237.972	16.400	1425.210	1083.338
238.986	16.325	1424.315	1082.082
240.001	16.404	1423.366	1081.771
241.015	16.391	1422.598	1081.009
242.030	16.526	1420.917	1080.502
243.045	16.464	1420.509	1079.701
244.059	16.559	1419.255	1079.256
245.074	16.613	1418.574	1078.987
246.088	16.646	1418.039	1078.697
247.103	16.601	1417.192	1077.666
248.117	16.650	1416.423	1077.299
249.132	16.740	1415.385	1076.984
250.147	16.873	1414.742	1077.245
251.161	17.003	1414.257	1077.610
252.176	17.027	1414.177	1077.602
253.190	17.107	1413.459	1077.467
254.205	17.120	1412.378	1076.632
255.220	17.052	1411.712	1075.596
256.234	17.101	1411.012	1075.283
257.249	17.246	1409.972	1075.312
258.263	17.264	1408.793	1074.433
259.278	17.126	1408.597	1073.314
260.293	17.135	1407.676	1072.571
261.307	17.128	1406.677	1071.674
262.322	17.208	1406.249	1071.755
263.336	17.299	1405.412	1071.599
264.351	17.351	1404.057	1070.799
265.366	17.277	1403.091	1069.500
266.380	17.331	1402.181	1069.052
267.395	17.318	1401.363	1068.254
268.409	17.416	1400.359	1068.008
269.424	17.278	1399.107	1066.091
270.439	17.198	1398.312	1064.891
271.453	17.315	1397.238	1064.709
272.468	17.289	1395.982	1063.497
273.482	17.240	1395.803	1062.960
274.497	17.182	1394.862	1061.784
275.512	17.176	1394.315	1061.242
276.526	17.218	1393.404	1060.714
277.541	17.226	1392.033	1059.629
278.555	17.350	1391.042	1059.549
279.570	17.310	1390.696	1058.946
280.585	17.376	1389.426	1058.297
281.599	17.427	1388.646	1057.925
282.614	17.430	1387.883	1057.269
283.628	17.420	1386.812	1056.298
284.643	17.346	1385.905	1055.055
285.657	17.415	1384.502	1054.319
286.672	17.379	1383.728	1053.413
287.687	17.421	1382.773	1052.851
288.701	17.409	1381.811	1051.956
289.716	17.453	1380.869	1051.418
290.730	17.473	1380.181	1050.920
291.745	17.483	1379.044	1050.023
292.760	17.505	1378.756	1049.848
293.774	17.470	1377.548	1048.621
294.789	17.534	1376.250	1047.933
295.803	17.456	1376.314	1047.408
296.818	17.623	1375.102	1047.422
297.833	17.530	1374.343	1046.175
298.847	17.565	1372.854	1045.166
299.862	17.539	1372.073	1044.320
300.876	17.585	1370.780	1043.524
301.891	17.572	1370.319	1043.004
302.906	17.605	1369.491	1042.483
303.920	17.662	1368.525	1042.006
304.935	17.677	1368.373	1041.886
305.949	17.826	1367.221	1041.828
306.964	17.758	1366.611	1040.853
307.979	17.859	1365.598	1040.606
308.993	17.983	1364.242	1040.239
310.008	17.860	1363.343	1038.712
311.022	17.823	1362.512	1037.760
312.037	17.782	1361.750	1036.837
313.052	17.946	1360.677	1036.927
314.066	17.925	1359.825	1036.056
315.081	17.785	1358.487	1034.097
316.095	17.741	1357.619	1033.079
317.110	17.724	1356.093	1031.725
318.125	17.741	1355.019	1030.917
319.139	17.710	1354.693	1030.391
320.154	17.709	1353.471	1029.363
321.168	17.816	1352.467	1029.157
322.183	17.806	1351.255	1028.082
323.197	17.772	1350.730	1027.390
324.212	17.808	1349.808	1026.812
325.227	17.848	1349.373	1026.629
326.241	17.824	1348.508	1025.736
327.256	17.922	1347.443	1025.425
328.270	17.959	1346.625	1024.937
329.285	17.916	1345.852	1023.996
330.300	17.911	1344.792	1023.071
331.314	17.914	1344.167	1022.523
332.329	17.885	1342.975	1021.349
333.343	17.862	1342.191	1020.525
334.358	17.855	1341.686	1020.013
335.373	17.998	1340.565	1019.925
336.387	18.043	1339.518	1019.304
337.402	18.100	1338.879	1019.065
338.416	18.099	1338.399	1018.609
339.431	18.122	1337.195	1017.736
340.446	18.231	1336.403	1017.691
341.460	18.247	1336.083	1017.456
342.475	18.249	1335.352	1016.821
343.489	18.323	1334.369	1016.422
344.504	18.340	1333.559	1015.813
345.519	18.417	1332.259	1015.189
346.533	18.387	1331.555	1014.386
347.548	18.454	1330.688	1014.034
348.562	18.417	1329.895	1013.122
349.577	18.527	1329.434	1013.330
350.592	18.432	1328.162	1011.708
351.606	18.359	1327.528	1010.705
352.621	18.280	1326.360	1009.258
353.635	18.157	1325.593	1007.863
354.650	18.165	1324.692	1007.133
355.665	18.203	1323.835	1006.622
356.679	18.274	1322.147	1005.661
357.694	18.313	1321.155	1005.049
358.708	18.290	1320.426	1004.269
359.723	18.393	1319.434	1004.028
360.738	18.514	1318.021	1003.578
361.752	18.393	1317.476	1002.364
362.767	18.340	1316.530	1001.244
363.781	18.346	1315.839	1000.663
364.796	18.328	1315.202	999.987
365.810	18.544	1313.989	1000.237
366.825	18.639	1313.389	1000.244
367.840	18.611	1312.653	999.435
368.854	18.778	1311.962	999.789
369.869	18.699	1311.770	999.098
370.883	18.846	1310.870	999.175
371.898	18.825	1309.935	998.252
372.913	18.767	1309.518	997.510
373.927	18.634	1308.131	995.597
374.942	18.636	1307.806	995.271
375.956	18.745	1307.093	995.275
376.971	18.911	1305.747	995.120
377.986	18.825	1304.978	993.947
379.000	18.864	1304.359	993.614
380.015	18.819	1303.495	992.611
381.029	18.929	1302.893	992.696
382.044	18.904	1302.592	992.237
383.059	18.849	1302.001	991.381
384.073	18.975	1300.916	991.196
385.088	18.872	1300.438	990.145
386.102	18.928	1299.678	989.806
387.117	19.010	1298.704	989.448
388.132	18.994	1298.154	988.846
389.146	18.944	1297.145	987.704
390.161	18.924	1296.012	986.640
391.175	18.856	1295.130	985.493
392.190	18.850	1294.413	984.826
393.205	18.872	1293.871	984.450
394.219	18.939	1292.858	983.977
395.234	19.001	1291.331	983.080
396.248	19.037	1289.959	982.158
397.263	18.975	1289.021	981.003
398.278	18.960	1287.785	979.890
399.292	18.910	1286.795	978.765
400.307	18.970	1285.169	977.783
401.321	18.835	1284.202	976.193
402.336	18.856	1283.755	975.886
403.350	18.841	1282.348	974.642
404.365	18.902	1281.685	974.400
405.380	18.945	1280.187	973.419
406.394	18.912	1279.806	972.856
407.409	19.022	1279.404	973.084
408.423	19.038	1278.739	972.587
409.438	19.108	1277.997	972.329
410.453	19.193	1277.653	972.461
411.467	19.220	1276.712	971.812
412.482	19.210	1276.164	971.250
413.496	19.396	1275.457	971.678
414.511	19.400	1274.535	970.911
415.526	19.313	1274.009	969.933
416.540	19.412	1273.280	969.850
417.555	19.405	1272.629	969.230
418.569	19.539	1272.020	969.430
419.584	19.434	1271.420	968.299
420.599	19.387	1270.808	967.485
421.613	141.738	1431.740	1797.365
422.628	136.237	1455.156	1797.480
