DTS Sentinel unit serial number:	SN413079Multiplexer serial number:	ORYXHardware model number:	OX4-SRSoftware version number:	ORYX F/W v4.00 Oryx Data Collector v3.7.2.0data status	okinstallation	princeton_trtdifferential loss correction	single-endedforward channel	channel 4reverse channel	N/Adate	2019/09/19time	00:13:35forward acquisition time	60.00reverse acquisition time	0.00gamma	496.2192k internal	0.2337k external	0.2337temperature offset calibration	1.0030default loss term (dB/km)	0.3790temperature slope calibration	1.0000multiplexer offset coefficient	1.0000multiplexer slope coefficient	1.0000fibre end	0.00T internal ref (°C)	22.81T ext. ref 1 (°C)	0.75T ext. ref 2 (°C)	15.84length (m)	temperature (°C)	Stokes	anti-Stokes-747.200	134.290	0.202	-0.263
-746.185	800.000	0.110	0.363
-745.171	-140.052	0.170	-0.018
-744.156	-105.433	-0.128	0.029
-743.142	-149.028	-0.234	-0.019
-742.127	-127.378	0.204	0.030
-741.112	452.127	0.192	-0.427
-740.098	54.366	-0.128	0.123
-739.083	559.476	0.079	-0.192
-738.069	-200.000	0.011	0.052
-737.054	-200.000	0.036	0.286
-736.039	-138.112	-0.112	0.012
-735.025	323.566	0.200	0.383
-734.010	104.111	-0.251	-0.296
-732.996	82.360	-0.306	0.333
-731.981	-129.814	-0.187	0.026
-730.966	-74.569	0.163	0.059
-729.952	231.200	0.182	0.299
-728.937	-138.171	0.208	-0.023
-727.923	345.668	0.091	-0.179
-726.908	-200.000	-0.026	-0.180
-725.894	-57.382	-0.108	0.048
-724.879	800.000	-0.069	-0.289
-723.864	45.776	-0.200	-0.186
-722.850	-34.867	0.187	-0.102
-721.835	421.001	-0.156	0.336
-720.821	-124.681	-0.206	-0.032
-719.806	-105.860	0.073	-0.017
-718.791	-120.578	-0.433	-0.074
-717.777	-130.456	-0.318	-0.043
-716.762	559.459	-0.094	0.228
-715.748	-11.975	0.224	-0.147
-714.733	-200.000	0.031	-0.167
-713.718	-141.193	-0.397	-0.041
-712.704	56.148	0.029	-0.028
-711.689	-200.000	0.062	-0.391
-710.675	555.985	0.084	-0.203
-709.660	-50.348	0.371	0.176
-708.645	-200.000	-0.086	-0.477
-707.631	65.180	0.064	-0.064
-706.616	-200.000	-0.028	0.131
-705.602	-200.000	-0.061	-0.429
-704.587	331.508	-0.061	0.117
-703.572	68.590	-0.174	-0.179
-702.558	-200.000	-0.093	0.425
-701.543	800.000	-0.068	-0.224
-700.529	-28.151	0.350	-0.203
-699.514	800.000	-0.049	-0.143
-698.499	-200.000	-0.016	-0.337
-697.485	-112.444	-0.123	0.025
-696.470	-123.779	-0.245	-0.039
-695.456	800.000	-0.034	-0.113
-694.441	240.212	0.084	-0.140
-693.426	-53.080	0.285	0.131
-692.412	-7.052	-0.128	0.087
-691.397	-35.411	0.143	-0.078
-690.383	-200.000	-0.037	-0.260
-689.368	2.867	0.115	0.083
-688.354	96.577	0.104	-0.119
-687.339	-130.910	-0.294	-0.039
-686.324	800.000	-0.097	0.351
-685.310	-87.123	-0.232	-0.071
-684.295	527.588	-0.136	-0.320
-683.281	207.683	0.165	-0.258
-682.266	-200.000	-0.024	-0.140
-681.251	-65.815	0.189	0.076
-680.237	-106.739	0.206	-0.046
-679.222	800.000	-0.011	-0.035
-678.208	800.000	-0.012	-0.042
-677.193	270.267	0.131	0.231
-676.178	-52.780	-0.141	0.065
-675.164	-80.271	-0.279	-0.093
-674.149	-105.441	-0.181	-0.041
-673.135	236.296	-0.080	-0.133
-672.120	200.574	-0.013	0.020
-671.105	83.906	0.107	-0.116
-670.091	-144.078	-0.077	0.007
-669.076	-98.161	0.089	0.023
-668.062	-46.933	-0.208	-0.102
-667.047	-200.000	0.074	-0.355
-666.032	353.982	-0.028	0.056
-665.018	800.000	0.056	-0.227
-664.003	-58.598	-0.220	-0.095
-662.989	-153.443	-0.190	-0.013
-661.974	199.149	-0.304	0.466
-660.959	-39.172	-0.229	-0.120
-659.945	-13.931	0.039	-0.025
-658.930	-75.563	-0.283	-0.101
-657.916	-74.216	0.141	-0.051
-656.901	-200.000	0.021	-0.179
-655.886	-66.164	-0.141	0.056
-654.872	-142.400	-0.366	0.036
-653.857	-153.802	-0.219	-0.015
-652.843	-200.000	-0.062	-0.586
-651.828	-78.087	-0.341	-0.117
-650.814	800.000	0.043	0.179
-649.799	-78.407	-0.088	-0.030
-648.784	-113.994	0.279	-0.054
-647.770	-74.275	-0.149	-0.054
-646.755	-148.431	-0.172	0.014
-645.741	15.633	-0.172	-0.136
-644.726	-11.519	0.249	-0.163
-643.711	69.041	0.128	-0.132
-642.697	-200.000	0.019	-0.262
-641.682	-22.189	-0.257	-0.156
-640.668	-19.870	-0.093	0.057
-639.653	135.312	-0.229	-0.298
-638.638	-200.000	-0.001	0.062
-637.624	-18.490	-0.165	0.103
-636.609	-200.000	-0.076	-0.380
-635.595	-200.000	-0.040	-0.202
-634.580	-179.653	-0.101	-0.002
-633.565	-24.700	-0.132	-0.079
-632.551	613.423	-0.058	0.144
-631.536	-49.459	-0.256	0.122
-630.522	800.000	-0.160	-0.520
-629.507	-200.000	-0.027	-0.181
-628.492	-99.676	-0.215	0.054
-627.478	-138.491	-0.370	0.041
-626.463	726.865	0.018	0.049
-625.449	350.650	-0.171	-0.339
-624.434	-73.088	0.315	0.115
-623.419	20.661	0.033	0.026
-622.405	3.332	0.152	0.111
-621.390	-29.339	0.029	0.017
-620.376	-67.795	-0.181	0.071
-619.361	8.232	-0.034	-0.025
-618.346	-197.394	0.256	-0.002
-617.332	-200.000	0.028	-0.539
-616.317	-8.116	-0.176	-0.118
-615.303	72.632	0.140	-0.146
-614.288	91.556	-0.128	0.144
-613.273	-115.503	0.123	0.023
-612.259	-9.762	0.150	-0.100
-611.244	-149.307	0.316	-0.025
-610.230	-200.000	-0.405	-0.000
-609.215	-122.265	-0.129	0.021
-608.201	36.025	-0.144	0.127
-607.186	101.501	-0.173	0.202
-606.171	28.867	0.202	-0.171
-605.157	800.000	-0.074	-0.221
-604.142	-113.237	-0.167	-0.033
-603.128	-28.538	-0.152	0.088
-602.113	-133.008	-0.263	-0.033
-601.098	-65.407	-0.094	-0.038
-600.084	-18.759	0.102	-0.064
-599.069	-51.810	0.224	-0.104
-598.055	-10.250	0.217	0.144
-597.040	263.955	-0.076	-0.132
-596.025	-108.413	-0.322	-0.069
-595.011	-50.293	0.218	-0.103
-593.996	-50.692	0.184	0.087
-592.982	102.992	-0.110	-0.128
-591.967	381.072	0.166	0.341
-590.952	500.094	-0.069	0.159
-589.938	-19.783	0.095	-0.059
-588.923	-26.433	-0.176	0.103
-587.909	342.052	0.102	-0.199
-586.894	-200.000	-0.018	0.158
-585.879	-200.000	0.048	-0.231
-584.865	177.395	0.237	0.344
-583.850	-200.000	-0.031	-0.244
-582.836	-200.000	-0.025	-0.209
-581.821	131.742	-0.029	-0.037
-580.806	-124.108	-0.270	-0.042
-579.792	-16.905	0.267	-0.168
-578.777	-27.817	0.096	-0.056
-577.763	-200.000	0.074	0.326
-576.748	-106.824	0.247	-0.055
-575.733	10.379	-0.132	0.100
-574.719	-200.000	0.055	-0.340
-573.704	-200.000	0.011	0.256
-572.690	-163.925	0.174	0.008
-571.675	-200.000	-0.014	0.179
-570.661	300.162	0.067	0.123
-569.646	-56.647	0.228	-0.100
-568.631	-132.427	0.280	-0.036
-567.617	-73.962	-0.248	0.090
-566.602	-108.566	-0.343	-0.073
-565.588	162.873	-0.156	0.219
-564.573	-200.000	-0.066	0.349
-563.558	-48.287	0.221	-0.106
-562.544	-101.533	0.260	0.063
-561.529	87.874	0.144	-0.159
-560.515	224.206	0.169	-0.272
-559.500	-118.792	-0.285	-0.050
-558.485	497.870	0.110	-0.252
-557.471	697.031	-0.073	-0.192
-556.456	-200.000	0.012	-0.213
-555.442	100.533	0.046	0.054
-554.427	-86.014	-0.119	-0.037
-553.412	45.153	-0.273	-0.250
-552.398	498.399	-0.083	0.190
-551.383	-60.601	-0.112	0.047
-550.369	382.681	-0.118	-0.241
-549.354	-200.000	-0.001	0.045
-548.339	-65.558	-0.317	-0.127
-547.325	-5.986	0.251	0.171
-546.310	-9.219	-0.296	0.197
-545.296	-38.271	-0.148	0.078
-544.281	-54.509	0.343	0.155
-543.266	378.002	-0.060	-0.123
-542.252	-136.320	-0.156	0.018
-541.237	41.825	0.095	-0.086
-540.223	-12.645	0.170	-0.110
-539.208	-145.024	-0.606	0.055
-538.193	800.000	-0.050	-0.138
-537.179	-71.337	-0.116	-0.043
-536.164	3.370	0.204	-0.148
-535.150	564.521	-0.064	-0.153
-534.135	-97.321	-0.286	-0.074
-533.121	-46.604	0.090	-0.044
-532.106	-200.000	-0.038	0.179
-531.091	13.153	-0.170	-0.131
-530.077	-200.000	-0.005	0.340
-529.062	800.000	0.041	0.145
-528.048	581.894	-0.046	0.111
-527.033	204.378	-0.119	-0.184
-526.018	-200.000	0.039	-0.267
-525.004	-129.960	0.246	0.034
-523.989	78.607	-0.164	-0.175
-522.975	-102.806	0.229	0.054
-521.960	-200.000	0.013	0.154
-520.945	41.798	0.235	-0.212
-519.931	-200.000	-0.073	0.322
-518.916	380.770	-0.123	0.251
-517.902	-94.964	0.166	0.045
-516.887	168.135	-0.082	-0.116
-515.872	-107.365	0.158	-0.034
-514.858	-200.000	0.019	-0.361
-513.843	-200.000	-0.017	0.178
-512.829	-24.465	-0.092	0.055
-511.814	-138.267	-0.261	-0.029
-510.799	382.778	0.162	0.332
-509.785	136.509	0.043	0.056
-508.770	315.236	-0.201	-0.377
-507.756	-94.414	-0.254	0.069
-506.741	156.473	-0.230	-0.316
-505.726	-200.000	-0.034	-0.150
-504.712	-12.758	-0.235	0.152
-503.697	323.006	0.106	-0.201
-502.683	-76.657	0.094	-0.033
-501.668	68.701	0.274	-0.280
-500.653	-200.000	-0.004	-0.144
-499.639	-88.669	-0.131	-0.039
-498.624	800.000	0.056	0.244
-497.610	-53.419	-0.091	-0.041
-496.595	-135.876	-0.138	0.016
-495.581	-200.000	-0.063	0.385
-494.566	-132.628	-0.056	0.007
-493.551	86.740	0.097	-0.107
-492.537	66.026	0.012	-0.013
-491.522	-24.323	0.260	-0.154
-490.508	-200.000	0.044	0.191
-489.493	-76.528	0.143	-0.050
-488.478	-200.000	0.008	0.087
-487.464	60.760	-0.069	0.068
-486.449	-145.443	0.373	-0.033
-485.435	-164.331	-0.285	-0.013
-484.420	88.814	-0.112	-0.124
-483.405	-54.708	-0.213	0.096
-482.391	800.000	0.023	0.068
-481.376	528.967	0.163	-0.382
-480.362	4.462	-0.063	-0.046
-479.347	-122.898	-0.273	-0.044
-478.332	-173.431	0.221	-0.007
-477.318	59.886	0.070	0.069
-476.303	-59.999	-0.314	0.133
-475.289	-17.953	0.076	0.047
-474.274	-124.893	-0.192	0.029
-473.259	-134.426	-0.140	0.017
-472.245	-200.000	0.013	0.157
-471.230	39.585	-0.177	0.158
-470.216	128.421	-0.028	0.036
-469.201	-38.734	0.189	-0.099
-468.186	800.000	-0.107	-0.325
-467.172	-89.932	-0.114	0.033
-466.157	197.446	-0.050	0.075
-465.143	800.000	-0.090	0.294
-464.128	1.611	0.344	0.246
-463.113	-200.000	-0.014	-0.290
-462.099	-140.260	0.310	0.032
-461.084	132.352	-0.276	-0.353
-460.070	-200.000	0.106	-0.527
-459.055	-16.918	0.130	-0.082
-458.040	-110.694	0.401	0.082
-457.026	-72.457	-0.231	0.085
-456.011	-200.000	0.086	-0.418
-454.997	-74.608	0.376	0.134
-453.982	146.887	-0.156	-0.208
-452.968	-102.725	-0.275	0.065
-451.953	96.827	0.115	-0.131
-450.938	800.000	0.134	-0.434
-449.924	32.887	0.128	-0.110
-448.909	-12.337	-0.245	0.159
-447.895	800.000	-0.067	0.217
-446.880	-200.000	0.061	-0.323
-445.865	715.488	0.022	0.057
-444.851	800.000	0.038	-0.108
-443.836	800.000	0.140	-0.416
-442.822	4.483	0.157	0.115
-441.807	-200.000	0.034	0.223
-440.792	315.284	0.215	0.401
-439.778	-79.962	0.423	0.141
-438.763	0.013	-0.223	0.158
-437.749	-50.920	0.119	0.056
-436.734	-114.048	-0.503	0.097
-435.719	-72.427	-0.320	0.117
-434.705	-200.000	0.020	0.215
-433.690	-200.000	-0.025	0.344
-432.676	194.167	0.093	0.140
-431.661	-108.560	0.426	0.091
-430.646	-37.665	-0.049	0.026
-429.632	-200.000	0.042	-0.275
-428.617	200.135	0.105	-0.160
-427.603	-160.528	0.409	0.022
-426.588	121.758	-0.095	-0.118
-425.573	723.569	0.054	-0.142
-424.559	-200.000	-0.045	0.258
-423.544	129.220	-0.071	-0.090
-422.530	-107.999	-0.345	-0.074
-421.515	-200.000	0.012	0.094
-420.500	373.130	-0.159	-0.320
-419.486	-64.568	0.221	0.089
-418.471	103.567	-0.318	0.369
-417.457	113.018	0.025	0.030
-416.442	-66.232	0.067	-0.026
-415.428	800.000	0.175	-0.627
-414.413	800.000	-0.090	-0.271
-413.398	462.981	-0.070	-0.154
-412.384	-200.000	0.028	0.186
-411.369	507.303	-0.106	0.244
-410.355	34.782	-0.151	-0.131
-409.340	-189.979	0.317	-0.004
-408.325	-200.000	-0.022	-0.130
-407.311	800.000	-0.016	-0.057
-406.296	-3.519	-0.017	0.012
-405.282	800.000	0.024	0.090
-404.267	-84.227	-0.178	0.056
-403.252	-200.000	-0.284	-0.001
-402.238	-138.417	0.215	-0.023
-401.223	-0.696	0.369	-0.259
-400.209	-39.831	-0.091	-0.047
-399.194	800.000	0.138	0.432
-398.179	-200.000	-0.010	0.174
-397.165	180.422	0.112	0.163
-396.150	193.787	-0.128	0.192
-395.136	224.223	-0.079	-0.127
-394.121	45.511	-0.265	0.242
-393.106	-129.774	-0.146	0.020
-392.092	159.501	0.089	0.123
-391.077	-200.000	0.019	0.082
-390.063	800.000	0.092	-0.269
-389.048	-18.881	-0.188	0.116
-388.033	-177.264	0.263	0.006
-387.019	55.938	0.177	-0.170
-386.004	67.226	-0.220	0.222
-384.990	158.797	0.141	0.194
-383.975	163.768	0.124	0.173
-382.960	-29.988	0.167	0.094
-381.946	-44.631	0.033	0.016
-380.931	-15.792	0.124	0.078
-379.917	170.852	0.313	-0.444
-378.902	-200.000	-0.017	0.108
-377.888	552.146	0.094	0.224
-376.873	152.640	0.154	-0.208
-375.858	-159.018	0.176	-0.010
-374.844	60.148	-0.117	-0.114
-373.829	-38.144	0.136	0.071
-372.815	-118.687	-0.293	-0.051
-371.800	95.664	-0.077	-0.087
-370.785	29.966	-0.191	0.161
-369.771	-200.000	0.008	0.194
-368.756	365.594	0.133	0.264
-367.742	800.000	0.026	-0.094
-366.727	-2.275	0.192	-0.134
-365.712	-117.751	-0.225	0.040
-364.698	775.261	0.076	0.204
-363.683	800.000	0.036	-0.125
-362.669	11.754	-0.157	-0.119
-361.654	-62.772	0.141	-0.058
-360.639	1.039	-0.201	0.143
-359.625	800.000	-0.022	0.065
-358.610	112.976	0.196	-0.235
-357.596	171.314	0.062	0.087
-356.581	41.917	0.293	0.263
-355.566	-87.287	-0.227	0.068
-354.552	-200.000	-0.047	0.207
-353.537	-137.002	-0.075	-0.009
-352.523	438.216	0.056	-0.122
-351.508	-5.760	0.180	-0.122
-350.493	-200.000	0.048	0.218
-349.479	-71.111	0.315	0.117
-348.464	326.554	-0.243	0.460
-347.450	428.556	0.013	0.027
-346.435	-125.054	-0.377	-0.057
-345.420	166.533	0.187	0.262
-344.406	-177.054	-0.318	0.008
-343.391	-21.267	0.371	-0.224
-342.377	13.045	-0.168	-0.128
-341.362	-47.952	0.300	-0.144
-340.348	134.601	0.226	0.290
-339.333	-74.935	0.135	-0.048
-338.318	-15.911	-0.056	-0.035
-337.304	33.605	-0.081	0.069
-336.289	110.438	-0.207	-0.246
-335.275	3.005	-0.192	-0.138
-334.260	132.360	-0.156	0.199
-333.245	111.405	-0.115	-0.137
-332.231	72.452	-0.111	0.114
-331.216	196.193	0.070	0.105
-330.202	-60.428	0.190	0.080
-329.187	-113.993	-0.254	0.049
-328.172	653.278	0.047	0.118
-327.158	800.000	-0.056	0.183
-326.143	509.802	-0.082	0.188
-325.129	147.060	0.241	0.320
-324.114	84.594	-0.054	0.058
-323.099	-200.000	-0.009	0.242
-322.085	-11.745	0.115	-0.074
-321.070	-24.356	-0.067	0.040
-320.056	7.958	-0.116	0.086
-319.041	165.652	0.030	-0.042
-318.026	-55.277	0.147	0.065
-317.012	309.480	0.023	-0.042
-315.997	-76.569	-0.114	-0.040
-314.983	-95.031	0.200	0.053
-313.968	418.205	-0.127	-0.267
-312.953	-19.238	0.219	0.134
-311.939	-141.807	-0.312	0.031
-310.924	800.000	-0.045	0.186
-309.910	420.161	0.087	0.184
-308.895	-81.967	0.260	-0.084
-307.880	72.731	-0.026	0.027
-306.866	-53.875	0.406	0.183
-305.851	-90.880	-0.291	0.083
-304.837	-5.998	-0.011	0.007
-303.822	-200.000	0.015	-0.090
-302.807	401.509	0.083	-0.172
-301.793	800.000	-0.075	0.236
-300.778	-46.206	0.018	0.009
-299.764	220.178	-0.096	0.151
-298.749	58.115	0.204	-0.197
-297.735	253.169	-0.075	-0.126
-296.720	-200.000	-0.018	-0.159
-295.705	-36.372	0.243	-0.129
-294.691	286.956	-0.148	0.263
-293.676	358.730	0.071	0.140
-292.662	-9.852	-0.247	0.162
-291.647	164.838	-0.038	0.053
-290.632	12.903	-0.216	0.165
-289.618	204.809	0.141	-0.216
-288.603	-200.000	-0.018	-0.086
-287.589	109.106	-0.269	0.317
-286.574	10.086	0.197	0.148
-285.559	-74.370	-0.357	0.127
-284.545	-72.543	0.217	0.079
-283.530	255.390	-0.086	-0.146
-282.516	-93.453	0.416	0.114
-281.501	-119.351	-0.246	0.042
-280.486	-200.000	0.008	0.095
-279.472	-200.000	0.009	-0.272
-278.457	-188.800	-0.142	0.002
-277.443	-123.802	0.174	0.027
-276.428	51.762	0.234	0.219
-275.413	-143.785	0.040	0.004
-274.399	-200.000	0.051	-0.365
-273.384	-78.147	0.265	0.090
-272.370	800.000	-0.135	-0.408
-271.355	-114.960	0.192	-0.036
-270.340	-79.959	-0.183	0.060
-269.326	800.000	-0.050	0.149
-268.311	13.070	0.195	0.149
-267.297	-200.000	0.020	0.110
-266.282	-200.000	0.024	-0.142
-265.267	-27.830	0.115	-0.066
-264.253	-95.021	0.069	-0.018
-263.238	48.582	-0.034	0.032
-262.224	-200.000	0.030	0.149
-261.209	140.725	-0.033	0.042
-260.195	477.342	-0.163	0.363
-259.180	-200.000	-0.031	-0.253
-258.165	800.000	0.037	0.145
-257.151	-200.000	0.011	0.130
-256.136	5.240	0.288	-0.209
-255.122	-200.000	0.063	0.353
-254.107	800.000	-0.140	0.436
-253.092	667.779	0.062	-0.159
-252.078	381.394	-0.072	-0.145
-251.063	-91.692	-0.127	0.035
-250.049	105.458	0.231	0.269
-249.034	553.134	0.119	0.281
-248.019	532.297	0.162	0.378
-247.005	-77.492	-0.052	-0.018
-245.990	8.823	-0.181	-0.135
-244.976	-47.226	-0.355	-0.170
-243.961	-153.578	-0.038	-0.003
-242.946	94.135	-0.252	-0.281
-241.932	-79.700	-0.424	0.141
-240.917	91.727	-0.118	0.131
-239.903	-70.599	0.215	0.080
-238.888	-18.066	-0.312	-0.193
-237.873	62.674	0.028	0.027
-236.859	-48.125	0.180	0.085
-235.844	-18.242	-0.206	-0.127
-234.830	-30.246	-0.103	0.058
-233.815	-200.000	0.013	-0.093
-232.800	194.878	-0.136	-0.203
-231.786	-38.758	0.095	-0.049
-230.771	256.253	-0.128	0.217
-229.757	171.050	0.163	0.230
-228.742	236.829	-0.130	-0.211
-227.727	-200.000	0.021	-0.121
-226.713	59.646	0.333	-0.323
-225.698	309.908	-0.101	-0.185
-224.684	70.178	-0.162	0.165
-223.669	-200.000	-0.002	-0.067
-222.655	71.628	-0.097	0.099
-221.640	800.000	0.082	0.231
-220.625	-10.779	0.450	0.292
-219.611	-200.000	-0.002	-0.086
-218.596	-86.137	0.242	-0.073
-217.582	44.754	-0.395	-0.357
-216.567	433.917	-0.101	0.215
-215.552	50.106	-0.287	0.266
-214.538	89.333	-0.152	0.166
-213.523	-75.798	0.253	0.088
-212.509	-200.000	0.040	-0.182
-211.494	-140.681	0.041	-0.004
-210.479	628.578	0.125	-0.311
-209.465	800.000	-0.051	-0.186
-208.450	275.324	0.171	0.298
-207.436	-124.857	0.365	0.055
-206.421	-17.618	0.093	0.057
-205.406	311.259	0.103	-0.190
-204.392	-56.939	0.191	-0.083
-203.377	211.026	-0.120	0.186
-202.363	456.678	0.169	-0.369
-201.348	-103.578	0.244	0.056
-200.333	793.987	-0.052	-0.141
-199.319	170.040	0.132	-0.186
-198.304	-26.082	-0.207	0.120
-197.290	582.588	-0.055	0.133
-196.275	-96.641	-0.286	-0.074
-195.260	-47.806	-0.234	-0.111
-194.246	-200.000	-0.015	0.102
-193.231	275.805	-0.097	-0.170
-192.217	213.342	-0.080	0.125
-191.202	-200.000	0.062	0.280
-190.187	-39.284	-0.084	-0.043
-189.173	454.725	-0.099	0.215
-188.158	-45.888	-0.282	0.137
-187.144	-200.000	0.006	0.029
-186.129	-62.476	0.363	-0.148
-185.114	-200.000	-0.011	-0.176
-184.100	60.817	0.070	-0.068
-183.085	82.024	0.115	-0.123
-182.071	169.114	-0.291	-0.408
-181.056	-200.000	0.037	0.342
-180.042	76.083	0.389	-0.404
-179.027	62.915	-0.069	-0.068
-178.012	-99.211	-0.105	0.026
-176.998	800.000	-0.149	-0.460
-175.983	79.284	-0.053	-0.056
-174.969	-200.000	0.020	0.232
-173.954	-43.984	0.255	-0.126
-172.939	-200.000	0.003	-0.116
-171.925	393.357	0.071	-0.145
-170.910	-56.628	0.168	0.073
-169.896	-200.000	-0.025	0.212
-168.881	88.330	-0.041	0.045
-167.866	175.895	0.198	-0.281
-166.852	640.597	0.177	0.442
-165.837	148.626	0.223	0.295
-164.823	-46.358	-0.169	-0.082
-163.808	-110.344	-0.270	0.055
-162.793	-106.272	0.479	0.105
-161.779	-96.467	0.169	-0.044
-160.764	-109.881	0.263	-0.054
-159.750	-36.315	-0.260	-0.138
-158.735	-23.924	0.082	0.048
-157.720	-157.177	0.102	-0.006
-156.706	498.922	-0.069	-0.156
-155.691	619.832	-0.116	0.286
-154.677	38.322	0.226	-0.197
-153.662	-200.000	0.082	0.368
-152.647	767.868	0.023	-0.062
-151.633	-200.000	0.021	0.234
-150.618	203.817	0.117	-0.177
-149.604	-82.142	0.244	0.078
-148.589	-200.000	0.064	-0.336
-147.574	9.924	-0.156	0.116
-146.560	54.483	-0.086	-0.081
-145.545	268.108	0.146	0.250
-144.531	-156.747	-0.016	0.001
-143.516	-136.229	0.441	0.051
-142.502	800.000	-0.050	0.178
-141.487	-77.162	-0.321	-0.110
-140.472	-49.361	0.098	0.046
-139.458	-200.000	0.060	0.347
-138.443	-166.177	0.294	-0.012
-137.429	-123.007	-0.129	-0.020
-136.414	212.688	0.227	-0.351
-135.399	66.963	-0.108	-0.108
-134.385	1.398	0.092	-0.065
-133.370	800.000	-0.016	-0.045
-132.356	-106.297	-0.131	-0.029
-131.341	800.000	-0.028	-0.109
-130.326	82.048	0.346	-0.367
-129.312	2.338	-0.271	0.192
-128.297	-200.000	-0.053	0.327
-127.283	199.436	0.174	0.262
-126.268	-200.000	0.053	0.313
-125.253	-38.603	0.074	-0.038
-124.239	471.836	-0.074	0.163
-123.224	98.659	0.151	-0.171
-122.210	-143.359	-0.094	-0.009
-121.195	-105.808	0.258	-0.057
-120.180	-32.695	-0.139	0.076
-119.166	129.486	0.164	0.205
-118.151	-200.000	-0.006	0.195
-117.137	-64.292	0.189	-0.076
-116.122	800.000	-0.039	-0.144
-115.107	-200.000	0.027	-0.173
-114.093	-45.327	-0.412	-0.200
-113.078	-200.000	-0.001	-0.027
-112.064	229.320	-0.045	-0.072
-111.049	800.000	0.043	-0.168
-110.034	47.280	0.458	0.418
-109.020	83.216	0.116	-0.124
-108.005	-61.902	-0.213	0.087
-106.991	-200.000	0.061	0.291
-105.976	-20.127	-0.220	-0.133
-104.962	-200.000	0.043	0.468
-103.947	787.287	-0.100	-0.269
-102.932	188.160	0.243	0.355
-101.918	-73.287	0.237	0.085
-100.903	287.161	0.148	0.263
-99.889	-58.587	0.314	0.133
-98.874	318.568	-0.155	0.288
-97.859	-122.821	0.356	0.056
-96.845	800.000	0.014	0.051
-95.830	800.000	-0.046	-0.151
-94.816	-200.000	-0.007	0.118
-93.801	800.000	0.095	-0.265
-92.786	343.824	-0.070	0.135
-91.772	10.574	-0.236	0.176
-90.757	327.062	-0.194	0.364
-89.743	736.185	0.058	-0.153
-88.728	-200.000	0.035	-0.213
-87.713	-34.611	-0.291	-0.156
-86.699	-200.000	0.016	-0.112
-85.684	-145.547	-0.057	0.005
-84.670	505.116	-0.069	-0.155
-83.655	57.597	0.095	-0.091
-82.640	67.444	0.093	0.093
-81.626	-41.484	-0.127	0.064
-80.611	115.761	0.176	-0.211
-79.597	-123.473	0.209	-0.033
-78.582	-106.886	0.220	-0.048
-77.567	210.798	-0.183	-0.281
-76.553	295.819	-0.157	-0.281
-75.538	-87.987	-0.175	0.051
-74.524	-200.000	-0.007	-0.208
-73.509	-200.000	0.016	0.334
-72.494	167.228	-0.138	0.191
-71.480	-34.708	-0.204	0.109
-70.465	-152.495	0.197	0.014
-69.451	85.358	-0.046	-0.050
-68.436	-130.393	-0.278	0.037
-67.422	39.771	0.119	-0.104
-66.407	-200.000	-0.024	0.330
-65.392	-93.475	0.096	-0.026
-64.378	-87.288	0.206	-0.061
-63.363	-200.000	0.015	0.266
-62.349	800.000	0.036	0.151
-61.334	94.477	-1.022	-1.135
-60.319	-58.895	0.932	0.394
-59.305	800.000	-0.446	-1.450
-58.290	800.000	0.469	1.452
-57.276	285.057	0.738	1.298
-56.261	-200.000	129.906	698.513
-55.246	391.940	1636.141	3322.159
-54.232	133.884	2796.846	3538.523
-53.217	86.678	2338.800	2521.568
-52.203	29.453	2073.244	1722.069
-51.188	24.582	1988.593	1607.967
-50.173	23.500	1972.547	1585.268
-49.159	42.528	2046.873	1819.438
-48.144	40.011	2058.530	1806.754
-47.130	24.978	2010.389	1628.939
-46.115	22.958	1998.676	1601.103
-45.100	22.721	1996.209	1596.910
-44.086	22.646	1993.726	1594.188
-43.071	22.609	1991.564	1592.063
-42.057	22.700	1988.953	1590.732
-41.042	22.706	1987.432	1589.508
-40.027	22.692	1985.537	1587.802
-39.013	22.708	1983.099	1585.934
-37.998	22.838	1981.298	1585.599
-36.984	22.764	1980.341	1584.104
-35.969	22.729	1978.206	1582.018
-34.954	22.689	1976.866	1580.522
-33.940	22.665	1975.897	1579.471
-32.925	22.796	1973.337	1578.534
-31.911	22.848	1971.642	1577.583
-30.896	22.873	1970.478	1576.813
-29.881	22.847	1969.043	1575.367
-28.867	22.836	1967.589	1574.043
-27.852	22.888	1965.677	1572.911
-26.838	22.865	1963.963	1571.278
-25.823	22.877	1962.106	1569.837
-24.809	22.890	1960.411	1568.530
-23.794	22.916	1958.277	1566.996
-22.779	22.879	1956.592	1565.252
-21.765	22.819	1955.433	1563.736
-20.750	22.851	1953.614	1562.497
-19.736	22.819	1951.700	1560.628
-18.721	22.866	1950.548	1560.052
-17.706	22.890	1948.880	1558.875
-16.692	22.781	1947.426	1556.690
-15.677	22.858	1945.355	1555.651
-14.663	22.817	1944.260	1554.350
-13.648	22.841	1942.776	1553.316
-12.633	22.814	1941.845	1552.269
-11.619	22.747	1940.673	1550.681
-10.604	22.828	1939.280	1550.218
-9.590	22.796	1937.910	1548.780
-8.575	22.787	1935.881	1547.022
-7.560	22.798	1934.876	1546.253
-6.546	22.807	1933.559	1545.212
-5.531	22.814	1932.183	1544.117
-4.517	22.762	1931.375	1542.956
-3.502	22.862	1929.881	1542.571
-2.487	22.838	1928.574	1541.257
-1.473	22.865	1927.741	1540.770
-0.458	22.792	1922.866	1536.172
0.556	21.459	1901.378	1505.275
1.571	16.871	1882.252	1450.829
2.586	12.655	1905.303	1431.868
3.600	11.588	1939.867	1448.256
4.615	11.575	1932.360	1442.409
5.629	9.188	1834.120	1348.934
6.644	3.920	1723.976	1226.154
7.659	1.078	1692.820	1181.744
8.673	0.816	1689.742	1177.457
9.688	0.804	1688.394	1176.318
10.702	0.735	1687.582	1175.110
11.717	0.635	1683.491	1171.383
12.731	1.016	1681.823	1173.072
13.746	5.195	1690.055	1211.175
14.761	12.185	1704.155	1275.684
15.775	16.509	1711.708	1314.926
16.790	17.318	1712.212	1321.486
17.804	16.479	1708.816	1312.239
18.819	15.409	1706.157	1301.786
19.834	14.896	1703.673	1295.798
20.848	14.553	1702.230	1291.932
21.863	14.393	1700.350	1289.150
22.877	14.222	1699.036	1286.723
23.892	13.918	1697.782	1283.308
24.907	13.838	1696.419	1281.546
25.921	13.733	1695.312	1279.788
26.936	13.680	1695.034	1279.052
27.950	13.725	1693.747	1278.318
28.965	13.869	1692.622	1278.465
29.980	13.896	1691.951	1278.053
30.994	13.921	1691.087	1277.481
32.009	14.018	1689.937	1277.243
33.023	13.925	1689.494	1276.076
34.038	14.086	1688.037	1276.102
35.053	14.050	1687.422	1275.244
36.067	13.988	1685.898	1273.507
37.082	13.950	1684.673	1272.181
38.096	13.983	1683.675	1271.565
39.111	13.993	1683.493	1271.394
40.126	14.032	1682.273	1270.658
41.140	13.939	1681.796	1269.473
42.155	13.874	1680.217	1267.673
43.169	13.903	1678.497	1266.483
44.184	13.761	1677.512	1264.547
45.199	13.686	1676.603	1263.173
46.213	13.822	1675.249	1263.077
47.228	13.757	1674.220	1261.694
48.242	13.814	1672.880	1261.012
49.257	13.850	1671.523	1260.146
50.271	13.897	1670.259	1259.439
51.286	13.819	1669.468	1258.141
52.301	13.853	1667.880	1257.088
53.315	13.886	1666.457	1256.154
54.330	13.894	1665.256	1255.204
55.344	13.819	1663.592	1253.270
56.359	13.797	1662.048	1251.827
57.374	13.762	1661.131	1250.760
58.388	13.823	1659.494	1249.881
59.403	13.847	1658.458	1249.170
60.417	13.839	1656.259	1247.342
61.432	13.711	1655.996	1246.071
62.447	13.775	1654.746	1245.502
63.461	13.793	1653.135	1244.316
64.476	13.691	1652.111	1242.671
65.490	13.667	1650.667	1241.293
66.505	13.689	1649.574	1240.523
67.520	13.743	1648.438	1239.967
68.534	13.803	1647.544	1239.631
69.549	13.774	1646.384	1238.431
70.563	13.742	1644.853	1236.935
71.578	13.701	1644.021	1235.892
72.593	13.719	1642.770	1234.975
73.607	13.712	1641.489	1233.852
74.622	13.619	1640.708	1232.467
75.636	13.639	1640.129	1232.072
76.651	13.637	1638.850	1230.986
77.666	13.668	1637.184	1229.855
78.680	13.590	1637.192	1229.174
79.695	13.676	1635.946	1228.765
80.709	13.726	1634.497	1227.937
81.724	13.665	1633.847	1226.888
82.739	13.677	1633.121	1226.327
83.753	13.823	1631.613	1226.165
84.768	13.800	1631.175	1225.559
85.782	13.876	1630.160	1225.249
86.797	13.892	1629.164	1224.506
87.812	13.914	1628.194	1223.834
88.826	13.819	1626.732	1221.924
89.841	13.846	1625.450	1221.051
90.855	13.893	1624.582	1220.636
91.870	13.841	1623.718	1219.501
92.884	13.933	1622.546	1219.183
93.899	13.918	1621.335	1218.055
94.914	13.992	1620.084	1217.551
95.928	13.964	1619.232	1216.600
96.943	14.028	1617.428	1215.606
97.957	13.915	1616.612	1214.055
98.972	13.954	1614.705	1212.801
99.987	13.990	1613.466	1212.027
101.001	13.959	1611.661	1210.341
102.016	13.923	1610.117	1208.809
103.030	13.888	1608.973	1207.593
104.045	13.917	1607.512	1206.597
105.060	13.937	1606.321	1205.743
106.074	13.898	1605.141	1204.470
107.089	13.866	1603.237	1202.703
108.103	13.827	1601.872	1201.284
109.118	13.803	1600.163	1199.727
110.133	13.785	1599.048	1198.656
111.147	13.803	1597.629	1197.614
112.162	13.778	1595.832	1195.978
113.176	13.828	1594.322	1195.104
114.191	13.944	1592.702	1194.620
115.206	13.900	1591.798	1193.520
116.220	13.905	1590.391	1192.392
117.235	13.865	1589.290	1191.171
118.249	13.797	1588.156	1189.733
119.264	13.855	1586.239	1188.604
120.279	13.882	1584.788	1187.607
121.293	13.814	1584.264	1186.620
122.308	13.802	1582.431	1185.060
123.322	13.801	1580.859	1183.770
124.337	13.760	1579.579	1182.414
125.352	13.806	1578.268	1181.652
126.366	13.702	1577.433	1180.189
127.381	13.728	1575.884	1179.105
128.395	13.814	1574.484	1178.568
129.410	13.770	1573.335	1177.291
130.424	13.817	1571.719	1176.311
131.439	13.731	1571.319	1175.295
132.454	13.805	1569.035	1174.009
133.468	13.907	1567.575	1173.534
134.483	13.811	1566.549	1171.980
135.497	13.810	1565.358	1170.980
136.512	13.809	1563.639	1169.587
137.527	13.832	1562.483	1168.776
138.541	13.947	1560.762	1168.198
139.556	13.905	1559.432	1166.803
140.570	13.954	1558.229	1166.144
141.585	13.987	1557.065	1165.403
142.600	13.947	1555.545	1163.880
143.614	14.077	1554.027	1163.550
144.629	14.087	1553.165	1162.871
145.643	14.065	1551.994	1161.740
146.658	14.042	1550.494	1160.353
147.673	14.064	1548.958	1159.251
148.687	14.014	1547.277	1157.548
149.702	14.070	1545.632	1156.599
150.716	14.055	1544.093	1155.241
151.731	13.986	1543.421	1154.162
152.746	14.033	1541.812	1153.182
153.760	14.071	1540.625	1152.456
154.775	14.026	1539.262	1151.021
155.789	14.134	1537.842	1150.605
156.804	14.145	1536.522	1149.590
157.819	14.096	1535.370	1148.289
158.833	14.122	1534.130	1147.439
159.848	14.232	1532.643	1146.984
160.862	14.262	1531.670	1146.360
161.877	14.259	1530.543	1145.393
162.892	14.154	1528.881	1143.325
163.906	14.197	1527.844	1142.746
164.921	14.120	1526.710	1141.266
165.935	14.139	1525.457	1140.358
166.950	14.197	1524.513	1139.953
167.964	14.156	1523.570	1138.866
168.979	14.191	1522.694	1138.347
169.994	14.244	1521.581	1137.778
171.008	14.127	1520.432	1136.023
172.023	14.303	1519.109	1136.133
173.037	14.276	1518.287	1135.234
174.052	14.306	1516.909	1134.307
175.067	14.398	1515.808	1134.007
176.081	14.306	1514.786	1132.517
177.096	14.319	1513.123	1131.263
178.110	14.229	1512.074	1129.770
179.125	14.226	1511.255	1129.037
180.140	14.339	1509.801	1128.617
181.154	14.323	1509.055	1127.849
182.169	14.349	1507.242	1126.568
183.183	14.380	1506.520	1126.141
184.198	14.431	1505.475	1125.601
185.213	14.412	1504.133	1124.376
186.227	14.532	1503.037	1124.260
187.242	14.449	1502.177	1122.962
188.256	14.524	1500.861	1122.381
189.271	14.480	1499.534	1120.995
190.286	14.642	1498.344	1121.095
191.300	14.494	1497.698	1119.518
192.315	14.427	1496.641	1118.178
193.329	14.349	1495.323	1116.572
194.344	14.362	1494.189	1115.712
195.359	14.346	1493.108	1114.703
196.373	14.436	1492.130	1114.477
197.388	14.454	1491.153	1113.766
198.402	14.545	1490.052	1113.452
199.417	14.630	1488.353	1112.655
200.432	14.621	1487.540	1111.886
201.446	14.661	1486.782	1111.487
202.461	14.622	1485.565	1110.217
203.475	14.771	1484.338	1110.193
204.490	14.697	1483.480	1108.967
205.504	14.731	1482.110	1108.067
206.519	14.733	1480.862	1107.047
207.534	14.693	1480.206	1106.197
208.548	14.677	1479.246	1105.272
209.563	14.709	1477.801	1104.307
210.577	14.694	1476.847	1103.400
211.592	14.779	1476.204	1103.383
212.607	14.698	1475.617	1102.314
213.621	14.812	1474.516	1102.146
214.636	14.774	1474.090	1101.478
215.650	14.854	1472.434	1100.668
216.665	14.889	1471.540	1100.136
217.680	14.893	1470.700	1099.432
218.694	14.899	1469.973	1098.834
219.709	14.938	1469.062	1098.314
220.723	15.013	1468.076	1097.971
221.738	15.021	1466.931	1097.069
222.753	14.878	1465.989	1095.330
223.767	14.989	1465.260	1095.412
224.782	14.954	1464.130	1094.246
225.796	14.975	1463.303	1093.665
226.811	15.069	1462.159	1093.325
227.826	15.058	1461.415	1092.602
228.840	15.033	1460.739	1091.837
229.855	15.027	1459.692	1090.919
230.869	15.015	1459.243	1090.409
231.884	14.986	1458.046	1089.227
232.899	15.030	1457.003	1088.637
233.913	15.036	1455.453	1087.422
234.928	15.038	1453.962	1086.230
235.942	15.156	1452.681	1085.937
236.957	15.083	1451.494	1084.483
237.972	14.959	1450.716	1083.003
238.986	14.998	1450.061	1082.674
240.001	15.144	1448.649	1082.464
241.015	15.118	1447.901	1081.644
242.030	15.050	1446.790	1080.278
243.045	15.188	1445.387	1080.022
244.059	15.237	1444.698	1079.727
245.074	15.248	1443.852	1079.071
246.088	15.150	1443.357	1077.975
247.103	15.177	1442.621	1077.503
248.117	15.266	1441.243	1076.951
249.132	15.273	1440.622	1076.436
250.147	15.378	1440.048	1076.586
251.161	15.330	1439.416	1075.709
252.176	15.350	1438.860	1075.326
253.190	15.537	1437.582	1075.475
254.205	15.414	1436.801	1074.013
255.220	15.454	1435.885	1073.486
256.234	15.460	1435.479	1073.128
257.249	15.477	1434.378	1072.313
258.263	15.626	1433.161	1072.265
259.278	15.452	1432.507	1070.568
260.293	15.566	1431.620	1070.534
261.307	15.439	1431.279	1069.375
262.322	15.598	1429.834	1069.219
263.336	15.597	1429.489	1068.857
264.351	15.632	1428.277	1068.079
265.366	15.703	1427.073	1067.537
266.380	15.772	1425.838	1066.954
267.395	15.720	1425.114	1065.989
268.409	15.742	1424.130	1065.297
269.424	15.663	1423.337	1064.106
270.439	15.718	1422.326	1063.609
271.453	15.767	1421.438	1063.156
272.468	15.731	1420.591	1062.203
273.482	15.738	1419.745	1061.520
274.497	15.784	1418.508	1060.792
275.512	15.708	1417.735	1059.641
276.526	15.700	1417.132	1059.049
277.541	15.791	1415.688	1058.446
278.555	15.825	1414.642	1057.786
279.570	15.812	1414.364	1057.401
280.585	15.736	1413.884	1056.471
281.599	15.889	1412.199	1056.077
282.614	15.884	1411.664	1055.554
283.628	15.938	1410.237	1054.732
284.643	15.909	1409.404	1053.837
285.657	15.913	1408.652	1053.202
286.672	15.954	1407.554	1052.549
287.687	15.943	1406.279	1051.428
288.701	15.923	1405.216	1050.420
289.716	15.917	1404.812	1049.987
290.730	15.987	1403.848	1049.610
291.745	15.988	1402.624	1048.607
292.760	16.077	1401.411	1048.164
293.774	16.059	1400.748	1047.463
294.789	16.085	1399.517	1046.608
295.803	16.006	1399.533	1046.039
296.818	16.162	1397.926	1045.711
297.833	16.082	1397.216	1044.593
298.847	16.092	1396.234	1043.829
299.862	16.114	1395.179	1043.084
300.876	16.102	1394.436	1042.361
301.891	16.179	1393.357	1041.939
302.906	16.125	1392.961	1041.217
303.920	16.173	1391.694	1040.470
304.935	16.149	1391.429	1040.032
305.949	16.259	1390.234	1039.728
306.964	16.345	1389.481	1039.603
307.979	16.348	1388.703	1038.945
308.993	16.334	1387.416	1037.803
310.008	16.391	1386.704	1037.532
311.022	16.347	1385.533	1036.294
312.037	16.378	1384.723	1035.784
313.052	16.374	1383.925	1035.072
314.066	16.408	1382.955	1034.464
315.081	16.354	1381.731	1033.125
316.095	16.353	1380.770	1032.311
317.110	16.354	1379.431	1031.220
318.125	16.410	1378.868	1031.052
319.139	16.386	1377.855	1030.057
320.154	16.407	1376.651	1029.195
321.168	16.259	1376.232	1027.888
322.183	16.483	1374.715	1028.028
323.197	16.374	1373.897	1026.663
324.212	16.442	1372.889	1026.229
325.227	16.376	1372.156	1025.188
326.241	16.405	1371.555	1024.826
327.256	16.509	1370.341	1024.460
328.270	16.503	1369.655	1023.819
329.285	16.477	1368.608	1022.792
330.300	16.516	1367.810	1022.335
331.314	16.468	1367.158	1021.471
332.329	16.493	1366.283	1020.875
333.343	16.533	1365.031	1020.092
334.358	16.559	1364.361	1019.656
335.373	16.646	1363.266	1019.276
336.387	16.531	1362.923	1018.235
337.402	16.628	1362.067	1018.091
338.416	16.629	1361.111	1017.288
339.431	16.667	1360.517	1016.983
340.446	16.627	1359.923	1016.214
341.460	16.742	1358.649	1015.860
342.475	16.822	1357.906	1015.695
343.489	16.821	1356.943	1014.876
344.504	16.811	1356.087	1014.088
345.519	16.799	1355.151	1013.228
346.533	16.898	1354.198	1013.017
347.548	16.889	1353.265	1012.173
348.562	16.960	1352.245	1011.745
349.577	16.907	1351.549	1010.816
350.592	16.881	1350.776	1009.996
351.606	16.863	1349.897	1009.142
352.621	16.925	1348.450	1008.340
353.635	16.871	1347.562	1007.266
354.650	16.890	1346.841	1006.748
355.665	16.874	1346.145	1006.045
356.679	16.918	1344.999	1005.360
357.694	16.875	1343.910	1004.204
358.708	16.972	1342.924	1003.953
359.723	17.038	1341.802	1003.416
360.738	16.920	1340.961	1001.999
361.752	17.059	1339.642	1001.745
362.767	17.038	1338.659	1000.799
363.781	17.110	1337.709	1000.423
364.796	17.078	1337.026	999.634
365.810	17.085	1336.254	999.013
366.825	17.138	1335.756	998.860
367.840	17.141	1334.978	998.209
368.854	17.161	1334.278	997.714
369.869	17.201	1333.818	997.517
370.883	17.241	1333.075	997.112
371.898	17.227	1332.145	996.244
372.913	17.228	1331.449	995.642
373.927	17.258	1330.563	995.068
374.942	17.309	1329.756	994.673
375.956	17.251	1329.095	993.749
376.971	17.299	1328.360	993.393
377.986	17.310	1327.633	992.828
379.000	17.226	1326.534	991.430
380.015	17.479	1325.433	991.993
381.029	17.412	1324.764	991.013
382.044	17.426	1324.047	990.468
383.059	17.455	1323.326	990.013
384.073	17.450	1322.747	989.462
385.088	17.479	1322.427	989.305
386.102	17.487	1321.314	988.427
387.117	17.544	1320.388	987.978
388.132	17.527	1319.759	987.322
389.146	17.502	1319.185	986.660
390.161	17.543	1318.474	986.280
391.175	17.516	1317.603	985.386
392.190	17.553	1316.510	984.691
393.205	17.551	1315.746	984.022
394.219	17.576	1314.513	983.162
395.234	17.623	1313.645	982.691
396.248	17.554	1312.448	981.313
397.263	17.634	1310.897	980.530
398.278	17.575	1309.768	979.255
399.292	17.630	1308.630	978.637
400.307	17.577	1307.500	977.401
401.321	17.646	1306.414	976.900
402.336	17.617	1305.719	976.124
403.350	17.635	1304.463	975.205
404.365	17.721	1303.259	974.711
405.380	17.664	1302.479	973.713
406.394	17.733	1301.649	973.399
407.409	17.737	1301.268	973.053
408.423	17.681	1300.707	972.226
409.438	17.786	1299.706	971.993
410.453	17.722	1298.945	970.970
411.467	17.797	1298.623	971.075
412.482	17.848	1297.943	970.769
413.496	17.923	1296.855	970.293
414.511	17.877	1296.613	969.765
415.526	17.992	1295.358	969.394
416.540	17.988	1295.105	969.096
417.555	17.986	1294.217	968.336
418.569	18.006	1293.576	967.884
419.584	17.991	1292.899	967.205
420.599	17.993	1292.332	966.707
421.613	102.016	1360.950	1491.084
422.628	100.009	1370.873	1491.175
