DTS Sentinel unit serial number:	SN413079Multiplexer serial number:	ORYXHardware model number:	OX4-SRSoftware version number:	ORYX F/W v4.00 Oryx Data Collector v3.7.2.0data status	okinstallation	princeton_trtdifferential loss correction	single-endedforward channel	channel 4reverse channel	N/Adate	2019/09/17time	23:05:35forward acquisition time	60.00reverse acquisition time	0.00gamma	496.2192k internal	0.2331k external	0.2331temperature offset calibration	0.9996default loss term (dB/km)	0.3790temperature slope calibration	1.0000multiplexer offset coefficient	1.0000multiplexer slope coefficient	1.0000fibre end	0.00T internal ref (°C)	24.69T ext. ref 1 (°C)	0.19T ext. ref 2 (°C)	17.86length (m)	temperature (°C)	Stokes	anti-Stokes-747.200	800.000	0.054	0.162
-746.185	40.052	-0.189	-0.171
-745.171	800.000	0.030	-0.104
-744.156	116.562	0.105	-0.129
-743.142	-113.187	0.275	0.054
-742.127	280.635	-0.128	0.230
-741.112	-94.922	0.200	-0.055
-740.098	-119.423	-0.175	0.031
-739.083	-133.197	-0.214	0.027
-738.069	-200.000	0.055	0.250
-737.054	64.809	-0.144	0.146
-736.039	-158.139	-0.308	0.018
-735.025	-126.991	0.211	0.031
-734.010	-20.864	-0.131	0.081
-732.996	-106.200	0.251	-0.057
-731.981	150.794	-0.147	-0.201
-730.966	-102.427	0.351	-0.085
-729.952	800.000	0.013	-0.037
-728.937	-158.400	-0.382	0.022
-727.923	-29.647	0.329	-0.189
-726.908	86.783	0.156	-0.173
-725.894	-200.000	-0.031	-0.227
-724.879	-133.587	0.132	-0.017
-723.864	-200.000	-0.049	-0.437
-722.850	696.398	-0.090	-0.237
-721.835	465.340	0.078	-0.176
-720.821	143.067	0.036	0.049
-719.806	-75.931	0.358	-0.128
-718.791	-130.074	0.331	0.045
-717.777	-35.133	-0.083	-0.046
-716.762	-200.000	-0.068	-0.468
-715.748	-125.847	-0.126	-0.019
-714.733	-84.753	0.247	0.078
-713.718	-81.450	-0.225	0.074
-712.704	6.343	0.176	-0.131
-711.689	-200.000	-0.023	-0.242
-710.675	6.300	0.331	-0.247
-709.660	439.058	0.073	-0.161
-708.645	-99.671	-0.272	0.069
-707.631	-137.577	-0.228	-0.026
-706.616	147.607	-0.135	-0.183
-705.602	800.000	0.010	0.030
-704.587	-92.724	0.439	-0.124
-703.572	52.337	-0.039	0.037
-702.558	269.635	0.019	-0.034
-701.543	4.011	-0.325	-0.239
-700.529	189.804	-0.198	-0.298
-699.514	-142.374	-0.363	0.036
-698.499	-200.000	-0.037	0.278
-697.485	356.492	-0.090	-0.180
-696.470	-77.499	0.143	-0.050
-695.456	-151.872	-0.279	0.021
-694.441	800.000	-0.091	0.291
-693.426	5.605	-0.188	-0.139
-692.412	-154.538	-0.094	0.006
-691.397	-24.387	-0.350	0.210
-690.383	-119.455	0.333	0.058
-689.368	-180.041	-0.184	0.004
-688.354	-67.871	0.108	-0.042
-687.339	356.561	-0.005	0.009
-686.324	-200.000	0.032	0.266
-685.310	29.354	-0.221	-0.188
-684.295	-133.080	-0.196	-0.025
-683.281	-197.440	-0.224	0.001
-682.266	800.000	0.039	-0.111
-681.251	-200.000	-0.067	0.405
-680.237	-200.000	-0.021	0.212
-679.222	314.826	-0.149	0.282
-678.208	800.000	-0.036	-0.156
-677.193	-81.066	-0.291	-0.097
-676.178	800.000	-0.009	0.026
-675.164	-114.200	0.054	-0.010
-674.149	-5.184	-0.198	0.136
-673.135	445.684	-0.068	-0.150
-672.120	256.371	-0.119	-0.205
-671.105	-50.617	-0.319	0.151
-670.091	131.097	-0.043	-0.056
-669.076	-75.270	-0.172	-0.061
-668.062	175.918	-0.143	-0.209
-667.047	207.182	0.164	-0.257
-666.032	-200.000	-0.001	-0.164
-665.018	800.000	0.020	-0.066
-664.003	-200.000	0.006	0.197
-662.989	56.733	-0.158	0.155
-661.974	-200.000	-0.022	0.097
-660.959	800.000	-0.057	0.162
-659.945	336.407	0.107	0.208
-658.930	-7.045	0.151	-0.103
-657.916	800.000	0.057	0.215
-656.901	-200.000	0.002	-0.215
-655.886	-131.247	0.085	-0.011
-654.872	49.332	-0.219	0.207
-653.857	-140.773	0.141	-0.015
-652.843	203.896	-0.080	-0.125
-651.828	800.000	0.041	-0.151
-650.814	-113.390	-0.219	0.043
-649.799	-38.484	0.109	-0.058
-648.784	-172.561	-0.241	0.008
-647.770	-61.948	0.053	-0.022
-646.755	800.000	-0.042	0.165
-645.741	-23.183	-0.308	0.186
-644.726	800.000	0.082	-0.295
-643.711	142.602	0.028	0.037
-642.697	-95.121	0.065	-0.018
-641.682	-176.128	0.458	0.012
-640.668	428.535	-0.150	0.326
-639.653	-113.820	0.377	0.074
-638.638	-72.934	0.156	0.057
-637.624	-200.000	-0.009	-0.203
-636.609	132.299	0.056	-0.073
-635.595	-4.125	-0.083	-0.058
-634.580	-87.570	0.324	0.098
-633.565	-168.703	-0.185	0.007
-632.551	85.051	0.051	0.056
-631.536	800.000	-0.035	-0.124
-630.522	-200.000	0.001	-0.302
-629.507	-72.539	-0.192	0.071
-628.492	39.848	0.138	-0.124
-627.478	-63.731	0.127	0.052
-626.463	-200.000	-0.011	0.169
-625.449	-130.745	-0.311	-0.042
-624.434	220.556	-0.118	0.189
-623.419	-130.895	-0.259	-0.035
-622.405	-193.887	0.310	-0.003
-621.390	-51.197	-0.247	0.116
-620.376	11.731	0.150	0.115
-619.361	-200.000	-0.027	-0.222
-618.346	-200.000	0.018	-0.172
-617.332	-31.881	0.221	-0.124
-616.317	780.928	0.070	0.192
-615.303	439.152	-0.090	-0.196
-614.288	800.000	0.029	-0.122
-613.273	-200.000	-0.035	-0.316
-612.259	-112.430	-0.222	0.044
-611.244	31.906	-0.138	-0.119
-610.230	-200.000	-0.024	-0.176
-609.215	-71.869	-0.019	0.007
-608.201	143.852	0.128	-0.171
-607.186	779.607	-0.042	0.114
-606.171	526.595	0.076	0.179
-605.157	47.109	0.232	-0.216
-604.142	-200.000	0.013	0.245
-603.128	108.575	0.130	0.156
-602.113	57.411	0.048	-0.047
-601.098	137.221	0.147	-0.193
-600.084	-200.000	-0.041	-0.221
-599.069	-200.000	0.080	-0.442
-598.055	800.000	0.098	0.283
-597.040	-50.502	-0.036	-0.017
-596.025	116.703	-0.160	-0.196
-595.011	-18.904	0.215	-0.134
-593.996	-104.830	-0.486	-0.112
-592.982	169.331	0.096	-0.137
-591.967	195.022	-0.067	0.102
-590.952	-200.000	0.039	-0.304
-589.938	-55.086	0.234	-0.105
-588.923	-200.000	0.002	-0.077
-587.909	-200.000	-0.070	-0.315
-586.894	-59.847	0.327	0.140
-585.879	230.752	-0.058	-0.095
-584.865	60.436	0.184	0.182
-583.850	317.141	-0.098	-0.185
-582.836	-200.000	-0.047	-0.251
-581.821	800.000	0.071	0.219
-580.806	-200.000	-0.022	0.117
-579.792	122.384	-0.216	0.269
-578.777	173.949	-0.087	0.125
-577.763	531.412	0.028	-0.067
-576.748	-77.626	-0.347	0.120
-575.733	-32.798	0.116	0.064
-574.719	-200.000	0.043	0.241
-573.704	319.819	0.140	0.266
-572.690	-186.282	-0.138	0.002
-571.675	-200.000	0.024	-0.416
-570.661	800.000	-0.050	-0.167
-569.646	56.084	-0.119	-0.115
-568.631	-39.964	-0.208	0.109
-567.617	-200.000	-0.040	-0.386
-566.602	334.334	-0.076	0.147
-565.588	-200.000	-0.011	0.117
-564.573	-200.000	-0.011	0.053
-563.558	-200.000	-0.035	0.210
-562.544	132.576	0.191	0.247
-561.529	193.698	0.162	-0.244
-560.515	-200.000	-0.007	-0.238
-559.500	-200.000	-0.080	0.449
-558.485	106.098	-0.331	0.392
-557.471	-59.252	0.161	-0.069
-556.456	757.312	0.054	0.146
-555.442	219.864	0.033	0.053
-554.427	632.002	-0.135	0.341
-553.412	56.585	-0.210	0.204
-552.398	800.000	-0.034	0.105
-551.383	-27.371	-0.271	-0.157
-550.369	435.699	0.055	-0.119
-549.354	800.000	-0.085	0.296
-548.339	-97.507	-0.053	-0.014
-547.325	-200.000	-0.003	-0.026
-546.310	-14.363	-0.211	0.136
-545.296	-174.934	0.162	-0.005
-544.281	-200.000	-0.025	-0.217
-543.266	800.000	0.133	0.468
-542.252	-32.702	-0.121	0.067
-541.237	-43.265	-0.109	-0.055
-540.223	-23.937	0.095	0.057
-539.208	-117.754	0.123	-0.022
-538.193	-105.988	-0.274	-0.062
-537.179	-93.117	-0.355	-0.099
-536.164	-141.309	0.115	-0.012
-535.150	367.331	-0.169	-0.342
-534.135	144.003	-0.255	0.339
-533.121	6.604	0.103	0.076
-532.106	222.345	-0.028	0.044
-531.091	92.407	0.047	-0.053
-530.077	800.000	-0.048	0.161
-529.062	268.528	0.053	-0.093
-528.048	17.356	-0.244	-0.194
-527.033	-87.977	0.089	0.027
-526.018	-122.414	0.246	-0.040
-525.004	494.493	-0.065	-0.149
-523.989	-99.148	-0.354	0.089
-522.975	-85.839	-0.049	0.015
-521.960	-200.000	0.010	-0.300
-520.945	67.777	-0.039	-0.040
-519.931	258.198	0.173	-0.297
-518.916	-44.496	0.303	0.151
-517.902	-158.074	0.082	-0.005
-516.887	-200.000	0.061	0.371
-515.872	16.247	-0.102	0.080
-514.858	200.545	0.199	-0.306
-513.843	102.738	0.119	0.139
-512.829	800.000	0.088	0.267
-511.814	0.788	-0.188	-0.134
-510.799	94.657	0.095	0.108
-509.785	-63.077	-0.234	-0.096
-508.770	389.350	0.107	-0.222
-507.756	790.288	0.072	0.196
-506.741	13.339	-0.321	-0.248
-505.726	-200.000	-0.063	0.316
-504.712	-98.706	0.237	-0.060
-503.697	-64.499	0.241	-0.098
-502.683	-12.119	0.281	-0.184
-501.668	322.675	0.090	-0.170
-500.653	105.287	0.057	-0.068
-499.639	-39.998	-0.206	0.107
-498.624	498.443	-0.036	0.083
-497.610	107.033	-0.107	0.127
-496.595	72.311	0.283	0.294
-495.581	83.697	-0.194	0.211
-494.566	-140.175	-0.186	-0.019
-493.551	-200.000	0.026	-0.134
-492.537	800.000	0.047	0.137
-491.522	100.535	0.166	-0.192
-490.508	194.275	-0.172	-0.260
-489.493	-200.000	0.026	0.380
-488.478	-160.629	0.320	-0.017
-487.464	190.381	0.043	-0.064
-486.449	16.670	-0.090	0.071
-485.435	800.000	-0.034	-0.127
-484.420	432.391	0.145	0.313
-483.405	-200.000	0.055	-0.517
-482.391	-84.961	0.259	-0.081
-481.376	251.013	-0.125	0.211
-480.362	-58.907	-0.275	0.118
-479.347	-200.000	0.108	0.513
-478.332	-47.262	-0.267	0.129
-477.318	-14.199	0.297	0.191
-476.303	-200.000	-0.004	0.027
-475.289	-200.000	0.040	0.325
-474.274	-14.742	-0.086	0.055
-473.259	52.469	0.199	-0.189
-472.245	404.557	-0.068	0.143
-471.230	800.000	-0.049	-0.180
-470.216	800.000	-0.127	-0.416
-469.201	-16.669	0.223	-0.140
-468.186	-57.896	-0.090	-0.039
-467.172	-109.224	-0.247	-0.052
-466.157	-140.766	0.283	0.029
-465.143	181.066	-0.230	-0.336
-464.128	-178.354	0.118	0.003
-463.113	-200.000	0.067	-0.333
-462.099	84.291	0.218	0.237
-461.084	800.000	-0.063	0.182
-460.070	355.342	-0.067	-0.134
-459.055	42.829	0.158	0.143
-458.040	244.963	-0.039	-0.065
-457.026	-169.524	-0.194	0.007
-456.011	-52.160	0.250	0.115
-454.997	216.393	0.170	0.269
-453.982	-46.375	0.339	-0.166
-452.968	-136.308	0.086	0.010
-451.953	-93.462	-0.204	0.056
-450.938	-200.000	0.019	-0.131
-449.924	-200.000	0.002	0.120
-448.909	-200.000	-0.038	0.260
-447.895	-120.000	-0.487	-0.083
-446.880	-135.140	-0.282	-0.034
-445.865	-75.638	-0.244	0.086
-444.851	-157.426	0.385	-0.023
-443.836	-200.000	0.029	-0.171
-442.822	54.371	0.258	0.247
-441.807	-95.325	0.207	0.055
-440.792	-200.000	0.054	-0.312
-439.778	-49.009	-0.098	0.046
-438.763	-107.007	-0.058	-0.013
-437.749	-200.000	-0.019	-0.256
-436.734	800.000	0.080	-0.286
-435.719	-200.000	-0.037	0.283
-434.705	-143.266	-0.179	0.017
-433.690	-101.485	-0.182	0.044
-432.676	-22.176	-0.112	-0.067
-431.661	175.900	0.076	0.109
-430.646	25.054	-0.313	-0.258
-429.632	601.515	0.132	0.326
-428.617	78.155	-0.115	-0.122
-427.603	-115.009	0.288	0.054
-426.588	-62.456	-0.252	0.104
-425.573	434.483	0.141	0.305
-424.559	-143.430	-0.188	-0.018
-423.544	284.894	0.114	-0.203
-422.530	800.000	-0.056	0.186
-421.515	-78.202	-0.079	0.027
-420.500	250.662	-0.084	0.142
-419.486	-200.000	0.018	0.158
-418.471	329.630	0.077	0.147
-417.457	-200.000	-0.011	-0.095
-416.442	800.000	0.051	-0.157
-415.428	693.696	-0.056	0.145
-414.413	464.811	-0.025	-0.056
-413.398	-200.000	0.017	0.237
-412.384	36.169	-0.316	0.277
-411.369	-55.253	0.123	0.055
-410.355	-116.462	0.206	-0.038
-409.340	800.000	-0.092	-0.299
-408.325	184.405	0.140	0.206
-407.311	-133.532	0.213	-0.026
-406.296	45.644	0.184	-0.169
-405.282	185.432	-0.085	-0.125
-404.267	107.989	-0.029	0.034
-403.252	-26.315	0.154	-0.090
-402.238	800.000	-0.124	-0.406
-401.223	111.395	0.264	0.316
-400.209	226.569	0.120	0.193
-399.194	800.000	-0.110	-0.409
-398.179	212.813	-0.060	0.095
-397.165	7.276	-0.380	-0.282
-396.150	-39.103	0.021	0.011
-395.136	-200.000	0.012	0.124
-394.121	800.000	-0.072	0.198
-393.106	800.000	-0.110	-0.312
-392.092	-1.082	-0.065	-0.046
-391.077	-36.067	-0.026	-0.014
-390.063	89.950	0.313	-0.347
-389.048	-11.288	-0.223	0.146
-388.033	-200.000	-0.007	0.163
-387.019	-200.000	0.024	-0.104
-386.004	-84.323	-0.267	0.084
-384.990	-108.713	0.032	0.007
-383.975	409.616	-0.175	0.367
-382.960	-103.212	0.160	0.038
-381.946	-180.276	-0.182	0.004
-380.931	-19.024	-0.071	-0.044
-379.917	224.790	-0.031	-0.050
-378.902	-41.433	0.194	0.099
-377.888	385.569	-0.046	0.095
-376.873	155.867	0.156	-0.213
-375.858	-64.162	-0.088	-0.036
-374.844	-163.352	-0.283	-0.013
-373.829	-60.578	-0.220	0.093
-372.815	-64.368	0.419	-0.169
-371.800	321.359	-0.092	-0.173
-370.785	10.584	-0.069	-0.052
-369.771	-200.000	0.012	-0.180
-368.756	-200.000	-0.015	0.256
-367.742	-110.643	0.471	0.097
-366.727	-200.000	0.017	0.084
-365.712	190.701	-0.067	-0.100
-364.698	-85.499	0.077	0.024
-363.683	-185.567	0.163	-0.002
-362.669	-99.512	0.114	0.028
-361.654	-104.251	-0.145	0.033
-360.639	-200.000	-0.023	0.411
-359.625	198.443	-0.157	0.238
-358.610	137.710	0.123	0.159
-357.596	-200.000	-0.041	-0.241
-356.581	209.981	-0.150	0.234
-355.566	-200.000	0.041	-0.334
-354.552	-200.000	0.043	0.229
-353.537	-131.092	-0.418	-0.055
-352.523	370.961	-0.016	-0.032
-351.508	-28.474	0.028	0.016
-350.493	-200.000	0.086	0.388
-349.479	457.109	-0.124	-0.274
-348.464	-1.971	0.057	0.040
-347.450	101.674	-0.266	0.307
-346.435	-200.000	0.003	-0.094
-345.420	91.168	-0.054	-0.060
-344.406	-200.000	-0.033	0.249
-343.391	-200.000	-0.062	-0.302
-342.377	428.950	-0.099	-0.211
-341.362	-56.153	-0.161	-0.071
-340.348	16.613	0.231	-0.181
-339.333	-200.000	-0.005	-0.024
-338.318	129.882	0.181	-0.229
-337.304	800.000	-0.075	0.214
-336.289	-200.000	0.018	0.250
-335.275	-24.233	-0.100	0.059
-334.260	157.991	0.162	0.223
-333.245	-18.035	0.219	0.136
-332.231	-200.000	-0.012	-0.096
-331.216	-101.877	0.128	0.031
-330.202	800.000	-0.038	-0.122
-329.187	-200.000	-0.050	-0.390
-328.172	-200.000	-0.009	-0.259
-327.158	-200.000	0.030	-0.243
-326.143	-35.923	-0.022	0.012
-325.129	-200.000	0.136	0.000
-324.114	-112.495	0.284	0.056
-323.099	43.802	0.151	0.137
-322.085	-21.547	-0.391	-0.236
-321.070	-200.000	-0.048	-0.210
-320.056	-148.483	-0.235	-0.019
-319.041	-200.000	-0.019	0.089
-318.026	-124.703	-0.196	-0.030
-317.012	-200.000	-0.024	-0.141
-315.997	58.798	-0.145	0.141
-314.983	375.017	0.055	0.111
-313.968	800.000	0.100	-0.380
-312.953	295.884	0.129	0.234
-311.939	193.662	-0.025	0.037
-310.924	-36.596	0.180	-0.096
-309.910	-12.017	0.208	0.135
-308.895	800.000	-0.042	-0.138
-307.880	33.632	-0.044	-0.038
-306.866	343.706	-0.096	-0.187
-305.851	286.501	0.038	0.068
-304.837	800.000	0.092	0.288
-303.822	-200.000	-0.051	-0.272
-302.807	18.988	0.093	-0.074
-301.793	-200.000	0.036	0.176
-300.778	-200.000	0.009	-0.209
-299.764	-114.053	-0.210	-0.040
-298.749	2.096	-0.077	-0.055
-297.735	-62.695	0.349	-0.143
-296.720	-188.343	-0.077	0.001
-295.705	800.000	-0.136	-0.430
-294.691	-64.559	0.085	0.034
-293.676	175.122	-0.187	0.268
-292.662	366.935	0.060	-0.120
-291.647	-200.000	-0.005	-0.137
-290.632	-30.897	0.196	-0.110
-289.618	54.885	-0.205	0.195
-288.603	-200.000	0.023	-0.110
-287.589	76.912	-0.036	0.038
-286.574	218.325	-0.092	0.144
-285.559	219.781	-0.163	-0.258
-284.545	-27.246	-0.062	-0.036
-283.530	-200.000	0.065	0.467
-282.516	360.979	0.021	-0.041
-281.501	33.790	-0.157	-0.135
-280.486	-145.516	-0.161	-0.014
-279.472	52.542	-0.031	-0.029
-278.457	-71.095	0.234	0.087
-277.443	-67.462	-0.173	0.067
-276.428	527.961	0.094	0.220
-275.413	0.790	0.116	-0.082
-274.399	384.408	0.249	0.507
-273.384	-48.497	0.042	-0.020
-272.370	-154.630	-0.100	-0.007
-271.355	-41.171	-0.141	-0.072
-270.340	-200.000	0.011	0.121
-269.326	-200.000	-0.060	-0.313
-268.311	166.586	0.218	0.305
-267.297	800.000	0.026	-0.089
-266.282	-76.087	0.016	-0.005
-265.267	-65.246	-0.464	-0.185
-264.253	-138.856	0.213	-0.023
-263.238	-93.936	0.079	0.022
-262.224	149.817	0.106	0.142
-261.209	-167.273	0.035	-0.001
-260.195	-25.126	-0.249	0.146
-259.180	-87.534	-0.212	0.063
-258.165	375.037	-0.067	-0.136
-257.151	-3.691	-0.144	0.099
-256.136	31.931	0.321	-0.273
-255.122	-149.399	0.258	-0.020
-254.107	-141.695	0.292	-0.029
-253.092	-60.151	-0.331	-0.139
-252.078	-200.000	-0.039	0.214
-251.063	-200.000	-0.058	0.266
-250.049	317.567	-0.086	0.161
-249.034	800.000	-0.016	0.051
-248.019	-8.013	0.033	0.022
-247.005	38.161	-0.227	-0.199
-245.990	800.000	0.130	0.435
-244.976	373.156	0.040	0.081
-243.961	800.000	-0.064	-0.190
-242.946	-56.988	-0.373	-0.162
-241.932	800.000	0.098	-0.287
-240.917	-71.506	0.204	0.075
-239.903	1.735	0.083	-0.059
-238.888	-200.000	-0.049	0.433
-237.873	-91.581	-0.146	0.041
-236.859	-200.000	0.018	0.171
-235.844	154.806	0.070	0.095
-234.830	40.356	-0.206	-0.183
-233.815	800.000	0.137	-0.381
-232.800	-59.769	-0.237	-0.100
-231.786	800.000	-0.042	-0.116
-230.771	-67.439	0.099	-0.038
-229.757	207.115	-0.110	0.170
-228.742	800.000	0.080	0.257
-227.727	-69.628	-0.175	-0.066
-226.713	66.551	0.285	0.286
-225.698	400.122	0.027	0.055
-224.684	3.971	0.070	0.050
-223.669	-200.000	-0.041	-0.299
-222.655	493.838	-0.104	0.236
-221.640	118.362	-0.064	0.078
-220.625	387.307	-0.016	0.032
-219.611	100.845	0.088	-0.101
-218.596	-200.000	-0.019	0.129
-217.582	-96.506	-0.239	0.062
-216.567	-78.966	-0.235	-0.079
-215.552	-200.000	-0.014	-0.130
-214.538	-200.000	0.011	-0.143
-213.523	191.972	-0.164	0.244
-212.509	773.553	-0.073	-0.197
-211.494	-89.548	-0.065	0.019
-210.479	-107.899	0.141	-0.030
-209.465	-200.000	-0.047	0.249
-208.450	-200.000	-0.003	-0.071
-207.436	623.987	0.111	-0.275
-206.421	-200.000	0.011	-0.085
-205.406	-200.000	0.105	0.589
-204.392	-93.224	-0.200	-0.055
-203.377	67.004	0.219	-0.220
-202.363	125.615	0.068	0.085
-201.348	29.078	0.112	-0.094
-200.333	13.152	-0.207	-0.158
-199.319	-85.184	0.139	0.043
-198.304	-20.453	-0.166	-0.101
-197.290	-114.541	0.291	0.055
-196.275	-31.033	0.234	0.130
-195.260	79.308	0.127	0.134
-194.246	-200.000	-0.004	-0.129
-193.231	-200.000	0.013	0.132
-192.217	-167.803	-0.162	0.006
-191.202	19.770	0.060	0.048
-190.187	-155.833	-0.357	0.022
-189.173	143.109	0.062	0.081
-188.158	84.107	0.130	0.140
-187.144	-200.000	-0.016	-0.263
-186.129	182.806	0.326	-0.473
-185.114	-11.800	0.127	-0.082
-184.100	-76.738	-0.252	0.087
-183.085	52.051	0.300	-0.281
-182.071	619.895	0.131	-0.324
-181.056	-28.135	0.249	-0.141
-180.042	349.471	0.043	0.083
-179.027	415.372	-0.093	0.195
-178.012	-74.181	-0.052	0.019
-176.998	-200.000	0.018	0.277
-175.983	-79.398	0.069	0.023
-174.969	800.000	-0.021	-0.085
-173.954	131.652	-0.072	-0.091
-172.939	-43.064	-0.109	0.054
-171.925	-125.561	0.268	-0.040
-170.910	800.000	-0.074	0.273
-169.896	800.000	0.091	-0.387
-168.881	46.908	-0.301	0.275
-167.866	388.723	0.170	-0.347
-166.852	417.583	-0.045	0.094
-165.837	37.559	0.103	0.090
-164.823	-114.032	0.349	0.067
-163.808	-200.000	-0.028	0.153
-162.793	800.000	-0.055	0.180
-161.779	-32.269	-0.145	0.080
-160.764	2.512	0.291	-0.208
-159.750	468.682	0.144	0.317
-158.735	-7.375	0.228	-0.152
-157.720	134.090	-0.029	-0.037
-156.706	-200.000	-0.058	-0.373
-155.691	15.511	0.026	0.020
-154.677	-152.045	-0.152	0.011
-153.662	-135.235	0.136	-0.016
-152.647	-124.859	0.173	-0.026
-151.633	5.262	0.189	-0.137
-150.618	205.289	0.166	-0.253
-149.604	42.531	-0.098	-0.088
-148.589	742.034	0.137	0.363
-147.574	716.017	0.094	-0.245
-146.560	21.803	0.140	-0.112
-145.545	-116.828	0.368	-0.066
-144.531	111.219	0.157	-0.186
-143.516	-120.725	-0.319	-0.053
-142.502	-129.483	0.169	-0.023
-141.487	-200.000	-0.031	0.254
-140.472	-73.076	-0.262	-0.095
-139.458	-95.404	-0.315	0.083
-138.443	-173.281	0.339	0.010
-137.429	269.802	0.033	-0.056
-136.414	-41.449	0.182	-0.092
-135.399	-70.067	0.071	0.027
-134.385	-130.094	0.273	-0.037
-133.370	258.084	-0.166	-0.281
-132.356	-149.496	-0.136	0.011
-131.341	-35.909	0.174	-0.092
-130.326	800.000	0.004	-0.016
-129.312	-98.027	0.199	0.050
-128.297	235.959	-0.112	0.182
-127.283	-133.495	-0.097	-0.012
-126.268	13.297	-0.045	-0.034
-125.253	15.710	0.210	0.162
-124.239	-111.904	0.038	-0.007
-123.224	-156.748	0.304	0.018
-122.210	-145.207	0.216	0.019
-121.195	62.649	-0.080	-0.078
-120.180	-181.334	0.126	0.002
-119.166	330.995	0.159	-0.302
-118.151	-95.089	-0.321	0.085
-117.137	210.598	0.070	-0.109
-116.122	241.135	-0.118	-0.194
-115.107	92.386	0.244	-0.271
-114.093	93.746	0.076	-0.085
-113.078	-181.006	-0.229	0.005
-112.064	77.907	-0.130	-0.136
-111.049	-56.723	0.301	0.131
-110.034	800.000	-0.032	0.092
-109.020	-135.982	-0.334	0.039
-108.005	-21.101	-0.056	-0.033
-106.991	-80.493	-0.072	-0.023
-105.976	-138.055	0.222	-0.024
-104.962	-185.604	-0.314	0.005
-103.947	-9.854	-0.101	0.066
-102.932	229.055	0.027	0.043
-101.918	-8.537	0.175	0.115
-100.903	-200.000	-0.009	-0.124
-99.889	800.000	0.043	-0.143
-98.874	-138.307	-0.215	-0.023
-97.859	156.959	-0.180	-0.245
-96.845	-37.042	0.200	-0.105
-95.830	-67.660	0.104	0.040
-94.816	-200.000	-0.027	0.222
-93.801	24.571	-0.322	-0.262
-92.786	-200.000	0.382	0.001
-91.772	22.616	-0.153	-0.123
-90.757	-17.454	0.085	0.053
-89.743	6.329	-0.033	-0.024
-88.728	237.057	-0.153	0.248
-87.713	349.418	0.068	0.131
-86.699	-200.000	-0.004	-0.152
-85.684	43.043	0.183	-0.164
-84.670	-125.818	-0.079	-0.012
-83.655	-200.000	0.019	-0.137
-82.640	-0.316	-0.123	-0.086
-81.626	-70.218	0.185	-0.069
-80.611	800.000	0.122	-0.431
-79.597	-127.734	0.054	0.008
-78.582	195.134	0.127	0.188
-77.567	243.928	0.186	-0.306
-76.553	-129.962	0.169	0.023
-75.538	200.097	0.055	0.082
-74.524	142.784	-0.079	-0.103
-73.509	-16.854	-0.071	0.044
-72.494	-6.550	0.160	-0.107
-71.480	134.774	0.059	0.075
-70.465	339.503	0.117	0.223
-69.451	-15.998	-0.211	0.131
-68.436	184.527	-0.112	-0.162
-67.422	-200.000	0.024	0.178
-66.407	-9.184	-0.101	0.066
-65.392	161.169	-0.047	-0.064
-64.378	281.650	0.066	0.116
-63.363	184.073	-0.069	0.101
-62.349	-49.152	0.247	-0.116
-61.334	147.926	-0.954	-1.261
-60.319	15.466	0.878	0.676
-59.305	89.248	-0.710	-0.775
-58.290	230.526	0.907	1.454
-57.276	365.832	0.688	1.359
-56.261	-200.000	120.907	619.522
-55.246	415.223	1528.254	3190.791
-54.232	147.102	2680.038	3532.578
-53.217	88.023	2299.973	2499.043
-52.203	30.773	2052.532	1721.582
-51.188	26.475	1969.547	1613.668
-50.173	25.156	1954.005	1589.193
-49.159	41.978	2023.099	1798.106
-48.144	40.572	2036.798	1797.480
-47.130	26.766	1990.186	1632.946
-46.115	24.711	1979.333	1605.541
-45.100	24.662	1976.643	1602.854
-44.086	24.579	1974.064	1599.962
-43.071	24.542	1972.054	1597.933
-42.057	24.528	1970.006	1596.088
-41.042	24.552	1967.953	1594.573
-40.027	24.572	1965.615	1592.791
-39.013	24.667	1963.402	1591.784
-37.998	24.604	1962.241	1590.217
-36.984	24.626	1960.747	1589.139
-35.969	24.615	1958.318	1587.015
-34.954	24.571	1957.151	1585.611
-33.940	24.640	1955.406	1584.746
-32.925	24.715	1953.726	1583.988
-31.911	24.651	1951.927	1581.896
-30.896	24.736	1950.432	1581.376
-29.881	24.685	1949.617	1580.204
-28.867	24.733	1948.079	1579.322
-27.852	24.729	1946.004	1577.537
-26.838	24.746	1943.970	1575.973
-25.823	24.680	1942.398	1574.055
-24.809	24.732	1940.160	1572.643
-23.794	24.732	1939.135	1571.742
-22.779	24.740	1937.178	1570.167
-21.765	24.740	1935.364	1568.636
-20.750	24.682	1934.058	1567.006
-19.736	24.758	1932.312	1566.196
-18.721	24.736	1930.924	1564.818
-17.706	24.781	1928.880	1563.492
-16.692	24.652	1927.661	1561.311
-15.677	24.712	1925.353	1559.901
-14.663	24.665	1924.288	1558.567
-13.648	24.747	1922.531	1557.799
-12.633	24.646	1922.697	1556.991
-11.619	24.645	1921.175	1555.694
-10.604	24.644	1919.447	1554.222
-9.590	24.684	1918.011	1553.341
-8.575	24.712	1916.600	1552.381
-7.560	24.724	1915.518	1551.552
-6.546	24.700	1914.236	1550.244
-5.531	24.766	1912.598	1549.425
-4.517	24.704	1911.765	1548.152
-3.502	24.670	1910.991	1547.164
-2.487	24.546	1909.829	1545.090
-1.473	24.628	1908.728	1544.848
-0.458	24.797	1903.380	1541.919
0.556	22.802	1883.595	1511.667
1.571	18.249	1864.811	1457.767
2.586	14.255	1886.801	1440.329
3.600	13.273	1921.197	1457.804
4.615	13.114	1913.614	1450.524
5.629	10.148	1815.255	1351.100
6.644	3.997	1703.726	1219.631
7.659	0.520	1670.388	1168.773
8.673	0.291	1667.510	1164.883
9.688	0.251	1666.220	1163.570
10.702	0.186	1664.856	1162.010
11.717	0.022	1661.045	1157.991
12.731	0.493	1659.720	1160.582
13.746	5.332	1669.721	1204.850
14.761	12.652	1684.678	1272.291
15.775	16.463	1690.995	1306.455
16.790	16.844	1690.388	1308.816
17.804	15.940	1687.149	1299.222
18.819	14.899	1684.516	1289.056
19.834	14.385	1681.786	1282.903
20.848	14.129	1680.058	1279.499
21.863	13.912	1678.567	1276.581
22.877	13.708	1677.350	1273.976
23.892	13.423	1675.582	1270.334
24.907	13.310	1675.020	1268.929
25.921	13.302	1673.324	1267.470
26.936	13.338	1672.555	1267.050
27.950	13.384	1671.508	1266.496
28.965	13.308	1671.102	1265.498
29.980	13.418	1670.775	1265.975
30.994	13.374	1670.116	1265.033
32.009	13.503	1668.737	1264.856
33.023	13.523	1667.877	1264.247
34.038	13.581	1666.582	1263.597
35.053	13.598	1665.693	1262.939
36.067	13.494	1664.845	1261.395
37.082	13.478	1663.853	1260.407
38.096	13.500	1662.810	1259.673
39.111	13.491	1662.541	1259.294
40.126	13.496	1661.103	1258.126
41.140	13.466	1660.147	1257.065
42.155	13.374	1658.902	1255.311
43.169	13.337	1657.352	1253.749
44.184	13.353	1656.335	1252.993
45.199	13.312	1655.087	1251.621
46.213	13.340	1653.655	1250.642
47.228	13.308	1652.475	1249.397
48.242	13.406	1650.903	1248.841
49.257	13.375	1650.538	1248.221
50.271	13.351	1649.194	1246.908
51.286	13.392	1647.844	1246.091
52.301	13.457	1646.362	1245.348
53.315	13.461	1645.002	1244.236
54.330	13.425	1643.575	1242.775
55.344	13.347	1641.644	1240.622
56.359	13.371	1640.117	1239.535
57.374	13.380	1638.774	1238.481
58.388	13.292	1638.559	1237.551
59.403	13.234	1636.675	1235.585
60.417	13.316	1634.863	1234.719
61.432	13.223	1633.990	1233.257
62.447	13.289	1632.340	1232.390
63.461	13.215	1631.374	1231.003
64.476	13.228	1630.699	1230.479
65.490	13.222	1629.324	1229.291
66.505	13.227	1628.309	1228.451
67.520	13.220	1627.517	1227.698
68.534	13.216	1626.207	1226.573
69.549	13.244	1625.011	1225.763
70.563	13.371	1623.289	1225.298
71.578	13.281	1622.179	1223.688
72.593	13.244	1621.400	1222.721
73.607	13.153	1620.648	1221.369
74.622	13.217	1619.289	1220.711
75.636	13.142	1618.018	1219.092
76.651	13.265	1617.650	1219.615
77.666	13.189	1616.420	1218.014
78.680	13.173	1615.356	1216.989
79.695	13.178	1614.278	1216.110
80.709	13.097	1613.514	1214.828
81.724	13.209	1612.384	1214.692
82.739	13.192	1611.728	1213.965
83.753	13.292	1610.982	1214.031
84.768	13.309	1609.744	1213.118
85.782	13.332	1608.781	1212.454
86.797	13.404	1608.369	1212.558
87.812	13.419	1607.018	1211.548
88.826	13.387	1606.082	1210.500
89.841	13.347	1604.655	1209.021
90.855	13.445	1603.532	1208.787
91.870	13.352	1602.814	1207.458
92.884	13.351	1602.335	1206.986
93.899	13.394	1600.823	1206.050
94.914	13.448	1599.511	1205.353
95.928	13.565	1598.039	1204.985
96.943	13.508	1597.031	1203.703
97.957	13.548	1595.214	1202.521
98.972	13.505	1594.048	1201.221
99.987	13.494	1592.492	1199.862
101.001	13.456	1590.939	1198.314
102.016	13.447	1589.121	1196.774
103.030	13.414	1587.970	1195.560
104.045	13.478	1586.692	1194.951
105.060	13.465	1585.644	1193.962
106.074	13.483	1583.963	1192.723
107.089	13.410	1582.252	1190.804
108.103	13.332	1580.898	1189.119
109.118	13.335	1579.666	1188.110
110.133	13.303	1578.368	1186.799
111.147	13.217	1576.803	1184.898
112.162	13.244	1575.835	1184.257
113.176	13.316	1574.140	1183.397
114.191	13.331	1572.846	1182.424
115.206	13.392	1571.523	1181.765
116.220	13.432	1570.297	1181.024
117.235	13.289	1569.494	1179.292
118.249	13.381	1567.543	1178.378
119.264	13.358	1566.669	1177.452
120.279	13.329	1565.060	1175.932
121.293	13.397	1563.677	1175.275
122.308	13.340	1562.280	1173.719
123.322	13.234	1560.979	1171.880
124.337	13.211	1559.320	1170.373
125.352	13.310	1558.026	1169.999
126.366	13.353	1556.404	1168.979
127.381	13.286	1555.375	1167.629
128.395	13.287	1554.301	1166.729
129.410	13.258	1553.256	1165.634
130.424	13.283	1551.636	1164.490
131.439	13.314	1549.940	1163.333
132.454	13.333	1548.936	1162.611
133.468	13.343	1547.675	1161.633
134.483	13.375	1546.693	1161.017
135.497	13.353	1544.639	1159.221
136.512	13.373	1543.438	1158.356
137.527	13.334	1542.173	1157.030
138.541	13.363	1540.716	1156.040
139.556	13.405	1539.335	1155.193
140.570	13.440	1538.377	1154.613
141.585	13.449	1536.918	1153.482
142.600	13.476	1535.919	1152.821
143.614	13.440	1534.808	1151.634
144.629	13.537	1532.972	1150.828
145.643	13.559	1531.996	1150.145
146.658	13.620	1530.588	1149.409
147.673	13.675	1528.664	1148.240
148.687	13.581	1527.822	1146.856
149.702	13.512	1526.345	1145.170
150.716	13.490	1524.735	1143.712
151.731	13.432	1523.149	1142.016
152.746	13.545	1522.259	1142.028
153.760	13.501	1520.468	1140.280
154.775	13.635	1519.181	1140.137
155.789	13.579	1517.963	1138.734
156.804	13.619	1516.680	1137.949
157.819	13.558	1515.945	1136.879
158.833	13.638	1514.794	1136.463
159.848	13.749	1512.936	1135.726
160.862	13.760	1511.759	1134.817
161.877	13.785	1510.808	1134.174
162.892	13.807	1509.526	1133.265
163.906	13.767	1508.055	1131.785
164.921	13.637	1507.123	1130.101
165.935	13.650	1506.260	1129.438
166.950	13.649	1505.326	1128.634
167.964	13.720	1504.057	1128.066
168.979	13.656	1503.526	1127.134
169.994	13.714	1502.148	1126.395
171.008	13.677	1501.510	1125.565
172.023	13.804	1500.119	1125.281
173.037	13.739	1498.735	1123.707
174.052	13.779	1497.604	1123.031
175.067	13.850	1496.469	1122.557
176.081	13.687	1495.729	1120.803
177.096	13.737	1494.315	1119.982
178.110	13.721	1492.789	1118.631
179.125	13.794	1491.897	1118.352
180.140	13.769	1491.249	1117.599
181.154	13.811	1490.114	1116.938
182.169	13.890	1488.319	1116.023
183.183	13.833	1487.465	1114.903
184.198	13.979	1485.734	1114.487
185.213	13.917	1485.114	1113.505
186.227	13.954	1484.138	1112.923
187.242	13.959	1483.212	1112.165
188.256	13.977	1482.106	1111.359
189.271	14.009	1480.778	1110.473
190.286	14.012	1479.564	1109.483
191.300	13.958	1478.870	1108.506
192.315	13.884	1477.473	1106.870
193.329	13.825	1476.351	1105.539
194.344	13.839	1475.220	1104.687
195.359	13.911	1473.935	1104.104
196.373	13.927	1472.866	1103.314
197.388	14.038	1471.673	1103.060
198.402	14.059	1470.519	1102.235
199.417	13.996	1469.947	1101.287
200.432	14.128	1468.931	1101.309
201.446	14.162	1468.157	1100.854
202.461	14.232	1466.607	1100.059
203.475	14.233	1465.754	1099.326
204.490	14.200	1464.771	1098.273
205.504	14.163	1463.482	1096.964
206.519	14.226	1462.221	1096.341
207.534	14.191	1461.132	1095.196
208.548	14.214	1459.916	1094.337
209.563	14.162	1459.587	1093.652
210.577	14.254	1457.610	1092.677
211.592	14.290	1456.995	1092.353
212.607	14.229	1456.507	1091.492
213.621	14.280	1455.861	1091.248
214.636	14.405	1454.484	1090.935
215.650	14.368	1453.441	1089.818
216.665	14.328	1452.634	1088.853
217.680	14.431	1451.551	1088.617
218.694	14.434	1450.951	1088.094
219.709	14.427	1449.872	1087.138
220.723	14.436	1449.465	1086.798
221.738	14.591	1447.821	1086.477
222.753	14.392	1447.227	1084.638
223.767	14.401	1446.451	1084.022
224.782	14.448	1445.167	1083.267
225.796	14.512	1444.454	1083.057
226.811	14.581	1443.850	1082.955
227.826	14.538	1443.098	1082.018
228.840	14.583	1442.311	1081.621
229.855	14.559	1440.994	1080.383
230.869	14.438	1440.320	1078.997
231.884	14.613	1438.821	1078.913
232.899	14.611	1437.494	1077.811
233.913	14.556	1436.646	1076.720
234.928	14.457	1435.696	1075.278
235.942	14.511	1434.427	1074.580
236.957	14.527	1433.283	1073.732
237.972	14.488	1432.082	1072.486
238.986	14.417	1431.604	1071.572
240.001	14.429	1430.555	1070.771
241.015	14.467	1429.528	1070.152
242.030	14.555	1428.027	1069.499
243.045	14.562	1427.392	1068.973
244.059	14.614	1426.432	1068.493
245.074	14.618	1425.822	1067.963
246.088	14.596	1424.851	1067.003
247.103	14.693	1424.039	1066.922
248.117	14.703	1423.013	1066.122
249.132	14.717	1422.663	1065.856
250.147	14.775	1422.004	1065.638
251.161	14.846	1421.223	1065.410
252.176	14.957	1420.775	1065.684
253.190	14.879	1419.570	1064.193
254.205	15.034	1418.383	1064.194
255.220	15.009	1417.715	1063.442
256.234	15.003	1417.351	1063.034
257.249	15.102	1415.991	1062.545
258.263	15.113	1415.256	1061.975
259.278	15.080	1414.480	1061.085
260.293	15.164	1413.361	1060.683
261.307	15.140	1412.396	1059.716
262.322	15.121	1411.995	1059.203
263.336	15.190	1411.270	1059.000
264.351	15.242	1410.296	1058.502
265.366	15.178	1409.412	1057.344
266.380	15.190	1407.991	1056.256
267.395	15.254	1407.332	1056.072
268.409	15.314	1406.630	1055.830
269.424	15.195	1405.668	1054.266
270.439	15.188	1404.273	1053.081
271.453	15.239	1403.503	1052.734
272.468	15.289	1402.766	1052.401
273.482	15.244	1402.199	1051.599
274.497	15.254	1401.420	1050.983
275.512	15.255	1400.376	1050.116
276.526	15.270	1399.317	1049.323
277.541	15.306	1398.435	1048.794
278.555	15.252	1397.465	1047.637
279.570	15.394	1396.799	1047.929
280.585	15.346	1395.355	1046.455
281.599	15.357	1394.972	1046.147
282.614	15.378	1394.126	1045.551
283.628	15.379	1392.674	1044.373
284.643	15.366	1391.688	1043.462
285.657	15.341	1390.869	1042.601
286.672	15.477	1389.464	1042.297
287.687	15.451	1389.019	1041.711
288.701	15.345	1388.019	1040.208
289.716	15.491	1386.977	1040.239
290.730	15.498	1386.046	1039.494
291.745	15.487	1385.212	1038.707
292.760	15.444	1384.436	1037.769
293.774	15.516	1383.529	1037.442
294.789	15.601	1382.249	1036.918
295.803	15.569	1381.641	1036.172
296.818	15.565	1380.789	1035.415
297.833	15.565	1380.135	1034.830
298.847	15.636	1378.169	1033.702
299.862	15.570	1377.598	1032.781
300.876	15.685	1376.531	1032.594
301.891	15.567	1376.366	1031.654
302.906	15.652	1374.946	1031.019
303.920	15.707	1374.365	1030.831
304.935	15.724	1373.586	1030.261
305.949	15.843	1372.926	1030.399
306.964	15.774	1372.196	1029.342
307.979	15.896	1370.955	1029.065
308.993	15.795	1370.415	1027.950
310.008	15.706	1369.458	1026.600
311.022	15.814	1368.344	1026.329
312.037	15.898	1367.337	1025.996
313.052	15.872	1366.444	1025.078
314.066	15.893	1365.832	1024.655
315.081	15.849	1364.534	1023.323
316.095	15.903	1363.255	1022.600
317.110	15.864	1362.088	1021.396
318.125	15.712	1361.958	1020.292
319.139	15.914	1360.598	1020.407
320.154	15.914	1359.355	1019.382
321.168	15.911	1358.365	1018.533
322.183	15.887	1357.689	1017.789
323.197	15.896	1356.720	1017.027
324.212	15.943	1356.112	1016.767
325.227	15.933	1355.413	1016.093
326.241	15.974	1354.322	1015.428
327.256	15.953	1353.546	1014.630
328.270	15.934	1352.510	1013.651
329.285	15.909	1351.780	1012.861
330.300	15.912	1351.072	1012.259
331.314	15.857	1350.382	1011.325
332.329	16.007	1349.193	1011.242
333.343	16.038	1348.254	1010.636
334.358	16.081	1347.229	1010.039
335.373	15.987	1346.726	1009.008
336.387	16.068	1345.961	1008.831
337.402	16.064	1345.218	1008.163
338.416	16.032	1344.836	1007.596
339.431	16.179	1343.779	1007.590
340.446	16.203	1342.995	1007.060
341.460	16.243	1341.934	1006.413
342.475	16.168	1341.052	1005.211
343.489	16.269	1340.261	1005.135
344.504	16.326	1338.741	1004.245
345.519	16.237	1338.527	1003.462
346.533	16.370	1337.463	1003.371
347.548	16.312	1336.654	1002.329
348.562	16.473	1335.526	1002.347
349.577	16.403	1334.743	1001.259
350.592	16.429	1334.331	1001.016
351.606	16.376	1333.448	999.950
352.621	16.356	1332.394	998.952
353.635	16.333	1331.248	997.867
354.650	16.353	1330.481	997.320
355.665	16.352	1329.283	996.332
356.679	16.380	1328.283	995.660
357.694	16.394	1327.461	995.034
358.708	16.423	1326.334	994.276
359.723	16.422	1325.028	993.202
360.738	16.490	1324.125	992.839
361.752	16.469	1322.911	991.713
362.767	16.476	1321.977	990.970
363.781	16.560	1321.091	990.708
364.796	16.503	1320.208	989.624
365.810	16.483	1319.803	989.115
366.825	16.551	1319.003	988.825
367.840	16.536	1318.765	988.471
368.854	16.657	1317.326	988.013
369.869	16.730	1316.815	987.968
370.883	16.744	1316.068	987.401
371.898	16.721	1315.546	986.788
372.913	16.730	1314.491	985.962
373.927	16.708	1313.813	985.242
374.942	16.827	1312.914	985.168
375.956	16.745	1312.150	984.035
376.971	16.895	1311.142	984.061
377.986	16.697	1310.958	982.684
379.000	16.786	1309.779	982.232
380.015	16.902	1308.807	982.086
381.029	16.965	1308.338	982.015
382.044	16.865	1307.715	980.881
383.059	16.999	1306.804	980.885
384.073	16.990	1306.216	980.308
385.088	16.925	1305.554	979.347
386.102	16.935	1304.782	978.736
387.117	17.007	1303.997	978.476
388.132	17.063	1302.939	977.918
389.146	16.973	1302.400	976.911
390.161	17.020	1301.725	976.587
391.175	16.964	1301.047	975.671
392.190	16.900	1300.405	974.735
393.205	17.030	1298.959	974.311
394.219	16.977	1298.331	973.450
395.234	17.140	1297.016	973.312
396.248	17.121	1295.714	972.141
397.263	17.020	1294.119	970.278
398.278	17.029	1293.145	969.515
399.292	17.116	1292.231	969.244
400.307	17.047	1291.121	967.932
401.321	17.040	1290.222	967.131
402.336	17.027	1289.302	966.279
403.350	17.106	1288.061	965.714
404.365	17.010	1287.430	964.609
405.380	17.079	1286.664	964.342
406.394	17.170	1285.285	963.739
407.409	17.178	1284.840	963.365
408.423	17.190	1284.274	962.928
409.438	17.170	1283.735	962.325
410.453	17.361	1282.206	962.174
411.467	17.268	1282.382	961.691
412.482	17.429	1281.357	961.751
413.496	17.445	1280.756	961.305
414.511	17.444	1279.766	960.469
415.526	17.421	1279.093	959.752
416.540	17.500	1278.460	959.636
417.555	17.516	1277.597	958.993
418.569	17.526	1277.229	958.690
419.584	17.485	1277.021	958.217
420.599	17.619	1275.848	958.006
421.613	99.779	1358.537	1485.546
422.628	97.373	1370.515	1485.621
