DTS Sentinel unit serial number:	SN413079Multiplexer serial number:	ORYXHardware model number:	OX4-SRSoftware version number:	ORYX F/W v4.00 Oryx Data Collector v3.7.2.0data status	okinstallation	princeton_trtdifferential loss correction	single-endedforward channel	channel 4reverse channel	N/Adate	2019/09/10time	17:27:11forward acquisition time	60.00reverse acquisition time	0.00gamma	496.2192k internal	0.2295k external	0.2295temperature offset calibration	0.9943default loss term (dB/km)	0.3790temperature slope calibration	1.0000multiplexer offset coefficient	1.0000multiplexer slope coefficient	1.0000fibre end	0.00T internal ref (°C)	37.69T ext. ref 1 (°C)	-0.30T ext. ref 2 (°C)	32.28length (m)	temperature (°C)	Stokes	anti-Stokes-747.200	182.914	-0.151	0.227
-746.185	-200.000	0.045	0.456
-745.171	46.756	0.348	0.331
-744.156	362.884	0.056	0.116
-743.142	39.721	0.245	0.225
-742.127	-23.696	-0.303	0.185
-741.112	-117.409	0.246	-0.045
-740.098	102.350	-0.291	0.347
-739.083	800.000	-0.083	-0.334
-738.069	-200.000	0.040	-0.294
-737.054	131.895	-0.119	0.157
-736.039	-130.034	0.049	-0.007
-735.025	-200.000	0.002	0.411
-734.010	316.591	0.068	0.131
-732.996	-191.988	0.212	0.002
-731.981	-11.549	-0.196	-0.131
-730.966	12.005	-0.099	0.078
-729.952	21.127	-0.220	-0.182
-728.937	267.991	0.064	-0.114
-727.923	-86.406	0.108	0.034
-726.908	-25.968	0.269	0.161
-725.894	-2.108	-0.076	-0.054
-724.879	-61.939	0.182	0.078
-723.864	800.000	-0.098	-0.304
-722.850	-200.000	-0.024	-0.111
-721.835	60.132	-0.343	0.346
-720.821	-12.754	-0.192	0.128
-719.806	9.740	-0.033	0.026
-718.791	-156.315	0.069	-0.004
-717.777	800.000	0.040	0.155
-716.762	-200.000	0.013	-0.114
-715.748	-96.611	0.176	0.047
-714.733	376.615	-0.147	-0.306
-713.718	39.581	-0.193	-0.176
-712.704	800.000	0.067	-0.234
-711.689	-86.391	0.061	0.019
-710.675	96.249	-0.125	-0.146
-709.660	-120.503	-0.398	0.069
-708.645	83.324	0.145	-0.161
-707.631	-159.727	-0.313	0.018
-706.616	-200.000	-0.042	-0.255
-705.602	-57.303	-0.080	-0.036
-704.587	-51.713	0.326	0.155
-703.572	150.902	-0.350	0.486
-702.558	477.587	-0.037	0.085
-701.543	-65.089	0.186	-0.077
-700.529	-96.599	-0.211	-0.057
-699.514	135.565	0.136	-0.180
-698.499	-91.767	-0.185	-0.054
-697.485	-23.436	0.175	0.107
-696.470	494.732	0.106	-0.249
-695.456	-200.000	0.045	0.360
-694.441	1.346	0.125	0.091
-693.426	582.566	-0.065	-0.162
-692.412	-58.773	-0.119	0.053
-691.397	-200.000	0.007	0.138
-690.383	-154.351	-0.169	0.012
-689.368	82.316	0.159	-0.176
-688.354	-200.000	-0.030	-0.448
-687.339	17.741	-0.190	-0.154
-686.324	-113.758	0.149	-0.030
-685.310	54.926	0.179	0.176
-684.295	564.342	-0.074	0.182
-683.281	-103.927	-0.179	0.042
-682.266	99.479	-0.059	0.070
-681.251	3.535	-0.438	0.325
-680.237	80.820	-0.144	-0.158
-679.222	800.000	-0.075	-0.253
-678.208	-200.000	0.017	-0.352
-677.193	19.861	0.015	0.013
-676.178	129.409	0.109	-0.142
-675.164	800.000	-0.034	0.095
-674.149	203.527	-0.067	0.106
-673.135	130.164	-0.135	-0.176
-672.120	335.816	0.057	-0.113
-671.105	23.886	-0.031	-0.026
-670.091	306.442	0.105	-0.199
-669.076	51.755	0.205	-0.198
-668.062	-89.437	0.336	-0.101
-667.047	-54.367	0.158	-0.073
-666.032	-200.000	-0.027	-0.217
-665.018	-187.644	0.129	0.002
-664.003	544.740	0.057	0.138
-662.989	45.254	-0.122	0.115
-661.974	165.484	-0.179	-0.258
-660.959	-51.554	0.215	0.102
-659.945	90.304	0.118	-0.134
-658.930	-78.483	-0.021	0.007
-657.916	-70.498	-0.127	-0.049
-656.901	-200.000	-0.043	0.312
-655.886	-200.000	-0.027	-0.442
-654.872	90.533	-0.102	-0.116
-653.857	-44.653	0.092	-0.047
-652.843	800.000	0.042	-0.171
-651.828	164.366	-0.195	-0.280
-650.814	128.709	0.333	-0.433
-649.799	-192.345	0.203	0.002
-648.784	298.865	-0.118	0.222
-647.770	-122.563	-0.205	0.034
-646.755	688.518	-0.138	-0.366
-645.741	-200.000	-0.017	-0.106
-644.726	-86.204	0.474	-0.149
-643.711	-200.000	0.034	-0.198
-642.697	157.104	0.131	0.184
-641.682	-200.000	0.011	-0.180
-640.668	44.010	-0.131	-0.122
-639.653	492.159	0.098	0.229
-638.638	36.242	0.074	0.067
-637.624	-144.438	-0.366	-0.035
-636.609	107.663	-0.368	0.446
-635.595	365.297	-0.168	-0.344
-634.580	-97.802	0.357	-0.094
-633.565	-23.722	-0.182	0.111
-632.551	-115.440	0.097	-0.019
-631.536	-200.000	-0.012	0.214
-630.522	594.367	-0.069	0.174
-629.507	4.786	0.099	0.074
-628.492	800.000	-0.042	-0.125
-627.478	-71.232	-0.204	0.078
-626.463	-94.370	-0.153	-0.042
-625.449	244.711	0.084	-0.143
-624.434	-4.763	0.194	0.136
-623.419	-131.572	0.182	0.024
-622.405	-70.939	-0.056	-0.021
-621.390	156.487	0.190	-0.267
-620.376	-115.491	-0.258	0.049
-619.361	-11.364	-0.208	-0.139
-618.346	-153.872	0.282	-0.020
-617.332	-144.940	0.364	0.034
-616.317	112.277	0.128	0.157
-615.303	-21.972	-0.077	0.047
-614.288	800.000	-0.043	-0.184
-613.273	-166.008	-0.322	0.014
-612.259	-90.665	-0.089	0.026
-611.244	429.998	-0.082	0.179
-610.230	119.110	-0.045	-0.057
-609.215	125.563	-0.136	-0.175
-608.201	67.170	-0.037	0.038
-607.186	124.297	0.168	0.215
-606.171	-26.151	0.110	0.065
-605.157	-71.217	-0.190	-0.072
-604.142	-200.000	-0.015	0.089
-603.128	-107.478	0.112	0.025
-602.113	30.132	0.029	-0.025
-601.098	-62.631	-0.247	0.104
-600.084	231.565	-0.106	-0.176
-599.069	-12.496	-0.043	0.029
-598.055	800.000	0.039	-0.168
-597.040	-159.384	-0.194	0.011
-596.025	-118.632	-0.201	0.036
-595.011	133.666	0.189	0.248
-593.996	-130.908	0.229	-0.031
-592.982	152.422	0.070	-0.097
-591.967	800.000	0.022	0.065
-590.952	-78.887	0.406	0.141
-589.938	25.426	-0.300	-0.254
-588.923	-30.033	-0.082	-0.047
-587.909	61.029	-0.162	0.164
-586.894	199.859	-0.078	-0.122
-585.879	76.455	0.136	-0.146
-584.865	-44.985	-0.201	-0.102
-583.850	43.191	0.191	-0.177
-582.836	-112.139	-0.329	-0.067
-581.821	776.827	0.130	-0.360
-580.806	-78.635	0.056	0.020
-579.792	-66.137	-0.337	-0.136
-578.777	193.644	-0.153	-0.235
-577.763	-111.760	-0.211	-0.043
-576.748	-20.140	0.189	0.118
-575.733	27.516	0.126	0.107
-574.719	-116.542	-0.316	0.059
-573.704	-12.535	-0.204	-0.135
-572.690	-31.325	0.055	-0.031
-571.675	-12.079	-0.140	0.093
-570.661	-131.959	-0.146	-0.019
-569.646	648.540	0.071	0.185
-568.631	-56.413	-0.040	0.018
-567.617	-11.009	-0.389	-0.260
-566.602	-200.000	0.016	-0.157
-565.588	-110.058	-0.282	0.060
-564.573	-69.785	0.093	0.036
-563.558	-47.299	-0.102	-0.050
-562.544	-200.000	0.022	-0.114
-561.529	53.247	0.096	-0.094
-560.515	-111.123	-0.160	-0.033
-559.500	102.968	-0.192	0.228
-558.485	-74.214	-0.102	0.037
-557.471	-50.514	0.145	-0.069
-556.456	800.000	0.055	0.170
-555.442	0.085	0.161	0.117
-554.427	-29.502	-0.214	-0.124
-553.412	800.000	-0.023	-0.083
-552.398	338.172	0.085	-0.167
-551.383	-200.000	-0.011	-0.354
-550.369	-36.422	0.417	0.228
-549.354	352.953	-0.205	0.412
-548.339	-108.042	-0.221	-0.049
-547.325	-42.484	-0.357	-0.185
-546.310	-200.000	0.016	-0.130
-545.296	-200.000	0.005	0.097
-544.281	237.213	-0.042	-0.070
-543.266	800.000	-0.107	0.405
-542.252	800.000	0.035	-0.149
-541.237	-200.000	-0.053	-0.280
-540.223	-200.000	-0.001	0.023
-539.208	24.212	-0.101	-0.085
-538.193	-200.000	0.004	0.230
-537.179	-101.632	-0.485	0.119
-536.164	136.416	-0.074	-0.098
-535.150	17.587	0.144	0.116
-534.135	-191.521	0.178	0.002
-533.121	-172.016	0.229	0.008
-532.106	-59.795	-0.086	0.037
-531.091	-200.000	-0.047	0.221
-530.077	-55.061	-0.178	-0.081
-529.062	800.000	-0.110	-0.339
-528.048	-175.657	0.223	0.006
-527.033	258.178	0.156	-0.271
-526.018	-65.146	-0.064	0.026
-525.004	-173.764	0.102	0.003
-523.989	58.932	0.288	-0.287
-522.975	-200.000	0.011	-0.095
-521.960	-108.721	-0.440	-0.095
-520.945	-4.402	0.331	-0.232
-519.931	-58.204	-0.110	-0.049
-518.916	-137.669	-0.193	-0.022
-517.902	-110.686	-0.219	-0.046
-516.887	-27.354	0.132	-0.078
-515.872	-200.000	-0.008	0.181
-514.858	-66.066	-0.265	0.107
-513.843	39.667	-0.151	-0.137
-512.829	-200.000	-0.043	-0.262
-511.814	-200.000	0.024	-0.187
-510.799	-43.377	0.205	0.105
-509.785	208.388	-0.117	-0.185
-508.770	800.000	0.093	-0.280
-507.756	-200.000	-0.016	-0.095
-506.741	800.000	-0.016	-0.056
-505.726	-44.038	0.305	-0.155
-504.712	688.597	0.040	0.105
-503.697	800.000	-0.063	0.240
-502.683	-123.315	-0.408	-0.066
-501.668	408.958	0.100	0.214
-500.653	753.959	0.176	0.482
-499.639	-183.281	0.077	0.001
-498.624	328.694	-0.070	-0.136
-497.610	37.421	-0.042	-0.038
-496.595	1.386	-0.310	-0.226
-495.581	-177.756	-0.242	-0.006
-494.566	2.553	-0.121	-0.089
-493.551	-39.903	-0.276	-0.146
-492.537	446.299	-0.055	-0.123
-491.522	124.508	-0.057	-0.072
-490.508	-20.257	-0.089	0.055
-489.493	52.118	-0.079	0.076
-488.478	128.848	-0.228	0.294
-487.464	-107.972	-0.272	0.060
-486.449	-200.000	0.027	-0.131
-485.435	-77.799	0.200	0.070
-484.420	-69.982	0.208	0.080
-483.405	301.521	-0.100	0.187
-482.391	-200.000	-0.064	0.293
-481.376	-200.000	-0.016	-0.154
-480.362	541.215	-0.211	-0.509
-479.347	-126.158	0.312	-0.047
-478.332	-153.213	-0.295	0.021
-477.318	469.368	0.094	0.214
-476.303	-94.443	0.246	0.068
-475.289	666.419	0.067	-0.175
-474.274	-109.805	-0.295	-0.063
-473.259	-73.255	-0.135	0.050
-472.245	-62.468	0.180	0.076
-471.230	-71.095	0.166	-0.063
-470.216	-73.569	0.166	0.061
-469.201	-39.531	0.462	-0.245
-468.186	93.177	-0.047	0.053
-467.172	8.920	-0.094	0.071
-466.157	244.374	0.107	-0.181
-465.143	145.601	-0.216	-0.292
-464.128	768.329	-0.063	-0.174
-463.113	-121.120	0.250	0.042
-462.099	-42.601	0.176	0.091
-461.084	205.613	-0.248	-0.389
-460.070	-67.660	0.288	0.114
-459.055	-50.368	-0.120	-0.057
-458.040	-59.833	-0.420	0.182
-457.026	51.114	0.110	0.105
-456.011	-200.000	-0.004	0.053
-454.997	43.971	0.498	0.462
-453.982	800.000	-0.018	0.049
-452.968	11.659	-0.257	-0.199
-451.953	83.150	-0.151	-0.166
-450.938	82.013	-0.171	-0.188
-449.924	-19.109	-0.183	0.115
-448.909	-118.918	0.032	-0.006
-447.895	513.860	0.073	-0.173
-446.880	800.000	0.061	-0.244
-445.865	-200.000	0.011	0.156
-444.851	800.000	-0.054	-0.173
-443.836	166.269	0.192	0.275
-442.822	86.800	0.125	-0.139
-441.807	-173.972	-0.186	-0.006
-440.792	22.915	0.246	-0.203
-439.778	177.803	0.018	-0.026
-438.763	-156.783	0.300	-0.019
-437.749	120.489	-0.207	0.260
-436.734	-200.000	-0.074	0.346
-435.719	-151.732	-0.260	-0.019
-434.705	750.712	0.083	0.225
-433.690	-200.000	0.079	0.516
-432.676	441.369	-0.102	0.225
-431.661	100.318	-0.080	0.093
-430.646	272.649	0.048	-0.085
-429.632	72.170	-0.068	-0.072
-428.617	-200.000	0.011	0.140
-427.603	580.281	0.017	-0.042
-426.588	800.000	-0.053	0.155
-425.573	16.655	-0.162	-0.129
-424.559	-75.932	-0.096	0.034
-423.544	-200.000	-0.017	-0.093
-422.530	-97.962	0.206	-0.054
-421.515	-145.503	0.181	0.016
-420.500	-200.000	0.266	0.001
-419.486	-144.333	0.277	0.026
-418.471	189.632	0.163	-0.246
-417.457	309.937	-0.134	-0.252
-416.442	-200.000	0.018	-0.106
-415.428	13.778	-0.036	-0.028
-414.413	80.610	-0.212	0.231
-413.398	-48.200	0.209	-0.102
-412.384	-26.709	0.175	0.103
-411.369	-113.902	-0.221	0.043
-410.355	-107.831	-0.138	-0.030
-409.340	575.120	0.085	-0.210
-408.325	-200.000	0.001	-0.092
-407.311	88.907	0.094	-0.106
-406.296	-3.879	0.154	-0.108
-405.282	39.298	-0.135	-0.122
-404.267	-200.000	-0.003	-0.136
-403.252	-55.727	0.142	-0.064
-402.238	-55.278	-0.099	-0.045
-401.223	153.915	0.075	-0.103
-400.209	-150.101	-0.166	-0.013
-399.194	-157.461	0.111	-0.007
-398.179	-74.165	0.245	0.089
-397.165	-200.000	-0.059	-0.267
-396.150	63.581	-0.082	-0.083
-395.136	179.985	0.199	0.294
-394.121	149.531	0.134	0.182
-393.106	-132.947	0.290	-0.037
-392.092	-23.400	0.096	0.058
-391.077	-159.642	-0.163	-0.009
-390.063	62.847	-0.219	-0.221
-389.048	-126.164	0.346	-0.052
-388.033	601.804	-0.041	0.104
-387.019	-57.321	0.026	0.012
-386.004	139.572	0.227	-0.301
-384.990	-50.181	-0.187	0.089
-383.975	139.542	-0.181	0.241
-382.960	119.101	-0.216	0.269
-381.946	-181.046	-0.361	0.007
-380.931	-200.000	0.030	0.344
-379.917	47.341	-0.039	0.036
-378.902	800.000	-0.041	-0.140
-377.888	800.000	-0.027	-0.116
-376.873	233.048	-0.067	0.111
-375.858	144.858	0.106	-0.143
-374.844	-115.201	0.362	-0.069
-373.829	-200.000	-0.004	-0.152
-372.815	800.000	-0.059	-0.244
-371.800	-84.182	0.154	0.049
-370.785	-110.338	0.104	-0.022
-369.771	800.000	0.025	0.073
-368.756	-36.113	0.172	-0.094
-367.742	-152.805	0.407	0.029
-366.727	39.034	-0.302	-0.272
-365.712	50.365	-0.148	0.140
-364.698	-52.227	0.154	0.072
-363.683	-200.000	0.013	-0.122
-362.669	-64.277	-0.080	0.033
-361.654	-200.000	-0.050	0.323
-360.639	800.000	0.102	0.391
-359.625	800.000	-0.044	0.128
-358.610	94.298	0.106	0.121
-357.596	102.018	-0.104	0.122
-356.581	390.833	-0.027	-0.056
-355.566	579.766	-0.034	-0.084
-354.552	-200.000	0.029	-0.368
-353.537	322.200	0.051	-0.098
-352.523	749.538	0.129	-0.351
-351.508	-144.376	-0.113	0.011
-350.493	-107.986	-0.281	0.061
-349.479	-115.914	-0.301	0.057
-348.464	629.698	0.067	-0.171
-347.450	69.993	-0.142	-0.147
-346.435	-43.514	-0.276	-0.140
-345.420	-51.149	0.103	0.049
-344.406	159.567	-0.170	0.237
-343.391	800.000	0.012	0.037
-342.377	-113.073	-0.284	-0.056
-341.362	-102.799	0.062	-0.015
-340.348	-200.000	0.007	0.200
-339.333	217.633	-0.102	-0.164
-338.318	11.897	-0.131	-0.101
-337.304	800.000	0.054	-0.170
-336.289	688.885	-0.143	-0.376
-335.275	-89.621	0.508	0.150
-334.260	-8.273	-0.133	-0.090
-333.245	-200.000	-0.328	-0.001
-332.231	-21.938	-0.251	0.153
-331.216	635.932	-0.036	0.092
-330.202	-170.220	0.533	0.019
-329.187	22.854	-0.247	0.204
-328.172	-36.568	0.140	-0.076
-327.158	-49.275	-0.179	0.086
-326.143	-68.068	-0.113	0.044
-325.129	-91.092	-0.334	-0.096
-324.114	-65.383	0.067	0.027
-323.099	297.441	-0.024	-0.044
-322.085	-200.000	0.013	-0.075
-321.070	-173.245	-0.204	0.006
-320.056	-101.179	-0.314	0.077
-319.041	-61.996	0.064	-0.027
-318.026	-21.694	-0.119	0.073
-317.012	-83.040	-0.195	-0.063
-315.997	800.000	-0.015	-0.050
-314.983	124.258	0.123	0.155
-313.968	511.000	0.070	0.163
-312.953	-126.014	-0.150	0.023
-311.939	-200.000	-0.181	-0.001
-310.924	-134.895	-0.223	-0.027
-309.910	394.307	0.031	-0.065
-308.895	606.379	-0.032	-0.081
-307.880	800.000	-0.027	-0.092
-306.866	-200.000	0.067	0.299
-305.851	-200.000	0.039	-0.186
-304.837	16.791	-0.104	-0.083
-303.822	800.000	0.122	-0.350
-302.807	-200.000	0.030	0.148
-301.793	800.000	0.020	-0.073
-300.778	746.662	0.034	0.092
-299.764	-118.694	0.262	0.046
-298.749	-4.654	0.349	0.242
-297.735	-120.970	0.114	0.019
-296.720	800.000	-0.040	-0.120
-295.705	800.000	0.116	0.351
-294.691	-72.667	0.036	0.013
-293.676	462.721	0.079	0.177
-292.662	-152.438	-0.216	0.016
-291.647	-200.000	-0.009	0.497
-290.632	96.794	-0.188	-0.216
-289.618	19.683	0.184	0.148
-288.603	-36.967	0.385	0.207
-287.589	78.127	0.106	-0.114
-286.574	-195.096	-0.120	0.001
-285.559	-4.858	0.032	0.022
-284.545	-74.438	-0.092	-0.033
-283.530	800.000	0.078	0.249
-282.516	25.380	0.179	0.149
-281.501	-82.617	-0.180	0.059
-280.486	8.948	0.308	0.233
-279.472	308.548	-0.105	-0.196
-278.457	-137.425	0.162	-0.018
-277.443	800.000	-0.045	-0.181
-276.428	-200.000	-0.083	-0.431
-275.413	-48.117	-0.199	-0.097
-274.399	-200.000	-0.012	0.122
-273.384	167.032	0.295	0.421
-272.370	-200.000	-0.030	-0.152
-271.355	208.190	0.157	0.246
-270.340	-107.880	0.120	-0.026
-269.326	-64.446	0.337	-0.137
-268.311	-153.482	-0.138	-0.010
-267.297	166.641	-0.286	-0.406
-266.282	48.280	0.145	-0.136
-265.267	800.000	-0.019	0.056
-264.253	52.127	-0.323	0.309
-263.238	342.804	-0.010	0.021
-262.224	-132.311	-0.009	0.001
-261.209	800.000	-0.029	0.110
-260.195	-74.247	0.214	-0.077
-259.180	30.431	0.227	-0.195
-258.165	121.974	-0.204	-0.256
-257.151	-200.000	0.046	-0.306
-256.136	-67.376	0.316	-0.125
-255.122	-200.000	-0.038	0.232
-254.107	-176.649	0.140	0.004
-253.092	56.047	-0.150	-0.146
-252.078	-2.536	0.141	0.099
-251.063	-200.000	-0.005	0.158
-250.049	800.000	0.079	-0.223
-249.034	267.269	0.251	0.440
-248.019	14.490	-0.184	-0.144
-247.005	-82.817	-0.208	-0.067
-245.990	-73.565	0.265	0.097
-244.976	481.063	0.167	0.379
-243.961	-32.407	-0.089	0.050
-242.946	115.660	0.200	0.245
-241.932	279.600	0.131	0.234
-240.917	-160.454	-0.140	0.008
-239.903	-159.137	-0.238	-0.013
-238.888	-200.000	-0.001	0.166
-237.873	-51.046	-0.193	0.091
-236.859	-200.000	-0.017	0.149
-235.844	-177.617	0.482	0.012
-234.830	-200.000	0.045	-0.446
-233.815	800.000	-0.046	0.168
-232.800	237.414	0.091	0.151
-231.786	642.262	0.073	0.187
-230.771	113.176	0.092	0.112
-229.757	-200.000	-0.003	-0.106
-228.742	383.585	0.078	-0.161
-227.727	304.964	0.244	-0.454
-226.713	-179.027	0.169	0.004
-225.698	-34.782	-0.154	-0.084
-224.684	-91.418	-0.230	0.066
-223.669	64.233	0.218	-0.220
-222.655	-27.996	0.048	-0.028
-221.640	-162.264	0.174	-0.009
-220.625	-54.784	0.107	-0.048
-219.611	-100.301	0.413	0.103
-218.596	800.000	0.098	0.376
-217.582	-200.000	-0.044	0.445
-216.567	-80.666	0.242	0.081
-215.552	-200.000	-0.023	0.224
-214.538	-200.000	-0.008	0.047
-213.523	-24.093	-0.183	-0.110
-212.509	615.894	-0.105	0.264
-211.494	-200.000	0.023	-0.267
-210.479	-5.790	-0.155	0.106
-209.465	800.000	0.046	0.196
-208.450	57.626	-0.191	0.187
-207.436	416.785	-0.078	-0.166
-206.421	-169.281	0.387	-0.014
-205.406	-200.000	0.028	0.124
-204.392	115.153	-0.106	0.130
-203.377	-46.978	-0.091	0.044
-202.363	-200.000	0.004	-0.292
-201.348	-200.000	0.057	0.453
-200.333	-200.000	-0.019	-0.096
-199.319	-160.207	-0.124	0.007
-198.304	800.000	-0.026	0.075
-197.290	106.981	0.023	-0.027
-196.275	-38.815	-0.064	0.034
-195.260	-45.942	0.151	-0.075
-194.246	88.911	0.291	-0.324
-193.231	-61.868	0.293	0.122
-192.217	17.979	0.071	-0.057
-191.202	-107.770	0.209	-0.045
-190.187	15.187	0.277	-0.217
-189.173	94.688	-0.209	-0.238
-188.158	-200.000	-0.004	-0.342
-187.144	116.403	0.072	-0.088
-186.129	791.993	-0.042	0.116
-185.114	-200.000	-0.003	0.071
-184.100	-200.000	-0.017	-0.233
-183.085	-200.000	-0.001	0.074
-182.071	-35.201	0.054	0.029
-181.056	-200.000	-0.033	0.221
-180.042	108.923	0.232	0.278
-179.027	-166.243	0.224	-0.009
-178.012	57.872	-0.077	-0.076
-176.998	-200.000	0.007	0.147
-175.983	-115.599	0.264	-0.050
-174.969	-79.706	-0.204	0.069
-173.954	-15.751	0.203	-0.130
-172.939	-200.000	-0.032	-0.167
-171.925	-49.144	0.137	0.066
-170.910	-27.102	-0.108	0.063
-169.896	-200.000	0.019	-0.104
-168.881	557.707	0.164	0.395
-167.866	29.698	0.081	-0.069
-166.852	37.408	0.074	-0.066
-165.837	800.000	0.070	-0.251
-164.823	-142.894	0.221	-0.021
-163.808	-138.236	0.172	0.019
-162.793	583.569	0.110	0.270
-161.779	-200.000	-0.040	0.194
-160.764	-80.377	0.094	-0.031
-159.750	26.594	0.371	0.310
-158.735	-20.122	-0.312	0.192
-157.720	27.947	-0.262	0.221
-156.706	184.256	-0.163	0.241
-155.691	-61.917	-0.074	0.031
-154.677	-175.131	0.113	0.003
-153.662	-74.099	-0.263	0.095
-152.647	-133.199	0.114	0.014
-151.633	-24.994	0.283	0.168
-150.618	295.716	-0.014	0.026
-149.604	-200.000	-0.051	0.230
-148.589	92.456	-0.075	0.085
-147.574	-94.023	0.189	-0.052
-146.560	-24.821	-0.385	-0.228
-145.545	-200.000	-0.001	-0.172
-144.531	-200.000	-0.008	0.162
-143.516	-123.880	0.337	-0.053
-142.502	129.160	0.198	-0.252
-141.487	800.000	-0.088	-0.316
-140.472	-200.000	0.076	-0.425
-139.458	276.639	-0.086	-0.152
-138.443	15.711	0.116	0.091
-137.429	-84.777	0.126	-0.039
-136.414	557.854	0.102	-0.246
-135.399	-110.364	0.124	0.026
-134.385	-96.157	0.245	0.065
-133.370	428.686	-0.034	-0.074
-132.356	800.000	-0.072	-0.214
-131.341	-45.313	0.153	-0.076
-130.326	721.065	0.037	0.097
-129.312	209.260	0.092	0.144
-128.297	107.460	0.091	-0.108
-127.283	159.198	-0.052	-0.071
-126.268	34.611	0.354	-0.308
-125.253	-71.400	-0.221	-0.083
-124.239	-121.001	0.090	0.015
-123.224	-19.277	-0.037	-0.023
-122.210	135.306	-0.078	-0.101
-121.195	-126.276	-0.036	0.005
-120.180	201.292	0.195	0.300
-119.166	-200.000	0.011	0.333
-118.151	140.520	-0.069	0.091
-117.137	-200.000	-0.006	0.160
-116.122	256.795	-0.063	0.107
-115.107	174.585	0.168	0.243
-114.093	800.000	-0.100	-0.288
-113.078	800.000	0.025	0.080
-112.064	-200.000	-0.007	0.106
-111.049	-45.692	0.073	-0.036
-110.034	-50.766	0.094	-0.044
-109.020	-151.687	-0.028	0.002
-108.005	-50.648	-0.211	-0.099
-106.991	327.682	-0.120	-0.230
-105.976	-33.666	-0.021	0.012
-104.962	-200.000	-0.015	0.226
-103.947	-63.965	0.353	0.144
-102.932	-69.751	0.135	-0.051
-101.918	7.861	-0.168	0.126
-100.903	-200.000	0.010	0.239
-99.889	-200.000	-0.009	0.068
-98.874	364.339	-0.043	0.087
-97.859	40.915	-0.308	0.277
-96.845	-200.000	0.055	0.396
-95.830	-66.951	-0.061	0.024
-94.816	-72.812	-0.327	-0.120
-93.801	444.136	0.189	0.414
-92.786	800.000	0.104	-0.403
-91.772	-148.359	-0.172	-0.014
-90.757	-51.672	-0.067	0.031
-89.743	67.291	-0.043	-0.043
-88.728	39.606	0.072	-0.065
-87.713	-111.677	0.092	-0.019
-86.699	517.041	-0.044	-0.102
-85.684	601.664	0.095	0.234
-84.670	-45.843	-0.247	0.122
-83.655	-200.000	0.020	0.283
-82.640	749.925	-0.165	0.443
-81.626	-196.612	0.262	-0.002
-80.611	-43.851	-0.237	0.119
-79.597	414.764	-0.028	0.059
-78.582	87.479	-0.126	-0.139
-77.567	21.641	0.239	-0.194
-76.553	800.000	-0.036	0.157
-75.538	800.000	0.009	-0.038
-74.524	-39.867	-0.256	-0.133
-73.509	111.478	-0.229	-0.276
-72.494	-1.389	-0.163	0.115
-71.480	-73.431	0.321	-0.117
-70.465	-30.169	-0.263	0.149
-69.451	-71.124	-0.389	0.145
-68.436	-174.319	0.194	0.006
-67.422	355.730	0.189	-0.374
-66.407	4.475	0.281	0.205
-65.392	-65.776	0.167	0.067
-64.378	-28.438	-0.127	-0.073
-63.363	-200.000	-0.013	0.393
-62.349	-200.000	-0.039	0.286
-61.334	55.680	-0.956	-0.922
-60.319	-12.297	0.566	0.368
-59.305	175.921	-0.546	-0.788
-58.290	87.421	0.842	0.927
-57.276	800.000	0.482	1.662
-56.261	-200.000	85.723	504.493
-55.246	548.279	1378.243	3283.828
-54.232	178.498	2633.696	3826.514
-53.217	110.862	2402.690	2876.591
-52.203	44.068	2142.071	1953.580
-51.188	39.482	2049.335	1826.529
-50.173	37.834	2029.093	1793.270
-49.159	50.619	2073.382	1951.506
-48.144	53.815	2092.581	1999.228
-47.130	40.231	2054.221	1837.556
-46.115	37.768	2043.173	1804.817
-45.100	37.659	2040.391	1801.276
-44.086	37.609	2037.558	1798.240
-43.071	37.536	2035.765	1795.919
-42.057	37.526	2033.508	1793.757
-41.042	37.590	2032.042	1792.984
-40.027	37.653	2029.471	1791.229
-39.013	37.608	2027.429	1788.942
-37.998	37.617	2025.469	1787.224
-36.984	37.604	2023.822	1785.577
-35.969	37.650	2021.725	1784.082
-34.954	37.611	2020.067	1782.185
-33.940	37.760	2018.415	1782.022
-32.925	37.712	2016.602	1779.917
-31.911	37.767	2015.132	1779.044
-30.896	37.736	2013.352	1777.126
-29.881	37.723	2012.037	1775.775
-28.867	37.806	2010.515	1775.118
-27.852	37.704	2008.792	1772.593
-26.838	37.676	2006.717	1770.442
-25.823	37.791	2004.791	1769.718
-24.809	37.773	2002.958	1767.861
-23.794	37.686	2001.423	1765.645
-22.779	37.685	1999.086	1763.510
-21.765	37.737	1997.413	1762.431
-20.750	37.705	1995.833	1760.680
-19.736	37.686	1994.729	1759.467
-18.721	37.682	1992.996	1757.832
-17.706	37.682	1991.420	1756.367
-16.692	37.683	1989.690	1754.781
-15.677	37.708	1988.019	1753.463
-14.663	37.739	1986.350	1752.203
-13.648	37.698	1985.683	1751.173
-12.633	37.740	1983.908	1749.917
-11.619	37.657	1982.596	1747.945
-10.604	37.695	1981.112	1746.907
-9.590	37.584	1980.031	1744.893
-8.575	37.711	1978.246	1744.384
-7.560	37.688	1977.135	1743.132
-6.546	37.638	1975.668	1741.318
-5.531	37.671	1974.294	1740.338
-4.517	37.765	1972.677	1739.682
-3.502	37.736	1971.491	1738.304
-2.487	37.673	1970.701	1736.982
-1.473	37.707	1969.591	1736.237
-0.458	37.771	1965.109	1732.787
0.556	35.261	1945.684	1705.789
1.571	31.132	1925.136	1651.182
2.586	26.628	1947.325	1629.641
3.600	25.307	1984.346	1648.355
4.615	24.430	1980.369	1636.865
5.629	18.443	1875.404	1497.803
6.644	6.930	1745.509	1299.758
7.659	0.431	1701.806	1214.884
8.673	-0.172	1697.972	1207.190
9.688	-0.256	1696.639	1205.463
10.702	-0.288	1694.925	1203.880
11.717	-0.474	1692.103	1200.282
12.731	-0.044	1690.871	1202.740
13.746	6.650	1707.961	1268.757
14.761	15.484	1727.184	1354.485
15.775	17.440	1728.689	1371.323
16.790	16.683	1726.790	1363.602
17.804	16.662	1725.678	1362.435
18.819	16.688	1724.800	1361.828
19.834	16.857	1723.324	1361.904
20.848	16.923	1723.370	1362.348
21.863	16.944	1722.210	1361.475
22.877	16.952	1721.437	1360.808
23.892	16.964	1720.104	1359.732
24.907	16.862	1720.113	1358.800
25.921	16.924	1718.383	1357.813
26.936	16.867	1717.504	1356.542
27.950	16.987	1716.196	1356.351
28.965	16.984	1715.940	1356.003
29.980	16.944	1714.944	1354.773
30.994	16.957	1712.935	1353.170
32.009	16.995	1711.222	1351.997
33.023	16.872	1710.992	1350.720
34.038	16.920	1709.824	1350.063
35.053	16.937	1708.804	1349.269
36.067	16.937	1707.512	1348.129
37.082	16.990	1706.281	1347.460
38.096	17.002	1705.114	1346.519
39.111	16.899	1704.402	1345.016
40.126	16.892	1703.890	1344.442
41.140	16.957	1702.900	1344.055
42.155	16.955	1701.590	1342.883
43.169	16.974	1700.267	1341.875
44.184	16.948	1699.354	1340.831
45.199	16.940	1697.969	1339.556
46.213	16.896	1696.846	1338.198
47.228	16.875	1695.691	1337.004
48.242	16.965	1694.011	1336.274
49.257	16.936	1692.912	1335.056
50.271	17.000	1691.669	1334.467
51.286	16.922	1690.645	1332.926
52.301	16.966	1688.977	1331.841
53.315	16.906	1688.086	1330.545
54.330	16.961	1686.339	1329.482
55.344	16.964	1684.613	1328.029
56.359	16.953	1683.426	1326.891
57.374	16.957	1682.385	1325.983
58.388	16.951	1681.157	1324.848
59.403	16.912	1679.726	1323.299
60.417	16.950	1678.630	1322.620
61.432	16.946	1677.341	1321.451
62.447	16.957	1676.237	1320.555
63.461	16.946	1675.254	1319.572
64.476	16.980	1673.685	1318.483
65.490	16.875	1673.379	1317.312
66.505	16.927	1671.730	1316.302
67.520	16.997	1670.908	1316.081
68.534	16.921	1669.826	1314.524
69.549	16.973	1668.036	1313.401
70.563	16.945	1667.134	1312.357
71.578	16.998	1665.543	1311.395
72.593	17.030	1664.574	1310.769
73.607	16.982	1663.788	1309.665
74.622	16.987	1662.557	1308.613
75.636	16.995	1661.845	1308.001
76.651	17.005	1660.910	1307.223
77.666	16.960	1659.863	1305.940
78.680	17.023	1658.641	1305.348
79.695	17.009	1658.139	1304.726
80.709	16.949	1657.093	1303.333
81.724	16.968	1655.850	1302.380
82.739	16.917	1654.500	1300.818
83.753	16.965	1653.218	1300.060
84.768	16.960	1652.473	1299.319
85.782	16.980	1651.759	1298.800
86.797	16.880	1650.521	1296.945
87.812	17.046	1648.832	1296.766
88.826	16.999	1647.680	1295.392
89.841	17.009	1646.572	1294.482
90.855	16.935	1645.895	1293.270
91.870	16.960	1644.571	1292.304
92.884	16.986	1643.386	1291.457
93.899	16.974	1642.391	1290.471
94.914	16.959	1640.994	1289.140
95.928	17.000	1639.591	1288.243
96.943	17.100	1637.927	1287.579
97.957	16.981	1636.603	1285.517
98.972	17.053	1635.053	1284.732
99.987	16.990	1633.819	1283.172
101.001	17.024	1631.958	1281.852
102.016	16.975	1630.337	1280.098
103.030	16.919	1628.707	1278.284
104.045	16.951	1627.026	1277.096
105.060	17.060	1625.444	1276.561
106.074	16.997	1624.115	1274.930
107.089	16.989	1623.181	1274.019
108.103	16.985	1621.880	1272.857
109.118	17.064	1620.009	1271.872
110.133	16.986	1618.663	1270.118
111.147	17.078	1617.319	1269.640
112.162	16.991	1616.072	1267.899
113.176	17.078	1614.152	1266.926
114.191	17.096	1613.084	1266.111
115.206	17.095	1611.901	1265.064
116.220	17.082	1610.733	1263.935
117.235	17.025	1609.361	1262.322
118.249	16.994	1608.222	1261.088
119.264	17.064	1606.761	1260.355
120.279	17.026	1605.008	1258.582
121.293	16.927	1603.875	1256.853
122.308	16.963	1602.601	1256.004
123.322	17.100	1600.255	1255.070
124.337	17.154	1598.810	1254.226
125.352	17.028	1597.811	1252.403
126.366	17.144	1595.993	1251.722
127.381	17.148	1594.647	1250.581
128.395	17.022	1594.306	1249.278
129.410	17.128	1592.487	1248.520
130.424	17.189	1591.156	1247.815
131.439	17.180	1589.391	1246.252
132.454	17.171	1587.824	1244.848
133.468	17.071	1587.021	1243.380
134.483	17.067	1585.485	1242.035
135.497	17.032	1584.081	1240.566
136.512	17.041	1582.955	1239.645
137.527	17.144	1581.220	1238.927
138.541	17.183	1579.536	1237.777
139.556	17.143	1578.177	1236.316
140.570	17.177	1576.414	1235.073
141.585	17.159	1575.421	1234.057
142.600	17.123	1573.826	1232.435
143.614	17.103	1572.943	1231.488
144.629	17.178	1571.243	1230.594
145.643	17.149	1569.574	1228.963
146.658	17.105	1568.532	1227.723
147.673	17.090	1567.159	1226.430
148.687	17.058	1565.750	1224.992
149.702	17.090	1564.331	1224.001
150.716	17.021	1562.891	1222.272
151.731	17.030	1561.842	1221.406
152.746	17.093	1560.934	1221.044
153.760	17.111	1558.720	1219.332
154.775	17.050	1557.760	1218.031
155.789	17.107	1556.297	1217.188
156.804	17.181	1554.851	1216.480
157.819	17.094	1554.001	1215.087
158.833	17.085	1553.211	1214.298
159.848	17.179	1551.541	1213.556
160.862	17.145	1550.220	1212.173
161.877	17.067	1549.462	1210.918
162.892	17.074	1548.740	1210.298
163.906	17.276	1546.863	1210.158
164.921	17.210	1545.798	1208.747
165.935	17.227	1544.752	1207.948
166.950	17.177	1543.974	1206.872
167.964	17.192	1542.877	1206.018
168.979	17.112	1541.997	1204.654
169.994	17.219	1540.839	1204.403
171.008	17.202	1539.836	1203.393
172.023	17.227	1538.831	1202.676
173.037	17.192	1537.951	1201.634
174.052	17.232	1536.692	1200.825
175.067	17.231	1535.460	1199.753
176.081	17.267	1534.187	1198.907
177.096	17.186	1533.728	1197.868
178.110	17.341	1531.988	1197.498
179.125	17.180	1531.021	1195.496
180.140	17.322	1529.685	1195.349
181.154	17.268	1529.500	1194.718
182.169	17.192	1528.403	1193.222
183.183	17.227	1527.140	1192.375
184.198	17.294	1525.677	1191.601
185.213	17.161	1525.278	1190.248
186.227	17.267	1523.985	1189.878
187.242	17.197	1523.261	1188.715
188.256	17.169	1522.374	1187.726
189.271	17.231	1521.389	1187.282
190.286	17.163	1521.038	1186.427
191.300	17.259	1519.738	1185.982
192.315	17.379	1518.271	1185.566
193.329	17.287	1517.655	1184.340
194.344	17.330	1516.684	1183.779
195.359	17.277	1515.613	1182.471
196.373	17.378	1514.393	1182.114
197.388	17.264	1513.708	1180.681
198.402	17.205	1513.073	1179.673
199.417	17.202	1511.588	1178.391
200.432	17.292	1510.671	1178.194
201.446	17.189	1510.190	1176.999
202.461	17.332	1509.013	1176.967
203.475	17.288	1507.807	1175.618
204.490	17.288	1506.899	1174.810
205.504	17.221	1506.212	1173.703
206.519	17.188	1505.416	1172.755
207.534	17.270	1504.123	1172.209
208.548	17.269	1503.441	1171.566
209.563	17.242	1502.329	1170.411
210.577	17.347	1501.118	1170.086
211.592	17.346	1500.364	1169.388
212.607	17.329	1499.758	1168.696
213.621	17.302	1499.344	1168.087
214.636	17.312	1497.927	1166.949
215.650	17.354	1497.091	1166.477
216.665	17.396	1496.274	1166.029
217.680	17.377	1495.145	1164.917
218.694	17.412	1494.848	1164.819
219.709	17.382	1493.745	1163.653
220.723	17.362	1493.219	1163.002
221.738	17.405	1491.904	1162.169
222.753	17.369	1491.195	1161.270
223.767	17.381	1490.119	1160.410
224.782	17.223	1489.863	1159.027
225.796	17.401	1488.251	1158.884
226.811	17.361	1487.704	1158.087
227.826	17.447	1487.204	1158.178
228.840	17.441	1485.882	1157.004
229.855	17.419	1485.364	1156.349
230.869	17.423	1484.012	1155.220
231.884	17.437	1482.960	1154.394
232.899	17.472	1481.854	1153.672
233.913	17.492	1481.151	1153.155
234.928	17.421	1480.311	1151.919
235.942	17.513	1478.874	1151.324
236.957	17.507	1477.796	1150.343
237.972	17.439	1476.825	1149.025
238.986	17.478	1475.721	1148.326
240.001	17.423	1475.066	1147.344
241.015	17.452	1474.238	1146.794
242.030	17.528	1473.233	1146.423
243.045	17.540	1472.143	1145.554
244.059	17.573	1471.113	1144.871
245.074	17.546	1470.314	1143.967
246.088	17.567	1469.652	1143.495
247.103	17.615	1468.694	1142.968
248.117	17.582	1467.956	1142.070
249.132	17.620	1466.930	1141.427
250.147	17.469	1466.571	1140.034
251.161	17.586	1465.524	1139.905
252.176	17.584	1465.429	1139.716
253.190	17.601	1464.297	1138.844
254.205	17.669	1463.338	1138.454
255.220	17.705	1462.344	1137.819
256.234	17.584	1461.574	1136.315
257.249	17.529	1461.112	1135.490
258.263	17.696	1459.777	1135.460
259.278	17.686	1458.862	1134.582
260.293	17.686	1458.059	1133.859
261.307	17.695	1457.565	1133.436
262.322	17.709	1456.782	1132.815
263.336	17.696	1456.424	1132.350
264.351	17.716	1455.038	1131.306
265.366	17.685	1454.381	1130.492
266.380	17.715	1452.945	1129.470
267.395	17.674	1452.365	1128.652
268.409	17.647	1451.578	1127.764
269.424	17.698	1450.073	1126.832
270.439	17.638	1449.604	1125.967
271.453	17.717	1448.428	1125.479
272.468	17.683	1447.845	1124.697
273.482	17.801	1447.333	1124.978
274.497	17.675	1446.513	1123.414
275.512	17.649	1445.630	1122.456
276.526	17.732	1444.807	1122.264
277.541	17.788	1443.542	1121.553
278.555	17.885	1442.571	1121.336
279.570	17.812	1442.286	1120.532
280.585	17.784	1441.263	1119.457
281.599	17.788	1440.194	1118.552
282.614	17.764	1439.725	1117.934
283.628	17.764	1438.386	1116.795
284.643	17.881	1436.977	1116.365
285.657	17.842	1436.201	1115.409
286.672	17.804	1435.830	1114.779
287.687	17.807	1434.735	1113.844
288.701	17.836	1433.389	1112.893
289.716	17.916	1432.414	1112.556
290.730	17.874	1432.321	1112.116
291.745	17.929	1430.931	1111.295
292.760	17.963	1430.029	1110.715
293.774	17.947	1429.431	1110.048
294.789	17.974	1428.273	1109.224
295.803	17.901	1427.283	1107.888
296.818	17.918	1426.567	1107.340
297.833	17.901	1425.604	1106.386
298.847	18.030	1424.542	1106.297
299.862	17.938	1424.030	1105.207
300.876	17.943	1423.199	1104.497
301.891	18.003	1421.898	1103.777
302.906	18.018	1421.032	1103.109
303.920	17.965	1420.535	1102.278
304.935	18.033	1420.196	1102.361
305.949	18.072	1418.804	1101.435
306.964	18.048	1417.831	1100.426
307.979	18.037	1417.345	1099.880
308.993	18.120	1415.912	1099.206
310.008	18.077	1415.268	1098.328
311.022	18.125	1413.937	1097.508
312.037	18.003	1413.769	1096.496
313.052	18.183	1412.536	1096.596
314.066	18.068	1411.612	1095.049
315.081	18.063	1410.311	1093.909
316.095	18.141	1409.586	1093.746
317.110	18.200	1408.591	1093.260
318.125	18.143	1407.771	1092.159
319.139	18.155	1407.192	1091.690
320.154	18.156	1406.047	1090.713
321.168	18.140	1405.249	1089.892
322.183	18.216	1404.210	1089.475
323.197	18.142	1403.291	1088.199
324.212	18.273	1402.075	1087.986
325.227	18.192	1401.379	1086.837
326.241	18.189	1400.748	1086.235
327.256	18.283	1399.882	1086.060
328.270	18.266	1399.113	1085.261
329.285	18.267	1398.046	1084.345
330.300	18.273	1397.468	1083.840
331.314	18.282	1396.751	1083.242
332.329	18.297	1395.416	1082.206
333.343	18.308	1394.888	1081.769
334.358	18.314	1394.139	1081.134
335.373	18.214	1393.702	1080.069
336.387	18.288	1392.641	1079.615
337.402	18.219	1392.169	1078.720
338.416	18.367	1391.285	1078.871
339.431	18.341	1390.957	1078.356
340.446	18.341	1390.256	1077.721
341.460	18.313	1389.244	1076.663
342.475	18.319	1388.262	1075.846
343.489	18.387	1387.273	1075.410
344.504	18.482	1385.769	1074.744
345.519	18.437	1384.838	1073.644
346.533	18.467	1384.083	1073.153
347.548	18.476	1383.177	1072.412
348.562	18.417	1382.828	1071.677
349.577	18.395	1381.841	1070.678
350.592	18.482	1380.721	1070.263
351.606	18.425	1380.230	1069.433
352.621	18.400	1379.250	1068.418
353.635	18.485	1377.708	1067.659
354.650	18.462	1377.622	1067.356
355.665	18.443	1376.500	1066.273
356.679	18.515	1375.455	1065.819
357.694	18.574	1373.963	1064.934
358.708	18.537	1373.209	1064.025
359.723	18.412	1372.159	1062.345
360.738	18.464	1371.197	1061.829
361.752	18.434	1370.270	1060.826
362.767	18.517	1368.959	1060.235
363.781	18.524	1368.184	1059.584
364.796	18.578	1367.117	1058.995
365.810	18.576	1366.801	1058.644
366.825	18.613	1365.812	1058.012
367.840	18.558	1365.310	1057.192
368.854	18.540	1364.687	1056.507
369.869	18.615	1364.235	1056.525
370.883	18.623	1363.167	1055.651
371.898	18.608	1362.720	1055.120
372.913	18.761	1361.489	1055.014
373.927	18.651	1360.859	1053.759
374.942	18.665	1359.828	1052.949
375.956	18.677	1359.266	1052.494
376.971	18.705	1358.328	1051.851
377.986	18.790	1357.222	1051.422
379.000	18.681	1356.744	1050.292
380.015	18.705	1356.272	1049.977
381.029	18.703	1355.619	1049.365
382.044	18.677	1354.987	1048.624
383.059	18.684	1354.077	1047.871
384.073	18.721	1353.870	1047.844
385.088	18.683	1353.039	1046.877
386.102	18.772	1352.060	1046.567
387.117	18.728	1351.423	1045.717
388.132	18.838	1350.672	1045.713
389.146	18.787	1349.711	1044.566
390.161	18.814	1348.754	1043.895
391.175	18.912	1348.374	1044.106
392.190	18.827	1347.611	1042.905
393.205	18.893	1346.450	1042.315
394.219	18.804	1345.609	1041.034
395.234	18.739	1344.566	1039.741
396.248	18.884	1343.077	1039.374
397.263	18.862	1342.209	1038.476
398.278	18.848	1340.776	1037.193
399.292	18.981	1339.456	1036.882
400.307	18.892	1338.897	1035.822
401.321	18.927	1338.146	1035.355
402.336	18.931	1337.000	1034.401
403.350	18.960	1335.541	1033.358
404.365	18.881	1335.102	1032.452
405.380	18.989	1334.026	1032.176
406.394	19.008	1333.238	1031.590
407.409	19.029	1332.785	1031.271
408.423	18.975	1332.147	1030.367
409.438	19.087	1331.288	1030.282
410.453	18.982	1330.596	1029.027
411.467	19.024	1329.588	1028.405
412.482	19.071	1329.287	1028.365
413.496	19.038	1328.574	1027.523
414.511	19.061	1327.692	1026.888
415.526	19.126	1326.663	1026.386
416.540	19.218	1325.620	1026.038
417.555	19.189	1325.010	1025.302
418.569	19.124	1324.933	1024.766
419.584	19.162	1324.429	1024.511
420.599	19.121	1323.725	1023.631
421.613	134.416	1423.283	1779.035
422.628	131.103	1437.785	1779.162
