DTS Sentinel unit serial number:	SN413079Multiplexer serial number:	ORYXHardware model number:	OX4-SRSoftware version number:	ORYX F/W v4.00 Oryx Data Collector v3.7.2.0data status	okinstallation	princeton_trtdifferential loss correction	single-endedforward channel	channel 4reverse channel	N/Adate	2019/09/13time	22:13:35forward acquisition time	60.00reverse acquisition time	0.00gamma	496.2192k internal	0.2320k external	0.2320temperature offset calibration	1.0137default loss term (dB/km)	0.3790temperature slope calibration	1.0000multiplexer offset coefficient	1.0000multiplexer slope coefficient	1.0000fibre end	0.00T internal ref (°C)	27.91T ext. ref 1 (°C)	3.24T ext. ref 2 (°C)	22.63length (m)	temperature (°C)	Stokes	anti-Stokes-747.200	339.409	0.064	0.126
-746.185	166.735	-0.212	0.304
-745.171	800.000	0.067	0.293
-744.156	-67.834	-0.129	0.051
-743.142	-81.716	0.154	0.051
-742.127	-125.224	-0.316	-0.049
-741.112	400.641	0.123	-0.261
-740.098	-54.203	-0.228	-0.105
-739.083	-95.193	0.191	-0.052
-738.069	-108.787	0.081	0.017
-737.054	-86.849	0.167	0.052
-736.039	452.154	-0.059	0.132
-735.025	-200.000	0.061	0.487
-734.010	100.519	0.044	-0.052
-732.996	181.751	0.047	0.070
-731.981	-10.445	0.088	-0.059
-730.966	43.684	-0.143	-0.132
-729.952	-155.027	-0.399	0.026
-728.937	-200.000	-0.030	0.203
-727.923	127.826	-0.327	-0.421
-726.908	800.000	-0.045	-0.166
-725.894	800.000	-0.042	-0.142
-724.879	35.575	-0.080	0.071
-723.864	-58.114	-0.146	-0.064
-722.850	-108.942	-0.177	-0.038
-721.835	-200.000	-0.032	-0.221
-720.821	59.148	-0.070	-0.069
-719.806	-200.000	-0.008	-0.110
-718.791	-131.556	-0.228	0.030
-717.777	-119.621	-0.110	0.019
-716.762	-120.912	0.192	0.033
-715.748	-88.714	0.122	-0.037
-714.733	391.608	0.095	-0.199
-713.718	-95.205	-0.087	-0.024
-712.704	680.177	-0.056	-0.148
-711.689	-146.013	-0.328	-0.029
-710.675	-15.988	-0.033	-0.021
-709.660	-57.993	0.175	-0.077
-708.645	28.466	-0.126	0.108
-707.631	184.374	0.132	0.198
-706.616	-104.695	0.429	0.100
-705.602	800.000	-0.062	-0.212
-704.587	399.028	-0.081	0.172
-703.572	285.651	-0.055	-0.100
-702.558	-56.408	-0.223	0.100
-701.543	800.000	-0.039	-0.131
-700.529	136.036	0.196	-0.258
-699.514	-200.000	-0.038	0.196
-698.499	757.820	-0.112	0.307
-697.485	-17.315	0.328	-0.209
-696.470	-92.311	0.181	-0.051
-695.456	342.378	-0.082	-0.161
-694.441	-152.655	-0.573	-0.041
-693.426	348.951	-0.119	-0.237
-692.412	555.216	0.110	-0.268
-691.397	-144.403	-0.164	-0.015
-690.383	289.207	0.084	-0.153
-689.368	796.425	-0.092	0.256
-688.354	-34.373	-0.147	-0.081
-687.339	-200.000	0.013	-0.355
-686.324	-200.000	0.062	-0.337
-685.310	99.481	-0.194	0.226
-684.295	-200.000	-0.038	-0.170
-683.281	800.000	-0.065	-0.272
-682.266	-139.433	-0.384	0.042
-681.251	-52.517	-0.160	0.075
-680.237	-200.000	-0.042	-0.256
-679.222	29.867	0.035	-0.030
-678.208	-200.000	-0.017	-0.345
-677.193	373.110	0.068	0.139
-676.178	6.303	0.152	0.113
-675.164	-157.044	-0.199	0.012
-674.149	26.114	-0.309	-0.260
-673.135	208.821	-0.084	-0.132
-672.120	405.079	0.064	0.137
-671.105	-22.093	-0.207	-0.127
-670.091	-130.518	0.244	0.033
-669.076	4.837	-0.238	0.176
-668.062	-46.257	-0.243	0.121
-667.047	15.426	-0.423	-0.335
-666.032	-54.395	-0.144	-0.066
-665.018	393.244	-0.164	-0.345
-664.003	170.793	-0.134	-0.194
-662.989	800.000	-0.048	0.154
-661.974	55.860	-0.265	0.259
-660.959	-200.000	0.010	0.087
-659.945	224.814	-0.089	0.145
-658.930	-200.000	0.016	0.093
-657.916	-109.110	0.094	0.020
-656.901	14.823	0.173	-0.136
-655.886	-200.000	-0.054	0.273
-654.872	-163.446	-0.264	-0.013
-653.857	-200.000	-0.006	0.399
-652.843	-103.146	-0.387	0.092
-651.828	538.126	-0.196	-0.468
-650.814	359.227	0.061	-0.122
-649.799	4.139	-0.213	0.157
-648.784	59.570	-0.144	0.143
-647.770	521.789	0.103	0.243
-646.755	22.322	0.137	0.112
-645.741	-143.073	-0.177	-0.017
-644.726	341.774	0.072	0.142
-643.711	-200.000	-0.043	0.247
-642.697	-19.483	0.186	0.116
-641.682	443.041	0.071	-0.156
-640.668	216.777	0.057	0.091
-639.653	-200.000	-0.019	0.271
-638.638	-200.000	-0.008	0.091
-637.624	-85.944	0.082	-0.025
-636.609	-200.000	0.038	0.227
-635.595	-46.259	-0.256	-0.127
-634.580	695.061	0.108	-0.286
-633.565	-200.000	-0.070	-0.359
-632.551	-100.625	-0.071	-0.018
-631.536	-136.676	-0.232	-0.027
-630.522	-200.000	0.002	-0.203
-629.507	19.101	0.270	0.218
-628.492	-117.452	-0.352	-0.064
-627.478	192.412	-0.199	-0.303
-626.463	-200.000	0.025	0.115
-625.449	800.000	0.082	-0.249
-624.434	-68.240	0.308	-0.121
-623.419	232.983	0.124	0.205
-622.405	46.875	-0.246	0.230
-621.390	10.556	-0.173	-0.133
-620.376	-26.596	-0.161	-0.095
-619.361	-111.274	-0.182	-0.038
-618.346	-200.000	0.054	-0.359
-617.332	-76.889	0.402	-0.142
-616.317	-83.783	-0.083	0.027
-615.303	-137.752	0.080	0.009
-614.288	80.554	-0.184	-0.200
-613.273	320.475	-0.214	-0.410
-612.259	-200.000	-0.075	-0.388
-611.244	-23.288	-0.298	-0.181
-610.230	119.160	0.115	-0.143
-609.215	-62.827	-0.162	0.067
-608.201	-114.641	-0.198	0.038
-607.186	-110.964	0.105	0.022
-606.171	-200.000	0.029	0.224
-605.157	-10.533	0.041	0.027
-604.142	110.162	-0.038	0.045
-603.128	494.725	0.180	-0.415
-602.113	-71.797	-0.284	0.106
-601.098	-108.196	0.055	0.012
-600.084	101.694	0.098	-0.114
-599.069	44.700	0.317	-0.293
-598.055	-137.345	-0.595	0.068
-597.040	278.618	0.117	0.209
-596.025	205.310	-0.232	0.362
-595.011	713.307	0.058	-0.156
-593.996	-200.000	0.057	-0.366
-592.982	771.257	-0.026	-0.070
-591.967	-17.985	0.130	0.082
-590.952	800.000	0.019	0.071
-589.938	-200.000	-0.006	-0.116
-588.923	-170.950	-0.216	0.007
-587.909	-100.567	-0.280	0.070
-586.894	47.664	-0.063	-0.059
-585.879	36.086	-0.121	-0.107
-584.865	-92.310	-0.217	-0.062
-583.850	162.864	-0.103	0.145
-582.836	92.949	0.154	-0.175
-581.821	-129.614	0.234	0.032
-580.806	-4.591	0.262	0.182
-579.792	-56.153	-0.067	0.030
-578.777	315.730	0.080	0.151
-577.763	-200.000	0.008	0.105
-576.748	-58.418	-0.152	-0.067
-575.733	800.000	-0.055	0.176
-574.719	-200.000	-0.010	-0.123
-573.704	-200.000	-0.012	0.110
-572.690	-200.000	0.002	0.306
-571.675	-64.383	0.277	0.113
-570.661	40.782	-0.204	-0.185
-569.646	573.483	0.056	0.137
-568.631	20.222	0.050	0.040
-567.617	348.206	0.007	0.014
-566.602	-100.566	-0.332	-0.082
-565.588	-65.300	0.072	-0.029
-564.573	-28.123	-0.133	-0.077
-563.558	76.990	-0.061	-0.065
-562.544	-34.757	0.200	0.110
-561.529	305.044	-0.151	-0.282
-560.515	-70.928	-0.183	0.069
-559.500	-200.000	-0.003	0.161
-558.485	-200.000	0.034	0.234
-557.471	-129.754	-0.232	0.032
-556.456	-131.213	0.189	-0.025
-555.442	75.351	-0.157	0.167
-554.427	89.846	-0.073	0.082
-553.412	-200.000	0.011	0.155
-552.398	4.973	-0.266	0.197
-551.383	81.981	-0.169	0.184
-550.369	-200.000	-0.070	0.406
-549.354	-200.000	0.035	0.340
-548.339	140.989	0.029	-0.038
-547.325	246.695	0.036	-0.061
-546.310	-109.635	-0.417	-0.088
-545.296	-127.079	0.272	0.040
-544.281	-200.000	-0.023	-0.117
-543.266	165.667	0.145	0.206
-542.252	-200.000	-0.026	-0.233
-541.237	-4.081	0.136	-0.095
-540.223	10.911	0.100	-0.076
-539.208	-187.083	-0.072	0.001
-538.193	-8.480	-0.239	0.161
-537.179	445.377	0.093	-0.206
-536.164	30.025	0.144	-0.123
-535.150	528.476	-0.063	-0.149
-534.135	75.042	0.193	0.204
-533.121	425.168	-0.054	-0.117
-532.106	-98.725	0.230	-0.059
-531.091	137.677	0.078	0.103
-530.077	-99.594	-0.397	-0.100
-529.062	6.259	-0.059	0.044
-528.048	432.609	-0.125	0.272
-527.033	-111.757	-0.141	0.029
-526.018	-126.145	0.094	0.014
-525.004	-34.366	-0.335	0.184
-523.989	-200.000	0.073	-0.359
-522.975	2.099	0.350	0.253
-521.960	-17.092	-0.321	-0.203
-520.945	-78.974	0.078	0.027
-519.931	-57.240	0.101	-0.044
-518.916	-200.000	-0.001	0.139
-517.902	-200.000	0.051	0.556
-516.887	-107.048	0.397	-0.088
-515.872	-40.898	0.184	0.096
-514.858	349.112	0.096	-0.189
-513.843	-99.506	-0.246	-0.062
-512.829	190.168	0.031	0.047
-511.814	79.545	0.132	-0.142
-510.799	601.861	-0.069	0.172
-509.785	231.495	0.250	0.410
-508.770	79.965	-0.059	0.063
-507.756	-200.000	-0.012	-0.095
-506.741	92.798	-0.070	0.079
-505.726	-115.030	-0.174	0.033
-504.712	-200.000	-0.089	-0.465
-503.697	-200.000	-0.026	-0.232
-502.683	19.140	-0.172	0.139
-501.668	800.000	0.120	0.511
-500.653	598.106	-0.035	-0.087
-499.639	-200.000	0.001	-0.298
-498.624	-74.836	0.247	0.089
-497.610	299.586	-0.107	0.198
-496.595	-200.000	-0.016	0.187
-495.581	-200.000	0.004	0.165
-494.566	525.149	-0.010	-0.025
-493.551	-107.057	0.247	-0.055
-492.537	6.477	0.232	0.172
-491.522	34.777	-0.210	0.184
-490.508	39.906	0.106	-0.096
-489.493	800.000	-0.056	-0.204
-488.478	309.164	0.091	-0.170
-487.464	202.838	-0.036	0.056
-486.449	800.000	0.033	0.121
-485.435	-85.866	-0.207	-0.064
-484.420	22.680	0.276	0.226
-483.405	-2.764	0.223	-0.156
-482.391	-129.478	0.199	-0.028
-481.376	517.840	-0.157	-0.367
-480.362	-163.689	0.140	0.007
-479.347	800.000	-0.109	-0.302
-478.332	211.701	-0.060	-0.095
-477.318	9.981	0.133	-0.101
-476.303	92.754	-0.136	-0.154
-475.289	483.435	-0.033	-0.075
-474.274	-120.802	0.133	-0.022
-473.259	-48.701	0.251	-0.121
-472.245	-200.000	0.040	0.345
-471.230	280.771	0.074	0.133
-470.216	766.117	-0.102	-0.277
-469.201	-30.952	0.055	-0.031
-468.186	-200.000	-0.037	-0.189
-467.172	-135.001	0.114	0.014
-466.157	-200.000	0.088	0.607
-465.143	183.287	-0.290	0.429
-464.128	-200.000	0.026	0.346
-463.113	-40.712	0.166	0.086
-462.099	-200.000	0.024	-0.265
-461.084	-169.354	0.193	0.007
-460.070	-38.934	-0.372	-0.196
-459.055	-24.621	0.046	0.027
-458.040	141.727	-0.197	-0.261
-457.026	-200.000	0.035	-0.290
-456.011	-200.000	0.002	0.166
-454.997	800.000	-0.058	-0.171
-453.982	392.978	0.178	-0.371
-452.968	800.000	-0.010	0.039
-451.953	6.976	-0.183	0.136
-450.938	31.369	0.209	0.179
-449.924	123.239	0.222	-0.278
-448.909	-10.305	-0.275	0.182
-447.895	-15.653	0.062	-0.039
-446.880	79.136	0.222	-0.238
-445.865	155.410	-0.109	0.150
-444.851	-33.425	0.180	-0.100
-443.836	-87.155	-0.205	0.062
-442.822	-112.219	-0.303	-0.061
-441.807	-44.657	0.234	-0.117
-440.792	800.000	0.033	0.118
-439.778	800.000	0.033	0.108
-438.763	-62.179	-0.186	0.078
-437.749	-44.962	-0.232	0.115
-436.734	-82.597	0.141	-0.046
-435.719	-51.914	0.260	-0.121
-434.705	246.447	-0.145	-0.244
-433.690	89.276	0.127	-0.141
-432.676	-47.744	0.199	0.096
-431.661	-44.937	-0.250	-0.124
-430.646	-200.000	0.007	0.053
-429.632	570.903	0.122	0.296
-428.617	-200.000	0.008	0.286
-427.603	347.925	0.144	0.283
-426.588	-90.895	0.235	0.068
-425.573	267.036	0.134	-0.234
-424.559	6.752	0.208	-0.154
-423.544	-200.000	-0.004	0.242
-422.530	-83.517	-0.181	-0.058
-421.515	800.000	0.030	0.111
-420.500	124.977	0.193	0.243
-419.486	81.187	0.071	-0.077
-418.471	-30.514	0.178	-0.101
-417.457	146.521	-0.002	-0.003
-416.442	-11.230	0.163	-0.107
-415.428	-83.676	-0.221	0.070
-414.413	177.664	-0.198	0.288
-413.398	258.038	-0.051	0.087
-412.384	-200.000	0.034	0.150
-411.369	-13.087	-0.277	0.180
-410.355	46.592	-0.098	-0.091
-409.340	28.729	0.159	0.134
-408.325	25.436	-0.323	0.268
-407.311	-200.000	-0.057	0.376
-406.296	-155.305	-0.295	0.019
-405.282	27.006	0.020	-0.017
-404.267	-200.000	-0.039	0.255
-403.252	-82.301	-0.251	-0.082
-402.238	-200.000	0.009	0.068
-401.223	-53.936	-0.268	0.122
-400.209	-200.000	-0.021	0.126
-399.194	-129.899	0.190	0.026
-398.179	-48.650	-0.235	-0.113
-397.165	-200.000	-0.007	0.141
-396.150	-200.000	0.002	-0.148
-395.136	478.878	0.058	-0.130
-394.121	105.315	0.057	-0.067
-393.106	161.167	-0.115	-0.161
-392.092	-29.743	-0.280	0.159
-391.077	292.157	0.084	-0.153
-390.063	-200.000	0.007	0.201
-389.048	77.176	0.128	-0.135
-388.033	-200.000	0.020	-0.174
-387.019	-175.154	-0.277	0.008
-386.004	67.903	0.285	-0.291
-384.990	-172.162	-0.220	0.007
-383.975	23.320	-0.150	0.123
-382.960	-75.222	0.140	0.050
-381.946	-89.400	-0.214	0.063
-380.931	9.455	-0.023	-0.018
-379.917	-151.373	-0.112	-0.008
-378.902	229.176	-0.245	-0.399
-377.888	62.856	0.284	-0.283
-376.873	-200.000	0.014	0.095
-375.858	32.075	0.106	0.091
-374.844	800.000	-0.014	-0.059
-373.829	800.000	-0.030	-0.120
-372.815	535.225	0.055	-0.130
-371.800	32.273	0.129	0.111
-370.785	37.666	-0.126	-0.111
-369.771	225.427	-0.096	0.154
-368.756	53.312	0.397	0.379
-367.742	800.000	0.047	0.181
-366.727	-120.806	0.348	-0.058
-365.712	-176.090	-0.056	0.001
-364.698	-37.321	-0.352	0.187
-363.683	280.455	0.146	0.260
-362.669	158.777	0.056	-0.077
-361.654	251.445	-0.129	0.218
-360.639	-200.000	-0.022	-0.400
-359.625	4.808	0.068	-0.050
-358.610	-85.918	-0.040	0.012
-357.596	23.010	-0.205	-0.168
-356.581	-68.650	0.412	-0.159
-355.566	153.142	-0.113	0.153
-354.552	109.307	-0.174	-0.207
-353.537	-54.219	0.401	-0.181
-352.523	-73.126	-0.224	0.082
-351.508	-200.000	0.012	0.139
-350.493	-94.622	-0.032	-0.009
-349.479	-58.670	0.268	-0.116
-348.464	800.000	-0.059	0.194
-347.450	253.025	-0.154	-0.261
-346.435	7.304	0.254	-0.189
-345.420	-140.707	-0.275	0.028
-344.406	183.426	-0.059	0.087
-343.391	676.774	-0.079	0.204
-342.377	30.284	0.182	0.155
-341.362	26.315	-0.287	0.238
-340.348	33.940	0.266	0.230
-339.333	800.000	-0.059	-0.187
-338.318	-114.663	-0.246	-0.047
-337.304	-119.598	-0.310	-0.053
-336.289	409.112	-0.083	-0.176
-335.275	12.305	0.205	-0.157
-334.260	-80.751	-0.168	0.056
-333.245	-150.593	0.244	-0.019
-332.231	-127.623	0.345	-0.050
-331.216	768.775	0.086	-0.233
-330.202	-3.468	0.188	-0.130
-329.187	-200.000	0.003	-0.068
-328.172	-89.593	0.081	-0.024
-327.158	-72.674	0.325	0.119
-326.143	-200.000	-0.001	-0.284
-325.129	-120.332	0.237	-0.040
-324.114	-6.977	0.259	0.175
-323.099	800.000	-0.023	0.071
-322.085	3.069	0.318	-0.230
-321.070	50.481	-0.246	-0.231
-320.056	30.092	0.251	0.213
-319.041	-110.706	-0.311	-0.064
-318.026	196.346	0.164	-0.249
-317.012	-200.000	-0.000	0.117
-315.997	-200.000	-0.031	0.388
-314.983	132.829	-0.162	-0.208
-313.968	800.000	-0.092	0.262
-312.953	-69.430	0.189	0.072
-311.939	-200.000	-0.022	-0.256
-310.924	192.019	-0.076	-0.114
-309.910	800.000	0.040	-0.123
-308.895	-200.000	-0.039	-0.233
-307.880	713.943	-0.079	0.207
-306.866	210.973	0.264	0.413
-305.851	-200.000	0.008	0.088
-304.837	166.058	-0.110	0.155
-303.822	-47.404	-0.276	0.133
-302.807	-41.853	-0.328	0.167
-301.793	-5.974	-0.193	-0.131
-300.778	392.428	-0.080	0.165
-299.764	800.000	-0.110	-0.358
-298.749	95.183	0.062	0.070
-297.735	-117.747	0.512	0.092
-296.720	28.046	-0.079	0.066
-295.705	205.482	0.147	-0.226
-294.691	-200.000	0.069	-0.314
-293.676	800.000	0.094	0.277
-292.662	-27.784	-0.337	0.194
-291.647	-33.540	-0.045	-0.025
-290.632	-179.731	0.290	0.006
-289.618	202.459	0.115	-0.176
-288.603	-49.466	0.165	-0.078
-287.589	-200.000	0.008	-0.087
-286.574	-134.521	0.108	-0.013
-285.559	593.080	0.118	0.290
-284.545	-166.865	-0.120	-0.005
-283.530	-140.612	-0.460	0.047
-282.516	800.000	-0.053	-0.147
-281.501	-64.823	0.168	0.068
-280.486	2.721	0.209	0.150
-279.472	-26.122	-0.180	-0.105
-278.457	-150.365	-0.167	0.013
-277.443	-45.633	-0.319	0.157
-276.428	193.088	0.024	0.037
-275.413	-200.000	0.013	-0.099
-274.399	-46.999	0.321	-0.156
-273.384	-136.400	0.092	-0.011
-272.370	356.981	0.094	0.187
-271.355	-7.207	-0.106	-0.072
-270.340	-129.089	-0.265	-0.037
-269.326	113.586	0.278	-0.335
-268.311	-200.000	-0.064	0.296
-267.297	-139.225	0.102	-0.011
-266.282	800.000	-0.119	-0.326
-265.267	-4.870	0.176	0.120
-264.253	436.275	0.115	0.249
-263.238	-170.036	0.275	0.010
-262.224	-200.000	0.014	-0.119
-261.209	-200.000	-0.002	0.038
-260.195	-35.668	0.109	0.059
-259.180	-18.849	-0.260	0.161
-258.165	-5.359	-0.102	0.070
-257.151	489.697	-0.054	0.122
-256.136	-173.312	0.098	0.003
-255.122	-83.928	-0.244	0.077
-254.107	-190.074	0.201	-0.002
-253.092	587.243	0.055	-0.133
-252.078	-137.358	0.631	-0.071
-251.063	-200.000	-0.045	-0.251
-250.049	-120.328	-0.215	0.036
-249.034	-16.950	0.272	0.170
-248.019	-181.757	-0.109	0.002
-247.005	-161.993	-0.236	0.012
-245.990	65.187	0.245	-0.245
-244.976	800.000	0.043	-0.149
-243.961	-200.000	-0.030	-0.338
-242.946	17.035	-0.259	-0.203
-241.932	-109.025	0.452	0.095
-240.917	800.000	0.068	-0.221
-239.903	-48.065	0.100	-0.048
-238.888	-157.235	-0.182	0.011
-237.873	-148.876	0.107	-0.009
-236.859	175.478	0.067	-0.096
-235.844	295.667	-0.103	-0.187
-234.830	-146.679	-0.260	-0.022
-233.815	134.934	0.150	0.193
-232.800	305.435	-0.128	0.236
-231.786	-200.000	-0.030	0.214
-230.771	-52.604	0.107	-0.049
-229.757	388.096	-0.108	-0.222
-228.742	66.173	0.147	0.148
-227.727	-137.416	0.408	0.046
-226.713	-129.358	-0.347	-0.048
-225.698	730.164	0.163	-0.433
-224.684	-140.720	0.171	-0.018
-223.669	786.736	0.058	0.157
-222.655	-69.453	0.080	0.030
-221.640	82.822	0.237	0.255
-220.625	293.091	-0.183	-0.330
-219.611	149.768	-0.011	-0.015
-218.596	-27.592	-0.026	-0.015
-217.582	-10.367	-0.215	-0.141
-216.567	-17.707	-0.285	-0.177
-215.552	185.496	-0.127	-0.187
-214.538	365.672	-0.056	0.112
-213.523	-55.742	0.195	0.086
-212.509	-38.656	-0.275	-0.144
-211.494	-114.125	0.277	0.053
-210.479	-36.707	0.243	-0.129
-209.465	1.766	0.121	-0.086
-208.450	-108.716	0.400	0.085
-207.436	19.705	-0.221	0.176
-206.421	345.639	0.035	0.069
-205.406	57.020	0.230	-0.222
-204.392	-200.000	-0.002	-0.025
-203.377	-200.000	0.005	0.088
-202.363	446.826	-0.146	-0.319
-201.348	-147.727	-0.329	-0.027
-200.333	76.955	-0.059	-0.062
-199.319	24.643	-0.162	0.133
-198.304	-200.000	0.029	0.151
-197.290	178.127	-0.237	-0.342
-196.275	413.209	-0.113	0.237
-195.260	42.444	0.060	-0.054
-194.246	42.586	0.163	0.147
-193.231	-45.792	-0.258	0.126
-192.217	256.146	0.227	-0.386
-191.202	-200.000	-0.001	-0.172
-190.187	-142.883	-0.120	0.012
-189.173	-140.158	0.069	-0.007
-188.158	800.000	0.040	0.158
-187.144	50.671	0.026	0.025
-186.129	198.474	0.078	-0.118
-185.114	169.096	-0.105	0.148
-184.100	-110.638	-0.137	0.028
-183.085	800.000	-0.027	0.078
-182.071	-96.485	0.280	0.073
-181.056	203.873	-0.234	-0.358
-180.042	-44.030	-0.272	-0.135
-179.027	262.319	0.284	0.487
-178.012	-200.000	-0.011	0.083
-176.998	77.349	-0.072	0.076
-175.983	-140.236	0.217	0.022
-174.969	-200.000	0.024	0.104
-173.954	39.679	-0.042	-0.037
-172.939	334.873	-0.017	-0.032
-171.925	-200.000	0.004	0.108
-170.910	-26.127	-0.168	0.098
-169.896	93.618	0.222	-0.249
-168.881	-200.000	0.022	-0.173
-167.866	204.532	0.143	-0.219
-166.852	-200.000	-0.036	-0.182
-165.837	-43.140	0.238	0.119
-164.823	-106.031	-0.230	-0.051
-163.808	-42.511	-0.103	0.052
-162.793	64.113	0.165	0.164
-161.779	-169.936	-0.416	-0.015
-160.764	-64.758	0.257	0.103
-159.750	444.945	0.089	-0.193
-158.735	157.425	0.030	0.041
-157.720	-200.000	0.005	-0.234
-156.706	-200.000	0.004	-0.259
-155.691	88.845	-0.156	0.172
-154.677	-200.000	-0.026	0.286
-153.662	291.273	0.102	0.182
-152.647	25.011	0.142	0.117
-151.633	800.000	0.049	-0.142
-150.618	140.784	0.183	-0.239
-149.604	-200.000	-0.028	-0.154
-148.589	-79.713	0.304	-0.101
-147.574	-200.000	-0.029	0.261
-146.560	-77.113	-0.173	-0.059
-145.545	-121.900	0.279	-0.045
-144.531	-109.135	0.121	-0.025
-143.516	800.000	0.056	0.211
-142.502	0.488	0.381	0.269
-141.487	162.683	-0.178	-0.247
-140.472	22.449	-0.191	0.155
-139.458	74.081	0.110	0.113
-138.443	189.516	0.078	0.115
-137.429	800.000	0.025	-0.096
-136.414	744.468	-0.126	0.334
-135.399	2.431	0.090	-0.064
-134.385	-19.663	-0.140	-0.086
-133.370	-200.000	0.019	0.366
-132.356	-200.000	0.035	0.217
-131.341	69.453	0.023	-0.023
-130.326	125.576	0.020	-0.025
-129.312	-167.535	0.159	-0.006
-128.297	-23.659	0.148	0.087
-127.283	-200.000	-0.048	-0.330
-126.268	113.706	0.146	0.176
-125.253	-200.000	-0.008	0.219
-124.239	800.000	0.023	-0.063
-123.224	106.825	0.064	-0.076
-122.210	197.716	-0.215	0.324
-121.195	-5.499	0.125	-0.085
-120.180	-50.120	0.249	-0.117
-119.166	-48.031	0.390	-0.186
-118.151	83.065	0.133	-0.142
-117.137	-51.257	0.116	0.053
-116.122	800.000	0.137	-0.377
-115.107	-57.159	0.173	0.075
-114.093	-66.313	0.242	0.095
-113.078	70.511	0.073	0.074
-112.064	7.681	-0.198	-0.146
-111.049	800.000	0.064	-0.203
-110.034	-68.410	0.160	0.061
-109.020	-200.000	-0.015	-0.332
-108.005	95.361	-0.096	0.108
-106.991	-70.462	-0.188	-0.070
-105.976	-152.151	0.046	0.003
-104.962	-200.000	0.029	-0.164
-103.947	800.000	-0.092	-0.261
-102.932	-20.821	0.067	-0.040
-101.918	-65.986	0.126	0.050
-100.903	313.151	0.096	0.178
-99.889	554.784	0.042	0.100
-98.874	-124.550	-0.032	0.005
-97.859	437.915	0.200	-0.429
-96.845	-166.884	-0.232	-0.009
-95.830	-150.149	-0.213	0.016
-94.816	-200.000	-0.002	0.015
-93.801	31.874	-0.254	-0.215
-92.786	-21.134	0.158	-0.096
-91.772	130.493	0.050	0.063
-90.757	0.933	0.293	-0.207
-89.743	92.599	0.115	-0.128
-88.728	-200.000	0.009	-0.645
-87.713	-91.950	-0.229	-0.064
-86.699	-200.000	-0.022	0.107
-85.684	-89.695	0.102	-0.030
-84.670	122.919	0.178	-0.219
-83.655	-128.921	0.270	0.037
-82.640	-102.746	-0.041	-0.010
-81.626	82.531	-0.186	-0.199
-80.611	68.859	-0.095	0.097
-79.597	-200.000	0.011	0.139
-78.582	-200.000	-0.005	-0.322
-77.567	120.233	-0.234	-0.286
-76.553	-200.000	0.046	0.327
-75.538	327.217	0.137	-0.260
-74.524	162.263	0.107	-0.148
-73.509	-120.344	-0.392	-0.066
-72.494	-200.000	0.002	-0.305
-71.480	17.528	-0.284	0.222
-70.465	-47.449	-0.303	0.145
-69.451	12.064	0.295	-0.224
-68.436	-142.158	-0.176	0.017
-67.422	161.785	-0.058	-0.080
-66.407	800.000	-0.100	0.417
-65.392	233.815	0.103	-0.167
-64.378	248.085	0.262	-0.437
-63.363	-200.000	-0.045	-0.360
-62.349	-200.000	-0.018	0.257
-61.334	3.982	-0.992	-0.714
-60.319	-62.850	0.642	0.262
-59.305	597.137	-0.449	-1.094
-58.290	108.184	0.904	1.062
-57.276	528.301	0.642	1.491
-56.261	-200.000	114.379	662.233
-55.246	544.044	1515.929	3561.750
-54.232	175.817	2691.549	3843.092
-53.217	101.552	2319.503	2660.243
-52.203	34.593	2065.542	1775.841
-51.188	29.690	1980.704	1658.952
-50.173	28.255	1964.215	1632.294
-49.159	46.732	2022.974	1848.767
-48.144	46.056	2038.501	1856.774
-47.130	30.197	1998.093	1677.845
-46.115	27.925	1987.091	1648.065
-45.100	27.923	1983.708	1645.176
-44.086	27.747	1981.868	1642.004
-43.071	27.699	1979.538	1639.579
-42.057	27.663	1977.615	1637.598
-41.042	27.706	1976.227	1636.765
-40.027	27.762	1974.037	1635.390
-39.013	27.826	1971.998	1634.211
-37.998	27.853	1970.360	1633.031
-36.984	27.870	1968.680	1631.723
-35.969	27.798	1966.862	1629.503
-34.954	27.848	1965.014	1628.354
-33.940	27.893	1963.118	1627.125
-32.925	27.910	1961.976	1626.263
-31.911	27.967	1960.034	1625.095
-30.896	27.954	1958.380	1623.547
-29.881	27.903	1957.464	1622.271
-28.867	27.946	1955.545	1620.998
-27.852	27.944	1953.780	1619.450
-26.838	27.924	1951.921	1617.665
-25.823	27.990	1949.986	1616.579
-24.809	27.845	1948.600	1614.089
-23.794	27.913	1946.316	1612.731
-22.779	27.901	1944.563	1611.109
-21.765	27.923	1943.053	1609.987
-20.750	27.922	1941.123	1608.320
-19.736	27.942	1939.860	1607.380
-18.721	27.940	1938.310	1606.016
-17.706	27.967	1936.391	1604.597
-16.692	27.916	1935.386	1603.257
-15.677	27.918	1933.536	1601.680
-14.663	27.874	1932.750	1600.579
-13.648	27.910	1931.173	1599.522
-12.633	27.951	1930.228	1599.033
-11.619	27.929	1928.535	1597.378
-10.604	27.937	1926.845	1595.985
-9.590	27.924	1926.131	1595.217
-8.575	27.933	1924.217	1593.645
-7.560	27.918	1923.105	1592.528
-6.546	27.908	1921.579	1591.113
-5.531	27.953	1920.232	1590.327
-4.517	27.925	1919.254	1589.213
-3.502	27.976	1917.895	1588.472
-2.487	27.871	1917.006	1586.760
-1.473	27.994	1915.382	1586.415
-0.458	28.013	1911.170	1583.031
0.556	28.809	1891.081	1554.335
1.571	24.436	1872.585	1502.278
2.586	20.459	1895.124	1486.277
3.600	19.339	1930.208	1503.895
4.615	18.885	1923.579	1494.648
5.629	14.447	1822.022	1378.975
6.644	6.790	1707.863	1232.885
7.659	3.479	1674.181	1183.089
8.673	3.218	1671.039	1178.771
9.688	3.194	1669.936	1177.701
10.702	3.286	1668.618	1177.367
11.717	3.262	1664.938	1174.489
12.731	3.695	1663.704	1176.814
13.746	8.787	1675.992	1224.405
14.761	16.593	1693.362	1297.047
15.775	20.424	1699.522	1331.073
16.790	20.583	1698.030	1330.998
17.804	19.547	1695.375	1320.878
18.819	18.591	1692.156	1310.953
19.834	18.010	1689.848	1304.611
20.848	17.792	1688.814	1302.037
21.863	17.695	1687.628	1300.270
22.877	17.489	1685.715	1297.110
23.892	17.255	1684.876	1294.566
24.907	17.271	1683.376	1293.419
25.921	17.224	1682.113	1291.981
26.936	17.101	1681.514	1290.468
27.950	17.250	1680.305	1290.561
28.965	17.187	1680.321	1289.978
29.980	17.285	1679.508	1289.983
30.994	17.426	1678.314	1290.022
32.009	17.453	1677.128	1289.203
33.023	17.593	1676.523	1289.682
34.038	17.539	1675.720	1288.543
35.053	17.571	1673.737	1287.143
36.067	17.440	1672.784	1285.311
37.082	17.388	1671.716	1283.981
38.096	17.361	1671.219	1283.281
39.111	17.445	1669.696	1282.632
40.126	17.485	1668.760	1282.102
41.140	17.557	1667.883	1281.854
42.155	17.235	1666.437	1278.205
43.169	17.082	1665.005	1275.845
44.184	17.043	1663.553	1274.327
45.199	17.077	1662.361	1273.556
46.213	16.989	1661.511	1272.137
47.228	16.978	1660.779	1271.376
48.242	17.114	1659.845	1271.569
49.257	17.303	1658.351	1271.728
50.271	17.296	1656.837	1270.400
51.286	17.300	1655.712	1269.457
52.301	17.270	1654.657	1268.308
53.315	17.317	1652.734	1267.071
54.330	17.310	1651.478	1265.948
55.344	17.188	1649.428	1263.360
56.359	17.159	1647.927	1261.881
57.374	17.181	1647.099	1261.295
58.388	17.188	1645.757	1260.211
59.403	17.027	1645.097	1258.401
60.417	16.993	1643.410	1256.746
61.432	16.955	1641.900	1255.202
62.447	16.903	1641.106	1254.098
63.461	16.783	1640.414	1252.571
64.476	16.826	1638.626	1251.408
65.490	16.797	1637.241	1250.025
66.505	16.845	1635.786	1249.159
67.520	16.896	1634.350	1248.327
68.534	16.864	1633.806	1247.569
69.549	16.848	1632.826	1246.588
70.563	16.881	1631.448	1245.672
71.578	16.826	1630.473	1244.414
72.593	16.779	1629.057	1242.873
73.607	16.628	1628.204	1241.007
74.622	16.609	1627.329	1240.090
75.636	16.654	1626.386	1239.595
76.651	16.624	1625.538	1238.620
77.666	16.741	1624.552	1238.615
78.680	16.737	1623.698	1237.822
79.695	16.682	1623.203	1236.932
80.709	16.783	1621.718	1236.430
81.724	16.965	1621.194	1237.247
82.739	16.983	1620.483	1236.728
83.753	17.040	1619.993	1236.660
84.768	17.133	1618.949	1236.429
85.782	17.251	1617.870	1236.358
86.797	17.347	1617.623	1236.753
87.812	17.447	1616.635	1236.621
88.826	17.341	1615.651	1234.984
89.841	17.288	1613.364	1232.747
90.855	17.219	1613.375	1232.145
91.870	17.445	1612.029	1232.646
92.884	17.394	1611.171	1231.507
93.899	17.465	1610.319	1231.263
94.914	17.418	1608.866	1229.706
95.928	17.573	1607.639	1229.773
96.943	17.504	1606.674	1228.433
97.957	17.517	1605.353	1227.409
98.972	17.474	1603.753	1225.763
99.987	17.346	1602.474	1223.758
101.001	17.408	1600.903	1222.898
102.016	17.423	1599.160	1221.565
103.030	17.400	1597.902	1220.330
104.045	17.425	1596.800	1219.557
105.060	17.427	1595.307	1218.326
106.074	17.334	1594.011	1216.561
107.089	17.231	1592.031	1214.204
108.103	16.989	1590.789	1211.427
109.118	16.811	1589.528	1209.089
110.133	16.871	1587.832	1208.117
111.147	16.933	1586.136	1207.164
112.162	16.857	1585.282	1205.864
113.176	16.804	1583.739	1204.210
114.191	16.999	1582.277	1204.372
115.206	16.939	1581.733	1203.425
116.220	17.043	1579.717	1202.527
117.235	16.990	1578.666	1201.246
118.249	16.980	1577.147	1199.910
119.264	16.998	1575.698	1198.829
120.279	16.934	1574.567	1197.410
121.293	16.859	1573.021	1195.599
122.308	16.841	1571.134	1193.936
123.322	16.830	1569.832	1192.762
124.337	16.739	1568.213	1190.787
125.352	16.682	1567.424	1189.683
126.366	16.743	1566.062	1188.970
127.381	16.727	1564.573	1187.623
128.395	16.628	1564.243	1186.573
129.410	16.679	1562.768	1185.708
130.424	16.756	1561.366	1185.074
131.439	16.820	1560.106	1184.459
132.454	16.796	1558.824	1183.217
133.468	16.955	1557.217	1183.003
134.483	16.951	1555.979	1181.929
135.497	16.961	1554.325	1180.637
136.512	16.958	1553.367	1179.784
137.527	16.910	1552.206	1178.466
138.541	17.006	1551.154	1178.230
139.556	17.076	1550.014	1177.743
140.570	17.085	1548.672	1176.681
141.585	17.173	1547.281	1176.126
142.600	17.215	1546.290	1175.560
143.614	17.262	1545.148	1174.913
144.629	17.465	1544.093	1175.410
145.643	17.394	1543.138	1174.087
146.658	17.532	1541.175	1173.442
147.673	17.447	1539.497	1171.476
148.687	17.298	1538.143	1169.318
149.702	17.258	1536.213	1167.474
150.716	17.113	1534.750	1165.265
151.731	17.134	1533.227	1164.149
152.746	17.108	1532.510	1163.322
153.760	17.131	1530.475	1161.832
154.775	17.105	1529.433	1160.760
155.789	17.263	1528.577	1161.089
156.804	17.279	1527.242	1160.077
157.819	17.314	1525.815	1159.133
158.833	17.413	1525.190	1159.232
159.848	17.448	1524.014	1158.473
160.862	17.558	1522.911	1158.278
161.877	17.646	1521.772	1157.905
162.892	17.497	1520.543	1155.859
163.906	17.313	1518.259	1152.776
164.921	17.188	1517.337	1151.121
165.935	17.156	1516.250	1149.982
166.950	17.197	1515.355	1149.478
167.964	17.286	1514.170	1149.078
168.979	17.383	1513.329	1148.991
169.994	17.295	1512.615	1147.755
171.008	17.312	1511.384	1146.833
172.023	17.348	1510.139	1146.028
173.037	17.308	1509.225	1144.968
174.052	17.395	1508.228	1144.692
175.067	17.543	1506.862	1144.549
176.081	17.450	1505.707	1142.945
177.096	17.283	1503.761	1140.252
178.110	17.170	1502.713	1138.599
179.125	17.208	1501.892	1138.130
180.140	17.347	1500.535	1137.927
181.154	17.303	1499.850	1137.012
182.169	17.389	1498.385	1136.379
183.183	17.401	1497.879	1135.974
184.198	17.615	1496.947	1136.597
185.213	17.608	1495.814	1135.588
186.227	17.564	1494.489	1134.191
187.242	17.591	1493.796	1133.744
188.256	17.566	1492.910	1132.805
189.271	17.657	1491.948	1132.574
190.286	17.730	1491.046	1132.276
191.300	17.724	1489.794	1131.184
192.315	17.402	1488.500	1127.968
193.329	17.239	1486.360	1125.167
194.344	17.120	1485.723	1123.797
195.359	17.251	1484.502	1123.643
196.373	17.470	1483.326	1124.103
197.388	17.413	1482.482	1122.987
198.402	17.511	1481.841	1123.047
199.417	17.622	1481.090	1123.107
200.432	17.775	1479.662	1122.932
201.446	17.932	1479.180	1123.504
202.461	18.010	1477.982	1123.005
203.475	18.017	1477.035	1122.234
204.490	18.102	1475.660	1121.649
205.504	17.952	1474.950	1120.024
206.519	17.838	1473.874	1118.358
207.534	17.708	1472.727	1116.540
208.548	17.663	1471.496	1115.211
209.563	17.625	1470.479	1114.094
210.577	17.730	1469.443	1113.899
211.592	17.722	1468.580	1113.094
212.607	17.713	1467.989	1112.489
213.621	17.901	1467.411	1113.175
214.636	18.025	1466.323	1113.060
215.650	18.004	1465.042	1111.851
216.665	17.825	1464.905	1110.485
217.680	17.966	1463.801	1110.470
218.694	18.057	1463.667	1110.857
219.709	18.202	1462.186	1110.580
220.723	18.173	1461.174	1109.521
221.738	18.132	1460.009	1108.277
222.753	18.035	1459.336	1107.036
223.767	18.077	1458.595	1106.652
224.782	17.990	1457.774	1105.366
225.796	18.187	1456.682	1105.715
226.811	18.328	1456.004	1106.011
227.826	18.271	1454.979	1104.765
228.840	18.189	1454.221	1103.563
229.855	18.093	1453.065	1101.974
230.869	18.023	1452.256	1100.810
231.884	18.115	1451.107	1100.435
232.899	18.028	1449.797	1098.781
233.913	17.928	1448.966	1097.416
234.928	17.969	1447.493	1096.465
235.942	17.895	1446.314	1094.999
236.957	17.907	1445.020	1093.997
237.972	17.852	1444.106	1092.856
238.986	17.907	1442.436	1091.850
240.001	17.953	1442.436	1092.050
241.015	17.908	1441.095	1090.648
242.030	17.937	1439.580	1089.591
243.045	17.994	1438.980	1089.401
244.059	18.121	1437.886	1089.285
245.074	18.163	1436.974	1088.770
246.088	18.185	1436.442	1088.409
247.103	18.176	1435.566	1087.588
248.117	18.305	1434.773	1087.714
249.132	18.317	1434.318	1087.350
250.147	18.458	1433.997	1087.907
251.161	18.605	1433.361	1088.261
252.176	18.783	1432.975	1088.995
253.190	18.860	1431.970	1088.627
254.205	18.835	1431.107	1087.715
255.220	18.977	1430.610	1088.138
256.234	18.952	1429.841	1087.301
257.249	18.954	1428.706	1086.351
258.263	18.903	1427.826	1085.266
259.278	18.947	1427.023	1084.836
260.293	18.947	1425.850	1083.850
261.307	18.944	1425.240	1083.274
262.322	18.948	1424.646	1082.748
263.336	18.958	1423.925	1082.170
264.351	18.941	1423.086	1081.327
265.366	19.053	1422.083	1081.176
266.380	19.075	1420.903	1080.320
267.395	19.065	1420.254	1079.669
268.409	19.053	1419.586	1078.989
269.424	18.971	1418.232	1077.349
270.439	18.893	1416.998	1075.827
271.453	18.910	1415.796	1074.928
272.468	18.887	1414.947	1074.045
273.482	18.916	1414.056	1073.453
274.497	18.871	1412.897	1072.196
275.512	18.842	1412.414	1071.559
276.526	18.916	1411.704	1071.387
277.541	18.880	1410.579	1070.209
278.555	18.824	1409.649	1069.061
279.570	18.862	1409.047	1068.746
280.585	18.931	1408.383	1068.579
281.599	19.034	1407.927	1068.779
282.614	19.207	1406.699	1068.822
283.628	19.146	1405.315	1067.299
284.643	19.033	1404.345	1065.769
285.657	18.902	1403.426	1064.168
286.672	18.995	1402.535	1063.972
287.687	18.969	1401.175	1062.685
288.701	19.008	1400.403	1062.246
289.716	18.919	1399.888	1061.214
290.730	19.043	1398.461	1060.801
291.745	19.070	1397.361	1060.037
292.760	18.961	1396.942	1058.957
293.774	19.080	1395.949	1058.841
294.789	19.162	1394.929	1058.479
295.803	19.259	1394.407	1058.586
296.818	19.284	1393.266	1057.782
297.833	19.251	1392.129	1056.620
298.847	19.104	1391.163	1054.891
299.862	19.041	1390.245	1053.720
300.876	19.110	1389.072	1053.155
301.891	19.158	1388.209	1052.701
302.906	19.242	1387.925	1052.910
303.920	19.308	1387.027	1052.537
304.935	19.339	1386.472	1052.209
305.949	19.437	1385.644	1052.090
306.964	19.472	1385.151	1051.833
307.979	19.608	1384.228	1051.868
308.993	19.484	1382.994	1050.085
310.008	19.412	1382.110	1048.878
311.022	19.349	1381.254	1047.753
312.037	19.534	1379.846	1047.720
313.052	19.455	1379.434	1046.831
314.066	19.535	1377.853	1046.025
315.081	19.472	1376.660	1044.646
316.095	19.261	1375.937	1042.730
317.110	19.166	1374.662	1041.093
318.125	19.184	1373.995	1040.607
319.139	19.301	1373.068	1040.516
320.154	19.181	1372.066	1038.942
321.168	19.181	1371.243	1038.227
322.183	19.357	1369.481	1037.860
323.197	19.161	1369.349	1036.490
324.212	19.204	1368.390	1035.930
325.227	19.321	1367.343	1035.747
326.241	19.463	1366.381	1035.780
327.256	19.386	1366.130	1035.040
328.270	19.437	1365.136	1034.499
329.285	19.337	1363.756	1032.760
330.300	19.367	1363.210	1032.438
331.314	19.422	1361.822	1031.624
332.329	19.366	1361.083	1030.638
333.343	19.318	1360.345	1029.701
334.358	19.361	1360.005	1029.609
335.373	19.506	1359.059	1029.670
336.387	19.555	1358.302	1029.292
337.402	19.622	1357.395	1028.919
338.416	19.684	1356.539	1028.546
339.431	19.578	1356.742	1027.975
340.446	19.670	1355.567	1027.546
341.460	19.717	1354.449	1026.885
342.475	19.868	1353.278	1026.799
343.489	19.941	1352.939	1026.884
344.504	19.997	1351.669	1026.166
345.519	19.959	1351.022	1025.355
346.533	20.180	1349.835	1025.670
347.548	20.082	1349.135	1024.470
348.562	20.076	1348.793	1024.085
349.577	20.222	1347.768	1024.079
350.592	20.092	1346.592	1022.328
351.606	19.920	1345.648	1020.504
352.621	19.780	1344.199	1018.493
353.635	19.693	1343.357	1017.253
354.650	19.676	1342.598	1016.487
355.665	19.631	1341.915	1015.612
356.679	19.721	1340.495	1014.977
357.694	19.811	1339.395	1014.586
358.708	19.886	1338.373	1014.158
359.723	19.930	1337.315	1013.524
360.738	19.936	1336.572	1012.907
361.752	20.001	1335.544	1012.417
362.767	19.932	1334.645	1011.248
363.781	20.037	1333.115	1010.612
364.796	20.099	1332.409	1010.347
365.810	20.069	1331.838	1009.650
366.825	20.085	1331.687	1009.535
367.840	20.247	1330.878	1009.777
368.854	20.368	1330.250	1009.919
369.869	20.410	1329.831	1009.754
370.883	20.391	1329.662	1009.427
371.898	20.357	1328.555	1008.299
372.913	20.358	1327.239	1007.217
373.927	20.201	1326.637	1005.757
374.942	20.278	1325.814	1005.494
375.956	20.370	1325.227	1005.494
376.971	20.395	1324.526	1005.014
377.986	20.381	1323.373	1003.969
379.000	20.291	1322.934	1003.026
380.015	20.452	1322.182	1003.300
381.029	20.574	1321.127	1003.114
382.044	20.575	1320.866	1002.836
383.059	20.662	1319.782	1002.421
384.073	20.577	1319.163	1001.373
385.088	20.544	1318.651	1000.709
386.102	20.636	1317.924	1000.594
387.117	20.605	1317.216	999.792
388.132	20.579	1316.259	998.827
389.146	20.424	1315.206	997.048
390.161	20.465	1314.046	996.319
391.175	20.446	1313.622	995.801
392.190	20.343	1312.671	994.400
393.205	20.554	1311.801	994.863
394.219	20.631	1310.748	994.414
395.234	20.637	1309.933	993.744
396.248	20.527	1308.300	991.791
397.263	20.524	1307.158	990.819
398.278	20.400	1306.266	989.349
399.292	20.429	1304.627	988.182
400.307	20.287	1303.548	986.470
401.321	20.208	1302.302	984.990
402.336	20.213	1301.310	984.185
403.350	20.239	1300.457	983.602
404.365	20.374	1299.391	983.468
405.380	20.373	1298.589	982.772
406.394	20.436	1297.838	982.474
407.409	20.544	1297.272	982.570
408.423	20.528	1297.019	982.200
409.438	20.663	1296.343	982.361
410.453	20.719	1295.445	981.907
411.467	20.784	1294.916	981.791
412.482	20.906	1294.136	981.799
413.496	20.865	1293.742	981.182
414.511	20.891	1292.923	980.621
415.526	20.957	1292.380	980.491
416.540	21.052	1291.747	980.459
417.555	21.044	1291.187	979.901
418.569	21.118	1290.540	979.740
419.584	21.098	1289.245	978.556
420.599	21.062	1288.687	977.844
421.613	145.154	1435.404	1796.195
422.628	140.064	1456.740	1796.293
