DTS Sentinel unit serial number:	SN413079Multiplexer serial number:	ORYXHardware model number:	OX4-SRSoftware version number:	ORYX F/W v4.00 Oryx Data Collector v3.7.2.0data status	okinstallation	princeton_trtdifferential loss correction	single-endedforward channel	channel 4reverse channel	N/Adate	2019/09/19time	01:13:35forward acquisition time	60.00reverse acquisition time	0.00gamma	496.2192k internal	0.2339k external	0.2339temperature offset calibration	1.0030default loss term (dB/km)	0.3790temperature slope calibration	1.0000multiplexer offset coefficient	1.0000multiplexer slope coefficient	1.0000fibre end	0.00T internal ref (°C)	21.77T ext. ref 1 (°C)	0.71T ext. ref 2 (°C)	15.19length (m)	temperature (°C)	Stokes	anti-Stokes-747.200	202.537	0.200	-0.310
-746.185	-200.000	-0.013	0.161
-745.171	27.639	0.213	0.180
-744.156	325.465	0.178	-0.342
-743.142	800.000	-0.013	-0.055
-742.127	-49.807	-0.237	0.113
-741.112	-148.438	0.193	-0.016
-740.098	800.000	0.017	0.052
-739.083	-63.387	-0.185	0.076
-738.069	94.161	-0.164	0.187
-737.054	53.738	-0.215	0.207
-736.039	417.221	-0.074	-0.159
-735.025	-110.988	0.315	-0.065
-734.010	-48.687	-0.248	-0.120
-732.996	-124.843	-0.195	0.030
-731.981	50.059	0.277	-0.262
-730.966	60.095	-0.027	0.027
-729.952	125.097	-0.086	0.108
-728.937	587.971	-0.066	0.164
-727.923	-68.104	-0.226	0.088
-726.908	36.224	-0.159	-0.141
-725.894	-158.207	-0.285	-0.017
-724.879	800.000	0.087	-0.324
-723.864	59.661	0.056	-0.055
-722.850	314.354	0.158	0.298
-721.835	-200.000	0.049	0.224
-720.821	-121.609	-0.289	0.048
-719.806	-200.000	-0.045	-0.224
-718.791	800.000	0.089	-0.282
-717.777	-200.000	-0.014	-0.240
-716.762	-200.000	-0.014	-0.229
-715.748	800.000	-0.084	-0.315
-714.733	-45.588	0.381	0.189
-713.718	-140.253	0.135	-0.014
-712.704	-61.220	-0.192	0.081
-711.689	800.000	0.041	0.118
-710.675	-14.956	-0.104	0.067
-709.660	-200.000	-0.008	-0.174
-708.645	588.126	-0.103	0.255
-707.631	-52.356	0.272	-0.126
-706.616	148.077	-0.117	0.158
-705.602	-142.197	0.255	0.025
-704.587	124.645	-0.205	-0.258
-703.572	-14.639	0.231	0.149
-702.558	563.202	0.051	-0.124
-701.543	21.830	-0.213	-0.174
-700.529	-109.110	-0.093	0.020
-699.514	-41.743	-0.041	0.021
-698.499	233.200	0.146	-0.240
-697.485	800.000	0.074	-0.287
-696.470	5.156	-0.204	0.150
-695.456	-115.845	-0.031	0.006
-694.441	73.247	0.175	-0.183
-693.426	138.100	0.028	0.037
-692.412	369.201	0.047	-0.095
-691.397	-8.140	0.355	0.239
-690.383	-154.579	0.046	0.003
-689.368	-36.165	-0.062	-0.033
-688.354	195.943	0.058	-0.088
-687.339	27.859	0.095	0.080
-686.324	-200.000	-0.027	-0.127
-685.310	800.000	0.064	-0.274
-684.295	-18.720	0.096	0.060
-683.281	-93.587	-0.264	0.073
-682.266	-59.438	0.087	0.037
-681.251	-34.221	-0.323	-0.177
-680.237	6.423	-0.294	-0.219
-679.222	103.981	-0.115	-0.136
-678.208	-67.635	0.404	0.158
-677.193	800.000	-0.014	0.058
-676.178	-113.961	-0.258	-0.050
-675.164	-95.807	0.339	-0.091
-674.149	-140.017	-0.178	0.019
-673.135	430.220	-0.086	-0.187
-672.120	-24.731	0.048	0.029
-671.105	24.083	0.343	-0.283
-670.091	-85.553	0.133	0.041
-669.076	-200.000	0.025	-0.179
-668.062	41.177	-0.295	-0.267
-667.047	-12.685	-0.127	-0.083
-666.032	-96.227	0.236	-0.063
-665.018	-200.000	0.002	-0.022
-664.003	-34.085	-0.220	-0.121
-662.989	3.824	-0.378	-0.276
-661.974	310.227	0.090	-0.168
-660.959	360.374	-0.063	-0.127
-659.945	219.961	-0.211	-0.337
-658.930	-74.303	0.422	0.152
-657.916	17.996	0.325	-0.259
-656.901	-98.431	0.120	-0.031
-655.886	-54.529	0.193	-0.087
-654.872	-198.483	-0.533	-0.003
-653.857	24.302	0.177	-0.146
-652.843	312.195	0.043	-0.081
-651.828	-200.000	-0.015	0.142
-650.814	-200.000	-0.054	0.336
-649.799	109.549	0.121	-0.145
-648.784	-49.339	-0.065	0.031
-647.770	328.663	0.077	-0.148
-646.755	237.430	0.098	0.162
-645.741	183.801	0.066	0.097
-644.726	10.171	0.098	-0.075
-643.711	-51.933	0.156	0.073
-642.697	94.238	-0.051	0.058
-641.682	375.023	-0.152	0.309
-640.668	-129.021	0.179	-0.025
-639.653	-83.162	-0.131	0.042
-638.638	-200.000	-0.013	-0.089
-637.624	-94.063	0.315	0.086
-636.609	-31.236	-0.336	-0.189
-635.595	-30.557	-0.385	-0.218
-634.580	-125.373	-0.022	-0.003
-633.565	-31.702	-0.183	-0.103
-632.551	-70.706	0.163	0.062
-631.536	-61.005	0.143	0.060
-630.522	-200.000	0.027	0.268
-629.507	-55.758	0.098	0.044
-628.492	-200.000	0.007	-0.103
-627.478	-91.439	-0.310	0.089
-626.463	191.944	0.138	-0.207
-625.449	-185.013	-0.368	0.006
-624.434	-135.769	-0.315	0.037
-623.419	800.000	-0.056	0.162
-622.405	491.677	0.168	-0.384
-621.390	256.071	-0.116	0.198
-620.376	182.130	0.104	-0.153
-619.361	89.247	-0.209	0.233
-618.346	-200.000	-0.006	-0.125
-617.332	-144.234	-0.438	0.041
-616.317	-3.597	-0.199	-0.138
-615.303	-200.000	0.034	-0.311
-614.288	-200.000	-0.041	-0.218
-613.273	-200.000	-0.033	0.144
-612.259	232.153	0.204	-0.334
-611.244	156.070	0.114	-0.157
-610.230	-200.000	-0.074	-0.340
-609.215	800.000	0.061	0.263
-608.201	800.000	-0.059	0.175
-607.186	-62.005	-0.115	-0.048
-606.171	681.725	0.122	-0.317
-605.157	-98.401	-0.243	0.062
-604.142	1.648	0.244	-0.176
-603.128	-200.000	0.018	-0.089
-602.113	-200.000	0.008	-0.057
-601.098	-132.697	-0.287	0.037
-600.084	29.878	0.358	0.304
-599.069	-53.578	-0.191	-0.087
-598.055	-197.843	0.236	0.001
-597.040	-73.256	-0.296	0.108
-596.025	465.188	0.058	-0.130
-595.011	-110.906	0.434	0.089
-593.996	111.832	-0.200	0.241
-592.982	-200.000	0.002	-0.109
-591.967	148.301	-0.051	0.069
-590.952	226.391	-0.005	-0.008
-589.938	-128.132	0.196	0.028
-588.923	800.000	-0.054	0.160
-587.909	-200.000	-0.040	-0.293
-586.894	-105.258	-0.398	0.090
-585.879	170.394	-0.157	-0.223
-584.865	221.601	0.136	-0.217
-583.850	-50.894	-0.158	-0.074
-582.836	-0.460	0.316	0.224
-581.821	63.422	0.115	0.115
-580.806	48.660	-0.293	0.274
-579.792	-162.809	0.428	-0.021
-578.777	-7.656	0.013	0.009
-577.763	476.517	0.095	-0.214
-576.748	-77.905	0.351	-0.121
-575.733	96.768	-0.072	0.083
-574.719	53.433	-0.135	0.129
-573.704	152.270	0.014	-0.019
-572.690	67.445	-0.142	0.145
-571.675	318.810	-0.094	-0.178
-570.661	77.373	-0.113	-0.120
-569.646	-45.404	-0.190	0.094
-568.631	220.665	0.361	-0.577
-567.617	800.000	-0.069	0.220
-566.602	800.000	0.029	-0.079
-565.588	93.820	0.150	-0.170
-564.573	-136.436	-0.149	-0.017
-563.558	-118.944	-0.154	-0.027
-562.544	-200.000	0.037	-0.452
-561.529	-200.000	-0.001	-0.244
-560.515	-116.348	-0.238	-0.044
-559.500	-69.967	-0.381	-0.145
-558.485	-200.000	-0.012	-0.428
-557.471	-12.159	-0.147	-0.096
-556.456	28.941	0.176	0.149
-555.442	-200.000	0.004	0.132
-554.427	145.524	-0.153	-0.204
-553.412	800.000	0.077	-0.283
-552.398	28.802	0.136	-0.114
-551.383	-200.000	0.002	0.129
-550.369	-107.096	-0.210	0.046
-549.354	-170.218	-0.103	-0.004
-548.339	-119.899	-0.081	-0.014
-547.325	-91.355	-0.148	0.042
-546.310	43.539	-0.268	-0.244
-545.296	-79.365	0.124	0.042
-544.281	42.076	-0.099	-0.090
-543.266	-9.792	0.106	0.071
-542.252	570.199	-0.184	-0.446
-541.237	4.582	-0.056	-0.041
-540.223	-133.247	-0.169	0.021
-539.208	-89.115	-0.190	-0.056
-538.193	800.000	0.083	0.237
-537.179	393.547	0.146	0.303
-536.164	12.851	0.079	0.060
-535.150	-2.702	0.229	-0.160
-534.135	-200.000	0.012	-0.147
-533.121	-200.000	-0.009	-0.392
-532.106	47.976	-0.130	-0.120
-531.091	37.072	0.047	0.042
-530.077	-110.943	-0.384	-0.079
-529.062	-15.784	-0.046	-0.029
-528.048	-200.000	0.009	0.340
-527.033	800.000	-0.056	0.208
-526.018	-173.921	0.369	-0.011
-525.004	-200.000	0.013	-0.063
-523.989	800.000	-0.075	-0.255
-522.975	41.879	-0.121	0.109
-521.960	-200.000	-0.058	-0.380
-520.945	-112.089	0.266	-0.053
-519.931	-57.799	0.672	-0.292
-518.916	142.363	-0.081	-0.107
-517.902	-72.020	0.299	-0.110
-516.887	-20.402	-0.323	0.198
-515.872	-80.774	0.230	-0.076
-514.858	-91.746	0.144	0.041
-513.843	610.505	-0.088	-0.219
-512.829	-17.846	0.093	-0.058
-511.814	159.354	-0.194	0.268
-510.799	519.626	-0.115	0.267
-509.785	6.643	-0.045	0.033
-508.770	-53.988	0.301	0.136
-507.756	118.694	0.034	-0.042
-506.741	-102.785	-0.188	0.045
-505.726	800.000	-0.045	0.130
-504.712	-200.000	-0.006	-0.268
-503.697	-118.270	-0.241	0.043
-502.683	37.773	0.114	0.100
-501.668	-33.466	-0.160	0.088
-500.653	-200.000	0.020	-0.136
-499.639	142.426	0.113	-0.149
-498.624	61.401	-0.266	-0.262
-497.610	14.576	0.136	-0.105
-496.595	-146.736	0.446	0.038
-495.581	-171.294	0.209	0.007
-494.566	50.119	-0.152	-0.143
-493.551	-200.000	-0.025	-0.164
-492.537	800.000	-0.071	-0.236
-491.522	-29.853	0.226	0.128
-490.508	549.344	-0.043	0.103
-489.493	-23.517	0.161	0.096
-488.478	169.911	-0.264	-0.375
-487.464	800.000	-0.075	0.248
-486.449	-24.274	-0.116	0.069
-485.435	-42.851	-0.154	0.078
-484.420	-200.000	0.001	-0.009
-483.405	-123.420	-0.307	0.049
-482.391	27.143	-0.259	0.216
-481.376	-155.917	0.108	0.007
-480.362	31.286	-0.063	0.054
-479.347	-21.308	0.144	0.088
-478.332	800.000	0.023	0.085
-477.318	-200.000	-0.041	0.300
-476.303	86.237	0.187	0.205
-475.289	-200.000	0.014	-0.255
-474.274	-167.623	-0.013	-0.001
-473.259	296.125	0.250	-0.456
-472.245	-32.469	0.172	0.095
-471.230	72.154	0.105	-0.109
-470.216	88.876	-0.327	-0.361
-469.201	-35.542	-0.148	0.080
-468.186	-200.000	-0.104	0.564
-467.172	109.068	0.295	-0.351
-466.157	113.312	-0.178	-0.214
-465.143	143.034	-0.228	0.301
-464.128	785.107	0.060	-0.164
-463.113	-170.202	0.199	-0.007
-462.099	-60.501	-0.254	0.107
-461.084	-200.000	0.016	0.168
-460.070	-142.935	-0.124	0.012
-459.055	785.375	-0.029	0.079
-458.040	29.634	0.055	0.047
-457.026	800.000	-0.135	-0.433
-456.011	5.969	-0.264	-0.194
-454.997	-78.870	0.165	0.056
-453.982	-91.167	-0.460	-0.131
-452.968	-39.148	0.336	-0.175
-451.953	-200.000	-0.024	-0.126
-450.938	-142.718	-0.052	0.005
-449.924	800.000	0.044	0.128
-448.909	118.336	-0.125	-0.153
-447.895	-88.847	-0.342	0.101
-446.880	-124.626	0.250	-0.038
-445.865	-107.683	0.348	0.075
-444.851	275.648	0.072	-0.127
-443.836	-53.680	-0.228	0.103
-442.822	-200.000	-0.003	0.273
-441.807	-58.340	-0.100	-0.043
-440.792	666.037	0.117	0.299
-439.778	33.242	-0.082	0.071
-438.763	-200.000	0.019	-0.090
-437.749	-22.980	0.319	-0.191
-436.734	127.532	-0.142	-0.179
-435.719	-95.891	-0.187	0.049
-434.705	800.000	-0.032	0.090
-433.690	-200.000	-0.030	-0.183
-432.676	-136.850	-0.124	-0.014
-431.661	80.561	0.206	0.220
-430.646	-0.528	-0.187	0.131
-429.632	-133.546	0.093	0.011
-428.617	-158.523	-0.182	-0.010
-427.603	-200.000	0.012	0.272
-426.588	348.547	0.246	0.480
-425.573	-200.000	0.013	0.128
-424.559	-200.000	0.022	0.226
-423.544	-66.102	0.200	-0.079
-422.530	-108.436	-0.126	0.027
-421.515	98.567	-0.065	0.074
-420.500	66.297	-0.205	0.206
-419.486	324.184	0.114	0.216
-418.471	161.334	0.145	0.201
-417.457	-52.238	-0.429	-0.197
-416.442	1.594	0.073	0.052
-415.428	-50.672	-0.254	0.119
-414.413	436.510	0.082	0.176
-413.398	81.533	-0.170	0.182
-412.384	-99.731	0.062	-0.015
-411.369	189.801	-0.045	0.067
-410.355	-6.014	-0.148	-0.101
-409.340	85.335	0.068	0.074
-408.325	-148.520	0.152	-0.012
-407.311	372.981	0.049	-0.099
-406.296	800.000	0.061	0.192
-405.282	687.314	0.073	-0.190
-404.267	337.258	0.151	-0.291
-403.252	140.997	-0.194	0.254
-402.238	314.354	0.139	-0.259
-401.223	96.568	0.161	-0.183
-400.209	-68.961	0.075	0.029
-399.194	647.403	-0.086	0.219
-398.179	12.176	0.072	-0.055
-397.165	184.025	0.155	-0.227
-396.150	217.245	0.043	-0.067
-395.136	-43.592	-0.210	0.105
-394.121	-49.954	0.168	0.079
-393.106	140.831	0.169	0.221
-392.092	445.760	0.200	0.436
-391.077	185.465	0.063	-0.092
-390.063	800.000	-0.094	0.312
-389.048	-200.000	0.035	0.156
-388.033	255.188	-0.131	0.222
-387.019	228.413	0.184	-0.296
-386.004	-130.754	0.110	0.015
-384.990	-200.000	0.026	0.240
-383.975	-200.000	0.046	0.305
-382.960	6.262	-0.126	-0.093
-381.946	-144.145	0.111	-0.010
-380.931	19.532	0.128	-0.101
-379.917	-200.000	-0.020	-0.253
-378.902	-50.604	0.305	0.142
-377.888	-47.759	-0.279	0.134
-376.873	-113.401	-0.055	-0.011
-375.858	-49.875	0.287	-0.134
-374.844	5.701	-0.383	0.280
-373.829	245.947	0.084	-0.139
-372.815	800.000	0.072	0.260
-371.800	-137.930	-0.074	0.008
-370.785	79.839	-0.208	-0.221
-369.771	-200.000	0.018	-0.149
-368.756	78.606	0.146	-0.154
-367.742	-89.630	0.159	-0.046
-366.727	-200.000	-0.057	0.408
-365.712	800.000	0.139	0.431
-364.698	9.822	-0.523	-0.392
-363.683	-200.000	0.012	-0.107
-362.669	-54.225	-0.266	-0.119
-361.654	-82.854	0.276	-0.088
-360.639	110.803	0.143	-0.170
-359.625	-9.975	-0.184	-0.121
-358.610	-95.880	-0.233	0.061
-357.596	-177.355	0.207	-0.005
-356.581	-149.485	-0.115	0.009
-355.566	737.371	0.079	0.209
-354.552	-45.115	0.251	0.123
-353.537	-98.085	-0.067	-0.017
-352.523	42.430	0.040	0.036
-351.508	84.632	0.150	0.162
-350.493	92.586	0.272	0.303
-349.479	-200.000	0.008	0.056
-348.464	-40.714	-0.141	-0.072
-347.450	-130.377	0.293	-0.039
-346.435	149.298	0.148	-0.198
-345.420	75.692	-0.087	0.090
-344.406	574.584	0.211	0.508
-343.391	800.000	-0.097	-0.278
-342.377	-200.000	-0.031	-0.212
-341.362	-119.693	0.390	0.067
-340.348	-81.555	0.160	-0.052
-339.333	-200.000	0.067	0.468
-338.318	-119.954	-0.263	0.045
-337.304	-186.361	-0.115	-0.002
-336.289	800.000	0.100	-0.287
-335.275	266.085	-0.069	0.118
-334.260	-160.892	-0.221	-0.011
-333.245	146.950	0.109	0.145
-332.231	77.378	0.157	-0.164
-331.216	535.588	-0.131	0.307
-330.202	280.334	0.094	0.166
-329.187	-98.431	-0.423	0.107
-328.172	558.584	-0.038	-0.091
-327.158	530.664	0.068	0.158
-326.143	372.924	-0.194	0.390
-325.129	153.429	0.254	0.343
-324.114	-166.393	0.198	-0.008
-323.099	226.527	0.115	0.184
-322.085	13.332	0.127	-0.097
-321.070	-87.877	-0.192	-0.057
-320.056	218.718	0.051	-0.081
-319.041	800.000	-0.018	0.053
-318.026	-94.322	0.221	0.060
-317.012	31.941	0.240	-0.204
-315.997	704.057	-0.110	-0.286
-314.983	-32.134	-0.120	0.066
-313.968	-153.187	-0.482	0.033
-312.953	-102.760	0.201	0.047
-311.939	-165.404	-0.156	0.007
-310.924	-26.264	-0.244	-0.141
-309.910	800.000	0.081	-0.291
-308.895	-43.457	0.293	-0.146
-307.880	216.900	-0.094	-0.148
-306.866	-86.808	-0.211	-0.063
-305.851	-85.542	0.222	0.068
-304.837	442.998	-0.104	-0.225
-303.822	-62.210	0.118	-0.049
-302.807	221.853	-0.085	-0.136
-301.793	67.079	-0.286	0.288
-300.778	-73.245	-0.107	-0.039
-299.764	-90.934	0.309	0.088
-298.749	284.813	0.191	0.339
-297.735	-200.000	0.004	0.055
-296.720	609.976	0.141	0.347
-295.705	141.974	0.127	0.166
-294.691	297.063	0.129	0.233
-293.676	800.000	-0.069	0.202
-292.662	-200.000	-0.051	-0.374
-291.647	-200.000	-0.028	-0.282
-290.632	4.597	-0.243	-0.176
-289.618	-25.512	0.106	-0.062
-288.603	800.000	-0.020	-0.083
-287.589	-150.695	0.279	-0.021
-286.574	-84.647	-0.173	-0.054
-285.559	-167.252	0.304	0.012
-284.545	-28.535	-0.161	-0.092
-283.530	-150.767	0.158	0.012
-282.516	-200.000	0.029	-0.299
-281.501	-137.939	-0.005	-0.001
-280.486	-79.102	-0.141	-0.047
-279.472	-83.333	0.193	-0.061
-278.457	40.095	-0.089	0.079
-277.443	-58.511	-0.219	0.094
-276.428	50.600	0.164	-0.153
-275.413	-200.000	-0.044	-0.281
-274.399	-27.835	0.121	0.069
-273.384	633.015	0.087	0.217
-272.370	2.136	-0.114	-0.081
-271.355	-35.753	0.321	0.171
-270.340	434.433	-0.035	0.074
-269.326	-65.434	-0.314	0.124
-268.311	392.949	-0.085	0.175
-267.297	577.209	-0.131	0.316
-266.282	-103.487	-0.177	0.041
-265.267	-109.027	-0.422	0.089
-264.253	800.000	-0.011	0.039
-263.238	31.064	0.194	0.164
-262.224	-68.989	0.316	-0.120
-261.209	20.055	0.237	-0.188
-260.195	-200.000	0.015	-0.147
-259.180	-200.000	-0.030	-0.148
-258.165	800.000	0.062	0.218
-257.151	-66.535	0.036	0.014
-256.136	54.149	-0.136	0.128
-255.122	309.184	-0.096	0.177
-254.107	428.962	0.052	0.110
-253.092	555.659	-0.083	0.196
-252.078	408.872	-0.170	0.353
-251.063	287.550	0.026	0.046
-250.049	-200.000	-0.041	-0.179
-249.034	180.310	-0.222	-0.321
-248.019	800.000	0.095	-0.333
-247.005	619.395	-0.103	0.255
-245.990	-200.000	-0.017	-0.272
-244.976	-200.000	0.030	0.159
-243.961	-117.583	0.527	0.094
-242.946	-129.675	-0.183	-0.025
-241.932	53.922	-0.075	-0.070
-240.917	-49.480	-0.101	-0.047
-239.903	-200.000	0.152	0.703
-238.888	169.108	0.122	0.171
-237.873	-200.000	0.002	-0.104
-236.859	-200.000	0.002	-0.061
-235.844	46.192	-0.214	-0.195
-234.830	19.808	-0.165	0.131
-233.815	86.744	0.165	-0.179
-232.800	-200.000	0.003	0.145
-231.786	0.443	-0.490	0.344
-230.771	88.772	0.043	0.047
-229.757	300.057	0.044	0.080
-228.742	126.535	0.084	0.104
-227.727	-171.855	0.124	0.004
-226.713	-102.319	0.161	0.038
-225.698	-45.349	-0.461	-0.225
-224.684	-200.000	-0.038	-0.260
-223.669	-200.000	0.080	-0.481
-222.655	59.354	-0.191	0.185
-221.640	-200.000	0.016	-0.277
-220.625	-121.344	0.291	-0.048
-219.611	-200.000	-0.050	0.295
-218.596	800.000	-0.121	-0.403
-217.582	699.561	-0.042	-0.109
-216.567	-126.535	0.332	0.048
-215.552	-152.415	-0.250	-0.018
-214.538	330.524	0.142	0.268
-213.523	800.000	-0.143	0.388
-212.509	-50.123	-0.259	0.120
-211.494	107.017	0.103	-0.120
-210.479	666.451	-0.113	0.286
-209.465	-88.117	-0.127	0.037
-208.450	-200.000	0.299	-0.000
-207.436	84.804	0.220	-0.236
-206.421	-164.190	-0.090	0.004
-205.406	-110.892	-0.218	-0.044
-204.392	33.057	0.277	-0.236
-203.377	744.310	-0.067	0.176
-202.363	16.262	0.177	-0.137
-201.348	-53.703	0.200	-0.090
-200.333	800.000	-0.070	0.217
-199.319	756.084	0.163	0.433
-198.304	-69.727	-0.186	-0.070
-197.290	-200.000	0.035	0.241
-196.275	-104.208	0.250	-0.057
-195.260	238.272	-0.122	-0.199
-194.246	-99.169	-0.374	0.093
-193.231	-13.591	-0.232	0.147
-192.217	800.000	-0.043	-0.178
-191.202	299.262	-0.164	-0.297
-190.187	111.976	0.171	0.203
-189.173	133.669	0.139	-0.176
-188.158	-200.000	0.003	0.019
-187.144	-117.521	-0.046	-0.008
-186.129	590.770	0.060	0.144
-185.114	-65.260	0.082	0.033
-184.100	376.591	0.136	0.272
-183.085	-68.341	-0.402	-0.153
-182.071	97.499	0.087	0.098
-181.056	800.000	-0.047	-0.153
-180.042	-137.535	0.386	0.043
-179.027	-115.400	0.200	-0.037
-178.012	-119.624	0.384	-0.065
-176.998	185.112	-0.068	0.100
-175.983	-9.552	-0.229	-0.150
-174.969	103.487	-0.117	-0.135
-173.954	-154.233	0.440	0.029
-172.939	-100.489	-0.311	0.075
-171.925	800.000	0.041	-0.125
-170.910	446.755	0.090	-0.194
-169.896	39.618	-0.155	-0.136
-168.881	139.728	0.120	-0.155
-167.866	470.823	0.108	0.239
-166.852	53.635	0.125	-0.117
-165.837	244.414	0.191	0.314
-164.823	-136.323	0.324	-0.037
-163.808	181.147	0.187	-0.270
-162.793	-48.855	0.289	-0.136
-161.779	-89.859	-0.231	0.066
-160.764	-100.357	0.158	-0.038
-159.750	111.621	0.112	0.132
-158.735	137.640	0.125	0.161
-157.720	-200.000	-0.013	-0.087
-156.706	68.436	0.080	-0.081
-155.691	28.413	-0.163	-0.135
-154.677	356.849	-0.094	0.184
-153.662	-200.000	0.045	-0.217
-152.647	-60.499	0.158	-0.066
-151.633	63.396	-0.147	0.144
-150.618	-123.167	-0.095	-0.015
-149.604	-83.487	0.212	0.067
-148.589	-57.479	-0.289	-0.124
-147.574	-19.565	0.431	-0.261
-146.560	419.003	0.037	0.078
-145.545	522.949	0.132	-0.303
-144.531	800.000	-0.049	0.209
-143.516	-21.019	0.155	-0.093
-142.502	62.240	0.056	-0.054
-141.487	237.845	0.059	0.095
-140.472	468.282	-0.111	0.243
-139.458	69.457	-0.194	0.196
-138.443	235.118	0.028	0.046
-137.429	70.914	0.060	0.060
-136.414	141.532	0.100	0.129
-135.399	611.779	0.058	0.142
-134.385	105.880	-0.149	-0.172
-133.370	-13.772	0.216	0.137
-132.356	-197.377	0.240	0.001
-131.341	22.382	-0.196	0.157
-130.326	344.745	0.072	0.139
-129.312	-98.515	0.286	0.072
-128.297	342.192	0.151	0.289
-127.283	103.474	0.165	0.190
-126.268	61.694	0.090	-0.088
-125.253	-32.821	0.215	0.117
-124.239	123.477	0.106	0.130
-123.224	7.433	0.158	0.116
-122.210	-100.150	-0.366	0.089
-121.195	-200.000	-0.022	-0.229
-120.180	-16.994	-0.201	-0.124
-119.166	228.053	0.112	-0.179
-118.151	639.455	0.157	-0.391
-117.137	-200.000	-0.015	-0.330
-116.122	-89.437	0.314	-0.090
-115.107	-81.999	-0.189	0.060
-114.093	800.000	-0.032	0.123
-113.078	179.253	-0.187	0.268
-112.064	-86.679	-0.467	0.140
-111.049	-112.985	0.544	0.105
-110.034	92.905	0.028	-0.031
-109.020	-40.977	0.182	-0.092
-108.005	-123.493	-0.175	0.027
-106.991	102.168	0.145	0.166
-105.976	64.328	0.105	-0.103
-104.962	-7.088	0.110	-0.073
-103.947	-114.785	0.520	-0.097
-102.932	-25.118	-0.193	-0.112
-101.918	-22.079	-0.152	0.090
-100.903	-108.847	0.253	0.053
-99.889	185.275	0.123	0.178
-98.874	20.694	-0.243	-0.193
-97.859	800.000	0.037	0.117
-96.845	-108.007	0.210	-0.045
-95.830	-77.646	0.224	-0.076
-94.816	800.000	0.104	-0.312
-93.801	123.106	0.174	-0.213
-92.786	53.519	0.127	-0.119
-91.772	29.401	0.188	0.156
-90.757	99.909	0.050	0.057
-89.743	250.660	-0.098	-0.163
-88.728	-66.611	0.131	0.051
-87.713	-200.000	0.059	-0.279
-86.699	-8.362	-0.116	-0.076
-85.684	127.185	-0.110	0.137
-84.670	-200.000	-0.012	-0.083
-83.655	500.309	0.129	-0.291
-82.640	-40.096	-0.241	-0.123
-81.626	-200.000	0.012	0.228
-80.611	21.671	0.278	-0.221
-79.597	-162.893	0.096	0.005
-78.582	-96.124	0.180	0.047
-77.567	-200.000	-0.001	-0.151
-76.553	-6.220	-0.136	-0.091
-75.538	-58.419	0.635	0.270
-74.524	23.480	-0.083	0.067
-73.509	18.441	0.111	0.087
-72.494	-200.000	-0.003	-0.189
-71.480	800.000	-0.057	0.242
-70.465	-110.048	0.163	-0.033
-69.451	-39.255	0.260	-0.133
-68.436	-37.699	0.119	0.062
-67.422	780.139	-0.076	-0.203
-66.407	-88.564	-0.112	0.033
-65.392	-131.848	-0.447	-0.057
-64.378	-33.492	0.295	-0.159
-63.363	-90.637	-0.206	-0.058
-62.349	120.577	0.339	0.411
-61.334	39.737	-1.321	-1.157
-60.319	93.683	0.821	0.908
-59.305	394.989	-0.754	-1.536
-58.290	178.711	1.120	1.598
-57.276	800.000	0.554	1.775
-56.261	-200.000	134.685	687.972
-55.246	349.556	1668.150	3216.934
-54.232	132.210	2812.728	3537.998
-53.217	82.950	2343.045	2488.003
-52.203	28.236	2077.483	1712.867
-51.188	23.477	1993.770	1600.927
-50.173	22.465	1978.883	1579.845
-49.159	41.272	2056.541	1815.178
-48.144	38.874	2067.054	1802.388
-47.130	23.940	2018.439	1624.713
-46.115	21.780	2007.106	1595.882
-45.100	21.746	2004.208	1593.211
-44.086	21.660	2001.589	1590.283
-43.071	21.710	1999.227	1588.798
-42.057	21.598	1997.066	1586.002
-41.042	21.681	1994.861	1584.937
-40.027	21.668	1993.786	1583.906
-39.013	21.671	1991.534	1582.082
-37.998	21.733	1989.789	1581.189
-36.984	21.678	1988.307	1579.456
-35.969	21.674	1985.950	1577.481
-34.954	21.789	1984.164	1577.033
-33.940	21.773	1983.245	1576.096
-32.925	21.772	1981.742	1574.829
-31.911	21.829	1979.650	1573.623
-30.896	21.787	1978.308	1572.111
-29.881	21.849	1976.844	1571.444
-28.867	21.782	1975.306	1569.558
-27.852	21.838	1973.680	1568.708
-26.838	21.740	1971.839	1566.300
-25.823	21.850	1969.819	1565.622
-24.809	21.793	1968.355	1563.886
-23.794	21.825	1966.556	1562.682
-22.779	21.766	1965.268	1561.070
-21.765	21.859	1963.067	1560.081
-20.750	21.809	1962.020	1558.749
-19.736	21.752	1960.880	1557.269
-18.721	21.808	1958.405	1555.741
-17.706	21.762	1957.207	1554.318
-16.692	21.798	1955.068	1552.879
-15.677	21.804	1953.469	1551.601
-14.663	21.764	1952.049	1550.055
-13.648	21.708	1951.087	1548.733
-12.633	21.679	1950.186	1547.699
-11.619	21.764	1948.392	1546.967
-10.604	21.742	1947.128	1545.709
-9.590	21.812	1945.439	1544.921
-8.575	21.758	1944.583	1543.704
-7.560	21.734	1943.381	1542.476
-6.546	21.756	1942.223	1541.696
-5.531	21.800	1940.419	1540.587
-4.517	21.714	1939.709	1539.209
-3.502	21.739	1937.974	1537.992
-2.487	21.679	1937.240	1536.814
-1.473	21.801	1935.714	1536.615
-0.458	21.757	1930.694	1532.183
0.556	20.400	1910.192	1501.986
1.571	16.086	1890.437	1449.313
2.586	12.094	1913.969	1432.418
3.600	11.261	1948.405	1450.648
4.615	11.377	1941.553	1446.451
5.629	9.046	1842.543	1352.937
6.644	3.830	1732.160	1230.345
7.659	0.993	1700.189	1185.351
8.673	0.850	1697.362	1182.153
9.688	0.722	1696.957	1180.770
10.702	0.667	1695.918	1179.510
11.717	0.602	1691.127	1175.570
12.731	0.960	1689.934	1177.425
13.746	5.137	1698.666	1215.999
14.761	12.035	1712.326	1279.683
15.775	16.365	1720.776	1319.787
16.790	17.144	1721.113	1326.018
17.804	16.325	1718.070	1317.167
18.819	15.363	1714.503	1306.827
19.834	14.778	1712.164	1300.377
20.848	14.565	1710.144	1297.068
21.863	14.316	1709.006	1294.156
22.877	14.114	1707.508	1291.342
23.892	13.851	1705.973	1288.029
24.907	13.679	1704.989	1285.837
25.921	13.770	1703.299	1285.149
26.936	13.741	1702.617	1284.299
27.950	13.744	1701.676	1283.495
28.965	13.801	1701.683	1283.833
29.980	13.886	1700.223	1283.269
30.994	13.898	1699.370	1282.612
32.009	13.835	1698.551	1281.392
33.023	13.921	1698.011	1281.534
34.038	14.038	1696.804	1281.414
35.053	13.942	1695.877	1279.859
36.067	13.822	1694.883	1278.068
37.082	13.902	1693.413	1277.462
38.096	13.849	1692.374	1276.163
39.111	13.892	1691.643	1275.826
40.126	13.957	1690.684	1275.489
41.140	13.934	1689.741	1274.490
42.155	13.819	1688.812	1272.795
43.169	13.799	1686.950	1271.123
44.184	13.837	1685.282	1270.044
45.199	13.741	1684.771	1268.812
46.213	13.757	1683.419	1267.807
47.228	13.781	1682.234	1266.984
48.242	13.782	1681.311	1266.183
49.257	13.855	1679.994	1265.638
50.271	13.809	1678.777	1264.255
51.286	13.822	1677.322	1263.148
52.301	13.880	1675.750	1262.295
53.315	13.788	1674.782	1260.758
54.330	13.756	1673.222	1259.225
55.344	13.735	1671.615	1257.749
56.359	13.782	1669.755	1256.595
57.374	13.784	1669.376	1256.210
58.388	13.733	1667.623	1254.397
59.403	13.771	1666.527	1253.745
60.417	13.734	1665.344	1252.462
61.432	13.743	1664.303	1251.638
62.447	13.752	1662.641	1250.346
63.461	13.710	1661.657	1249.183
64.476	13.645	1660.740	1247.893
65.490	13.645	1659.394	1246.766
66.505	13.629	1658.435	1245.821
67.520	13.594	1656.983	1244.350
68.534	13.714	1655.882	1244.319
69.549	13.707	1654.861	1243.388
70.563	13.634	1653.694	1241.851
71.578	13.668	1652.505	1241.103
72.593	13.686	1651.114	1240.085
73.607	13.636	1650.204	1238.920
74.622	13.582	1649.420	1237.818
75.636	13.653	1647.846	1237.056
76.651	13.585	1647.073	1235.862
77.666	13.677	1645.675	1235.385
78.680	13.613	1645.074	1234.347
79.695	13.608	1644.386	1233.684
80.709	13.670	1643.177	1233.133
81.724	13.656	1642.921	1232.725
82.739	13.708	1641.726	1232.109
83.753	13.786	1640.246	1231.465
84.768	13.783	1639.210	1230.556
85.782	13.796	1638.513	1230.023
86.797	13.791	1638.202	1229.641
87.812	13.841	1636.820	1228.866
88.826	13.772	1635.663	1227.377
89.841	13.807	1634.300	1226.502
90.855	13.817	1633.300	1225.723
91.870	13.803	1632.088	1224.600
92.884	13.794	1631.202	1223.761
93.899	13.863	1630.278	1223.468
94.914	13.878	1628.552	1222.172
95.928	13.866	1627.977	1221.548
96.943	13.986	1625.926	1220.780
97.957	13.913	1624.629	1219.164
98.972	13.845	1622.922	1217.277
99.987	13.812	1621.447	1215.819
101.001	13.857	1620.222	1215.121
102.016	13.799	1618.913	1213.610
103.030	13.765	1617.465	1212.169
104.045	13.915	1616.097	1212.131
105.060	13.847	1615.234	1210.880
106.074	13.788	1613.638	1209.147
107.089	13.859	1611.977	1208.314
108.103	13.707	1610.267	1205.819
109.118	13.717	1609.337	1205.089
110.133	13.748	1607.847	1204.089
111.147	13.834	1605.533	1202.872
112.162	13.717	1604.981	1201.509
113.176	13.796	1603.344	1200.746
114.191	13.764	1602.275	1199.612
115.206	13.795	1600.560	1198.442
116.220	13.780	1599.048	1197.095
117.235	13.754	1597.545	1195.676
118.249	13.816	1596.131	1194.960
119.264	13.685	1595.851	1193.700
120.279	13.751	1593.597	1192.381
121.293	13.732	1592.008	1190.950
122.308	13.791	1590.223	1189.938
123.322	13.773	1588.810	1188.647
124.337	13.848	1587.159	1187.839
125.352	13.823	1586.307	1186.919
126.366	13.749	1585.489	1185.670
127.381	13.796	1583.669	1184.539
128.395	13.650	1583.056	1182.936
129.410	13.678	1582.148	1182.353
130.424	13.786	1580.295	1181.637
131.439	13.809	1578.553	1180.387
132.454	13.791	1577.483	1179.356
133.468	13.850	1575.501	1178.191
134.483	13.854	1574.358	1177.259
135.497	13.803	1572.967	1175.755
136.512	13.783	1571.840	1174.667
137.527	13.751	1570.852	1173.599
138.541	13.801	1569.206	1172.616
139.556	13.838	1568.110	1171.953
140.570	13.817	1566.657	1170.616
141.585	13.871	1565.544	1170.062
142.600	13.919	1563.814	1169.002
143.614	13.994	1562.384	1168.362
144.629	14.022	1561.082	1167.480
145.643	14.114	1559.531	1166.862
146.658	14.098	1558.445	1165.838
147.673	13.983	1556.829	1163.718
148.687	13.859	1555.773	1161.958
149.702	14.023	1553.895	1161.597
150.716	13.985	1552.186	1159.953
151.731	13.979	1551.152	1159.035
152.746	13.989	1549.735	1157.941
153.760	13.963	1548.221	1156.527
154.775	13.887	1547.565	1155.407
155.789	14.007	1545.681	1154.733
156.804	14.067	1544.457	1154.131
157.819	14.086	1543.040	1153.105
158.833	14.073	1541.833	1152.006
159.848	14.098	1541.199	1151.607
160.862	14.240	1539.177	1150.975
161.877	14.243	1537.836	1149.890
162.892	14.182	1536.697	1148.520
163.906	14.118	1535.676	1147.208
164.921	14.014	1534.542	1145.546
165.935	14.085	1533.464	1145.128
166.950	14.057	1532.891	1144.407
167.964	14.163	1531.392	1143.915
168.979	14.175	1530.043	1142.891
169.994	14.228	1528.967	1142.345
171.008	14.208	1527.776	1141.221
172.023	14.167	1526.928	1140.207
173.037	14.110	1526.178	1139.152
174.052	14.279	1524.627	1139.052
175.067	14.231	1523.713	1137.938
176.081	14.221	1522.389	1136.782
177.096	14.187	1520.897	1135.335
178.110	14.243	1519.646	1134.681
179.125	14.251	1518.436	1133.729
180.140	14.229	1517.889	1133.072
181.154	14.244	1516.603	1132.117
182.169	14.372	1515.213	1131.848
183.183	14.250	1513.993	1130.008
184.198	14.341	1512.816	1129.646
185.213	14.353	1512.027	1129.039
186.227	14.435	1510.287	1128.191
187.242	14.446	1509.824	1127.821
188.256	14.430	1508.969	1126.978
189.271	14.475	1507.396	1126.004
190.286	14.442	1506.720	1125.183
191.300	14.304	1505.671	1123.368
192.315	14.308	1504.156	1122.160
193.329	14.337	1502.745	1121.204
194.344	14.338	1502.015	1120.570
195.359	14.275	1501.012	1119.298
196.373	14.348	1499.834	1118.814
197.388	14.390	1498.812	1118.228
198.402	14.487	1497.569	1117.854
199.417	14.473	1496.459	1116.837
200.432	14.595	1494.924	1116.403
201.446	14.670	1493.877	1116.028
202.461	14.697	1492.701	1115.227
203.475	14.660	1491.713	1114.146
204.490	14.720	1490.796	1113.763
205.504	14.738	1490.126	1113.286
206.519	14.648	1488.415	1111.307
207.534	14.746	1487.264	1111.004
208.548	14.739	1486.075	1109.969
209.563	14.621	1485.353	1108.545
210.577	14.664	1484.142	1107.831
211.592	14.774	1483.162	1107.728
212.607	14.761	1482.189	1106.823
213.621	14.744	1482.227	1106.636
214.636	14.758	1481.117	1105.806
215.650	14.787	1479.923	1105.004
216.665	14.782	1478.652	1103.927
217.680	14.807	1478.078	1103.564
218.694	14.876	1477.322	1103.356
219.709	14.926	1476.457	1102.946
220.723	14.792	1475.619	1101.341
221.738	14.820	1474.941	1100.915
222.753	14.812	1474.110	1100.146
223.767	14.833	1472.911	1099.293
224.782	14.949	1471.558	1098.949
225.796	14.954	1470.546	1098.132
226.811	14.957	1469.828	1097.513
227.826	15.074	1468.880	1097.475
228.840	14.948	1468.302	1096.124
229.855	15.000	1467.078	1095.452
230.869	15.007	1466.163	1094.720
231.884	15.038	1464.901	1093.884
232.899	15.002	1464.130	1092.974
233.913	14.900	1463.153	1091.480
234.928	15.002	1461.705	1090.970
235.942	14.956	1460.504	1089.681
236.957	15.036	1459.090	1089.047
237.972	14.948	1458.233	1087.742
238.986	14.992	1457.019	1087.023
240.001	14.944	1456.595	1086.296
241.015	15.044	1454.988	1085.652
242.030	14.992	1454.191	1084.624
243.045	15.086	1452.649	1083.991
244.059	15.083	1451.944	1083.346
245.074	15.146	1451.087	1083.020
246.088	15.109	1450.585	1082.311
247.103	15.157	1449.791	1081.931
248.117	15.199	1448.729	1081.311
249.132	15.153	1448.382	1080.665
250.147	15.357	1447.150	1080.964
251.161	15.302	1446.854	1080.290
252.176	15.309	1446.232	1079.773
253.190	15.447	1444.907	1079.579
254.205	15.452	1444.266	1079.034
255.220	15.448	1443.130	1078.070
256.234	15.502	1442.426	1077.795
257.249	15.494	1441.769	1077.158
258.263	15.464	1441.050	1076.330
259.278	15.525	1439.491	1075.461
260.293	15.562	1438.468	1074.836
261.307	15.511	1438.133	1074.168
262.322	15.564	1437.604	1074.016
263.336	15.561	1436.359	1072.972
264.351	15.679	1435.302	1072.838
265.366	15.617	1434.470	1071.724
266.380	15.665	1433.400	1071.139
267.395	15.716	1431.998	1070.318
268.409	15.685	1431.804	1069.887
269.424	15.750	1430.437	1069.180
270.439	15.679	1429.515	1067.947
271.453	15.605	1429.113	1067.084
272.468	15.667	1427.577	1066.232
273.482	15.731	1426.918	1066.055
274.497	15.574	1426.201	1064.425
275.512	15.712	1424.926	1064.255
276.526	15.713	1424.146	1063.584
277.541	15.786	1423.099	1063.171
278.555	15.756	1421.829	1061.939
279.570	15.747	1421.205	1061.320
280.585	15.742	1420.707	1060.825
281.599	15.905	1419.469	1060.832
282.614	15.998	1418.440	1060.554
283.628	15.794	1417.672	1058.605
284.643	15.837	1416.747	1058.087
285.657	15.819	1415.665	1057.074
286.672	15.834	1414.673	1056.332
287.687	15.890	1413.153	1055.458
288.701	15.905	1412.221	1054.764
289.716	15.890	1411.711	1054.193
290.730	15.885	1411.224	1053.707
291.745	16.030	1409.725	1053.399
292.760	15.927	1408.832	1051.994
293.774	16.012	1407.803	1051.663
294.789	15.991	1406.652	1050.582
295.803	16.042	1406.037	1050.344
296.818	16.053	1405.088	1049.611
297.833	16.034	1404.399	1048.889
298.847	16.053	1402.811	1047.727
299.862	16.025	1402.551	1047.265
300.876	15.964	1401.800	1046.231
301.891	16.058	1400.173	1045.507
302.906	16.181	1399.437	1045.633
303.920	16.090	1399.203	1044.795
304.935	16.201	1398.125	1044.589
305.949	16.189	1397.488	1043.944
306.964	16.260	1396.205	1043.334
307.979	16.249	1395.280	1042.485
308.993	16.269	1394.699	1042.080
310.008	16.406	1393.526	1041.954
311.022	16.239	1392.816	1040.305
312.037	16.329	1391.367	1039.681
313.052	16.300	1390.789	1038.982
314.066	16.314	1389.543	1038.045
315.081	16.199	1388.869	1036.741
316.095	16.321	1387.249	1036.190
317.110	16.211	1386.853	1035.130
318.125	16.279	1385.706	1034.600
319.139	16.299	1384.392	1033.649
320.154	16.361	1383.105	1032.975
321.168	16.240	1382.621	1031.783
322.183	16.392	1381.145	1031.519
323.197	16.396	1379.916	1030.531
324.212	16.304	1379.359	1029.466
325.227	16.476	1378.493	1029.771
326.241	16.396	1378.129	1028.927
327.256	16.343	1377.239	1027.844
328.270	16.461	1376.037	1027.578
329.285	16.350	1375.414	1026.342
330.300	16.407	1374.674	1026.048
331.314	16.406	1373.585	1025.135
332.329	16.416	1372.599	1024.372
333.343	16.508	1371.649	1024.132
334.358	16.491	1371.139	1023.557
335.373	16.541	1369.795	1022.766
336.387	16.575	1368.942	1022.243
337.402	16.576	1368.230	1021.626
338.416	16.681	1367.601	1021.699
339.431	16.574	1367.519	1020.905
340.446	16.696	1366.363	1020.685
341.460	16.730	1364.820	1019.646
342.475	16.703	1364.410	1019.085
343.489	16.764	1363.347	1018.569
344.504	16.774	1362.386	1017.824
345.519	16.708	1361.405	1016.599
346.533	16.869	1360.339	1016.681
347.548	16.829	1359.910	1016.032
348.562	16.847	1358.785	1015.211
349.577	16.821	1358.449	1014.715
350.592	16.868	1357.592	1014.266
351.606	16.806	1356.614	1013.071
352.621	16.901	1355.206	1012.501
353.635	16.767	1354.782	1011.294
354.650	16.787	1353.845	1010.623
355.665	16.865	1352.563	1010.044
356.679	16.916	1351.058	1009.130
357.694	16.892	1350.129	1008.205
358.708	16.974	1349.018	1007.777
359.723	16.950	1348.010	1006.788
360.738	16.950	1346.904	1005.877
361.752	16.928	1345.907	1004.911
362.767	17.067	1344.654	1004.711
363.781	17.042	1343.692	1003.752
364.796	16.950	1343.237	1002.784
365.810	17.054	1342.331	1002.629
366.825	17.083	1341.560	1002.134
367.840	17.141	1340.786	1001.810
368.854	17.051	1340.558	1001.024
369.869	17.139	1339.891	1000.956
370.883	17.018	1339.434	999.812
371.898	17.124	1338.267	999.476
372.913	17.304	1337.013	999.511
373.927	17.138	1336.329	997.936
374.942	17.156	1335.736	997.509
375.956	17.172	1335.315	997.201
376.971	17.233	1334.421	996.799
377.986	17.296	1333.531	996.416
379.000	17.371	1332.134	995.726
380.015	17.283	1331.701	994.797
381.029	17.308	1331.109	994.416
382.044	17.378	1330.181	994.042
383.059	17.402	1329.493	993.578
384.073	17.438	1328.900	993.258
385.088	17.453	1328.129	992.680
386.102	17.441	1327.983	992.415
387.117	17.494	1326.833	991.777
388.132	17.489	1325.895	990.957
389.146	17.366	1325.431	989.810
390.161	17.419	1324.531	989.359
391.175	17.473	1323.491	988.809
392.190	17.457	1322.686	988.027
393.205	17.390	1322.283	987.249
394.219	17.583	1321.006	987.324
395.234	17.582	1319.660	986.226
396.248	17.552	1318.340	984.981
397.263	17.605	1316.627	983.921
398.278	17.456	1315.550	982.166
399.292	17.630	1313.941	981.882
400.307	17.582	1313.631	981.288
401.321	17.479	1312.988	980.124
402.336	17.507	1311.644	979.196
403.350	17.609	1310.700	978.995
404.365	17.674	1309.498	978.379
405.380	17.494	1308.639	976.621
406.394	17.611	1307.792	976.572
407.409	17.610	1307.277	976.096
408.423	17.706	1306.642	976.082
409.438	17.723	1306.097	975.686
410.453	17.739	1305.227	975.044
411.467	17.782	1304.605	974.740
412.482	17.782	1303.845	974.083
413.496	17.913	1302.689	973.879
414.511	17.838	1302.256	973.043
415.526	17.888	1301.387	972.593
416.540	17.969	1300.721	972.470
417.555	18.005	1299.794	971.895
418.569	17.970	1299.374	971.296
419.584	17.914	1298.904	970.541
420.599	17.866	1298.426	969.824
421.613	101.963	1362.174	1491.046
422.628	100.095	1371.398	1491.105
