DTS Sentinel unit serial number:	SN413079Multiplexer serial number:	ORYXHardware model number:	OX4-SRSoftware version number:	ORYX F/W v4.00 Oryx Data Collector v3.7.2.0data status	okinstallation	princeton_trtdifferential loss correction	single-endedforward channel	channel 4reverse channel	N/Adate	2019/09/15time	21:01:34forward acquisition time	60.00reverse acquisition time	0.00gamma	496.2192k internal	0.2317k external	0.2317temperature offset calibration	0.9936default loss term (dB/km)	0.3790temperature slope calibration	1.0000multiplexer offset coefficient	1.0000multiplexer slope coefficient	1.0000fibre end	0.00T internal ref (°C)	31.77T ext. ref 1 (°C)	8.06T ext. ref 2 (°C)	24.36length (m)	temperature (°C)	Stokes	anti-Stokes-747.200	272.869	0.079	-0.141
-746.185	-79.985	-0.127	0.043
-745.171	-131.815	-0.182	-0.024
-744.156	-77.227	-0.140	0.049
-743.142	-200.000	-0.031	0.360
-742.127	-60.573	-0.125	0.054
-741.112	-200.000	-0.004	-0.036
-740.098	-200.000	-0.025	0.303
-739.083	-7.434	-0.223	0.153
-738.069	-53.410	-0.251	-0.116
-737.054	-137.652	0.132	0.015
-736.039	-200.000	-0.000	0.040
-735.025	-133.914	0.191	0.024
-734.010	36.446	0.044	-0.039
-732.996	-68.402	-0.123	0.048
-731.981	-59.338	0.029	-0.012
-730.966	-142.553	-0.233	0.023
-729.952	-89.283	-0.371	-0.111
-728.937	-20.968	0.190	-0.117
-727.923	-27.711	-0.284	-0.167
-726.908	800.000	-0.021	-0.088
-725.894	-133.974	-0.473	0.059
-724.879	48.564	0.106	-0.101
-723.864	258.276	-0.025	-0.044
-722.850	-42.200	0.179	0.092
-721.835	-159.732	0.189	-0.011
-720.821	72.674	0.010	-0.011
-719.806	-96.328	0.289	-0.078
-718.791	157.871	-0.072	-0.100
-717.777	34.978	0.312	-0.276
-716.762	135.284	-0.157	-0.206
-715.748	593.045	0.106	-0.264
-714.733	-200.000	-0.001	0.139
-713.718	-200.000	-0.015	0.077
-712.704	282.203	0.151	0.273
-711.689	-4.293	-0.018	0.012
-710.675	590.347	-0.182	0.453
-709.660	177.951	0.011	-0.017
-708.645	-89.346	-0.310	-0.092
-707.631	-109.751	0.078	-0.017
-706.616	-71.166	-0.049	0.018
-705.602	-75.618	-0.409	-0.147
-704.587	-106.294	-0.242	0.055
-703.572	-200.000	0.030	-0.484
-702.558	159.477	0.083	0.117
-701.543	783.557	0.057	0.158
-700.529	-170.394	-0.217	0.008
-699.514	800.000	0.058	-0.223
-698.499	-40.292	-0.173	-0.091
-697.485	-13.370	0.232	0.152
-696.470	237.586	0.099	-0.166
-695.456	800.000	0.112	-0.342
-694.441	800.000	0.089	0.347
-693.426	800.000	-0.075	0.231
-692.412	-89.946	-0.069	0.020
-691.397	210.704	-0.051	0.080
-690.383	67.592	0.390	-0.402
-689.368	-71.384	-0.269	0.102
-688.354	800.000	0.101	-0.338
-687.339	392.050	0.160	-0.336
-686.324	-84.826	-0.242	-0.077
-685.310	193.790	0.157	0.241
-684.295	-22.784	-0.276	-0.168
-683.281	-200.000	-0.047	0.216
-682.266	-32.827	0.272	0.153
-681.251	-3.284	-0.172	0.121
-680.237	72.558	0.215	0.226
-679.222	406.396	-0.052	0.110
-678.208	-33.483	0.105	-0.058
-677.193	29.879	-0.221	-0.190
-676.178	44.657	0.098	-0.091
-675.164	6.924	-0.210	0.158
-674.149	83.258	0.066	0.073
-673.135	185.020	0.029	0.044
-672.120	-200.000	0.003	-0.082
-671.105	-103.315	-0.400	-0.095
-670.091	800.000	-0.069	-0.249
-669.076	173.966	-0.148	0.216
-668.062	-200.000	0.035	0.225
-667.047	-200.000	0.021	-0.223
-666.032	-200.000	-0.007	-0.232
-665.018	4.926	0.088	0.065
-664.003	-200.000	0.012	-0.163
-662.989	-37.059	0.177	0.096
-661.974	-159.231	-0.200	0.011
-660.959	-200.000	-0.005	0.099
-659.945	-142.962	0.194	0.019
-658.930	-200.000	-0.002	0.134
-657.916	197.508	0.233	-0.359
-656.901	172.458	-0.168	-0.243
-655.886	521.206	-0.114	-0.271
-654.872	-200.000	-0.030	-0.222
-653.857	-84.559	0.354	0.113
-652.843	-200.000	0.013	0.233
-651.828	-125.057	-0.228	-0.035
-650.814	-200.000	0.000	-0.234
-649.799	174.495	-0.121	0.176
-648.784	-19.688	-0.298	0.186
-647.770	35.361	0.096	0.085
-646.755	-27.726	-0.100	0.059
-645.741	-103.374	0.097	-0.023
-644.726	263.061	0.083	-0.145
-643.711	800.000	-0.053	0.185
-642.697	-25.938	0.275	0.163
-641.682	-171.928	0.256	0.008
-640.668	15.735	-0.169	-0.134
-639.653	482.981	-0.179	-0.411
-638.638	384.730	0.048	-0.099
-637.624	16.126	0.171	-0.136
-636.609	800.000	0.064	-0.271
-635.595	-3.553	-0.233	0.163
-634.580	171.068	-0.071	0.102
-633.565	101.515	0.127	0.149
-632.551	630.643	0.183	-0.467
-631.536	45.548	-0.173	0.161
-630.522	35.848	0.257	-0.228
-629.507	133.648	-0.131	-0.170
-628.492	-200.000	-0.049	0.495
-627.478	-51.591	-0.451	-0.212
-626.463	-131.280	0.071	-0.009
-625.449	53.732	0.244	-0.236
-624.434	104.848	-0.023	-0.027
-623.419	800.000	0.112	0.445
-622.405	-96.740	0.219	0.058
-621.390	-26.681	-0.194	-0.115
-620.376	25.316	-0.087	-0.073
-619.361	170.590	-0.038	-0.054
-618.346	-200.000	-0.007	-0.271
-617.332	291.422	-0.125	-0.229
-616.317	433.707	0.165	0.362
-615.303	-50.065	-0.428	0.204
-614.288	-99.057	-0.035	0.009
-613.273	32.291	-0.112	-0.097
-612.259	800.000	0.033	-0.118
-611.244	-31.882	0.357	-0.202
-610.230	196.468	-0.032	-0.050
-609.215	217.435	-0.086	-0.138
-608.201	-58.640	-0.254	0.111
-607.186	-163.248	-0.308	-0.015
-606.171	87.073	-0.075	0.083
-605.157	-167.521	-0.108	-0.004
-604.142	-190.293	-0.067	0.001
-603.128	-59.147	0.202	0.088
-602.113	-99.284	-0.027	-0.007
-601.098	-103.633	-0.128	-0.030
-600.084	158.280	-0.087	0.122
-599.069	800.000	-0.067	-0.287
-598.055	378.604	0.042	-0.087
-597.040	47.526	-0.050	0.047
-596.025	-200.000	0.007	0.182
-595.011	-131.421	0.223	-0.030
-593.996	-200.000	0.006	0.227
-592.982	-149.856	-0.127	-0.010
-591.967	238.967	0.214	0.358
-590.952	28.647	-0.163	-0.139
-589.938	43.958	0.103	0.095
-588.923	-4.519	-0.479	0.333
-587.909	-151.517	0.082	-0.006
-586.894	-200.000	0.043	-0.199
-585.879	-86.232	0.292	-0.091
-584.865	163.909	-0.088	0.125
-583.850	-25.945	-0.081	0.048
-582.836	-18.831	0.175	0.110
-581.821	618.804	-0.100	0.254
-580.806	-149.790	0.080	0.006
-579.792	5.770	-0.259	-0.193
-578.777	-200.000	-0.004	-0.060
-577.763	-148.755	-0.358	-0.029
-576.748	-200.000	-0.071	-0.384
-575.733	41.625	-0.053	0.049
-574.719	-200.000	-0.013	-0.079
-573.704	47.781	-0.126	-0.118
-572.690	27.821	0.131	0.111
-571.675	-200.000	-0.036	0.228
-570.661	-5.274	0.085	-0.058
-569.646	191.375	0.166	-0.251
-568.631	366.405	-0.035	0.072
-567.617	10.293	0.069	-0.053
-566.602	-96.455	-0.259	-0.069
-565.588	-83.218	-0.256	0.083
-564.573	-200.000	0.022	0.183
-563.558	-76.197	-0.276	0.098
-562.544	90.669	0.166	0.187
-561.529	193.267	0.041	0.062
-560.515	-200.000	-0.001	0.055
-559.500	-107.860	-0.189	0.041
-558.485	-146.271	0.180	-0.016
-557.471	-7.369	-0.186	-0.126
-556.456	230.246	-0.130	0.213
-555.442	-175.104	0.234	0.007
-554.427	-123.027	0.134	-0.022
-553.412	-51.601	0.400	-0.187
-552.398	-200.000	-0.024	0.275
-551.383	-7.232	-0.193	-0.131
-550.369	18.222	-0.057	0.046
-549.354	-143.872	-0.196	-0.019
-548.339	-11.333	-0.225	-0.149
-547.325	22.486	0.156	-0.128
-546.310	-58.767	0.116	0.051
-545.296	-145.879	-0.347	0.031
-544.281	-165.351	0.150	0.007
-543.266	201.467	0.021	0.032
-542.252	800.000	-0.126	-0.350
-541.237	189.396	-0.122	0.184
-540.223	-10.887	-0.159	-0.106
-539.208	15.675	0.173	0.136
-538.193	-200.000	0.079	0.401
-537.179	-163.398	0.458	-0.022
-536.164	-97.716	0.382	-0.099
-535.150	-131.281	-0.472	-0.063
-534.135	-200.000	-0.026	0.169
-533.121	681.322	-0.070	0.182
-532.106	-102.200	-0.110	-0.027
-531.091	113.200	0.204	-0.248
-530.077	13.143	-0.055	-0.043
-529.062	83.906	0.017	0.019
-528.048	-200.000	-0.033	0.147
-527.033	4.793	-0.089	0.066
-526.018	534.404	0.124	0.295
-525.004	-200.000	-0.016	0.131
-523.989	-108.415	0.388	0.084
-522.975	115.332	0.162	-0.199
-521.960	0.415	0.153	0.110
-520.945	194.965	-0.154	-0.235
-519.931	-41.114	0.258	0.134
-518.916	-44.150	-0.184	-0.093
-517.902	-200.000	0.013	-0.297
-516.887	-71.409	-0.409	0.154
-515.872	649.779	-0.018	-0.047
-514.858	-41.510	0.225	-0.116
-513.843	514.464	0.139	-0.325
-512.829	-200.000	-0.012	-0.106
-511.814	800.000	0.023	0.090
-510.799	648.339	-0.120	-0.307
-509.785	-133.104	-0.240	0.030
-508.770	-58.716	-0.209	0.091
-507.756	800.000	0.054	0.179
-506.741	-200.000	0.032	0.170
-505.726	-200.000	0.002	0.028
-504.712	-197.495	-0.309	0.002
-503.697	189.257	-0.080	0.120
-502.683	337.549	0.053	0.103
-501.668	-200.000	-0.011	-0.185
-500.653	-125.673	-0.105	-0.016
-499.639	-57.971	0.068	0.030
-498.624	-93.043	-0.317	-0.089
-497.610	-200.000	-0.035	0.180
-496.595	800.000	-0.005	0.019
-495.581	-107.724	0.008	-0.002
-494.566	-9.908	0.176	0.118
-493.551	-148.700	0.230	-0.019
-492.537	-96.793	0.195	0.051
-491.522	43.580	0.068	-0.062
-490.508	-92.760	-0.148	-0.042
-489.493	800.000	-0.036	-0.129
-488.478	289.359	-0.123	-0.223
-487.464	-106.314	-0.268	0.060
-486.449	-185.671	-0.186	0.003
-485.435	800.000	0.054	0.233
-484.420	-46.137	0.056	-0.028
-483.405	-200.000	-0.015	0.099
-482.391	-86.944	0.310	0.095
-481.376	-112.550	-0.217	-0.043
-480.362	1.945	-0.296	-0.214
-479.347	-128.096	-0.077	-0.011
-478.332	800.000	-0.089	0.277
-477.318	800.000	0.102	-0.338
-476.303	207.358	0.112	0.175
-475.289	-140.247	0.283	-0.030
-474.274	440.383	0.074	-0.161
-473.259	800.000	0.093	0.296
-472.245	-71.959	0.229	-0.085
-471.230	234.360	-0.059	-0.098
-470.216	-25.203	-0.231	-0.137
-469.201	18.853	0.152	-0.122
-468.186	60.693	0.139	-0.138
-467.172	149.990	-0.124	-0.168
-466.157	-200.000	0.016	0.385
-465.143	37.698	-0.189	-0.168
-464.128	32.560	-0.125	0.108
-463.113	559.327	-0.087	0.211
-462.099	-200.000	0.013	-0.085
-461.084	7.896	-0.222	-0.167
-460.070	-200.000	0.047	-0.416
-459.055	800.000	0.023	0.066
-458.040	-53.174	0.338	0.155
-457.026	-126.218	0.116	0.017
-456.011	115.985	0.134	0.164
-454.997	-128.578	0.199	-0.028
-453.982	-200.000	-0.029	0.196
-452.968	-83.331	0.202	-0.065
-451.953	244.341	-0.095	-0.160
-450.938	756.364	0.030	0.082
-449.924	800.000	0.034	0.107
-448.909	651.657	0.080	0.205
-447.895	-200.000	-0.049	0.485
-446.880	-9.600	0.028	0.019
-445.865	27.381	-0.085	0.071
-444.851	519.762	0.002	-0.005
-443.836	330.402	-0.071	-0.137
-442.822	130.143	0.176	0.225
-441.807	-106.242	0.059	-0.013
-440.792	-50.186	0.232	-0.110
-439.778	800.000	-0.132	0.426
-438.763	420.715	-0.070	-0.150
-437.749	130.045	0.135	0.173
-436.734	-92.388	-0.379	-0.107
-435.719	196.742	0.221	0.337
-434.705	62.037	0.226	-0.225
-433.690	185.722	-0.087	-0.129
-432.676	19.261	0.315	0.253
-431.661	167.534	-0.160	0.228
-430.646	-60.755	-0.253	0.107
-429.632	-109.230	0.212	-0.045
-428.617	800.000	0.052	-0.165
-427.603	-89.914	-0.219	-0.064
-426.588	-200.000	-0.009	-0.118
-425.573	-87.669	-0.157	-0.047
-424.559	125.031	0.085	0.107
-423.544	360.547	-0.138	0.276
-422.530	513.270	0.048	-0.111
-421.515	-200.000	0.043	-0.223
-420.500	-34.029	0.278	-0.153
-419.486	37.178	0.239	-0.211
-418.471	223.001	0.019	0.030
-417.457	129.944	-0.075	0.096
-416.442	6.327	0.198	-0.147
-415.428	210.847	-0.145	0.228
-414.413	-200.000	0.050	-0.404
-413.398	-142.176	-0.320	-0.032
-412.384	431.190	-0.130	-0.281
-411.369	-70.835	-0.081	-0.030
-410.355	-162.432	0.439	0.022
-409.340	-151.879	0.385	0.028
-408.325	-200.000	0.010	0.158
-407.311	-123.343	0.210	0.033
-406.296	116.336	-0.142	-0.174
-405.282	-200.000	-0.078	-0.384
-404.267	221.360	0.055	0.089
-403.252	286.421	0.136	-0.246
-402.238	137.960	-0.152	-0.199
-401.223	-200.000	-0.036	-0.175
-400.209	17.727	-0.045	-0.036
-399.194	98.333	-0.086	0.099
-398.179	-39.701	-0.218	0.114
-397.165	-102.582	0.042	0.010
-396.150	15.862	0.119	0.093
-395.136	36.419	-0.118	0.104
-394.121	800.000	-0.084	-0.326
-393.106	-53.153	-0.407	-0.186
-392.092	-200.000	0.013	0.076
-391.077	-116.376	-0.166	-0.031
-390.063	-200.000	-0.008	0.165
-389.048	55.137	-0.174	-0.168
-388.033	185.589	-0.036	0.053
-387.019	24.485	-0.253	-0.209
-386.004	-42.422	-0.370	-0.189
-384.990	-200.000	-0.027	0.173
-383.975	-153.154	0.190	0.013
-382.960	-178.876	-0.380	0.009
-381.946	192.496	-0.153	0.230
-380.931	573.977	0.059	-0.143
-379.917	800.000	0.109	-0.339
-378.902	655.877	0.008	-0.022
-377.888	181.017	-0.089	-0.130
-376.873	75.866	-0.269	0.284
-375.858	-145.467	0.061	0.005
-374.844	800.000	0.119	0.345
-373.829	800.000	0.040	0.124
-372.815	-88.680	0.151	-0.045
-371.800	-34.339	-0.106	0.058
-370.785	623.137	-0.033	0.082
-369.771	341.122	0.038	0.075
-368.756	80.082	0.273	-0.293
-367.742	-200.000	-0.048	-0.336
-366.727	-200.000	-0.016	-0.171
-365.712	-200.000	-0.028	0.144
-364.698	-24.619	0.315	0.187
-363.683	301.215	-0.178	0.328
-362.669	-121.309	0.108	0.018
-361.654	259.707	0.183	0.314
-360.639	-112.432	0.271	0.054
-359.625	321.893	-0.123	-0.234
-358.610	-127.317	0.001	-0.000
-357.596	-200.000	-0.050	0.324
-356.581	-56.022	-0.166	0.074
-355.566	800.000	0.082	0.310
-354.552	-16.884	-0.115	-0.072
-353.537	33.066	0.103	-0.089
-352.523	239.557	0.118	-0.196
-351.508	-56.981	0.368	-0.162
-350.493	-44.461	-0.128	-0.064
-349.479	-130.496	0.329	-0.044
-348.464	-186.513	0.282	-0.004
-347.450	5.819	-0.239	0.176
-346.435	-123.388	0.125	0.020
-345.420	96.522	-0.211	0.240
-344.406	183.176	-0.067	0.098
-343.391	-131.963	-0.524	0.068
-342.377	63.239	-0.277	-0.276
-341.362	-200.000	0.031	-0.200
-340.348	-58.556	0.272	-0.118
-339.333	-200.000	0.025	0.168
-338.318	38.820	-0.113	0.101
-337.304	-105.125	-0.389	-0.089
-336.289	-98.722	0.107	-0.027
-335.275	-160.291	-0.236	0.013
-334.260	800.000	0.023	0.083
-333.245	93.739	-0.238	-0.268
-332.231	-183.315	0.442	0.008
-331.216	472.939	0.036	0.080
-330.202	7.183	-0.147	0.109
-329.187	176.508	-0.119	0.173
-328.172	340.793	0.248	-0.481
-327.158	25.241	0.057	0.047
-326.143	-37.749	-0.236	0.125
-325.129	-115.886	0.190	0.035
-324.114	328.207	0.067	0.129
-323.099	-34.490	-0.093	0.051
-322.085	800.000	0.065	0.188
-321.070	-200.000	-0.001	0.171
-320.056	-200.000	0.019	-0.081
-319.041	96.002	0.012	-0.013
-318.026	-92.242	-0.223	-0.063
-317.012	-50.462	-0.108	0.051
-315.997	411.062	0.065	0.137
-314.983	-20.170	0.235	0.144
-313.968	-200.000	0.023	-0.178
-312.953	-58.717	-0.155	-0.067
-311.939	-37.326	-0.242	0.129
-310.924	-9.309	0.245	-0.163
-309.910	-76.360	-0.081	-0.028
-308.895	117.491	-0.088	0.108
-307.880	-48.753	0.203	0.097
-306.866	-200.000	-0.068	-0.406
-305.851	126.266	-0.116	-0.146
-304.837	-200.000	-0.009	0.059
-303.822	53.499	0.049	0.047
-302.807	-30.268	0.064	0.036
-301.793	10.716	0.119	-0.090
-300.778	-139.911	0.257	-0.027
-299.764	-114.385	0.097	-0.019
-298.749	-39.719	-0.194	0.101
-297.735	-177.079	0.357	-0.009
-296.720	800.000	0.076	0.239
-295.705	-200.000	0.001	0.082
-294.691	210.443	-0.007	-0.011
-293.676	382.925	0.139	0.285
-292.662	-41.384	0.036	0.019
-291.647	800.000	-0.137	0.503
-290.632	-10.425	0.200	-0.132
-289.618	88.402	0.111	-0.122
-288.603	-123.166	-0.278	0.044
-287.589	94.633	0.156	-0.176
-286.574	-24.977	-0.356	0.210
-285.559	-18.307	-0.398	0.247
-284.545	35.603	0.174	-0.152
-283.530	-103.862	-0.294	-0.068
-282.516	310.960	-0.116	-0.215
-281.501	69.846	-0.111	-0.114
-280.486	800.000	0.129	0.393
-279.472	65.616	0.110	-0.110
-278.457	-27.265	0.083	0.048
-277.443	242.975	-0.168	0.280
-276.428	-200.000	0.006	0.242
-275.413	100.064	0.052	0.059
-274.399	10.437	-0.267	-0.202
-273.384	-16.430	-0.196	-0.123
-272.370	592.395	0.113	-0.276
-271.355	9.607	0.161	-0.122
-270.340	800.000	-0.022	-0.060
-269.326	245.107	0.032	0.054
-268.311	331.960	0.131	-0.251
-267.297	-5.163	0.273	-0.187
-266.282	-160.869	-0.282	0.015
-265.267	-200.000	0.070	-0.519
-264.253	-200.000	-0.013	0.078
-263.238	-68.425	-0.056	-0.021
-262.224	-200.000	-0.008	0.106
-261.209	-200.000	-0.008	0.091
-260.195	273.882	-0.068	0.119
-259.180	216.373	-0.035	0.056
-258.165	219.489	-0.039	0.062
-257.151	10.028	-0.137	0.103
-256.136	-200.000	0.012	-0.210
-255.122	579.567	-0.063	0.154
-254.107	800.000	0.122	-0.368
-253.092	-20.980	0.300	0.182
-252.078	149.347	-0.100	-0.135
-251.063	-159.901	0.488	-0.027
-250.049	-200.000	-0.038	-0.170
-249.034	-20.694	-0.056	-0.034
-248.019	2.380	-0.232	-0.167
-247.005	-155.394	0.458	0.029
-245.990	72.814	-0.238	-0.246
-244.976	39.499	0.110	0.098
-243.961	123.559	-0.092	0.115
-242.946	133.782	-0.066	-0.084
-241.932	-140.131	-0.058	0.006
-240.917	118.363	0.276	0.338
-239.903	-158.405	0.365	0.021
-238.888	800.000	0.033	-0.098
-237.873	-48.296	0.225	-0.108
-236.859	-200.000	-0.053	-0.237
-235.844	-200.000	0.040	-0.232
-234.830	17.256	0.066	0.052
-233.815	97.690	0.056	0.064
-232.800	440.915	-0.149	-0.323
-231.786	-58.823	0.216	0.093
-230.771	224.289	-0.076	-0.122
-229.757	-200.000	-0.006	0.390
-228.742	-97.968	-0.087	0.022
-227.727	-200.000	-0.006	0.081
-226.713	516.066	-0.099	0.229
-225.698	434.472	0.089	-0.191
-224.684	-192.532	0.337	0.003
-223.669	-73.118	-0.120	0.044
-222.655	43.110	-0.083	-0.075
-221.640	800.000	-0.137	0.582
-220.625	-200.000	-0.016	-0.166
-219.611	-200.000	0.008	0.317
-218.596	-200.000	0.009	0.242
-217.582	-43.923	-0.245	-0.122
-216.567	-200.000	-0.007	0.116
-215.552	-126.586	-0.106	-0.016
-214.538	64.825	-0.173	-0.173
-213.523	18.989	-0.254	-0.202
-212.509	800.000	0.028	0.118
-211.494	-200.000	0.010	-0.059
-210.479	-25.923	0.241	-0.141
-209.465	-92.825	0.245	-0.068
-208.450	-200.000	0.086	-0.439
-207.436	-200.000	0.017	-0.130
-206.421	265.883	-0.157	-0.271
-205.406	-83.276	0.127	-0.041
-204.392	-200.000	-0.078	0.394
-203.377	-117.361	-0.201	0.036
-202.363	-14.609	-0.044	0.028
-201.348	800.000	0.014	-0.057
-200.333	-46.808	0.167	0.081
-199.319	210.253	0.119	0.184
-198.304	121.374	-0.134	-0.165
-197.290	37.104	0.192	0.168
-196.275	-200.000	0.033	-0.224
-195.260	-94.693	0.337	0.091
-194.246	22.264	0.320	0.259
-193.231	800.000	-0.100	-0.355
-192.217	428.295	0.103	0.220
-191.202	800.000	0.079	0.292
-190.187	70.291	-0.113	-0.116
-189.173	-4.475	-0.237	0.162
-188.158	31.194	0.223	-0.190
-187.144	65.072	0.142	-0.142
-186.129	-31.198	-0.220	-0.123
-185.114	107.965	0.234	-0.276
-184.100	247.408	-0.068	0.115
-183.085	209.545	0.105	-0.163
-182.071	800.000	-0.040	-0.156
-181.056	-190.598	-0.108	0.001
-180.042	-158.980	-0.248	0.014
-179.027	-132.760	0.264	0.033
-178.012	27.139	-0.050	0.042
-176.998	253.844	0.145	0.246
-175.983	-4.965	-0.148	-0.101
-174.969	6.776	-0.184	-0.136
-173.954	63.851	-0.091	0.090
-172.939	-200.000	-0.031	0.192
-171.925	104.471	0.121	0.141
-170.910	-200.000	-0.056	0.279
-169.896	47.019	0.116	0.107
-168.881	121.736	-0.169	-0.208
-167.866	190.604	0.222	-0.330
-166.852	-0.060	0.410	0.289
-165.837	138.543	0.097	0.126
-164.823	-200.000	-0.008	0.095
-163.808	247.618	-0.059	0.099
-162.793	-200.000	-0.008	0.083
-161.779	718.950	0.093	0.244
-160.764	800.000	0.037	0.111
-159.750	800.000	0.059	-0.239
-158.735	-66.618	-0.067	0.026
-157.720	-166.368	0.253	-0.011
-156.706	41.218	0.150	-0.134
-155.691	51.634	0.050	0.047
-154.677	-51.236	0.218	-0.101
-153.662	303.525	0.161	-0.295
-152.647	-200.000	0.035	-0.177
-151.633	-130.530	-0.105	-0.014
-150.618	-200.000	0.020	-0.258
-149.604	-183.799	0.229	0.004
-148.589	55.919	0.174	0.167
-147.574	-141.958	0.188	-0.019
-146.560	-76.642	-0.063	-0.022
-145.545	-35.629	-0.175	-0.094
-144.531	-54.302	-0.207	-0.093
-143.516	-109.269	0.091	-0.019
-142.502	773.096	-0.109	0.295
-141.487	-200.000	0.031	-0.167
-140.472	274.360	-0.121	0.211
-139.458	397.996	-0.080	0.166
-138.443	304.966	-0.073	-0.134
-137.429	291.422	-0.127	-0.228
-136.414	-156.802	0.562	0.034
-135.399	-146.129	0.102	-0.009
-134.385	800.000	0.047	-0.198
-133.370	800.000	0.026	0.080
-132.356	800.000	0.063	0.257
-131.341	92.064	0.235	0.261
-130.326	800.000	0.094	0.284
-129.312	751.578	0.183	0.489
-128.297	-124.264	-0.235	0.036
-127.283	-81.200	-0.237	0.077
-126.268	-44.046	0.102	-0.051
-125.253	800.000	0.081	0.231
-124.239	-123.933	-0.290	0.045
-123.224	232.529	-0.141	-0.229
-122.210	-105.996	-0.049	0.011
-121.195	-200.000	-0.025	0.156
-120.180	800.000	-0.121	-0.381
-119.166	741.383	-0.122	0.323
-118.151	-200.000	-0.016	-0.313
-117.137	29.472	0.216	0.181
-116.122	-144.590	0.076	0.007
-115.107	191.692	-0.083	-0.124
-114.093	19.526	0.163	-0.129
-113.078	-36.926	-0.205	0.109
-112.064	-200.000	0.018	-0.143
-111.049	800.000	0.028	0.100
-110.034	202.535	-0.180	-0.274
-109.020	-200.000	-0.011	0.389
-108.005	176.419	0.175	0.252
-106.991	88.859	0.230	0.253
-105.976	800.000	0.068	-0.194
-104.962	-200.000	-0.005	-0.286
-103.947	-70.569	0.169	0.063
-102.932	800.000	0.048	0.142
-101.918	800.000	-0.135	0.435
-100.903	308.035	-0.080	-0.147
-99.889	24.930	0.064	0.052
-98.874	126.443	0.187	-0.234
-97.859	366.272	-0.060	-0.120
-96.845	-40.286	0.220	0.113
-95.830	-200.000	-0.098	0.000
-94.816	-77.315	-0.462	-0.158
-93.801	-23.749	-0.257	0.152
-92.786	263.932	0.175	0.301
-91.772	71.599	0.425	0.436
-90.757	472.637	0.110	-0.245
-89.743	-185.789	-0.214	-0.003
-88.728	-200.000	0.023	-0.120
-87.713	-94.563	-0.178	0.048
-86.699	-200.000	-0.013	0.193
-85.684	316.838	0.065	0.121
-84.670	84.076	0.204	-0.220
-83.655	108.912	0.160	0.188
-82.640	142.443	-0.116	-0.152
-81.626	-16.815	-0.357	0.223
-80.611	-115.879	0.122	-0.023
-79.597	800.000	-0.132	0.406
-78.582	-145.597	-0.183	-0.016
-77.567	-36.907	-0.197	-0.104
-76.553	-42.174	0.264	-0.133
-75.538	-148.200	0.304	-0.025
-74.524	271.333	0.134	0.233
-73.509	-122.948	-0.185	-0.029
-72.494	800.000	0.037	-0.159
-71.480	-200.000	0.028	-0.185
-70.465	-91.554	0.319	-0.090
-69.451	17.056	-0.092	0.072
-68.436	10.962	0.167	0.126
-67.422	-94.389	-0.181	0.049
-66.407	107.758	-0.129	-0.151
-65.392	128.831	0.124	0.156
-64.378	27.708	0.113	-0.094
-63.363	99.853	0.173	-0.198
-62.349	-133.029	0.526	-0.066
-61.334	-20.624	-1.304	-0.789
-60.319	-99.136	0.582	0.145
-59.305	-200.000	-0.173	-0.781
-58.290	517.695	0.511	1.179
-57.276	471.499	0.819	1.817
-56.261	-200.000	97.716	574.049
-55.246	508.949	1395.805	3195.716
-54.232	157.664	2572.883	3511.280
-53.217	101.660	2291.262	2632.442
-52.203	38.099	2050.444	1797.625
-51.188	33.497	1965.221	1682.102
-50.173	31.968	1947.491	1653.402
-49.159	46.706	1999.471	1829.550
-48.144	48.180	2018.112	1859.721
-47.130	34.002	1978.950	1698.098
-46.115	31.771	1967.831	1668.655
-45.100	31.785	1964.891	1666.219
-44.086	31.659	1963.442	1663.798
-43.071	31.590	1961.062	1661.107
-42.057	31.545	1958.913	1658.825
-41.042	31.577	1957.306	1657.682
-40.027	31.685	1954.643	1656.310
-39.013	31.727	1952.794	1655.051
-37.998	31.689	1951.194	1653.291
-36.984	31.708	1949.617	1652.056
-35.969	31.736	1947.360	1650.332
-34.954	31.761	1945.488	1648.893
-33.940	31.728	1944.605	1647.788
-32.925	31.801	1942.454	1646.542
-31.911	31.773	1940.880	1644.901
-30.896	31.793	1939.101	1643.498
-29.881	31.790	1937.525	1642.076
-28.867	31.810	1936.134	1641.005
-27.852	31.837	1934.657	1639.928
-26.838	31.867	1932.810	1638.556
-25.823	31.806	1931.140	1636.543
-24.809	31.803	1928.987	1634.625
-23.794	31.794	1927.324	1633.073
-22.779	31.706	1926.107	1631.213
-21.765	31.806	1924.029	1630.261
-20.750	31.826	1922.281	1628.889
-19.736	31.810	1921.054	1627.641
-18.721	31.791	1919.029	1625.698
-17.706	31.779	1917.661	1624.370
-16.692	31.777	1915.917	1622.810
-15.677	31.730	1914.630	1621.252
-14.663	31.825	1912.953	1620.589
-13.648	31.754	1912.066	1619.162
-12.633	31.809	1910.681	1618.393
-11.619	31.776	1909.104	1616.714
-10.604	31.685	1908.122	1615.031
-9.590	31.773	1906.050	1613.969
-8.575	31.798	1904.886	1613.133
-7.560	31.705	1904.502	1611.943
-6.546	31.757	1902.571	1610.695
-5.531	31.747	1901.363	1609.520
-4.517	31.826	1899.657	1608.693
-3.502	31.770	1898.567	1607.228
-2.487	31.736	1897.757	1606.183
-1.473	31.761	1896.878	1605.590
-0.458	31.705	1891.992	1600.913
0.556	28.616	1871.596	1569.842
1.571	23.868	1850.624	1511.847
2.586	19.435	1871.182	1490.303
3.600	18.158	1905.908	1506.581
4.615	17.900	1900.681	1500.049
5.629	15.437	1809.040	1406.974
6.644	10.999	1701.638	1288.261
7.659	8.445	1668.094	1242.913
8.673	8.090	1665.265	1237.939
9.688	8.135	1663.619	1236.948
10.702	8.128	1662.247	1235.767
11.717	7.888	1659.298	1231.607
12.731	8.279	1657.331	1233.063
13.746	11.515	1664.752	1263.545
14.761	15.812	1673.802	1303.666
15.775	17.337	1674.802	1316.142
16.790	16.677	1672.839	1309.377
17.804	15.596	1669.504	1298.299
18.819	14.647	1665.548	1287.791
19.834	14.005	1663.616	1281.237
20.848	13.664	1661.797	1277.093
21.863	13.517	1659.655	1274.208
22.877	13.145	1659.028	1270.750
23.892	12.994	1657.288	1268.148
24.907	12.819	1656.463	1266.056
25.921	12.830	1655.259	1265.110
26.936	12.827	1654.120	1264.104
27.950	12.871	1653.639	1263.964
28.965	12.857	1652.924	1263.197
29.980	12.913	1652.121	1262.895
30.994	12.975	1651.306	1262.641
32.009	13.138	1649.560	1262.434
33.023	13.129	1648.746	1261.637
34.038	13.187	1647.475	1260.991
35.053	13.134	1646.610	1259.812
36.067	13.057	1645.119	1257.975
37.082	13.101	1644.512	1257.734
38.096	13.013	1643.240	1255.980
39.111	13.123	1642.301	1255.991
40.126	13.116	1641.366	1255.107
41.140	13.072	1640.938	1254.341
42.155	13.025	1638.990	1252.381
43.169	12.884	1637.592	1250.129
44.184	12.859	1636.903	1249.303
45.199	12.851	1635.643	1248.172
46.213	12.787	1634.491	1246.699
47.228	12.847	1633.443	1246.244
48.242	12.896	1632.388	1245.699
49.257	12.926	1630.915	1244.694
50.271	12.959	1629.760	1243.946
51.286	12.950	1628.442	1242.766
52.301	12.922	1627.045	1241.381
53.315	13.064	1625.514	1241.166
54.330	12.975	1623.671	1238.982
55.344	12.943	1622.804	1237.967
56.359	12.849	1621.528	1236.186
57.374	12.939	1620.162	1235.709
58.388	12.959	1619.044	1234.891
59.403	12.874	1617.685	1233.115
60.417	12.825	1616.373	1231.636
61.432	12.850	1615.391	1230.969
62.447	12.770	1614.432	1229.528
63.461	12.781	1612.800	1228.258
64.476	12.779	1611.709	1227.307
65.490	12.735	1610.923	1226.269
66.505	12.718	1609.962	1225.303
67.520	12.735	1609.324	1224.838
68.534	12.745	1608.150	1223.910
69.549	12.804	1606.731	1223.157
70.563	12.854	1605.319	1222.349
71.578	12.743	1604.608	1220.877
72.593	12.762	1603.514	1220.078
73.607	12.641	1602.937	1218.635
74.622	12.595	1601.588	1217.158
75.636	12.603	1601.041	1216.695
76.651	12.666	1600.041	1216.291
77.666	12.680	1599.143	1215.608
78.680	12.641	1598.659	1214.840
79.695	12.724	1597.364	1214.359
80.709	12.783	1596.613	1214.115
81.724	12.795	1595.902	1213.558
82.739	12.795	1594.906	1212.694
83.753	12.831	1593.937	1212.118
84.768	12.850	1593.609	1211.900
85.782	12.941	1592.377	1211.524
86.797	12.932	1591.794	1210.907
87.812	13.030	1590.851	1210.800
88.826	13.043	1588.704	1209.157
89.841	12.926	1588.518	1208.045
90.855	12.994	1587.336	1207.538
91.870	13.048	1586.124	1206.905
92.884	13.039	1585.670	1206.391
93.899	13.022	1584.224	1205.060
94.914	12.988	1582.988	1203.759
95.928	13.107	1581.640	1203.495
96.943	13.126	1580.145	1202.394
97.957	13.133	1578.462	1201.057
98.972	13.122	1577.064	1199.805
99.987	12.989	1576.114	1198.012
101.001	12.996	1574.662	1196.850
102.016	12.980	1572.975	1195.351
103.030	12.945	1571.622	1193.960
104.045	12.991	1570.935	1193.668
105.060	13.042	1569.023	1192.476
106.074	13.015	1567.719	1191.186
107.089	12.998	1565.360	1189.168
108.103	12.842	1564.531	1187.305
109.118	12.699	1563.282	1185.223
110.133	12.811	1560.976	1184.177
111.147	12.771	1559.889	1182.957
112.162	12.769	1559.152	1182.282
113.176	12.835	1557.301	1181.247
114.191	12.882	1556.196	1180.639
115.206	12.941	1554.579	1179.729
116.220	12.921	1553.469	1178.642
117.235	12.887	1552.072	1177.234
118.249	12.890	1551.255	1176.529
119.264	12.908	1549.500	1175.223
120.279	12.780	1547.957	1173.040
121.293	12.749	1546.899	1171.917
122.308	12.827	1545.028	1170.946
123.322	12.845	1543.536	1169.843
124.337	12.728	1542.383	1168.031
125.352	12.768	1541.001	1167.166
126.366	12.717	1539.922	1165.888
127.381	12.729	1538.850	1165.058
128.395	12.762	1537.441	1164.117
129.410	12.777	1536.320	1163.272
130.424	12.850	1534.804	1162.537
131.439	12.805	1533.481	1161.111
132.454	12.896	1532.217	1160.697
133.468	12.881	1530.658	1159.305
134.483	12.927	1529.194	1158.419
135.497	12.880	1528.398	1157.383
136.512	12.901	1526.515	1156.001
137.527	12.841	1525.962	1155.063
138.541	12.909	1524.593	1154.396
139.556	12.961	1522.917	1153.389
140.570	12.926	1521.669	1152.097
141.585	13.096	1520.219	1152.083
142.600	13.149	1519.169	1151.558
143.614	13.105	1518.171	1150.393
144.629	13.136	1516.919	1149.557
145.643	13.215	1515.420	1148.871
146.658	13.225	1513.831	1147.631
147.673	13.197	1512.510	1146.331
148.687	13.075	1511.114	1144.328
149.702	13.151	1509.548	1143.570
150.716	13.068	1507.804	1141.573
151.731	13.062	1506.312	1140.297
152.746	13.061	1504.879	1139.111
153.760	13.048	1503.525	1137.895
154.775	13.148	1502.277	1137.533
155.789	13.024	1501.419	1135.935
156.804	13.190	1499.780	1135.730
157.819	13.134	1498.687	1134.420
158.833	13.155	1497.493	1133.561
159.848	13.189	1496.536	1132.965
160.862	13.279	1495.284	1132.539
161.877	13.253	1494.428	1131.610
162.892	13.251	1492.650	1130.152
163.906	13.159	1491.705	1128.705
164.921	13.027	1491.092	1127.241
165.935	13.063	1489.748	1126.372
166.950	13.096	1488.600	1125.625
167.964	13.062	1487.358	1124.358
168.979	13.255	1485.839	1124.420
169.994	13.177	1485.021	1123.178
171.008	13.213	1484.456	1122.892
172.023	13.202	1483.204	1121.770
173.037	13.268	1482.071	1121.262
174.052	13.278	1481.386	1120.710
175.067	13.419	1479.660	1120.262
176.081	13.246	1479.039	1118.521
177.096	13.195	1477.604	1116.996
178.110	13.248	1475.603	1115.743
179.125	13.186	1475.126	1114.862
180.140	13.206	1474.222	1114.214
181.154	13.280	1473.149	1113.806
182.169	13.380	1471.769	1113.334
183.183	13.422	1470.067	1112.232
184.198	13.331	1469.958	1111.438
185.213	13.480	1468.372	1111.145
186.227	13.443	1467.980	1110.501
187.242	13.478	1466.695	1109.660
188.256	13.474	1465.727	1108.808
189.271	13.522	1464.544	1108.132
190.286	13.528	1463.978	1107.647
191.300	13.512	1462.915	1106.636
192.315	13.300	1461.551	1104.093
193.329	13.158	1460.204	1102.034
194.344	13.203	1458.907	1101.253
195.359	13.304	1457.822	1101.013
196.373	13.362	1456.604	1100.379
197.388	13.432	1455.499	1099.915
198.402	13.525	1454.941	1100.012
199.417	13.546	1453.911	1099.271
200.432	13.651	1452.888	1099.097
201.446	13.694	1452.007	1098.623
202.461	13.791	1450.769	1098.228
203.475	13.781	1449.919	1097.421
204.490	13.714	1448.842	1096.068
205.504	13.715	1447.909	1095.270
206.519	13.666	1446.718	1093.951
207.534	13.730	1445.144	1093.083
208.548	13.634	1443.902	1091.414
209.563	13.717	1443.010	1091.194
210.577	13.676	1442.202	1090.213
211.592	13.640	1441.673	1089.484
212.607	13.628	1440.942	1088.755
213.621	13.815	1440.058	1089.219
214.636	13.869	1438.777	1088.505
215.650	13.793	1438.149	1087.435
216.665	13.789	1436.928	1086.390
217.680	13.866	1436.198	1086.248
218.694	13.910	1435.637	1086.011
219.709	13.939	1434.780	1085.458
220.723	13.972	1433.797	1084.833
221.738	13.940	1432.424	1083.494
222.753	13.975	1431.977	1083.283
223.767	13.936	1430.865	1082.091
224.782	13.776	1430.659	1080.798
225.796	13.959	1429.156	1080.761
226.811	14.012	1427.837	1080.013
227.826	14.087	1427.507	1080.153
228.840	14.054	1426.238	1078.885
229.855	13.925	1425.679	1077.530
230.869	14.006	1424.315	1076.930
231.884	13.909	1423.834	1075.840
232.899	13.988	1422.196	1075.018
233.913	13.983	1420.695	1073.756
234.928	13.918	1419.981	1072.703
235.942	13.958	1418.697	1071.897
236.957	14.017	1417.176	1071.032
237.972	13.888	1416.404	1069.521
238.986	13.907	1415.602	1068.941
240.001	13.967	1414.101	1068.104
241.015	13.967	1413.323	1067.422
242.030	14.021	1412.273	1066.878
243.045	14.046	1411.257	1066.180
244.059	14.000	1410.613	1065.304
245.074	14.067	1409.557	1064.840
246.088	14.108	1409.205	1064.744
247.103	14.012	1408.243	1063.305
248.117	14.177	1407.565	1063.755
249.132	14.271	1406.388	1063.371
250.147	14.375	1405.430	1063.215
251.161	14.420	1405.293	1063.309
252.176	14.514	1404.708	1063.370
253.190	14.424	1404.157	1062.287
254.205	14.498	1403.136	1061.891
255.220	14.604	1402.449	1061.950
256.234	14.581	1401.593	1061.061
257.249	14.625	1400.397	1060.344
258.263	14.561	1400.099	1059.619
259.278	14.557	1399.384	1058.956
260.293	14.592	1397.951	1058.000
261.307	14.652	1397.119	1057.655
262.322	14.711	1396.360	1057.362
263.336	14.716	1395.744	1056.832
264.351	14.760	1394.645	1056.186
265.366	14.671	1393.919	1054.978
266.380	14.801	1392.889	1054.928
267.395	14.798	1391.935	1054.090
268.409	14.826	1391.299	1053.694
269.424	14.756	1390.045	1052.212
270.439	14.730	1389.214	1051.326
271.453	14.698	1387.949	1050.074
272.468	14.667	1387.327	1049.315
273.482	14.674	1386.566	1048.689
274.497	14.689	1385.857	1048.156
275.512	14.680	1384.788	1047.199
276.526	14.733	1383.899	1046.767
277.541	14.777	1382.668	1046.015
278.555	14.727	1382.200	1045.259
279.570	14.786	1381.390	1044.920
280.585	14.715	1380.779	1043.921
281.599	14.846	1379.725	1043.854
282.614	14.776	1379.028	1042.794
283.628	14.913	1377.498	1042.400
284.643	14.908	1376.408	1041.451
285.657	14.843	1375.154	1040.004
286.672	14.842	1374.658	1039.535
287.687	14.937	1373.665	1039.282
288.701	14.921	1372.558	1038.252
289.716	14.990	1371.754	1037.979
290.730	14.936	1371.247	1037.169
291.745	14.853	1370.394	1035.922
292.760	14.956	1369.369	1035.688
293.774	15.007	1368.416	1035.193
294.789	14.962	1367.258	1033.945
295.803	15.102	1366.850	1034.412
296.818	15.140	1365.680	1033.668
297.833	15.081	1364.565	1032.372
298.847	14.874	1364.168	1030.701
299.862	15.041	1362.758	1030.576
300.876	15.012	1361.904	1029.662
301.891	15.149	1360.283	1029.187
302.906	15.143	1360.229	1029.016
303.920	15.272	1359.269	1028.987
304.935	15.164	1358.943	1027.990
305.949	15.235	1358.162	1027.741
306.964	15.371	1356.749	1027.414
307.979	15.327	1356.098	1026.561
308.993	15.266	1355.632	1025.746
310.008	15.300	1354.519	1025.024
311.022	15.264	1353.731	1024.116
312.037	15.381	1352.478	1023.790
313.052	15.381	1352.003	1023.337
314.066	15.394	1350.674	1022.324
315.081	15.357	1349.223	1020.908
316.095	15.258	1348.426	1019.610
317.110	15.306	1347.381	1019.027
318.125	15.233	1346.564	1017.873
319.139	15.190	1345.789	1016.935
320.154	15.307	1344.289	1016.422
321.168	15.249	1343.649	1015.494
322.183	15.246	1342.646	1014.630
323.197	15.295	1341.943	1014.307
324.212	15.345	1340.982	1013.792
325.227	15.347	1340.198	1013.120
326.241	15.371	1339.275	1012.478
327.256	15.428	1338.524	1012.165
328.270	15.346	1337.733	1010.982
329.285	15.410	1336.565	1010.399
330.300	15.490	1335.431	1009.933
331.314	15.456	1334.954	1009.279
332.329	15.400	1334.302	1008.360
333.343	15.432	1333.086	1007.539
334.358	15.514	1332.227	1007.295
335.373	15.534	1331.758	1006.975
336.387	15.476	1330.884	1005.876
337.402	15.589	1329.583	1005.477
338.416	15.584	1329.623	1005.392
339.431	15.576	1328.910	1004.714
340.446	15.686	1327.909	1004.524
341.460	15.737	1326.627	1003.769
342.475	15.680	1325.983	1002.854
343.489	15.759	1325.313	1002.731
344.504	15.833	1324.302	1002.319
345.519	15.786	1323.926	1001.667
346.533	15.873	1322.660	1001.133
347.548	15.805	1321.905	1000.071
348.562	15.955	1320.786	1000.029
349.577	15.943	1320.146	999.385
350.592	15.937	1319.420	998.709
351.606	15.894	1318.764	997.866
352.621	15.784	1317.444	996.129
353.635	15.815	1316.341	995.393
354.650	15.689	1315.239	993.724
355.665	15.720	1314.643	993.372
356.679	15.747	1313.481	992.564
357.694	15.833	1312.373	992.144
358.708	15.845	1311.287	991.306
359.723	15.799	1311.023	990.749
360.738	16.021	1309.247	990.625
361.752	15.904	1308.675	989.415
362.767	15.939	1307.639	988.751
363.781	15.927	1306.938	988.063
364.796	15.919	1305.994	987.214
365.810	15.944	1305.478	986.886
366.825	15.968	1304.880	986.484
367.840	16.066	1304.109	986.388
368.854	16.174	1303.047	986.132
369.869	16.206	1302.738	985.997
370.883	16.236	1301.801	985.377
371.898	16.133	1301.481	984.443
372.913	16.169	1300.695	983.973
373.927	16.118	1299.558	982.731
374.942	16.209	1298.862	982.647
375.956	16.122	1298.062	981.449
376.971	16.164	1297.418	981.114
377.986	16.223	1296.457	980.647
379.000	16.313	1295.361	980.253
380.015	16.291	1295.096	979.836
381.029	16.360	1294.202	979.475
382.044	16.408	1293.389	979.051
383.059	16.470	1292.811	978.883
384.073	16.446	1292.218	978.211
385.088	16.407	1291.387	977.271
386.102	16.397	1290.551	976.494
387.117	16.481	1289.981	976.463
388.132	16.368	1289.359	975.251
389.146	16.372	1288.454	974.504
390.161	16.413	1287.626	974.026
391.175	16.386	1286.824	973.181
392.190	16.327	1286.019	972.145
393.205	16.413	1285.238	971.961
394.219	16.380	1284.187	970.892
395.234	16.565	1282.753	970.782
396.248	16.477	1281.467	969.222
397.263	16.523	1279.929	968.235
398.278	16.432	1279.052	966.964
399.292	16.454	1278.116	966.300
400.307	16.390	1276.972	964.979
401.321	16.509	1275.594	964.532
402.336	16.409	1274.702	963.206
403.350	16.475	1273.967	962.942
404.365	16.491	1272.721	962.001
405.380	16.524	1271.905	961.490
406.394	16.509	1271.130	960.735
407.409	16.565	1270.587	960.558
408.423	16.560	1270.232	960.173
409.438	16.741	1269.257	960.377
410.453	16.667	1268.545	959.335
411.467	16.779	1267.836	959.351
412.482	16.781	1267.505	959.023
413.496	16.820	1266.885	958.692
414.511	16.774	1266.058	957.720
415.526	16.977	1265.019	957.999
416.540	16.974	1264.325	957.367
417.555	16.930	1263.877	956.700
418.569	17.017	1263.130	956.538
419.584	16.918	1263.011	955.802
420.599	16.944	1262.008	955.106
421.613	94.210	1349.375	1463.297
422.628	91.721	1362.086	1463.405
