DTS Sentinel unit serial number:	SN413079Multiplexer serial number:	ORYXHardware model number:	OX4-SRSoftware version number:	ORYX F/W v4.00 Oryx Data Collector v3.7.2.0data status	okinstallation	princeton_trtdifferential loss correction	single-endedforward channel	channel 4reverse channel	N/Adate	2019/09/16time	19:49:35forward acquisition time	60.00reverse acquisition time	0.00gamma	496.2192k internal	0.2309k external	0.2309temperature offset calibration	0.9966default loss term (dB/km)	0.3790temperature slope calibration	1.0000multiplexer offset coefficient	1.0000multiplexer slope coefficient	1.0000fibre end	0.00T internal ref (°C)	33.77T ext. ref 1 (°C)	0.08T ext. ref 2 (°C)	26.84length (m)	temperature (°C)	Stokes	anti-Stokes-747.200	-200.000	-0.005	0.045
-746.185	-200.000	-0.004	-0.077
-745.171	74.322	0.055	0.058
-744.156	97.094	-0.294	0.343
-743.142	-200.000	-0.003	-0.021
-742.127	248.390	-0.144	0.248
-741.112	800.000	0.082	-0.247
-740.098	363.650	0.174	0.355
-739.083	262.417	-0.082	0.144
-738.069	-200.000	0.031	0.230
-737.054	163.706	0.153	0.218
-736.039	270.659	-0.167	-0.298
-735.025	190.940	0.317	0.485
-734.010	-154.315	0.190	0.013
-732.996	-126.749	-0.058	-0.009
-731.981	-200.000	-0.015	0.178
-730.966	-34.194	0.304	0.169
-729.952	-200.000	0.043	-0.311
-728.937	800.000	0.028	-0.080
-727.923	13.833	0.159	-0.126
-726.908	-163.201	-0.063	-0.003
-725.894	308.461	0.072	0.137
-724.879	-171.872	-0.398	-0.013
-723.864	-67.106	-0.129	0.052
-722.850	-200.000	0.096	-0.529
-721.835	353.996	0.103	-0.207
-720.821	-200.000	-0.017	-0.234
-719.806	-200.000	-0.000	-0.128
-718.791	-200.000	0.032	0.224
-717.777	52.485	-0.139	0.135
-716.762	149.307	-0.122	-0.167
-715.748	51.418	0.253	-0.244
-714.733	-53.464	-0.333	-0.154
-713.718	230.704	-0.188	-0.313
-712.704	-61.924	0.115	-0.049
-711.689	3.237	-0.232	-0.171
-710.675	172.660	-0.047	-0.069
-709.660	-34.368	-0.124	0.069
-708.645	800.000	-0.069	-0.206
-707.631	-60.739	0.218	0.094
-706.616	-17.342	-0.245	-0.156
-705.602	-164.122	0.220	0.010
-704.587	163.566	-0.101	-0.145
-703.572	9.159	-0.074	-0.056
-702.558	-200.000	-0.018	-0.177
-701.543	-165.186	0.250	-0.011
-700.529	61.727	0.273	0.275
-699.514	-81.820	-0.374	-0.124
-698.499	-29.136	-0.170	0.099
-697.485	-49.016	-0.340	-0.165
-696.470	-200.000	-0.021	-0.128
-695.456	186.677	0.136	-0.205
-694.441	77.085	0.051	-0.054
-693.426	-42.694	-0.127	0.066
-692.412	-168.466	-0.164	-0.006
-691.397	105.584	-0.069	-0.082
-690.383	-60.665	-0.215	0.092
-689.368	-200.000	0.000	0.143
-688.354	335.203	-0.169	-0.332
-687.339	24.959	-0.375	-0.316
-686.324	-154.156	-0.189	0.013
-685.310	319.813	-0.087	0.167
-684.295	101.393	-0.155	0.183
-683.281	298.364	-0.075	0.140
-682.266	-200.000	0.036	-0.231
-681.251	61.609	-0.193	-0.195
-680.237	-83.122	0.206	-0.067
-679.222	-170.144	-0.303	0.011
-678.208	173.252	-0.059	0.086
-677.193	558.145	0.076	0.187
-676.178	-18.414	-0.357	-0.226
-675.164	164.421	0.274	-0.391
-674.149	-200.000	0.035	-0.313
-673.135	800.000	-0.043	0.183
-672.120	8.238	-0.255	0.194
-671.105	-200.000	-0.029	-0.346
-670.091	627.615	0.078	-0.199
-669.076	-200.000	0.042	0.293
-668.062	-2.908	0.159	-0.113
-667.047	11.401	0.312	-0.242
-666.032	-200.000	0.021	-0.281
-665.018	95.082	0.247	-0.285
-664.003	-146.122	0.204	-0.018
-662.989	800.000	-0.061	0.236
-661.974	-79.161	-0.254	0.087
-660.959	338.662	-0.082	-0.162
-659.945	-65.899	-0.281	0.114
-658.930	790.019	-0.048	-0.133
-657.916	-63.733	-0.276	0.114
-656.901	-141.293	0.250	0.026
-655.886	-25.783	-0.216	-0.129
-654.872	59.017	-0.186	0.185
-653.857	2.483	-0.247	-0.181
-652.843	54.659	-0.350	0.341
-651.828	800.000	0.049	0.181
-650.814	33.047	-0.245	-0.215
-649.799	-32.148	-0.212	0.120
-648.784	-200.000	-0.046	-0.396
-647.770	46.834	0.207	0.195
-646.755	33.458	-0.101	-0.088
-645.741	46.078	0.129	-0.121
-644.726	31.969	-0.124	0.108
-643.711	-51.718	0.193	-0.091
-642.697	25.958	0.154	-0.130
-641.682	246.499	-0.122	-0.209
-640.668	-62.982	0.176	-0.074
-639.653	554.148	0.044	0.108
-638.638	-124.686	-0.321	0.050
-637.624	-200.000	0.045	-0.247
-636.609	162.695	0.066	-0.094
-635.595	218.324	0.104	-0.168
-634.580	-49.447	-0.041	0.020
-633.565	46.980	0.174	-0.164
-632.551	666.800	-0.064	0.167
-631.536	-200.000	-0.030	-0.345
-630.522	800.000	-0.108	-0.369
-629.507	661.664	0.009	-0.022
-628.492	-81.129	-0.023	0.008
-627.478	393.578	0.112	0.236
-626.463	-200.000	0.007	0.144
-625.449	-21.655	-0.139	0.086
-624.434	154.219	0.206	0.286
-623.419	68.064	0.089	0.092
-622.405	-138.244	0.365	0.041
-621.390	10.783	-0.214	0.165
-620.376	800.000	-0.028	-0.096
-619.361	45.726	0.230	-0.215
-618.346	293.361	-0.118	0.217
-617.332	95.743	-0.100	0.116
-616.317	23.013	0.141	-0.117
-615.303	20.985	0.518	-0.425
-614.288	83.126	-0.105	-0.116
-613.273	-200.000	0.018	-0.230
-612.259	-59.312	0.208	-0.090
-611.244	-200.000	-0.039	0.366
-610.230	-147.439	0.196	-0.017
-609.215	-12.281	-0.138	0.091
-608.201	-34.079	0.226	-0.125
-607.186	18.891	0.289	0.234
-606.171	-200.000	-0.035	0.242
-605.157	302.874	-0.046	-0.086
-604.142	592.671	0.023	-0.058
-603.128	-146.102	-0.117	0.010
-602.113	-46.785	-0.268	-0.132
-601.098	546.430	-0.127	-0.308
-600.084	-157.547	-0.362	0.022
-599.069	-15.080	-0.298	0.193
-598.055	-7.375	0.035	-0.024
-597.040	88.607	0.096	-0.108
-596.025	-46.200	-0.360	-0.179
-595.011	-55.904	-0.219	-0.099
-593.996	-200.000	0.040	-0.329
-592.982	800.000	-0.032	-0.108
-591.967	-83.135	0.276	0.090
-590.952	-194.150	-0.130	0.001
-589.938	-23.211	0.254	0.154
-588.923	800.000	-0.068	-0.222
-587.909	-105.589	-0.099	0.023
-586.894	-127.082	0.260	-0.039
-585.879	-200.000	-0.002	-0.038
-584.865	-102.407	-0.149	0.036
-583.850	785.092	0.097	-0.269
-582.836	800.000	-0.071	-0.233
-581.821	-200.000	0.005	-0.281
-580.806	-200.000	0.048	0.313
-579.792	-29.148	-0.265	0.153
-578.777	800.000	0.094	-0.297
-577.763	221.651	-0.143	0.231
-576.748	106.920	-0.074	0.089
-575.733	67.513	0.191	0.197
-574.719	-23.755	0.273	-0.165
-573.704	-54.768	-0.054	0.024
-572.690	105.177	-0.107	-0.128
-571.675	30.491	-0.079	-0.068
-570.661	-56.143	0.222	-0.100
-569.646	180.520	0.122	-0.181
-568.631	800.000	0.067	0.288
-567.617	554.567	-0.135	0.328
-566.602	60.678	-0.165	0.164
-565.588	-200.000	0.013	-0.317
-564.573	-200.000	-0.008	-0.055
-563.558	-17.516	0.269	0.171
-562.544	-92.332	-0.024	-0.007
-561.529	-200.000	-0.009	-0.150
-560.515	-200.000	0.003	-0.089
-559.500	405.586	0.181	0.384
-558.485	155.023	0.188	0.261
-557.471	-200.000	0.008	-0.266
-556.456	71.378	-0.013	-0.014
-555.442	-200.000	-0.085	-0.514
-554.427	-80.927	0.197	-0.066
-553.412	-75.460	0.181	0.065
-552.398	-34.630	-0.198	0.109
-551.383	-103.739	0.357	-0.084
-550.369	-200.000	-0.008	0.051
-549.354	-52.361	0.316	0.147
-548.339	137.626	-0.168	-0.221
-547.325	-81.521	-0.270	-0.089
-546.310	-120.980	-0.190	0.032
-545.296	280.179	0.107	0.193
-544.281	-180.547	-0.327	-0.007
-543.266	-200.000	-0.021	0.132
-542.252	87.195	-0.150	-0.167
-541.237	800.000	-0.076	0.315
-540.223	-200.000	0.045	0.291
-539.208	800.000	-0.055	-0.236
-538.193	-34.356	0.041	0.023
-537.179	104.989	-0.154	0.183
-536.164	288.651	-0.232	0.423
-535.150	-169.924	0.125	0.005
-534.135	-183.553	0.109	-0.002
-533.121	-200.000	-0.029	0.332
-532.106	800.000	-0.080	0.225
-531.091	-137.481	-0.203	-0.023
-530.077	-69.827	-0.050	0.019
-529.062	-80.862	-0.280	-0.094
-528.048	296.941	-0.090	-0.167
-527.033	130.488	0.186	0.241
-526.018	-38.971	0.169	-0.090
-525.004	90.894	-0.035	0.040
-523.989	-167.212	0.094	-0.004
-522.975	-200.000	0.014	-0.144
-521.960	-200.000	0.040	-0.352
-520.945	66.644	-0.212	0.217
-519.931	800.000	0.097	-0.305
-518.916	-75.236	0.300	0.108
-517.902	146.842	0.248	0.336
-516.887	-118.670	-0.099	-0.018
-515.872	-119.748	-0.204	0.036
-514.858	-200.000	-0.007	-0.334
-513.843	-200.000	0.005	-0.223
-512.829	-79.318	0.127	-0.043
-511.814	-200.000	-0.020	-0.210
-510.799	-30.800	-0.365	-0.208
-509.785	-134.132	-0.283	-0.035
-508.770	-132.246	0.233	0.030
-507.756	4.732	-0.206	0.153
-506.741	800.000	-0.037	-0.127
-505.726	-173.676	0.122	-0.004
-504.712	-39.311	0.218	-0.115
-503.697	-86.590	-0.292	0.090
-502.683	-32.335	0.206	-0.116
-501.668	-24.450	-0.054	-0.033
-500.653	-28.105	0.243	0.142
-499.639	-55.241	-0.179	0.081
-498.624	-200.000	0.008	0.094
-497.610	-200.000	-0.028	0.135
-496.595	-58.507	-0.148	-0.065
-495.581	335.915	-0.102	-0.200
-494.566	800.000	0.071	0.304
-493.551	14.535	0.200	-0.157
-492.537	-38.520	0.228	0.121
-491.522	87.201	0.081	0.090
-490.508	-200.000	-0.091	0.439
-489.493	30.232	-0.109	0.094
-488.478	792.016	0.024	-0.065
-487.464	-146.127	-0.149	-0.013
-486.449	-200.000	-0.055	-0.276
-485.435	18.970	-0.263	0.212
-484.420	-82.193	0.292	0.096
-483.405	-29.506	0.376	0.216
-482.391	-11.306	-0.061	-0.040
-481.376	135.546	0.177	-0.231
-480.362	113.846	-0.156	0.190
-479.347	484.938	0.072	-0.164
-478.332	-57.200	-0.145	0.064
-477.318	441.481	-0.068	0.149
-476.303	-62.389	-0.201	0.084
-475.289	-9.777	-0.235	0.158
-474.274	621.107	-0.156	0.395
-473.259	-44.514	0.250	0.126
-472.245	-200.000	0.048	-0.310
-471.230	-96.678	0.433	0.114
-470.216	364.164	-0.099	-0.199
-469.201	-14.535	0.369	0.238
-468.186	393.303	0.148	0.309
-467.172	9.695	0.260	0.198
-466.157	32.640	0.169	0.147
-465.143	-92.236	-0.117	0.033
-464.128	-99.666	0.348	0.088
-463.113	800.000	0.100	-0.295
-462.099	800.000	0.066	-0.237
-461.084	98.496	-0.012	-0.014
-460.070	727.850	0.028	-0.075
-459.055	230.194	0.068	0.112
-458.040	238.114	0.178	-0.296
-457.026	-144.847	0.179	-0.016
-456.011	800.000	0.085	-0.294
-454.997	-69.486	-0.120	0.046
-453.982	-110.287	0.323	0.067
-452.968	800.000	-0.046	0.127
-451.953	-166.473	0.207	-0.009
-450.938	-175.022	0.099	-0.003
-449.924	230.396	0.091	-0.150
-448.909	-57.890	0.178	0.078
-447.895	42.454	-0.084	-0.077
-446.880	546.112	-0.047	-0.114
-445.865	133.669	0.197	0.256
-444.851	-81.774	-0.160	0.053
-443.836	-200.000	-0.069	-0.357
-442.822	64.491	0.086	0.087
-441.807	-200.000	-0.013	0.092
-440.792	800.000	-0.075	0.215
-439.778	92.259	0.310	-0.351
-438.763	-79.266	-0.210	0.071
-437.749	-200.000	0.040	-0.277
-436.734	-200.000	0.014	-0.084
-435.719	-16.252	0.115	0.074
-434.705	-125.370	0.279	0.043
-433.690	167.684	0.005	0.007
-432.676	12.414	0.243	0.188
-431.661	-200.000	-0.029	0.134
-430.646	331.061	0.041	-0.079
-429.632	-200.000	-0.048	0.320
-428.617	-90.832	0.245	-0.071
-427.603	497.654	-0.105	0.242
-426.588	27.174	0.173	0.146
-425.573	4.500	-0.322	0.237
-424.559	-84.854	0.198	0.062
-423.544	249.188	0.066	-0.112
-422.530	-200.000	-0.033	0.310
-421.515	109.940	0.043	0.052
-420.500	-200.000	0.018	-0.288
-419.486	79.798	0.068	-0.073
-418.471	781.999	-0.081	-0.221
-417.457	-200.000	0.004	0.077
-416.442	253.577	-0.084	-0.144
-415.428	-57.322	0.069	-0.031
-414.413	-105.025	0.198	-0.045
-413.398	-125.626	0.100	0.015
-412.384	67.193	-0.170	0.174
-411.369	104.183	0.150	-0.177
-410.355	-3.560	0.124	0.087
-409.340	-200.000	-0.043	0.189
-408.325	50.582	-0.083	-0.079
-407.311	558.179	-0.144	0.348
-406.296	-167.238	-0.213	0.009
-405.282	-200.000	0.080	-0.428
-404.267	-126.531	0.163	0.024
-403.252	297.749	-0.130	-0.239
-402.238	92.943	-0.255	-0.289
-401.223	197.647	-0.217	0.332
-400.209	132.506	0.055	-0.071
-399.194	-200.000	0.012	-0.181
-398.179	-117.257	0.510	0.093
-397.165	470.716	0.018	0.041
-396.150	800.000	0.052	0.170
-395.136	-170.442	0.062	-0.002
-394.121	75.332	0.025	0.027
-393.106	-200.000	-0.323	-0.000
-392.092	-99.672	0.213	-0.054
-391.077	731.326	-0.134	-0.358
-390.063	-200.000	-0.049	0.372
-389.048	23.776	-0.095	-0.079
-388.033	-50.904	-0.324	0.153
-387.019	60.416	-0.177	-0.176
-386.004	-200.000	-0.067	-0.377
-384.990	100.264	-0.100	0.116
-383.975	-200.000	-0.012	0.323
-382.960	-200.000	0.023	-0.317
-381.946	-93.626	-0.051	-0.014
-380.931	220.945	0.090	0.144
-379.917	46.814	-0.163	0.152
-378.902	-104.470	-0.318	0.074
-377.888	-200.000	-0.055	-0.404
-376.873	-200.000	-0.013	-0.098
-375.858	26.142	0.262	0.219
-374.844	-7.760	0.160	-0.108
-373.829	-200.000	0.027	-0.126
-372.815	279.043	-0.098	-0.174
-371.800	-89.804	-0.086	-0.025
-370.785	-108.464	-0.543	0.117
-369.771	341.047	-0.187	-0.366
-368.756	-200.000	0.051	0.321
-367.742	-200.000	-0.004	0.253
-366.727	-113.542	0.286	0.056
-365.712	125.628	0.122	-0.154
-364.698	-200.000	0.040	-0.301
-363.683	-180.731	-0.278	0.006
-362.669	800.000	0.053	-0.150
-361.654	-165.499	-0.207	-0.009
-360.639	-35.806	0.091	0.049
-359.625	-106.779	-0.223	-0.050
-358.610	54.446	-0.182	-0.175
-357.596	189.029	0.085	0.127
-356.581	800.000	-0.074	-0.289
-355.566	-200.000	-0.034	-0.350
-354.552	86.700	-0.066	-0.072
-353.537	105.523	0.051	0.060
-352.523	-200.000	0.032	-0.198
-351.508	77.334	0.112	-0.119
-350.493	533.446	0.026	-0.061
-349.479	-131.068	-0.126	-0.017
-348.464	-71.613	0.162	-0.060
-347.450	-200.000	-0.020	0.322
-346.435	800.000	0.050	0.185
-345.420	352.729	-0.135	-0.268
-344.406	320.650	-0.033	0.062
-343.391	-50.533	-0.202	0.095
-342.377	38.471	-0.079	-0.071
-341.362	-200.000	-0.035	-0.196
-340.348	92.784	0.146	0.165
-339.333	-74.230	-0.176	-0.064
-338.318	-15.457	-0.105	-0.067
-337.304	800.000	-0.100	0.331
-336.289	329.172	-0.011	-0.021
-335.275	-61.180	-0.097	-0.041
-334.260	-66.393	0.165	0.066
-333.245	-200.000	-0.026	-0.295
-332.231	800.000	0.037	-0.120
-331.216	-200.000	-0.077	-0.342
-330.202	86.835	-0.200	0.221
-329.187	-200.000	0.016	0.342
-328.172	800.000	-0.091	-0.387
-327.158	-81.827	-0.142	-0.047
-326.143	-2.013	-0.053	-0.037
-325.129	-143.333	-0.088	-0.008
-324.114	-107.684	0.087	0.019
-323.099	-24.019	0.094	0.056
-322.085	800.000	-0.039	0.145
-321.070	800.000	0.066	0.211
-320.056	-141.383	-0.361	-0.037
-319.041	336.237	-0.091	-0.176
-318.026	-200.000	0.002	0.692
-317.012	-13.095	-0.123	-0.080
-315.997	96.386	0.096	0.109
-314.983	-200.000	0.201	-0.000
-313.968	38.991	-0.055	-0.050
-312.953	131.268	0.028	0.036
-311.939	-50.502	-0.305	-0.144
-310.924	-200.000	0.062	-0.371
-309.910	-111.812	0.262	0.053
-308.895	-78.289	-0.261	0.089
-307.880	-49.108	0.155	0.074
-306.866	49.776	-0.357	0.336
-305.851	85.233	0.140	0.153
-304.837	122.358	-0.027	-0.034
-303.822	800.000	-0.069	0.203
-302.807	-83.979	-0.243	0.077
-301.793	-123.833	-0.288	-0.045
-300.778	-200.000	0.018	-0.250
-299.764	-35.278	-0.303	-0.165
-298.749	83.074	0.149	0.162
-297.735	256.577	0.084	-0.143
-296.720	242.530	0.116	-0.194
-295.705	21.072	-0.231	-0.187
-294.691	56.223	-0.235	0.228
-293.676	272.010	0.165	-0.291
-292.662	62.274	0.217	-0.216
-291.647	268.765	-0.120	0.210
-290.632	-200.000	-0.027	-0.144
-289.618	-88.647	0.263	-0.078
-288.603	800.000	0.042	0.117
-287.589	-88.267	-0.230	-0.069
-286.574	-36.456	-0.145	-0.078
-285.559	-39.377	0.301	-0.158
-284.545	319.486	0.166	0.315
-283.530	800.000	-0.020	0.058
-282.516	800.000	-0.028	-0.078
-281.501	-200.000	-0.003	0.227
-280.486	82.324	-0.220	0.238
-279.472	496.745	0.104	-0.240
-278.457	-173.153	0.169	-0.005
-277.443	-76.584	0.090	-0.032
-276.428	756.309	-0.100	-0.270
-275.413	47.774	0.215	-0.200
-274.399	-191.243	0.091	0.001
-273.384	-34.557	-0.165	0.090
-272.370	-29.858	-0.318	0.181
-271.355	756.789	0.116	0.313
-270.340	-200.000	0.004	0.027
-269.326	-148.613	0.112	0.009
-268.311	64.849	0.215	-0.216
-267.297	-69.990	-0.111	-0.042
-266.282	-41.381	0.132	0.068
-265.267	11.129	0.129	0.099
-264.253	800.000	-0.037	0.153
-263.238	-200.000	0.004	0.029
-262.224	6.260	0.194	-0.143
-261.209	198.279	0.177	-0.269
-260.195	283.523	0.087	-0.157
-259.180	-105.122	-0.047	0.011
-258.165	653.575	-0.023	-0.060
-257.151	83.407	0.256	0.278
-256.136	-142.591	-0.187	0.018
-255.122	-73.751	-0.194	0.070
-254.107	-11.140	-0.082	-0.054
-253.092	-47.183	0.268	0.130
-252.078	103.921	-0.225	0.263
-251.063	-139.925	0.164	-0.017
-250.049	44.684	0.308	-0.282
-249.034	523.699	-0.046	-0.107
-248.019	800.000	0.022	-0.079
-247.005	-160.024	-0.286	-0.016
-245.990	739.847	0.160	-0.428
-244.976	168.018	0.119	-0.169
-243.961	77.950	-0.137	-0.145
-242.946	-16.041	-0.284	-0.180
-241.932	-78.229	0.138	-0.047
-240.917	238.621	-0.041	-0.067
-239.903	109.834	0.249	-0.297
-238.888	-83.331	-0.366	-0.117
-237.873	258.950	-0.262	0.450
-236.859	91.977	-0.141	0.158
-235.844	-150.543	0.077	-0.006
-234.830	31.051	0.303	0.258
-233.815	176.725	0.161	0.233
-232.800	-84.809	-0.220	0.069
-231.786	13.616	0.128	0.099
-230.771	-66.296	-0.394	0.156
-229.757	-55.345	-0.164	0.073
-228.742	442.090	-0.109	0.238
-227.727	14.155	0.212	0.164
-226.713	-113.737	-0.137	0.027
-225.698	-47.753	0.289	0.139
-224.684	-200.000	-0.003	0.026
-223.669	-171.893	0.294	0.010
-222.655	15.110	-0.079	-0.062
-221.640	-49.033	-0.195	0.093
-220.625	0.418	-0.267	0.190
-219.611	-6.148	0.108	0.074
-218.596	-187.993	0.189	0.002
-217.582	302.187	0.098	-0.180
-216.567	-18.349	-0.045	-0.028
-215.552	532.428	0.192	0.452
-214.538	21.769	0.118	0.096
-213.523	800.000	-0.034	-0.134
-212.509	-50.378	0.108	0.051
-211.494	31.736	0.134	0.115
-210.479	800.000	-0.041	-0.141
-209.465	609.172	0.086	-0.215
-208.450	-200.000	-0.011	0.085
-207.436	107.478	0.117	-0.138
-206.421	-79.198	-0.259	0.087
-205.406	165.013	0.278	-0.391
-204.392	256.758	0.089	-0.152
-203.377	274.236	-0.215	0.378
-202.363	-68.541	0.165	0.064
-201.348	79.022	-0.205	0.219
-200.333	-200.000	0.010	-0.072
-199.319	65.550	-0.158	-0.159
-198.304	800.000	-0.013	0.037
-197.290	-200.000	-0.002	0.059
-196.275	-49.223	0.494	-0.235
-195.260	145.643	0.087	0.115
-194.246	-200.000	0.069	0.517
-193.231	513.181	-0.132	0.306
-192.217	150.489	-0.169	0.228
-191.202	39.342	0.112	-0.099
-190.187	-200.000	0.015	0.118
-189.173	-200.000	0.022	0.167
-188.158	-200.000	-0.002	-0.022
-187.144	800.000	0.013	-0.054
-186.129	22.669	-0.297	-0.242
-185.114	279.537	0.039	0.070
-184.100	-84.372	-0.147	0.046
-183.085	203.806	-0.036	-0.056
-182.071	-200.000	0.031	-0.204
-181.056	204.124	0.149	-0.229
-180.042	46.499	0.142	0.131
-179.027	-12.843	-0.214	-0.139
-178.012	800.000	-0.092	0.305
-176.998	252.708	-0.128	-0.217
-175.983	800.000	-0.065	-0.201
-174.969	-67.398	-0.140	0.055
-173.954	75.527	0.198	-0.208
-172.939	-200.000	-0.002	0.129
-171.925	800.000	-0.063	0.183
-170.910	-200.000	0.010	0.255
-169.896	-138.581	-0.239	0.026
-168.881	24.757	-0.331	0.272
-167.866	-200.000	0.004	0.164
-166.852	-200.000	-0.010	-0.135
-165.837	68.131	0.261	-0.265
-164.823	-200.000	-0.007	0.242
-163.808	-113.219	0.173	0.034
-162.793	178.347	0.208	-0.301
-161.779	47.402	0.272	0.252
-160.764	800.000	0.037	0.157
-159.750	199.755	-0.164	0.250
-158.735	-200.000	-0.043	0.229
-157.720	-0.073	-0.241	0.170
-156.706	-200.000	-0.043	-0.325
-155.691	-76.560	0.151	-0.053
-154.677	-137.216	-0.163	0.018
-153.662	238.989	-0.063	-0.104
-152.647	50.653	-0.169	-0.158
-151.633	-120.244	-0.381	0.065
-150.618	-93.848	-0.254	-0.069
-149.604	-200.000	-0.016	0.405
-148.589	216.603	-0.105	-0.167
-147.574	-55.941	0.233	0.103
-146.560	-88.089	0.220	-0.065
-145.545	-200.000	-0.003	-0.257
-144.531	112.613	0.073	-0.087
-143.516	-200.000	-0.024	-0.153
-142.502	-54.399	0.163	0.073
-141.487	31.277	0.158	0.135
-140.472	800.000	0.048	0.192
-139.458	-200.000	0.004	-0.133
-138.443	-26.695	-0.173	0.101
-137.429	-59.922	-0.203	-0.086
-136.414	-89.280	-0.195	-0.057
-135.399	52.488	-0.325	0.308
-134.385	37.126	-0.086	0.075
-133.370	-104.467	0.233	-0.054
-132.356	112.489	-0.199	0.239
-131.341	575.779	0.127	0.306
-130.326	-200.000	0.004	0.086
-129.312	800.000	0.070	0.198
-128.297	-79.195	0.261	0.088
-127.283	739.841	0.092	0.245
-126.268	57.588	-0.121	0.118
-125.253	599.843	0.101	-0.249
-124.239	7.453	0.300	0.222
-123.224	170.722	-0.202	0.286
-122.210	390.373	0.217	0.446
-121.195	414.474	-0.116	0.246
-120.180	-200.000	-0.007	-0.237
-119.166	-42.206	-0.308	-0.156
-118.151	-200.000	-0.009	-0.262
-117.137	-200.000	-0.008	-0.115
-116.122	-86.480	0.414	0.126
-115.107	24.978	-0.209	0.172
-114.093	-53.007	-0.296	-0.135
-113.078	-76.459	0.074	-0.026
-112.064	411.745	-0.041	-0.086
-111.049	236.802	0.089	0.147
-110.034	175.788	0.093	-0.133
-109.020	-19.147	0.239	0.147
-108.005	-200.000	0.021	0.249
-106.991	800.000	0.075	0.242
-105.976	173.562	0.104	-0.149
-104.962	-77.718	0.428	0.147
-103.947	55.562	0.045	0.043
-102.932	-36.918	0.354	-0.188
-101.918	-8.129	-0.182	0.121
-100.903	-77.378	0.288	0.099
-99.889	-200.000	-0.001	-0.414
-98.874	294.098	-0.126	0.228
-97.859	-12.009	0.182	0.118
-96.845	100.153	0.156	0.179
-95.830	-106.603	0.134	0.030
-94.816	800.000	0.050	0.198
-93.801	-77.095	-0.156	-0.054
-92.786	218.771	0.083	-0.132
-91.772	609.316	0.138	0.341
-90.757	293.476	0.094	0.170
-89.743	800.000	0.079	-0.225
-88.728	542.293	0.101	0.239
-87.713	46.153	0.241	-0.221
-86.699	-56.118	0.087	-0.038
-85.684	87.054	0.077	0.084
-84.670	800.000	-0.064	0.218
-83.655	258.736	-0.170	0.290
-82.640	-27.589	-0.215	-0.124
-81.626	-104.060	-0.262	-0.060
-80.611	101.867	0.160	-0.185
-79.597	18.540	-0.372	0.295
-78.582	-51.994	-0.093	-0.043
-77.567	-65.438	-0.209	0.083
-76.553	-118.730	-0.032	-0.006
-75.538	653.230	-0.102	0.258
-74.524	62.275	0.095	0.094
-73.509	-139.074	-0.337	0.036
-72.494	314.143	0.129	0.240
-71.480	-79.894	0.113	0.038
-70.465	404.512	-0.036	-0.074
-69.451	695.281	-0.056	0.145
-68.436	-129.003	0.367	0.051
-67.422	-82.286	0.444	0.143
-66.407	-200.000	0.011	-0.104
-65.392	-132.472	-0.161	0.021
-64.378	-153.065	0.101	0.007
-63.363	-53.158	0.091	-0.041
-62.349	258.855	0.039	-0.066
-61.334	100.144	-0.801	-0.919
-60.319	97.261	0.336	0.382
-59.305	-200.000	-0.123	-1.019
-58.290	175.254	0.886	1.270
-57.276	533.566	0.696	1.630
-56.261	-200.000	93.404	549.907
-55.246	533.750	1373.856	3218.212
-54.232	157.510	2555.901	3498.421
-53.217	102.918	2308.503	2673.005
-52.203	40.221	2064.545	1835.795
-51.188	35.471	1978.961	1717.255
-50.173	33.934	1960.647	1687.661
-49.159	48.616	2008.312	1860.896
-48.144	50.140	2027.316	1892.138
-47.130	36.111	1989.699	1732.057
-46.115	33.796	1978.851	1701.825
-45.100	33.665	1976.145	1698.260
-44.086	33.586	1973.986	1695.625
-43.071	33.611	1971.186	1693.380
-42.057	33.566	1968.937	1690.975
-41.042	33.507	1967.760	1689.371
-40.027	33.642	1965.106	1688.231
-39.013	33.690	1962.693	1686.516
-37.998	33.714	1961.520	1685.654
-36.984	33.573	1959.693	1682.768
-35.969	33.719	1957.197	1681.850
-34.954	33.734	1956.253	1681.104
-33.940	33.700	1954.557	1679.280
-32.925	33.786	1953.062	1678.686
-31.911	33.740	1951.252	1676.664
-30.896	33.773	1949.511	1675.388
-29.881	33.796	1948.112	1674.323
-28.867	33.834	1946.138	1672.891
-27.852	33.850	1944.055	1671.176
-26.838	33.879	1942.143	1669.724
-25.823	33.803	1940.634	1667.693
-24.809	33.695	1939.459	1665.671
-23.794	33.790	1937.798	1665.009
-22.779	33.826	1935.249	1663.070
-21.765	33.833	1933.816	1661.831
-20.750	33.782	1932.020	1659.776
-19.736	33.739	1931.337	1658.748
-18.721	33.747	1929.645	1657.296
-17.706	33.795	1927.546	1655.849
-16.692	33.750	1926.273	1654.296
-15.677	33.788	1924.547	1653.079
-14.663	33.922	1922.389	1652.332
-13.648	33.863	1921.950	1651.374
-12.633	33.781	1921.088	1649.852
-11.619	33.742	1919.857	1648.393
-10.604	33.790	1917.868	1647.033
-9.590	33.744	1916.531	1645.422
-8.575	33.796	1914.959	1644.454
-7.560	33.729	1913.945	1642.944
-6.546	33.757	1912.740	1642.084
-5.531	33.823	1911.175	1641.244
-4.517	33.765	1910.313	1639.941
-3.502	33.766	1908.700	1638.499
-2.487	33.720	1907.775	1637.242
-1.473	33.715	1906.928	1636.404
-0.458	33.720	1902.199	1632.327
0.556	31.324	1881.246	1601.731
1.571	26.706	1859.524	1543.854
2.586	22.191	1881.056	1522.583
3.600	20.971	1916.369	1540.257
4.615	20.517	1911.845	1532.483
5.629	16.027	1812.515	1415.119
6.644	6.413	1691.124	1244.573
7.659	0.653	1651.013	1170.415
8.673	0.171	1647.120	1163.822
9.688	0.106	1645.579	1162.134
10.702	0.084	1644.742	1161.269
11.717	-0.041	1641.317	1157.781
12.731	0.545	1641.225	1162.124
13.746	7.331	1656.201	1225.214
14.761	15.816	1672.504	1303.128
15.775	17.924	1674.272	1320.717
16.790	17.066	1671.211	1311.553
17.804	15.899	1667.121	1299.230
18.819	14.951	1664.031	1289.401
19.834	14.265	1662.061	1282.481
20.848	14.028	1660.542	1279.368
21.863	13.710	1658.998	1275.619
22.877	13.537	1656.909	1272.570
23.892	13.262	1655.792	1269.495
24.907	13.146	1654.804	1267.735
25.921	13.139	1653.821	1266.815
26.936	13.187	1653.068	1266.493
27.950	13.201	1652.093	1265.740
28.965	13.209	1651.609	1265.317
29.980	13.264	1651.039	1265.186
30.994	13.312	1650.185	1264.787
32.009	13.344	1649.196	1264.164
33.023	13.456	1648.172	1264.124
34.038	13.384	1647.514	1262.960
35.053	13.459	1646.410	1262.571
36.067	13.347	1645.369	1260.812
37.082	13.350	1643.771	1259.493
38.096	13.285	1643.732	1258.862
39.111	13.394	1642.018	1258.262
40.126	13.390	1641.516	1257.739
41.140	13.329	1640.868	1256.668
42.155	13.230	1639.059	1254.415
43.169	13.217	1637.739	1253.195
44.184	13.163	1636.861	1252.008
45.199	13.127	1635.618	1250.674
46.213	13.140	1634.476	1249.790
47.228	13.175	1632.969	1248.791
48.242	13.260	1631.777	1248.404
49.257	13.352	1630.747	1248.200
50.271	13.193	1629.541	1245.970
51.286	13.191	1628.450	1245.013
52.301	13.248	1627.237	1244.403
53.315	13.299	1625.274	1243.178
54.330	13.227	1624.205	1241.709
55.344	13.247	1622.418	1240.379
56.359	13.149	1621.301	1238.686
57.374	13.181	1619.944	1237.774
58.388	13.194	1618.585	1236.725
59.403	13.221	1617.294	1235.833
60.417	13.132	1615.940	1234.021
61.432	13.115	1614.914	1233.006
62.447	13.156	1613.400	1232.042
63.461	13.056	1612.610	1230.587
64.476	13.058	1611.142	1229.371
65.490	13.079	1610.178	1228.680
66.505	13.035	1609.006	1227.355
67.520	13.043	1608.219	1226.703
68.534	13.096	1606.734	1225.854
69.549	13.106	1605.730	1225.059
70.563	13.131	1604.935	1224.526
71.578	13.040	1603.796	1222.877
72.593	13.032	1602.219	1221.502
73.607	13.020	1601.542	1220.796
74.622	12.997	1600.160	1219.458
75.636	12.929	1599.364	1218.240
76.651	12.995	1598.195	1217.736
77.666	13.041	1597.223	1217.223
78.680	13.041	1596.470	1216.542
79.695	13.039	1595.718	1215.846
80.709	13.031	1594.652	1214.871
81.724	12.945	1593.919	1213.570
82.739	13.147	1592.722	1214.033
83.753	13.083	1591.892	1212.826
84.768	13.164	1590.783	1212.469
85.782	13.253	1589.808	1212.271
86.797	13.297	1588.998	1211.869
87.812	13.237	1588.409	1210.868
88.826	13.192	1587.129	1209.460
89.841	13.164	1585.917	1208.222
90.855	13.225	1584.901	1207.785
91.870	13.186	1583.972	1206.687
92.884	13.382	1582.768	1207.096
93.899	13.273	1582.250	1205.797
94.914	13.301	1580.909	1204.877
95.928	13.317	1579.744	1203.994
96.943	13.361	1578.597	1203.334
97.957	13.349	1576.800	1201.769
98.972	13.290	1575.542	1200.280
99.987	13.301	1573.667	1198.824
101.001	13.197	1572.833	1197.332
102.016	13.305	1570.751	1196.421
103.030	13.354	1569.292	1195.558
104.045	13.344	1568.122	1194.488
105.060	13.287	1567.361	1193.393
106.074	13.308	1565.977	1192.380
107.089	13.237	1564.147	1190.375
108.103	13.219	1562.978	1189.248
109.118	13.070	1561.335	1186.820
110.133	13.054	1560.317	1185.824
111.147	13.043	1558.915	1184.575
112.162	13.091	1557.446	1183.701
113.176	13.057	1556.116	1182.342
114.191	13.156	1554.560	1181.761
115.206	13.253	1553.440	1181.499
116.220	13.196	1552.429	1180.221
117.235	13.211	1550.755	1178.951
118.249	13.172	1550.151	1178.107
119.264	13.103	1548.743	1176.445
120.279	13.259	1547.332	1176.374
121.293	13.074	1546.023	1173.965
122.308	13.059	1544.544	1172.632
123.322	13.081	1543.321	1171.754
124.337	13.090	1541.797	1170.553
125.352	13.132	1540.366	1169.664
126.366	13.061	1539.524	1168.416
127.381	13.138	1538.293	1167.923
128.395	13.068	1537.313	1166.585
129.410	13.086	1535.485	1165.219
130.424	13.075	1534.322	1164.154
131.439	13.199	1532.658	1163.663
132.454	13.179	1531.868	1162.821
133.468	13.229	1530.421	1161.969
134.483	13.260	1528.922	1160.948
135.497	13.319	1527.376	1160.083
136.512	13.239	1526.318	1158.616
137.527	13.232	1525.146	1157.578
138.541	13.344	1523.430	1156.955
139.556	13.294	1522.128	1155.511
140.570	13.228	1520.717	1153.881
141.585	13.343	1519.645	1153.767
142.600	13.404	1518.020	1152.855
143.614	13.478	1517.029	1152.515
144.629	13.473	1516.076	1151.653
145.643	13.429	1514.692	1150.196
146.658	13.558	1513.286	1149.921
147.673	13.468	1511.583	1147.904
148.687	13.500	1510.102	1146.902
149.702	13.388	1508.923	1145.126
150.716	13.362	1507.581	1143.828
151.731	13.420	1506.270	1143.130
152.746	13.387	1504.798	1141.688
153.760	13.314	1503.705	1140.255
154.775	13.354	1502.704	1139.670
155.789	13.478	1501.003	1139.129
156.804	13.476	1499.687	1138.015
157.819	13.396	1498.591	1136.534
158.833	13.425	1497.711	1135.964
159.848	13.616	1496.306	1136.112
160.862	13.659	1494.739	1135.114
161.877	13.593	1494.022	1134.020
162.892	13.626	1492.948	1133.325
163.906	13.490	1491.771	1131.407
164.921	13.475	1490.165	1129.987
165.935	13.455	1489.057	1128.908
166.950	13.413	1488.268	1127.922
167.964	13.449	1486.952	1127.072
168.979	13.539	1485.829	1126.731
169.994	13.541	1484.677	1125.775
171.008	13.552	1483.508	1124.859
172.023	13.636	1482.473	1124.546
173.037	13.538	1481.504	1123.047
174.052	13.590	1480.258	1122.358
175.067	13.598	1479.497	1121.737
176.081	13.619	1478.314	1120.881
177.096	13.583	1476.545	1119.195
178.110	13.585	1475.162	1118.066
179.125	13.537	1474.774	1117.347
180.140	13.610	1473.646	1116.887
181.154	13.608	1472.494	1115.901
182.169	13.725	1471.094	1115.528
183.183	13.632	1470.427	1114.299
184.198	13.784	1469.139	1114.247
185.213	13.748	1468.062	1113.085
186.227	13.670	1466.957	1111.629
187.242	13.769	1466.391	1111.764
188.256	13.896	1464.995	1111.457
189.271	13.837	1463.982	1110.195
190.286	13.914	1462.794	1109.710
191.300	13.882	1461.738	1108.597
192.315	13.781	1460.268	1106.710
193.329	13.567	1459.111	1104.307
194.344	13.624	1458.353	1104.020
195.359	13.676	1457.171	1103.373
196.373	13.658	1456.168	1102.392
197.388	13.717	1455.096	1101.879
198.402	13.919	1453.858	1102.181
199.417	13.961	1452.682	1101.473
200.432	14.039	1451.318	1100.859
201.446	14.011	1451.248	1100.523
202.461	13.999	1449.900	1099.322
203.475	13.993	1449.177	1098.638
204.490	14.076	1447.506	1097.821
205.504	13.937	1447.130	1096.521
206.519	13.977	1445.375	1095.358
207.534	13.986	1444.314	1094.519
208.548	13.995	1442.937	1093.438
209.563	13.888	1442.605	1092.386
210.577	14.004	1441.760	1092.413
211.592	14.007	1440.543	1091.411
212.607	14.023	1440.056	1091.051
213.621	14.205	1439.063	1091.397
214.636	14.282	1437.954	1090.962
215.650	14.201	1436.704	1089.386
216.665	14.139	1436.179	1088.485
217.680	14.154	1435.819	1088.213
218.694	14.165	1435.122	1087.665
219.709	14.292	1433.743	1087.351
220.723	14.309	1432.931	1086.751
221.738	14.239	1432.199	1085.643
222.753	14.237	1431.385	1084.917
223.767	14.279	1430.167	1084.173
224.782	14.277	1428.883	1083.089
225.796	14.270	1428.299	1082.504
226.811	14.311	1427.381	1081.976
227.826	14.390	1426.606	1081.812
228.840	14.429	1425.780	1081.343
229.855	14.325	1424.833	1079.853
230.869	14.335	1423.908	1079.122
231.884	14.329	1422.820	1078.159
232.899	14.333	1421.556	1077.131
233.913	14.367	1420.543	1076.488
234.928	14.202	1419.947	1074.877
235.942	14.303	1417.942	1073.914
236.957	14.276	1417.280	1073.148
237.972	14.215	1415.923	1071.629
238.986	14.344	1414.611	1071.374
240.001	14.354	1413.716	1070.665
241.015	14.439	1412.706	1070.349
242.030	14.369	1411.686	1069.031
243.045	14.420	1410.644	1068.475
244.059	14.361	1410.001	1067.516
245.074	14.444	1409.156	1067.314
246.088	14.440	1408.579	1066.757
247.103	14.423	1407.763	1065.936
248.117	14.475	1406.787	1065.438
249.132	14.582	1406.047	1065.462
250.147	14.627	1405.156	1064.985
251.161	14.776	1404.492	1065.335
252.176	14.845	1403.888	1065.225
253.190	14.808	1403.095	1064.292
254.205	14.761	1402.670	1063.578
255.220	14.902	1401.189	1063.253
256.234	14.796	1401.144	1062.450
257.249	14.764	1400.204	1061.444
258.263	14.908	1399.201	1061.503
259.278	14.884	1398.198	1060.493
260.293	14.831	1397.432	1059.482
261.307	14.838	1397.041	1059.139
262.322	14.898	1396.079	1058.695
263.336	14.989	1394.629	1058.078
264.351	15.016	1393.764	1057.497
265.366	15.088	1392.663	1057.023
266.380	15.008	1391.772	1055.747
267.395	15.124	1390.967	1055.777
268.409	15.158	1389.989	1055.155
269.424	15.117	1389.223	1054.219
270.439	15.034	1388.559	1053.104
271.453	14.974	1387.763	1052.030
272.468	14.976	1386.525	1051.013
273.482	15.011	1385.785	1050.577
274.497	15.028	1384.968	1049.972
275.512	15.085	1384.171	1049.630
276.526	15.024	1383.201	1048.422
277.541	15.117	1382.287	1048.213
278.555	15.090	1381.422	1047.296
279.570	15.200	1380.340	1047.074
280.585	15.100	1379.582	1045.781
281.599	15.102	1379.132	1045.361
282.614	15.141	1378.291	1044.874
283.628	15.203	1377.094	1044.259
284.643	15.107	1376.270	1042.945
285.657	15.191	1374.502	1042.034
286.672	15.184	1373.815	1041.381
287.687	15.275	1372.874	1041.138
288.701	15.235	1371.870	1040.034
289.716	15.152	1371.283	1038.986
290.730	15.300	1370.129	1038.937
291.745	15.276	1369.118	1037.928
292.760	15.262	1368.227	1037.077
293.774	15.164	1367.764	1036.025
294.789	15.261	1366.689	1035.718
295.803	15.354	1365.818	1035.542
296.818	15.384	1364.529	1034.657
297.833	15.452	1363.691	1034.351
298.847	15.472	1362.516	1033.488
299.862	15.413	1361.758	1032.460
300.876	15.391	1360.842	1031.540
301.891	15.358	1360.267	1030.811
302.906	15.435	1359.421	1030.550
303.920	15.472	1358.655	1030.108
304.935	15.635	1357.578	1030.193
305.949	15.508	1356.851	1028.774
306.964	15.653	1355.735	1028.727
307.979	15.638	1354.953	1027.947
308.993	15.589	1354.156	1026.956
310.008	15.613	1353.682	1026.649
311.022	15.621	1352.166	1025.458
312.037	15.789	1350.846	1025.394
313.052	15.770	1350.101	1024.618
314.066	15.636	1349.380	1023.167
315.081	15.681	1348.173	1022.434
316.095	15.609	1347.239	1021.197
317.110	15.615	1346.563	1020.628
318.125	15.609	1345.315	1019.561
319.139	15.697	1344.356	1019.277
320.154	15.591	1343.722	1018.063
321.168	15.675	1342.774	1017.765
322.183	15.583	1341.539	1016.181
323.197	15.633	1340.810	1015.838
324.212	15.730	1339.437	1015.297
325.227	15.773	1338.847	1015.020
326.241	15.711	1338.081	1013.971
327.256	15.739	1337.362	1013.505
328.270	15.904	1336.100	1013.456
329.285	15.744	1335.435	1011.898
330.300	15.780	1334.984	1011.681
331.314	15.818	1333.708	1010.853
332.329	15.802	1332.863	1010.028
333.343	15.848	1331.731	1009.355
334.358	15.753	1331.174	1008.277
335.373	15.765	1330.529	1007.770
336.387	15.845	1329.326	1007.248
337.402	15.966	1328.625	1007.350
338.416	15.916	1328.235	1006.667
339.431	15.953	1327.998	1006.621
340.446	15.965	1326.952	1005.812
341.460	15.998	1325.751	1005.011
342.475	16.036	1324.691	1004.341
343.489	16.108	1324.298	1004.385
344.504	16.175	1322.959	1003.682
345.519	16.205	1322.047	1003.076
346.533	16.192	1321.338	1002.371
347.548	16.137	1320.544	1001.352
348.562	16.221	1319.363	1000.870
349.577	16.183	1318.785	1000.118
350.592	16.303	1318.027	1000.162
351.606	16.139	1317.222	998.496
352.621	16.035	1315.897	996.785
353.635	16.113	1314.994	996.476
354.650	16.111	1314.443	995.956
355.665	16.125	1313.413	995.171
356.679	16.136	1312.444	994.411
357.694	16.224	1311.282	993.961
358.708	16.172	1310.039	992.629
359.723	16.323	1308.735	992.441
360.738	16.226	1308.377	991.509
361.752	16.240	1307.246	990.650
362.767	16.281	1305.957	989.822
363.781	16.305	1305.303	989.381
364.796	16.275	1304.671	988.638
365.810	16.305	1304.142	988.324
366.825	16.319	1303.053	987.493
367.840	16.438	1302.350	987.568
368.854	16.370	1301.880	986.727
369.869	16.474	1301.512	986.972
370.883	16.586	1300.394	986.691
371.898	16.535	1299.774	985.832
372.913	16.554	1298.621	984.982
373.927	16.555	1297.861	984.325
374.942	16.552	1297.186	983.708
375.956	16.486	1296.591	982.784
376.971	16.627	1295.498	982.691
377.986	16.618	1294.813	982.033
379.000	16.573	1293.770	980.892
380.015	16.610	1293.521	980.831
381.029	16.660	1292.818	980.499
382.044	16.637	1292.004	979.662
383.059	16.834	1290.898	979.879
384.073	16.772	1290.322	978.996
385.088	16.637	1290.405	978.192
386.102	16.732	1289.198	977.738
387.117	16.824	1288.247	977.462
388.132	16.780	1287.821	976.797
389.146	16.759	1286.903	975.895
390.161	16.821	1285.965	975.455
391.175	16.715	1285.315	974.263
392.190	16.808	1284.316	973.954
393.205	16.799	1283.518	973.210
394.219	16.856	1282.264	972.503
395.234	16.949	1281.305	972.223
396.248	16.921	1280.238	971.163
397.263	16.863	1278.907	969.741
398.278	16.845	1277.710	968.644
399.292	16.817	1276.301	967.330
400.307	16.880	1275.033	966.641
401.321	16.793	1274.286	965.493
402.336	16.689	1273.683	964.361
403.350	16.731	1273.018	964.009
404.365	16.795	1271.940	963.469
405.380	16.859	1270.827	962.905
406.394	16.958	1270.030	962.778
407.409	16.920	1269.505	962.080
408.423	17.002	1268.664	961.822
409.438	17.016	1268.052	961.355
410.453	17.092	1267.243	961.087
411.467	17.029	1266.921	960.402
412.482	17.127	1266.082	960.235
413.496	17.126	1265.654	959.817
414.511	17.140	1264.948	959.279
415.526	17.172	1263.916	958.592
416.540	17.283	1263.312	958.671
417.555	17.229	1262.362	957.565
418.569	17.351	1261.636	957.616
419.584	17.357	1261.283	957.295
420.599	17.221	1261.053	956.269
421.613	92.527	1345.388	1450.431
422.628	90.148	1357.633	1450.552
