DTS Sentinel unit serial number:	SN413079Multiplexer serial number:	ORYXHardware model number:	OX4-SRSoftware version number:	ORYX F/W v4.00 Oryx Data Collector v3.7.2.0data status	okinstallation	princeton_trtdifferential loss correction	single-endedforward channel	channel 4reverse channel	N/Adate	2019/09/12time	19:01:18forward acquisition time	15.00reverse acquisition time	0.00gamma	496.2192k internal	0.2308k external	0.2308temperature offset calibration	1.0133default loss term (dB/km)	0.3790temperature slope calibration	1.0000multiplexer offset coefficient	1.0000multiplexer slope coefficient	1.0000fibre end	0.00T internal ref (°C)	32.75T ext. ref 1 (°C)	3.01T ext. ref 2 (°C)	27.29length (m)	temperature (°C)	Stokes	anti-Stokes-747.200	-200.000	0.018	-0.778
-746.185	-15.469	-0.626	0.407
-745.171	239.793	-0.304	0.515
-744.156	-200.000	0.091	0.589
-743.142	-200.000	-0.136	-0.774
-742.127	140.999	-0.539	0.724
-741.112	-200.000	0.048	0.231
-740.098	-72.371	0.438	0.165
-739.083	-62.342	-0.409	0.173
-738.069	-139.369	0.106	0.012
-737.054	44.769	0.537	0.502
-736.039	-112.903	0.618	-0.124
-735.025	-168.229	0.426	-0.017
-734.010	800.000	0.197	0.656
-732.996	69.164	0.429	-0.448
-731.981	78.920	-0.887	-0.965
-730.966	-20.499	0.605	0.378
-729.952	-13.598	0.306	0.201
-728.937	-58.179	-0.545	-0.241
-727.923	-129.007	0.498	0.071
-726.908	800.000	0.069	0.255
-725.894	115.437	0.302	0.375
-724.879	79.822	0.480	0.523
-723.864	44.151	0.555	0.517
-722.850	-43.352	-0.885	-0.455
-721.835	800.000	-0.093	-0.413
-720.821	-200.000	-0.200	-1.083
-719.806	729.100	-0.166	0.451
-718.791	-200.000	0.002	-0.397
-717.777	-115.717	0.917	0.175
-716.762	-40.372	0.398	-0.210
-715.748	133.775	-0.372	0.489
-714.733	-147.109	-0.723	0.063
-713.718	-154.932	0.497	0.033
-712.704	635.069	0.223	0.574
-711.689	-200.000	0.018	0.417
-710.675	101.889	-0.215	0.255
-709.660	-37.444	0.341	-0.185
-708.645	377.327	-0.271	0.563
-707.631	160.785	0.412	0.584
-706.616	-84.700	-0.357	-0.114
-705.602	-200.000	0.067	0.561
-704.587	99.199	0.720	-0.844
-703.572	186.732	-0.306	0.463
-702.558	161.014	-0.256	0.363
-701.543	800.000	0.031	0.134
-700.529	321.399	-0.172	0.331
-699.514	-100.861	-0.307	0.077
-698.499	644.547	0.184	-0.477
-697.485	-112.111	-0.525	0.107
-696.470	-86.100	-0.326	0.102
-695.456	-86.556	0.623	-0.194
-694.441	132.658	0.317	-0.415
-693.426	-200.000	-0.006	0.438
-692.412	349.212	-0.204	0.408
-691.397	62.783	0.234	0.237
-690.383	800.000	0.159	-0.473
-689.368	-140.208	-0.577	-0.061
-688.354	84.326	0.081	-0.090
-687.339	-67.384	-0.100	0.040
-686.324	-200.000	-0.128	-0.973
-685.310	-109.810	-0.393	-0.084
-684.295	800.000	0.177	-0.499
-683.281	-166.079	-0.674	0.029
-682.266	96.046	0.249	0.289
-681.251	102.192	-0.516	-0.611
-680.237	473.458	0.084	0.193
-679.222	-114.829	-0.328	-0.063
-678.208	-61.202	0.152	0.065
-677.193	-200.000	-0.120	0.789
-676.178	-94.369	0.614	0.170
-675.164	-200.000	-0.082	-0.422
-674.149	700.126	-0.145	0.387
-673.135	-132.129	0.464	-0.061
-672.120	800.000	0.084	0.282
-671.105	206.774	0.148	0.234
-670.091	57.637	0.414	0.410
-669.076	-200.000	-0.100	0.584
-668.062	800.000	0.104	-0.305
-667.047	171.410	0.325	-0.472
-666.032	-187.721	-1.083	-0.014
-665.018	-157.418	-1.095	-0.067
-664.003	229.804	0.275	-0.456
-662.989	-200.000	-0.171	-1.187
-661.974	60.155	0.332	-0.333
-660.959	412.542	-0.039	-0.084
-659.945	201.240	-0.302	-0.471
-658.930	800.000	0.315	-0.886
-657.916	-108.930	0.093	-0.020
-656.901	-116.555	-0.785	0.147
-655.886	800.000	0.076	-0.239
-654.872	-48.890	-0.369	-0.179
-653.857	321.536	-0.389	-0.749
-652.843	-200.000	-0.160	-1.107
-651.828	-16.571	0.216	0.138
-650.814	-200.000	-0.083	0.409
-649.799	-30.846	-0.475	0.272
-648.784	-116.151	0.885	-0.166
-647.770	11.996	-0.456	0.355
-646.755	-133.069	0.245	-0.032
-645.741	800.000	0.327	-0.916
-644.726	165.048	0.507	0.725
-643.711	-68.191	0.223	0.088
-642.697	800.000	-0.281	0.967
-641.682	-200.000	0.023	0.585
-640.668	-103.814	0.499	0.118
-639.653	29.312	0.313	-0.269
-638.638	800.000	-0.122	0.519
-637.624	82.378	-0.367	-0.403
-636.609	218.464	0.305	0.493
-635.595	-115.168	-0.874	-0.168
-634.580	-119.157	-1.065	0.188
-633.565	-200.000	-0.060	-0.539
-632.551	-45.552	-0.165	-0.082
-631.536	800.000	0.151	-0.430
-630.522	8.786	-0.343	-0.262
-629.507	42.203	0.279	-0.257
-628.492	178.200	-0.501	0.739
-627.478	479.750	-0.161	-0.369
-626.463	-200.000	0.074	-0.649
-625.449	85.057	0.435	0.483
-624.434	800.000	-0.326	0.930
-623.419	-200.000	0.086	-0.534
-622.405	-32.689	0.437	-0.246
-621.390	-167.881	0.830	-0.033
-620.376	181.970	-0.329	-0.491
-619.361	800.000	-0.166	-0.658
-618.346	-141.154	0.993	-0.103
-617.332	119.681	-0.259	-0.325
-616.317	95.050	-0.361	0.415
-615.303	-90.106	-0.480	0.142
-614.288	800.000	-0.079	0.336
-613.273	-117.067	-0.600	-0.111
-612.259	800.000	0.217	0.697
-611.244	-200.000	0.100	0.479
-610.230	-122.636	0.982	-0.161
-609.215	138.964	0.280	0.372
-608.201	-21.911	0.482	0.296
-607.186	-200.000	0.014	-0.640
-606.171	102.399	-0.461	0.545
-605.157	162.153	0.407	0.577
-604.142	54.303	0.742	0.722
-603.128	-72.813	-0.522	-0.194
-602.113	-41.996	0.467	-0.242
-601.098	-94.218	0.480	0.133
-600.084	-16.165	-0.710	0.456
-599.069	202.510	-0.373	-0.581
-598.055	-12.779	-0.482	-0.317
-597.040	707.182	0.216	0.577
-596.025	800.000	-0.148	0.418
-595.011	-29.221	-0.100	0.058
-593.996	-29.012	0.851	-0.494
-592.982	-200.000	0.038	-0.672
-591.967	-154.148	0.461	-0.032
-590.952	-72.909	0.353	0.131
-589.938	61.093	0.200	-0.201
-588.923	19.415	-0.583	0.474
-587.909	266.928	-0.293	-0.518
-586.894	-200.000	0.020	0.218
-585.879	98.775	0.181	0.211
-584.865	-150.665	0.374	-0.029
-583.850	-200.000	0.112	-0.521
-582.836	111.897	0.523	-0.638
-581.821	-142.349	-0.895	-0.089
-580.806	126.962	0.035	-0.045
-579.792	34.757	-0.196	0.173
-578.777	59.879	-0.268	0.267
-577.763	156.852	0.019	0.027
-576.748	-200.000	-0.056	-0.811
-575.733	800.000	0.133	-0.386
-574.719	-200.000	0.052	-0.348
-573.704	-140.052	-1.091	-0.116
-572.690	-84.106	-0.300	-0.096
-571.675	220.195	-0.067	0.108
-570.661	-1.944	-0.306	0.217
-569.646	-77.021	0.095	-0.033
-568.631	-78.883	0.450	0.155
-567.617	-137.735	0.246	-0.028
-566.602	-87.886	-0.568	-0.173
-565.588	-200.000	0.036	0.746
-564.573	46.584	-0.444	-0.416
-563.558	78.339	0.364	0.393
-562.544	21.303	0.436	0.358
-561.529	-146.060	-0.648	-0.058
-560.515	-200.000	-0.072	-0.356
-559.500	800.000	-0.055	-0.234
-558.485	-200.000	0.089	-1.478
-557.471	800.000	-0.297	-1.140
-556.456	-200.000	-0.006	0.607
-555.442	-200.000	-0.011	0.470
-554.427	-126.196	-0.513	-0.077
-553.412	16.122	0.489	-0.389
-552.398	-114.161	0.835	0.163
-551.383	145.515	-0.470	-0.635
-550.369	-1.368	-1.235	-0.879
-549.354	-100.269	0.189	0.047
-548.339	507.536	-0.397	0.929
-547.325	-21.458	-0.342	0.210
-546.310	-44.853	0.593	0.298
-545.296	800.000	-0.043	0.155
-544.281	346.193	0.648	-1.284
-543.266	-14.449	-0.081	-0.053
-542.252	-200.000	0.030	-0.567
-541.237	-176.727	0.232	0.006
-540.223	143.257	-0.338	0.453
-539.208	366.240	-0.383	0.778
-538.193	-80.368	-0.261	-0.088
-537.179	124.065	0.586	-0.742
-536.164	-168.376	0.400	0.015
-535.150	-42.098	0.375	0.193
-534.135	-150.602	-0.146	0.011
-533.121	116.824	0.218	-0.270
-532.106	-200.000	0.014	-0.304
-531.091	-200.000	-0.374	-0.001
-530.077	-22.300	0.750	0.458
-529.062	-200.000	-0.081	-0.368
-528.048	116.153	-0.489	0.604
-527.033	-200.000	0.013	0.104
-526.018	67.648	0.242	-0.249
-525.004	65.214	0.871	0.888
-523.989	160.326	0.104	0.147
-522.975	-55.574	0.028	0.013
-521.960	-64.974	-0.513	-0.209
-520.945	151.147	0.305	0.418
-519.931	204.841	-0.311	-0.486
-518.916	141.966	-0.193	0.258
-517.902	800.000	-0.177	-0.672
-516.887	-138.911	-0.662	0.072
-515.872	3.787	0.498	0.366
-514.858	66.122	0.345	-0.353
-513.843	31.052	0.414	-0.357
-512.829	-79.198	-0.999	0.341
-511.814	-200.000	-0.069	-0.482
-510.799	-147.651	-0.223	-0.019
-509.785	141.063	-0.153	-0.204
-508.770	616.192	-0.223	-0.563
-507.756	-200.000	0.125	-0.580
-506.741	94.276	-0.459	-0.524
-505.726	-15.810	-0.407	-0.261
-504.712	-200.000	-0.086	0.449
-503.697	-200.000	-0.072	-0.423
-502.683	-109.462	-0.621	0.132
-501.668	-5.607	-0.587	0.405
-500.653	-149.093	-0.671	-0.054
-499.639	-24.501	0.705	-0.423
-498.624	-76.945	-0.413	-0.145
-497.610	-101.126	-0.615	0.152
-496.595	83.188	0.208	0.227
-495.581	-54.180	-1.125	0.515
-494.566	25.799	-0.393	-0.329
-493.551	-42.817	1.096	-0.561
-492.537	708.798	-0.144	0.383
-491.522	800.000	0.127	0.483
-490.508	-200.000	0.006	0.386
-489.493	357.598	0.260	0.522
-488.478	8.597	-0.551	0.418
-487.464	-79.046	0.677	-0.232
-486.449	-122.193	-0.526	-0.087
-485.435	-119.301	1.387	0.243
-484.420	-23.892	0.872	-0.525
-483.405	-200.000	0.259	1.264
-482.391	47.554	-0.248	0.233
-481.376	50.319	0.377	0.359
-480.362	268.582	0.423	-0.746
-479.347	-50.016	-0.762	0.363
-478.332	-63.840	0.438	0.181
-477.318	113.084	-0.099	-0.120
-476.303	-61.111	-0.275	0.117
-475.289	-200.000	-0.032	-0.492
-474.274	800.000	0.108	0.460
-473.259	-136.031	-0.141	0.017
-472.245	-175.493	-0.799	0.022
-471.230	51.243	-0.331	0.316
-470.216	-200.000	-0.197	0.875
-469.201	-137.954	0.305	-0.034
-468.186	554.431	-0.208	-0.504
-467.172	-96.894	-0.659	0.174
-466.157	-51.742	0.271	0.127
-465.143	120.958	0.250	-0.313
-464.128	146.470	-0.327	0.442
-463.113	800.000	0.176	-0.613
-462.099	-40.915	0.686	0.357
-461.084	-133.362	-0.325	0.041
-460.070	-63.648	0.531	-0.219
-459.055	162.101	0.084	0.118
-458.040	-25.945	0.288	-0.170
-457.026	136.357	0.080	-0.105
-456.011	82.351	0.357	0.390
-454.997	147.637	-0.818	1.108
-453.982	57.636	-0.946	-0.930
-452.968	-173.521	-0.793	-0.024
-451.953	-148.703	-0.503	0.041
-450.938	-99.493	0.909	0.230
-449.924	623.304	-0.091	0.232
-448.909	230.574	-0.239	0.393
-447.895	14.939	-0.551	0.433
-446.880	800.000	0.183	0.628
-445.865	800.000	-0.140	0.561
-444.851	9.058	-0.206	0.156
-443.836	-200.000	0.089	0.560
-442.822	-200.000	0.007	-0.511
-441.807	-200.000	0.004	-0.459
-440.792	64.119	0.290	0.294
-439.778	-200.000	0.012	0.192
-438.763	-106.385	0.905	0.203
-437.749	-1.488	0.538	0.381
-436.734	-200.000	-0.107	0.968
-435.719	-147.646	0.564	0.048
-434.705	-200.000	0.035	-0.774
-433.690	-200.000	0.129	-0.926
-432.676	-200.000	-0.052	-0.320
-431.661	-57.920	0.624	-0.274
-430.646	425.123	0.508	1.098
-429.632	-108.145	-0.529	0.115
-428.617	71.477	0.213	-0.222
-427.603	-200.000	-0.025	0.361
-426.588	411.504	0.232	0.495
-425.573	-75.794	0.443	0.158
-424.559	800.000	-0.115	0.495
-423.544	-17.015	-0.568	0.360
-422.530	94.620	0.402	-0.458
-421.515	-122.068	0.606	-0.100
-420.500	-76.689	-0.238	-0.084
-419.486	-73.919	-0.943	0.344
-418.471	-200.000	-0.065	0.350
-417.457	-88.957	0.616	-0.183
-416.442	548.939	-0.127	-0.306
-415.428	-200.000	-0.013	-0.146
-414.413	246.549	0.230	-0.388
-413.398	-200.000	0.070	-0.565
-412.384	353.055	-0.278	-0.554
-411.369	33.528	0.823	-0.718
-410.355	89.502	-0.519	-0.581
-409.340	26.067	0.293	0.245
-408.325	-104.683	-0.132	-0.031
-407.311	-90.369	-0.784	-0.228
-406.296	800.000	-0.180	0.620
-405.282	195.007	0.182	-0.277
-404.267	-200.000	0.023	-0.336
-403.252	-81.838	0.564	0.185
-402.238	458.773	0.341	0.761
-401.223	-200.000	0.234	1.166
-400.209	175.969	0.372	-0.542
-399.194	-54.567	-0.912	-0.414
-398.179	490.885	-0.202	-0.463
-397.165	-23.175	-0.309	0.187
-396.150	800.000	0.164	-0.568
-395.136	-10.836	0.626	-0.415
-394.121	424.122	-0.096	-0.206
-393.106	124.796	-0.246	-0.311
-392.092	250.733	0.314	-0.534
-391.077	95.508	0.545	0.624
-390.063	-107.523	-0.355	-0.078
-389.048	114.176	-0.107	0.131
-388.033	88.125	0.520	-0.578
-387.019	149.586	0.329	0.447
-386.004	228.896	0.262	0.429
-384.990	-116.142	0.446	-0.083
-383.975	111.175	0.461	-0.556
-382.960	-200.000	0.070	-0.714
-381.946	58.642	-0.422	-0.415
-380.931	338.912	0.081	0.157
-379.917	800.000	-0.118	-0.370
-378.902	622.026	0.134	0.337
-377.888	26.857	-0.262	-0.220
-376.873	123.797	0.246	0.310
-375.858	-200.000	0.104	0.693
-374.844	-53.492	0.344	0.158
-373.829	-200.000	-0.069	0.457
-372.815	458.224	-0.105	-0.233
-371.800	16.086	-0.559	0.442
-370.785	-40.321	-0.526	-0.274
-369.771	751.811	-0.089	-0.241
-368.756	-51.332	0.958	-0.449
-367.742	-51.347	-0.644	-0.302
-366.727	110.805	-0.500	-0.602
-365.712	47.578	-0.289	-0.270
-364.698	-91.336	-0.260	0.075
-363.683	-200.000	0.057	0.408
-362.669	-154.896	0.068	-0.004
-361.654	37.452	-0.413	-0.367
-360.639	26.453	-0.464	-0.388
-359.625	800.000	0.112	-0.406
-358.610	-8.620	0.826	0.555
-357.596	-37.011	0.316	-0.169
-356.581	661.128	0.226	0.582
-355.566	-66.929	-0.779	0.308
-354.552	-68.590	-0.450	-0.175
-353.537	-21.724	-0.391	0.238
-352.523	-40.451	-0.899	0.467
-351.508	-55.471	1.025	0.460
-350.493	-142.918	0.288	-0.028
-349.479	-180.191	0.152	-0.003
-348.464	800.000	0.079	0.340
-347.450	281.658	0.283	-0.508
-346.435	567.112	0.053	-0.130
-345.420	286.599	-0.322	-0.582
-344.406	277.217	0.231	-0.412
-343.391	-99.870	0.690	-0.173
-342.377	-6.231	-0.126	0.086
-341.362	2.096	-0.624	0.451
-340.348	592.276	0.170	-0.420
-339.333	800.000	0.127	-0.459
-338.318	41.354	-0.439	-0.397
-337.304	686.265	0.246	-0.642
-336.289	800.000	-0.142	-0.541
-335.275	-166.697	0.581	0.024
-334.260	-36.846	0.228	-0.123
-333.245	66.679	-0.173	0.176
-332.231	84.261	0.362	-0.395
-331.216	-200.000	0.075	-0.367
-330.202	-200.000	0.057	-0.850
-329.187	-51.897	-0.713	-0.332
-328.172	269.421	0.364	-0.639
-327.158	800.000	-0.042	0.159
-326.143	0.171	-0.929	0.662
-325.129	88.453	-0.480	0.533
-324.114	-200.000	0.035	0.393
-323.099	429.054	0.049	0.105
-322.085	211.683	0.164	0.258
-321.070	630.838	-0.294	0.744
-320.056	-148.719	0.116	0.009
-319.041	91.426	-0.399	-0.448
-318.026	679.094	-0.294	-0.764
-317.012	64.309	-0.243	0.245
-315.997	-14.994	-0.655	0.420
-314.983	-127.581	-0.456	0.066
-313.968	-76.145	0.878	0.310
-312.953	-4.363	0.286	-0.197
-311.939	-200.000	0.185	-1.005
-310.924	-71.668	-0.391	-0.146
-309.910	-51.431	-0.277	0.130
-308.895	-92.571	0.661	-0.185
-307.880	10.441	0.700	-0.533
-306.866	61.966	-0.524	-0.521
-305.851	-71.193	0.777	-0.292
-304.837	77.920	0.198	0.211
-303.822	383.626	0.091	-0.186
-302.807	800.000	0.103	0.432
-301.793	84.639	0.155	0.170
-300.778	25.188	0.461	0.382
-299.764	78.931	0.131	-0.140
-298.749	226.444	-0.127	-0.206
-297.735	-7.900	-0.071	0.048
-296.720	800.000	-0.105	-0.437
-295.705	50.567	0.471	0.445
-294.691	-82.802	0.820	0.265
-293.676	-72.195	-0.394	-0.146
-292.662	-200.000	-0.047	-0.487
-291.647	-200.000	-0.015	-0.306
-290.632	-68.611	0.565	0.218
-289.618	800.000	0.110	-0.468
-288.603	96.449	-0.701	0.801
-287.589	174.453	-0.342	0.493
-286.574	-200.000	-0.017	-0.202
-285.559	17.166	0.477	-0.378
-284.545	-200.000	0.025	0.224
-283.530	750.374	0.229	-0.616
-282.516	-79.193	0.315	0.107
-281.501	75.880	0.238	-0.251
-280.486	419.481	-0.140	0.299
-279.472	42.946	0.238	-0.217
-278.457	61.582	0.490	0.486
-277.443	-200.000	0.022	0.853
-276.428	15.942	-0.186	-0.146
-275.413	-200.000	0.081	-0.713
-274.399	368.259	-0.169	-0.340
-273.384	-56.370	-0.346	0.153
-272.370	-66.007	1.089	0.434
-271.355	-23.365	0.172	0.103
-270.340	194.634	-0.030	0.046
-269.326	-127.452	0.411	-0.060
-268.311	-63.072	-0.885	0.365
-267.297	-143.125	-0.521	-0.050
-266.282	51.723	-0.268	-0.255
-265.267	-200.000	0.093	-0.992
-264.253	4.388	-0.253	0.185
-263.238	-183.798	-0.285	-0.005
-262.224	-122.275	1.061	0.173
-261.209	-125.708	0.754	0.114
-260.195	-100.967	-0.534	0.131
-259.180	38.756	-0.354	-0.315
-258.165	121.875	-0.362	0.451
-257.151	-28.407	-0.258	0.149
-256.136	800.000	0.154	-0.586
-255.122	800.000	0.080	-0.253
-254.107	-87.882	0.648	0.194
-253.092	-87.834	-0.430	-0.129
-252.078	-38.023	0.859	-0.455
-251.063	-72.964	-0.917	0.336
-250.049	32.550	-0.072	-0.062
-249.034	-80.074	0.377	0.126
-248.019	63.921	0.246	0.246
-247.005	800.000	0.140	0.459
-245.990	-200.000	-0.027	-0.596
-244.976	148.787	0.080	-0.108
-243.961	-120.177	0.770	-0.131
-242.946	102.567	0.525	-0.612
-241.932	-200.000	-0.085	1.154
-240.917	-200.000	-0.191	-0.852
-239.903	623.978	0.290	0.729
-238.888	-17.370	-0.404	0.254
-237.873	-112.048	-0.778	-0.156
-236.859	-90.168	-0.431	-0.125
-235.844	-200.000	-0.116	0.646
-234.830	-151.585	-0.890	0.066
-233.815	-10.893	0.279	0.184
-232.800	800.000	0.075	0.293
-231.786	287.705	-0.196	-0.353
-230.771	141.779	0.239	-0.316
-229.757	-81.937	-0.478	0.156
-228.742	-12.595	-0.784	0.509
-227.727	-123.982	-0.510	0.080
-226.713	87.110	-0.593	-0.653
-225.698	435.411	-0.180	-0.391
-224.684	-40.685	-0.799	0.413
-223.669	-20.567	-0.370	0.226
-222.655	800.000	0.292	0.833
-221.640	191.366	0.781	1.171
-220.625	-26.649	0.936	-0.546
-219.611	466.938	0.329	-0.735
-218.596	-200.000	0.005	0.687
-217.582	-118.904	0.577	0.101
-216.567	-200.000	-0.025	0.116
-215.552	233.830	-0.255	-0.418
-214.538	17.108	-0.149	-0.118
-213.523	-189.818	0.612	0.007
-212.509	25.616	-0.160	0.133
-211.494	-200.000	0.032	-0.397
-210.479	153.164	-0.125	-0.171
-209.465	800.000	-0.285	-0.950
-208.450	671.056	-0.180	-0.465
-207.436	206.749	0.309	0.480
-206.421	-177.201	0.142	0.004
-205.406	78.278	-0.402	-0.427
-204.392	222.934	0.141	-0.227
-203.377	-189.222	0.073	-0.001
-202.363	285.641	-0.147	0.263
-201.348	444.626	0.392	0.857
-200.333	-119.194	-0.210	0.036
-199.319	19.723	0.319	0.255
-198.304	-31.480	-0.050	0.028
-197.290	-0.335	-0.694	0.491
-196.275	-200.000	0.054	-0.442
-195.260	374.259	0.074	-0.151
-194.246	240.126	-0.187	-0.310
-193.231	90.634	0.388	0.433
-192.217	-79.487	0.733	-0.247
-191.202	800.000	-0.051	-0.180
-190.187	-31.035	-0.266	-0.149
-189.173	566.189	-0.269	0.650
-188.158	-200.000	0.094	-0.492
-187.144	-67.025	0.230	-0.090
-186.129	75.893	0.761	0.800
-185.114	206.265	-0.013	-0.020
-184.100	-35.598	-0.217	-0.117
-183.085	307.107	0.742	1.375
-182.071	71.509	-0.120	-0.124
-181.056	273.860	-0.203	0.357
-180.042	-53.716	0.363	-0.165
-179.027	565.429	0.358	0.863
-178.012	-91.175	-0.376	0.107
-176.998	-200.000	-0.049	-0.315
-175.983	-50.920	0.474	-0.221
-174.969	-15.241	-0.126	-0.080
-173.954	6.786	0.355	0.263
-172.939	384.832	-0.093	0.190
-171.925	0.578	0.496	-0.352
-170.910	-103.890	-0.475	-0.110
-169.896	118.458	0.051	0.063
-168.881	472.962	-0.349	-0.781
-167.866	-74.570	-0.456	0.163
-166.852	-62.919	-0.683	-0.281
-165.837	-109.650	-0.483	0.101
-164.823	571.617	0.030	0.072
-163.808	-80.540	0.127	-0.042
-162.793	-95.372	-0.214	-0.057
-161.779	133.784	-0.289	-0.372
-160.764	-4.652	0.172	-0.118
-159.750	-200.000	-0.088	0.473
-158.735	-200.000	0.078	0.743
-157.720	67.570	0.320	0.324
-156.706	791.963	-0.143	0.390
-155.691	-101.342	-0.311	-0.075
-154.677	695.469	-0.257	0.670
-153.662	-200.000	0.049	-0.238
-152.647	9.647	-0.303	0.228
-151.633	800.000	0.186	0.687
-150.618	95.963	-0.203	-0.231
-149.604	-46.481	1.090	0.531
-148.589	23.559	0.247	-0.202
-147.574	-25.828	-0.377	-0.221
-146.560	190.505	-0.301	-0.449
-145.545	-200.000	0.060	0.442
-144.531	800.000	0.163	0.510
-143.516	211.814	-0.074	-0.116
-142.502	-167.113	0.702	-0.028
-141.487	22.081	-0.533	0.432
-140.472	800.000	-0.052	-0.146
-139.458	291.752	-0.026	-0.046
-138.443	135.215	0.287	0.371
-137.429	129.985	0.436	-0.553
-136.414	-91.222	-0.158	0.045
-135.399	-200.000	0.075	0.469
-134.385	273.131	0.264	-0.463
-133.370	-80.138	0.366	0.122
-132.356	154.747	-0.396	0.540
-131.341	-144.759	-0.363	0.033
-130.326	-200.000	0.070	-0.515
-129.312	-90.764	-0.757	0.217
-128.297	-148.652	-0.368	0.030
-127.283	-56.618	0.675	-0.297
-126.268	-172.109	0.359	0.011
-125.253	346.493	0.064	0.125
-124.239	-200.000	0.033	-0.505
-123.224	-77.725	-0.240	0.083
-122.210	199.635	0.341	0.518
-121.195	196.537	0.821	1.240
-120.180	-31.544	-0.220	-0.122
-119.166	-126.281	-0.814	0.121
-118.151	-200.000	-0.071	0.535
-117.137	376.018	0.312	0.632
-116.122	-75.156	0.589	0.209
-115.107	-44.029	-0.147	-0.073
-114.093	371.762	0.364	-0.733
-113.078	77.519	0.250	-0.264
-112.064	349.658	-0.107	-0.210
-111.049	11.588	0.383	-0.291
-110.034	631.081	-0.203	-0.510
-109.020	-37.799	0.477	0.252
-108.005	-86.033	0.331	-0.102
-106.991	-200.000	0.157	-0.694
-105.976	-200.000	0.158	-0.805
-104.962	-27.488	0.389	-0.224
-103.947	-111.845	-0.520	-0.104
-102.932	63.889	0.258	-0.257
-101.918	33.606	-0.452	-0.389
-100.903	-33.732	-0.219	0.120
-99.889	800.000	-0.128	-0.505
-98.874	342.533	-0.059	0.115
-97.859	26.288	0.367	-0.304
-96.845	-200.000	-0.025	-0.129
-95.830	-37.424	0.335	-0.177
-94.816	-148.419	0.155	0.013
-93.801	24.541	0.163	0.134
-92.786	-103.606	0.489	-0.114
-91.772	-127.519	1.104	-0.159
-90.757	-20.491	-0.608	-0.370
-89.743	0.214	-0.837	-0.592
-88.728	-128.157	0.585	0.083
-87.713	800.000	-0.213	-0.748
-86.699	-59.631	0.441	-0.188
-85.684	105.554	0.728	-0.852
-84.670	344.130	0.381	0.740
-83.655	-200.000	-0.006	0.089
-82.640	415.218	-0.252	0.532
-81.626	186.611	-0.385	-0.567
-80.611	800.000	-0.267	0.738
-79.597	-116.998	0.230	0.042
-78.582	-109.866	-0.128	-0.027
-77.567	-99.848	0.267	0.066
-76.553	-200.000	0.039	-0.363
-75.538	280.933	0.115	0.204
-74.524	57.582	0.870	0.842
-73.509	800.000	0.175	-0.645
-72.494	-200.000	-0.066	0.707
-71.480	800.000	0.049	0.133
-70.465	-91.844	-0.471	0.132
-69.451	-124.149	0.410	-0.064
-68.436	244.049	0.220	0.366
-67.422	-49.255	-0.904	-0.428
-66.407	74.758	-0.253	-0.263
-65.392	45.413	0.400	0.366
-64.378	-86.139	0.493	-0.150
-63.363	20.738	0.202	-0.162
-62.349	506.666	0.172	-0.394
-61.334	268.802	-0.831	-1.443
-60.319	-66.793	0.950	0.372
-59.305	314.085	-0.372	-0.694
-58.290	337.582	0.683	1.314
-57.276	800.000	0.401	1.562
-56.261	-200.000	95.436	581.452
-55.246	656.773	1358.850	3455.189
-54.232	199.395	2530.744	3839.057
-53.217	108.826	2280.581	2696.936
-52.203	39.466	2044.929	1812.635
-51.188	34.559	1962.843	1696.317
-50.173	33.041	1944.519	1667.040
-49.159	48.526	1996.254	1850.169
-48.144	49.262	2013.391	1872.563
-47.130	35.220	1975.647	1713.029
-46.115	32.900	1963.809	1682.049
-45.100	32.561	1963.923	1679.057
-44.086	32.566	1959.346	1675.120
-43.071	32.660	1957.332	1674.174
-42.057	32.810	1954.146	1672.713
-41.042	32.467	1953.616	1669.148
-40.027	32.686	1950.257	1668.149
-39.013	32.684	1949.147	1667.115
-37.998	32.563	1948.486	1665.414
-36.984	32.514	1946.139	1662.914
-35.969	32.526	1944.620	1661.655
-34.954	32.889	1941.621	1662.219
-33.940	32.591	1941.383	1659.331
-32.925	32.718	1938.821	1658.188
-31.911	32.690	1938.483	1657.589
-30.896	32.824	1935.708	1656.328
-29.881	32.778	1935.063	1655.306
-28.867	32.815	1933.117	1653.895
-27.852	32.828	1930.346	1651.580
-26.838	32.815	1928.361	1649.699
-25.823	32.969	1926.445	1649.343
-24.809	32.686	1926.398	1646.763
-23.794	32.774	1924.282	1645.654
-22.779	32.714	1922.114	1643.212
-21.765	32.713	1920.602	1641.842
-20.750	32.749	1918.277	1640.108
-19.736	32.790	1916.554	1638.925
-18.721	33.024	1915.492	1639.982
-17.706	32.656	1915.063	1636.355
-16.692	32.835	1911.050	1634.413
-15.677	32.823	1910.376	1633.665
-14.663	32.801	1909.100	1632.322
-13.648	32.860	1906.628	1630.656
-12.633	32.665	1908.228	1630.267
-11.619	32.921	1904.896	1629.568
-10.604	32.767	1904.241	1627.614
-9.590	32.724	1901.976	1625.242
-8.575	32.590	1902.462	1624.438
-7.560	32.846	1900.358	1624.786
-6.546	32.828	1899.325	1623.681
-5.531	32.787	1898.305	1622.392
-4.517	32.519	1897.559	1619.386
-3.502	32.779	1895.686	1619.959
-2.487	32.991	1894.006	1620.274
-1.473	32.689	1893.438	1617.138
-0.458	32.857	1887.437	1613.383
0.556	33.980	1867.885	1587.530
1.571	29.380	1849.408	1533.544
2.586	25.217	1871.660	1516.750
3.600	24.309	1905.449	1536.175
4.615	23.427	1900.681	1524.618
5.629	18.010	1800.934	1400.201
6.644	8.281	1682.065	1232.851
7.659	3.396	1644.605	1168.323
8.673	3.042	1641.119	1163.070
9.688	3.070	1639.624	1162.115
10.702	3.006	1637.801	1160.236
11.717	2.923	1634.968	1157.502
12.731	3.271	1635.126	1160.135
13.746	10.066	1649.930	1222.050
14.761	20.075	1671.404	1314.141
15.775	24.275	1679.292	1352.148
16.790	25.089	1679.459	1358.335
17.804	24.894	1678.918	1356.301
18.819	24.745	1677.739	1354.105
19.834	24.782	1676.714	1353.437
20.848	25.127	1674.523	1354.152
21.863	24.881	1674.973	1352.537
22.877	24.820	1672.638	1350.077
23.892	24.957	1673.389	1351.594
24.907	24.965	1673.597	1351.703
25.921	25.087	1671.891	1351.124
26.936	25.003	1670.678	1349.389
27.950	24.981	1669.408	1348.080
28.965	25.145	1668.817	1348.717
29.980	24.947	1667.892	1346.367
30.994	24.799	1667.838	1345.086
32.009	25.317	1665.183	1346.712
33.023	25.190	1665.291	1345.733
34.038	25.275	1663.740	1344.992
35.053	25.101	1663.340	1343.251
36.067	25.118	1662.120	1342.271
37.082	24.993	1661.980	1341.106
38.096	24.924	1660.749	1339.477
39.111	24.894	1660.055	1338.574
40.126	25.111	1658.359	1338.705
41.140	25.131	1657.731	1338.230
42.155	25.038	1656.420	1336.365
43.169	24.974	1654.775	1334.436
44.184	24.709	1653.902	1331.641
45.199	24.950	1652.980	1332.574
46.213	24.650	1652.657	1329.966
47.228	24.628	1652.745	1329.757
48.242	24.882	1649.498	1328.916
49.257	25.036	1648.088	1328.798
50.271	24.797	1648.455	1327.206
51.286	24.860	1646.857	1326.269
52.301	24.959	1646.072	1326.250
53.315	25.013	1643.969	1324.842
54.330	24.863	1642.998	1322.832
55.344	25.204	1641.106	1323.710
56.359	24.950	1640.079	1320.887
57.374	24.998	1639.197	1320.419
58.388	24.685	1638.850	1317.711
59.403	24.851	1637.977	1318.120
60.417	24.863	1636.206	1316.666
61.432	25.161	1633.820	1316.814
62.447	24.784	1633.830	1313.941
63.461	24.936	1633.339	1314.541
64.476	24.707	1633.076	1312.536
65.490	24.842	1630.683	1311.484
66.505	24.928	1629.704	1311.211
67.520	24.763	1628.829	1309.186
68.534	24.874	1628.804	1309.861
69.549	25.039	1626.388	1309.007
70.563	24.993	1625.991	1308.236
71.578	24.811	1624.160	1305.323
72.593	24.888	1623.425	1305.174
73.607	24.776	1623.480	1304.283
74.622	24.561	1622.961	1302.183
75.636	24.879	1620.860	1302.698
76.651	24.898	1621.126	1302.935
77.666	24.983	1619.641	1302.248
78.680	24.742	1618.360	1299.347
79.695	24.611	1617.725	1297.775
80.709	24.827	1616.599	1298.327
81.724	24.952	1616.162	1298.764
82.739	24.971	1615.331	1298.117
83.753	25.115	1614.558	1298.423
84.768	25.047	1613.641	1297.083
85.782	25.226	1614.062	1298.603
86.797	25.511	1612.092	1298.957
87.812	25.419	1611.824	1297.968
88.826	25.264	1611.103	1296.154
89.841	25.100	1609.966	1293.941
90.855	25.075	1608.105	1292.145
91.870	25.082	1608.644	1292.515
92.884	25.158	1607.303	1291.870
93.899	25.494	1605.648	1292.846
94.914	25.379	1604.903	1291.301
95.928	25.364	1603.355	1289.833
96.943	25.294	1602.835	1288.802
97.957	25.242	1601.229	1287.021
98.972	25.214	1599.753	1285.520
99.987	25.452	1598.937	1286.458
101.001	25.333	1596.439	1283.480
102.016	25.492	1596.269	1284.372
103.030	25.302	1594.456	1281.436
104.045	25.124	1593.550	1279.326
105.060	25.396	1591.939	1279.863
106.074	25.258	1590.626	1277.709
107.089	25.116	1588.849	1275.157
108.103	24.907	1588.136	1272.985
109.118	24.681	1587.123	1270.454
110.133	24.636	1586.688	1269.675
111.147	24.828	1584.628	1269.279
112.162	24.935	1583.330	1268.887
113.176	24.900	1582.904	1268.181
114.191	24.973	1580.861	1266.952
115.206	25.148	1579.497	1266.979
116.220	24.851	1578.462	1263.938
117.235	24.897	1577.403	1263.307
118.249	25.161	1576.012	1263.942
119.264	24.719	1575.303	1260.145
120.279	24.608	1573.938	1258.165
121.293	24.699	1572.971	1257.917
122.308	25.035	1572.331	1259.658
123.322	25.016	1570.105	1257.626
124.337	24.733	1569.650	1255.166
125.352	24.639	1567.820	1252.933
126.366	24.651	1567.573	1252.713
127.381	24.722	1566.348	1252.115
128.395	24.794	1564.243	1250.826
129.410	24.792	1564.112	1250.601
130.424	24.684	1563.512	1249.252
131.439	24.595	1562.066	1247.363
132.454	24.650	1560.108	1246.074
133.468	24.720	1559.394	1245.883
134.483	24.780	1558.491	1245.469
135.497	25.046	1557.192	1246.171
136.512	24.924	1555.594	1243.934
137.527	24.889	1554.791	1242.936
138.541	24.969	1553.187	1242.101
139.556	24.986	1552.946	1241.918
140.570	24.888	1552.034	1240.397
141.585	24.992	1550.152	1239.505
142.600	25.225	1550.010	1240.893
143.614	25.034	1549.405	1238.976
144.629	25.213	1548.123	1239.079
145.643	25.132	1546.980	1237.499
146.658	25.413	1545.053	1237.778
147.673	25.215	1542.960	1234.629
148.687	25.073	1543.120	1233.674
149.702	25.118	1542.044	1233.014
150.716	25.067	1540.728	1231.505
151.731	24.896	1538.295	1228.277
152.746	24.856	1535.594	1225.737
153.760	24.648	1536.247	1224.727
154.775	24.611	1535.502	1223.771
155.789	25.228	1534.227	1226.866
156.804	25.137	1533.188	1225.302
157.819	25.371	1532.028	1225.867
158.833	24.924	1530.851	1221.766
159.848	25.020	1529.838	1221.501
160.862	25.246	1528.628	1221.970
161.877	25.240	1528.434	1221.665
162.892	25.313	1525.563	1219.761
163.906	25.185	1525.137	1218.438
164.921	24.983	1524.715	1216.624
165.935	24.862	1523.701	1214.886
166.950	25.008	1521.990	1214.403
167.964	24.950	1522.170	1214.049
168.979	25.369	1520.407	1215.367
169.994	25.020	1520.114	1212.669
171.008	25.150	1519.223	1212.728
172.023	25.025	1517.557	1210.445
173.037	24.963	1517.184	1209.619
174.052	25.099	1515.637	1209.196
175.067	25.409	1514.150	1209.992
176.081	25.078	1513.664	1207.272
177.096	25.041	1513.120	1206.479
178.110	24.924	1510.930	1203.839
179.125	25.324	1509.641	1205.393
180.140	24.924	1510.139	1203.000
181.154	24.989	1508.829	1202.284
182.169	24.936	1508.667	1201.689
183.183	25.018	1507.831	1201.468
184.198	25.266	1506.107	1201.648
185.213	25.241	1505.575	1200.955
186.227	25.393	1503.249	1200.008
187.242	25.207	1503.813	1199.106
188.256	25.212	1503.468	1198.761
189.271	25.391	1501.978	1198.663
190.286	25.418	1499.646	1196.874
191.300	25.053	1500.269	1194.832
192.315	25.182	1499.565	1195.027
193.329	24.996	1497.537	1192.065
194.344	25.105	1497.097	1192.332
195.359	25.277	1495.938	1192.451
196.373	25.088	1495.708	1190.903
197.388	24.817	1493.822	1187.499
198.402	24.751	1492.442	1185.858
199.417	24.842	1491.300	1185.446
200.432	25.145	1491.709	1187.679
201.446	25.244	1491.425	1187.998
202.461	25.322	1491.249	1188.274
203.475	25.245	1488.799	1185.706
204.490	25.339	1487.572	1185.244
205.504	25.019	1486.504	1182.176
206.519	24.847	1485.724	1180.316
207.534	24.953	1485.185	1180.482
208.548	24.777	1484.336	1178.545
209.563	24.859	1482.161	1177.254
210.577	24.832	1481.923	1176.785
211.592	24.853	1480.809	1175.934
212.607	24.801	1479.690	1174.599
213.621	25.030	1479.423	1175.787
214.636	25.428	1479.473	1178.328
215.650	25.112	1478.349	1175.261
216.665	24.808	1477.430	1172.433
217.680	25.037	1477.392	1173.801
218.694	25.426	1476.857	1175.817
219.709	25.506	1475.392	1175.074
220.723	25.274	1474.707	1172.906
221.738	25.178	1473.878	1171.517
222.753	25.257	1471.947	1170.392
223.767	25.149	1472.260	1169.831
224.782	24.819	1471.131	1166.681
225.796	24.992	1470.000	1166.809
226.811	25.089	1470.055	1167.379
227.826	25.259	1468.589	1167.221
228.840	25.343	1467.374	1166.698
229.855	25.273	1467.156	1165.965
230.869	24.874	1467.249	1163.342
231.884	24.935	1464.560	1161.503
232.899	24.995	1463.554	1160.990
233.913	24.887	1462.202	1159.114
234.928	24.748	1461.027	1157.185
235.942	24.720	1460.572	1156.540
236.957	25.141	1458.423	1157.456
237.972	24.910	1457.002	1154.735
238.986	24.768	1456.482	1153.304
240.001	24.549	1455.428	1150.959
241.015	24.901	1455.064	1152.833
242.030	24.812	1454.344	1151.588
243.045	24.574	1454.010	1149.688
244.059	25.007	1451.608	1150.471
245.074	25.273	1450.970	1151.567
246.088	25.095	1450.964	1150.319
247.103	25.033	1451.144	1149.964
248.117	25.345	1449.920	1150.894
249.132	25.416	1448.819	1150.373
250.147	25.372	1448.952	1150.092
251.161	25.595	1448.429	1151.007
252.176	25.645	1448.448	1151.236
253.190	25.981	1446.784	1151.961
254.205	25.755	1446.686	1150.336
255.220	25.752	1445.480	1149.259
256.234	25.687	1445.919	1149.089
257.249	25.919	1443.844	1148.815
258.263	25.999	1443.659	1149.079
259.278	25.745	1442.124	1146.135
260.293	25.705	1441.844	1145.560
261.307	25.756	1440.207	1144.483
262.322	25.814	1439.301	1144.031
263.336	25.843	1440.627	1145.162
264.351	25.817	1437.711	1142.581
265.366	25.725	1437.185	1141.481
266.380	25.676	1437.270	1141.135
267.395	25.914	1435.077	1140.801
268.409	25.843	1434.901	1140.112
269.424	25.800	1433.931	1138.966
270.439	25.735	1432.424	1137.255
271.453	25.823	1431.818	1137.229
272.468	25.723	1431.237	1136.039
273.482	25.623	1431.181	1135.262
274.497	25.549	1430.018	1133.773
275.512	25.428	1428.864	1131.996
276.526	25.624	1427.284	1131.876
277.541	25.257	1426.330	1128.711
278.555	25.396	1425.848	1129.104
279.570	25.484	1425.277	1129.106
280.585	25.485	1424.408	1128.321
281.599	25.631	1424.547	1129.252
282.614	26.019	1422.581	1130.024
283.628	25.872	1421.659	1128.272
284.643	25.327	1421.068	1124.286
285.657	25.444	1418.963	1123.253
286.672	25.383	1418.812	1122.654
287.687	25.598	1417.910	1123.184
288.701	25.430	1416.866	1121.211
289.716	25.558	1417.049	1122.057
290.730	25.720	1415.423	1121.680
291.745	25.486	1414.652	1119.507
292.760	25.435	1414.278	1118.796
293.774	25.695	1412.475	1118.887
294.789	25.317	1412.594	1116.530
295.803	25.740	1412.063	1118.642
296.818	25.849	1410.484	1117.973
297.833	25.623	1410.235	1116.271
298.847	25.663	1409.191	1115.596
299.862	25.642	1407.799	1114.265
300.876	25.732	1406.787	1113.919
301.891	25.592	1406.191	1112.484
302.906	25.603	1405.537	1111.935
303.920	25.603	1405.422	1111.749
304.935	25.851	1404.886	1112.755
305.949	25.818	1404.513	1112.158
306.964	25.924	1402.995	1111.511
307.979	25.906	1402.269	1110.730
308.993	25.931	1401.066	1109.831
310.008	25.769	1399.973	1107.867
311.022	26.158	1397.471	1108.183
312.037	26.039	1397.734	1107.560
313.052	26.036	1397.498	1107.259
314.066	25.977	1395.814	1105.464
315.081	25.794	1395.234	1103.788
316.095	25.387	1394.988	1100.997
317.110	25.357	1393.220	1099.322
318.125	25.482	1392.345	1099.299
319.139	25.626	1390.481	1098.611
320.154	25.515	1390.000	1097.452
321.168	25.431	1388.726	1095.836
322.183	25.493	1387.482	1095.137
323.197	25.679	1386.564	1095.448
324.212	25.572	1386.696	1094.802
325.227	25.465	1386.369	1093.798
326.241	25.666	1385.424	1094.177
327.256	25.592	1384.600	1092.984
328.270	25.686	1383.698	1092.742
329.285	25.460	1382.772	1090.544
330.300	25.809	1381.179	1091.305
331.314	25.661	1380.613	1089.869
332.329	25.688	1380.945	1090.193
333.343	25.719	1378.627	1088.457
334.358	25.338	1379.074	1086.406
335.373	25.675	1377.991	1087.498
336.387	25.850	1378.165	1088.593
337.402	25.947	1377.305	1088.403
338.416	26.051	1376.073	1087.962
339.431	25.720	1376.129	1085.911
340.446	26.027	1374.991	1086.769
341.460	26.123	1373.774	1086.287
342.475	26.061	1374.612	1086.481
343.489	26.255	1373.088	1086.349
344.504	26.374	1371.566	1085.764
345.519	26.125	1371.092	1083.795
346.533	26.224	1370.418	1083.761
347.548	26.155	1369.883	1082.832
348.562	26.370	1367.992	1082.525
349.577	26.384	1367.507	1082.129
350.592	26.336	1367.056	1081.389
351.606	25.852	1366.509	1077.966
352.621	25.941	1365.129	1077.312
353.635	26.042	1362.551	1075.789
354.650	25.783	1362.877	1074.403
355.665	25.917	1360.683	1073.379
356.679	25.915	1359.917	1072.664
357.694	25.792	1359.672	1071.649
358.708	25.725	1359.150	1070.743
359.723	26.112	1357.826	1071.905
360.738	25.943	1356.177	1069.503
361.752	26.100	1355.873	1070.099
362.767	26.005	1354.311	1068.209
363.781	26.166	1352.630	1067.744
364.796	26.120	1351.705	1066.647
365.810	26.079	1351.730	1066.329
366.825	26.161	1351.700	1066.695
367.840	26.486	1351.443	1068.318
368.854	26.597	1350.322	1067.991
369.869	26.501	1350.153	1067.199
370.883	26.498	1348.909	1066.099
371.898	26.508	1347.904	1065.274
372.913	26.414	1346.906	1063.838
373.927	26.107	1346.534	1061.643
374.942	26.248	1345.721	1061.735
375.956	26.640	1344.954	1063.340
376.971	26.448	1344.838	1062.024
377.986	26.199	1344.471	1060.181
379.000	26.354	1342.630	1059.542
380.015	26.229	1342.083	1058.284
381.029	26.689	1341.436	1060.376
382.044	26.350	1341.442	1058.303
383.059	26.697	1339.804	1058.945
384.073	26.615	1339.289	1057.964
385.088	26.465	1338.487	1056.361
386.102	26.375	1338.255	1055.561
387.117	26.309	1338.484	1055.264
388.132	26.313	1337.673	1054.551
389.146	26.301	1335.287	1052.505
390.161	26.244	1333.967	1051.045
391.175	26.271	1334.134	1051.241
392.190	25.928	1333.920	1048.981
393.205	26.039	1332.350	1048.299
394.219	26.247	1332.307	1049.380
395.234	26.532	1331.301	1050.150
396.248	26.573	1329.861	1049.156
397.263	26.210	1328.448	1045.846
398.278	26.040	1326.934	1043.582
399.292	26.188	1325.435	1043.163
400.307	26.064	1325.072	1042.073
401.321	26.241	1324.433	1042.500
402.336	26.111	1323.950	1041.275
403.350	25.923	1321.968	1038.539
404.365	25.966	1320.867	1037.829
405.380	25.890	1320.264	1036.832
406.394	26.393	1319.705	1039.190
407.409	26.374	1319.489	1038.816
408.423	26.083	1319.124	1036.769
409.438	26.265	1318.520	1037.245
410.453	26.474	1318.496	1038.335
411.467	26.630	1316.908	1037.887
412.482	26.329	1316.562	1035.801
413.496	26.597	1316.029	1036.823
414.511	26.580	1315.181	1035.962
415.526	26.566	1315.010	1035.660
416.540	26.785	1313.892	1035.938
417.555	26.742	1313.057	1034.943
418.569	26.804	1311.882	1034.277
419.584	26.505	1311.582	1032.243
420.599	26.530	1311.115	1031.928
421.613	142.362	1435.624	1792.580
422.628	138.093	1453.729	1792.668
