DTS Sentinel unit serial number:	SN413079Multiplexer serial number:	ORYXHardware model number:	OX4-SRSoftware version number:	ORYX F/W v4.00 Oryx Data Collector v3.7.2.0data status	okinstallation	princeton_trtdifferential loss correction	single-endedforward channel	channel 4reverse channel	N/Adate	2019/09/16time	06:21:35forward acquisition time	60.00reverse acquisition time	0.00gamma	496.2192k internal	0.2320k external	0.2320temperature offset calibration	0.9981default loss term (dB/km)	0.3790temperature slope calibration	1.0000multiplexer offset coefficient	1.0000multiplexer slope coefficient	1.0000fibre end	0.00T internal ref (°C)	27.44T ext. ref 1 (°C)	11.35T ext. ref 2 (°C)	21.64length (m)	temperature (°C)	Stokes	anti-Stokes-747.200	-200.000	0.007	-0.085
-746.185	-133.843	0.274	0.034
-745.171	-161.595	-0.109	-0.006
-744.156	343.223	-0.199	0.394
-743.142	65.083	-0.096	0.098
-742.127	266.462	-0.176	0.310
-741.112	13.788	0.369	0.290
-740.098	385.407	-0.106	0.221
-739.083	-67.948	-0.119	-0.047
-738.069	320.086	-0.088	-0.170
-737.054	-71.736	-0.368	-0.139
-736.039	-59.516	-0.313	-0.136
-735.025	-27.446	0.356	0.209
-734.010	183.411	0.053	-0.079
-732.996	244.807	-0.083	-0.141
-731.981	-57.733	-0.096	0.042
-730.966	-120.455	-0.533	-0.091
-729.952	-52.108	0.094	0.044
-728.937	-11.013	-0.378	-0.252
-727.923	415.166	0.173	-0.373
-726.908	-112.170	0.148	-0.030
-725.894	-55.061	0.136	-0.062
-724.879	-48.813	-0.109	-0.053
-723.864	-71.238	-0.089	-0.034
-722.850	-34.760	0.091	-0.050
-721.835	-120.183	0.496	0.086
-720.821	-183.849	0.271	-0.005
-719.806	-76.314	-0.134	-0.048
-718.791	800.000	0.077	-0.319
-717.777	-154.502	0.180	0.012
-716.762	-200.000	0.000	0.091
-715.748	281.940	-0.064	-0.115
-714.733	-200.000	0.019	-0.095
-713.718	-52.832	-0.190	-0.088
-712.704	244.165	0.137	0.232
-711.689	800.000	-0.054	-0.201
-710.675	157.290	-0.022	-0.030
-709.660	-200.000	0.014	-0.406
-708.645	263.980	-0.050	-0.088
-707.631	120.022	-0.154	-0.192
-706.616	-35.243	-0.394	0.216
-705.602	-200.000	0.016	-0.139
-704.587	-200.000	0.071	0.000
-703.572	-176.528	-0.267	-0.007
-702.558	-40.631	-0.159	-0.083
-701.543	-200.000	0.042	0.358
-700.529	554.767	0.156	0.379
-699.514	-89.152	-0.132	-0.039
-698.499	800.000	-0.113	0.370
-697.485	-118.975	-0.410	-0.072
-696.470	1.830	-0.146	0.107
-695.456	615.205	0.054	0.136
-694.441	-200.000	-0.020	-0.205
-693.426	800.000	-0.068	-0.292
-692.412	70.214	-0.195	-0.203
-691.397	100.948	-0.188	0.221
-690.383	-41.357	-0.193	-0.101
-689.368	296.370	-0.139	-0.258
-688.354	75.751	-0.245	-0.261
-687.339	-175.696	-0.141	-0.004
-686.324	-17.251	0.174	-0.110
-685.310	34.047	0.008	0.007
-684.295	185.798	0.174	-0.261
-683.281	389.570	-0.108	-0.225
-682.266	-200.000	-0.004	-0.097
-681.251	-139.926	-0.161	-0.017
-680.237	-122.176	-0.356	-0.059
-679.222	800.000	0.101	-0.303
-678.208	-81.165	-0.240	-0.080
-677.193	-21.402	-0.103	0.063
-676.178	499.515	-0.056	0.130
-675.164	800.000	0.138	-0.444
-674.149	-200.000	-0.012	0.156
-673.135	800.000	-0.032	0.135
-672.120	-65.511	-0.056	0.023
-671.105	-80.715	0.161	-0.054
-670.091	-43.614	-0.309	-0.157
-669.076	229.805	-0.134	0.221
-668.062	-26.053	0.102	0.060
-667.047	-15.664	-0.031	-0.020
-666.032	475.036	-0.140	-0.318
-665.018	-54.354	-0.182	-0.083
-664.003	44.245	0.101	0.094
-662.989	79.149	0.057	-0.061
-661.974	-45.738	0.152	-0.076
-660.959	-148.516	0.455	-0.037
-659.945	-2.203	0.205	-0.145
-658.930	-200.000	-0.015	0.091
-657.916	-57.398	-0.130	-0.058
-656.901	-36.527	-0.270	-0.147
-655.886	274.911	-0.089	-0.158
-654.872	408.560	-0.117	-0.250
-653.857	145.118	0.061	-0.083
-652.843	441.221	0.018	0.041
-651.828	-63.154	0.303	-0.126
-650.814	800.000	-0.061	-0.179
-649.799	-81.091	-0.228	0.076
-648.784	800.000	-0.058	-0.208
-647.770	514.672	-0.020	0.048
-646.755	422.815	-0.147	0.318
-645.741	-88.640	-0.286	-0.086
-644.726	-200.000	-0.001	0.109
-643.711	-179.230	0.259	-0.006
-642.697	253.201	-0.027	0.046
-641.682	-200.000	0.010	-0.353
-640.668	-119.199	0.250	0.044
-639.653	-120.454	-0.326	0.056
-638.638	-18.884	-0.253	-0.159
-637.624	-63.968	-0.160	0.066
-636.609	328.800	-0.166	0.320
-635.595	32.038	0.105	0.091
-634.580	-200.000	-0.002	0.114
-633.565	630.269	-0.081	-0.205
-632.551	10.835	0.113	0.087
-631.536	-200.000	-0.005	0.194
-630.522	-163.353	-0.275	0.013
-629.507	800.000	-0.180	-0.658
-628.492	254.958	0.093	-0.160
-627.478	-18.521	-0.296	0.186
-626.463	800.000	0.076	-0.256
-625.449	1.624	-0.261	0.189
-624.434	800.000	-0.104	-0.398
-623.419	30.504	-0.168	0.144
-622.405	-117.224	0.258	0.047
-621.390	-137.493	-0.350	-0.040
-620.376	-153.473	0.323	0.023
-619.361	59.758	-0.079	-0.078
-618.346	-116.874	-0.236	0.043
-617.332	800.000	0.045	0.142
-616.317	-160.093	-0.319	-0.017
-615.303	-78.781	-0.133	0.046
-614.288	-200.000	-0.022	0.167
-613.273	740.619	-0.066	0.177
-612.259	800.000	0.036	0.149
-611.244	-200.000	-0.064	0.298
-610.230	-37.109	-0.165	0.089
-609.215	140.971	0.041	0.055
-608.201	730.148	0.106	-0.285
-607.186	5.886	-0.311	0.232
-606.171	345.441	0.229	0.452
-605.157	800.000	-0.040	0.168
-604.142	272.519	-0.154	-0.272
-603.128	-186.259	-0.252	0.004
-602.113	228.675	-0.031	0.051
-601.098	-8.375	0.322	0.218
-600.084	-2.020	-0.077	-0.055
-599.069	-131.556	0.502	0.067
-598.055	800.000	0.066	-0.254
-597.040	78.352	-0.047	-0.050
-596.025	-200.000	-0.023	0.123
-595.011	247.736	-0.175	-0.297
-593.996	66.544	0.066	0.067
-592.982	-108.233	-0.192	-0.042
-591.967	189.986	-0.210	-0.316
-590.952	58.875	-0.075	0.074
-589.938	-108.230	-0.237	-0.052
-588.923	-85.987	-0.245	-0.076
-587.909	-200.000	-0.030	-0.259
-586.894	-170.117	0.053	0.002
-585.879	800.000	0.057	-0.189
-584.865	-176.674	0.080	0.002
-583.850	33.428	0.246	-0.215
-582.836	-50.700	0.140	-0.066
-581.821	-200.000	-0.001	-0.161
-580.806	-159.715	-0.244	-0.014
-579.792	71.943	0.235	-0.245
-578.777	153.270	0.250	0.344
-577.763	-200.000	-0.007	-0.268
-576.748	171.404	-0.071	-0.103
-575.733	-21.514	0.424	0.260
-574.719	-128.915	0.160	0.023
-573.704	-84.683	-0.194	-0.061
-572.690	761.854	-0.043	0.117
-571.675	73.599	-0.072	-0.076
-570.661	0.611	0.079	-0.057
-569.646	-95.157	-0.278	0.075
-568.631	76.445	0.420	0.447
-567.617	-32.844	-0.395	0.220
-566.602	-40.239	-0.272	0.142
-565.588	-200.000	-0.011	0.270
-564.573	-21.058	-0.134	0.082
-563.558	-200.000	-0.029	-0.180
-562.544	-200.000	0.060	-0.298
-561.529	35.543	-0.138	0.122
-560.515	9.074	-0.129	-0.098
-559.500	800.000	-0.044	0.136
-558.485	800.000	0.052	0.183
-557.471	85.511	0.163	-0.179
-556.456	-133.192	0.258	-0.033
-555.442	-200.000	-0.003	-0.258
-554.427	800.000	0.080	-0.233
-553.412	10.257	-0.082	0.063
-552.398	-142.324	0.033	0.003
-551.383	9.580	0.209	0.159
-550.369	-200.000	-0.012	0.559
-549.354	58.222	0.200	0.196
-548.339	48.725	-0.072	-0.068
-547.325	26.726	0.085	-0.071
-546.310	-46.591	0.308	-0.151
-545.296	-14.690	-0.196	0.126
-544.281	800.000	-0.034	0.125
-543.266	-6.998	-0.116	-0.079
-542.252	100.508	0.141	-0.165
-541.237	457.488	0.061	-0.136
-540.223	-21.766	-0.232	-0.142
-539.208	-200.000	-0.088	0.608
-538.193	586.102	0.098	0.242
-537.179	-90.398	-0.070	0.020
-536.164	179.504	-0.147	0.216
-535.150	300.012	-0.167	-0.309
-534.135	-152.671	0.300	0.021
-533.121	240.340	0.044	-0.074
-532.106	800.000	-0.045	-0.173
-531.091	-167.636	0.256	-0.010
-530.077	800.000	0.063	-0.229
-529.062	-53.313	-0.335	-0.154
-528.048	395.806	0.199	0.416
-527.033	25.315	-0.106	-0.089
-526.018	-200.000	0.004	-0.089
-525.004	185.967	-0.210	-0.314
-523.989	-42.956	0.028	-0.014
-522.975	-72.580	0.096	0.035
-521.960	44.277	0.107	-0.099
-520.945	-171.331	0.110	-0.004
-519.931	-96.220	0.181	0.048
-518.916	11.854	-0.182	0.140
-517.902	-44.607	-0.071	0.035
-516.887	-162.189	-0.216	0.011
-515.872	-200.000	0.011	0.088
-514.858	179.310	-0.263	0.386
-513.843	-200.000	-0.048	0.212
-512.829	634.934	-0.094	0.239
-511.814	-200.000	-0.039	0.289
-510.799	-71.006	0.148	0.056
-509.785	800.000	-0.066	-0.196
-508.770	179.491	0.066	0.097
-507.756	-200.000	-0.031	-0.218
-506.741	-108.600	0.178	-0.038
-505.726	-200.000	-0.030	-0.397
-504.712	162.384	0.271	0.381
-503.697	-118.692	0.165	0.029
-502.683	-200.000	0.044	0.245
-501.668	-200.000	-0.035	0.155
-500.653	-150.113	0.320	-0.025
-499.639	-107.826	0.385	-0.084
-498.624	-71.518	0.142	0.053
-497.610	-200.000	0.010	0.223
-496.595	-196.375	0.213	-0.001
-495.581	-83.713	-0.264	-0.084
-494.566	3.312	0.277	0.202
-493.551	-64.374	-0.410	-0.167
-492.537	293.705	0.210	-0.384
-491.522	-200.000	-0.001	-0.162
-490.508	-116.254	-0.260	-0.048
-489.493	-108.737	-0.283	0.061
-488.478	-134.293	0.217	-0.027
-487.464	-112.414	-0.248	0.050
-486.449	42.669	0.107	0.098
-485.435	-200.000	0.021	0.136
-484.420	-6.226	-0.546	0.373
-483.405	127.036	-0.318	0.404
-482.391	-200.000	0.001	-0.177
-481.376	-42.474	0.060	-0.031
-480.362	-200.000	0.038	0.260
-479.347	-200.000	-0.014	-0.074
-478.332	800.000	-0.067	-0.258
-477.318	-164.094	-0.135	-0.006
-476.303	319.691	-0.093	0.177
-475.289	354.484	0.069	0.138
-474.274	-101.271	0.184	-0.045
-473.259	-200.000	0.012	-0.208
-472.245	171.304	0.120	-0.172
-471.230	151.089	-0.161	0.220
-470.216	-57.099	0.221	0.097
-469.201	-94.692	0.062	0.017
-468.186	-200.000	-0.002	0.430
-467.172	800.000	0.105	0.321
-466.157	-52.363	0.222	-0.103
-465.143	-68.764	0.085	0.033
-464.128	52.725	-0.261	-0.249
-463.113	-79.618	0.101	0.034
-462.099	189.720	-0.077	-0.115
-461.084	-87.555	-0.566	-0.171
-460.070	-6.465	-0.352	-0.240
-459.055	135.068	-0.224	-0.291
-458.040	-200.000	-0.047	0.318
-457.026	-163.155	0.619	0.030
-456.011	116.902	-0.028	-0.034
-454.997	56.151	0.143	0.139
-453.982	799.553	0.041	-0.114
-452.968	-196.161	-0.217	-0.002
-451.953	-200.000	-0.003	0.231
-450.938	-9.008	0.157	0.105
-449.924	673.164	-0.062	0.161
-448.909	800.000	0.057	0.180
-447.895	87.838	-0.170	-0.188
-446.880	-73.627	-0.335	-0.122
-445.865	-73.100	0.395	-0.145
-444.851	-64.352	-0.260	0.106
-443.836	66.402	-0.169	0.171
-442.822	-58.968	-0.163	-0.070
-441.807	-200.000	-0.021	0.284
-440.792	-7.364	-0.140	0.095
-439.778	-37.505	0.222	0.118
-438.763	120.912	0.068	0.084
-437.749	-69.912	-0.207	0.079
-436.734	70.587	-0.192	-0.199
-435.719	15.810	0.290	-0.228
-434.705	800.000	-0.055	-0.239
-433.690	243.309	-0.066	0.111
-432.676	800.000	0.063	0.244
-431.661	-126.921	-0.184	-0.027
-430.646	181.750	0.109	-0.160
-429.632	35.304	0.242	-0.212
-428.617	800.000	0.084	-0.280
-427.603	-32.479	0.166	-0.093
-426.588	-54.401	-0.318	-0.144
-425.573	-80.396	0.057	-0.019
-424.559	-111.603	-0.248	-0.050
-423.544	-109.256	0.389	-0.082
-422.530	111.614	-0.227	-0.273
-421.515	-111.523	-0.112	-0.023
-420.500	93.788	0.128	0.145
-419.486	-200.000	0.015	-0.128
-418.471	800.000	0.177	-0.527
-417.457	800.000	0.060	0.205
-416.442	229.254	0.102	0.167
-415.428	599.912	-0.019	0.046
-414.413	-71.821	-0.114	-0.042
-413.398	-7.476	-0.264	0.178
-412.384	399.982	0.094	0.197
-411.369	-87.477	-0.207	0.063
-410.355	-200.000	0.013	0.229
-409.340	-56.995	0.326	-0.144
-408.325	-200.000	0.005	0.236
-407.311	800.000	-0.081	-0.326
-406.296	-115.270	0.403	-0.076
-405.282	-128.909	0.052	-0.007
-404.267	800.000	-0.125	-0.354
-403.252	-105.235	-0.410	-0.093
-402.238	800.000	0.052	0.162
-401.223	35.776	-0.253	-0.222
-400.209	-60.141	0.245	-0.104
-399.194	412.545	-0.182	0.386
-398.179	-4.741	0.354	-0.243
-397.165	89.302	0.214	0.237
-396.150	358.975	-0.147	-0.294
-395.136	-45.074	-0.365	-0.181
-394.121	800.000	-0.021	-0.082
-393.106	286.753	-0.091	-0.164
-392.092	-77.699	-0.150	0.052
-391.077	-141.615	-0.255	0.026
-390.063	-84.576	0.119	-0.038
-389.048	800.000	-0.024	0.065
-388.033	68.749	-0.253	0.258
-387.019	149.178	-0.053	-0.072
-386.004	-200.000	-0.025	-0.140
-384.990	800.000	0.069	0.229
-383.975	-200.000	0.004	0.457
-382.960	689.379	0.037	0.097
-381.946	403.338	0.015	-0.032
-380.931	800.000	0.029	0.094
-379.917	172.884	0.077	-0.111
-378.902	-32.474	0.248	-0.138
-377.888	7.590	-0.258	-0.192
-376.873	-97.691	0.420	-0.108
-375.858	113.782	0.125	0.152
-374.844	352.421	-0.050	-0.100
-373.829	800.000	-0.027	-0.098
-372.815	-77.114	-0.168	-0.059
-371.800	800.000	0.091	-0.269
-370.785	-148.336	0.190	-0.016
-369.771	175.327	0.024	-0.034
-368.756	13.272	0.084	-0.065
-367.742	295.840	0.130	0.237
-366.727	-200.000	-0.032	0.207
-365.712	52.230	-0.124	0.118
-364.698	31.295	0.174	0.149
-363.683	-7.139	-0.079	0.053
-362.669	721.012	-0.194	0.515
-361.654	-145.434	-0.179	-0.016
-360.639	800.000	-0.089	-0.259
-359.625	-200.000	0.011	0.287
-358.610	-13.073	-0.100	0.065
-357.596	-200.000	0.028	-0.250
-356.581	13.637	-0.355	0.274
-355.566	556.213	-0.037	-0.090
-354.552	-142.289	-0.068	-0.007
-353.537	260.208	-0.117	0.201
-352.523	10.188	0.161	-0.122
-351.508	38.376	0.044	0.039
-350.493	-156.914	0.260	0.016
-349.479	-80.529	-0.207	-0.069
-348.464	-7.363	0.255	0.172
-347.450	-92.299	-0.068	-0.019
-346.435	-200.000	0.008	0.128
-345.420	-161.505	0.263	0.013
-344.406	-60.609	-0.184	-0.078
-343.391	39.107	-0.263	0.234
-342.377	-200.000	-0.017	0.327
-341.362	-87.745	0.130	0.039
-340.348	15.498	0.082	0.064
-339.333	-15.567	-0.153	0.097
-338.318	-200.000	0.001	0.146
-337.304	-172.619	0.169	0.005
-336.289	-153.409	0.268	0.019
-335.275	179.849	0.127	-0.185
-334.260	-200.000	-0.056	-0.289
-333.245	-75.150	-0.083	-0.030
-332.231	-142.766	-0.206	-0.020
-331.216	-89.940	0.192	0.056
-330.202	-62.054	-0.161	0.067
-329.187	398.127	0.216	0.450
-328.172	6.596	-0.176	-0.130
-327.158	53.101	0.240	0.229
-326.143	-117.123	-0.193	-0.035
-325.129	38.019	-0.039	-0.035
-324.114	800.000	0.134	-0.459
-323.099	-200.000	0.026	-0.294
-322.085	285.156	0.052	0.094
-321.070	800.000	0.062	0.176
-320.056	8.167	-0.205	0.153
-319.041	38.229	0.442	0.392
-318.026	-5.068	-0.271	0.186
-317.012	-200.000	-0.050	0.245
-315.997	118.936	-0.042	-0.051
-314.983	-130.809	-0.028	-0.004
-313.968	-200.000	0.012	-0.263
-312.953	800.000	0.058	-0.247
-311.939	800.000	0.035	-0.124
-310.924	133.380	0.168	0.216
-309.910	-18.218	0.206	0.128
-308.895	3.527	0.149	0.108
-307.880	38.676	0.185	0.164
-306.866	19.807	-0.138	-0.110
-305.851	17.050	0.192	-0.151
-304.837	298.478	-0.208	-0.380
-303.822	502.568	-0.033	0.077
-302.807	-200.000	0.023	-0.154
-301.793	-95.930	0.288	-0.076
-300.778	-200.000	-0.021	-0.104
-299.764	-200.000	-0.018	-0.252
-298.749	84.371	-0.071	-0.077
-297.735	47.542	0.033	-0.031
-296.720	-200.000	0.013	-0.181
-295.705	647.922	-0.114	0.289
-294.691	-127.085	0.145	-0.021
-293.676	33.678	0.229	0.198
-292.662	-200.000	-0.020	0.220
-291.647	111.710	-0.154	0.185
-290.632	3.962	-0.015	0.011
-289.618	-32.162	0.113	0.063
-288.603	-176.908	0.320	-0.008
-287.589	9.552	0.314	-0.237
-286.574	64.582	0.196	0.196
-285.559	22.443	0.137	-0.111
-284.545	-88.280	-0.213	-0.063
-283.530	582.204	-0.128	0.311
-282.516	41.929	0.348	-0.313
-281.501	-200.000	0.037	-0.327
-280.486	-6.805	0.175	0.118
-279.472	-84.315	-0.135	0.042
-278.457	505.809	-0.058	-0.134
-277.443	-109.986	0.244	0.051
-276.428	-42.284	-0.175	-0.089
-275.413	122.922	0.074	-0.092
-274.399	-200.000	-0.080	0.354
-273.384	6.847	-0.091	-0.067
-272.370	-115.994	-0.154	0.028
-271.355	46.727	0.054	0.049
-270.340	27.951	0.212	0.177
-269.326	-39.808	0.140	0.072
-268.311	-200.000	-0.081	-0.430
-267.297	-200.000	-0.031	-0.285
-266.282	226.344	-0.017	0.028
-265.267	450.630	0.172	-0.377
-264.253	-29.214	-0.212	-0.121
-263.238	72.535	-0.164	0.170
-262.224	73.172	-0.191	-0.198
-261.209	-24.852	-0.391	0.230
-260.195	-188.559	0.202	0.002
-259.180	61.854	0.092	0.091
-258.165	225.616	0.163	0.262
-257.151	20.835	0.340	-0.273
-256.136	416.937	-0.116	-0.247
-255.122	-25.016	-0.314	-0.185
-254.107	-157.209	-0.340	-0.020
-253.092	-145.161	-0.507	0.046
-252.078	-53.856	0.154	0.070
-251.063	326.383	-0.141	0.268
-250.049	53.917	0.178	0.170
-249.034	469.642	0.186	-0.415
-248.019	25.381	0.114	-0.094
-247.005	-31.338	0.211	-0.118
-245.990	71.562	0.144	-0.149
-244.976	450.808	-0.021	0.046
-243.961	228.269	0.132	0.213
-242.946	-200.000	0.035	-0.200
-241.932	7.428	-0.078	-0.058
-240.917	245.236	-0.233	-0.388
-239.903	232.947	-0.046	-0.075
-238.888	201.364	0.227	0.347
-237.873	146.506	-0.178	0.237
-236.859	185.865	0.182	-0.269
-235.844	105.368	-0.053	0.062
-234.830	30.533	0.101	0.086
-233.815	325.468	-0.094	0.178
-232.800	354.741	-0.171	-0.337
-231.786	800.000	-0.085	-0.240
-230.771	-200.000	-0.017	0.159
-229.757	335.588	0.027	-0.051
-228.742	-25.419	-0.194	0.114
-227.727	-30.729	0.219	0.123
-226.713	-103.031	-0.115	0.027
-225.698	89.715	-0.136	-0.151
-224.684	-200.000	-0.001	-0.117
-223.669	-171.471	0.194	-0.006
-222.655	-122.530	0.306	0.049
-221.640	473.177	0.132	-0.295
-220.625	-200.000	0.023	0.114
-219.611	-83.138	0.295	-0.094
-218.596	-16.213	-0.235	-0.148
-217.582	-200.000	0.016	-0.251
-216.567	32.341	-0.102	-0.087
-215.552	772.268	-0.071	-0.192
-214.538	-181.800	-0.108	-0.002
-213.523	160.502	0.068	0.094
-212.509	611.752	0.080	-0.199
-211.494	-103.410	-0.097	-0.023
-210.479	-168.565	0.196	-0.007
-209.465	-200.000	-0.065	-0.317
-208.450	328.046	-0.182	-0.346
-207.436	-200.000	0.032	-0.180
-206.421	55.209	-0.234	-0.224
-205.406	-200.000	0.037	0.300
-204.392	122.480	0.090	0.111
-203.377	-110.916	0.040	0.008
-202.363	-5.186	-0.327	-0.223
-201.348	800.000	0.071	-0.294
-200.333	240.204	-0.106	-0.175
-199.319	-200.000	0.019	0.311
-198.304	-30.020	-0.174	-0.098
-197.290	-39.666	0.164	-0.085
-196.275	-28.852	0.214	0.122
-195.260	-90.922	0.153	-0.044
-194.246	118.299	0.145	-0.178
-193.231	800.000	0.056	0.163
-192.217	-103.008	0.184	-0.043
-191.202	34.396	-0.136	0.117
-190.187	224.149	-0.152	-0.243
-189.173	128.702	0.149	-0.188
-188.158	800.000	-0.067	-0.183
-187.144	-200.000	-0.021	-0.124
-186.129	-102.282	0.143	-0.034
-185.114	-128.314	-0.233	0.033
-184.100	-200.000	0.009	0.286
-183.085	-72.384	0.236	0.087
-182.071	-5.469	-0.248	0.168
-181.056	800.000	0.012	-0.039
-180.042	-200.000	-0.009	-0.314
-179.027	486.798	-0.089	0.202
-178.012	800.000	-0.116	0.458
-176.998	301.403	-0.087	0.159
-175.983	24.377	0.210	0.171
-174.969	43.772	0.028	-0.025
-173.954	-177.025	0.425	0.011
-172.939	800.000	0.029	0.107
-171.925	-22.557	0.231	0.138
-170.910	21.791	0.200	-0.161
-169.896	-19.169	0.065	0.040
-168.881	15.986	-0.307	0.239
-167.866	624.186	-0.041	0.102
-166.852	800.000	0.053	-0.173
-165.837	-108.900	-0.135	-0.028
-164.823	223.348	0.066	0.104
-163.808	91.841	0.221	0.245
-162.793	800.000	0.028	0.104
-161.779	-167.697	0.268	-0.010
-160.764	73.652	0.180	-0.187
-159.750	521.557	0.091	0.212
-158.735	2.944	0.617	-0.443
-157.720	13.903	0.033	0.025
-156.706	-82.355	-0.113	0.036
-155.691	81.927	0.126	0.135
-154.677	-200.000	0.108	-0.523
-153.662	97.878	-0.168	0.191
-152.647	119.952	0.125	-0.153
-151.633	-46.210	0.096	0.047
-150.618	800.000	0.039	-0.125
-149.604	-200.000	-0.025	-0.134
-148.589	-147.415	0.263	-0.022
-147.574	-30.882	-0.181	0.101
-146.560	199.330	0.126	-0.191
-145.545	-150.105	0.241	-0.019
-144.531	198.303	-0.040	-0.061
-143.516	-48.003	0.156	0.074
-142.502	-62.825	0.126	0.052
-141.487	800.000	0.050	-0.167
-140.472	-200.000	-0.007	-0.166
-139.458	326.035	0.036	-0.069
-138.443	-74.749	-0.040	0.014
-137.429	-68.055	0.380	-0.146
-136.414	474.316	-0.060	0.134
-135.399	-84.656	0.148	-0.046
-134.385	163.905	0.038	-0.052
-133.370	-120.625	0.480	-0.080
-132.356	93.394	-0.135	-0.150
-131.341	166.421	-0.099	-0.138
-130.326	800.000	0.027	-0.081
-129.312	-108.646	-0.066	0.014
-128.297	-200.000	0.042	-0.219
-127.283	36.119	-0.197	-0.171
-126.268	108.244	0.129	-0.152
-125.253	18.927	-0.153	0.121
-124.239	26.060	-0.133	-0.110
-123.224	36.392	0.132	0.115
-122.210	318.017	-0.142	0.266
-121.195	-27.579	0.424	0.243
-120.180	47.110	0.250	-0.229
-119.166	800.000	-0.041	0.135
-118.151	115.709	-0.119	-0.143
-117.137	549.518	-0.088	0.208
-116.122	-200.000	0.009	0.122
-115.107	722.067	-0.093	-0.243
-114.093	-22.936	-0.079	-0.047
-113.078	56.472	-0.115	-0.111
-112.064	164.370	-0.160	0.223
-111.049	-2.009	0.156	-0.108
-110.034	129.973	0.125	0.158
-109.020	-34.812	-0.231	0.124
-108.005	-13.065	-0.099	-0.064
-106.991	26.083	0.213	0.175
-105.976	-200.000	0.000	0.028
-104.962	-200.000	-0.010	-0.160
-103.947	224.730	-0.154	-0.245
-102.932	-27.654	-0.075	-0.043
-101.918	-10.026	-0.049	-0.032
-100.903	-20.748	-0.025	0.015
-99.889	-76.199	-0.135	0.047
-98.874	-64.608	0.233	0.093
-97.859	-0.241	0.164	0.115
-96.845	-97.794	0.112	-0.028
-95.830	-27.016	0.205	-0.118
-94.816	-47.943	-0.116	-0.055
-93.801	-200.000	-0.043	-0.194
-92.786	338.782	0.148	0.285
-91.772	74.701	-0.105	-0.109
-90.757	31.819	-0.110	-0.094
-89.743	795.902	0.059	-0.161
-88.728	-105.180	0.109	-0.024
-87.713	-47.802	-0.100	0.048
-86.699	-98.530	0.321	-0.081
-85.684	200.955	-0.093	0.141
-84.670	-60.871	-0.218	-0.091
-83.655	-99.185	0.183	-0.046
-82.640	-75.627	-0.044	-0.015
-81.626	-142.595	0.089	-0.009
-80.611	-147.957	-0.273	-0.022
-79.597	-61.743	0.057	0.024
-78.582	-53.145	0.321	-0.145
-77.567	-34.432	-0.127	-0.069
-76.553	405.611	-0.088	0.182
-75.538	-56.702	0.153	0.067
-74.524	-160.390	-0.422	-0.022
-73.509	-195.159	0.076	0.001
-72.494	194.130	0.119	-0.177
-71.480	-200.000	0.004	-0.079
-70.465	-116.668	0.173	0.031
-69.451	800.000	-0.053	-0.157
-68.436	-200.000	0.008	0.158
-67.422	-163.257	0.067	-0.003
-66.407	258.485	0.122	0.207
-65.392	61.656	-0.201	0.197
-64.378	-140.210	0.073	-0.008
-63.363	-87.827	-0.037	-0.011
-62.349	-200.000	-0.012	0.112
-61.334	-40.654	-1.245	-0.635
-60.319	114.164	0.622	0.746
-59.305	-200.000	-0.222	-1.029
-58.290	298.524	0.633	1.147
-57.276	800.000	0.477	1.703
-56.261	-200.000	113.865	641.601
-55.246	457.934	1512.158	3307.812
-54.232	143.185	2690.409	3522.860
-53.217	93.672	2329.262	2596.627
-52.203	33.847	2077.431	1779.164
-51.188	29.103	1991.609	1662.868
-50.173	27.773	1974.336	1636.465
-49.159	46.438	2032.067	1854.520
-48.144	45.398	2047.783	1859.341
-47.130	29.764	2007.237	1681.663
-46.115	27.542	1996.978	1652.874
-45.100	27.323	1994.430	1648.709
-44.086	27.227	1992.384	1646.086
-43.071	27.317	1989.426	1644.394
-42.057	27.188	1987.854	1641.860
-41.042	27.246	1985.572	1640.433
-40.027	27.371	1983.528	1639.807
-39.013	27.380	1981.228	1637.922
-37.998	27.350	1980.022	1636.589
-36.984	27.297	1978.110	1634.472
-35.969	27.330	1976.371	1633.259
-34.954	27.407	1974.446	1632.294
-33.940	27.445	1972.692	1631.121
-32.925	27.474	1971.129	1630.024
-31.911	27.439	1969.253	1628.098
-30.896	27.466	1967.818	1627.088
-29.881	27.409	1966.442	1625.377
-28.867	27.545	1964.299	1624.749
-27.852	27.506	1963.189	1623.419
-26.838	27.460	1961.727	1621.739
-25.823	27.540	1959.527	1620.572
-24.809	27.526	1957.615	1618.795
-23.794	27.475	1955.688	1616.685
-22.779	27.505	1953.955	1615.455
-21.765	27.513	1952.386	1614.168
-20.750	27.432	1950.792	1612.067
-19.736	27.417	1949.882	1611.121
-18.721	27.473	1947.463	1609.549
-17.706	27.502	1945.938	1608.487
-16.692	27.430	1944.107	1606.274
-15.677	27.374	1943.436	1605.155
-14.663	27.446	1941.487	1604.119
-13.648	27.492	1939.448	1602.776
-12.633	27.408	1939.068	1601.657
-11.619	27.398	1937.727	1600.401
-10.604	27.423	1936.269	1599.356
-9.590	27.403	1935.236	1598.256
-8.575	27.488	1933.392	1597.418
-7.560	27.462	1932.281	1596.212
-6.546	27.435	1930.999	1594.852
-5.531	27.452	1929.200	1593.452
-4.517	27.426	1928.216	1592.351
-3.502	27.522	1926.956	1592.083
-2.487	27.447	1925.792	1590.401
-1.473	27.471	1925.054	1589.944
-0.458	27.517	1920.124	1586.208
0.556	25.562	1900.385	1558.251
1.571	21.416	1881.118	1506.670
2.586	17.655	1904.025	1492.020
3.600	16.760	1938.513	1510.932
4.615	16.537	1933.469	1504.883
5.629	15.386	1841.804	1423.643
6.644	13.036	1737.549	1324.111
7.659	11.619	1707.391	1289.835
8.673	11.383	1704.637	1285.784
9.688	11.419	1703.360	1284.985
10.702	11.283	1702.329	1283.029
11.717	11.295	1698.492	1280.118
12.731	11.442	1696.809	1279.887
13.746	13.179	1699.818	1295.677
14.761	15.937	1705.953	1321.914
15.775	17.602	1707.761	1336.271
16.790	17.376	1705.370	1332.508
17.804	16.337	1702.356	1321.910
18.819	15.265	1699.175	1310.940
19.834	14.600	1696.402	1303.491
20.848	14.337	1694.406	1299.789
21.863	14.054	1693.048	1296.430
22.877	13.792	1691.652	1293.202
23.892	13.594	1690.032	1290.312
24.907	13.378	1689.353	1287.993
25.921	13.517	1687.773	1287.755
26.936	13.577	1686.947	1287.480
27.950	13.451	1686.588	1286.110
28.965	13.474	1685.838	1285.605
29.980	13.581	1684.872	1285.586
30.994	13.585	1683.983	1284.826
32.009	13.684	1682.572	1284.404
33.023	13.729	1681.569	1283.869
34.038	13.744	1680.433	1283.004
35.053	13.734	1679.412	1282.039
36.067	13.667	1678.334	1280.581
37.082	13.644	1676.901	1279.194
38.096	13.610	1675.911	1278.066
39.111	13.669	1675.030	1277.736
40.126	13.716	1674.125	1277.298
41.140	13.599	1673.852	1276.072
42.155	13.595	1671.373	1274.040
43.169	13.477	1670.021	1271.993
44.184	13.447	1669.287	1271.084
45.199	13.334	1668.365	1269.409
46.213	13.410	1666.721	1268.623
47.228	13.457	1665.775	1268.151
48.242	13.448	1664.662	1267.122
49.257	13.534	1663.302	1266.634
50.271	13.503	1661.662	1265.034
51.286	13.539	1660.331	1264.183
52.301	13.453	1659.605	1262.870
53.315	13.468	1658.076	1261.703
54.330	13.585	1656.479	1261.267
55.344	13.535	1654.505	1259.273
56.359	13.451	1653.610	1257.840
57.374	13.447	1652.231	1256.654
58.388	13.477	1651.217	1256.000
59.403	13.449	1650.014	1254.758
60.417	13.368	1648.736	1253.060
61.432	13.261	1648.142	1251.693
62.447	13.351	1646.176	1250.771
63.461	13.356	1644.996	1249.795
64.476	13.355	1643.862	1248.819
65.490	13.220	1643.098	1247.107
66.505	13.317	1641.609	1246.600
67.520	13.319	1640.624	1245.756
68.534	13.340	1639.932	1245.276
69.549	13.367	1638.503	1244.283
70.563	13.356	1637.268	1243.159
71.578	13.357	1636.157	1242.213
72.593	13.280	1635.264	1240.848
73.607	13.303	1633.968	1239.924
74.622	13.236	1632.786	1238.414
75.636	13.265	1631.764	1237.744
76.651	13.241	1630.835	1236.755
77.666	13.262	1630.291	1236.387
78.680	13.156	1630.139	1235.373
79.695	13.206	1629.314	1235.008
80.709	13.347	1627.232	1234.375
81.724	13.402	1626.559	1234.166
82.739	13.271	1626.570	1233.091
83.753	13.487	1624.863	1233.297
84.768	13.573	1624.017	1233.186
85.782	13.535	1623.545	1232.434
86.797	13.583	1622.619	1231.980
87.812	13.676	1621.246	1231.517
88.826	13.588	1620.036	1229.832
89.841	13.488	1619.062	1228.246
90.855	13.561	1618.146	1227.986
91.870	13.515	1616.857	1226.557
92.884	13.576	1615.923	1226.188
93.899	13.617	1614.849	1225.571
94.914	13.610	1613.667	1224.509
95.928	13.670	1613.179	1224.478
96.943	13.661	1611.017	1222.657
97.957	13.612	1609.756	1221.233
98.972	13.602	1608.226	1219.892
99.987	13.630	1606.151	1218.417
101.001	13.531	1604.959	1216.675
102.016	13.537	1603.463	1215.483
103.030	13.457	1601.961	1213.647
104.045	13.572	1600.506	1213.281
105.060	13.566	1599.201	1212.136
106.074	13.594	1597.898	1211.248
107.089	13.441	1596.464	1208.935
108.103	13.394	1594.763	1207.201
109.118	13.385	1593.081	1205.757
110.133	13.381	1591.549	1204.458
111.147	13.446	1589.940	1203.604
112.162	13.431	1588.787	1202.521
113.176	13.442	1587.045	1201.173
114.191	13.436	1586.319	1200.474
115.206	13.483	1584.814	1199.568
116.220	13.505	1583.755	1198.824
117.235	13.433	1582.155	1196.985
118.249	13.437	1580.930	1195.979
119.264	13.418	1579.506	1194.660
120.279	13.294	1578.552	1192.939
121.293	13.387	1576.905	1192.254
122.308	13.351	1575.461	1190.799
123.322	13.435	1573.752	1190.006
124.337	13.363	1572.421	1188.376
125.352	13.344	1571.490	1187.436
126.366	13.370	1570.365	1186.666
127.381	13.299	1568.976	1185.005
128.395	13.369	1567.648	1184.395
129.410	13.388	1566.332	1183.429
130.424	13.287	1565.227	1181.772
131.439	13.411	1563.637	1181.351
132.454	13.405	1562.081	1180.027
133.468	13.483	1560.178	1179.039
134.483	13.486	1558.703	1177.841
135.497	13.517	1557.348	1176.938
136.512	13.493	1556.413	1175.953
137.527	13.548	1554.957	1175.139
138.541	13.485	1553.501	1173.488
139.556	13.448	1552.596	1172.444
140.570	13.593	1550.347	1171.664
141.585	13.653	1549.033	1170.992
142.600	13.652	1548.333	1170.349
143.614	13.678	1547.030	1169.447
144.629	13.665	1546.345	1168.736
145.643	13.750	1544.184	1167.596
146.658	13.768	1543.008	1166.729
147.673	13.724	1541.525	1165.196
148.687	13.669	1540.069	1163.605
149.702	13.695	1538.077	1162.178
150.716	13.638	1537.097	1160.938
151.731	13.632	1535.391	1159.505
152.746	13.622	1534.591	1158.728
153.760	13.639	1532.961	1157.514
154.775	13.635	1531.885	1156.569
155.789	13.666	1530.279	1155.474
156.804	13.744	1529.174	1155.081
157.819	13.794	1527.787	1154.275
158.833	13.776	1527.064	1153.502
159.848	13.818	1525.378	1152.418
160.862	13.804	1524.583	1151.616
161.877	13.908	1522.870	1150.946
162.892	13.792	1521.737	1149.183
163.906	13.761	1520.848	1148.198
164.921	13.755	1519.528	1147.057
165.935	13.723	1518.193	1145.729
166.950	13.704	1516.872	1144.497
167.964	13.839	1515.692	1144.434
168.979	13.703	1515.243	1143.059
169.994	13.851	1513.867	1142.935
171.008	13.773	1513.063	1141.694
172.023	13.804	1512.110	1141.087
173.037	13.830	1510.504	1139.952
174.052	13.933	1509.180	1139.557
175.067	13.969	1508.669	1139.317
176.081	13.910	1506.881	1137.465
177.096	13.806	1505.751	1135.796
178.110	13.838	1504.483	1134.962
179.125	13.765	1503.713	1133.778
180.140	13.843	1502.294	1133.140
181.154	13.853	1501.278	1132.341
182.169	13.893	1500.153	1131.669
183.183	14.014	1498.770	1131.345
184.198	13.949	1498.398	1130.527
185.213	14.083	1496.160	1129.644
186.227	14.104	1495.514	1129.202
187.242	14.031	1494.639	1127.944
188.256	14.060	1494.039	1127.587
189.271	14.027	1492.820	1126.345
190.286	14.102	1491.714	1125.920
191.300	14.078	1490.579	1124.799
192.315	13.987	1488.854	1122.786
193.329	13.907	1487.545	1121.155
194.344	13.891	1486.426	1120.108
195.359	13.858	1485.836	1119.339
196.373	13.986	1484.416	1119.037
197.388	13.994	1483.832	1118.546
198.402	14.152	1482.349	1118.393
199.417	14.091	1481.816	1117.481
200.432	14.153	1480.621	1116.898
201.446	14.335	1479.325	1117.047
202.461	14.259	1478.711	1115.976
203.475	14.238	1477.349	1114.703
204.490	14.304	1476.410	1114.340
205.504	14.391	1474.855	1113.647
206.519	14.286	1473.941	1112.156
207.534	14.319	1472.083	1110.877
208.548	14.314	1471.238	1110.107
209.563	14.301	1470.873	1109.647
210.577	14.300	1469.241	1108.315
211.592	14.245	1468.780	1107.499
212.607	14.290	1467.908	1107.044
213.621	14.395	1467.334	1107.211
214.636	14.430	1465.898	1106.265
215.650	14.492	1465.135	1106.004
216.665	14.395	1464.243	1104.589
217.680	14.377	1463.648	1103.919
218.694	14.518	1462.651	1104.007
219.709	14.430	1462.265	1103.032
220.723	14.455	1460.576	1101.825
221.738	14.507	1459.615	1101.347
222.753	14.427	1458.938	1100.211
223.767	14.436	1458.457	1099.813
224.782	14.516	1456.698	1098.911
225.796	14.589	1455.827	1098.640
226.811	14.577	1455.164	1097.966
227.826	14.637	1454.662	1097.880
228.840	14.613	1453.797	1096.977
229.855	14.555	1453.028	1095.913
230.869	14.628	1451.828	1095.391
231.884	14.569	1450.681	1094.044
232.899	14.569	1449.323	1092.926
233.913	14.589	1448.243	1092.146
234.928	14.622	1446.737	1091.129
235.942	14.511	1445.778	1089.581
236.957	14.562	1444.443	1088.815
237.972	14.543	1443.559	1087.927
238.986	14.489	1442.573	1086.732
240.001	14.580	1441.405	1086.353
241.015	14.629	1440.380	1085.801
242.030	14.683	1438.918	1084.955
243.045	14.707	1438.041	1084.349
244.059	14.639	1437.750	1083.596
245.074	14.754	1436.619	1083.392
246.088	14.673	1435.882	1082.216
247.103	14.765	1435.484	1082.419
248.117	14.814	1434.489	1081.886
249.132	14.811	1433.799	1081.252
250.147	14.954	1432.981	1081.465
251.161	14.969	1432.508	1081.107
252.176	15.096	1431.755	1081.268
253.190	15.082	1430.661	1080.253
254.205	15.097	1430.208	1079.911
255.220	15.202	1429.174	1079.710
256.234	15.187	1428.485	1078.997
257.249	15.169	1427.379	1077.951
258.263	15.085	1426.829	1076.903
259.278	15.155	1425.696	1076.402
260.293	15.128	1424.842	1075.486
261.307	15.188	1424.073	1075.199
262.322	15.247	1423.395	1074.970
263.336	15.221	1422.438	1073.983
264.351	15.306	1421.199	1073.497
265.366	15.221	1420.814	1072.570
266.380	15.292	1419.437	1071.888
267.395	15.460	1417.929	1071.728
268.409	15.343	1417.336	1070.439
269.424	15.296	1416.742	1069.596
270.439	15.283	1415.457	1068.448
271.453	15.237	1414.815	1067.575
272.468	15.309	1413.820	1067.188
273.482	15.270	1412.777	1066.059
274.497	15.278	1412.441	1065.762
275.512	15.277	1410.960	1064.545
276.526	15.368	1410.044	1064.336
277.541	15.376	1409.136	1063.608
278.555	15.286	1408.425	1062.401
279.570	15.471	1407.276	1062.611
280.585	15.361	1407.106	1061.697
281.599	15.489	1405.701	1061.350
282.614	15.549	1404.773	1060.932
283.628	15.419	1403.411	1058.994
284.643	15.486	1402.409	1058.568
285.657	15.470	1401.712	1057.843
286.672	15.455	1400.614	1056.827
287.687	15.514	1399.721	1056.434
288.701	15.523	1398.433	1055.421
289.716	15.481	1398.030	1054.763
290.730	15.552	1397.218	1054.502
291.745	15.536	1396.232	1053.562
292.760	15.589	1394.785	1052.710
293.774	15.566	1394.068	1051.934
294.789	15.592	1393.128	1051.292
295.803	15.627	1392.381	1050.852
296.818	15.729	1391.383	1050.644
297.833	15.641	1390.532	1049.361
298.847	15.610	1389.523	1048.314
299.862	15.586	1388.711	1047.460
300.876	15.621	1387.533	1046.692
301.891	15.666	1386.688	1046.246
302.906	15.698	1385.620	1045.546
303.920	15.804	1384.909	1045.574
304.935	15.911	1384.005	1045.463
305.949	15.848	1383.447	1044.559
306.964	15.935	1382.427	1044.237
307.979	15.858	1381.754	1043.157
308.993	15.902	1381.287	1042.985
310.008	15.949	1379.868	1042.112
311.022	15.916	1379.451	1041.499
312.037	15.950	1378.031	1040.551
313.052	15.925	1377.305	1039.754
314.066	15.936	1375.920	1038.684
315.081	16.018	1374.549	1038.064
316.095	15.895	1373.703	1036.573
317.110	15.811	1372.814	1035.296
318.125	15.811	1371.837	1034.465
319.139	15.970	1371.030	1034.744
320.154	15.894	1370.160	1033.531
321.168	15.903	1369.107	1032.698
322.183	15.881	1368.103	1031.712
323.197	15.902	1367.339	1031.176
324.212	15.952	1366.367	1030.656
325.227	15.925	1365.490	1029.739
326.241	15.920	1364.874	1029.153
327.256	15.997	1363.484	1028.485
328.270	15.969	1362.823	1027.724
329.285	15.936	1362.049	1026.851
330.300	16.010	1361.118	1026.506
331.314	15.952	1360.107	1025.297
332.329	16.068	1359.236	1025.257
333.343	15.948	1358.667	1024.010
334.358	16.000	1357.554	1023.394
335.373	16.083	1356.662	1023.133
336.387	16.058	1355.906	1022.322
337.402	16.131	1355.196	1022.138
338.416	16.049	1354.825	1021.275
339.431	16.125	1354.481	1021.382
340.446	16.235	1353.451	1021.182
341.460	16.327	1352.425	1020.874
342.475	16.298	1351.431	1019.855
343.489	16.321	1350.713	1019.364
344.504	16.336	1349.735	1018.627
345.519	16.399	1348.654	1018.098
346.533	16.386	1347.861	1017.332
347.548	16.525	1346.715	1017.216
348.562	16.473	1346.138	1016.377
349.577	16.461	1345.810	1015.968
350.592	16.447	1344.519	1014.817
351.606	16.337	1343.914	1013.611
352.621	16.467	1342.095	1012.926
353.635	16.419	1341.112	1011.810
354.650	16.421	1340.364	1011.169
355.665	16.436	1339.328	1010.386
356.679	16.492	1338.343	1009.890
357.694	16.410	1337.294	1008.518
358.708	16.528	1336.135	1008.260
359.723	16.463	1335.339	1007.182
360.738	16.532	1334.190	1006.634
361.752	16.580	1333.262	1006.133
362.767	16.571	1332.184	1005.178
363.781	16.640	1331.230	1004.779
364.796	16.564	1330.512	1003.698
365.810	16.554	1330.090	1003.226
366.825	16.739	1329.399	1003.716
367.840	16.744	1328.443	1002.936
368.854	16.793	1327.566	1002.472
369.869	16.750	1327.202	1001.856
370.883	16.742	1326.602	1001.266
371.898	16.651	1326.122	1000.281
372.913	16.802	1324.973	1000.216
373.927	16.759	1323.821	999.000
374.942	16.825	1322.977	998.664
375.956	16.831	1322.524	998.271
376.971	16.840	1321.679	997.598
377.986	16.882	1320.729	997.042
379.000	16.844	1319.705	995.955
380.015	16.891	1319.129	995.711
381.029	17.069	1318.230	995.989
382.044	16.928	1317.891	994.814
383.059	16.996	1316.924	994.395
384.073	17.064	1316.230	994.182
385.088	17.021	1315.961	993.638
386.102	17.083	1314.997	993.185
387.117	17.062	1313.942	992.178
388.132	17.037	1313.964	991.959
389.146	17.026	1312.625	990.800
390.161	16.874	1311.722	989.142
391.175	16.851	1311.578	988.813
392.190	16.941	1310.237	988.239
393.205	17.090	1309.005	988.091
394.219	17.189	1308.057	987.861
395.234	17.088	1307.316	986.628
396.248	17.078	1305.777	985.320
397.263	17.134	1304.520	984.609
398.278	17.149	1303.104	983.542
399.292	17.084	1302.121	982.336
400.307	17.137	1301.004	981.715
401.321	17.012	1299.852	980.037
402.336	16.962	1299.417	979.328
403.350	17.105	1298.250	979.187
404.365	17.131	1297.148	978.423
405.380	16.969	1296.901	977.217
406.394	17.065	1295.451	976.590
407.409	17.156	1294.581	976.371
408.423	17.186	1294.178	976.150
409.438	17.284	1293.546	976.151
410.453	17.368	1292.901	976.062
411.467	17.356	1291.901	975.152
412.482	17.379	1291.445	974.851
413.496	17.378	1291.022	974.438
414.511	17.415	1290.154	973.911
415.526	17.553	1289.051	973.782
416.540	17.421	1288.383	972.435
417.555	17.473	1288.142	972.463
418.569	17.409	1287.975	971.890
419.584	17.468	1286.847	971.289
420.599	17.553	1285.922	970.989
421.613	96.608	1356.292	1475.060
422.628	94.589	1366.525	1475.150
