DTS Sentinel unit serial number:	SN413079Multiplexer serial number:	ORYXHardware model number:	OX4-SRSoftware version number:	ORYX F/W v4.00 Oryx Data Collector v3.7.2.0data status	okinstallation	princeton_trtdifferential loss correction	single-endedforward channel	channel 4reverse channel	N/Adate	2019/09/17time	10:05:35forward acquisition time	60.00reverse acquisition time	0.00gamma	496.2192k internal	0.2311k external	0.2311temperature offset calibration	0.9977default loss term (dB/km)	0.3790temperature slope calibration	1.0000multiplexer offset coefficient	1.0000multiplexer slope coefficient	1.0000fibre end	0.00T internal ref (°C)	29.69T ext. ref 1 (°C)	0.17T ext. ref 2 (°C)	25.31length (m)	temperature (°C)	Stokes	anti-Stokes-747.200	419.522	-0.126	-0.273
-746.185	63.113	0.065	0.066
-745.171	-88.247	0.428	0.130
-744.156	-74.819	-0.322	0.117
-743.142	56.766	-0.164	-0.162
-742.127	141.367	-0.094	0.126
-741.112	-200.000	-0.014	0.414
-740.098	278.075	0.059	0.106
-739.083	800.000	0.054	0.176
-738.069	110.559	-0.266	0.325
-737.054	-128.005	0.058	0.009
-736.039	50.478	-0.054	0.052
-735.025	-9.971	0.143	-0.097
-734.010	-88.301	-0.521	0.158
-732.996	-200.000	0.033	-0.286
-731.981	-200.000	-0.054	-0.300
-730.966	130.441	-0.175	0.228
-729.952	-152.961	0.269	-0.019
-728.937	218.910	0.225	-0.365
-727.923	800.000	0.058	-0.214
-726.908	19.431	-0.426	-0.348
-725.894	-200.000	-0.015	-0.168
-724.879	-132.694	-0.455	-0.059
-723.864	61.723	-0.185	-0.187
-722.850	-51.252	-0.141	0.067
-721.835	-200.000	-0.023	-0.221
-720.821	-126.916	-0.308	0.046
-719.806	80.134	0.053	0.058
-718.791	-69.005	-0.451	-0.176
-717.777	153.592	-0.134	-0.186
-716.762	746.663	-0.081	-0.223
-715.748	-128.855	0.191	-0.027
-714.733	280.315	-0.041	0.074
-713.718	262.990	0.097	0.171
-712.704	-6.352	0.284	0.196
-711.689	-200.000	-0.074	-0.410
-710.675	733.846	-0.069	0.187
-709.660	-153.939	0.296	0.020
-708.645	-79.938	-0.298	0.101
-707.631	3.579	-0.196	-0.145
-706.616	-200.000	0.021	-0.140
-705.602	-43.104	0.359	-0.185
-704.587	-9.816	0.071	0.048
-703.572	-31.595	-0.138	0.079
-702.558	-14.759	0.226	-0.147
-701.543	-49.979	0.110	0.053
-700.529	800.000	0.085	0.336
-699.514	-128.524	0.364	-0.052
-698.499	-200.000	-0.082	-0.436
-697.485	89.511	0.086	-0.097
-696.470	-12.529	0.174	0.115
-695.456	120.113	0.124	-0.156
-694.441	20.809	-0.194	-0.159
-693.426	-182.644	-0.088	0.002
-692.412	144.608	-0.131	-0.177
-691.397	-88.959	-0.106	-0.032
-690.383	346.597	0.102	-0.204
-689.368	800.000	0.083	0.250
-688.354	-141.512	-0.302	-0.031
-687.339	800.000	0.038	0.131
-686.324	-49.469	-0.112	-0.054
-685.310	-130.367	0.255	-0.035
-684.295	800.000	-0.101	-0.419
-683.281	341.679	0.118	0.234
-682.266	79.452	-0.132	0.144
-681.251	800.000	-0.039	0.171
-680.237	-78.595	0.261	-0.090
-679.222	-200.000	0.020	-0.094
-678.208	-200.000	0.053	0.267
-677.193	687.196	0.139	0.368
-676.178	355.460	0.084	-0.169
-675.164	267.664	-0.084	0.149
-674.149	166.291	0.168	0.241
-673.135	511.147	-0.110	-0.260
-672.120	-200.000	0.044	-0.259
-671.105	-200.000	-0.043	0.233
-670.091	-52.905	0.357	0.166
-669.076	56.791	-0.172	-0.170
-668.062	-125.218	-0.304	-0.047
-667.047	-91.058	0.122	-0.035
-666.032	564.733	-0.082	0.201
-665.018	-148.570	0.514	0.042
-664.003	192.997	0.071	-0.109
-662.989	52.482	0.107	-0.103
-661.974	477.728	-0.029	0.066
-660.959	21.641	0.053	-0.044
-659.945	-89.529	0.079	0.023
-658.930	31.240	-0.095	0.083
-657.916	-64.722	-0.150	-0.062
-656.901	-50.460	0.177	0.084
-655.886	535.990	0.181	-0.435
-654.872	-76.292	-0.192	-0.068
-653.857	-200.000	0.013	0.193
-652.843	-135.096	-0.197	0.024
-651.828	-49.857	0.203	0.098
-650.814	-150.137	-0.252	-0.020
-649.799	295.646	0.080	0.149
-648.784	323.176	-0.079	0.153
-647.770	31.614	-0.162	0.141
-646.755	-36.090	-0.330	-0.181
-645.741	503.448	-0.125	-0.293
-644.726	-87.737	0.327	0.100
-643.711	4.098	-0.084	0.062
-642.697	144.819	0.051	0.069
-641.682	-43.765	-0.191	-0.097
-640.668	-69.089	0.203	-0.079
-639.653	-18.231	-0.225	0.142
-638.638	45.354	0.277	0.259
-637.624	800.000	-0.023	-0.081
-636.609	-152.687	-0.119	0.009
-635.595	-125.918	0.202	-0.031
-634.580	-200.000	0.020	0.099
-633.565	-51.270	-0.384	0.182
-632.551	249.266	0.035	-0.060
-631.536	-200.000	0.043	-0.306
-630.522	-200.000	0.009	0.051
-629.507	444.433	0.145	0.322
-628.492	-23.489	-0.046	-0.028
-627.478	418.079	0.098	0.212
-626.463	800.000	-0.159	-0.616
-625.449	-25.936	-0.168	-0.100
-624.434	-25.182	-0.232	-0.139
-623.419	-110.755	-0.220	-0.046
-622.405	-36.567	0.059	0.032
-621.390	-125.856	-0.146	0.022
-620.376	310.472	-0.058	0.109
-619.361	-200.000	0.023	0.269
-618.346	-90.191	-0.110	0.032
-617.332	28.400	-0.070	0.060
-616.317	-200.000	-0.010	0.100
-615.303	-25.127	0.224	-0.134
-614.288	292.684	0.186	-0.342
-613.273	-200.000	0.020	-0.574
-612.259	55.431	-0.076	-0.074
-611.244	-10.689	-0.314	0.210
-610.230	137.457	0.038	0.050
-609.215	-0.655	-0.082	0.059
-608.201	199.730	0.045	-0.069
-607.186	-144.877	0.147	-0.014
-606.171	194.516	0.146	-0.224
-605.157	-99.381	-0.118	-0.030
-604.142	-200.000	-0.032	0.268
-603.128	800.000	-0.078	-0.342
-602.113	-132.627	-0.103	-0.013
-601.098	152.352	-0.121	0.167
-600.084	-78.482	0.125	0.043
-599.069	144.056	-0.183	-0.246
-598.055	171.627	0.200	-0.290
-597.040	800.000	-0.058	0.180
-596.025	-33.525	0.193	-0.107
-595.011	23.880	-0.168	0.140
-593.996	-44.647	-0.207	-0.105
-592.982	-66.159	-0.087	-0.035
-591.967	-19.320	-0.100	-0.062
-590.952	353.792	0.040	0.080
-589.938	-200.000	-0.025	-0.138
-588.923	379.916	-0.086	0.178
-587.909	544.129	-0.058	0.140
-586.894	-200.000	0.030	0.139
-585.879	-200.000	-0.012	-0.142
-584.865	314.692	0.053	-0.101
-583.850	800.000	-0.131	0.371
-582.836	-48.898	-0.116	0.056
-581.821	-81.522	0.104	-0.034
-580.806	-200.000	0.027	-0.137
-579.792	-27.778	-0.393	0.230
-578.777	-22.236	-0.251	0.153
-577.763	98.628	0.267	0.311
-576.748	-200.000	0.000	-0.053
-575.733	72.121	0.141	-0.148
-574.719	60.537	-0.350	-0.349
-573.704	-1.856	-0.068	-0.048
-572.690	207.474	-0.033	0.052
-571.675	312.620	-0.154	0.292
-570.661	166.153	-0.159	-0.227
-569.646	-54.856	-0.159	0.073
-568.631	-176.167	-0.187	0.005
-567.617	163.303	0.110	-0.157
-566.602	-134.045	-0.182	0.023
-565.588	-200.000	-0.062	-0.305
-564.573	-200.000	-0.044	-0.294
-563.558	800.000	-0.082	0.239
-562.544	-200.000	0.048	0.258
-561.529	-11.286	-0.274	-0.182
-560.515	-200.000	-0.009	-0.322
-559.500	371.244	0.064	-0.130
-558.485	-24.345	0.223	0.134
-557.471	86.922	-0.222	0.247
-556.456	-153.318	0.299	-0.021
-555.442	-200.000	-0.058	0.292
-554.427	117.392	0.030	-0.037
-553.412	-200.000	-0.025	-0.201
-552.398	800.000	0.048	0.149
-551.383	-176.171	-0.197	-0.005
-550.369	-133.797	0.211	0.026
-549.354	-103.261	0.235	0.056
-548.339	-200.000	0.011	-0.150
-547.325	375.815	-0.073	-0.150
-546.310	413.602	0.074	-0.159
-545.296	47.757	0.250	0.235
-544.281	-15.393	-0.265	-0.171
-543.266	-84.330	0.269	-0.086
-542.252	-125.706	-0.232	-0.035
-541.237	-7.124	0.285	-0.195
-540.223	-200.000	-0.035	-0.230
-539.208	-200.000	0.045	-0.200
-538.193	64.514	-0.023	-0.023
-537.179	439.587	-0.163	0.358
-536.164	-200.000	-0.008	0.094
-535.150	-83.980	0.137	-0.044
-534.135	12.496	0.259	-0.201
-533.121	126.141	-0.120	0.152
-532.106	275.728	-0.083	-0.148
-531.091	-79.761	-0.144	-0.049
-530.077	294.734	-0.079	-0.146
-529.062	63.351	-0.223	0.225
-528.048	-114.592	0.194	-0.037
-527.033	-200.000	-0.055	-0.371
-526.018	-200.000	-0.030	-0.202
-525.004	-200.000	0.008	0.041
-523.989	106.606	0.065	0.077
-522.975	49.445	0.026	-0.025
-521.960	-200.000	-0.061	-0.272
-520.945	110.473	-0.095	-0.115
-519.931	117.150	-0.139	-0.172
-518.916	132.398	0.038	0.050
-517.902	-200.000	0.011	-0.065
-516.887	45.968	-0.055	-0.051
-515.872	-99.037	0.074	-0.019
-514.858	-200.000	-0.262	-0.001
-513.843	-200.000	-0.002	-0.322
-512.829	800.000	0.044	-0.175
-511.814	-73.136	0.331	0.122
-510.799	202.980	-0.205	0.319
-509.785	-78.425	0.235	-0.081
-508.770	-38.717	-0.049	0.026
-507.756	188.270	0.157	0.236
-506.741	-27.774	-0.403	-0.235
-505.726	-87.314	0.394	-0.120
-504.712	800.000	0.119	-0.347
-503.697	34.227	-0.181	-0.158
-502.683	-33.488	-0.127	-0.071
-501.668	28.527	-0.099	-0.084
-500.653	-36.625	0.329	0.178
-499.639	-40.585	-0.196	0.102
-498.624	-45.746	-0.383	-0.190
-497.610	-92.300	0.155	0.044
-496.595	800.000	-0.083	-0.300
-495.581	800.000	0.105	0.385
-494.566	-22.729	-0.283	-0.172
-493.551	679.221	-0.133	-0.348
-492.537	358.265	0.124	-0.249
-491.522	33.334	0.184	0.161
-490.508	-72.482	0.174	0.065
-489.493	-200.000	0.016	0.337
-488.478	-59.310	-0.068	0.029
-487.464	318.543	-0.165	-0.314
-486.449	64.240	-0.219	0.221
-485.435	-60.880	0.254	0.108
-484.420	-200.000	0.044	-0.229
-483.405	89.129	0.107	0.119
-482.391	-200.000	-0.014	0.219
-481.376	-200.000	-0.023	-0.148
-480.362	800.000	-0.112	-0.343
-479.347	68.656	-0.206	0.213
-478.332	-26.073	0.349	0.206
-477.318	585.067	-0.124	-0.307
-476.303	100.398	0.067	0.078
-475.289	244.290	-0.230	-0.387
-474.274	-200.000	0.036	0.162
-473.259	-200.000	0.039	-0.354
-472.245	-39.365	0.285	-0.150
-471.230	-11.937	0.256	-0.169
-470.216	-114.224	0.334	0.065
-469.201	49.701	0.120	0.113
-468.186	-33.403	0.106	0.059
-467.172	652.913	0.102	0.263
-466.157	-16.170	0.005	-0.003
-465.143	140.030	-0.077	-0.101
-464.128	287.062	-0.080	-0.145
-463.113	110.177	-0.194	-0.233
-462.099	252.363	-0.195	0.333
-461.084	-76.894	-0.214	0.075
-460.070	6.191	-0.280	0.208
-459.055	-181.908	-0.176	-0.003
-458.040	151.509	0.066	-0.090
-457.026	800.000	-0.088	0.258
-456.011	-109.000	0.059	-0.013
-454.997	-70.125	0.124	-0.047
-453.982	240.504	-0.085	-0.142
-452.968	186.473	0.109	-0.163
-451.953	-103.362	0.252	-0.060
-450.938	-200.000	-0.021	-0.196
-449.924	196.611	-0.135	0.207
-448.909	800.000	0.031	0.101
-447.895	-200.000	0.049	0.288
-446.880	297.936	-0.110	0.203
-445.865	-200.000	-0.032	-0.217
-444.851	155.551	-0.156	0.215
-443.836	-29.256	0.377	0.217
-442.822	55.124	-0.126	-0.122
-441.807	66.489	-0.055	0.056
-440.792	165.663	0.184	0.261
-439.778	800.000	-0.076	-0.284
-438.763	-187.661	0.209	-0.003
-437.749	-151.392	-0.389	0.029
-436.734	-122.754	-0.124	-0.020
-435.719	29.475	-0.111	0.095
-434.705	-200.000	-0.034	-0.256
-433.690	-4.412	0.151	0.105
-432.676	115.276	0.165	-0.202
-431.661	-118.434	-0.053	0.009
-430.646	-200.000	-0.113	0.000
-429.632	-56.043	0.065	-0.029
-428.617	-148.945	0.083	0.007
-427.603	-198.408	0.156	-0.001
-426.588	-44.934	0.137	0.069
-425.573	-85.184	-0.352	0.110
-424.559	124.195	0.300	0.379
-423.544	-200.000	0.026	-0.251
-422.530	-132.102	-0.416	0.054
-421.515	-21.695	-0.169	0.103
-420.500	-72.398	0.414	0.154
-419.486	80.789	0.173	-0.187
-418.471	481.269	-0.200	0.456
-417.457	77.063	0.107	-0.114
-416.442	66.374	-0.172	-0.175
-415.428	3.307	0.159	0.116
-414.413	69.970	-0.100	0.104
-413.398	-200.000	-0.048	-0.263
-412.384	800.000	0.013	0.041
-411.369	-70.163	0.116	0.044
-410.355	-101.979	-0.268	0.065
-409.340	-140.223	0.100	0.011
-408.325	211.052	-0.143	-0.225
-407.311	332.356	0.099	-0.192
-406.296	528.918	0.018	-0.043
-405.282	-200.000	-0.024	-0.283
-404.267	-200.000	0.046	-0.378
-403.252	800.000	-0.052	0.180
-402.238	232.372	-0.205	0.337
-401.223	610.190	-0.029	0.072
-400.209	-4.530	0.222	-0.154
-399.194	800.000	0.054	-0.169
-398.179	489.442	-0.146	-0.334
-397.165	-70.727	0.142	0.054
-396.150	800.000	0.043	0.161
-395.136	-31.783	0.216	-0.122
-394.121	6.356	0.235	0.175
-393.106	146.012	0.189	-0.254
-392.092	-151.217	-0.144	-0.011
-391.077	296.870	0.154	0.283
-390.063	-14.431	-0.164	0.106
-389.048	-200.000	0.019	-0.105
-388.033	-19.986	0.284	-0.176
-387.019	333.793	0.185	-0.358
-386.004	12.787	0.086	-0.067
-384.990	-144.482	-0.257	0.024
-383.975	228.953	0.137	0.223
-382.960	-200.000	0.044	0.248
-381.946	-200.000	0.007	-0.220
-380.931	-2.835	0.239	0.167
-379.917	2.095	-0.258	0.187
-378.902	-63.729	0.223	-0.092
-377.888	-159.421	0.312	0.017
-376.873	87.652	-0.299	0.331
-375.858	-200.000	0.003	-0.097
-374.844	569.566	0.084	-0.203
-373.829	245.591	0.212	-0.358
-372.815	36.263	0.155	-0.137
-371.800	-112.402	0.203	-0.041
-370.785	-200.000	0.035	0.169
-369.771	-200.000	0.022	0.283
-368.756	800.000	0.064	0.197
-367.742	86.463	-0.227	-0.250
-366.727	-61.840	-0.158	0.066
-365.712	800.000	0.092	0.346
-364.698	800.000	-0.076	0.331
-363.683	-77.991	0.218	0.075
-362.669	100.389	0.115	-0.133
-361.654	-68.834	-0.171	0.066
-360.639	36.090	-0.244	-0.215
-359.625	663.998	-0.167	0.430
-358.610	-200.000	0.004	0.171
-357.596	300.295	0.169	0.311
-356.581	800.000	0.048	-0.159
-355.566	-200.000	-0.014	-0.188
-354.552	-200.000	0.007	-0.131
-353.537	83.580	-0.098	-0.106
-352.523	-113.793	-0.316	-0.062
-351.508	55.402	-0.076	-0.074
-350.493	124.346	0.034	0.043
-349.479	-55.902	-0.306	-0.137
-348.464	415.279	-0.142	-0.303
-347.450	309.031	0.067	-0.125
-346.435	195.216	0.060	-0.092
-345.420	800.000	0.069	0.220
-344.406	1.234	0.050	-0.036
-343.391	800.000	-0.022	0.086
-342.377	188.431	-0.227	0.340
-341.362	-36.630	0.137	-0.073
-340.348	265.410	-0.176	0.308
-339.333	701.874	0.086	0.227
-338.318	-200.000	-0.036	-0.158
-337.304	-1.812	0.065	0.045
-336.289	127.717	0.151	-0.192
-335.275	-11.227	0.384	0.253
-334.260	107.947	0.086	-0.103
-333.245	800.000	-0.092	0.332
-332.231	-200.000	0.015	-0.250
-331.216	340.900	0.069	0.135
-330.202	121.648	-0.138	0.172
-329.187	-123.720	0.271	-0.043
-328.172	257.264	0.106	-0.183
-327.158	-75.524	-0.390	0.139
-326.143	-187.784	0.203	0.003
-325.129	-50.691	0.289	0.136
-324.114	459.307	-0.111	0.247
-323.099	-124.386	0.423	-0.066
-322.085	800.000	0.064	-0.199
-321.070	-200.000	0.008	0.092
-320.056	11.854	0.270	0.207
-319.041	800.000	0.055	0.221
-318.026	-200.000	-0.022	-0.417
-317.012	-200.000	-0.006	-0.155
-315.997	-118.698	-0.181	-0.032
-314.983	-49.119	-0.240	0.114
-313.968	540.072	0.117	0.278
-312.953	-200.000	-0.015	0.270
-311.939	-56.327	-0.181	0.080
-310.924	-114.105	0.304	-0.059
-309.910	43.244	0.193	0.176
-308.895	183.466	-0.152	-0.224
-307.880	422.302	-0.050	0.107
-306.866	-69.859	0.236	0.090
-305.851	451.217	-0.095	0.209
-304.837	-128.079	-0.056	-0.008
-303.822	800.000	-0.009	-0.039
-302.807	25.049	-0.068	0.056
-301.793	192.343	0.141	-0.212
-300.778	58.063	-0.137	0.134
-299.764	-200.000	0.127	0.570
-298.749	29.142	-0.313	0.265
-297.735	-111.375	-0.215	0.044
-296.720	800.000	0.056	-0.203
-295.705	240.351	-0.069	0.114
-294.691	0.520	-0.176	0.126
-293.676	-148.828	-0.059	0.005
-292.662	40.969	0.177	-0.160
-291.647	-133.972	0.161	0.020
-290.632	742.243	0.052	0.139
-289.618	243.953	0.007	-0.011
-288.603	376.111	-0.058	0.118
-287.589	33.468	0.117	-0.101
-286.574	-200.000	-0.017	0.088
-285.559	-139.612	0.526	0.056
-284.545	-168.933	-0.189	-0.007
-283.530	-22.425	0.280	0.169
-282.516	678.289	0.200	0.518
-281.501	-136.885	0.539	-0.062
-280.486	-14.379	0.007	-0.004
-279.472	57.518	-0.061	0.059
-278.457	256.440	-0.165	0.282
-277.443	800.000	-0.033	-0.097
-276.428	-13.854	0.152	0.098
-275.413	800.000	-0.071	0.265
-274.399	31.599	-0.302	-0.259
-273.384	-200.000	0.022	0.217
-272.370	800.000	0.102	0.314
-271.355	110.344	0.082	-0.099
-270.340	-184.722	-0.366	0.006
-269.326	-200.000	-0.037	0.164
-268.311	267.084	-0.121	-0.210
-267.297	198.472	0.123	-0.187
-266.282	800.000	0.068	0.204
-265.267	800.000	0.070	0.211
-264.253	-109.367	0.132	0.028
-263.238	-39.873	-0.477	0.248
-262.224	177.578	0.209	-0.303
-261.209	-137.164	-0.336	-0.038
-260.195	-200.000	0.016	0.096
-259.180	-68.621	0.338	-0.131
-258.165	14.395	0.064	-0.050
-257.151	166.266	-0.107	-0.151
-256.136	2.030	-0.243	-0.175
-255.122	93.338	-0.351	-0.396
-254.107	-139.460	0.235	-0.025
-253.092	-98.289	-0.327	-0.084
-252.078	-200.000	0.031	-0.159
-251.063	-136.993	-0.174	-0.020
-250.049	68.333	-0.148	-0.151
-249.034	-1.608	0.298	-0.209
-248.019	-30.519	0.239	0.135
-247.005	27.670	-0.048	-0.040
-245.990	289.366	-0.147	-0.266
-244.976	-137.224	0.113	0.013
-243.961	-200.000	-0.046	-0.440
-242.946	800.000	0.074	-0.221
-241.932	109.604	0.193	-0.230
-240.917	-59.265	0.093	0.040
-239.903	-200.000	0.016	-0.151
-238.888	-85.576	-0.228	0.071
-237.873	-91.255	0.232	0.066
-236.859	-35.050	-0.250	-0.136
-235.844	-200.000	-0.016	-0.096
-234.830	-69.640	0.244	0.093
-233.815	13.506	0.239	0.185
-232.800	151.871	-0.147	0.200
-231.786	-8.136	0.169	-0.113
-230.771	33.692	-0.287	-0.248
-229.757	135.673	-0.167	-0.216
-228.742	-25.049	-0.057	-0.034
-227.727	118.961	0.126	-0.155
-226.713	-164.589	0.312	0.014
-225.698	-47.961	-0.504	-0.242
-224.684	-105.389	0.210	0.047
-223.669	-70.408	0.142	0.053
-222.655	-200.000	0.040	0.180
-221.640	-200.000	0.012	0.112
-220.625	-173.190	-0.317	0.010
-219.611	-23.833	-0.096	0.057
-218.596	800.000	-0.018	-0.061
-217.582	800.000	0.083	0.247
-216.567	366.940	-0.041	-0.081
-215.552	-200.000	0.015	0.233
-214.538	-200.000	0.052	0.367
-213.523	284.341	-0.053	0.095
-212.509	8.720	0.174	0.130
-211.494	-137.666	-0.107	-0.012
-210.479	-123.338	-0.115	0.018
-209.465	-62.294	0.230	-0.095
-208.450	24.507	-0.223	0.183
-207.436	-200.000	0.004	0.177
-206.421	-155.399	-0.260	-0.017
-205.406	12.340	-0.111	-0.085
-204.392	-200.000	-0.007	0.497
-203.377	-200.000	0.004	-0.071
-202.363	472.494	0.136	-0.305
-201.348	68.541	0.301	-0.306
-200.333	-137.708	0.219	-0.024
-199.319	-89.960	-0.101	-0.029
-198.304	-7.955	-0.143	0.096
-197.290	97.119	0.116	0.133
-196.275	-200.000	-0.009	-0.072
-195.260	83.075	0.160	0.173
-194.246	-71.689	0.402	-0.149
-193.231	800.000	0.042	0.155
-192.217	-200.000	0.008	-0.330
-191.202	-82.313	0.268	0.087
-190.187	-67.009	0.238	-0.093
-189.173	39.003	0.092	0.081
-188.158	-200.000	0.024	0.453
-187.144	85.091	0.154	-0.168
-186.129	-200.000	0.006	-0.340
-185.114	13.021	-0.175	0.134
-184.100	-18.872	-0.072	-0.045
-183.085	800.000	-0.095	0.282
-182.071	96.250	-0.172	-0.196
-181.056	-200.000	-0.001	-0.184
-180.042	274.172	0.113	0.199
-179.027	-137.450	0.422	-0.047
-178.012	413.902	-0.130	0.274
-176.998	800.000	0.068	-0.248
-175.983	-200.000	0.032	0.374
-174.969	-175.234	-0.123	-0.003
-173.954	-29.546	0.247	-0.140
-172.939	234.302	0.059	0.096
-171.925	156.674	-0.185	0.253
-170.910	-200.000	-0.046	0.215
-169.896	-182.650	-0.287	0.005
-168.881	52.437	0.178	-0.168
-167.866	209.599	-0.176	0.275
-166.852	-74.511	-0.395	0.141
-165.837	-8.848	0.240	-0.159
-164.823	37.309	0.196	0.172
-163.808	-69.084	-0.151	-0.058
-162.793	-89.051	-0.182	0.053
-161.779	-200.000	0.012	-0.168
-160.764	46.753	0.120	0.111
-159.750	604.188	-0.174	0.429
-158.735	148.533	0.067	-0.089
-157.720	42.947	0.063	-0.057
-156.706	-24.963	-0.290	0.171
-155.691	-136.424	0.133	-0.015
-154.677	425.369	0.206	-0.440
-153.662	-32.748	0.176	-0.097
-152.647	345.867	0.047	0.092
-151.633	800.000	0.037	-0.144
-150.618	-200.000	-0.013	0.173
-149.604	89.204	-0.182	-0.201
-148.589	536.070	0.105	0.247
-147.574	300.645	-0.077	-0.141
-146.560	-200.000	-0.023	0.203
-145.545	138.764	0.108	-0.140
-144.531	-85.136	0.347	0.108
-143.516	800.000	-0.062	-0.200
-142.502	327.450	0.074	0.141
-141.487	178.002	0.024	-0.034
-140.472	-200.000	0.003	0.160
-139.458	-179.607	0.200	-0.004
-138.443	130.439	0.113	0.143
-137.429	12.948	-0.093	0.071
-136.414	-39.272	-0.146	0.076
-135.399	-200.000	-0.012	-0.148
-134.385	800.000	-0.044	0.150
-133.370	-200.000	-0.008	-0.041
-132.356	51.709	-0.132	0.125
-131.341	-20.966	0.369	-0.224
-130.326	-93.216	0.313	0.086
-129.312	51.956	-0.162	-0.153
-128.297	-73.756	0.230	0.083
-127.283	230.183	-0.077	0.124
-126.268	-81.787	-0.359	0.117
-125.253	-200.000	-0.030	0.479
-124.239	491.127	-0.041	-0.094
-123.224	-86.282	-0.262	0.080
-122.210	-114.746	0.377	0.071
-121.195	194.554	0.220	-0.331
-120.180	-47.739	-0.023	-0.011
-119.166	-200.000	-0.001	-0.260
-118.151	99.546	-0.190	-0.218
-117.137	-18.264	0.222	0.138
-116.122	-64.863	0.274	-0.110
-115.107	-105.638	0.126	-0.028
-114.093	336.044	-0.088	0.169
-113.078	800.000	-0.071	-0.235
-112.064	173.513	0.209	0.298
-111.049	142.296	-0.233	0.307
-110.034	-200.000	-0.034	0.278
-109.020	-200.000	-0.032	0.148
-108.005	182.195	0.058	-0.084
-106.991	-45.898	0.193	-0.094
-105.976	-78.366	0.207	-0.070
-104.962	-61.017	-0.251	0.105
-103.947	-19.879	0.268	-0.164
-102.932	-101.138	0.246	0.060
-101.918	-192.086	-0.192	0.002
-100.903	-81.868	-0.111	0.036
-99.889	-71.982	-0.028	0.010
-98.874	76.733	0.090	0.094
-97.859	800.000	0.017	0.057
-96.845	-200.000	-0.031	0.289
-95.830	-30.556	0.127	0.071
-94.816	127.303	0.241	0.302
-93.801	800.000	-0.031	0.090
-92.786	-200.000	-0.086	0.569
-91.772	-200.000	-0.007	0.158
-90.757	-200.000	-0.022	0.123
-89.743	-200.000	0.022	0.235
-88.728	168.218	0.108	0.153
-87.713	-200.000	0.002	0.137
-86.699	-162.804	-0.298	0.014
-85.684	603.139	-0.082	-0.203
-84.670	0.660	-0.103	-0.073
-83.655	-135.846	-0.237	0.028
-82.640	-0.451	0.290	-0.203
-81.626	53.033	-0.140	0.132
-80.611	9.039	0.184	0.138
-79.597	295.858	0.142	0.257
-78.582	-54.423	-0.295	0.132
-77.567	-55.638	0.432	-0.191
-76.553	800.000	-0.003	0.014
-75.538	800.000	-0.125	-0.361
-74.524	13.395	0.257	0.197
-73.509	-116.554	0.209	0.038
-72.494	149.912	0.250	-0.336
-71.480	6.526	-0.279	-0.205
-70.465	-84.037	-0.247	-0.077
-69.451	-200.000	-0.009	-0.150
-68.436	87.245	0.222	0.242
-67.422	-200.000	-0.011	0.079
-66.407	630.439	0.035	0.087
-65.392	34.322	-0.299	0.258
-64.378	115.175	0.156	-0.188
-63.363	800.000	0.079	-0.264
-62.349	129.191	0.074	0.093
-61.334	91.447	-0.892	-0.990
-60.319	45.148	0.368	0.335
-59.305	800.000	-0.283	-0.775
-58.290	217.993	0.770	1.215
-57.276	800.000	0.367	1.430
-56.261	-200.000	105.024	570.691
-55.246	443.535	1465.252	3174.817
-54.232	144.203	2665.969	3515.433
-53.217	96.257	2337.704	2641.665
-52.203	35.939	2088.361	1815.637
-51.188	31.449	2002.592	1700.285
-50.173	29.880	1985.337	1671.410
-49.159	45.543	2040.623	1861.864
-48.144	45.797	2057.634	1879.633
-47.130	32.032	2016.727	1717.349
-46.115	29.715	2006.115	1687.128
-45.100	29.631	2002.713	1683.435
-44.086	29.603	2000.861	1681.558
-43.071	29.590	1997.702	1678.719
-42.057	29.478	1996.247	1676.415
-41.042	29.557	1994.144	1675.299
-40.027	29.556	1992.230	1673.614
-39.013	29.664	1989.451	1672.191
-37.998	29.629	1988.218	1670.773
-36.984	29.578	1987.070	1669.278
-35.969	29.600	1984.295	1667.077
-34.954	29.659	1982.851	1666.333
-33.940	29.698	1981.549	1665.521
-32.925	29.643	1979.587	1663.312
-31.911	29.741	1977.842	1662.658
-30.896	29.654	1976.417	1660.615
-29.881	29.716	1974.368	1659.387
-28.867	29.780	1972.988	1658.732
-27.852	29.761	1971.197	1656.992
-26.838	29.802	1969.339	1655.734
-25.823	29.735	1967.508	1653.532
-24.809	29.710	1965.672	1651.692
-23.794	29.680	1964.213	1650.134
-22.779	29.699	1962.413	1648.729
-21.765	29.689	1960.919	1647.319
-20.750	29.772	1958.946	1646.332
-19.736	29.678	1957.600	1644.297
-18.721	29.664	1956.173	1642.912
-17.706	29.718	1954.384	1641.824
-16.692	29.738	1952.034	1639.962
-15.677	29.716	1951.135	1638.952
-14.663	29.732	1949.826	1637.921
-13.648	29.773	1948.428	1637.051
-12.633	29.712	1947.204	1635.414
-11.619	29.631	1945.725	1633.388
-10.604	29.620	1945.020	1632.638
-9.590	29.696	1943.418	1631.901
-8.575	29.641	1942.019	1630.175
-7.560	29.669	1940.369	1628.972
-6.546	29.693	1939.062	1628.019
-5.531	29.714	1937.503	1626.829
-4.517	29.701	1936.370	1625.700
-3.502	29.771	1935.603	1625.609
-2.487	29.762	1934.027	1624.139
-1.473	29.747	1933.289	1623.330
-0.458	29.711	1928.445	1618.878
0.556	27.927	1908.674	1592.902
1.571	23.877	1889.343	1541.599
2.586	19.966	1912.789	1526.185
3.600	18.971	1948.728	1545.789
4.615	18.831	1943.719	1540.418
5.629	14.809	1842.203	1425.597
6.644	5.951	1721.150	1260.914
7.659	0.809	1682.676	1192.168
8.673	0.203	1679.482	1185.028
9.688	0.187	1678.091	1183.818
10.702	0.203	1676.622	1182.807
11.717	0.077	1672.953	1179.128
12.731	0.756	1672.552	1184.054
13.746	7.378	1688.058	1247.136
14.761	15.497	1704.128	1323.116
15.775	17.660	1706.079	1341.557
16.790	16.932	1703.130	1333.403
17.804	15.920	1699.669	1322.629
18.819	14.868	1697.147	1312.297
19.834	14.399	1694.054	1306.113
20.848	14.116	1693.141	1303.072
21.863	13.770	1691.132	1298.707
22.877	13.558	1689.547	1295.714
23.892	13.347	1688.109	1292.852
24.907	13.242	1687.148	1291.181
25.921	13.281	1685.870	1290.391
26.936	13.241	1684.997	1289.297
27.950	13.172	1685.081	1288.712
28.965	13.307	1683.447	1288.400
29.980	13.386	1682.823	1288.420
30.994	13.460	1681.608	1287.954
32.009	13.424	1680.768	1286.914
33.023	13.400	1680.353	1286.297
34.038	13.527	1678.812	1285.985
35.053	13.453	1678.097	1284.751
36.067	13.491	1676.180	1283.469
37.082	13.444	1675.695	1282.621
38.096	13.404	1674.600	1281.359
39.111	13.472	1673.778	1281.144
40.126	13.429	1673.175	1280.234
41.140	13.413	1672.129	1279.197
42.155	13.316	1670.582	1277.148
43.169	13.241	1669.556	1275.673
44.184	13.177	1668.775	1274.468
45.199	13.222	1667.175	1273.480
46.213	13.158	1666.223	1272.149
47.228	13.231	1664.859	1271.556
48.242	13.302	1663.612	1271.039
49.257	13.351	1662.257	1270.266
50.271	13.294	1661.454	1269.106
51.286	13.312	1660.209	1268.175
52.301	13.319	1658.541	1266.848
53.315	13.279	1657.372	1265.530
54.330	13.292	1655.988	1264.466
55.344	13.316	1653.941	1262.971
56.359	13.244	1653.030	1261.619
57.374	13.311	1651.739	1261.029
58.388	13.243	1650.749	1259.643
59.403	13.294	1648.646	1258.315
60.417	13.258	1647.467	1257.033
61.432	13.226	1646.506	1255.945
62.447	13.200	1645.371	1254.769
63.461	13.234	1644.285	1254.091
64.476	13.140	1642.904	1252.208
65.490	13.168	1642.225	1251.795
66.505	13.185	1640.703	1250.650
67.520	13.222	1639.662	1250.026
68.534	13.207	1638.533	1248.941
69.549	13.246	1636.934	1247.911
70.563	13.161	1636.151	1246.562
71.578	13.215	1634.453	1245.564
72.593	13.184	1634.075	1244.931
73.607	13.171	1632.997	1243.903
74.622	13.125	1631.706	1242.462
75.636	13.171	1630.168	1241.526
76.651	13.089	1630.093	1240.744
77.666	13.094	1628.909	1239.771
78.680	13.160	1627.861	1239.358
79.695	13.058	1627.211	1237.990
80.709	13.153	1625.987	1237.660
81.724	13.243	1624.738	1237.276
82.739	13.152	1624.278	1236.130
83.753	13.248	1623.146	1235.879
84.768	13.249	1622.450	1235.250
85.782	13.264	1622.047	1234.946
86.797	13.350	1620.665	1234.423
87.812	13.435	1619.529	1234.084
88.826	13.303	1618.429	1232.152
89.841	13.292	1617.236	1231.056
90.855	13.285	1615.996	1229.951
91.870	13.289	1614.936	1229.066
92.884	13.376	1614.269	1229.092
93.899	13.418	1612.986	1228.320
94.914	13.373	1611.742	1226.932
95.928	13.443	1610.834	1226.648
96.943	13.421	1608.907	1224.910
97.957	13.423	1607.892	1224.046
98.972	13.367	1606.249	1222.266
99.987	13.344	1604.660	1220.782
101.001	13.375	1603.304	1219.874
102.016	13.363	1601.174	1218.059
103.030	13.391	1599.864	1217.159
104.045	13.339	1598.876	1215.917
105.060	13.423	1597.692	1215.527
106.074	13.380	1596.178	1213.950
107.089	13.291	1594.914	1212.229
108.103	13.257	1593.314	1210.653
109.118	13.152	1592.047	1208.816
110.133	13.136	1590.270	1207.243
111.147	13.220	1588.535	1206.436
112.162	13.240	1587.214	1205.466
113.176	13.215	1585.714	1204.039
114.191	13.266	1584.996	1203.764
115.206	13.350	1583.273	1202.958
116.220	13.236	1581.991	1201.050
117.235	13.291	1580.749	1200.401
118.249	13.286	1579.418	1199.246
119.264	13.298	1578.200	1198.303
120.279	13.314	1576.689	1197.166
121.293	13.227	1575.290	1195.369
122.308	13.191	1573.905	1193.950
123.322	13.253	1571.663	1192.592
124.337	13.161	1570.700	1191.095
125.352	13.213	1569.283	1190.282
126.366	13.243	1568.169	1189.550
127.381	13.200	1567.265	1188.450
128.395	13.189	1565.908	1187.238
129.410	13.322	1564.246	1186.826
130.424	13.267	1563.287	1185.600
131.439	13.274	1561.979	1184.556
132.454	13.318	1560.668	1183.767
133.468	13.281	1559.481	1182.501
134.483	13.284	1558.248	1181.483
135.497	13.291	1556.696	1180.251
136.512	13.366	1554.929	1179.339
137.527	13.297	1554.026	1178.060
138.541	13.299	1552.629	1176.911
139.556	13.331	1550.885	1175.716
140.570	13.365	1549.162	1174.542
141.585	13.475	1547.923	1174.279
142.600	13.399	1547.206	1173.094
143.614	13.430	1545.769	1172.123
144.629	13.391	1545.078	1171.216
145.643	13.513	1543.539	1170.809
146.658	13.501	1542.147	1169.563
147.673	13.487	1540.258	1167.928
148.687	13.515	1538.573	1166.749
149.702	13.516	1537.105	1165.539
150.716	13.442	1535.689	1163.838
151.731	13.455	1534.329	1162.796
152.746	13.374	1532.987	1161.113
153.760	13.432	1531.342	1160.170
154.775	13.402	1530.738	1159.399
155.789	13.518	1528.655	1158.525
156.804	13.555	1527.634	1157.912
157.819	13.566	1526.164	1156.770
158.833	13.582	1525.017	1155.910
159.848	13.593	1524.126	1155.207
160.862	13.701	1523.052	1155.043
161.877	13.654	1521.532	1153.461
162.892	13.624	1520.214	1152.156
163.906	13.590	1519.284	1151.111
164.921	13.547	1518.328	1149.989
165.935	13.575	1516.546	1148.728
166.950	13.558	1515.881	1148.006
167.964	13.711	1514.529	1147.941
168.979	13.617	1513.900	1146.709
169.994	13.609	1512.876	1145.778
171.008	13.624	1511.606	1144.818
172.023	13.696	1510.563	1144.428
173.037	13.825	1508.835	1143.903
174.052	13.701	1508.253	1142.504
175.067	13.797	1506.995	1142.110
176.081	13.741	1506.031	1140.898
177.096	13.756	1504.084	1139.422
178.110	13.677	1503.384	1138.249
179.125	13.608	1502.326	1136.872
180.140	13.630	1501.371	1136.205
181.154	13.667	1499.977	1135.299
182.169	13.654	1499.191	1134.518
183.183	13.812	1497.818	1134.456
184.198	13.710	1496.929	1132.989
185.213	13.830	1495.892	1132.923
186.227	13.861	1494.385	1131.891
187.242	13.840	1493.559	1131.019
188.256	13.926	1492.391	1130.620
189.271	13.947	1491.382	1129.898
190.286	13.978	1490.010	1128.969
191.300	13.935	1489.028	1127.835
192.315	13.785	1487.504	1125.566
193.329	13.729	1486.640	1124.432
194.344	13.816	1485.197	1123.830
195.359	13.746	1484.682	1122.869
196.373	13.752	1483.462	1121.882
197.388	13.780	1482.698	1121.395
198.402	13.958	1481.378	1121.501
199.417	13.923	1480.314	1120.359
200.432	13.969	1479.300	1119.803
201.446	14.031	1478.086	1119.206
202.461	14.066	1476.922	1118.457
203.475	14.100	1475.808	1117.743
204.490	14.172	1474.888	1117.434
205.504	14.026	1473.758	1115.498
206.519	14.143	1472.468	1115.211
207.534	14.085	1471.089	1113.678
208.548	14.093	1470.290	1113.026
209.563	14.040	1470.001	1112.353
210.577	14.185	1468.411	1112.023
211.592	14.075	1467.748	1110.686
212.607	14.116	1466.984	1110.281
213.621	14.208	1466.369	1110.336
214.636	14.288	1465.337	1109.988
215.650	14.258	1464.136	1108.780
216.665	14.287	1463.376	1108.300
217.680	14.154	1462.929	1106.981
218.694	14.295	1461.476	1106.720
219.709	14.321	1460.321	1105.917
220.723	14.411	1459.598	1105.872
221.738	14.338	1458.888	1104.752
222.753	14.300	1458.071	1103.781
223.767	14.361	1456.965	1103.250
224.782	14.373	1455.814	1102.362
225.796	14.489	1454.622	1102.129
226.811	14.443	1454.102	1101.329
227.826	14.463	1453.433	1100.861
228.840	14.408	1452.726	1099.866
229.855	14.423	1451.527	1098.958
230.869	14.306	1451.099	1097.766
231.884	14.357	1449.657	1096.915
232.899	14.520	1447.856	1096.526
233.913	14.346	1447.293	1094.858
234.928	14.382	1446.479	1094.381
235.942	14.366	1445.240	1093.244
236.957	14.354	1443.467	1091.726
237.972	14.384	1442.427	1091.042
238.986	14.506	1441.127	1090.758
240.001	14.334	1440.882	1089.352
241.015	14.402	1439.537	1088.679
242.030	14.429	1438.400	1087.902
243.045	14.539	1437.491	1087.835
244.059	14.588	1436.369	1087.212
245.074	14.535	1435.978	1086.470
246.088	14.500	1435.095	1085.478
247.103	14.605	1434.188	1085.380
248.117	14.732	1433.225	1085.382
249.132	14.610	1432.635	1084.044
250.147	14.666	1432.106	1083.911
251.161	14.799	1431.423	1084.162
252.176	14.913	1430.045	1083.765
253.190	14.829	1429.671	1082.842
254.205	14.792	1428.904	1081.925
255.220	14.881	1427.999	1081.715
256.234	14.920	1426.835	1080.992
257.249	14.864	1426.237	1080.084
258.263	14.970	1425.368	1080.013
259.278	15.003	1424.160	1079.212
260.293	15.023	1423.110	1078.452
261.307	15.060	1422.328	1078.001
262.322	15.052	1421.959	1077.576
263.336	15.113	1421.156	1077.262
264.351	15.097	1419.899	1076.115
265.366	15.039	1419.268	1075.170
266.380	15.133	1418.067	1074.767
267.395	15.296	1416.893	1074.824
268.409	15.141	1416.412	1073.370
269.424	15.131	1415.567	1072.574
270.439	15.202	1413.949	1071.709
271.453	15.145	1412.983	1070.518
272.468	15.033	1412.402	1069.264
273.482	15.092	1411.744	1069.052
274.497	15.123	1410.926	1068.531
275.512	15.094	1410.156	1067.670
276.526	15.170	1409.119	1067.274
277.541	15.237	1407.957	1066.726
278.555	15.124	1407.041	1065.220
279.570	15.196	1406.630	1065.271
280.585	15.241	1405.461	1064.577
281.599	15.293	1404.733	1064.266
282.614	15.289	1403.672	1063.341
283.628	15.337	1402.534	1062.687
284.643	15.228	1401.455	1061.086
285.657	15.329	1400.104	1060.607
286.672	15.224	1399.804	1059.624
287.687	15.310	1398.933	1059.415
288.701	15.350	1397.434	1058.436
289.716	15.311	1397.109	1057.850
290.730	15.335	1396.140	1057.175
291.745	15.389	1395.343	1056.815
292.760	15.415	1394.271	1056.075
293.774	15.405	1392.978	1054.940
294.789	15.368	1392.374	1054.157
295.803	15.477	1391.599	1054.162
296.818	15.493	1390.500	1053.336
297.833	15.477	1389.410	1052.319
298.847	15.471	1388.556	1051.542
299.862	15.475	1387.624	1050.764
300.876	15.456	1386.341	1049.585
301.891	15.451	1385.630	1048.919
302.906	15.535	1384.861	1048.771
303.920	15.619	1384.040	1048.578
304.935	15.586	1383.697	1048.022
305.949	15.615	1382.881	1047.492
306.964	15.626	1381.906	1046.724
307.979	15.725	1380.877	1046.473
308.993	15.721	1379.590	1045.376
310.008	15.756	1378.595	1044.748
311.022	15.757	1377.732	1044.007
312.037	15.843	1376.629	1043.615
313.052	15.766	1376.371	1042.847
314.066	15.673	1375.181	1041.281
315.081	15.771	1374.081	1040.960
316.095	15.718	1372.730	1039.521
317.110	15.692	1371.951	1038.677
318.125	15.776	1371.001	1038.382
319.139	15.734	1369.913	1037.206
320.154	15.774	1368.858	1036.561
321.168	15.685	1368.450	1035.613
322.183	15.785	1366.890	1034.958
323.197	15.759	1366.202	1034.185
324.212	15.858	1364.973	1033.769
325.227	15.795	1364.872	1033.219
326.241	15.814	1363.517	1032.219
327.256	15.811	1362.487	1031.329
328.270	15.826	1362.054	1030.998
329.285	15.795	1361.086	1029.983
330.300	15.854	1359.837	1029.311
331.314	15.778	1359.275	1028.331
332.329	15.877	1357.884	1027.788
333.343	15.942	1357.256	1027.623
334.358	15.926	1356.429	1026.804
335.373	15.949	1355.575	1026.209
336.387	15.958	1354.823	1025.601
337.402	15.953	1353.982	1024.847
338.416	16.066	1353.273	1024.908
339.431	15.975	1353.020	1024.068
340.446	16.090	1351.930	1023.853
341.460	16.054	1351.146	1022.952
342.475	16.174	1349.924	1022.663
343.489	16.202	1348.734	1021.840
344.504	16.239	1347.879	1021.323
345.519	16.077	1347.283	1019.802
346.533	16.262	1346.278	1020.070
347.548	16.316	1345.088	1019.407
348.562	16.282	1344.844	1018.925
349.577	16.304	1343.678	1018.083
350.592	16.149	1343.339	1016.801
351.606	16.240	1342.023	1016.265
352.621	16.273	1340.729	1015.393
353.635	16.261	1339.758	1014.493
354.650	16.238	1339.157	1013.810
355.665	16.260	1337.860	1012.874
356.679	16.262	1336.660	1011.887
357.694	16.286	1335.902	1011.369
358.708	16.284	1334.841	1010.460
359.723	16.378	1333.721	1010.089
360.738	16.405	1332.668	1009.363
361.752	16.378	1331.811	1008.462
362.767	16.435	1330.737	1007.900
363.781	16.409	1329.961	1007.066
364.796	16.317	1329.365	1005.978
365.810	16.384	1328.545	1005.671
366.825	16.397	1327.920	1005.187
367.840	16.544	1327.252	1005.465
368.854	16.565	1326.361	1004.822
369.869	16.605	1325.629	1004.417
370.883	16.581	1324.769	1003.537
371.898	16.622	1324.214	1003.267
372.913	16.534	1323.511	1002.125
373.927	16.627	1322.215	1001.604
374.942	16.634	1321.756	1001.214
375.956	16.623	1320.825	1000.354
376.971	16.690	1320.084	1000.099
377.986	16.733	1319.197	999.591
379.000	16.648	1318.558	998.521
380.015	16.707	1317.634	998.080
381.029	16.836	1317.031	998.295
382.044	16.801	1316.207	997.375
383.059	16.851	1315.259	996.864
384.073	16.865	1315.080	996.719
385.088	16.911	1314.147	996.196
386.102	16.771	1313.645	994.906
387.117	16.773	1313.041	994.370
388.132	16.888	1312.084	994.230
389.146	16.900	1310.771	993.220
390.161	16.783	1310.238	992.041
391.175	16.873	1309.386	991.837
392.190	16.910	1308.221	991.080
393.205	16.904	1307.869	990.695
394.219	16.958	1306.818	990.125
395.234	16.980	1305.591	989.237
396.248	16.948	1304.254	987.947
397.263	17.010	1302.989	987.265
398.278	16.955	1301.379	985.638
399.292	16.860	1300.864	984.608
400.307	16.999	1299.540	984.328
401.321	16.919	1298.491	982.981
402.336	16.925	1297.936	982.507
403.350	16.912	1296.735	981.434
404.365	16.939	1295.906	980.875
405.380	17.009	1294.615	980.218
406.394	17.140	1293.723	980.214
407.409	17.076	1293.035	979.234
408.423	17.079	1292.441	978.716
409.438	17.078	1292.135	978.390
410.453	17.182	1291.312	978.282
411.467	17.128	1290.908	977.577
412.482	17.132	1290.422	977.144
413.496	17.191	1289.476	976.680
414.511	17.350	1288.488	976.760
415.526	17.305	1287.635	975.769
416.540	17.272	1287.038	975.044
417.555	17.326	1286.258	974.674
418.569	17.316	1285.797	974.180
419.584	17.396	1285.351	974.215
420.599	17.471	1284.654	974.032
421.613	94.634	1352.920	1467.565
422.628	92.696	1362.834	1467.659
