DTS Sentinel unit serial number:	SN413079Multiplexer serial number:	ORYXHardware model number:	OX4-SRSoftware version number:	ORYX F/W v4.00 Oryx Data Collector v3.7.2.0data status	okinstallation	princeton_trtdifferential loss correction	single-endedforward channel	channel 4reverse channel	N/Adate	2019/09/17time	12:37:34forward acquisition time	60.00reverse acquisition time	0.00gamma	496.2192k internal	0.2303k external	0.2303temperature offset calibration	0.9993default loss term (dB/km)	0.3790temperature slope calibration	1.0000multiplexer offset coefficient	1.0000multiplexer slope coefficient	1.0000fibre end	0.00T internal ref (°C)	32.20T ext. ref 1 (°C)	0.44T ext. ref 2 (°C)	29.87length (m)	temperature (°C)	Stokes	anti-Stokes-747.200	104.204	0.121	0.145
-746.185	-6.827	-0.164	-0.113
-745.171	800.000	-0.101	0.285
-744.156	-200.000	0.027	0.277
-743.142	-200.000	0.029	0.257
-742.127	237.222	0.169	0.286
-741.112	-200.000	-0.004	0.156
-740.098	-5.114	-0.120	-0.084
-739.083	-41.444	-0.252	0.132
-738.069	-200.000	-0.031	-0.191
-737.054	44.763	0.313	0.294
-736.039	-124.519	-0.267	0.042
-735.025	-28.979	-0.214	0.125
-734.010	177.953	-0.089	0.132
-732.996	-200.000	0.047	-0.236
-731.981	42.715	-0.159	-0.148
-730.966	-97.063	-0.212	0.057
-729.952	-181.205	0.210	-0.004
-728.937	305.884	-0.031	0.059
-727.923	-41.270	-0.205	0.108
-726.908	-67.078	-0.284	-0.114
-725.894	62.398	0.036	0.037
-724.879	800.000	0.144	-0.452
-723.864	-156.989	-0.202	-0.013
-722.850	26.379	-0.229	-0.195
-721.835	704.685	0.073	-0.196
-720.821	-16.373	-0.148	0.095
-719.806	-104.502	0.343	-0.081
-718.791	53.018	-0.161	0.157
-717.777	-200.000	0.016	-0.084
-716.762	23.572	0.146	-0.122
-715.748	-200.000	-0.017	-0.205
-714.733	30.099	-0.124	-0.107
-713.718	-149.314	-0.242	-0.020
-712.704	-108.181	-0.283	-0.062
-711.689	-45.267	0.408	-0.206
-710.675	-200.000	0.021	0.168
-709.660	-200.000	0.004	0.037
-708.645	-73.697	0.108	0.040
-707.631	-67.896	0.308	-0.123
-706.616	-200.000	0.010	-0.113
-705.602	-200.000	0.001	0.185
-704.587	335.164	0.021	0.041
-703.572	-63.904	0.034	-0.014
-702.558	-41.449	-0.356	-0.186
-701.543	800.000	0.014	0.064
-700.529	800.000	0.129	-0.426
-699.514	323.866	0.168	-0.327
-698.499	-50.640	0.241	-0.115
-697.485	-32.064	0.100	0.057
-696.470	91.599	-0.083	-0.095
-695.456	34.713	-0.310	-0.276
-694.441	583.938	0.082	0.205
-693.426	298.395	0.151	0.282
-692.412	162.499	0.211	-0.301
-691.397	483.719	0.082	-0.190
-690.383	-68.952	0.312	-0.122
-689.368	-200.000	-0.006	-0.125
-688.354	14.496	-0.138	-0.109
-687.339	-83.194	0.056	-0.018
-686.324	199.089	-0.154	0.240
-685.310	800.000	0.050	-0.166
-684.295	-136.017	0.091	-0.011
-683.281	-120.326	0.323	-0.056
-682.266	-3.960	-0.261	-0.184
-681.251	407.596	0.122	0.261
-680.237	-156.949	-0.229	-0.014
-679.222	142.095	-0.062	0.083
-678.208	-153.815	0.202	0.014
-677.193	-15.947	-0.170	0.110
-676.178	-133.549	-0.470	-0.060
-675.164	400.895	0.109	0.233
-674.149	323.345	0.090	0.175
-673.135	353.315	-0.211	-0.426
-672.120	-200.000	-0.042	0.229
-671.105	20.276	0.199	0.163
-670.091	-137.994	-0.270	-0.031
-669.076	-79.999	0.198	-0.067
-668.062	-95.138	0.458	-0.126
-667.047	-90.095	-0.384	-0.114
-666.032	800.000	0.047	0.143
-665.018	-82.437	0.179	-0.059
-664.003	-153.839	0.147	-0.010
-662.989	-200.000	-0.040	0.479
-661.974	156.647	-0.124	-0.174
-660.959	327.045	-0.092	0.179
-659.945	440.889	-0.109	-0.243
-658.930	-200.000	-0.038	-0.181
-657.916	800.000	-0.041	-0.177
-656.901	3.514	-0.172	-0.127
-655.886	5.407	0.068	-0.051
-654.872	38.976	-0.383	-0.347
-653.857	103.183	-0.095	-0.113
-652.843	-106.850	-0.130	-0.029
-651.828	-2.513	-0.410	-0.291
-650.814	800.000	-0.052	0.150
-649.799	-200.000	-0.030	-0.212
-648.784	792.590	0.080	0.224
-647.770	-31.950	0.325	0.185
-646.755	-200.000	-0.033	0.190
-645.741	-82.750	0.045	-0.015
-644.726	800.000	-0.037	-0.110
-643.711	-45.086	0.097	-0.049
-642.697	800.000	0.122	-0.343
-641.682	197.415	-0.057	0.088
-640.668	-200.000	0.028	-0.240
-639.653	-200.000	-0.004	-0.178
-638.638	409.352	-0.081	0.173
-637.624	-69.324	0.373	0.145
-636.609	-91.746	0.039	0.011
-635.595	-200.000	0.020	-0.287
-634.580	11.743	-0.121	-0.095
-633.565	-81.492	0.193	0.064
-632.551	-159.168	0.175	-0.010
-631.536	79.847	0.079	0.086
-630.522	30.291	-0.118	-0.102
-629.507	-10.326	0.361	-0.243
-628.492	-119.372	-0.164	0.029
-627.478	174.390	-0.197	0.289
-626.463	144.579	-0.252	0.341
-625.449	800.000	0.056	-0.204
-624.434	-72.932	-0.032	-0.012
-623.419	-200.000	0.018	-0.169
-622.405	-24.523	-0.419	-0.253
-621.390	-11.689	0.177	-0.118
-620.376	-68.016	0.378	0.149
-619.361	-200.000	0.000	0.230
-618.346	141.384	0.153	-0.205
-617.332	27.178	-0.207	0.177
-616.317	-105.696	-0.546	0.125
-615.303	301.680	-0.073	0.137
-614.288	-90.250	0.327	0.096
-613.273	-0.145	0.214	0.154
-612.259	-90.519	-0.159	-0.047
-611.244	60.062	0.166	0.167
-610.230	262.873	-0.086	0.151
-609.215	-114.077	0.339	-0.067
-608.201	-163.631	0.411	-0.020
-607.186	130.319	0.165	-0.214
-606.171	-52.759	0.170	-0.079
-605.157	144.858	-0.111	-0.151
-604.142	597.982	-0.086	-0.216
-603.128	-17.952	-0.232	-0.147
-602.113	190.960	0.153	0.234
-601.098	800.000	0.054	0.201
-600.084	800.000	0.083	-0.245
-599.069	421.700	0.180	-0.390
-598.055	-61.675	-0.088	-0.037
-597.040	160.359	-0.208	-0.294
-596.025	54.708	-0.117	-0.114
-595.011	9.345	-0.259	0.198
-593.996	515.661	-0.073	0.172
-592.982	-132.534	-0.072	0.009
-591.967	-23.367	-0.113	-0.069
-590.952	-200.000	0.000	0.161
-589.938	800.000	-0.077	0.245
-588.923	143.634	0.109	0.147
-587.909	-163.107	-0.259	0.013
-586.894	183.377	0.176	-0.263
-585.879	128.345	0.084	0.108
-584.865	-90.156	-0.132	0.039
-583.850	800.000	-0.079	0.349
-582.836	-200.000	-0.056	-0.271
-581.821	800.000	-0.090	-0.337
-580.806	-86.558	-0.210	0.065
-579.792	-114.670	-0.231	0.045
-578.777	-3.908	0.142	0.100
-577.763	-52.958	0.132	-0.062
-576.748	388.377	-0.026	0.055
-575.733	-60.919	0.134	0.058
-574.719	-200.000	-0.015	-0.253
-573.704	800.000	-0.082	-0.261
-572.690	-200.000	-0.049	0.217
-571.675	146.406	0.081	0.110
-570.661	725.543	-0.081	0.219
-569.646	-21.585	-0.121	0.075
-568.631	-200.000	0.114	0.000
-567.617	-92.747	-0.336	0.095
-566.602	800.000	-0.043	-0.137
-565.588	800.000	0.092	0.357
-564.573	-118.258	-0.078	0.014
-563.558	-200.000	0.006	-0.027
-562.544	59.785	0.216	0.215
-561.529	-94.858	-0.330	-0.091
-560.515	47.099	0.169	-0.159
-559.500	-6.513	-0.277	0.191
-558.485	800.000	-0.033	0.118
-557.471	-47.042	0.142	-0.070
-556.456	151.929	-0.147	0.203
-555.442	-95.689	-0.341	0.092
-554.427	88.482	-0.084	0.094
-553.412	-45.195	-0.166	-0.083
-552.398	585.528	-0.086	-0.214
-551.383	-125.676	-0.149	0.023
-550.369	800.000	0.048	0.206
-549.354	324.604	0.087	-0.167
-548.339	-200.000	0.025	-0.183
-547.325	-153.199	-0.311	-0.022
-546.310	-200.000	-0.003	0.168
-545.296	-38.723	0.234	0.125
-544.281	738.409	0.068	0.186
-543.266	488.312	-0.117	0.271
-542.252	800.000	-0.042	-0.149
-541.237	482.705	0.086	-0.198
-540.223	-52.103	0.217	0.102
-539.208	-55.267	-0.379	-0.172
-538.193	153.671	-0.099	0.137
-537.179	13.777	0.021	0.017
-536.164	111.752	0.089	-0.109
-535.150	-120.407	-0.170	-0.029
-534.135	-200.000	-0.044	-0.237
-533.121	-155.553	0.222	0.014
-532.106	-42.286	-0.084	-0.043
-531.091	47.498	-0.169	-0.159
-530.077	52.878	-0.225	0.218
-529.062	-200.000	0.021	-0.140
-528.048	-174.843	0.459	-0.013
-527.033	40.892	-0.145	0.132
-526.018	314.439	0.070	-0.132
-525.004	-200.000	-0.022	-0.151
-523.989	-200.000	-0.033	-0.177
-522.975	-110.873	0.221	0.046
-521.960	145.295	-0.136	0.184
-520.945	34.885	-0.135	-0.120
-519.931	-22.852	-0.039	-0.024
-518.916	11.231	-0.349	-0.269
-517.902	-91.412	0.236	-0.068
-516.887	183.687	-0.217	0.324
-515.872	-200.000	0.057	-0.297
-514.858	-200.000	0.069	-0.391
-513.843	110.978	-0.216	-0.262
-512.829	-200.000	-0.019	-0.083
-511.814	-91.235	-0.166	0.048
-510.799	-56.585	0.039	0.017
-509.785	468.814	0.111	-0.251
-508.770	776.761	-0.038	0.106
-507.756	-125.568	0.250	0.038
-506.741	-200.000	0.037	0.181
-505.726	-139.950	0.157	0.017
-504.712	-200.000	-0.002	-0.219
-503.697	-200.000	-0.018	-0.108
-502.683	-55.732	-0.251	0.113
-501.668	800.000	-0.051	0.151
-500.653	-200.000	-0.010	-0.070
-499.639	414.821	0.049	-0.105
-498.624	-200.000	0.008	-0.157
-497.610	50.331	-0.138	0.131
-496.595	-65.732	0.300	0.121
-495.581	353.098	0.018	-0.035
-494.566	-28.725	0.156	-0.091
-493.551	800.000	0.093	-0.341
-492.537	-51.359	-0.207	-0.097
-491.522	72.528	0.163	-0.171
-490.508	-178.627	0.215	-0.005
-489.493	-142.280	0.045	-0.004
-488.478	-200.000	-0.008	-0.182
-487.464	800.000	-0.029	-0.091
-486.449	-200.000	-0.012	-0.361
-485.435	-80.879	-0.103	0.034
-484.420	800.000	-0.018	-0.077
-483.405	206.667	0.065	0.102
-482.391	-63.006	-0.377	-0.157
-481.376	224.832	0.160	-0.261
-480.362	26.128	0.096	0.080
-479.347	800.000	0.059	0.212
-478.332	800.000	0.096	0.343
-477.318	60.957	0.049	-0.049
-476.303	165.471	-0.257	-0.366
-475.289	-165.259	-0.184	-0.008
-474.274	12.915	-0.037	-0.029
-473.259	800.000	0.043	-0.133
-472.245	-113.381	0.226	0.045
-471.230	24.613	-0.095	0.079
-470.216	800.000	-0.032	-0.120
-469.201	99.016	-0.138	-0.161
-468.186	42.943	0.111	-0.102
-467.172	281.916	-0.033	-0.059
-466.157	800.000	-0.044	-0.149
-465.143	372.928	-0.103	0.211
-464.128	220.502	-0.156	0.251
-463.113	667.844	-0.084	-0.219
-462.099	-14.702	0.282	0.183
-461.084	-36.757	0.187	0.101
-460.070	-136.173	0.132	0.016
-459.055	354.041	-0.090	0.180
-458.040	40.029	-0.229	-0.207
-457.026	443.825	-0.220	0.486
-456.011	358.271	-0.063	0.126
-454.997	-200.000	-0.040	-0.194
-453.982	-77.189	-0.108	-0.038
-452.968	-200.000	0.009	-0.055
-451.953	171.521	-0.131	0.189
-450.938	-90.485	-0.181	-0.053
-449.924	-116.151	-0.256	-0.048
-448.909	-158.537	-0.232	-0.014
-447.895	-76.208	0.160	-0.057
-446.880	800.000	0.062	-0.217
-445.865	46.058	-0.158	-0.147
-444.851	673.254	0.072	-0.189
-443.836	65.294	0.164	-0.167
-442.822	169.041	-0.137	0.197
-441.807	-42.338	0.196	-0.101
-440.792	-44.816	-0.167	0.084
-439.778	-70.120	0.095	0.037
-438.763	800.000	-0.037	-0.112
-437.749	128.862	-0.107	-0.137
-436.734	12.604	-0.140	0.108
-435.719	-162.952	0.183	0.009
-434.705	-146.933	0.209	0.018
-433.690	25.970	0.207	0.174
-432.676	-93.041	0.055	0.016
-431.661	5.134	-0.072	0.053
-430.646	-34.167	0.130	0.072
-429.632	270.224	-0.041	0.073
-428.617	377.562	-0.190	0.390
-427.603	-168.954	0.454	0.017
-426.588	35.328	0.038	0.033
-425.573	800.000	-0.050	-0.140
-424.559	-181.893	-0.355	0.007
-423.544	189.598	0.024	0.036
-422.530	-72.694	-0.215	0.080
-421.515	195.361	-0.013	-0.021
-420.500	-81.989	0.068	0.022
-419.486	324.104	-0.058	0.111
-418.471	0.178	-0.314	-0.225
-417.457	-135.847	-0.194	-0.023
-416.442	359.640	0.126	-0.254
-415.428	-200.000	-0.011	-0.206
-414.413	-2.598	0.205	-0.145
-413.398	-0.304	0.063	-0.045
-412.384	-69.201	0.084	0.032
-411.369	119.779	-0.152	-0.190
-410.355	-200.000	-0.032	-0.255
-409.340	800.000	0.130	0.372
-408.325	800.000	0.112	0.445
-407.311	-200.000	-0.019	0.093
-406.296	78.815	-0.092	0.099
-405.282	-153.677	-0.138	0.010
-404.267	432.109	-0.030	0.064
-403.252	800.000	-0.117	-0.385
-402.238	-92.568	0.121	-0.034
-401.223	382.817	-0.086	0.177
-400.209	250.925	0.127	-0.217
-399.194	108.062	0.135	-0.162
-398.179	216.985	0.102	-0.162
-397.165	79.247	0.046	0.050
-396.150	-172.233	-0.082	0.003
-395.136	118.311	0.172	-0.213
-394.121	-114.778	-0.090	-0.017
-393.106	-42.205	-0.054	0.028
-392.092	84.877	-0.196	-0.216
-391.077	59.814	-0.286	0.283
-390.063	800.000	-0.068	-0.237
-389.048	800.000	0.071	0.292
-388.033	203.774	-0.087	-0.135
-387.019	4.530	-0.098	0.072
-386.004	-200.000	-0.051	0.438
-384.990	128.337	0.083	-0.106
-383.975	-200.000	0.030	0.187
-382.960	-21.454	0.093	-0.057
-381.946	155.272	-0.233	-0.323
-380.931	-146.083	0.364	0.032
-379.917	-187.327	-0.152	0.002
-378.902	127.275	-0.127	-0.162
-377.888	657.363	0.086	-0.223
-376.873	154.455	-0.106	-0.147
-375.858	-75.271	0.291	0.104
-374.844	-62.448	-0.339	0.141
-373.829	-200.000	0.029	-0.128
-372.815	15.455	0.177	0.140
-371.800	-30.052	0.031	-0.018
-370.785	118.875	-0.229	0.285
-369.771	481.659	0.088	0.202
-368.756	-200.000	0.019	-0.177
-367.742	102.190	-0.110	0.129
-366.727	800.000	-0.065	-0.189
-365.712	-125.330	0.187	-0.029
-364.698	800.000	0.057	-0.201
-363.683	-13.786	-0.206	-0.134
-362.669	-50.315	0.231	0.109
-361.654	192.780	-0.101	-0.154
-360.639	-94.228	-0.272	0.075
-359.625	-24.504	0.123	0.073
-358.610	-47.345	0.122	-0.060
-357.596	289.094	0.040	-0.073
-356.581	-199.734	0.251	-0.001
-355.566	60.018	0.159	0.158
-354.552	-12.805	-0.104	0.068
-353.537	-32.686	-0.127	-0.071
-352.523	799.960	0.028	-0.079
-351.508	578.000	0.200	-0.490
-350.493	-200.000	0.012	0.098
-349.479	119.955	-0.235	0.292
-348.464	-31.536	0.212	0.120
-347.450	56.504	0.110	0.107
-346.435	-35.531	-0.130	0.071
-345.420	115.922	0.050	0.062
-344.406	222.869	-0.136	0.219
-343.391	-200.000	-0.053	-0.289
-342.377	-55.145	0.116	0.053
-341.362	270.506	-0.079	-0.140
-340.348	-166.828	-0.189	-0.008
-339.333	585.634	0.055	-0.136
-338.318	-19.419	-0.086	0.053
-337.304	800.000	-0.061	0.216
-336.289	-134.122	0.054	0.007
-335.275	-75.985	0.090	0.032
-334.260	-151.903	0.213	0.016
-333.245	9.180	0.051	-0.039
-332.231	-18.864	-0.309	0.193
-331.216	44.728	0.057	0.053
-330.202	16.073	0.146	0.115
-329.187	-132.164	-0.253	0.033
-328.172	178.409	0.069	-0.100
-327.158	240.743	-0.071	-0.118
-326.143	233.860	-0.093	-0.154
-325.129	467.520	-0.098	0.221
-324.114	-121.502	-0.123	0.021
-323.099	-172.480	-0.248	-0.008
-322.085	13.572	-0.343	0.267
-321.070	-109.583	-0.166	-0.035
-320.056	-200.000	-0.255	0.001
-319.041	-68.271	0.439	0.171
-318.026	-91.686	0.390	0.111
-317.012	-73.811	-0.343	0.125
-315.997	86.505	0.149	-0.165
-314.983	-47.715	-0.052	-0.025
-313.968	-36.743	-0.203	-0.109
-312.953	800.000	-0.077	0.241
-311.939	-50.399	0.368	0.174
-310.924	227.933	0.046	-0.074
-309.910	-200.000	0.044	-0.371
-308.895	107.975	-0.118	-0.141
-307.880	33.453	0.079	-0.069
-306.866	-20.426	0.103	-0.063
-305.851	201.882	-0.057	0.087
-304.837	-200.000	0.041	0.411
-303.822	-200.000	0.033	0.177
-302.807	-59.899	-0.314	0.135
-301.793	-136.325	0.140	0.016
-300.778	71.581	-0.095	0.099
-299.764	95.586	-0.254	0.290
-298.749	-200.000	0.000	0.279
-297.735	-16.177	0.184	0.117
-296.720	-1.793	0.087	0.061
-295.705	-200.000	-0.055	-0.357
-294.691	71.099	0.019	0.020
-293.676	55.657	0.157	0.152
-292.662	-97.673	0.085	-0.022
-291.647	-200.000	0.015	0.318
-290.632	-32.544	0.345	-0.192
-289.618	380.497	-0.073	0.150
-288.603	61.600	0.148	0.148
-287.589	800.000	-0.076	-0.284
-286.574	50.666	0.138	0.131
-285.559	-120.020	-0.244	-0.042
-284.545	-200.000	-0.059	-0.320
-283.530	264.181	0.109	0.190
-282.516	-200.000	0.030	-0.376
-281.501	800.000	-0.012	0.042
-280.486	53.265	-0.044	0.042
-279.472	133.943	-0.220	-0.285
-278.457	137.330	-0.168	0.219
-277.443	-52.539	-0.228	0.106
-276.428	-67.099	-0.326	-0.128
-275.413	-87.253	-0.195	-0.059
-274.399	296.475	0.224	0.412
-273.384	538.819	0.097	-0.230
-272.370	52.825	-0.170	0.163
-271.355	155.402	-0.064	0.088
-270.340	-53.336	-0.319	-0.146
-269.326	273.065	0.041	0.072
-268.311	-15.457	0.329	0.210
-267.297	-200.000	0.004	-0.152
-266.282	467.318	-0.113	-0.254
-265.267	164.500	0.140	-0.198
-264.253	-143.972	-0.309	0.029
-263.238	-66.506	0.210	0.084
-262.224	12.964	0.190	0.147
-261.209	-200.000	-0.029	0.188
-260.195	73.788	0.086	0.090
-259.180	255.930	-0.099	-0.170
-258.165	-159.373	0.196	0.011
-257.151	-92.717	-0.214	0.060
-256.136	106.106	0.137	-0.162
-255.122	-200.000	-0.024	0.127
-254.107	-200.000	-0.007	0.147
-253.092	22.116	0.228	-0.186
-252.078	1.241	-0.111	-0.080
-251.063	624.334	0.036	0.090
-250.049	-76.027	-0.076	0.027
-249.034	-162.507	0.136	0.007
-248.019	116.331	0.072	0.088
-247.005	800.000	-0.033	-0.109
-245.990	196.489	-0.063	0.095
-244.976	-178.598	0.178	-0.004
-243.961	-141.722	-0.208	-0.021
-242.946	-120.569	0.225	-0.038
-241.932	800.000	-0.024	0.074
-240.917	10.271	-0.297	-0.226
-239.903	-200.000	0.033	0.181
-238.888	532.496	0.078	0.185
-237.873	-169.383	0.227	-0.008
-236.859	-82.962	0.385	-0.124
-235.844	800.000	0.099	0.291
-234.830	-79.173	-0.356	0.121
-233.815	-200.000	0.000	-0.039
-232.800	87.601	-0.144	-0.159
-231.786	23.920	0.257	-0.211
-230.771	4.866	-0.247	0.182
-229.757	43.779	-0.047	-0.043
-228.742	-91.338	0.277	0.079
-227.727	174.484	-0.253	0.365
-226.713	800.000	-0.027	0.104
-225.698	608.362	-0.097	-0.243
-224.684	19.021	0.303	0.243
-223.669	800.000	-0.101	0.281
-222.655	800.000	-0.069	0.222
-221.640	-57.757	0.058	-0.026
-220.625	-59.516	0.424	0.182
-219.611	-160.330	-0.392	-0.021
-218.596	-200.000	-0.041	-0.226
-217.582	-10.251	0.151	0.100
-216.567	-108.470	-0.271	0.058
-215.552	-83.947	0.251	0.080
-214.538	-180.979	-0.271	-0.005
-213.523	-186.530	0.293	-0.004
-212.509	137.465	0.108	-0.141
-211.494	59.147	-0.016	-0.016
-210.479	-181.991	0.160	0.003
-209.465	-26.089	0.392	0.230
-208.450	-98.860	-0.069	0.017
-207.436	-127.880	-0.120	0.017
-206.421	-48.378	0.165	-0.079
-205.406	140.084	0.047	0.062
-204.392	-200.000	0.000	-0.036
-203.377	-160.789	-0.188	0.010
-202.363	47.020	-0.155	0.144
-201.348	743.649	-0.099	0.265
-200.333	10.236	0.136	-0.103
-199.319	-99.970	-0.087	0.022
-198.304	-87.624	0.128	-0.039
-197.290	71.083	0.167	0.172
-196.275	-2.130	0.315	0.221
-195.260	53.127	0.032	-0.031
-194.246	47.758	0.141	0.132
-193.231	203.290	-0.116	0.179
-192.217	-15.878	0.294	0.186
-191.202	228.660	-0.107	-0.174
-190.187	800.000	-0.065	0.189
-189.173	-25.569	-0.237	-0.140
-188.158	-119.001	-0.241	0.042
-187.144	83.897	0.126	-0.137
-186.129	274.796	0.196	0.346
-185.114	536.130	-0.024	-0.058
-184.100	6.092	0.281	-0.207
-183.085	-123.357	-0.336	0.053
-182.071	-48.972	0.223	-0.107
-181.056	166.453	-0.301	-0.425
-180.042	98.457	0.153	0.176
-179.027	223.673	-0.028	0.046
-178.012	-18.455	0.112	-0.070
-176.998	-79.636	0.333	0.112
-175.983	-160.811	-0.083	-0.004
-174.969	63.730	0.162	0.162
-173.954	-200.000	0.005	0.126
-172.939	117.560	0.262	0.322
-171.925	159.541	0.172	0.239
-170.910	-200.000	-0.009	-0.127
-169.896	-125.303	-0.040	0.006
-168.881	800.000	-0.099	-0.328
-167.866	-134.023	0.406	-0.050
-166.852	246.506	-0.125	-0.210
-165.837	800.000	-0.130	-0.386
-164.823	110.846	0.027	0.032
-163.808	-44.581	0.289	0.144
-162.793	-12.380	0.070	-0.046
-161.779	164.545	0.149	-0.209
-160.764	-200.000	-0.003	0.103
-159.750	-136.438	0.131	0.015
-158.735	-55.950	-0.091	0.040
-157.720	-94.132	0.256	0.070
-156.706	-31.272	0.321	-0.180
-155.691	57.886	0.050	-0.049
-154.677	-34.129	-0.101	-0.055
-153.662	-200.000	0.004	-0.136
-152.647	287.429	0.033	-0.060
-151.633	9.550	0.376	-0.283
-150.618	-200.000	-0.019	0.154
-149.604	-67.103	0.332	0.130
-148.589	-37.333	0.244	0.130
-147.574	-62.423	0.144	-0.060
-146.560	51.557	-0.165	-0.156
-145.545	324.221	0.171	-0.325
-144.531	-200.000	-0.013	0.090
-143.516	317.625	-0.077	-0.144
-142.502	-200.000	0.018	0.172
-141.487	-200.000	0.087	0.382
-140.472	-75.593	-0.141	-0.050
-139.458	-200.000	-0.014	-0.078
-138.443	-200.000	0.019	-0.223
-137.429	-80.404	-0.118	-0.039
-136.414	22.379	0.089	0.072
-135.399	128.132	0.127	-0.160
-134.385	-200.000	-0.044	-0.278
-133.370	-3.381	0.056	-0.039
-132.356	-200.000	-0.027	0.130
-131.341	-65.578	0.029	0.012
-130.326	109.723	0.135	0.162
-129.312	800.000	0.106	-0.306
-128.297	-59.614	0.238	0.101
-127.283	-97.061	0.300	0.078
-126.268	-200.000	0.008	0.097
-125.253	-184.994	0.240	0.004
-124.239	-63.630	0.295	0.120
-123.224	-81.706	-0.241	0.079
-122.210	800.000	0.111	0.394
-121.195	512.495	0.072	-0.166
-120.180	-55.798	-0.218	-0.097
-119.166	800.000	0.025	-0.084
-118.151	-200.000	-0.010	-0.167
-117.137	38.629	-0.341	0.303
-116.122	-84.784	-0.276	-0.086
-115.107	-66.995	0.342	0.134
-114.093	13.333	0.102	-0.079
-113.078	161.514	-0.048	0.067
-112.064	-116.741	-0.126	-0.023
-111.049	546.522	0.085	-0.203
-110.034	-200.000	-0.010	0.061
-109.020	-200.000	0.039	0.293
-108.005	800.000	-0.085	-0.301
-106.991	221.068	0.088	0.141
-105.976	223.024	0.243	0.390
-104.962	-99.313	0.209	0.053
-103.947	-114.941	-0.543	-0.103
-102.932	-192.480	0.298	-0.003
-101.918	82.351	0.364	0.393
-100.903	-200.000	0.011	-0.156
-99.889	-112.974	-0.276	-0.054
-98.874	-122.168	0.289	0.047
-97.859	235.903	-0.110	0.181
-96.845	-200.000	0.066	0.367
-95.830	-200.000	-0.011	-0.103
-94.816	-200.000	-0.024	-0.158
-93.801	-108.832	0.240	-0.051
-92.786	-8.833	-0.139	0.092
-91.772	-92.728	-0.217	0.060
-90.757	-132.470	-0.123	0.016
-89.743	-70.125	0.152	0.057
-88.728	-12.961	0.211	-0.137
-87.713	-200.000	-0.001	-0.127
-86.699	21.214	0.194	-0.156
-85.684	100.005	0.027	-0.031
-84.670	-82.936	0.373	0.120
-83.655	800.000	-0.033	-0.123
-82.640	-24.721	-0.150	0.089
-81.626	-200.000	-0.025	-0.144
-80.611	-99.513	0.209	0.052
-79.597	-200.000	0.004	0.105
-78.582	-175.820	0.054	-0.001
-77.567	-111.120	0.108	0.022
-76.553	5.084	0.129	-0.094
-75.538	-200.000	-0.071	0.343
-74.524	19.557	0.100	-0.080
-73.509	341.923	-0.141	0.273
-72.494	-90.906	0.345	-0.099
-71.480	211.635	-0.085	0.133
-70.465	800.000	0.086	-0.271
-69.451	-70.657	-0.263	0.099
-68.436	-130.722	0.275	-0.037
-67.422	528.640	-0.100	0.234
-66.407	-64.630	0.493	0.198
-65.392	500.702	-0.070	0.159
-64.378	95.320	-0.120	-0.136
-63.363	-130.362	-0.463	-0.062
-62.349	81.896	-0.210	0.226
-61.334	57.583	-0.933	-0.905
-60.319	-9.973	0.751	0.495
-59.305	624.774	-0.507	-1.269
-58.290	585.260	0.403	0.983
-57.276	341.630	0.766	1.485
-56.261	-200.000	95.610	573.936
-55.246	515.158	1423.047	3295.287
-54.232	148.694	2615.408	3505.162
-53.217	101.633	2345.986	2712.243
-52.203	38.748	2096.436	1855.808
-51.188	33.820	2010.268	1734.586
-50.173	32.296	1992.044	1704.987
-49.159	47.724	2039.622	1887.461
-48.144	48.831	2058.183	1914.711
-47.130	34.609	2020.369	1750.261
-46.115	32.174	2010.091	1719.047
-45.100	32.118	2006.918	1715.753
-44.086	32.024	2004.685	1712.919
-43.071	31.969	2002.198	1710.218
-42.057	31.954	1999.585	1707.783
-41.042	31.980	1997.301	1705.998
-40.027	31.987	1995.950	1704.842
-39.013	32.012	1993.915	1703.268
-37.998	32.123	1991.901	1702.484
-36.984	32.210	1989.355	1701.027
-35.969	32.224	1987.708	1699.680
-34.954	32.187	1986.590	1698.320
-33.940	32.157	1985.343	1696.918
-32.925	32.273	1982.947	1695.843
-31.911	32.229	1981.849	1694.448
-30.896	32.244	1980.211	1693.108
-29.881	32.280	1978.843	1692.199
-28.867	32.205	1977.221	1690.073
-27.852	32.252	1975.236	1688.728
-26.838	32.273	1972.959	1686.905
-25.823	32.293	1971.053	1685.387
-24.809	32.223	1969.300	1683.192
-23.794	32.152	1967.929	1681.323
-22.779	32.214	1965.714	1679.914
-21.765	32.160	1964.403	1678.247
-20.750	32.277	1962.340	1677.462
-19.736	32.246	1960.674	1675.696
-18.721	32.297	1959.220	1674.837
-17.706	32.178	1957.528	1672.262
-16.692	32.071	1956.846	1670.665
-15.677	32.234	1954.205	1669.791
-14.663	32.254	1952.628	1668.555
-13.648	32.315	1951.509	1668.078
-12.633	32.217	1950.484	1666.261
-11.619	32.197	1949.388	1665.080
-10.604	32.173	1947.760	1663.413
-9.590	32.106	1946.389	1661.582
-8.575	32.176	1944.844	1660.820
-7.560	32.215	1943.623	1660.051
-6.546	32.206	1942.087	1658.595
-5.531	32.269	1940.846	1658.029
-4.517	32.254	1939.952	1657.069
-3.502	32.263	1938.598	1655.926
-2.487	32.187	1937.512	1654.260
-1.473	32.207	1937.031	1653.962
-0.458	32.356	1932.564	1651.386
0.556	31.181	1913.500	1628.465
1.571	27.632	1895.262	1582.066
2.586	23.753	1917.489	1566.355
3.600	22.379	1952.821	1582.730
4.615	21.749	1948.052	1573.069
5.629	16.844	1845.172	1448.061
6.644	6.841	1720.578	1270.095
7.659	1.135	1680.362	1195.402
8.673	0.504	1676.679	1187.714
9.688	0.514	1675.489	1186.839
10.702	0.388	1673.999	1184.690
11.717	0.354	1670.237	1181.657
12.731	0.899	1670.517	1186.022
13.746	7.665	1686.063	1250.332
14.761	15.991	1701.550	1327.565
15.775	17.978	1703.550	1344.662
16.790	17.189	1700.771	1336.146
17.804	16.117	1697.623	1325.135
18.819	15.175	1694.275	1315.016
19.834	14.567	1691.775	1308.190
20.848	14.258	1690.067	1304.336
21.863	14.067	1688.281	1301.346
22.877	13.834	1687.019	1298.433
23.892	13.633	1685.321	1295.449
24.907	13.462	1684.319	1293.221
25.921	13.429	1682.924	1291.778
26.936	13.441	1682.521	1291.448
27.950	13.579	1681.265	1291.447
28.965	13.532	1680.682	1290.520
29.980	13.580	1680.079	1290.320
30.994	13.648	1679.136	1290.010
32.009	13.716	1677.939	1289.499
33.023	13.798	1677.297	1289.535
34.038	13.740	1676.485	1288.344
35.053	13.727	1675.425	1287.310
36.067	13.666	1674.351	1285.899
37.082	13.634	1673.137	1284.610
38.096	13.644	1672.534	1284.106
39.111	13.697	1671.487	1283.603
40.126	13.683	1670.971	1282.979
41.140	13.644	1669.905	1281.748
42.155	13.529	1668.504	1279.670
43.169	13.485	1666.845	1277.950
44.184	13.441	1665.926	1276.790
45.199	13.445	1665.239	1276.180
46.213	13.539	1663.397	1275.385
47.228	13.449	1662.617	1273.979
48.242	13.509	1661.047	1273.125
49.257	13.505	1660.614	1272.647
50.271	13.634	1658.859	1272.181
51.286	13.559	1657.873	1270.735
52.301	13.591	1656.100	1269.507
53.315	13.531	1655.253	1268.286
54.330	13.504	1653.529	1266.651
55.344	13.513	1651.661	1265.178
56.359	13.512	1650.655	1264.288
57.374	13.498	1649.302	1263.033
58.388	13.583	1648.165	1262.699
59.403	13.551	1646.780	1261.276
60.417	13.485	1645.159	1259.423
61.432	13.444	1644.370	1258.397
62.447	13.501	1642.696	1257.435
63.461	13.441	1641.547	1255.994
64.476	13.311	1640.925	1254.417
65.490	13.339	1639.622	1253.521
66.505	13.389	1638.546	1252.970
67.520	13.443	1636.991	1252.073
68.534	13.441	1636.365	1251.468
69.549	13.427	1635.250	1250.400
70.563	13.395	1633.806	1248.949
71.578	13.416	1632.866	1248.274
72.593	13.404	1631.636	1247.132
73.607	13.297	1630.808	1245.585
74.622	13.358	1628.855	1244.441
75.636	13.280	1628.352	1243.364
76.651	13.332	1627.102	1242.686
77.666	13.373	1626.457	1242.394
78.680	13.206	1626.020	1240.695
79.695	13.366	1624.217	1240.408
80.709	13.392	1623.418	1239.881
81.724	13.374	1622.589	1239.007
82.739	13.422	1621.308	1238.277
83.753	13.479	1620.458	1237.943
84.768	13.498	1619.434	1237.200
85.782	13.527	1618.768	1236.790
86.797	13.612	1617.623	1236.444
87.812	13.597	1616.549	1235.401
88.826	13.531	1615.343	1233.882
89.841	13.558	1613.924	1232.885
90.855	13.497	1613.262	1231.820
91.870	13.536	1612.274	1231.247
92.884	13.657	1610.921	1231.003
93.899	13.627	1610.137	1230.068
94.914	13.660	1608.841	1229.218
95.928	13.671	1608.028	1228.566
96.943	13.674	1606.461	1227.286
97.957	13.673	1604.759	1225.867
98.972	13.638	1603.606	1224.621
99.987	13.639	1601.907	1223.220
101.001	13.623	1600.363	1221.817
102.016	13.574	1598.683	1220.065
103.030	13.533	1597.957	1219.098
104.045	13.552	1596.386	1217.936
105.060	13.546	1594.864	1216.622
106.074	13.584	1593.625	1215.851
107.089	13.607	1591.979	1214.651
108.103	13.525	1590.671	1212.947
109.118	13.478	1588.944	1211.183
110.133	13.380	1588.192	1209.779
111.147	13.410	1586.369	1208.504
112.162	13.397	1585.025	1207.277
113.176	13.436	1583.774	1206.506
114.191	13.432	1582.581	1205.458
115.206	13.510	1581.537	1205.128
116.220	13.529	1579.905	1203.913
117.235	13.493	1578.756	1202.673
118.249	13.538	1577.161	1201.672
119.264	13.505	1575.520	1200.082
120.279	13.461	1574.610	1198.959
121.293	13.507	1572.860	1197.853
122.308	13.491	1571.821	1196.839
123.322	13.484	1570.353	1195.566
124.337	13.487	1568.911	1194.384
125.352	13.391	1567.943	1192.850
126.366	13.357	1566.981	1191.773
127.381	13.499	1565.462	1191.531
128.395	13.416	1564.728	1190.273
129.410	13.422	1563.268	1189.096
130.424	13.449	1561.334	1187.717
131.439	13.466	1560.526	1187.116
132.454	13.533	1559.227	1186.505
133.468	13.586	1557.607	1185.546
134.483	13.506	1556.052	1183.687
135.497	13.600	1554.786	1183.286
136.512	13.563	1553.130	1181.660
137.527	13.510	1552.038	1180.346
138.541	13.584	1550.903	1179.905
139.556	13.575	1549.190	1178.436
140.570	13.643	1547.624	1177.623
141.585	13.695	1546.450	1176.991
142.600	13.617	1545.307	1175.466
143.614	13.670	1544.005	1174.745
144.629	13.719	1542.652	1173.959
145.643	13.763	1541.388	1173.204
146.658	13.863	1539.880	1172.663
147.673	13.836	1537.782	1170.766
148.687	13.745	1536.742	1169.236
149.702	13.728	1535.190	1167.827
150.716	13.668	1533.855	1166.288
151.731	13.670	1532.155	1164.909
152.746	13.752	1530.864	1164.399
153.760	13.678	1529.470	1162.714
154.775	13.708	1528.364	1161.983
155.789	13.818	1526.445	1161.191
156.804	13.814	1525.581	1160.402
157.819	13.803	1524.581	1159.464
158.833	13.845	1523.002	1158.448
159.848	13.907	1522.006	1158.025
160.862	13.870	1521.077	1156.954
161.877	13.951	1519.938	1156.549
162.892	13.893	1518.853	1155.220
163.906	13.829	1517.543	1153.674
164.921	13.780	1516.227	1152.236
165.935	13.773	1515.006	1151.153
166.950	13.786	1513.955	1150.348
167.964	13.873	1512.764	1149.942
168.979	13.828	1512.350	1149.211
169.994	13.827	1510.863	1147.971
171.008	13.822	1509.549	1146.842
172.023	13.848	1508.526	1146.138
173.037	13.894	1507.731	1145.751
174.052	13.992	1506.137	1145.112
175.067	13.968	1505.312	1144.222
176.081	13.975	1503.657	1142.908
177.096	13.868	1502.615	1141.283
178.110	13.921	1500.749	1140.125
179.125	13.823	1500.643	1139.274
180.140	13.919	1499.092	1138.654
181.154	13.943	1498.052	1137.926
182.169	13.935	1496.995	1136.970
183.183	14.015	1495.438	1136.231
184.198	14.047	1494.335	1135.513
185.213	14.076	1493.903	1135.279
186.227	14.151	1492.302	1134.477
187.242	14.285	1490.744	1134.104
188.256	14.147	1490.491	1132.874
189.271	14.092	1489.625	1131.739
190.286	14.215	1487.979	1131.222
191.300	14.182	1487.134	1130.259
192.315	14.062	1485.702	1128.254
193.329	14.023	1484.713	1127.136
194.344	14.036	1483.372	1126.111
195.359	13.982	1482.792	1125.205
196.373	14.056	1481.968	1124.980
197.388	14.101	1481.041	1124.479
198.402	14.196	1479.179	1123.611
199.417	14.272	1478.059	1123.169
200.432	14.206	1477.253	1122.016
201.446	14.329	1476.021	1121.809
202.461	14.344	1475.273	1121.242
203.475	14.306	1474.011	1119.931
204.490	14.412	1472.414	1119.328
205.504	14.387	1471.474	1118.345
206.519	14.274	1470.895	1117.046
207.534	14.392	1469.395	1116.603
208.548	14.285	1468.261	1114.922
209.563	14.355	1467.270	1114.544
210.577	14.348	1465.975	1113.412
211.592	14.353	1465.242	1112.788
212.607	14.382	1464.358	1112.213
213.621	14.474	1463.801	1112.310
214.636	14.583	1462.636	1112.051
215.650	14.439	1462.211	1110.668
216.665	14.455	1460.990	1109.748
217.680	14.448	1460.697	1109.383
218.694	14.582	1459.374	1109.169
219.709	14.596	1458.391	1108.419
220.723	14.610	1457.731	1107.912
221.738	14.609	1456.614	1106.956
222.753	14.643	1455.594	1106.309
223.767	14.437	1455.245	1104.584
224.782	14.621	1454.082	1104.817
225.796	14.656	1452.835	1104.003
226.811	14.751	1452.573	1104.338
227.826	14.679	1451.561	1102.992
228.840	14.637	1450.541	1101.842
229.855	14.609	1449.916	1101.087
230.869	14.597	1449.110	1100.298
231.884	14.692	1447.546	1099.640
232.899	14.667	1446.426	1098.530
233.913	14.655	1445.410	1097.582
234.928	14.688	1443.973	1096.605
235.942	14.654	1442.777	1095.377
236.957	14.664	1441.289	1094.218
237.972	14.653	1440.223	1093.238
238.986	14.664	1439.571	1092.722
240.001	14.739	1438.375	1092.206
241.015	14.777	1437.833	1091.946
242.030	14.680	1436.799	1090.433
243.045	14.797	1435.070	1089.786
244.059	14.742	1434.890	1089.194
245.074	14.798	1433.940	1088.744
246.088	14.814	1432.933	1087.987
247.103	14.860	1432.079	1087.539
248.117	14.956	1431.047	1087.283
249.132	14.945	1430.693	1086.844
250.147	14.924	1430.119	1086.180
251.161	15.058	1429.410	1086.415
252.176	15.035	1428.748	1085.664
253.190	15.137	1427.797	1085.507
254.205	15.156	1426.700	1084.699
255.220	15.127	1426.164	1084.012
256.234	15.184	1425.263	1083.596
257.249	15.190	1424.450	1082.918
258.263	15.153	1424.232	1082.423
259.278	15.199	1422.721	1081.475
260.293	15.192	1422.012	1080.794
261.307	15.167	1421.193	1079.917
262.322	15.240	1420.502	1079.765
263.336	15.403	1419.261	1079.774
264.351	15.331	1418.188	1078.400
265.366	15.389	1417.343	1078.032
266.380	15.384	1416.320	1077.129
267.395	15.388	1415.323	1076.300
268.409	15.326	1414.933	1075.514
269.424	15.384	1413.499	1074.701
270.439	15.360	1412.763	1073.891
271.453	15.374	1411.409	1072.854
272.468	15.388	1411.186	1072.680
273.482	15.398	1409.911	1071.679
274.497	15.316	1409.625	1070.843
275.512	15.310	1408.286	1069.695
276.526	15.482	1407.336	1069.974
277.541	15.397	1406.392	1068.621
278.555	15.463	1405.326	1068.137
279.570	15.491	1404.485	1067.583
280.585	15.406	1404.003	1066.580
281.599	15.532	1402.671	1066.269
282.614	15.550	1401.950	1065.744
283.628	15.666	1400.672	1065.412
284.643	15.475	1400.081	1063.659
285.657	15.536	1398.870	1063.031
286.672	15.580	1397.598	1062.252
287.687	15.658	1396.465	1061.789
288.701	15.616	1395.570	1060.746
289.716	15.611	1394.865	1060.086
290.730	15.548	1394.510	1059.326
291.745	15.616	1393.426	1058.837
292.760	15.685	1392.353	1058.362
293.774	15.656	1391.415	1057.373
294.789	15.722	1390.409	1056.929
295.803	15.736	1389.530	1056.258
296.818	15.675	1388.588	1055.065
297.833	15.733	1387.604	1054.584
298.847	15.766	1386.574	1053.915
299.862	15.731	1385.489	1052.780
300.876	15.695	1384.960	1052.057
301.891	15.877	1383.364	1051.893
302.906	15.744	1383.154	1050.806
303.920	15.870	1382.465	1050.977
304.935	15.956	1381.264	1050.509
305.949	15.966	1380.705	1050.050
306.964	16.020	1379.844	1049.640
307.979	16.031	1378.781	1048.807
308.993	15.980	1377.662	1047.549
310.008	15.972	1377.027	1046.920
311.022	16.015	1376.038	1046.343
312.037	16.093	1375.073	1046.000
313.052	16.040	1374.462	1045.116
314.066	16.082	1373.274	1044.382
315.081	15.877	1372.397	1042.351
316.095	15.980	1370.921	1041.778
317.110	15.958	1370.026	1040.870
318.125	16.070	1368.759	1040.506
319.139	15.969	1368.358	1039.483
320.154	15.984	1367.660	1038.956
321.168	15.984	1366.676	1038.114
322.183	15.964	1365.543	1037.041
323.197	16.069	1364.400	1036.725
324.212	16.135	1363.163	1036.100
325.227	16.141	1362.760	1035.736
326.241	16.125	1361.820	1034.835
327.256	16.126	1360.948	1034.087
328.270	16.076	1360.149	1033.082
329.285	16.165	1359.490	1033.032
330.300	16.124	1358.271	1031.762
331.314	16.053	1357.387	1030.570
332.329	16.100	1356.733	1030.270
333.343	16.053	1355.976	1029.317
334.358	16.159	1354.819	1028.993
335.373	16.175	1354.208	1028.534
336.387	16.218	1352.928	1027.735
337.402	16.211	1352.688	1027.416
338.416	16.274	1352.037	1027.216
339.431	16.244	1350.982	1026.142
340.446	16.374	1350.456	1026.440
341.460	16.387	1349.493	1025.697
342.475	16.420	1348.900	1025.353
343.489	16.377	1347.850	1024.204
344.504	16.496	1346.154	1023.545
345.519	16.470	1346.017	1023.195
346.533	16.450	1344.911	1022.142
347.548	16.539	1343.766	1021.720
348.562	16.539	1343.216	1021.212
349.577	16.544	1342.732	1020.785
350.592	16.584	1341.712	1020.157
351.606	16.550	1340.809	1019.175
352.621	16.532	1339.362	1017.877
353.635	16.484	1338.575	1016.899
354.650	16.486	1337.652	1016.120
355.665	16.470	1336.750	1015.250
356.679	16.519	1335.702	1014.661
357.694	16.597	1334.409	1014.053
358.708	16.579	1333.566	1013.216
359.723	16.626	1332.291	1012.439
360.738	16.599	1331.450	1011.549
361.752	16.658	1330.357	1010.980
362.767	16.743	1329.257	1010.564
363.781	16.615	1328.523	1009.155
364.796	16.695	1327.660	1008.885
365.810	16.676	1327.241	1008.365
366.825	16.864	1326.315	1008.691
367.840	16.794	1325.440	1007.516
368.854	16.846	1324.451	1006.985
369.869	16.815	1324.261	1006.570
370.883	16.839	1323.690	1006.188
371.898	16.868	1322.447	1005.328
372.913	16.885	1321.623	1004.714
373.927	16.962	1321.120	1004.696
374.942	16.951	1319.797	1003.535
375.956	16.793	1319.836	1002.544
376.971	16.822	1318.859	1001.886
377.986	16.999	1317.716	1001.974
379.000	16.945	1317.169	1001.148
380.015	17.043	1316.340	1001.009
381.029	17.039	1315.268	1000.079
382.044	17.115	1314.640	999.961
383.059	17.048	1314.442	999.326
384.073	17.009	1313.321	998.160
385.088	17.065	1312.693	997.919
386.102	17.140	1312.071	997.803
387.117	17.131	1311.501	997.228
388.132	17.129	1310.534	996.391
389.146	17.113	1309.432	995.375
390.161	17.079	1308.545	994.409
391.175	17.009	1307.944	993.455
392.190	17.059	1307.253	993.138
393.205	17.086	1306.250	992.446
394.219	17.171	1305.513	992.292
395.234	17.201	1304.165	991.352
396.248	17.211	1302.757	990.254
397.263	17.173	1301.195	988.761
398.278	17.147	1300.459	987.963
399.292	17.137	1299.411	987.017
400.307	17.165	1298.158	986.144
401.321	17.105	1297.262	985.029
402.336	17.168	1296.181	984.483
403.350	17.210	1294.961	983.716
404.365	17.180	1293.951	982.688
405.380	17.222	1292.988	982.108
406.394	17.288	1292.336	981.910
407.409	17.291	1291.546	981.242
408.423	17.373	1291.015	981.225
409.438	17.330	1290.743	980.682
410.453	17.444	1289.744	980.492
411.467	17.542	1288.975	980.385
412.482	17.507	1288.738	979.916
413.496	17.502	1287.717	979.026
414.511	17.515	1286.665	978.213
415.526	17.552	1286.390	978.131
416.540	17.543	1285.688	977.457
417.555	17.565	1284.492	976.588
418.569	17.551	1284.005	976.049
419.584	17.599	1283.832	976.110
420.599	17.633	1283.071	975.640
421.613	92.996	1348.824	1457.129
422.628	91.140	1358.402	1457.249
