DTS Sentinel unit serial number:	SN413079Multiplexer serial number:	ORYXHardware model number:	OX4-SRSoftware version number:	ORYX F/W v4.00 Oryx Data Collector v3.7.2.0data status	okinstallation	princeton_trtdifferential loss correction	single-endedforward channel	channel 4reverse channel	N/Adate	2019/09/17time	08:33:35forward acquisition time	60.00reverse acquisition time	0.00gamma	496.2192k internal	0.2317k external	0.2317temperature offset calibration	0.9980default loss term (dB/km)	0.3790temperature slope calibration	1.0000multiplexer offset coefficient	1.0000multiplexer slope coefficient	1.0000fibre end	0.00T internal ref (°C)	27.62T ext. ref 1 (°C)	0.12T ext. ref 2 (°C)	23.16length (m)	temperature (°C)	Stokes	anti-Stokes-747.200	800.000	-0.039	0.164
-746.185	-31.401	-0.140	0.080
-745.171	-133.842	0.244	0.031
-744.156	-200.000	-0.007	0.300
-743.142	800.000	-0.138	0.392
-742.127	-6.855	-0.069	0.048
-741.112	-200.000	0.023	0.459
-740.098	-98.872	-0.181	0.046
-739.083	-200.000	0.038	0.273
-738.069	140.529	-0.114	0.152
-737.054	-102.287	-0.159	-0.039
-736.039	-151.079	-0.248	-0.019
-735.025	-200.000	-0.015	-0.285
-734.010	800.000	-0.072	0.231
-732.996	405.841	-0.115	0.246
-731.981	-200.000	0.052	0.263
-730.966	48.085	0.076	-0.072
-729.952	16.067	-0.377	0.300
-728.937	-200.000	0.034	-0.377
-727.923	235.927	-0.148	-0.247
-726.908	173.519	-0.174	-0.254
-725.894	-90.536	0.089	0.026
-724.879	-200.000	-0.006	-0.309
-723.864	23.853	0.091	-0.076
-722.850	800.000	-0.054	0.157
-721.835	-65.219	-0.242	-0.099
-720.821	96.797	0.117	-0.136
-719.806	-29.669	-0.354	-0.204
-718.791	-200.000	-0.060	-0.288
-717.777	-200.000	-0.021	0.125
-716.762	-81.908	-0.359	0.119
-715.748	-110.979	-0.141	-0.029
-714.733	800.000	0.053	0.167
-713.718	29.734	-0.174	0.150
-712.704	-24.994	0.215	0.129
-711.689	33.455	-0.189	0.166
-710.675	-114.139	-0.435	-0.085
-709.660	-135.349	-0.383	-0.046
-708.645	-200.000	0.022	0.212
-707.631	-22.623	0.372	-0.227
-706.616	800.000	0.044	-0.148
-705.602	-47.272	0.234	-0.115
-704.587	17.346	-0.246	0.197
-703.572	664.899	0.037	0.098
-702.558	150.521	-0.077	-0.106
-701.543	-200.000	-0.102	0.522
-700.529	-75.665	-0.286	0.103
-699.514	-118.926	-0.098	-0.017
-698.499	-200.000	-0.104	-0.000
-697.485	159.639	0.030	0.043
-696.470	-82.524	-0.305	-0.100
-695.456	104.803	0.049	0.058
-694.441	-147.796	0.234	0.020
-693.426	-178.497	-0.180	0.004
-692.412	-40.012	-0.350	0.184
-691.397	-200.000	-0.053	-0.276
-690.383	800.000	0.169	0.632
-689.368	-78.065	-0.112	-0.039
-688.354	273.374	0.086	-0.153
-687.339	-190.671	0.309	0.003
-686.324	486.313	-0.095	-0.220
-685.310	-12.531	-0.253	0.167
-684.295	-5.137	-0.183	0.127
-683.281	322.556	0.111	-0.214
-682.266	-48.077	-0.166	-0.081
-681.251	-104.750	0.106	-0.025
-680.237	640.933	-0.058	0.149
-679.222	65.498	-0.241	0.246
-678.208	-2.007	0.315	0.223
-677.193	-200.000	-0.001	-0.149
-676.178	-45.725	-0.193	0.096
-675.164	-2.052	-0.041	-0.029
-674.149	-144.006	0.366	-0.035
-673.135	27.905	0.171	0.146
-672.120	-99.189	0.406	0.104
-671.105	24.360	-0.208	0.173
-670.091	-200.000	0.036	0.162
-669.076	126.063	0.139	-0.177
-668.062	-96.357	0.299	0.080
-667.047	-44.755	-0.357	0.180
-666.032	-80.822	0.146	-0.049
-665.018	166.262	0.075	-0.107
-664.003	122.405	-0.271	0.342
-662.989	240.828	0.063	-0.106
-661.974	800.000	-0.063	-0.176
-660.959	-114.801	0.171	-0.033
-659.945	-93.658	-0.269	0.075
-658.930	170.363	0.096	-0.138
-657.916	-55.477	-0.325	-0.147
-656.901	-84.425	-0.195	-0.062
-655.886	-174.007	-0.124	-0.004
-654.872	-157.535	0.031	0.002
-653.857	-59.503	0.212	-0.092
-652.843	311.471	-0.061	0.116
-651.828	-60.471	-0.366	-0.157
-650.814	-74.791	0.043	-0.016
-649.799	227.646	-0.147	-0.241
-648.784	-200.000	0.035	-0.237
-647.770	89.670	0.031	-0.035
-646.755	793.121	-0.030	0.083
-645.741	-54.807	-0.338	-0.154
-644.726	-46.616	-0.293	0.145
-643.711	108.087	0.124	0.149
-642.697	-116.935	0.209	0.038
-641.682	-200.000	-0.037	0.183
-640.668	-200.000	0.069	0.353
-639.653	-200.000	-0.016	0.355
-638.638	485.406	0.177	-0.406
-637.624	800.000	0.024	-0.078
-636.609	-200.000	-0.008	0.187
-635.595	-200.000	0.015	-0.352
-634.580	-113.177	-0.232	-0.046
-633.565	662.737	-0.077	0.199
-632.551	-65.746	-0.139	0.056
-631.536	-200.000	-0.022	0.367
-630.522	58.812	-0.205	0.203
-629.507	-200.000	-0.014	-0.071
-628.492	223.374	-0.063	0.103
-627.478	-109.419	-0.237	0.050
-626.463	-32.512	0.206	-0.115
-625.449	28.252	0.085	-0.072
-624.434	-150.835	0.304	0.023
-623.419	144.586	-0.134	0.181
-622.405	-200.000	-0.039	-0.286
-621.390	63.207	-0.101	0.102
-620.376	84.769	0.198	0.218
-619.361	-200.000	0.058	-0.447
-618.346	-118.082	-0.202	-0.036
-617.332	-137.030	-0.462	0.053
-616.317	-123.872	-0.225	0.036
-615.303	-200.000	-0.014	0.224
-614.288	800.000	0.008	0.036
-613.273	149.410	-0.030	0.040
-612.259	231.134	-0.097	-0.160
-611.244	-112.543	-0.198	-0.040
-610.230	-200.000	0.012	0.311
-609.215	208.116	-0.140	0.220
-608.201	-107.933	-0.237	-0.052
-607.186	-42.362	-0.295	-0.152
-606.171	96.233	0.245	-0.282
-605.157	-169.402	-0.129	0.005
-604.142	-119.117	0.290	0.051
-603.128	99.632	0.022	0.026
-602.113	-80.481	-0.060	-0.020
-601.098	-20.207	0.216	0.134
-600.084	-75.011	0.035	0.013
-599.069	536.159	-0.072	0.173
-598.055	-84.977	-0.112	0.036
-597.040	-53.041	0.207	-0.096
-596.025	-185.313	-0.301	0.005
-595.011	685.601	0.128	-0.337
-593.996	18.076	0.319	-0.256
-592.982	-179.010	-0.093	0.002
-591.967	161.952	0.228	-0.321
-590.952	715.892	0.048	0.128
-589.938	380.459	0.086	0.177
-588.923	-200.000	0.023	0.144
-587.909	-19.565	0.319	0.199
-586.894	-46.613	0.160	-0.079
-585.879	289.626	0.064	-0.116
-584.865	25.701	-0.168	-0.141
-583.850	-200.000	0.022	-0.163
-582.836	-200.000	-0.026	0.206
-581.821	445.423	-0.174	-0.384
-580.806	114.814	0.082	-0.101
-579.792	-116.255	0.202	0.038
-578.777	346.126	-0.139	0.275
-577.763	800.000	0.037	0.108
-576.748	-200.000	-0.001	-0.115
-575.733	441.617	-0.018	-0.039
-574.719	134.590	-0.140	0.183
-573.704	-200.000	0.010	-0.073
-572.690	-83.326	0.282	-0.091
-571.675	-8.024	0.144	0.097
-570.661	-70.495	0.159	0.060
-569.646	-89.749	-0.241	0.071
-568.631	307.354	-0.091	-0.170
-567.617	-200.000	0.000	0.011
-566.602	-180.028	0.124	-0.003
-565.588	10.301	0.084	-0.065
-564.573	-200.000	0.010	0.054
-563.558	0.385	-0.104	-0.074
-562.544	-159.467	-0.124	-0.007
-561.529	-200.000	-0.052	0.319
-560.515	-192.540	0.098	0.001
-559.500	800.000	0.031	0.117
-558.485	27.894	-0.294	0.249
-557.471	740.422	-0.068	0.184
-556.456	227.542	-0.114	-0.186
-555.442	-200.000	-0.044	-0.202
-554.427	-34.382	0.134	0.074
-553.412	-200.000	0.010	0.384
-552.398	-200.000	0.033	-0.235
-551.383	-94.158	0.349	-0.096
-550.369	34.905	-0.197	-0.173
-549.354	-200.000	-0.009	0.095
-548.339	-139.570	-0.246	-0.026
-547.325	-96.117	-0.176	0.047
-546.310	412.574	0.094	0.200
-545.296	98.148	0.063	0.072
-544.281	383.529	-0.106	0.219
-543.266	-89.731	0.334	0.098
-542.252	-200.000	-0.023	-0.128
-541.237	-200.000	0.024	-0.144
-540.223	-200.000	-0.022	-0.228
-539.208	-138.870	-0.108	-0.012
-538.193	800.000	0.091	0.257
-537.179	-200.000	0.010	-0.164
-536.164	-154.855	-0.167	-0.011
-535.150	19.714	0.201	0.162
-534.135	-200.000	0.005	-0.051
-533.121	-108.592	0.074	0.016
-532.106	-200.000	0.043	-0.325
-531.091	47.480	-0.047	-0.044
-530.077	-200.000	-0.055	-0.437
-529.062	800.000	-0.038	0.146
-528.048	-19.276	0.083	-0.052
-527.033	-200.000	-0.005	-0.042
-526.018	-60.851	0.319	-0.135
-525.004	64.101	-0.134	0.135
-523.989	-119.961	-0.288	0.050
-522.975	-72.116	-0.352	0.131
-521.960	573.064	-0.115	0.282
-520.945	-154.507	0.063	0.004
-519.931	132.451	-0.035	0.045
-518.916	-7.224	-0.116	0.079
-517.902	-200.000	-0.025	-0.362
-516.887	8.747	-0.091	-0.069
-515.872	210.278	-0.163	-0.257
-514.858	575.084	0.061	-0.149
-513.843	-166.933	-0.148	0.006
-512.829	-47.239	-0.109	-0.053
-511.814	35.467	0.102	0.090
-510.799	-30.220	-0.138	0.079
-509.785	142.123	-0.102	0.136
-508.770	791.718	0.117	0.324
-507.756	-108.439	0.316	-0.068
-506.741	-167.827	-0.313	-0.012
-505.726	-78.558	-0.277	0.095
-504.712	-200.000	-0.024	0.340
-503.697	-139.865	0.207	0.022
-502.683	-200.000	0.023	0.397
-501.668	800.000	-0.057	0.233
-500.653	739.081	0.117	0.315
-499.639	-200.000	-0.008	0.049
-498.624	-84.258	-0.305	-0.097
-497.610	67.974	0.124	-0.127
-496.595	403.365	0.130	-0.273
-495.581	-129.398	0.285	0.040
-494.566	83.950	0.210	-0.230
-493.551	800.000	0.061	-0.246
-492.537	351.355	0.068	-0.134
-491.522	265.367	0.028	-0.048
-490.508	291.017	0.105	0.191
-489.493	-14.143	-0.272	0.176
-488.478	753.963	-0.047	0.128
-487.464	35.683	-0.181	-0.159
-486.449	278.095	0.094	-0.168
-485.435	258.254	-0.142	-0.246
-484.420	25.099	-0.078	-0.065
-483.405	-200.000	0.055	-0.252
-482.391	773.749	-0.060	0.163
-481.376	-97.998	0.255	-0.066
-480.362	-178.030	-0.177	0.004
-479.347	-132.037	-0.218	0.028
-478.332	-143.994	0.109	-0.010
-477.318	340.102	-0.071	0.140
-476.303	62.447	0.303	-0.303
-475.289	-188.148	-0.265	-0.003
-474.274	423.953	0.060	0.128
-473.259	-87.946	0.307	0.092
-472.245	800.000	-0.108	-0.332
-471.230	469.485	0.046	0.103
-470.216	800.000	-0.009	0.036
-469.201	-48.435	0.147	0.071
-468.186	-200.000	-0.008	0.063
-467.172	-48.504	0.073	-0.035
-466.157	-106.579	-0.143	-0.032
-465.143	151.917	0.181	0.246
-464.128	-18.716	0.113	0.070
-463.113	-117.713	0.242	0.044
-462.099	800.000	0.017	0.047
-461.084	-200.000	0.033	-0.152
-460.070	800.000	0.079	-0.240
-459.055	29.985	-0.106	0.090
-458.040	109.572	-0.140	-0.168
-457.026	248.922	0.189	-0.321
-456.011	-57.404	0.042	0.019
-454.997	-119.077	0.095	0.017
-453.982	-200.000	0.010	-0.216
-452.968	185.306	0.237	-0.352
-451.953	-97.398	-0.379	0.099
-450.938	-24.806	0.183	0.109
-449.924	-68.108	0.317	0.124
-448.909	-33.377	0.097	0.054
-447.895	397.950	0.137	-0.286
-446.880	800.000	0.140	0.497
-445.865	-163.637	-0.322	0.015
-444.851	800.000	-0.062	0.271
-443.836	51.156	0.268	-0.254
-442.822	-134.778	-0.127	0.015
-441.807	72.194	-0.056	0.058
-440.792	-35.542	0.235	-0.127
-439.778	320.967	-0.079	-0.151
-438.763	-13.000	-0.157	-0.102
-437.749	800.000	-0.129	-0.368
-436.734	800.000	-0.059	0.239
-435.719	330.732	0.106	-0.204
-434.705	-78.752	-0.179	0.061
-433.690	23.131	0.179	-0.147
-432.676	209.979	-0.077	0.121
-431.661	110.986	0.120	0.144
-430.646	800.000	0.022	-0.070
-429.632	116.698	-0.116	0.143
-428.617	0.235	-0.295	-0.210
-427.603	800.000	0.075	-0.324
-426.588	-108.075	0.193	0.042
-425.573	-200.000	-0.075	-0.342
-424.559	-200.000	0.000	0.156
-423.544	-200.000	0.009	0.057
-422.530	634.825	-0.084	-0.214
-421.515	-178.343	0.181	-0.004
-420.500	-200.000	0.019	-0.151
-419.486	-101.044	-0.282	-0.069
-418.471	-127.782	0.184	0.027
-417.457	-63.401	-0.179	0.074
-416.442	-72.076	0.181	0.067
-415.428	-200.000	-0.016	0.325
-414.413	-92.022	0.110	0.031
-413.398	-53.623	-0.149	0.068
-412.384	274.818	-0.112	-0.199
-411.369	-200.000	0.033	0.217
-410.355	-44.553	-0.288	-0.144
-409.340	800.000	-0.014	-0.046
-408.325	-61.703	-0.232	0.097
-407.311	37.994	-0.267	0.237
-406.296	-122.760	0.416	0.067
-405.282	-113.515	-0.173	-0.034
-404.267	17.216	-0.245	-0.194
-403.252	-200.000	0.009	0.366
-402.238	-4.969	-0.247	0.170
-401.223	800.000	-0.050	-0.168
-400.209	35.107	-0.175	-0.153
-399.194	-174.022	0.068	-0.002
-398.179	140.388	0.222	0.292
-397.165	-54.731	-0.161	-0.072
-396.150	-110.801	0.249	0.051
-395.136	52.614	-0.100	0.096
-394.121	-90.362	0.185	0.054
-393.106	-127.224	-0.103	-0.015
-392.092	5.000	-0.221	-0.162
-391.077	255.589	0.188	0.322
-390.063	800.000	0.063	0.175
-389.048	-200.000	0.029	0.276
-388.033	184.983	0.115	-0.170
-387.019	453.831	-0.035	0.078
-386.004	800.000	-0.039	-0.122
-384.990	-200.000	0.017	-0.191
-383.975	800.000	-0.063	0.225
-382.960	300.672	-0.116	-0.214
-381.946	-94.964	-0.105	-0.028
-380.931	246.606	0.094	0.159
-379.917	-21.482	0.181	0.110
-378.902	-75.747	0.143	0.051
-377.888	-69.217	-0.444	0.171
-376.873	-97.943	-0.091	0.023
-375.858	313.850	-0.056	-0.105
-374.844	602.538	-0.063	0.155
-373.829	-50.022	0.195	0.092
-372.815	791.754	0.032	-0.088
-371.800	-31.360	0.178	0.100
-370.785	-200.000	-0.044	-0.405
-369.771	-137.488	-0.184	-0.021
-368.756	-200.000	0.002	0.413
-367.742	54.160	-0.154	-0.147
-366.727	159.854	-0.033	-0.046
-365.712	114.427	0.235	0.286
-364.698	194.624	-0.029	0.044
-363.683	199.484	-0.067	0.103
-362.669	90.881	-0.152	-0.170
-361.654	-200.000	-0.026	0.310
-360.639	76.766	-0.333	0.353
-359.625	-200.000	-0.006	-0.409
-358.610	467.091	-0.042	0.093
-357.596	98.776	-0.066	-0.076
-356.581	800.000	-0.066	-0.212
-355.566	67.677	-0.131	0.134
-354.552	199.676	-0.096	-0.146
-353.537	-165.977	0.067	0.003
-352.523	800.000	-0.114	0.419
-351.508	-63.217	-0.146	0.060
-350.493	38.166	-0.126	0.112
-349.479	-101.233	-0.047	-0.012
-348.464	-200.000	0.008	0.042
-347.450	-114.669	0.119	-0.023
-346.435	-30.401	0.081	-0.046
-345.420	-86.260	0.258	0.079
-344.406	-72.388	0.231	-0.085
-343.391	-72.296	-0.357	-0.132
-342.377	-124.998	0.283	-0.043
-341.362	528.949	0.110	-0.259
-340.348	-127.859	-0.168	-0.024
-339.333	-128.318	0.266	-0.038
-338.318	-142.377	-0.197	0.019
-337.304	56.373	0.261	-0.252
-336.289	329.029	-0.088	-0.169
-335.275	800.000	0.010	0.039
-334.260	-200.000	0.026	0.188
-333.245	-106.444	-0.157	0.035
-332.231	-41.897	-0.220	-0.112
-331.216	16.065	0.238	-0.187
-330.202	-106.703	0.230	0.051
-329.187	373.719	-0.133	-0.269
-328.172	-107.137	0.196	0.043
-327.158	-120.351	0.296	0.050
-326.143	54.328	0.133	0.128
-325.129	800.000	-0.033	0.094
-324.114	225.313	0.152	-0.246
-323.099	-200.000	-0.009	-0.098
-322.085	-190.153	0.208	-0.002
-321.070	295.482	-0.091	-0.165
-320.056	-36.700	0.177	0.095
-319.041	-24.307	0.165	-0.098
-318.026	190.585	-0.135	-0.202
-317.012	682.287	0.071	0.184
-315.997	409.239	0.034	0.072
-314.983	800.000	-0.097	-0.365
-313.968	800.000	0.108	-0.303
-312.953	-26.763	-0.288	-0.168
-311.939	-82.519	0.095	0.031
-310.924	-86.548	-0.129	-0.039
-309.910	-200.000	-0.010	-0.166
-308.895	3.134	0.277	0.200
-307.880	9.431	-0.034	0.026
-306.866	259.767	0.166	-0.286
-305.851	-200.000	-0.039	-0.202
-304.837	-137.444	-0.113	-0.013
-303.822	-79.757	-0.397	-0.133
-302.807	-178.516	-0.224	-0.005
-301.793	147.873	-0.023	0.031
-300.778	-146.340	-0.063	0.006
-299.764	32.432	0.155	0.133
-298.749	105.205	0.154	-0.181
-297.735	734.889	-0.054	-0.144
-296.720	285.932	0.087	-0.155
-295.705	-120.383	-0.033	-0.006
-294.691	-200.000	-0.066	0.546
-293.676	-138.547	-0.251	-0.027
-292.662	-79.600	-0.322	0.108
-291.647	-122.020	-0.158	0.026
-290.632	338.988	0.132	-0.257
-289.618	580.529	-0.080	0.195
-288.603	96.228	0.141	-0.160
-287.589	88.663	0.283	-0.312
-286.574	-163.596	-0.224	-0.011
-285.559	-62.952	-0.146	-0.060
-284.545	-200.000	0.010	-0.077
-283.530	-200.000	0.018	0.157
-282.516	-35.458	-0.093	-0.050
-281.501	-200.000	0.017	0.337
-280.486	-150.749	0.208	-0.016
-279.472	-200.000	-0.010	-0.073
-278.457	171.713	0.162	0.231
-277.443	800.000	-0.033	0.104
-276.428	-200.000	0.007	-0.044
-275.413	-61.721	-0.086	0.036
-274.399	-106.360	-0.159	-0.035
-273.384	188.631	0.073	-0.109
-272.370	-200.000	-0.029	-0.223
-271.355	-200.000	-0.020	-0.139
-270.340	-200.000	-0.021	-0.274
-269.326	46.001	0.138	0.127
-268.311	-200.000	-0.028	0.384
-267.297	-200.000	-0.056	-0.295
-266.282	415.020	-0.139	-0.295
-265.267	-97.743	-0.276	-0.071
-264.253	667.452	0.036	-0.093
-263.238	-5.369	-0.306	0.209
-262.224	-88.710	0.200	-0.059
-261.209	-33.470	0.135	0.074
-260.195	95.459	0.253	0.287
-259.180	73.604	0.022	0.023
-258.165	-143.698	-0.240	0.023
-257.151	-154.286	-0.380	-0.025
-256.136	-3.173	0.175	-0.121
-255.122	-28.417	0.202	0.116
-254.107	-55.932	-0.193	-0.085
-253.092	54.513	-0.304	-0.291
-252.078	-107.236	-0.318	-0.070
-251.063	-200.000	0.060	-0.277
-250.049	-38.323	-0.123	0.065
-249.034	-77.811	-0.189	-0.065
-248.019	73.625	0.095	0.099
-247.005	-200.000	-0.079	-0.381
-245.990	-200.000	-0.003	-0.212
-244.976	-123.170	0.339	-0.054
-243.961	-83.743	-0.191	0.060
-242.946	-91.933	0.194	-0.054
-241.932	-148.483	-0.300	0.024
-240.917	-200.000	-0.032	0.224
-239.903	-200.000	-0.024	-0.139
-238.888	-92.581	0.213	-0.059
-237.873	500.225	0.173	0.397
-236.859	-172.575	0.159	0.005
-235.844	-200.000	0.051	0.222
-234.830	800.000	0.026	0.099
-233.815	153.688	0.192	-0.261
-232.800	772.522	0.014	-0.037
-231.786	219.074	0.065	0.103
-230.771	-30.430	0.292	0.165
-229.757	-200.000	-0.050	0.281
-228.742	58.061	-0.100	0.098
-227.727	518.543	-0.094	-0.217
-226.713	-146.053	0.309	-0.027
-225.698	-148.980	0.041	-0.003
-224.684	-6.683	0.280	-0.189
-223.669	-200.000	0.001	0.147
-222.655	225.501	-0.056	-0.089
-221.640	-136.580	0.088	0.010
-220.625	195.455	0.225	0.340
-219.611	-12.245	-0.065	-0.042
-218.596	220.840	-0.208	-0.331
-217.582	9.625	0.264	0.198
-216.567	466.619	0.023	0.050
-215.552	-200.000	0.055	0.265
-214.538	-23.430	0.207	0.124
-213.523	248.113	-0.162	0.272
-212.509	-98.685	0.253	-0.064
-211.494	-70.656	0.367	-0.138
-210.479	-200.000	-0.057	0.258
-209.465	375.336	0.127	-0.258
-208.450	144.908	0.112	-0.148
-207.436	199.979	0.076	-0.116
-206.421	618.552	0.070	-0.173
-205.406	-200.000	-0.002	0.164
-204.392	-59.845	-0.243	-0.103
-203.377	-200.000	0.044	0.359
-202.363	225.428	0.155	-0.249
-201.348	248.094	-0.093	-0.157
-200.333	66.323	0.314	0.316
-199.319	257.819	0.039	0.066
-198.304	82.074	0.082	-0.089
-197.290	59.510	0.111	0.108
-196.275	61.298	0.144	0.142
-195.260	-27.403	0.255	-0.147
-194.246	-190.400	0.350	0.004
-193.231	-200.000	0.024	0.206
-192.217	-200.000	0.039	-0.357
-191.202	-75.141	-0.266	-0.094
-190.187	97.335	-0.124	0.141
-189.173	-119.521	0.042	0.007
-188.158	-200.000	0.006	0.225
-187.144	-200.000	0.023	-0.271
-186.129	-16.803	-0.267	-0.167
-185.114	-200.000	0.016	0.295
-184.100	214.099	-0.152	0.238
-183.085	9.320	0.251	0.188
-182.071	-50.843	-0.299	-0.139
-181.056	800.000	-0.115	0.474
-180.042	800.000	-0.016	-0.048
-179.027	234.621	-0.009	0.015
-178.012	-155.125	-0.248	0.016
-176.998	455.870	0.070	-0.154
-175.983	112.915	-0.030	-0.036
-174.969	185.835	0.161	0.237
-173.954	-160.149	0.341	-0.018
-172.939	-200.000	-0.002	-0.023
-171.925	117.465	-0.021	0.026
-170.910	15.820	0.244	-0.190
-169.896	-157.838	-0.244	-0.014
-168.881	-23.971	0.128	0.076
-167.866	150.929	-0.051	-0.069
-166.852	-148.884	0.118	-0.009
-165.837	-11.458	0.147	0.095
-164.823	-121.163	0.130	-0.021
-163.808	-200.000	0.046	0.209
-162.793	-1.559	0.326	0.227
-161.779	800.000	0.018	-0.073
-160.764	-200.000	0.048	-0.212
-159.750	786.209	-0.052	0.140
-158.735	-200.000	-0.050	0.251
-157.720	409.856	-0.194	0.407
-156.706	331.499	-0.039	-0.075
-155.691	-130.200	0.068	0.009
-154.677	-179.305	-0.107	-0.002
-153.662	70.007	-0.056	0.057
-152.647	-3.554	-0.317	-0.218
-151.633	-60.952	0.276	-0.116
-150.618	542.634	-0.096	-0.227
-149.604	-100.197	-0.333	-0.082
-148.589	-200.000	0.028	0.133
-147.574	170.470	0.147	0.209
-146.560	-200.000	-0.175	-0.001
-145.545	297.219	-0.083	0.150
-144.531	341.587	-0.093	-0.180
-143.516	190.854	-0.034	0.051
-142.502	226.265	-0.057	-0.091
-141.487	10.245	-0.123	0.093
-140.472	-159.390	0.127	0.007
-139.458	321.006	-0.104	-0.195
-138.443	-200.000	-0.051	-0.222
-137.429	-200.000	-0.010	0.174
-136.414	-104.720	0.362	-0.082
-135.399	800.000	0.074	-0.307
-134.385	147.903	0.113	-0.151
-133.370	-2.506	-0.335	0.232
-132.356	-200.000	0.076	0.418
-131.341	32.613	-0.280	0.240
-130.326	-52.763	-0.186	0.085
-129.312	-200.000	0.012	0.141
-128.297	-116.870	0.583	0.105
-127.283	-105.903	0.169	-0.038
-126.268	-66.828	0.131	-0.051
-125.253	-60.809	0.225	-0.094
-124.239	507.065	0.095	0.218
-123.224	73.347	-0.157	-0.163
-122.210	-200.000	0.030	-0.213
-121.195	217.327	0.130	0.205
-120.180	800.000	-0.048	-0.198
-119.166	-54.335	-0.243	-0.109
-118.151	-200.000	0.002	0.042
-117.137	110.295	-0.091	0.108
-116.122	494.418	-0.061	0.138
-115.107	-28.585	0.233	0.132
-114.093	-57.997	-0.217	-0.094
-113.078	-130.359	-0.150	-0.020
-112.064	59.743	0.212	0.207
-111.049	-66.534	-0.024	-0.010
-110.034	-30.531	-0.316	-0.177
-109.020	-57.758	-0.067	0.029
-108.005	-126.919	0.056	0.008
-106.991	55.914	-0.088	-0.084
-105.976	-65.740	0.160	-0.063
-104.962	257.359	0.041	0.069
-103.947	-89.182	-0.212	-0.062
-102.932	83.119	0.219	0.236
-101.918	-68.808	-0.185	-0.071
-100.903	757.321	0.041	-0.111
-99.889	-200.000	0.013	-0.157
-98.874	-55.396	0.141	0.062
-97.859	-92.133	-0.264	0.074
-96.845	28.458	0.113	-0.094
-95.830	-200.000	0.017	0.294
-94.816	55.491	-0.147	-0.140
-93.801	25.738	-0.272	-0.224
-92.786	62.403	0.203	0.200
-91.772	-118.089	-0.149	-0.026
-90.757	-67.492	-0.055	-0.021
-89.743	291.802	0.105	0.189
-88.728	-178.704	-0.121	0.003
-87.713	43.575	0.066	-0.060
-86.699	-155.417	-0.329	-0.021
-85.684	360.549	-0.038	-0.075
-84.670	377.601	0.107	-0.215
-83.655	53.828	0.203	-0.192
-82.640	-45.438	-0.329	0.161
-81.626	353.417	-0.099	-0.194
-80.611	-200.000	-0.005	0.129
-79.597	-147.265	-0.204	0.017
-78.582	-35.705	-0.238	0.127
-77.567	800.000	0.058	-0.250
-76.553	-200.000	0.016	-0.159
-75.538	17.072	-0.053	-0.042
-74.524	46.214	0.316	0.288
-73.509	-138.195	-0.461	0.050
-72.494	778.013	0.080	-0.217
-71.480	-6.478	-0.021	0.014
-70.465	-100.761	0.329	-0.080
-69.451	-62.679	-0.394	0.161
-68.436	268.712	0.064	0.111
-67.422	31.279	-0.156	0.132
-66.407	-200.000	-0.033	0.174
-65.392	-40.022	0.273	0.141
-64.378	212.712	-0.096	0.150
-63.363	-153.618	-0.199	0.014
-62.349	483.379	0.241	0.539
-61.334	17.378	-1.225	-0.959
-60.319	109.327	0.451	0.532
-59.305	800.000	-0.251	-0.972
-58.290	176.216	0.783	1.121
-57.276	315.799	0.755	1.403
-56.261	-200.000	111.679	632.507
-55.246	464.533	1501.965	3309.544
-54.232	144.797	2676.562	3525.158
-53.217	94.728	2325.037	2605.161
-52.203	34.038	2073.919	1780.097
-51.188	29.353	1987.879	1664.028
-50.173	27.981	1970.910	1637.469
-49.159	45.828	2028.360	1847.889
-48.144	45.105	2044.671	1856.108
-47.130	29.875	2004.578	1682.489
-46.115	27.670	1993.812	1653.415
-45.100	27.513	1990.444	1649.139
-44.086	27.608	1987.911	1647.832
-43.071	27.455	1985.791	1644.625
-42.057	27.409	1983.897	1642.578
-41.042	27.398	1982.341	1641.128
-40.027	27.502	1979.679	1639.792
-39.013	27.410	1978.637	1638.037
-37.998	27.557	1976.326	1637.381
-36.984	27.516	1974.632	1635.543
-35.969	27.523	1972.652	1633.905
-34.954	27.594	1970.691	1632.847
-33.940	27.641	1969.126	1631.912
-32.925	27.661	1967.472	1630.653
-31.911	27.605	1966.147	1628.989
-30.896	27.631	1964.357	1627.674
-29.881	27.735	1962.647	1627.120
-28.867	27.714	1961.169	1625.645
-27.852	27.691	1960.008	1624.412
-26.838	27.677	1958.093	1622.631
-25.823	27.742	1956.318	1621.672
-24.809	27.714	1954.234	1619.640
-23.794	27.631	1952.525	1617.421
-22.779	27.705	1950.266	1616.142
-21.765	27.546	1949.429	1613.976
-20.750	27.662	1947.143	1613.041
-19.736	27.661	1945.663	1611.743
-18.721	27.663	1943.918	1610.252
-17.706	27.571	1942.740	1608.403
-16.692	27.637	1940.945	1607.430
-15.677	27.676	1939.682	1606.670
-14.663	27.663	1938.212	1605.271
-13.648	27.666	1936.913	1604.159
-12.633	27.631	1935.707	1602.788
-11.619	27.642	1934.268	1601.627
-10.604	27.645	1933.121	1600.639
-9.590	27.630	1931.514	1599.118
-8.575	27.626	1929.958	1597.727
-7.560	27.586	1929.121	1596.625
-6.546	27.611	1927.186	1595.180
-5.531	27.627	1926.148	1594.394
-4.517	27.654	1924.812	1593.463
-3.502	27.652	1924.298	1592.956
-2.487	27.613	1922.943	1591.432
-1.473	27.632	1921.813	1590.598
-0.458	27.745	1917.113	1587.626
0.556	25.834	1897.767	1560.604
1.571	21.907	1879.401	1511.607
2.586	18.100	1902.253	1496.588
3.600	17.082	1937.635	1515.212
4.615	16.936	1931.849	1509.249
5.629	13.350	1831.580	1400.476
6.644	5.180	1713.869	1245.407
7.659	0.621	1677.033	1182.886
8.673	0.232	1673.607	1177.323
9.688	0.153	1672.533	1175.846
10.702	0.159	1670.433	1174.309
11.717	-0.064	1667.341	1170.302
12.731	0.609	1666.666	1174.957
13.746	6.561	1679.592	1230.522
14.761	14.430	1695.045	1303.503
15.775	17.242	1698.763	1328.256
16.790	16.932	1696.996	1324.333
17.804	15.907	1693.750	1313.686
18.819	14.963	1690.297	1303.543
19.834	14.377	1688.116	1297.187
20.848	14.053	1686.712	1293.472
21.863	13.840	1684.898	1290.310
22.877	13.557	1683.747	1287.114
23.892	13.326	1682.060	1283.916
24.907	13.239	1681.157	1282.438
25.921	13.242	1679.994	1281.464
26.936	13.233	1678.604	1280.222
27.950	13.326	1677.821	1280.227
28.965	13.316	1677.226	1279.584
29.980	13.460	1676.351	1279.918
30.994	13.400	1675.839	1278.945
32.009	13.485	1674.369	1278.367
33.023	13.526	1673.981	1278.274
34.038	13.507	1672.841	1277.147
35.053	13.505	1671.862	1276.275
36.067	13.457	1670.703	1274.902
37.082	13.415	1670.062	1273.977
38.096	13.402	1668.990	1272.946
39.111	13.453	1668.345	1272.735
40.126	13.465	1667.059	1271.732
41.140	13.441	1666.134	1270.729
42.155	13.329	1664.736	1268.694
43.169	13.289	1663.313	1267.193
44.184	13.236	1662.201	1265.822
45.199	13.264	1660.965	1264.985
46.213	13.218	1660.276	1263.996
47.228	13.207	1658.502	1262.454
48.242	13.254	1657.383	1261.848
49.257	13.372	1656.125	1261.677
50.271	13.247	1655.062	1259.805
51.286	13.293	1653.881	1259.142
52.301	13.372	1651.978	1258.186
53.315	13.382	1650.838	1257.283
54.330	13.393	1649.487	1256.221
55.344	13.263	1647.640	1253.719
56.359	13.237	1646.561	1252.589
57.374	13.242	1645.247	1251.518
58.388	13.267	1643.833	1250.521
59.403	13.248	1642.679	1249.389
60.417	13.224	1640.788	1247.661
61.432	13.160	1640.069	1246.516
62.447	13.212	1638.577	1245.668
63.461	13.125	1637.574	1244.138
64.476	13.182	1636.751	1243.832
65.490	13.094	1635.667	1242.234
66.505	13.055	1634.552	1240.989
67.520	13.136	1633.128	1240.403
68.534	13.163	1632.259	1239.836
69.549	13.168	1631.051	1238.849
70.563	13.228	1629.431	1237.958
71.578	13.164	1628.545	1236.699
72.593	13.164	1627.288	1235.633
73.607	13.072	1626.505	1234.237
74.622	13.085	1625.362	1233.362
75.636	13.040	1624.673	1232.390
76.651	13.054	1623.944	1231.833
77.666	13.078	1622.749	1230.998
78.680	13.062	1621.559	1229.869
79.695	13.092	1620.715	1229.345
80.709	13.174	1619.496	1228.919
81.724	13.109	1618.553	1227.611
82.739	13.196	1617.694	1227.495
83.753	13.256	1617.093	1227.377
84.768	13.272	1615.945	1226.518
85.782	13.269	1615.294	1225.888
86.797	13.317	1614.259	1225.352
87.812	13.411	1613.127	1225.083
88.826	13.372	1611.637	1223.552
89.841	13.372	1609.914	1222.139
90.855	13.342	1609.720	1221.658
91.870	13.305	1608.666	1220.478
92.884	13.367	1607.589	1220.010
93.899	13.344	1606.699	1219.058
94.914	13.368	1605.524	1218.235
95.928	13.372	1604.391	1217.296
96.943	13.414	1603.010	1216.452
97.957	13.474	1601.640	1215.741
98.972	13.332	1600.408	1213.661
99.987	13.421	1598.094	1212.452
101.001	13.294	1596.966	1210.558
102.016	13.328	1595.675	1209.718
103.030	13.363	1594.101	1208.677
104.045	13.391	1592.779	1207.774
105.060	13.410	1591.185	1206.592
106.074	13.328	1590.077	1205.049
107.089	13.328	1588.365	1203.644
108.103	13.213	1586.741	1201.472
109.118	13.220	1585.598	1200.550
110.133	13.203	1584.166	1199.237
111.147	13.179	1582.681	1197.833
112.162	13.200	1581.491	1196.978
113.176	13.228	1580.133	1196.046
114.191	13.251	1579.068	1195.302
115.206	13.287	1577.824	1194.512
116.220	13.371	1575.811	1193.493
117.235	13.330	1574.844	1192.354
118.249	13.284	1573.232	1190.697
119.264	13.232	1572.497	1189.666
120.279	13.163	1571.384	1188.218
121.293	13.189	1569.642	1186.983
122.308	13.200	1567.963	1185.686
123.322	13.224	1566.893	1184.947
124.337	13.184	1565.148	1183.233
125.352	13.240	1563.880	1182.572
126.366	13.261	1562.705	1181.729
127.381	13.268	1560.781	1180.219
128.395	13.148	1560.572	1179.100
129.410	13.201	1559.069	1178.239
130.424	13.232	1557.725	1177.343
131.439	13.206	1556.385	1176.041
132.454	13.196	1555.374	1175.102
133.468	13.265	1554.024	1174.464
134.483	13.255	1552.447	1173.100
135.497	13.219	1551.225	1171.813
136.512	13.313	1549.714	1171.239
137.527	13.312	1548.176	1169.961
138.541	13.366	1546.608	1169.055
139.556	13.293	1545.342	1167.482
140.570	13.342	1544.060	1166.754
141.585	13.388	1542.699	1165.949
142.600	13.449	1541.441	1165.322
143.614	13.421	1540.304	1164.162
144.629	13.412	1539.428	1163.338
145.643	13.501	1538.159	1162.896
146.658	13.525	1536.730	1161.885
147.673	13.499	1535.143	1160.396
148.687	13.509	1533.515	1159.136
149.702	13.457	1531.854	1157.417
150.716	13.419	1530.039	1155.678
151.731	13.372	1528.993	1154.458
152.746	13.425	1527.718	1153.757
153.760	13.446	1526.047	1152.539
154.775	13.423	1524.865	1151.389
155.789	13.505	1523.293	1150.670
156.804	13.554	1522.122	1150.024
157.819	13.495	1521.105	1148.745
158.833	13.558	1519.855	1148.134
159.848	13.617	1518.528	1147.434
160.862	13.671	1517.196	1146.703
161.877	13.735	1516.008	1146.146
162.892	13.611	1515.317	1144.669
163.906	13.635	1513.525	1143.377
164.921	13.678	1511.790	1142.262
165.935	13.568	1511.193	1140.953
166.950	13.516	1510.092	1139.663
167.964	13.522	1509.033	1138.802
168.979	13.541	1508.423	1138.374
169.994	13.555	1506.903	1137.219
171.008	13.659	1506.115	1137.239
172.023	13.647	1504.897	1136.138
173.037	13.711	1503.479	1135.406
174.052	13.761	1502.377	1134.813
175.067	13.766	1501.343	1133.969
176.081	13.670	1500.684	1132.710
177.096	13.695	1498.920	1131.449
178.110	13.669	1497.542	1130.134
179.125	13.649	1496.334	1128.983
180.140	13.627	1495.704	1128.263
181.154	13.640	1494.757	1127.537
182.169	13.719	1493.234	1126.825
183.183	13.825	1491.923	1126.449
184.198	13.807	1491.314	1125.773
185.213	13.818	1489.794	1124.598
186.227	13.959	1488.254	1124.290
187.242	13.857	1487.513	1122.944
188.256	13.909	1486.823	1122.671
189.271	13.992	1485.898	1122.438
190.286	14.003	1484.702	1121.506
191.300	14.072	1483.123	1120.679
192.315	13.846	1482.160	1118.329
193.329	13.776	1481.033	1116.908
194.344	13.706	1480.047	1115.598
195.359	13.737	1479.321	1115.163
196.373	13.807	1477.490	1114.152
197.388	13.916	1476.398	1113.960
198.402	13.874	1475.696	1113.051
199.417	13.942	1474.788	1112.723
200.432	13.989	1473.552	1112.004
201.446	14.068	1472.388	1111.558
202.461	14.193	1471.194	1111.392
203.475	14.193	1470.328	1110.638
204.490	14.181	1469.059	1109.501
205.504	14.149	1468.194	1108.540
206.519	14.144	1466.881	1107.414
207.534	14.089	1465.964	1106.259
208.548	14.094	1464.807	1105.320
209.563	14.163	1463.557	1104.739
210.577	14.178	1462.525	1103.961
211.592	14.222	1461.602	1103.458
212.607	14.193	1460.881	1102.627
213.621	14.287	1459.958	1102.456
214.636	14.218	1459.458	1101.520
215.650	14.227	1458.478	1100.744
216.665	14.167	1457.673	1099.645
217.680	14.274	1456.672	1099.498
218.694	14.211	1456.230	1098.651
219.709	14.270	1455.272	1098.221
220.723	14.363	1453.795	1097.618
221.738	14.328	1453.125	1096.787
222.753	14.272	1452.181	1095.607
223.767	14.323	1451.155	1095.076
224.782	14.347	1450.493	1094.632
225.796	14.457	1449.409	1094.442
226.811	14.492	1448.337	1093.763
227.826	14.428	1448.076	1093.050
228.840	14.453	1447.185	1092.445
229.855	14.382	1445.858	1090.881
230.869	14.548	1444.433	1090.794
231.884	14.353	1444.339	1089.354
232.899	14.378	1442.882	1088.319
233.913	14.413	1441.740	1087.596
234.928	14.348	1440.836	1086.389
235.942	14.392	1438.961	1085.169
236.957	14.383	1438.265	1084.486
237.972	14.379	1437.412	1083.723
238.986	14.469	1435.779	1082.979
240.001	14.313	1435.101	1081.361
241.015	14.466	1433.914	1081.364
242.030	14.543	1432.585	1080.764
243.045	14.455	1432.200	1079.809
244.059	14.412	1431.299	1078.757
245.074	14.597	1429.709	1078.656
246.088	14.524	1429.181	1077.690
247.103	14.610	1428.569	1077.693
248.117	14.602	1427.916	1077.052
249.132	14.755	1426.857	1077.142
250.147	14.704	1426.306	1076.304
251.161	14.758	1425.879	1076.234
252.176	14.827	1424.861	1075.813
253.190	14.741	1424.171	1074.645
254.205	14.878	1423.064	1074.594
255.220	14.918	1422.437	1074.283
256.234	14.936	1421.465	1073.569
257.249	14.937	1420.906	1073.059
258.263	14.904	1420.694	1072.592
259.278	14.970	1418.900	1071.564
260.293	15.056	1418.334	1071.591
261.307	14.895	1417.473	1069.822
262.322	15.066	1416.699	1070.232
263.336	15.009	1416.241	1069.427
264.351	15.061	1414.801	1068.579
265.366	15.108	1413.678	1067.933
266.380	15.118	1412.809	1067.249
267.395	15.126	1411.751	1066.404
268.409	15.131	1410.836	1065.652
269.424	15.178	1409.718	1065.014
270.439	15.217	1408.824	1064.489
271.453	15.202	1407.852	1063.564
272.468	15.142	1406.490	1062.061
273.482	15.127	1406.478	1061.867
274.497	15.028	1406.061	1060.829
275.512	15.131	1404.437	1060.163
276.526	15.116	1403.857	1059.536
277.541	15.115	1402.684	1058.552
278.555	15.137	1402.230	1058.253
279.570	15.172	1400.874	1057.359
280.585	15.191	1400.184	1056.862
281.599	15.288	1399.329	1056.732
282.614	15.392	1398.048	1056.329
283.628	15.269	1396.895	1054.591
284.643	15.261	1396.237	1053.951
285.657	15.263	1394.873	1052.840
286.672	15.297	1394.213	1052.462
287.687	15.349	1393.156	1051.896
288.701	15.350	1392.363	1051.209
289.716	15.337	1391.577	1050.444
290.730	15.354	1390.869	1049.921
291.745	15.356	1389.981	1049.169
292.760	15.386	1389.129	1048.624
293.774	15.385	1388.149	1047.780
294.789	15.479	1386.557	1047.078
295.803	15.467	1386.135	1046.591
296.818	15.496	1385.199	1045.973
297.833	15.477	1384.106	1044.933
298.847	15.334	1383.489	1043.484
299.862	15.437	1382.451	1043.251
300.876	15.528	1381.724	1043.177
301.891	15.392	1380.692	1041.458
302.906	15.585	1379.955	1042.008
303.920	15.521	1379.490	1041.171
304.935	15.563	1378.318	1040.453
305.949	15.755	1376.963	1040.526
306.964	15.740	1376.221	1039.781
307.979	15.786	1375.399	1039.352
308.993	15.861	1374.188	1038.808
310.008	15.748	1373.842	1037.757
311.022	15.772	1372.496	1036.797
312.037	15.734	1371.633	1035.821
313.052	15.819	1370.397	1035.317
314.066	15.772	1369.972	1034.615
315.081	15.790	1368.670	1033.649
316.095	15.761	1367.411	1032.427
317.110	15.777	1366.443	1031.706
318.125	15.836	1365.165	1031.013
319.139	15.636	1364.977	1029.555
320.154	15.738	1363.598	1029.046
321.168	15.727	1362.598	1028.132
322.183	15.750	1361.919	1027.667
323.197	15.726	1361.051	1026.778
324.212	15.765	1360.056	1026.172
325.227	15.863	1359.132	1025.981
326.241	15.793	1358.423	1024.930
327.256	15.832	1357.460	1024.348
328.270	15.913	1356.725	1024.196
329.285	15.894	1355.779	1023.277
330.300	15.871	1354.522	1022.098
331.314	15.895	1353.674	1021.518
332.329	15.778	1353.048	1020.240
333.343	15.890	1351.914	1019.976
334.358	15.908	1351.414	1019.615
335.373	15.937	1350.549	1019.051
336.387	15.958	1349.728	1018.467
337.402	15.963	1349.083	1017.921
338.416	16.060	1348.128	1017.694
339.431	16.020	1347.679	1017.023
340.446	16.101	1346.630	1016.629
341.460	16.021	1346.107	1015.662
342.475	16.165	1344.907	1015.537
343.489	16.090	1344.276	1014.521
344.504	16.234	1343.179	1014.469
345.519	16.222	1342.399	1013.714
346.533	16.270	1341.200	1013.011
347.548	16.254	1340.267	1012.119
348.562	16.301	1339.438	1011.682
349.577	16.314	1338.656	1011.081
350.592	16.297	1338.254	1010.588
351.606	16.162	1337.423	1009.063
352.621	16.276	1335.488	1008.196
353.635	16.153	1335.177	1007.137
354.650	16.141	1334.235	1006.263
355.665	16.295	1332.979	1006.147
356.679	16.199	1332.138	1004.854
357.694	16.244	1331.321	1004.416
358.708	16.277	1330.049	1003.561
359.723	16.177	1329.242	1002.271
360.738	16.304	1328.128	1002.098
361.752	16.375	1326.667	1001.323
362.767	16.353	1325.850	1000.489
363.781	16.361	1324.908	999.738
364.796	16.363	1324.452	999.319
365.810	16.386	1323.861	998.917
366.825	16.406	1323.037	998.327
367.840	16.462	1322.014	997.799
368.854	16.416	1321.720	997.217
369.869	16.673	1320.685	997.860
370.883	16.675	1319.893	997.187
371.898	16.623	1319.225	996.286
372.913	16.595	1318.305	995.338
373.927	16.640	1317.745	995.093
374.942	16.590	1316.997	994.145
375.956	16.681	1315.967	993.814
376.971	16.677	1315.080	993.032
377.986	16.648	1314.218	992.123
379.000	16.711	1313.336	991.742
380.015	16.736	1312.890	991.463
381.029	16.732	1312.216	990.840
382.044	16.801	1311.285	990.457
383.059	16.765	1310.740	989.743
384.073	16.818	1310.078	989.464
385.088	16.831	1309.330	988.889
386.102	16.860	1308.827	988.591
387.117	16.869	1308.168	988.060
388.132	16.953	1306.878	987.485
389.146	16.863	1305.761	986.033
390.161	16.912	1305.257	985.851
391.175	16.845	1304.655	984.918
392.190	16.842	1304.121	984.408
393.205	16.850	1303.099	983.597
394.219	16.988	1301.587	983.170
395.234	16.951	1300.619	982.138
396.248	16.841	1299.549	980.606
397.263	16.935	1297.948	979.851
398.278	16.948	1296.821	978.989
399.292	16.902	1295.954	977.983
400.307	16.939	1295.128	977.491
401.321	16.844	1294.158	976.125
402.336	16.866	1293.054	975.332
403.350	16.926	1291.721	974.581
404.365	16.834	1291.485	973.792
405.380	16.922	1290.376	973.375
406.394	16.968	1289.709	973.048
407.409	17.104	1288.661	972.952
408.423	17.116	1287.740	972.239
409.438	17.139	1287.294	971.945
410.453	17.118	1286.462	971.113
411.467	17.109	1286.182	970.766
412.482	17.218	1285.511	970.794
413.496	17.245	1284.787	970.318
414.511	17.186	1284.234	969.474
415.526	17.198	1283.233	968.702
416.540	17.325	1282.441	968.740
417.555	17.305	1281.866	968.106
418.569	17.326	1281.332	967.737
419.584	17.356	1280.967	967.550
420.599	17.352	1280.062	966.757
421.613	96.868	1355.183	1477.287
422.628	94.714	1366.086	1477.393
