DTS Sentinel unit serial number:	SN413079Multiplexer serial number:	ORYXHardware model number:	OX4-SRSoftware version number:	ORYX F/W v4.00 Oryx Data Collector v3.7.2.0data status	okinstallation	princeton_trtdifferential loss correction	single-endedforward channel	channel 4reverse channel	N/Adate	2019/09/14time	00:29:34forward acquisition time	60.00reverse acquisition time	0.00gamma	496.2192k internal	0.2324k external	0.2324temperature offset calibration	1.0130default loss term (dB/km)	0.3790temperature slope calibration	1.0000multiplexer offset coefficient	1.0000multiplexer slope coefficient	1.0000fibre end	0.00T internal ref (°C)	26.47T ext. ref 1 (°C)	3.17T ext. ref 2 (°C)	21.22length (m)	temperature (°C)	Stokes	anti-Stokes-747.200	800.000	0.109	0.328
-746.185	-103.934	-0.272	0.064
-745.171	-50.644	-0.078	0.037
-744.156	-200.000	-0.027	0.226
-743.142	800.000	0.075	-0.228
-742.127	-37.228	0.161	-0.087
-741.112	258.107	0.081	-0.141
-740.098	76.476	0.216	0.231
-739.083	-100.444	-0.062	-0.016
-738.069	-51.766	-0.272	0.128
-737.054	-119.726	0.315	-0.055
-736.039	120.632	0.190	-0.239
-735.025	-172.865	0.449	-0.014
-734.010	-200.000	-0.009	-0.194
-732.996	-19.371	-0.317	-0.198
-731.981	246.977	-0.135	0.231
-730.966	-23.108	-0.256	-0.156
-729.952	-200.000	-0.031	-0.136
-728.937	-86.088	0.073	-0.023
-727.923	-8.912	-0.186	-0.126
-726.908	800.000	-0.043	-0.184
-725.894	-94.483	-0.342	-0.094
-724.879	800.000	-0.091	-0.256
-723.864	-150.355	0.198	0.015
-722.850	-21.330	-0.239	0.147
-721.835	29.000	0.256	-0.219
-720.821	-197.249	0.137	0.001
-719.806	74.610	0.142	-0.151
-718.791	-57.118	-0.081	0.036
-717.777	-45.141	-0.230	0.115
-716.762	503.485	-0.082	-0.191
-715.748	-148.569	0.496	0.041
-714.733	-41.617	-0.177	0.092
-713.718	190.881	-0.181	0.274
-712.704	-18.671	0.427	-0.269
-711.689	-200.000	-0.077	0.416
-710.675	-200.000	0.038	-0.241
-709.660	-13.810	-0.235	-0.153
-708.645	-200.000	-0.034	-0.160
-707.631	-12.923	0.136	0.089
-706.616	-14.799	-0.219	-0.141
-705.602	53.360	0.261	0.252
-704.587	-34.675	0.230	0.127
-703.572	15.443	-0.117	-0.093
-702.558	174.154	-0.087	-0.126
-701.543	800.000	-0.008	0.025
-700.529	-200.000	0.007	0.207
-699.514	353.158	-0.122	0.245
-698.499	57.743	0.203	0.200
-697.485	42.374	-0.123	-0.113
-696.470	-200.000	-0.050	0.366
-695.456	51.818	-0.154	-0.148
-694.441	-69.720	-0.145	0.056
-693.426	800.000	-0.035	-0.100
-692.412	-21.646	0.223	0.137
-691.397	384.179	0.108	0.224
-690.383	298.501	-0.089	0.164
-689.368	800.000	0.036	0.108
-688.354	748.488	0.053	0.144
-687.339	265.760	-0.084	-0.148
-686.324	293.300	-0.183	-0.336
-685.310	-5.967	0.076	-0.052
-684.295	-54.487	0.133	-0.061
-683.281	-200.000	-0.028	0.173
-682.266	-6.693	-0.096	-0.066
-681.251	-124.920	0.312	-0.048
-680.237	-14.166	-0.105	-0.068
-679.222	-76.929	0.170	0.060
-678.208	79.279	0.156	0.168
-677.193	-200.000	0.024	-0.175
-676.178	-117.714	0.221	0.040
-675.164	-142.073	-0.193	0.019
-674.149	-166.475	-0.370	-0.016
-673.135	213.061	0.044	-0.069
-672.120	-200.000	-0.001	0.242
-671.105	-51.201	0.376	-0.178
-670.091	213.912	-0.064	0.102
-669.076	800.000	0.049	0.140
-668.062	-166.834	-0.236	-0.010
-667.047	30.595	0.400	-0.345
-666.032	-104.047	-0.331	-0.078
-665.018	60.058	-0.093	0.093
-664.003	66.414	-0.141	0.144
-662.989	45.910	0.110	0.103
-661.974	-200.000	-0.004	-0.088
-660.959	42.134	0.068	0.062
-659.945	-117.175	-0.223	-0.041
-658.930	603.863	0.028	0.070
-657.916	23.856	-0.432	-0.358
-656.901	54.505	-0.187	0.181
-655.886	-181.735	0.054	-0.001
-654.872	-200.000	0.042	-0.394
-653.857	-73.708	-0.025	0.009
-652.843	-33.317	-0.343	0.191
-651.828	-200.000	0.036	0.256
-650.814	214.659	-0.157	-0.250
-649.799	309.204	-0.159	-0.298
-648.784	698.757	0.107	0.282
-647.770	800.000	0.080	0.267
-646.755	253.580	-0.121	-0.207
-645.741	-63.196	-0.109	-0.045
-644.726	799.687	0.045	0.125
-643.711	222.970	-0.150	0.244
-642.697	-52.720	0.161	-0.074
-641.682	-66.616	-0.179	0.071
-640.668	-176.498	0.255	0.007
-639.653	-102.335	0.181	0.044
-638.638	-54.613	-0.049	0.022
-637.624	-200.000	0.057	0.419
-636.609	32.200	0.182	0.158
-635.595	-200.000	0.004	0.181
-634.580	-41.445	-0.254	-0.132
-633.565	197.336	-0.048	-0.074
-632.551	-78.162	-0.445	0.154
-631.536	18.712	0.073	-0.059
-630.522	800.000	-0.092	-0.321
-629.507	-56.198	-0.137	0.061
-628.492	-132.043	-0.220	-0.029
-627.478	-17.235	0.276	0.175
-626.463	29.213	-0.046	0.039
-625.449	58.235	-0.212	0.209
-624.434	164.497	0.120	-0.169
-623.419	197.592	-0.173	-0.265
-622.405	-154.724	0.359	-0.024
-621.390	-72.115	-0.136	0.051
-620.376	75.033	0.055	0.058
-619.361	91.635	0.178	-0.201
-618.346	196.774	0.099	-0.152
-617.332	-200.000	-0.002	-0.106
-616.317	-151.801	0.041	-0.003
-615.303	397.371	-0.090	-0.188
-614.288	-13.053	0.109	-0.071
-613.273	-87.514	-0.170	0.052
-612.259	-132.106	-0.100	-0.013
-611.244	-200.000	0.014	-0.172
-610.230	112.277	-0.044	-0.054
-609.215	800.000	-0.046	-0.188
-608.201	69.770	0.035	-0.037
-607.186	574.066	0.090	0.220
-606.171	57.848	-0.054	0.053
-605.157	-2.384	-0.117	0.082
-604.142	-95.416	0.383	-0.103
-603.128	-200.000	-0.070	-0.417
-602.113	215.034	-0.146	0.233
-601.098	-64.888	-0.072	-0.029
-600.084	780.290	0.102	0.280
-599.069	110.966	-0.229	-0.277
-598.055	-35.647	0.413	0.225
-597.040	-97.325	-0.174	0.045
-596.025	107.650	-0.228	-0.273
-595.011	217.848	-0.064	0.102
-593.996	-177.482	0.159	-0.004
-592.982	-51.529	-0.032	0.015
-591.967	289.666	-0.144	0.261
-590.952	800.000	-0.050	-0.144
-589.938	-47.486	0.297	-0.145
-588.923	-200.000	-0.003	0.037
-587.909	-42.689	-0.237	-0.121
-586.894	15.963	-0.225	0.178
-585.879	-130.961	-0.887	0.119
-584.865	800.000	-0.071	-0.222
-583.850	-2.358	0.172	0.121
-582.836	196.903	0.171	0.261
-581.821	60.599	-0.129	0.128
-580.806	-136.909	0.201	-0.023
-579.792	101.178	0.037	-0.043
-578.777	39.397	-0.140	-0.126
-577.763	-51.741	-0.139	-0.065
-576.748	167.979	-0.093	0.132
-575.733	-73.344	0.240	-0.088
-574.719	86.238	0.037	-0.041
-573.704	-106.397	0.415	-0.093
-572.690	10.965	0.193	-0.148
-571.675	-200.000	0.041	0.243
-570.661	713.118	0.021	0.055
-569.646	-200.000	-0.000	0.025
-568.631	539.960	0.129	0.307
-567.617	390.631	0.125	0.260
-566.602	-143.747	-0.120	0.011
-565.588	-141.549	0.254	-0.026
-564.573	338.549	-0.135	0.263
-563.558	389.158	-0.143	0.296
-562.544	294.644	-0.148	-0.271
-561.529	-122.371	0.299	-0.049
-560.515	403.649	-0.046	0.097
-559.500	-200.000	-0.021	-0.132
-558.485	-59.234	-0.462	0.199
-557.471	-165.642	0.264	-0.011
-556.456	-18.448	-0.184	0.115
-555.442	-100.966	-0.320	0.079
-554.427	-155.381	0.306	0.020
-553.412	-32.320	-0.143	-0.080
-552.398	-105.263	-0.131	-0.030
-551.383	-141.649	0.305	-0.031
-550.369	12.020	-0.210	-0.162
-549.354	-200.000	-0.008	0.102
-548.339	-200.000	-0.081	0.383
-547.325	-183.359	-0.402	-0.007
-546.310	45.539	-0.286	0.264
-545.296	324.695	-0.066	0.127
-544.281	309.791	0.093	-0.174
-543.266	335.007	-0.115	-0.222
-542.252	-200.000	0.003	0.187
-541.237	671.933	-0.074	0.191
-540.223	94.901	-0.123	0.140
-539.208	-200.000	-0.004	0.084
-538.193	-86.702	-0.215	0.066
-537.179	-125.159	-0.170	-0.026
-536.164	-58.552	-0.169	-0.073
-535.150	800.000	0.037	-0.159
-534.135	-200.000	-0.005	0.240
-533.121	4.801	0.228	-0.168
-532.106	59.164	-0.105	-0.104
-531.091	63.868	-0.205	0.206
-530.077	282.130	-0.063	-0.114
-529.062	-129.255	-0.147	-0.021
-528.048	358.902	-0.052	0.105
-527.033	-79.254	0.099	-0.034
-526.018	-122.404	-0.186	0.030
-525.004	441.002	-0.070	-0.153
-523.989	417.312	0.071	-0.152
-522.975	-119.809	0.334	0.058
-521.960	-136.131	0.345	-0.040
-520.945	800.000	0.149	0.503
-519.931	-155.751	-0.310	-0.020
-518.916	180.360	-0.058	0.084
-517.902	19.836	-0.180	-0.145
-516.887	147.060	-0.046	0.062
-515.872	307.464	0.143	-0.267
-514.858	46.976	0.121	-0.112
-513.843	101.848	0.207	-0.242
-512.829	82.660	-0.084	-0.092
-511.814	-200.000	0.013	0.212
-510.799	-86.182	-0.401	0.124
-509.785	800.000	-0.030	-0.090
-508.770	-200.000	-0.020	0.223
-507.756	-29.678	-0.237	0.135
-506.741	-130.338	-0.091	-0.012
-505.726	-200.000	0.032	-0.247
-504.712	20.099	-0.244	-0.197
-503.697	-200.000	0.027	0.207
-502.683	377.448	0.103	-0.211
-501.668	-41.092	0.043	-0.022
-500.653	-200.000	-0.042	-0.203
-499.639	-49.149	0.195	-0.093
-498.624	-125.864	-0.238	-0.036
-497.610	800.000	0.101	-0.376
-496.595	-200.000	-0.016	-0.304
-495.581	-50.885	0.383	0.180
-494.566	-200.000	0.023	-0.141
-493.551	245.378	-0.091	0.154
-492.537	-73.524	0.016	0.006
-491.522	-82.759	0.161	0.052
-490.508	-96.307	0.205	-0.054
-489.493	631.928	-0.114	-0.290
-488.478	-200.000	0.024	-0.113
-487.464	547.624	-0.079	-0.189
-486.449	-68.166	-0.176	0.069
-485.435	-159.782	-0.450	0.025
-484.420	-4.827	-0.204	-0.140
-483.405	120.936	0.042	-0.052
-482.391	-160.480	0.223	-0.012
-481.376	-64.065	0.371	0.151
-480.362	-40.326	0.111	0.058
-479.347	174.361	0.164	0.237
-478.332	-30.991	0.142	-0.080
-477.318	800.000	-0.078	0.338
-476.303	182.290	0.125	0.185
-475.289	108.191	0.216	-0.258
-474.274	-164.944	-0.517	0.023
-473.259	109.991	-0.103	0.123
-472.245	3.154	0.111	-0.081
-471.230	141.787	0.164	-0.217
-470.216	298.359	0.112	0.206
-469.201	209.897	0.094	-0.147
-468.186	203.828	0.100	0.155
-467.172	-116.405	0.154	-0.028
-466.157	-200.000	0.003	0.132
-465.143	-200.000	-0.018	-0.095
-464.128	-47.612	0.438	-0.212
-463.113	32.063	0.159	0.137
-462.099	-56.906	0.329	-0.145
-461.084	-50.185	-0.133	-0.063
-460.070	-97.713	0.111	0.029
-459.055	-200.000	-0.003	-0.106
-458.040	45.193	-0.133	0.122
-457.026	-19.845	-0.149	-0.092
-456.011	216.732	0.031	-0.049
-454.997	50.955	-0.215	-0.204
-453.982	-158.293	-0.156	-0.009
-452.968	106.998	0.175	-0.208
-451.953	38.329	0.133	-0.118
-450.938	-89.867	0.261	0.076
-449.924	-200.000	-0.016	-0.112
-448.909	-23.081	0.124	0.075
-447.895	800.000	0.063	0.258
-446.880	-14.423	0.159	-0.102
-445.865	-171.703	0.205	-0.007
-444.851	-42.559	-0.219	0.111
-443.836	-78.973	0.338	-0.115
-442.822	22.370	0.253	-0.206
-441.807	435.931	0.033	0.073
-440.792	-115.972	0.367	0.068
-439.778	57.830	0.010	-0.010
-438.763	-46.183	0.103	-0.050
-437.749	-200.000	-0.323	0.000
-436.734	800.000	-0.164	0.459
-435.719	215.523	0.256	-0.405
-434.705	-184.803	-0.411	-0.007
-433.690	173.459	0.169	-0.244
-432.676	800.000	0.048	0.205
-431.661	-190.203	-0.314	-0.003
-430.646	3.346	0.167	0.121
-429.632	0.752	-0.030	0.022
-428.617	21.298	-0.201	0.163
-427.603	-41.340	-0.009	-0.005
-426.588	210.903	-0.081	0.127
-425.573	4.998	0.250	-0.184
-424.559	-200.000	-0.017	0.191
-423.544	-42.799	0.251	-0.127
-422.530	800.000	0.049	0.161
-421.515	397.355	-0.140	-0.292
-420.500	-97.104	0.217	-0.057
-419.486	-14.702	-0.173	0.111
-418.471	-61.325	-0.238	-0.100
-417.457	790.223	-0.138	0.377
-416.442	-200.000	-0.012	0.445
-415.428	250.654	0.052	0.088
-414.413	123.175	-0.184	0.230
-413.398	-200.000	-0.098	0.449
-412.384	58.329	-0.067	-0.066
-411.369	-115.631	-0.270	0.050
-410.355	-36.408	0.037	0.020
-409.340	-180.324	0.168	0.004
-408.325	314.081	-0.057	-0.106
-407.311	6.928	-0.273	0.203
-406.296	112.901	-0.038	0.046
-405.282	-25.617	-0.220	0.129
-404.267	362.045	-0.070	-0.139
-403.252	-200.000	-0.031	0.312
-402.238	-161.430	-0.196	0.010
-401.223	-92.873	0.176	-0.049
-400.209	800.000	0.012	0.042
-399.194	800.000	-0.027	-0.105
-398.179	800.000	-0.061	0.171
-397.165	800.000	-0.064	-0.199
-396.150	-85.388	-0.336	-0.104
-395.136	104.698	-0.140	-0.165
-394.121	800.000	-0.033	0.133
-393.106	-200.000	-0.029	0.248
-392.092	-139.132	-0.056	0.006
-391.077	226.242	0.070	-0.113
-390.063	267.086	-0.067	0.117
-389.048	-200.000	0.008	0.271
-388.033	261.824	0.164	-0.283
-387.019	-200.000	0.032	0.223
-386.004	109.035	0.148	-0.176
-384.990	-94.298	0.167	0.045
-383.975	31.828	0.104	0.090
-382.960	-124.073	-0.287	0.045
-381.946	47.337	-0.100	-0.093
-380.931	-9.968	0.266	0.176
-379.917	-109.260	-0.290	0.061
-378.902	-81.588	0.274	0.090
-377.888	-200.000	-0.007	-0.263
-376.873	-156.180	-0.287	-0.018
-375.858	183.492	-0.120	-0.176
-374.844	-200.000	-0.023	0.311
-373.829	398.260	-0.075	-0.155
-372.815	13.974	0.262	-0.203
-371.800	-52.648	-0.032	0.015
-370.785	357.623	0.132	0.262
-369.771	338.776	0.038	-0.074
-368.756	-7.727	0.082	-0.055
-367.742	-159.169	-0.098	-0.005
-366.727	-18.899	0.199	0.123
-365.712	246.807	-0.055	0.092
-364.698	14.078	0.101	0.078
-363.683	-200.000	0.020	0.154
-362.669	-200.000	0.010	0.382
-361.654	619.259	-0.059	-0.146
-360.639	455.702	0.119	0.263
-359.625	-106.114	0.395	0.088
-358.610	-93.108	0.157	-0.043
-357.596	-200.000	0.021	0.544
-356.581	298.728	-0.132	-0.241
-355.566	-110.698	0.341	0.070
-354.552	800.000	-0.168	-0.527
-353.537	800.000	-0.050	-0.141
-352.523	-200.000	0.032	-0.467
-351.508	-200.000	-0.277	0.000
-350.493	-80.410	0.065	-0.022
-349.479	-58.147	-0.061	0.026
-348.464	-16.855	0.060	-0.038
-347.450	73.729	0.129	0.134
-346.435	-143.522	0.018	0.002
-345.420	237.277	0.023	-0.038
-344.406	800.000	-0.054	-0.161
-343.391	-200.000	-0.031	0.292
-342.377	-137.590	-0.350	0.039
-341.362	-200.000	0.028	-0.190
-340.348	264.995	0.055	0.095
-339.333	654.752	-0.081	0.205
-338.318	-200.000	0.038	0.216
-337.304	-119.756	0.398	-0.068
-336.289	-157.727	0.265	0.016
-335.275	494.492	0.062	-0.142
-334.260	-173.950	-0.245	-0.007
-333.245	-180.057	0.084	0.002
-332.231	74.249	0.169	-0.176
-331.216	250.277	-0.077	-0.131
-330.202	-200.000	-0.011	-0.137
-329.187	20.306	0.165	-0.132
-328.172	-200.000	-0.015	0.123
-327.158	-41.816	0.286	-0.146
-326.143	-200.000	0.028	-0.217
-325.129	-200.000	-0.011	0.264
-324.114	800.000	-0.091	0.332
-323.099	-144.881	0.320	0.029
-322.085	-200.000	-0.002	-0.082
-321.070	58.762	0.065	0.064
-320.056	104.327	-0.088	0.102
-319.041	-200.000	0.001	0.024
-318.026	233.430	0.086	0.141
-317.012	-107.732	0.371	0.080
-315.997	800.000	0.027	-0.098
-314.983	-200.000	-0.009	-0.268
-313.968	800.000	-0.092	0.304
-312.953	-37.268	0.249	0.132
-311.939	-151.975	-0.179	0.013
-310.924	-66.248	0.445	-0.176
-309.910	-35.495	-0.134	-0.072
-308.895	65.928	-0.039	-0.039
-307.880	-200.000	-0.018	-0.352
-306.866	800.000	0.073	0.276
-305.851	-200.000	-0.034	-0.150
-304.837	-64.155	0.153	0.062
-303.822	156.447	0.166	-0.227
-302.807	193.800	0.031	0.047
-301.793	-92.218	-0.117	0.033
-300.778	143.703	-0.177	-0.233
-299.764	-200.000	-0.017	-0.196
-298.749	-55.595	0.182	0.081
-297.735	-200.000	0.012	-0.080
-296.720	-200.000	0.012	-0.128
-295.705	-121.606	-0.246	-0.041
-294.691	378.002	0.102	0.208
-293.676	90.287	-0.097	-0.107
-292.662	-132.386	0.185	0.024
-291.647	192.643	-0.107	-0.161
-290.632	-60.155	0.242	-0.102
-289.618	29.805	-0.233	-0.196
-288.603	-200.000	0.037	-0.325
-287.589	138.534	-0.110	-0.143
-286.574	-6.140	-0.183	0.124
-285.559	-188.425	-0.231	-0.003
-284.545	-200.000	0.015	0.278
-283.530	-158.789	-0.241	-0.014
-282.516	463.659	-0.136	-0.301
-281.501	64.154	0.150	0.150
-280.486	415.829	0.152	0.321
-279.472	524.496	-0.138	0.323
-278.457	-115.010	0.390	-0.073
-277.443	-109.999	-0.402	0.083
-276.428	25.593	0.147	-0.121
-275.413	236.040	0.184	0.301
-274.399	-141.443	-0.226	-0.023
-273.384	-200.000	0.007	0.220
-272.370	123.692	0.145	-0.180
-271.355	-51.332	-0.164	-0.076
-270.340	-200.000	-0.024	0.179
-269.326	721.954	-0.054	-0.142
-268.311	-17.761	-0.048	0.030
-267.297	-163.517	-0.116	0.005
-266.282	44.284	-0.095	-0.087
-265.267	214.580	0.138	0.216
-264.253	439.419	-0.092	0.198
-263.238	-55.482	0.173	0.077
-262.224	-121.407	0.278	-0.046
-261.209	-163.029	0.154	0.007
-260.195	146.562	0.175	-0.233
-259.180	-8.101	0.296	0.198
-258.165	-168.142	0.115	0.004
-257.151	-200.000	-0.004	-0.219
-256.136	-115.356	-0.193	0.036
-255.122	-96.053	-0.159	-0.042
-254.107	-159.202	-0.311	-0.017
-253.092	-164.900	0.153	0.007
-252.078	0.425	-0.081	0.058
-251.063	183.580	-0.083	-0.122
-250.049	232.983	-0.120	-0.196
-249.034	800.000	0.131	-0.372
-248.019	-11.844	0.325	0.211
-247.005	-57.832	0.190	-0.082
-245.990	-81.769	-0.132	0.043
-244.976	800.000	-0.045	0.140
-243.961	338.191	0.109	0.211
-242.946	-100.440	-0.043	-0.011
-241.932	-132.717	-0.414	-0.052
-240.917	323.787	-0.137	-0.259
-239.903	-200.000	-0.018	-0.213
-238.888	-57.844	0.124	0.054
-237.873	-46.574	0.159	-0.077
-236.859	-120.246	0.219	-0.037
-235.844	-74.806	0.128	0.046
-234.830	-200.000	-0.009	-0.215
-233.815	450.502	0.061	-0.133
-232.800	407.649	0.020	-0.042
-231.786	657.287	-0.026	-0.066
-230.771	-200.000	-0.008	0.051
-229.757	34.525	-0.079	0.068
-228.742	-91.178	-0.126	0.036
-227.727	-122.864	-0.227	0.036
-226.713	203.272	0.061	0.093
-225.698	800.000	0.079	-0.228
-224.684	-54.352	-0.042	-0.019
-223.669	151.336	-0.204	-0.275
-222.655	800.000	0.056	0.208
-221.640	-126.705	-0.257	0.038
-220.625	391.210	0.051	-0.105
-219.611	-81.078	-0.062	0.020
-218.596	800.000	-0.101	-0.298
-217.582	-200.000	0.003	-0.161
-216.567	-100.412	0.213	-0.052
-215.552	800.000	-0.068	-0.188
-214.538	-73.269	-0.228	-0.083
-213.523	-30.948	0.083	-0.046
-212.509	-136.059	0.117	-0.014
-211.494	75.346	-0.126	-0.132
-210.479	-200.000	-0.037	0.286
-209.465	481.480	0.119	0.268
-208.450	33.346	0.057	-0.049
-207.436	800.000	-0.067	-0.217
-206.421	-118.359	-0.066	0.012
-205.406	142.497	0.198	-0.260
-204.392	-55.777	0.271	0.120
-203.377	195.371	-0.154	0.231
-202.363	55.515	-0.304	0.291
-201.348	-173.850	-0.168	-0.005
-200.333	31.762	-0.178	-0.152
-199.319	-89.396	-0.188	-0.055
-198.304	287.637	-0.056	0.100
-197.290	-115.516	0.308	0.057
-196.275	-49.717	0.205	-0.096
-195.260	566.728	0.150	-0.361
-194.246	505.051	-0.035	0.081
-193.231	-45.902	-0.396	-0.193
-192.217	-82.086	0.059	0.019
-191.202	-200.000	-0.001	0.151
-190.187	76.312	-0.133	0.139
-189.173	479.246	0.120	0.268
-188.158	48.467	-0.065	-0.060
-187.144	22.942	-0.063	0.051
-186.129	800.000	0.095	-0.314
-185.114	189.770	-0.126	0.187
-184.100	800.000	0.041	0.172
-183.085	-157.495	-0.160	0.009
-182.071	-20.962	0.126	-0.076
-181.056	163.378	0.074	-0.103
-180.042	102.593	-0.228	0.263
-179.027	-200.000	-0.049	0.221
-178.012	-159.310	0.146	-0.008
-176.998	-200.000	-0.007	-0.226
-175.983	-60.067	-0.323	-0.136
-174.969	-115.054	0.384	-0.072
-173.954	211.418	0.244	0.379
-172.939	122.707	-0.182	-0.224
-171.925	800.000	0.050	0.160
-170.910	131.985	0.150	-0.190
-169.896	-200.000	0.036	-0.525
-168.881	-54.256	0.268	-0.120
-167.866	-186.175	-0.107	-0.002
-166.852	143.595	-0.111	0.146
-165.837	21.359	-0.126	-0.101
-164.823	11.422	0.059	0.044
-163.808	-200.000	0.007	-0.059
-162.793	167.836	0.086	-0.120
-161.779	149.336	-0.323	-0.431
-160.764	-76.261	0.289	-0.101
-159.750	-200.000	-0.015	-0.134
-158.735	-103.481	0.139	0.032
-157.720	-127.051	-0.006	0.001
-156.706	264.134	-0.080	0.137
-155.691	185.290	0.139	0.204
-154.677	222.346	0.187	0.297
-153.662	111.717	0.115	-0.136
-152.647	151.671	-0.045	-0.060
-151.633	137.400	0.139	0.179
-150.618	653.338	0.087	-0.221
-149.604	89.174	0.014	-0.015
-148.589	-94.042	0.209	-0.057
-147.574	101.035	0.276	-0.317
-146.560	-30.704	0.110	0.061
-145.545	-86.334	0.281	0.085
-144.531	415.206	-0.031	-0.066
-143.516	520.716	0.157	-0.362
-142.502	0.367	0.124	-0.087
-141.487	-200.000	-0.045	-0.230
-140.472	695.938	-0.130	0.336
-139.458	5.512	0.098	0.072
-138.443	21.958	0.301	-0.242
-137.429	-94.564	-0.199	-0.053
-136.414	-81.888	-0.227	-0.073
-135.399	-78.192	-0.312	0.106
-134.385	-200.000	-0.044	0.338
-133.370	-75.460	0.322	0.113
-132.356	-179.814	-0.301	-0.006
-131.341	-50.926	0.029	-0.013
-130.326	153.864	0.064	-0.086
-129.312	-200.000	-0.043	-0.210
-128.297	-200.000	0.042	-0.202
-127.283	349.155	-0.248	-0.483
-126.268	80.654	-0.013	0.014
-125.253	-111.223	0.120	0.024
-124.239	11.391	0.179	-0.135
-123.224	205.670	-0.041	-0.063
-122.210	292.224	0.105	-0.188
-121.195	206.575	-0.102	-0.157
-120.180	-113.609	0.095	0.018
-119.166	430.723	-0.074	0.158
-118.151	0.786	0.033	0.023
-117.137	29.803	0.257	0.216
-116.122	169.375	-0.056	0.078
-115.107	-139.183	0.013	-0.001
-114.093	-73.717	-0.079	0.028
-113.078	800.000	-0.014	-0.042
-112.064	196.864	-0.202	-0.304
-111.049	52.472	-0.210	-0.197
-110.034	39.205	0.078	0.069
-109.020	-200.000	-0.043	0.207
-108.005	-36.992	-0.291	-0.153
-106.991	159.522	0.260	-0.356
-105.976	800.000	0.117	-0.393
-104.962	-94.716	-0.363	0.097
-103.947	267.051	-0.046	0.079
-102.932	-21.239	0.187	-0.113
-101.918	395.150	-0.085	-0.174
-100.903	-22.291	0.335	-0.200
-99.889	-84.501	-0.312	-0.097
-98.874	-39.504	0.215	-0.111
-97.859	184.453	-0.112	0.164
-96.845	43.905	-0.230	-0.208
-95.830	800.000	0.060	-0.212
-94.816	800.000	0.057	0.175
-93.801	-200.000	-0.046	-0.215
-92.786	-200.000	0.013	-0.207
-91.772	-167.187	0.260	-0.010
-90.757	-94.206	0.168	0.045
-89.743	-9.253	-0.137	0.090
-88.728	-120.844	-0.087	-0.014
-87.713	800.000	-0.078	-0.236
-86.699	-137.731	0.281	0.031
-85.684	52.549	-0.067	-0.063
-84.670	39.597	0.156	0.138
-83.655	40.584	-0.049	-0.043
-82.640	216.289	-0.169	-0.264
-81.626	108.124	-0.149	0.174
-80.611	-38.038	0.029	-0.015
-79.597	231.808	0.191	-0.309
-78.582	310.098	-0.172	0.316
-77.567	-170.819	0.202	-0.007
-76.553	-200.000	0.023	-0.329
-75.538	-60.376	0.209	0.087
-74.524	10.048	-0.349	-0.261
-73.509	90.545	-0.109	0.120
-72.494	18.172	0.059	0.046
-71.480	-43.863	0.378	-0.187
-70.465	33.227	-0.236	-0.201
-69.451	90.872	0.145	0.160
-68.436	222.787	-0.114	-0.180
-67.422	-108.467	0.068	-0.014
-66.407	707.214	-0.046	0.120
-65.392	503.714	-0.126	0.287
-64.378	-80.105	-0.142	-0.047
-63.363	114.231	0.126	0.150
-62.349	89.664	-0.023	-0.026
-61.334	61.749	-1.055	-1.033
-60.319	-6.066	0.420	0.282
-59.305	286.884	-0.517	-0.918
-58.290	736.061	0.470	1.237
-57.276	622.500	0.587	1.453
-56.261	-200.000	115.884	644.574
-55.246	495.431	1537.218	3470.584
-54.232	172.641	2716.506	3842.660
-53.217	95.325	2324.786	2603.462
-52.203	32.975	2069.196	1761.300
-51.188	28.374	1984.212	1647.631
-50.173	26.934	1967.759	1621.054
-49.159	43.814	2028.431	1824.788
-48.144	42.768	2043.271	1828.567
-47.130	28.753	2001.454	1665.117
-46.115	26.551	1991.152	1636.601
-45.100	26.396	1988.834	1633.231
-44.086	26.410	1985.964	1630.938
-43.071	26.395	1982.964	1628.271
-42.057	26.338	1981.077	1626.142
-41.042	26.377	1979.401	1625.056
-40.027	26.388	1977.361	1623.417
-39.013	26.360	1975.852	1621.855
-37.998	26.389	1973.629	1620.232
-36.984	26.407	1972.207	1619.159
-35.969	26.353	1970.208	1616.970
-34.954	26.423	1968.426	1616.074
-33.940	26.432	1966.928	1614.852
-32.925	26.487	1965.440	1614.061
-31.911	26.459	1964.075	1612.630
-30.896	26.497	1962.015	1611.208
-29.881	26.558	1960.384	1610.348
-28.867	26.596	1958.806	1609.324
-27.852	26.541	1957.199	1607.451
-26.838	26.454	1955.791	1605.459
-25.823	26.570	1953.222	1604.315
-24.809	26.497	1951.491	1602.188
-23.794	26.531	1949.513	1600.801
-22.779	26.473	1948.001	1598.981
-21.765	26.485	1946.819	1598.052
-20.750	26.575	1944.542	1596.918
-19.736	26.504	1943.548	1595.409
-18.721	26.510	1941.844	1593.998
-17.706	26.590	1940.113	1593.218
-16.692	26.417	1938.602	1590.399
-15.677	26.503	1937.252	1589.983
-14.663	26.547	1935.322	1588.720
-13.648	26.418	1934.634	1586.954
-12.633	26.427	1933.664	1586.179
-11.619	26.469	1932.106	1585.207
-10.604	26.444	1930.974	1583.995
-9.590	26.439	1929.291	1582.512
-8.575	26.436	1927.713	1581.121
-7.560	26.520	1926.413	1580.730
-6.546	26.435	1925.542	1579.214
-5.531	26.423	1924.109	1577.870
-4.517	26.513	1922.527	1577.293
-3.502	26.484	1921.775	1576.363
-2.487	26.551	1919.883	1575.328
-1.473	26.547	1919.414	1574.847
-0.458	26.531	1914.514	1570.628
0.556	27.179	1894.941	1542.464
1.571	23.008	1876.343	1492.063
2.586	19.102	1900.213	1477.453
3.600	18.142	1934.917	1495.903
4.615	17.674	1927.532	1485.980
5.629	13.407	1826.565	1372.696
6.644	6.429	1713.923	1233.450
7.659	3.381	1682.005	1186.928
8.673	3.116	1679.207	1182.812
9.688	3.168	1677.221	1181.706
10.702	3.204	1675.848	1180.908
11.717	3.202	1672.506	1178.432
12.731	3.541	1671.539	1180.245
13.746	8.303	1682.949	1224.799
14.761	15.946	1699.747	1295.935
15.775	20.056	1706.405	1332.573
16.790	20.310	1705.830	1333.961
17.804	19.395	1702.920	1324.541
18.819	18.413	1699.717	1314.403
19.834	17.777	1697.120	1307.406
20.848	17.593	1695.969	1304.990
21.863	17.474	1694.708	1302.998
22.877	17.285	1693.153	1300.238
23.892	17.053	1691.810	1297.325
24.907	16.990	1690.628	1295.820
25.921	17.021	1689.246	1294.880
26.936	16.979	1688.141	1293.597
27.950	17.067	1687.527	1293.687
28.965	17.015	1687.368	1293.052
29.980	17.107	1686.341	1292.856
30.994	17.143	1685.754	1292.565
32.009	17.300	1683.907	1292.223
33.023	17.296	1683.156	1291.503
34.038	17.329	1682.874	1291.421
35.053	17.339	1681.127	1290.043
36.067	17.269	1679.672	1288.283
37.082	17.159	1678.797	1286.668
38.096	17.088	1678.200	1285.557
39.111	17.253	1677.088	1285.840
40.126	17.239	1676.486	1285.160
41.140	17.308	1675.491	1284.805
42.155	17.065	1673.848	1281.595
43.169	16.826	1672.187	1278.404
44.184	16.818	1671.195	1277.471
45.199	16.800	1669.990	1276.308
46.213	16.822	1668.442	1275.171
47.228	16.834	1667.563	1274.478
48.242	16.995	1666.201	1274.534
49.257	17.053	1666.006	1274.713
50.271	17.112	1664.269	1273.709
51.286	17.099	1663.132	1272.629
52.301	17.135	1661.507	1271.546
53.315	17.175	1660.083	1270.643
54.330	17.018	1658.972	1268.503
55.344	16.873	1657.620	1266.273
56.359	16.915	1655.218	1264.643
57.374	16.960	1654.511	1264.329
58.388	16.857	1653.624	1262.764
59.403	16.874	1651.799	1261.391
60.417	16.705	1650.549	1259.066
61.432	16.757	1649.927	1258.865
62.447	16.763	1648.593	1257.782
63.461	16.646	1646.972	1255.565
64.476	16.715	1645.782	1255.057
65.490	16.588	1645.346	1253.675
66.505	16.581	1643.697	1252.258
67.520	16.637	1642.577	1251.707
68.534	16.583	1642.023	1250.774
69.549	16.693	1640.118	1250.023
70.563	16.735	1639.202	1249.525
71.578	16.706	1637.700	1248.060
72.593	16.528	1637.009	1246.111
73.607	16.497	1635.951	1244.962
74.622	16.537	1634.360	1243.935
75.636	16.464	1633.908	1242.949
76.651	16.456	1633.192	1242.235
77.666	16.555	1632.235	1242.121
78.680	16.531	1632.088	1241.725
79.695	16.584	1630.627	1240.890
80.709	16.691	1629.489	1240.699
81.724	16.737	1628.675	1240.306
82.739	16.821	1627.944	1240.258
83.753	16.822	1627.710	1239.973
84.768	16.957	1626.416	1239.868
85.782	17.028	1626.090	1240.028
86.797	17.208	1625.357	1240.674
87.812	17.208	1624.502	1239.908
88.826	17.099	1623.051	1237.902
89.841	17.035	1621.875	1236.429
90.855	17.156	1620.356	1236.038
91.870	17.165	1619.846	1235.606
92.884	17.187	1618.893	1234.929
93.899	17.287	1617.731	1234.663
94.914	17.314	1616.108	1233.511
95.928	17.235	1615.757	1232.560
96.943	17.310	1613.941	1231.609
97.957	17.277	1612.517	1230.172
98.972	17.156	1611.495	1228.407
99.987	17.232	1609.295	1227.171
101.001	17.173	1607.874	1225.552
102.016	17.148	1606.509	1224.222
103.030	17.145	1605.169	1223.072
104.045	17.143	1604.524	1222.460
105.060	17.147	1602.931	1221.164
106.074	17.113	1601.135	1219.444
107.089	16.934	1599.675	1216.942
108.103	16.830	1597.552	1214.472
109.118	16.771	1596.046	1212.798
110.133	16.646	1594.967	1210.981
111.147	16.600	1593.807	1209.664
112.162	16.640	1592.334	1208.724
113.176	16.655	1591.159	1207.828
114.191	16.771	1589.361	1207.187
115.206	16.783	1588.345	1206.394
116.220	16.845	1587.143	1205.816
117.235	16.799	1585.745	1204.321
118.249	16.766	1584.287	1202.872
119.264	16.767	1582.599	1201.492
120.279	16.616	1581.974	1199.834
121.293	16.682	1579.884	1198.611
122.308	16.583	1578.271	1196.585
123.322	16.634	1576.621	1195.589
124.337	16.562	1575.085	1193.809
125.352	16.598	1573.902	1193.058
126.366	16.571	1572.769	1191.907
127.381	16.554	1571.941	1191.056
128.395	16.499	1570.914	1189.785
129.410	16.476	1569.525	1188.464
130.424	16.509	1568.302	1187.666
131.439	16.681	1566.973	1187.760
132.454	16.696	1565.609	1186.724
133.468	16.809	1564.110	1186.272
134.483	16.799	1563.011	1185.266
135.497	16.797	1561.328	1183.873
136.512	16.853	1560.266	1183.355
137.527	16.813	1558.803	1181.858
138.541	16.855	1557.454	1181.027
139.556	16.858	1556.311	1180.073
140.570	16.941	1555.457	1179.899
141.585	17.080	1554.068	1179.710
142.600	16.904	1553.147	1177.683
143.614	17.134	1551.716	1178.092
144.629	17.232	1550.651	1177.855
145.643	17.206	1549.096	1176.393
146.658	17.309	1547.671	1175.914
147.673	17.237	1546.157	1174.165
148.687	17.041	1544.662	1171.570
149.702	17.025	1542.763	1169.917
150.716	16.916	1541.470	1168.086
151.731	16.986	1539.823	1167.213
152.746	16.847	1538.652	1165.268
153.760	16.973	1537.093	1164.847
154.775	16.956	1536.195	1163.951
155.789	17.045	1534.923	1163.493
156.804	17.081	1533.996	1162.933
157.819	17.228	1532.746	1162.889
158.833	17.164	1531.715	1161.567
159.848	17.185	1530.564	1160.733
160.862	17.299	1529.317	1160.462
161.877	17.386	1527.820	1159.815
162.892	17.253	1526.795	1158.033
163.906	17.033	1525.044	1155.101
164.921	16.956	1523.886	1153.597
165.935	16.925	1522.766	1152.437
166.950	16.945	1521.769	1151.717
167.964	17.075	1520.641	1151.642
168.979	17.091	1519.465	1150.764
169.994	17.045	1518.394	1149.534
171.008	17.065	1517.223	1148.684
172.023	17.118	1516.673	1148.523
173.037	17.096	1515.580	1147.450
174.052	17.307	1514.349	1147.837
175.067	17.359	1513.721	1147.612
176.081	17.268	1511.908	1145.525
177.096	17.083	1510.228	1142.904
178.110	16.983	1509.264	1141.399
179.125	17.002	1508.361	1140.744
180.140	17.181	1506.978	1140.798
181.154	17.172	1505.979	1139.878
182.169	17.198	1505.501	1139.594
183.183	17.244	1503.787	1138.502
184.198	17.440	1502.883	1139.027
185.213	17.452	1501.993	1138.334
186.227	17.462	1500.586	1137.236
187.242	17.418	1500.395	1136.694
188.256	17.489	1499.033	1136.034
189.271	17.399	1498.928	1135.256
190.286	17.588	1497.033	1134.979
191.300	17.442	1496.156	1133.241
192.315	17.205	1494.850	1130.573
193.329	16.955	1492.659	1127.154
194.344	17.052	1491.465	1126.799
195.359	17.061	1490.833	1126.285
196.373	17.123	1489.643	1125.696
197.388	17.272	1488.930	1126.045
198.402	17.398	1487.945	1126.035
199.417	17.513	1486.804	1125.830
200.432	17.614	1486.384	1126.080
201.446	17.759	1485.346	1126.151
202.461	17.787	1484.208	1125.371
203.475	17.791	1483.771	1124.969
204.490	17.937	1482.287	1124.706
205.504	17.894	1481.275	1123.552
206.519	17.670	1479.730	1120.814
207.534	17.625	1478.786	1119.703
208.548	17.514	1477.662	1118.024
209.563	17.465	1477.005	1117.104
210.577	17.489	1475.885	1116.318
211.592	17.624	1474.543	1116.088
212.607	17.669	1474.017	1115.881
213.621	17.785	1473.870	1116.435
214.636	17.802	1473.156	1115.903
215.650	17.803	1471.682	1114.694
216.665	17.781	1470.608	1113.641
217.680	17.735	1470.291	1112.999
218.694	17.859	1469.396	1113.033
219.709	17.972	1468.409	1112.927
220.723	17.946	1467.620	1112.058
221.738	17.869	1466.734	1110.789
222.753	17.979	1465.465	1110.447
223.767	17.816	1464.697	1108.708
224.782	17.877	1463.834	1108.349
225.796	17.930	1462.631	1107.685
226.811	18.087	1461.949	1108.090
227.826	18.174	1460.754	1107.651
228.840	17.997	1460.296	1106.053
229.855	17.878	1459.630	1104.687
230.869	17.780	1458.303	1102.947
231.884	17.941	1457.016	1102.915
232.899	17.814	1455.998	1101.228
233.913	17.845	1454.766	1100.401
234.928	17.830	1453.686	1099.390
235.942	17.667	1452.358	1097.238
236.957	17.767	1450.628	1096.477
237.972	17.688	1449.839	1095.278
238.986	17.797	1448.764	1095.065
240.001	17.726	1448.193	1094.083
241.015	17.745	1446.695	1092.979
242.030	17.776	1445.684	1092.314
243.045	17.849	1444.671	1091.920
244.059	17.919	1444.129	1091.864
245.074	17.964	1443.042	1091.232
246.088	17.889	1442.401	1090.168
247.103	17.964	1441.673	1090.004
248.117	18.137	1440.459	1090.088
249.132	18.135	1440.185	1089.771
250.147	18.188	1439.953	1089.837
251.161	18.473	1439.386	1091.130
252.176	18.544	1438.607	1090.896
253.190	18.578	1438.204	1090.705
254.205	18.651	1437.242	1090.343
255.220	18.668	1436.039	1089.444
256.234	18.695	1435.655	1089.230
257.249	18.754	1435.003	1089.009
258.263	18.656	1433.842	1087.413
259.278	18.846	1432.309	1087.359
260.293	18.629	1431.705	1085.431
261.307	18.698	1431.261	1085.432
262.322	18.804	1430.630	1085.527
263.336	18.820	1429.953	1085.021
264.351	18.863	1428.192	1083.858
265.366	18.791	1427.878	1083.068
266.380	18.928	1426.681	1082.928
267.395	18.927	1425.526	1081.950
268.409	18.899	1425.140	1081.386
269.424	18.721	1424.072	1079.358
270.439	18.705	1422.903	1078.276
271.453	18.713	1422.091	1077.615
272.468	18.691	1421.147	1076.670
273.482	18.710	1419.666	1075.571
274.497	18.551	1419.402	1074.281
275.512	18.724	1417.698	1073.974
276.526	18.630	1417.514	1073.155
277.541	18.681	1416.099	1072.307
278.555	18.663	1415.713	1071.808
279.570	18.776	1414.028	1071.142
280.585	18.757	1413.660	1070.649
281.599	18.851	1413.298	1070.868
282.614	18.961	1412.124	1070.565
283.628	18.909	1410.899	1069.218
284.643	18.750	1409.642	1067.182
285.657	18.725	1408.654	1066.186
286.672	18.782	1408.053	1065.991
287.687	18.795	1406.626	1064.899
288.701	18.757	1405.707	1063.873
289.716	18.844	1405.553	1064.198
290.730	18.902	1404.206	1063.444
291.745	18.863	1403.233	1062.376
292.760	18.839	1402.085	1061.263
293.774	18.865	1401.203	1060.661
294.789	18.871	1400.604	1060.154
295.803	19.014	1399.887	1060.394
296.818	19.154	1398.767	1060.319
297.833	19.042	1397.506	1058.579
298.847	18.907	1396.591	1056.961
299.862	18.945	1395.479	1056.256
300.876	19.005	1394.411	1055.723
301.891	18.996	1393.548	1054.922
302.906	18.898	1393.361	1054.085
303.920	19.058	1392.609	1054.409
304.935	19.179	1392.138	1054.696
305.949	19.234	1391.670	1054.584
306.964	19.361	1390.324	1054.250
307.979	19.526	1389.358	1054.430
308.993	19.347	1388.430	1052.539
310.008	19.234	1387.516	1051.068
311.022	19.219	1386.705	1050.267
312.037	19.312	1385.590	1049.896
313.052	19.414	1384.644	1049.706
314.066	19.207	1383.648	1047.602
315.081	19.248	1382.172	1046.641
316.095	19.188	1380.547	1044.954
317.110	19.028	1379.522	1043.111
318.125	19.090	1378.850	1042.887
319.139	19.111	1378.076	1042.338
320.154	19.117	1377.519	1041.862
321.168	19.075	1376.064	1040.417
322.183	19.031	1375.344	1039.511
323.197	19.056	1374.562	1038.977
324.212	19.093	1373.743	1038.490
325.227	19.097	1373.126	1037.960
326.241	19.191	1371.512	1037.211
327.256	19.214	1370.949	1036.835
328.270	19.232	1370.442	1036.466
329.285	19.234	1369.181	1035.433
330.300	19.105	1368.419	1033.992
331.314	19.173	1367.330	1033.485
332.329	19.162	1366.454	1032.662
333.343	19.203	1365.451	1032.061
334.358	19.189	1364.905	1031.471
335.373	19.293	1364.031	1031.344
336.387	19.326	1363.488	1031.039
337.402	19.381	1362.841	1030.787
338.416	19.461	1361.512	1030.169
339.431	19.462	1361.201	1029.849
340.446	19.543	1360.719	1029.878
341.460	19.643	1359.605	1029.539
342.475	19.628	1358.862	1028.796
343.489	19.803	1357.748	1028.901
344.504	19.692	1357.090	1027.650
345.519	19.836	1355.949	1027.554
346.533	19.916	1355.194	1027.363
347.548	19.810	1354.968	1026.474
348.562	19.969	1353.929	1026.537
349.577	19.978	1352.893	1025.712
350.592	19.860	1352.325	1024.494
351.606	19.748	1350.635	1022.462
352.621	19.722	1349.174	1021.108
353.635	19.530	1348.753	1019.569
354.650	19.533	1347.459	1018.517
355.665	19.584	1346.361	1017.895
356.679	19.544	1345.446	1016.879
357.694	19.699	1344.569	1017.039
358.708	19.646	1343.604	1015.909
359.723	19.694	1342.687	1015.408
360.738	19.755	1341.730	1014.951
361.752	19.900	1340.202	1014.558
362.767	19.710	1339.294	1012.667
363.781	19.786	1338.897	1012.723
364.796	19.852	1337.760	1012.157
365.810	19.862	1336.969	1011.527
366.825	19.889	1336.963	1011.593
367.840	20.104	1335.967	1012.007
368.854	20.085	1335.341	1011.329
369.869	20.264	1334.732	1011.822
370.883	20.207	1334.006	1010.852
371.898	20.286	1333.207	1010.615
372.913	20.203	1331.818	1008.993
373.927	20.003	1331.426	1007.439
374.942	20.042	1330.567	1006.927
375.956	20.044	1330.445	1006.762
376.971	20.192	1329.310	1006.670
377.986	20.131	1328.488	1005.604
379.000	20.176	1327.457	1004.997
380.015	20.298	1326.736	1005.065
381.029	20.355	1325.706	1004.530
382.044	20.420	1325.729	1004.836
383.059	20.460	1324.711	1004.207
384.073	20.355	1324.031	1002.992
385.088	20.453	1323.410	1002.998
386.102	20.480	1322.448	1002.338
387.117	20.380	1321.888	1001.246
388.132	20.376	1321.202	1000.614
389.146	20.279	1319.780	998.890
390.161	20.151	1319.015	997.490
391.175	20.189	1317.755	996.664
392.190	20.232	1317.270	996.457
393.205	20.274	1316.873	996.311
394.219	20.355	1315.904	995.956
395.234	20.420	1314.457	995.144
396.248	20.360	1313.385	993.898
397.263	20.258	1312.299	992.408
398.278	20.331	1310.549	991.414
399.292	20.247	1309.148	989.788
400.307	20.186	1308.062	988.529
401.321	20.120	1307.317	987.505
402.336	20.124	1306.005	986.448
403.350	20.109	1305.364	985.793
404.365	20.230	1303.858	985.252
405.380	20.300	1303.229	985.091
406.394	20.384	1302.348	984.815
407.409	20.339	1301.951	984.172
408.423	20.393	1301.269	983.871
409.438	20.466	1300.901	983.923
410.453	20.592	1300.054	983.904
411.467	20.622	1299.624	983.665
412.482	20.708	1298.628	983.307
413.496	20.736	1298.313	983.141
414.511	20.854	1297.216	982.889
415.526	20.813	1297.126	982.501
416.540	20.832	1296.426	981.995
417.555	20.870	1295.407	981.349
418.569	20.912	1294.806	981.043
419.584	20.950	1294.285	980.774
420.599	20.892	1293.370	979.667
421.613	145.847	1434.764	1797.502
422.628	140.913	1455.335	1797.561
