DTS Sentinel unit serial number:	SN413079Multiplexer serial number:	ORYXHardware model number:	OX4-SRSoftware version number:	ORYX F/W v4.00 Oryx Data Collector v3.7.2.0data status	okinstallation	princeton_trtdifferential loss correction	single-endedforward channel	channel 4reverse channel	N/Adate	2019/09/16time	16:37:35forward acquisition time	60.00reverse acquisition time	0.00gamma	496.2192k internal	0.2293k external	0.2293temperature offset calibration	0.9939default loss term (dB/km)	0.3790temperature slope calibration	1.0000multiplexer offset coefficient	1.0000multiplexer slope coefficient	1.0000fibre end	0.00T internal ref (°C)	39.94T ext. ref 1 (°C)	15.13T ext. ref 2 (°C)	33.78length (m)	temperature (°C)	Stokes	anti-Stokes-747.200	800.000	-0.056	-0.216
-746.185	-150.383	-0.061	0.005
-745.171	-92.907	0.077	0.022
-744.156	210.349	-0.087	-0.140
-743.142	-126.109	-0.244	-0.037
-742.127	-3.629	0.210	0.149
-741.112	226.946	-0.304	-0.505
-740.098	159.951	-0.107	-0.152
-739.083	131.266	0.057	0.075
-738.069	253.938	0.247	0.431
-737.054	-200.000	0.008	-0.036
-736.039	60.760	-0.248	-0.252
-735.025	-200.000	-0.017	0.129
-734.010	338.148	-0.203	0.403
-732.996	-200.000	0.012	-0.056
-731.981	406.957	0.077	0.167
-730.966	27.476	-0.201	0.173
-729.952	-200.000	-0.039	0.510
-728.937	150.396	0.051	-0.070
-727.923	800.000	-0.081	-0.331
-726.908	556.830	-0.096	0.237
-725.894	-200.000	-0.020	-0.125
-724.879	-102.662	-0.037	-0.009
-723.864	-138.132	-0.336	-0.038
-722.850	367.968	0.198	0.409
-721.835	-200.000	-0.085	-0.403
-720.821	-200.000	0.201	-0.000
-719.806	-200.000	-0.010	-0.088
-718.791	-87.576	-0.225	-0.070
-717.777	-194.508	-0.107	-0.001
-716.762	800.000	0.094	-0.360
-715.748	-70.502	-0.071	-0.028
-714.733	338.970	0.099	0.198
-713.718	-17.357	0.184	-0.118
-712.704	-134.867	-0.216	-0.027
-711.689	-39.796	0.064	0.034
-710.675	-20.403	0.077	0.048
-709.660	156.332	0.284	0.401
-708.645	-200.000	0.074	-0.334
-707.631	-119.379	0.070	0.012
-706.616	30.594	0.193	0.169
-705.602	-200.000	0.002	-0.432
-704.587	-170.292	-0.268	0.010
-703.572	216.642	0.183	0.297
-702.558	-200.000	0.036	0.305
-701.543	365.753	0.105	-0.216
-700.529	-20.171	-0.330	-0.208
-699.514	-42.817	0.206	-0.107
-698.499	-200.000	-0.015	0.254
-697.485	137.729	-0.226	0.303
-696.470	-174.287	-0.196	0.006
-695.456	31.566	0.207	-0.182
-694.441	-200.000	-0.015	0.147
-693.426	-200.000	-0.011	-0.087
-692.412	800.000	-0.024	-0.073
-691.397	-157.895	0.189	-0.011
-690.383	-200.000	-0.023	-0.112
-689.368	40.387	-0.395	-0.363
-688.354	224.037	-0.077	0.127
-687.339	800.000	-0.085	0.291
-686.324	261.350	-0.103	-0.182
-685.310	-56.010	0.293	-0.133
-684.295	-18.710	-0.091	-0.058
-683.281	-2.895	-0.224	-0.159
-682.266	-4.034	-0.224	-0.158
-681.251	90.860	0.110	-0.126
-680.237	-200.000	0.049	-0.294
-679.222	135.172	0.185	-0.245
-678.208	106.946	0.027	0.032
-677.193	-86.211	0.256	-0.080
-676.178	-12.137	-0.001	-0.001
-675.164	-200.000	0.029	0.211
-674.149	-200.000	0.012	-0.077
-673.135	-200.000	0.001	-0.149
-672.120	273.240	0.181	0.326
-671.105	-200.000	0.023	-0.120
-670.091	135.022	0.114	0.152
-669.076	579.833	0.019	0.047
-668.062	8.841	-0.057	0.043
-667.047	-200.000	0.060	0.356
-666.032	-20.322	-0.108	-0.068
-665.018	140.115	0.315	-0.423
-664.003	-21.283	-0.013	0.008
-662.989	-6.859	0.070	0.049
-661.974	90.887	0.059	0.067
-660.959	31.306	-0.131	-0.114
-659.945	424.409	0.057	0.126
-658.930	-125.588	-0.017	0.003
-657.916	800.000	-0.026	0.100
-656.901	-200.000	-0.222	-0.001
-655.886	-55.711	-0.170	0.078
-654.872	60.581	0.046	-0.046
-653.857	-69.462	-0.271	-0.106
-652.843	4.829	-0.098	0.073
-651.828	-200.000	0.028	0.181
-650.814	-59.996	-0.178	-0.077
-649.799	-61.769	-0.330	0.141
-648.784	-200.000	-0.001	-0.177
-647.770	-108.823	0.057	-0.012
-646.755	800.000	0.051	0.216
-645.741	213.919	-0.093	0.149
-644.726	745.680	-0.052	0.143
-643.711	-48.742	0.126	-0.062
-642.697	27.733	0.030	0.026
-641.682	354.439	0.170	0.344
-640.668	-19.491	0.185	-0.117
-639.653	-150.926	0.044	-0.003
-638.638	-200.000	-0.050	0.338
-637.624	-59.358	0.249	-0.109
-636.609	-200.000	-0.009	-0.299
-635.595	-200.000	0.008	0.208
-634.580	-32.637	-0.250	-0.142
-633.565	-200.000	0.001	0.121
-632.551	-200.000	0.045	-0.290
-631.536	46.461	-0.272	-0.257
-630.522	669.206	-0.001	0.003
-629.507	800.000	0.025	-0.108
-628.492	492.401	0.080	-0.186
-627.478	173.860	0.127	-0.187
-626.463	-6.279	-0.255	0.177
-625.449	-102.338	-0.287	-0.070
-624.434	800.000	0.096	-0.325
-623.419	-109.675	0.177	0.038
-622.405	458.034	-0.030	-0.068
-621.390	-200.000	-0.018	-0.180
-620.376	800.000	-0.048	-0.190
-619.361	178.814	-0.036	0.053
-618.346	-10.318	-0.205	-0.138
-617.332	800.000	-0.015	-0.064
-616.317	-172.662	0.143	-0.005
-615.303	-200.000	0.015	0.097
-614.288	-200.000	0.044	-0.207
-613.273	168.875	0.249	-0.361
-612.259	-200.000	0.033	-0.300
-611.244	74.264	0.169	0.181
-610.230	101.681	-0.218	0.259
-609.215	254.980	0.043	0.076
-608.201	-111.340	0.102	-0.021
-607.186	25.759	-0.172	-0.146
-606.171	-21.478	-0.293	0.182
-605.157	-42.723	-0.114	0.059
-604.142	800.000	0.077	-0.325
-603.128	649.340	-0.093	-0.243
-602.113	462.695	-0.189	-0.430
-601.098	-200.000	0.013	-0.151
-600.084	-148.123	0.185	-0.016
-599.069	90.460	-0.104	-0.118
-598.055	-28.116	-0.071	0.042
-597.040	-200.000	0.001	-0.054
-596.025	53.902	0.198	-0.193
-595.011	-152.337	-0.125	-0.009
-593.996	800.000	0.036	-0.119
-592.982	-138.164	-0.318	-0.036
-591.967	465.692	-0.020	0.045
-590.952	-150.478	-0.264	-0.021
-589.938	115.351	0.217	-0.270
-588.923	-37.901	0.237	-0.128
-587.909	-127.377	0.146	-0.022
-586.894	-68.923	-0.135	0.053
-585.879	199.837	-0.049	-0.076
-584.865	-146.421	0.431	0.038
-583.850	800.000	-0.009	0.027
-582.836	-200.000	-0.034	-0.397
-581.821	49.854	-0.066	-0.063
-580.806	573.550	0.119	-0.295
-579.792	99.221	0.193	0.226
-578.777	-48.400	-0.137	-0.067
-577.763	12.882	-0.083	0.065
-576.748	-133.972	0.086	-0.011
-575.733	-112.304	0.093	-0.019
-574.719	84.886	0.216	0.241
-573.704	-69.912	0.059	0.023
-572.690	-18.440	0.186	0.118
-571.675	-119.313	-0.486	-0.086
-570.661	-200.000	0.030	-0.137
-569.646	40.949	-0.096	-0.088
-568.631	179.636	-0.112	0.166
-567.617	-72.685	0.067	-0.025
-566.602	335.821	0.068	-0.133
-565.588	-200.000	0.003	0.117
-564.573	-200.000	-0.034	-0.454
-563.558	-200.000	-0.094	-0.546
-562.544	420.415	-0.113	-0.245
-561.529	-31.170	-0.150	-0.086
-560.515	-65.408	-0.267	-0.109
-559.500	800.000	-0.072	-0.237
-558.485	629.229	-0.039	-0.101
-557.471	-75.755	-0.182	-0.066
-556.456	251.433	0.084	0.145
-555.442	-149.627	-0.281	-0.023
-554.427	-129.405	-0.222	0.031
-553.412	800.000	0.099	0.334
-552.398	-184.649	0.354	-0.006
-551.383	800.000	-0.063	-0.234
-550.369	-200.000	0.028	0.207
-549.354	2.092	-0.072	0.053
-548.339	149.085	0.058	-0.080
-547.325	64.356	0.197	-0.201
-546.310	-200.000	-0.063	-0.408
-545.296	16.256	-0.039	-0.031
-544.281	115.126	-0.204	-0.253
-543.266	-200.000	-0.050	0.297
-542.252	-113.872	0.297	0.059
-541.237	158.304	-0.202	0.284
-540.223	82.016	-0.141	-0.155
-539.208	29.629	0.166	-0.144
-538.193	-58.586	-0.083	-0.037
-537.179	-160.919	-0.111	0.006
-536.164	-81.010	0.175	-0.059
-535.150	-63.122	-0.222	-0.093
-534.135	-37.474	0.182	0.099
-533.121	-200.000	0.049	-0.223
-532.106	-34.407	0.154	-0.086
-531.091	104.932	-0.120	-0.144
-530.077	638.738	0.015	0.038
-529.062	-80.817	-0.226	0.076
-528.048	2.018	0.217	0.159
-527.033	800.000	-0.151	-0.462
-526.018	-19.414	-0.108	0.068
-525.004	-95.879	-0.190	0.051
-523.989	800.000	0.119	0.360
-522.975	196.433	-0.189	0.292
-521.960	124.149	0.037	0.047
-520.945	-89.528	0.364	-0.108
-519.931	-89.134	-0.257	0.077
-518.916	421.451	0.178	0.388
-517.902	69.462	-0.135	0.141
-516.887	-84.496	-0.281	-0.090
-515.872	-152.386	0.201	0.015
-514.858	241.323	-0.044	-0.075
-513.843	-67.279	0.192	0.077
-512.829	-61.604	-0.223	0.095
-511.814	61.219	-0.043	0.043
-510.799	645.117	0.024	0.062
-509.785	0.158	-0.025	-0.018
-508.770	41.479	-0.017	-0.016
-507.756	149.006	-0.017	-0.024
-506.741	156.607	-0.061	0.086
-505.726	-200.000	0.040	0.259
-504.712	-59.067	0.083	0.037
-503.697	-85.881	-0.218	0.068
-502.683	-54.935	-0.137	-0.063
-501.668	-83.601	0.042	0.014
-500.653	84.847	0.360	-0.400
-499.639	-142.064	0.210	0.021
-498.624	-56.312	0.220	0.099
-497.610	-51.089	0.303	-0.144
-496.595	-112.524	-0.054	-0.011
-495.581	-39.694	-0.094	0.050
-494.566	-119.253	-0.158	0.028
-493.551	142.436	-0.009	-0.012
-492.537	248.983	0.234	-0.402
-491.522	161.489	0.056	0.079
-490.508	184.352	-0.069	0.104
-489.493	-183.359	-0.495	-0.009
-488.478	367.715	0.124	0.253
-487.464	17.694	-0.189	0.152
-486.449	-129.262	-0.111	0.016
-485.435	594.498	-0.021	0.052
-484.420	-30.119	0.492	0.283
-483.405	-67.835	-0.151	-0.060
-482.391	96.904	-0.060	0.069
-481.376	209.290	-0.054	-0.086
-480.362	800.000	0.088	-0.376
-479.347	-172.623	-0.088	-0.003
-478.332	800.000	-0.030	-0.087
-477.318	-200.000	-0.018	0.170
-476.303	-20.195	0.224	0.140
-475.289	-89.391	0.316	-0.094
-474.274	-200.000	-0.004	0.192
-473.259	-89.975	-0.305	0.090
-472.245	800.000	0.078	0.328
-471.230	3.631	-0.154	0.113
-470.216	-200.000	0.020	0.107
-469.201	-200.000	0.025	-0.338
-468.186	-200.000	0.005	0.186
-467.172	90.776	-0.090	0.102
-466.157	104.291	-0.186	-0.222
-465.143	-91.951	0.263	0.076
-464.128	-200.000	0.037	-0.192
-463.113	800.000	0.101	0.308
-462.099	172.360	0.163	-0.238
-461.084	-200.000	0.017	-0.166
-460.070	311.642	0.059	0.111
-459.055	-26.095	-0.351	-0.209
-458.040	-12.800	0.144	-0.095
-457.026	234.534	0.157	0.261
-456.011	182.316	0.055	-0.082
-454.997	-81.306	-0.262	-0.087
-453.982	-170.671	-0.419	-0.015
-452.968	91.162	0.032	0.036
-451.953	261.383	0.136	0.238
-450.938	-54.705	0.170	0.078
-449.924	320.960	-0.133	-0.256
-448.909	81.805	0.182	-0.200
-447.895	-1.169	-0.172	-0.123
-446.880	74.339	0.114	0.121
-445.865	90.566	0.112	-0.127
-444.851	-75.359	0.069	0.025
-443.836	-200.000	0.013	0.130
-442.822	-200.000	0.009	-0.064
-441.807	241.340	-0.056	0.095
-440.792	-200.000	0.007	0.062
-439.778	107.942	-0.038	0.045
-438.763	134.103	-0.202	-0.265
-437.749	5.700	-0.175	0.131
-436.734	32.872	0.183	-0.160
-435.719	66.982	-0.107	-0.110
-434.705	352.966	0.166	-0.334
-433.690	800.000	0.025	-0.103
-432.676	77.032	-0.153	-0.164
-431.661	-104.538	0.016	0.004
-430.646	-167.110	-0.411	-0.017
-429.632	-38.881	-0.274	0.146
-428.617	9.428	0.169	0.129
-427.603	150.877	-0.032	0.044
-426.588	-200.000	-0.019	0.428
-425.573	-97.053	-0.169	-0.045
-424.559	509.539	-0.049	-0.116
-423.544	-65.022	-0.017	-0.007
-422.530	577.370	0.128	0.317
-421.515	-108.194	-0.106	0.023
-420.500	800.000	-0.054	-0.217
-419.486	116.977	0.085	0.105
-418.471	524.342	-0.070	0.167
-417.457	-65.687	0.378	-0.153
-416.442	-174.994	0.163	0.005
-415.428	-53.663	-0.119	-0.055
-414.413	-200.000	-0.002	0.076
-413.398	-75.881	-0.029	-0.010
-412.384	800.000	-0.103	0.438
-411.369	338.419	0.054	0.105
-410.355	166.059	-0.290	-0.415
-409.340	167.434	-0.097	0.139
-408.325	295.209	-0.095	-0.175
-407.311	266.346	0.058	-0.101
-406.296	62.222	-0.081	0.081
-405.282	-14.038	0.107	0.070
-404.267	138.025	-0.064	-0.085
-403.252	-177.341	-0.416	-0.010
-402.238	-17.841	0.174	-0.111
-401.223	313.603	0.098	-0.186
-400.209	800.000	-0.064	-0.194
-399.194	163.420	-0.053	-0.075
-398.179	124.754	-0.215	0.274
-397.165	-114.812	0.142	-0.027
-396.150	121.015	0.118	0.148
-395.136	-200.000	0.019	0.161
-394.121	800.000	-0.094	0.337
-393.106	268.452	0.116	0.205
-392.092	319.831	-0.215	0.411
-391.077	160.694	0.139	0.196
-390.063	800.000	-0.030	-0.092
-389.048	-200.000	-0.059	-0.412
-388.033	646.198	0.096	0.247
-387.019	-111.654	0.130	-0.027
-386.004	388.177	0.062	0.130
-384.990	-200.000	0.019	0.250
-383.975	58.090	-0.215	-0.212
-382.960	-200.000	-0.017	-0.228
-381.946	59.945	0.300	-0.299
-380.931	256.335	-0.047	0.081
-379.917	-25.530	0.177	0.106
-378.902	-151.157	0.179	0.014
-377.888	-61.008	-0.268	-0.114
-376.873	631.385	0.063	-0.160
-375.858	134.766	-0.225	0.295
-374.844	-150.009	0.300	-0.024
-373.829	-100.445	-0.110	0.027
-372.815	-200.000	0.009	0.140
-371.800	-87.911	-0.451	0.137
-370.785	-151.209	0.175	-0.013
-369.771	49.440	-0.177	-0.168
-368.756	-34.953	-0.280	-0.154
-367.742	164.720	-0.162	-0.230
-366.727	24.505	-0.099	-0.082
-365.712	800.000	-0.038	0.116
-364.698	230.400	0.087	0.143
-363.683	-79.832	-0.255	-0.087
-362.669	-200.000	0.061	-0.304
-361.654	-200.000	-0.010	-0.222
-360.639	42.872	-0.148	0.136
-359.625	-94.090	-0.333	0.092
-358.610	70.341	0.179	-0.187
-357.596	-200.000	0.031	0.311
-356.581	-200.000	-0.042	0.197
-355.566	-200.000	-0.037	0.320
-354.552	-26.803	-0.110	-0.065
-353.537	54.989	-0.094	0.091
-352.523	153.104	-0.045	0.063
-351.508	770.310	0.048	0.132
-350.493	800.000	0.048	-0.184
-349.479	-115.365	-0.168	0.032
-348.464	800.000	-0.057	-0.185
-347.450	-200.000	-0.003	0.174
-346.435	245.051	0.046	-0.079
-345.420	501.895	-0.158	-0.368
-344.406	442.464	0.041	0.090
-343.391	40.971	0.236	0.214
-342.377	800.000	0.097	0.406
-341.362	-95.251	-0.185	-0.050
-340.348	800.000	-0.120	-0.446
-339.333	228.269	-0.189	0.310
-338.318	219.446	0.126	0.204
-337.304	96.709	0.056	-0.065
-336.289	-148.392	-0.137	0.011
-335.275	800.000	-0.058	0.213
-334.260	220.269	-0.059	0.095
-333.245	89.438	0.124	0.140
-332.231	20.629	0.194	0.158
-331.216	214.000	0.155	-0.247
-330.202	414.243	-0.134	0.288
-329.187	-63.706	0.040	0.016
-328.172	-25.106	0.110	0.066
-327.158	800.000	0.034	-0.106
-326.143	-200.000	0.363	0.000
-325.129	-200.000	0.004	-0.184
-324.114	-3.003	-0.279	0.196
-323.099	800.000	-0.033	0.117
-322.085	200.983	-0.079	-0.123
-321.070	-200.000	-0.024	0.253
-320.056	-92.653	-0.097	0.027
-319.041	84.035	0.202	-0.222
-318.026	-200.000	0.003	0.050
-317.012	-52.042	0.218	0.102
-315.997	800.000	-0.073	0.268
-314.983	382.419	-0.059	0.122
-313.968	642.337	-0.053	-0.135
-312.953	-165.915	0.213	-0.009
-311.939	-87.178	-0.231	0.071
-310.924	389.021	0.053	0.111
-309.910	332.203	0.099	-0.191
-308.895	479.842	-0.032	-0.074
-307.880	-151.308	-0.168	-0.013
-306.866	21.487	0.007	-0.006
-305.851	-68.629	-0.065	-0.025
-304.837	28.873	0.262	-0.224
-303.822	-126.641	0.380	0.057
-302.807	-118.992	-0.515	-0.091
-301.793	-153.230	-0.202	-0.014
-300.778	-19.242	-0.275	-0.171
-299.764	-41.322	0.292	0.151
-298.749	800.000	0.121	0.345
-297.735	436.192	0.075	0.165
-296.720	10.539	0.016	0.012
-295.705	2.203	0.189	-0.137
-294.691	-50.799	-0.216	-0.102
-293.676	-200.000	0.034	-0.302
-292.662	38.353	-0.124	-0.111
-291.647	243.489	-0.076	-0.128
-290.632	258.085	-0.101	0.174
-289.618	136.598	0.057	0.074
-288.603	56.010	0.163	-0.159
-287.589	435.998	-0.057	0.126
-286.574	-113.374	-0.088	-0.017
-285.559	-200.000	0.001	0.246
-284.545	-200.000	-0.059	0.316
-283.530	194.765	-0.148	0.226
-282.516	800.000	0.011	-0.031
-281.501	15.611	-0.008	-0.006
-280.486	-146.622	0.424	0.037
-279.472	46.985	-0.202	-0.189
-278.457	-27.669	0.158	-0.092
-277.443	182.428	0.118	0.175
-276.428	-88.326	0.135	-0.041
-275.413	-120.378	0.276	-0.047
-274.399	-200.000	0.047	-0.286
-273.384	30.520	-0.298	0.256
-272.370	-123.802	0.407	0.065
-271.355	-145.967	0.165	0.015
-270.340	-41.052	-0.346	-0.180
-269.326	-49.449	0.109	-0.052
-268.311	-124.199	-0.290	-0.046
-267.297	-200.000	0.041	0.269
-266.282	-85.191	0.210	-0.066
-265.267	-137.933	0.210	-0.024
-264.253	-200.000	-0.008	0.152
-263.238	22.691	0.111	0.091
-262.224	197.036	0.170	0.260
-261.209	235.363	0.185	0.307
-260.195	-177.721	0.012	0.000
-259.180	694.891	0.108	0.284
-258.165	9.031	-0.352	0.267
-257.151	800.000	0.091	0.366
-256.136	179.537	0.143	0.210
-255.122	-154.928	-0.240	0.016
-254.107	-200.000	-0.032	0.231
-253.092	-122.734	0.165	-0.027
-252.078	800.000	0.048	0.146
-251.063	251.934	-0.059	0.101
-250.049	-55.166	-0.165	0.074
-249.034	-200.000	-0.017	0.344
-248.019	-26.197	-0.149	0.088
-247.005	800.000	0.034	0.105
-245.990	150.111	0.185	0.251
-244.976	800.000	0.104	-0.319
-243.961	165.838	-0.110	0.156
-242.946	-200.000	-0.025	0.155
-241.932	158.817	-0.230	-0.321
-240.917	562.354	-0.105	0.255
-239.903	-200.000	-0.003	-0.037
-238.888	-200.000	0.014	0.374
-237.873	-75.654	0.275	-0.098
-236.859	-49.449	-0.061	0.029
-235.844	-164.606	-0.095	0.004
-234.830	-45.597	-0.243	-0.121
-233.815	-145.122	0.335	-0.031
-232.800	30.692	-0.081	0.069
-231.786	-200.000	-0.000	-0.016
-230.771	-109.571	0.717	-0.152
-229.757	31.741	0.315	0.272
-228.742	-200.000	0.032	0.340
-227.727	9.978	-0.152	-0.116
-226.713	-183.871	0.226	-0.004
-225.698	-141.420	0.302	0.031
-224.684	-200.000	-0.010	0.097
-223.669	-190.603	0.207	0.002
-222.655	148.705	-0.093	-0.126
-221.640	129.019	-0.169	-0.216
-220.625	236.780	0.112	0.186
-219.611	-44.890	0.322	0.161
-218.596	46.957	0.113	-0.106
-217.582	-200.000	0.011	-0.235
-216.567	26.803	-0.274	-0.230
-215.552	4.171	-0.084	-0.062
-214.538	-100.429	-0.120	0.030
-213.523	-72.777	0.118	0.043
-212.509	287.765	-0.048	-0.087
-211.494	800.000	-0.027	0.084
-210.479	800.000	0.046	0.147
-209.465	-110.926	0.258	0.053
-208.450	-0.093	0.056	0.040
-207.436	-67.538	0.137	-0.054
-206.421	280.995	0.134	0.241
-205.406	800.000	0.083	-0.260
-204.392	514.392	-0.042	-0.098
-203.377	223.716	0.292	-0.472
-202.363	-86.659	-0.161	-0.050
-201.348	-200.000	0.011	-0.187
-200.333	324.686	0.109	-0.209
-199.319	163.049	-0.124	-0.175
-198.304	-113.761	-0.206	-0.040
-197.290	-200.000	-0.052	-0.242
-196.275	-99.281	0.166	-0.042
-195.260	105.959	0.134	-0.159
-194.246	49.897	0.240	-0.226
-193.231	-200.000	0.037	0.237
-192.217	-200.000	0.033	0.324
-191.202	-200.000	0.020	0.298
-190.187	296.150	0.101	-0.186
-189.173	-98.847	-0.238	0.061
-188.158	508.819	0.102	-0.237
-187.144	404.023	-0.051	0.108
-186.129	-200.000	0.031	0.404
-185.114	122.582	-0.274	-0.343
-184.100	-70.479	0.298	0.113
-183.085	-22.876	0.313	-0.189
-182.071	217.476	-0.125	0.200
-181.056	-50.894	0.275	0.129
-180.042	-50.800	0.079	-0.037
-179.027	-200.000	-0.001	-0.074
-178.012	241.514	-0.158	-0.264
-176.998	63.267	-0.052	0.052
-175.983	-84.445	0.055	-0.017
-174.969	-67.393	0.092	-0.036
-173.954	712.702	-0.017	0.046
-172.939	-200.000	0.037	-0.403
-171.925	67.230	-0.135	-0.138
-170.910	560.612	-0.098	0.236
-169.896	137.490	-0.250	0.328
-168.881	156.713	0.209	0.289
-167.866	331.812	-0.069	0.133
-166.852	-28.525	0.468	0.270
-165.837	96.180	-0.309	-0.354
-164.823	800.000	-0.032	0.117
-163.808	-200.000	0.052	0.333
-162.793	-200.000	-0.026	-0.168
-161.779	800.000	-0.030	-0.093
-160.764	-57.335	-0.364	0.160
-159.750	-200.000	-0.013	-0.130
-158.735	-8.680	-0.200	-0.134
-157.720	-173.577	0.167	-0.005
-156.706	-24.708	0.013	-0.008
-155.691	-200.000	-0.008	0.036
-154.677	-55.156	0.254	-0.114
-153.662	295.481	-0.043	-0.078
-152.647	-10.588	0.240	-0.159
-151.633	-7.217	0.080	-0.054
-150.618	140.473	0.168	0.222
-149.604	800.000	0.102	-0.434
-148.589	800.000	0.120	0.376
-147.574	93.936	0.173	0.196
-146.560	-200.000	-0.003	-0.215
-145.545	164.551	0.321	-0.452
-144.531	52.655	0.082	0.079
-143.516	-87.456	0.116	-0.035
-142.502	-114.112	0.236	0.046
-141.487	436.123	0.058	0.126
-140.472	319.527	-0.170	0.322
-139.458	800.000	0.060	-0.209
-138.443	-17.365	-0.109	0.069
-137.429	-33.913	-0.510	0.281
-136.414	-80.268	0.236	0.079
-135.399	124.656	-0.158	-0.198
-134.385	-33.953	-0.348	0.191
-133.370	-79.499	-0.095	0.032
-132.356	-57.704	0.181	0.079
-131.341	68.428	0.199	-0.204
-130.326	98.313	0.071	0.081
-129.312	800.000	-0.026	0.109
-128.297	-200.000	0.011	0.150
-127.283	-45.656	0.018	0.009
-126.268	-121.574	-0.275	0.046
-125.253	201.574	-0.053	0.081
-124.239	261.343	0.271	0.469
-123.224	-120.247	0.217	-0.037
-122.210	800.000	-0.036	-0.104
-121.195	-200.000	0.003	-0.104
-120.180	366.863	0.019	0.038
-119.166	285.291	0.014	-0.025
-118.151	-168.339	0.332	0.013
-117.137	-82.594	0.098	-0.032
-116.122	-76.240	-0.056	-0.020
-115.107	-174.788	0.131	-0.004
-114.093	-60.479	0.138	-0.059
-113.078	26.655	0.116	0.097
-112.064	8.974	-0.259	0.195
-111.049	-163.062	0.145	0.007
-110.034	394.174	0.048	-0.101
-109.020	-132.942	0.275	0.035
-108.005	-41.743	0.150	-0.077
-106.991	800.000	0.071	-0.226
-105.976	-156.851	0.259	0.016
-104.962	242.912	-0.072	-0.120
-103.947	74.230	-0.109	0.114
-102.932	-200.000	-0.013	-0.079
-101.918	-200.000	0.034	0.266
-100.903	-200.000	0.077	0.435
-99.889	75.955	-0.199	0.210
-98.874	800.000	0.032	-0.091
-97.859	-100.828	-0.154	0.038
-96.845	5.914	0.116	-0.085
-95.830	160.382	0.132	-0.184
-94.816	694.839	0.066	-0.173
-93.801	-200.000	-0.019	-0.173
-92.786	-51.589	0.092	-0.043
-91.772	-28.420	-0.225	0.129
-90.757	800.000	-0.043	0.175
-89.743	-12.670	0.427	0.278
-88.728	-29.097	-0.371	0.212
-87.713	-200.000	0.002	-0.212
-86.699	116.731	-0.183	-0.224
-85.684	-200.000	0.048	-0.478
-84.670	-28.435	0.064	0.037
-83.655	-135.693	-0.330	-0.039
-82.640	-126.387	-0.277	0.041
-81.626	8.592	0.166	0.125
-80.611	-123.166	0.242	-0.039
-79.597	-200.000	-0.014	-0.159
-78.582	-68.709	0.239	0.092
-77.567	-200.000	-0.007	-0.032
-76.553	-200.000	0.007	0.162
-75.538	31.834	0.228	-0.196
-74.524	800.000	0.068	-0.259
-73.509	-186.654	0.316	0.004
-72.494	64.608	-0.146	0.147
-71.480	-110.091	0.194	-0.040
-70.465	603.316	-0.083	-0.207
-69.451	-2.159	0.085	-0.059
-68.436	-97.014	0.610	-0.159
-67.422	107.865	0.124	-0.147
-66.407	800.000	-0.050	0.217
-65.392	-187.254	-0.011	-0.000
-64.378	4.047	0.075	-0.055
-63.363	65.288	0.155	-0.156
-62.349	-144.456	-0.452	0.042
-61.334	61.153	-0.739	-0.731
-60.319	-200.000	0.087	0.383
-59.305	-200.000	-0.147	-0.793
-58.290	122.096	0.686	0.853
-57.276	794.728	0.556	1.525
-56.261	-200.000	79.413	509.075
-55.246	522.593	1317.667	3082.334
-54.232	150.398	2543.407	3439.420
-53.217	105.859	2366.955	2789.015
-52.203	46.542	2110.177	1950.116
-51.188	41.695	2018.400	1821.186
-50.173	40.062	1998.718	1788.601
-49.159	52.122	2039.919	1935.833
-48.144	56.154	2060.086	1991.751
-47.130	42.559	2023.173	1833.089
-46.115	40.001	2011.005	1798.750
-45.100	39.909	2008.800	1795.875
-44.086	39.890	2006.627	1793.682
-43.071	39.839	2004.416	1791.177
-42.057	39.865	2002.059	1789.234
-41.042	39.932	1999.803	1787.752
-40.027	39.842	1998.077	1785.324
-39.013	39.890	1996.074	1783.894
-37.998	39.862	1994.469	1782.140
-36.984	39.904	1992.302	1780.513
-35.969	39.834	1990.384	1778.093
-34.954	39.921	1988.238	1776.889
-33.940	39.967	1986.447	1775.633
-32.925	39.928	1985.391	1774.270
-31.911	39.932	1984.069	1773.050
-30.896	39.964	1981.830	1771.273
-29.881	40.034	1980.158	1770.329
-28.867	39.988	1978.657	1768.509
-27.852	40.050	1976.642	1767.188
-26.838	39.966	1974.614	1764.553
-25.823	39.996	1972.964	1763.282
-24.809	39.964	1971.777	1761.868
-23.794	39.926	1969.822	1759.712
-22.779	39.889	1968.485	1758.113
-21.765	39.901	1966.341	1756.236
-20.750	39.972	1964.474	1755.129
-19.736	39.994	1962.769	1753.733
-18.721	39.974	1961.299	1752.174
-17.706	39.903	1960.316	1750.597
-16.692	39.997	1957.787	1749.098
-15.677	39.937	1956.533	1747.384
-14.663	40.045	1954.494	1746.443
-13.648	39.991	1953.865	1745.332
-12.633	40.072	1952.227	1744.519
-11.619	39.954	1951.542	1742.798
-10.604	39.943	1949.797	1741.068
-9.590	39.895	1948.799	1739.685
-8.575	39.882	1947.294	1738.159
-7.560	39.851	1946.149	1736.800
-6.546	39.846	1944.436	1735.159
-5.531	39.948	1942.695	1734.427
-4.517	39.941	1941.488	1733.217
-3.502	39.862	1940.888	1731.923
-2.487	39.859	1939.487	1730.582
-1.473	39.877	1938.445	1729.733
-0.458	39.915	1934.069	1726.094
0.556	37.095	1912.666	1695.411
1.571	32.118	1890.883	1632.819
2.586	27.345	1910.521	1607.587
3.600	25.891	1945.714	1623.961
4.615	25.155	1942.716	1614.692
5.629	22.644	1850.981	1516.742
6.644	18.230	1740.047	1389.932
7.659	15.487	1703.329	1338.643
8.673	15.159	1699.604	1332.988
9.688	15.233	1697.853	1332.087
10.702	15.129	1696.685	1330.221
11.717	14.999	1693.626	1326.681
12.731	15.293	1692.501	1328.011
13.746	18.153	1699.822	1356.349
14.761	20.478	1702.426	1376.756
15.775	18.954	1697.051	1360.242
16.790	17.059	1691.311	1340.569
17.804	15.787	1688.241	1327.979
18.819	14.773	1684.405	1316.858
19.834	14.141	1681.346	1309.377
20.848	13.741	1679.633	1304.779
21.863	13.346	1678.665	1300.809
22.877	13.046	1677.325	1297.292
23.892	12.936	1675.419	1294.840
24.907	12.869	1674.080	1293.168
25.921	12.660	1673.459	1290.934
26.936	12.765	1672.504	1290.903
27.950	12.792	1671.712	1290.395
28.965	12.860	1671.114	1290.352
29.980	12.870	1670.118	1289.547
30.994	12.945	1669.032	1289.174
32.009	13.075	1667.587	1288.961
33.023	13.041	1667.022	1288.148
34.038	13.047	1666.407	1287.605
35.053	13.089	1664.542	1286.378
36.067	13.009	1663.315	1284.692
37.082	12.931	1662.561	1283.389
38.096	12.986	1661.516	1282.892
39.111	13.016	1660.391	1282.144
40.126	13.038	1660.143	1282.011
41.140	13.039	1658.638	1280.746
42.155	12.873	1657.444	1278.425
43.169	12.761	1656.654	1276.835
44.184	12.787	1655.070	1275.697
45.199	12.757	1654.187	1274.675
46.213	12.727	1652.884	1273.323
47.228	12.722	1651.963	1272.463
48.242	12.800	1650.116	1271.527
49.257	12.937	1648.980	1271.597
50.271	12.904	1647.981	1270.460
51.286	12.963	1646.467	1269.636
52.301	12.955	1645.166	1268.456
53.315	12.934	1644.336	1267.544
54.330	12.872	1642.920	1265.870
55.344	12.763	1641.302	1263.670
56.359	12.800	1639.628	1262.554
57.374	12.836	1638.631	1261.951
58.388	12.763	1638.051	1260.832
59.403	12.786	1635.939	1259.275
60.417	12.734	1635.275	1258.255
61.432	12.790	1633.715	1257.367
62.447	12.781	1632.923	1256.576
63.461	12.709	1632.257	1255.403
64.476	12.691	1630.874	1254.091
65.490	12.655	1629.493	1252.644
66.505	12.684	1628.026	1251.632
67.520	12.668	1627.160	1250.729
68.534	12.724	1626.277	1250.363
69.549	12.740	1625.486	1249.766
70.563	12.715	1624.151	1248.446
71.578	12.681	1623.332	1247.442
72.593	12.761	1622.014	1246.926
73.607	12.658	1621.010	1245.265
74.622	12.619	1619.839	1243.964
75.636	12.575	1618.663	1242.613
76.651	12.613	1618.104	1242.361
77.666	12.670	1617.098	1241.908
78.680	12.571	1616.296	1240.436
79.695	12.562	1615.846	1239.918
80.709	12.631	1614.408	1239.220
81.724	12.700	1613.760	1239.136
82.739	12.764	1612.576	1238.596
83.753	12.757	1611.898	1237.911
84.768	12.865	1611.150	1238.042
85.782	12.886	1610.383	1237.497
86.797	12.918	1609.391	1236.872
87.812	12.950	1608.051	1235.966
88.826	12.943	1607.140	1235.105
89.841	12.942	1605.468	1233.708
90.855	12.862	1604.969	1232.618
91.870	12.899	1603.812	1231.894
92.884	12.836	1603.119	1230.784
93.899	12.899	1602.370	1230.564
94.914	12.948	1601.099	1229.847
95.928	13.020	1599.503	1229.047
96.943	13.034	1598.457	1228.240
97.957	13.041	1596.818	1226.929
98.972	13.050	1595.264	1225.692
99.987	12.942	1593.943	1223.766
101.001	12.991	1592.080	1222.591
102.016	12.938	1590.664	1221.000
103.030	12.945	1589.540	1220.084
104.045	13.000	1588.488	1219.576
105.060	12.978	1587.137	1218.265
106.074	12.911	1585.651	1216.524
107.089	12.863	1584.005	1214.799
108.103	12.778	1582.424	1212.856
109.118	12.822	1580.597	1211.669
110.133	12.747	1579.438	1210.126
111.147	12.813	1577.590	1209.084
112.162	12.709	1577.087	1207.831
113.176	12.806	1574.838	1206.710
114.191	12.823	1574.041	1206.115
115.206	12.824	1573.034	1205.245
116.220	12.803	1571.674	1203.943
117.235	12.851	1570.130	1203.008
118.249	12.819	1569.068	1201.850
119.264	12.783	1568.079	1200.725
120.279	12.829	1566.756	1199.941
121.293	12.773	1565.053	1198.120
122.308	12.831	1563.631	1197.351
123.322	12.819	1561.788	1195.746
124.337	12.806	1560.575	1194.619
125.352	12.822	1559.176	1193.559
126.366	12.749	1558.252	1192.212
127.381	12.836	1556.876	1191.688
128.395	12.693	1556.551	1190.301
129.410	12.730	1554.884	1189.189
130.424	12.803	1553.194	1188.316
131.439	12.813	1552.290	1187.587
132.454	12.928	1550.778	1187.151
133.468	12.835	1549.330	1185.274
134.483	12.938	1547.742	1184.694
135.497	12.924	1546.306	1183.390
136.512	13.008	1545.102	1182.962
137.527	13.042	1543.593	1181.950
138.541	12.983	1542.517	1180.599
139.556	12.983	1541.070	1179.387
140.570	12.932	1539.806	1177.947
141.585	13.048	1538.227	1177.468
142.600	13.128	1537.058	1177.036
143.614	13.134	1535.872	1176.064
144.629	13.158	1534.629	1175.184
145.643	13.104	1533.248	1173.638
146.658	13.130	1531.935	1172.715
147.673	13.170	1530.376	1171.699
148.687	13.066	1528.980	1169.790
149.702	13.068	1527.273	1168.394
150.716	12.939	1526.152	1166.523
151.731	13.043	1524.422	1165.833
152.746	13.025	1523.213	1164.674
153.760	13.035	1522.144	1163.822
154.775	13.039	1520.720	1162.663
155.789	13.021	1519.738	1161.680
156.804	13.022	1518.662	1160.760
157.819	13.152	1517.114	1160.390
158.833	13.126	1516.244	1159.442
159.848	13.185	1514.727	1158.591
160.862	13.280	1513.325	1158.081
161.877	13.235	1512.310	1156.885
162.892	13.214	1511.458	1155.987
163.906	13.218	1509.890	1154.715
164.921	13.061	1508.577	1152.512
165.935	13.140	1507.753	1152.328
166.950	13.106	1506.465	1151.008
167.964	13.171	1505.409	1150.548
168.979	13.273	1504.277	1150.296
169.994	13.269	1503.059	1149.234
171.008	13.174	1502.282	1147.876
172.023	13.270	1501.131	1147.565
173.037	13.286	1499.970	1146.686
174.052	13.230	1498.983	1145.443
175.067	13.332	1497.484	1144.901
176.081	13.332	1496.861	1144.323
177.096	13.294	1495.259	1142.734
178.110	13.240	1494.157	1141.415
179.125	13.228	1493.409	1140.661
180.140	13.284	1492.172	1140.002
181.154	13.251	1490.791	1138.620
182.169	13.286	1490.085	1138.218
183.183	13.300	1488.540	1137.033
184.198	13.318	1487.865	1136.544
185.213	13.371	1487.046	1136.181
186.227	13.402	1485.579	1135.175
187.242	13.409	1484.544	1134.332
188.256	13.503	1483.089	1133.759
189.271	13.486	1482.463	1133.065
190.286	13.463	1481.422	1132.009
191.300	13.548	1480.182	1131.545
192.315	13.339	1479.022	1129.134
193.329	13.215	1478.023	1127.423
194.344	13.296	1476.451	1126.676
195.359	13.274	1475.782	1125.913
196.373	13.384	1474.499	1125.585
197.388	13.298	1473.923	1124.463
198.402	13.477	1472.449	1124.452
199.417	13.504	1471.173	1123.564
200.432	13.657	1470.774	1124.197
201.446	13.667	1469.343	1123.071
202.461	13.746	1467.889	1122.395
203.475	13.724	1467.058	1121.511
204.490	13.860	1466.143	1121.632
205.504	13.718	1465.166	1119.828
206.519	13.728	1463.882	1118.811
207.534	13.645	1462.858	1117.370
208.548	13.670	1461.822	1116.651
209.563	13.540	1460.927	1114.992
210.577	13.682	1459.416	1114.694
211.592	13.677	1458.673	1113.998
212.607	13.670	1457.907	1113.266
213.621	13.734	1457.499	1113.288
214.636	13.829	1456.349	1112.943
215.650	13.849	1455.321	1112.193
216.665	13.819	1454.793	1111.492
217.680	13.884	1453.572	1110.898
218.694	13.839	1452.699	1109.827
219.709	13.942	1451.957	1109.852
220.723	14.018	1450.821	1109.391
221.738	14.003	1449.872	1108.467
222.753	13.873	1449.542	1107.250
223.767	14.009	1448.182	1107.023
224.782	13.965	1447.202	1105.882
225.796	13.976	1446.450	1105.280
226.811	13.994	1445.599	1104.657
227.826	14.076	1444.551	1104.301
228.840	14.067	1443.816	1103.578
229.855	13.981	1442.533	1101.930
230.869	13.997	1441.733	1101.329
231.884	13.988	1440.974	1100.592
232.899	13.991	1439.857	1099.661
233.913	13.948	1438.893	1098.545
234.928	14.013	1437.454	1097.778
235.942	13.903	1436.325	1096.092
236.957	13.953	1434.895	1095.236
237.972	13.963	1434.219	1094.686
238.986	13.965	1432.614	1093.379
240.001	13.913	1432.295	1092.697
241.015	13.936	1430.892	1091.681
242.030	13.978	1429.968	1091.155
243.045	14.046	1428.909	1090.695
244.059	14.091	1428.080	1090.263
245.074	14.139	1427.121	1089.749
246.088	14.095	1426.339	1088.765
247.103	14.220	1425.549	1088.881
248.117	14.152	1424.894	1087.840
249.132	14.197	1423.891	1087.277
250.147	14.289	1423.041	1087.133
251.161	14.338	1422.574	1086.997
252.176	14.465	1421.704	1087.062
253.190	14.430	1421.254	1086.397
254.205	14.522	1419.963	1085.909
255.220	14.503	1419.402	1085.260
256.234	14.593	1418.574	1085.118
257.249	14.571	1417.865	1084.336
258.263	14.558	1417.048	1083.536
259.278	14.623	1416.064	1083.109
260.293	14.549	1414.862	1081.614
261.307	14.505	1414.242	1080.757
262.322	14.567	1413.496	1080.492
263.336	14.651	1412.673	1080.314
264.351	14.669	1411.789	1079.659
265.366	14.749	1410.382	1079.003
266.380	14.696	1409.889	1078.187
267.395	14.755	1408.683	1077.550
268.409	14.813	1408.009	1077.311
269.424	14.768	1407.054	1076.195
270.439	14.700	1406.433	1075.192
271.453	14.710	1405.082	1074.122
272.468	14.778	1404.008	1073.645
273.482	14.686	1403.435	1072.520
274.497	14.707	1402.488	1071.837
275.512	14.723	1401.693	1071.240
276.526	14.745	1400.900	1070.681
277.541	14.695	1399.922	1069.513
278.555	14.684	1399.253	1068.841
279.570	14.787	1398.186	1068.588
280.585	14.725	1397.303	1067.421
281.599	14.810	1396.971	1067.618
282.614	14.864	1395.563	1066.795
283.628	14.853	1394.466	1065.789
284.643	14.800	1393.443	1064.578
285.657	14.773	1392.476	1063.570
286.672	14.834	1391.729	1063.296
287.687	14.815	1390.637	1062.243
288.701	14.795	1389.549	1061.193
289.716	14.945	1388.752	1061.444
290.730	14.818	1388.216	1060.133
291.745	15.018	1386.786	1060.214
292.760	14.970	1385.679	1058.971
293.774	15.063	1384.582	1058.626
294.789	14.964	1384.121	1057.553
295.803	15.005	1383.318	1057.105
296.818	15.106	1382.373	1056.926
297.833	14.984	1381.079	1055.075
298.847	15.070	1379.900	1054.622
299.862	15.093	1379.396	1054.291
300.876	15.070	1378.068	1053.036
301.891	15.080	1377.366	1052.467
302.906	15.074	1377.007	1052.066
303.920	15.215	1375.633	1051.807
304.935	15.184	1375.250	1051.227
305.949	15.164	1374.722	1050.603
306.964	15.178	1373.936	1050.002
307.979	15.290	1372.597	1049.585
308.993	15.254	1371.957	1048.774
310.008	15.293	1371.013	1048.206
311.022	15.267	1369.814	1047.032
312.037	15.436	1368.764	1047.191
313.052	15.297	1368.307	1045.884
314.066	15.414	1366.678	1045.275
315.081	15.337	1365.557	1043.844
316.095	15.244	1365.010	1042.759
317.110	15.207	1363.900	1041.588
318.125	15.293	1362.882	1041.251
319.139	15.285	1362.071	1040.492
320.154	15.333	1360.909	1039.806
321.168	15.290	1360.113	1038.843
322.183	15.291	1359.046	1037.942
323.197	15.322	1358.375	1037.529
324.212	15.371	1356.871	1036.589
325.227	15.323	1356.548	1035.953
326.241	15.359	1355.656	1035.406
327.256	15.430	1354.819	1035.112
328.270	15.427	1353.820	1034.240
329.285	15.377	1353.328	1033.463
330.300	15.348	1352.314	1032.416
331.314	15.414	1351.393	1032.030
332.329	15.364	1350.649	1031.064
333.343	15.371	1349.494	1030.133
334.358	15.484	1348.482	1029.961
335.373	15.543	1347.859	1029.758
336.387	15.552	1347.017	1029.079
337.402	15.538	1346.551	1028.545
338.416	15.636	1345.393	1028.172
339.431	15.571	1345.304	1027.615
340.446	15.651	1344.807	1027.630
341.460	15.570	1343.734	1026.225
342.475	15.690	1342.980	1026.291
343.489	15.715	1341.779	1025.438
344.504	15.759	1340.682	1024.774
345.519	15.704	1339.785	1023.666
346.533	15.863	1338.820	1023.806
347.548	15.869	1338.190	1023.267
348.562	15.860	1336.821	1022.074
349.577	15.880	1336.248	1021.668
350.592	15.879	1335.751	1021.193
351.606	15.743	1335.053	1019.743
352.621	15.779	1334.030	1019.088
353.635	15.711	1332.917	1017.735
354.650	15.736	1331.811	1016.957
355.665	15.762	1330.757	1016.217
356.679	15.880	1329.445	1015.838
357.694	15.890	1328.322	1014.949
358.708	15.897	1327.452	1014.238
359.723	15.911	1326.412	1013.435
360.738	15.861	1325.403	1012.278
361.752	15.940	1324.617	1012.058
362.767	15.975	1323.724	1011.500
363.781	15.982	1322.759	1010.712
364.796	15.962	1321.872	1009.827
365.810	15.955	1321.121	1009.125
366.825	16.060	1320.476	1009.167
367.840	16.066	1319.738	1008.548
368.854	16.229	1318.676	1008.626
369.869	16.150	1318.385	1007.838
370.883	16.054	1318.020	1006.902
371.898	16.237	1316.705	1006.900
372.913	16.148	1316.471	1006.099
373.927	16.207	1315.174	1005.367
374.942	16.255	1314.474	1005.034
375.956	16.201	1313.724	1004.047
376.971	16.205	1313.105	1003.511
377.986	16.261	1311.610	1002.611
379.000	16.268	1311.168	1002.228
380.015	16.289	1310.522	1001.769
381.029	16.291	1309.768	1001.113
382.044	16.394	1308.912	1000.984
383.059	16.335	1308.376	1000.134
384.073	16.407	1307.910	1000.118
385.088	16.355	1307.252	999.215
386.102	16.453	1306.369	999.030
387.117	16.451	1305.650	998.383
388.132	16.502	1304.472	997.695
389.146	16.411	1303.914	996.644
390.161	16.357	1303.149	995.654
391.175	16.431	1302.165	995.248
392.190	16.367	1301.663	994.398
393.205	16.451	1300.858	994.192
394.219	16.545	1299.376	993.519
395.234	16.580	1298.677	993.103
396.248	16.573	1297.248	991.880
397.263	16.458	1295.957	990.137
398.278	16.527	1294.298	989.186
399.292	16.503	1293.739	988.528
400.307	16.432	1292.950	987.423
401.321	16.504	1291.295	986.492
402.336	16.471	1290.690	985.748
403.350	16.474	1289.729	984.945
404.365	16.506	1288.458	984.074
405.380	16.528	1287.885	983.676
406.394	16.536	1287.152	983.080
407.409	16.575	1286.453	982.684
408.423	16.565	1285.613	981.898
409.438	16.611	1285.527	982.009
410.453	16.636	1284.504	981.289
411.467	16.771	1283.637	981.317
412.482	16.740	1283.145	980.678
413.496	16.831	1282.266	980.445
414.511	16.835	1281.572	979.849
415.526	16.857	1281.021	979.472
416.540	16.827	1280.313	978.669
417.555	16.854	1279.436	978.070
418.569	16.930	1278.761	977.901
419.584	17.022	1278.090	977.837
420.599	16.977	1277.551	977.077
421.613	81.763	1331.532	1391.404
422.628	80.318	1339.381	1391.510
