DTS Sentinel unit serial number:	SN413079Multiplexer serial number:	ORYXHardware model number:	OX4-SRSoftware version number:	ORYX F/W v4.00 Oryx Data Collector v3.7.2.0data status	okinstallation	princeton_trtdifferential loss correction	single-endedforward channel	channel 4reverse channel	N/Adate	2019/09/14time	09:29:35forward acquisition time	60.00reverse acquisition time	0.00gamma	496.2192k internal	0.2306k external	0.2306temperature offset calibration	1.0133default loss term (dB/km)	0.3790temperature slope calibration	1.0000multiplexer offset coefficient	1.0000multiplexer slope coefficient	1.0000fibre end	0.00T internal ref (°C)	31.42T ext. ref 1 (°C)	3.86T ext. ref 2 (°C)	29.15length (m)	temperature (°C)	Stokes	anti-Stokes-747.200	-19.869	0.202	-0.127
-746.185	655.458	-0.104	0.271
-745.171	-147.676	-0.162	0.014
-744.156	-29.033	-0.077	-0.045
-743.142	-149.392	0.163	-0.013
-742.127	-65.097	-0.314	0.129
-741.112	214.569	0.088	-0.142
-740.098	37.284	-0.290	0.261
-739.083	202.283	-0.046	-0.073
-738.069	-98.728	-0.037	0.010
-737.054	199.819	0.100	0.157
-736.039	-172.949	-0.600	-0.019
-735.025	158.413	-0.142	0.200
-734.010	-126.533	0.061	0.009
-732.996	-200.000	-0.025	0.161
-731.981	-178.850	-0.118	0.003
-730.966	53.271	0.164	0.160
-729.952	-37.316	0.062	0.034
-728.937	168.104	-0.093	-0.135
-727.923	456.300	-0.112	0.253
-726.908	-78.172	-0.101	0.035
-725.894	800.000	0.042	0.136
-724.879	347.113	-0.104	-0.209
-723.864	709.172	0.087	-0.233
-722.850	-16.848	-0.200	-0.128
-721.835	800.000	0.024	0.075
-720.821	-52.342	0.246	0.116
-719.806	-126.467	-0.232	-0.035
-718.791	396.333	-0.021	0.045
-717.777	11.088	-0.186	-0.145
-716.762	324.216	0.015	0.030
-715.748	654.638	-0.022	-0.057
-714.733	145.442	-0.158	0.215
-713.718	-75.441	-0.323	-0.117
-712.704	-111.014	0.274	0.057
-711.689	-200.000	0.032	-0.254
-710.675	15.726	0.160	-0.128
-709.660	-21.003	-0.259	0.161
-708.645	78.205	-0.205	-0.222
-707.631	304.126	0.080	0.151
-706.616	53.769	0.338	0.330
-705.602	-78.437	0.164	0.057
-704.587	-93.632	-0.257	-0.072
-703.572	800.000	-0.080	-0.289
-702.558	1.848	-0.037	-0.027
-701.543	800.000	-0.032	0.097
-700.529	-200.000	0.075	-0.383
-699.514	-200.000	0.066	-0.307
-698.499	45.248	0.066	0.062
-697.485	76.110	0.125	-0.135
-696.470	-200.000	-0.017	0.130
-695.456	254.414	0.147	0.255
-694.441	-200.000	0.030	-0.418
-693.426	-160.759	-0.219	0.012
-692.412	169.850	0.088	0.127
-691.397	-17.924	-0.334	-0.213
-690.383	800.000	0.143	-0.412
-689.368	-200.000	0.006	-0.071
-688.354	-200.000	-0.050	-0.254
-687.339	301.838	0.232	0.436
-686.324	-200.000	-0.026	-0.191
-685.310	247.406	0.086	0.147
-684.295	6.509	-0.274	0.207
-683.281	-71.779	-0.181	0.068
-682.266	-200.000	-0.041	0.198
-681.251	370.051	-0.088	-0.182
-680.237	-109.780	0.178	-0.038
-679.222	165.016	-0.198	-0.284
-678.208	484.426	-0.126	0.290
-677.193	-200.000	-0.046	-0.220
-676.178	800.000	0.236	-0.674
-675.164	-200.000	-0.039	0.233
-674.149	-9.274	-0.290	0.196
-673.135	-200.000	-0.035	-0.163
-672.120	66.720	0.047	-0.048
-671.105	-97.392	0.280	0.074
-670.091	47.329	-0.220	-0.208
-669.076	-60.422	0.099	0.043
-668.062	357.968	-0.086	0.174
-667.047	-200.000	-0.008	0.351
-666.032	-44.616	0.095	0.048
-665.018	334.764	-0.062	0.121
-664.003	-200.000	-0.034	-0.276
-662.989	103.890	-0.204	-0.243
-661.974	-165.472	-0.103	-0.005
-660.959	-200.000	0.011	0.089
-659.945	406.021	0.113	-0.242
-658.930	189.210	-0.075	-0.114
-657.916	-200.000	-0.043	-0.201
-656.901	9.303	-0.012	-0.009
-655.886	-25.267	-0.137	0.082
-654.872	158.751	-0.124	0.175
-653.857	60.427	0.256	-0.257
-652.843	-200.000	-0.057	0.266
-651.828	-200.000	-0.002	0.335
-650.814	36.261	0.446	0.399
-649.799	392.797	0.172	0.363
-648.784	59.079	0.055	0.055
-647.770	-200.000	-0.018	-0.132
-646.755	47.159	-0.113	0.106
-645.741	-96.715	0.242	0.065
-644.726	-200.000	0.025	0.146
-643.711	-64.296	-0.125	-0.052
-642.697	100.151	-0.217	-0.255
-641.682	225.029	-0.148	-0.243
-640.668	-183.264	0.045	0.001
-639.653	47.262	0.194	-0.183
-638.638	-6.280	-0.164	-0.113
-637.624	-149.826	-0.315	-0.025
-636.609	378.301	0.071	-0.147
-635.595	-108.450	-0.314	-0.069
-634.580	255.409	0.061	0.107
-633.565	-36.382	-0.212	-0.116
-632.551	-29.932	0.081	0.047
-631.536	-58.027	0.491	0.217
-630.522	800.000	-0.132	0.504
-629.507	-68.476	-0.248	-0.098
-628.492	151.166	0.107	0.147
-627.478	-130.841	0.142	0.019
-626.463	800.000	0.076	-0.288
-625.449	-64.937	-0.236	-0.097
-624.434	15.817	0.077	0.062
-623.419	-200.000	-0.063	-0.431
-622.405	-17.874	-0.262	-0.167
-621.390	-96.135	0.115	-0.031
-620.376	-25.306	0.170	0.102
-619.361	-75.402	-0.402	0.145
-618.346	-22.460	-0.098	0.060
-617.332	800.000	-0.065	0.198
-616.317	-21.599	0.126	0.078
-615.303	-178.701	0.312	-0.007
-614.288	55.735	0.327	-0.321
-613.273	800.000	0.012	0.045
-612.259	-30.014	0.283	-0.163
-611.244	404.058	0.032	-0.069
-610.230	101.080	0.145	-0.171
-609.215	-200.000	0.066	-0.324
-608.201	-167.823	-0.088	-0.003
-607.186	117.840	0.026	0.032
-606.171	-200.000	0.020	0.343
-605.157	-33.249	-0.164	-0.092
-604.142	-36.816	0.285	-0.155
-603.128	800.000	0.027	0.116
-602.113	357.479	0.061	0.124
-601.098	-200.000	-0.023	0.366
-600.084	-200.000	-0.024	-0.149
-599.069	-140.975	0.338	-0.035
-598.055	-200.000	-0.010	-0.336
-597.040	-7.460	0.102	-0.070
-596.025	70.599	0.068	-0.071
-595.011	277.741	-0.075	0.135
-593.996	6.734	0.229	0.172
-592.982	206.125	0.065	-0.103
-591.967	-63.193	-0.056	0.023
-590.952	-61.184	-0.187	0.080
-589.938	-111.052	-0.155	-0.032
-588.923	-135.370	0.229	-0.028
-587.909	800.000	-0.066	-0.207
-586.894	-200.000	0.000	-0.210
-585.879	-143.774	0.198	-0.019
-584.865	116.606	-0.153	0.190
-583.850	395.716	0.105	0.221
-582.836	55.180	-0.030	-0.029
-581.821	107.617	-0.108	-0.130
-580.806	88.693	0.135	-0.152
-579.792	160.341	-0.080	-0.112
-578.777	616.651	0.080	-0.202
-577.763	800.000	0.035	0.148
-576.748	34.209	0.258	-0.228
-575.733	-200.000	-0.001	0.018
-574.719	163.182	-0.123	0.175
-573.704	18.157	-0.193	-0.155
-572.690	232.136	0.119	-0.198
-571.675	-18.686	0.199	-0.126
-570.661	800.000	0.018	0.067
-569.646	-13.861	-0.167	-0.109
-568.631	-150.912	0.326	0.025
-567.617	-200.000	-0.051	0.234
-566.602	103.618	-0.120	-0.142
-565.588	137.038	0.169	-0.223
-564.573	1.802	0.318	0.231
-563.558	625.029	0.045	-0.115
-562.544	251.683	-0.082	0.141
-561.529	415.980	-0.093	-0.199
-560.515	-200.000	0.026	0.178
-559.500	-200.000	-0.023	-0.264
-558.485	131.322	0.205	-0.266
-557.471	285.457	-0.080	0.145
-556.456	-115.962	0.194	-0.037
-555.442	794.312	-0.034	0.094
-554.427	-59.353	0.199	0.087
-553.412	-172.275	-0.378	0.012
-552.398	138.844	-0.098	-0.130
-551.383	252.009	-0.035	0.060
-550.369	127.353	-0.250	-0.321
-549.354	-66.417	0.274	0.110
-548.339	-114.610	-0.242	0.047
-547.325	-145.215	-0.270	0.025
-546.310	-200.000	0.018	-0.324
-545.296	40.332	-0.036	-0.032
-544.281	800.000	-0.072	0.220
-543.266	-0.221	0.056	-0.040
-542.252	-71.731	0.411	0.155
-541.237	-200.000	-0.046	-0.239
-540.223	-37.451	-0.211	0.113
-539.208	-168.507	0.214	-0.008
-538.193	23.276	-0.229	0.190
-537.179	-139.420	0.109	0.012
-536.164	13.772	0.071	-0.055
-535.150	59.425	-0.323	-0.321
-534.135	-44.083	-0.114	-0.058
-533.121	370.494	0.202	0.413
-532.106	-104.736	0.251	-0.058
-531.091	-45.888	-0.280	-0.139
-530.077	-200.000	0.009	0.097
-529.062	162.160	-0.144	-0.204
-528.048	-80.625	0.196	0.066
-527.033	211.539	0.183	-0.290
-526.018	-200.000	-0.008	-0.076
-525.004	-173.231	0.267	-0.008
-523.989	79.489	-0.129	-0.140
-522.975	92.834	-0.032	-0.036
-521.960	-200.000	-0.044	-0.206
-520.945	-45.769	-0.160	-0.080
-519.931	-200.000	0.003	0.077
-518.916	139.660	0.097	-0.128
-517.902	-46.020	-0.105	0.052
-516.887	-35.752	0.180	0.098
-515.872	-25.089	-0.168	-0.100
-514.858	-112.273	-0.264	-0.053
-513.843	-200.000	0.023	-0.211
-512.829	800.000	0.106	0.326
-511.814	123.555	-0.065	0.083
-510.799	-200.000	-0.061	0.560
-509.785	717.776	-0.078	0.208
-508.770	-118.705	0.284	0.050
-507.756	-59.465	0.308	0.134
-506.741	-23.542	0.164	-0.099
-505.726	13.776	-0.154	-0.121
-504.712	800.000	0.038	-0.123
-503.697	-61.607	0.057	-0.024
-502.683	-197.675	-0.085	-0.001
-501.668	466.432	-0.174	0.393
-500.653	137.894	0.185	0.244
-499.639	800.000	-0.062	0.216
-498.624	-77.060	0.161	-0.057
-497.610	800.000	0.028	0.081
-496.595	746.492	0.051	-0.137
-495.581	-200.000	0.005	-0.115
-494.566	33.399	-0.050	-0.044
-493.551	-200.000	0.017	-0.190
-492.537	119.752	0.306	-0.382
-491.522	285.546	0.210	0.381
-490.508	167.279	-0.053	-0.076
-489.493	-25.701	0.328	-0.195
-488.478	-27.777	0.102	-0.060
-487.464	-200.000	0.013	-0.168
-486.449	-39.945	-0.091	0.048
-485.435	800.000	0.069	-0.234
-484.420	800.000	-0.058	0.187
-483.405	94.509	0.029	0.034
-482.391	800.000	0.039	-0.167
-481.376	800.000	-0.004	0.016
-480.362	800.000	-0.032	0.116
-479.347	56.765	-0.034	-0.034
-478.332	800.000	0.021	0.075
-477.318	48.406	-0.084	-0.079
-476.303	-200.000	0.005	0.110
-475.289	-72.087	0.278	0.104
-474.274	147.351	0.067	-0.091
-473.259	-22.557	-0.280	-0.170
-472.245	288.806	-0.119	-0.218
-471.230	-35.171	0.012	-0.007
-470.216	-7.432	-0.337	0.230
-469.201	-4.364	0.180	0.125
-468.186	132.910	-0.115	0.149
-467.172	-200.000	0.019	0.166
-466.157	-17.560	0.277	-0.175
-465.143	-200.000	0.002	0.080
-464.128	620.899	0.101	0.257
-463.113	-34.502	-0.162	0.089
-462.099	342.559	0.191	0.376
-461.084	125.083	-0.161	0.204
-460.070	-28.939	0.076	-0.044
-459.055	552.434	0.148	-0.359
-458.040	-200.000	-0.045	0.514
-457.026	104.222	-0.159	-0.188
-456.011	1.619	-0.112	-0.081
-454.997	482.642	-0.063	-0.143
-453.982	15.113	0.146	0.115
-452.968	186.213	0.211	-0.315
-451.953	-126.468	0.023	-0.003
-450.938	-200.000	-0.007	-0.080
-449.924	79.905	0.299	-0.324
-448.909	-104.023	-0.171	-0.040
-447.895	-78.860	-0.458	0.157
-446.880	162.698	-0.175	0.248
-445.865	-94.044	0.087	-0.024
-444.851	800.000	0.051	-0.181
-443.836	-70.913	-0.159	-0.060
-442.822	264.807	-0.092	-0.161
-441.807	201.183	0.116	0.180
-440.792	-1.828	-0.192	-0.136
-439.778	800.000	-0.053	0.166
-438.763	-200.000	-0.035	-0.195
-437.749	-86.909	0.251	-0.077
-436.734	606.114	0.032	0.079
-435.719	-119.030	0.258	-0.045
-434.705	-29.998	-0.115	-0.066
-433.690	29.052	-0.115	-0.098
-432.676	-37.755	-0.212	0.113
-431.661	-162.720	0.122	0.006
-430.646	-54.608	-0.250	-0.114
-429.632	800.000	0.062	0.222
-428.617	-59.556	0.199	-0.086
-427.603	-72.271	-0.156	-0.058
-426.588	35.940	0.217	0.192
-425.573	20.843	-0.174	0.142
-424.559	-200.000	0.007	-0.538
-423.544	-200.000	0.032	-0.236
-422.530	-200.000	0.000	0.130
-421.515	46.025	-0.370	-0.344
-420.500	-200.000	-0.009	-0.167
-419.486	-103.526	-0.519	-0.123
-418.471	336.017	-0.019	0.037
-417.457	-43.861	0.345	0.174
-416.442	-24.832	0.080	0.048
-415.428	-200.000	0.002	0.071
-414.413	-71.984	0.189	0.071
-413.398	-72.053	-0.389	0.145
-412.384	-86.329	-0.231	-0.071
-411.369	31.918	0.207	0.179
-410.355	-40.609	-0.398	0.207
-409.340	-31.009	-0.240	0.136
-408.325	-41.210	-0.194	0.100
-407.311	-149.307	0.183	-0.015
-406.296	157.672	0.113	-0.157
-405.282	119.884	0.142	0.177
-404.267	-42.049	0.089	0.046
-403.252	-200.000	0.030	0.365
-402.238	101.685	-0.130	-0.152
-401.223	-200.000	-0.010	-0.081
-400.209	-155.821	-0.144	0.009
-399.194	18.061	-0.048	-0.038
-398.179	-200.000	0.031	-0.186
-397.165	526.599	-0.164	0.389
-396.150	-68.775	0.205	0.080
-395.136	800.000	-0.101	0.305
-394.121	-19.672	-0.142	0.088
-393.106	-118.567	-0.256	-0.045
-392.092	800.000	0.084	0.274
-391.077	-200.000	-0.028	0.170
-390.063	-200.000	-0.460	0.002
-389.048	-97.422	0.140	-0.037
-388.033	3.436	0.142	-0.103
-387.019	-200.000	-0.086	0.408
-386.004	100.042	-0.153	0.178
-384.990	50.179	0.093	0.088
-383.975	-95.052	0.252	0.068
-382.960	800.000	0.077	0.240
-381.946	-67.485	0.089	-0.035
-380.931	-86.831	-0.094	0.029
-379.917	66.069	0.163	0.166
-378.902	130.024	-0.178	-0.229
-377.888	-200.000	0.004	-0.387
-376.873	800.000	0.048	0.189
-375.858	5.490	0.168	-0.124
-374.844	508.324	-0.018	0.041
-373.829	25.079	0.198	-0.165
-372.815	-44.235	-0.325	0.163
-371.800	56.952	0.115	-0.113
-370.785	369.854	-0.026	0.052
-369.771	-87.950	-0.365	0.110
-368.756	-112.865	0.224	-0.045
-367.742	-200.000	0.009	0.084
-366.727	-155.988	0.081	-0.005
-365.712	439.894	0.103	0.225
-364.698	26.341	0.180	-0.151
-363.683	193.134	0.077	-0.116
-362.669	-200.000	-0.021	0.112
-361.654	34.435	0.245	0.214
-360.639	36.554	0.080	-0.070
-359.625	149.063	-0.037	0.051
-358.610	-200.000	0.001	-0.050
-357.596	110.158	-0.060	0.073
-356.581	436.959	-0.076	0.165
-355.566	446.655	-0.140	-0.308
-354.552	-13.256	-0.030	0.020
-353.537	-65.760	0.097	-0.039
-352.523	-200.000	0.045	-0.201
-351.508	-83.956	-0.074	0.024
-350.493	-48.724	0.291	-0.140
-349.479	800.000	-0.077	-0.216
-348.464	111.700	0.148	-0.179
-347.450	592.334	0.113	0.281
-346.435	16.832	0.181	0.144
-345.420	800.000	0.034	0.131
-344.406	33.121	0.065	0.057
-343.391	45.223	0.150	0.139
-342.377	731.640	-0.082	-0.220
-341.362	45.480	-0.171	0.158
-340.348	-63.747	0.301	-0.124
-339.333	-100.241	0.230	-0.057
-338.318	-29.684	0.190	0.109
-337.304	-200.000	0.014	0.163
-336.289	232.199	0.027	0.045
-335.275	223.342	0.177	0.286
-334.260	277.367	-0.105	-0.187
-333.245	-166.133	0.589	-0.025
-332.231	-123.991	0.287	-0.045
-331.216	800.000	0.050	0.166
-330.202	-55.011	0.076	-0.034
-329.187	203.592	0.151	-0.234
-328.172	37.001	-0.137	0.122
-327.158	-43.375	-0.214	-0.108
-326.143	-73.806	-0.371	-0.135
-325.129	-69.080	-0.312	0.120
-324.114	176.325	-0.050	0.072
-323.099	52.547	0.200	-0.191
-322.085	-89.470	-0.052	0.015
-321.070	800.000	-0.107	-0.321
-320.056	40.553	-0.093	-0.084
-319.041	120.004	0.279	-0.346
-318.026	69.160	-0.154	-0.159
-317.012	175.245	-0.167	-0.242
-315.997	-158.515	-0.078	-0.005
-314.983	-200.000	0.006	0.088
-313.968	-35.832	-0.152	0.082
-312.953	-200.000	-0.004	-0.152
-311.939	-200.000	-0.024	-0.214
-310.924	3.213	-0.010	-0.007
-309.910	100.765	0.076	-0.088
-308.895	-200.000	-0.010	-0.170
-307.880	306.048	0.150	-0.279
-306.866	-200.000	-0.047	-0.354
-305.851	41.589	0.111	-0.101
-304.837	-182.261	0.237	-0.004
-303.822	18.065	0.171	0.136
-302.807	800.000	-0.019	-0.070
-301.793	138.518	-0.187	-0.246
-300.778	216.486	-0.037	0.059
-299.764	-200.000	0.007	0.271
-298.749	33.629	-0.166	0.144
-297.735	-70.265	-0.111	-0.042
-296.720	335.497	-0.048	-0.093
-295.705	-111.969	0.174	-0.035
-294.691	-65.888	-0.093	0.037
-293.676	-110.252	0.079	0.016
-292.662	-192.478	0.368	0.003
-291.647	-181.554	0.148	0.003
-290.632	-49.271	0.186	-0.089
-289.618	-46.340	-0.225	0.110
-288.603	-95.727	-0.374	-0.100
-287.589	-167.695	-0.204	0.008
-286.574	213.031	0.104	0.164
-285.559	217.530	0.103	0.164
-284.545	221.107	0.113	0.182
-283.530	-98.154	-0.367	-0.094
-282.516	120.723	0.138	0.172
-281.501	453.639	0.063	-0.139
-280.486	11.006	-0.227	-0.174
-279.472	178.766	-0.176	-0.256
-278.457	90.100	-0.093	-0.104
-277.443	67.028	0.265	0.270
-276.428	104.959	-0.189	0.222
-275.413	-200.000	0.001	0.048
-274.399	181.301	-0.158	0.233
-273.384	91.857	0.073	-0.082
-272.370	-53.358	-0.301	-0.138
-271.355	50.395	0.108	-0.102
-270.340	98.195	-0.143	0.164
-269.326	179.225	0.165	0.240
-268.311	-79.147	0.120	0.041
-267.297	-127.822	-0.302	-0.044
-266.282	-200.000	-0.033	0.166
-265.267	-200.000	-0.016	0.502
-264.253	-200.000	0.041	0.242
-263.238	454.425	0.100	-0.221
-262.224	800.000	0.062	0.239
-261.209	50.244	0.067	-0.064
-260.195	-57.045	-0.227	-0.100
-259.180	-98.102	-0.243	0.062
-258.165	4.497	0.218	0.160
-257.151	39.389	-0.211	-0.189
-256.136	105.255	-0.172	0.202
-255.122	57.766	-0.225	-0.220
-254.107	683.625	0.063	0.164
-253.092	39.113	0.341	-0.304
-252.078	84.916	0.138	0.151
-251.063	29.903	0.065	-0.056
-250.049	-17.186	0.224	0.141
-249.034	101.236	0.078	-0.091
-248.019	-144.962	-0.201	-0.018
-247.005	-94.520	-0.112	-0.030
-245.990	49.725	0.207	0.194
-244.976	-200.000	-0.015	0.085
-243.961	9.173	-0.098	-0.074
-242.946	-200.000	-0.021	0.095
-241.932	255.172	-0.133	0.228
-240.917	614.197	-0.104	-0.261
-239.903	-70.017	-0.215	-0.082
-238.888	-188.723	0.140	-0.002
-237.873	160.459	-0.086	-0.120
-236.859	113.292	0.118	0.143
-235.844	-181.812	-0.053	-0.001
-234.830	-31.787	0.142	0.079
-233.815	800.000	-0.048	0.170
-232.800	-166.640	-0.141	0.006
-231.786	256.729	-0.142	-0.243
-230.771	-200.000	0.012	0.068
-229.757	-157.429	-0.240	0.014
-228.742	249.921	0.148	-0.250
-227.727	-89.906	-0.480	-0.140
-226.713	0.890	-0.175	-0.125
-225.698	-10.097	0.191	-0.126
-224.684	217.070	0.142	0.226
-223.669	-88.083	-0.176	-0.053
-222.655	800.000	-0.052	-0.216
-221.640	24.457	-0.361	0.298
-220.625	64.533	0.095	0.095
-219.611	800.000	-0.090	0.256
-218.596	150.668	0.125	-0.169
-217.582	343.771	0.039	0.076
-216.567	800.000	0.037	-0.128
-215.552	152.257	-0.148	0.201
-214.538	414.096	-0.078	-0.165
-213.523	145.779	-0.063	0.084
-212.509	7.750	-0.269	0.201
-211.494	-101.597	0.094	-0.023
-210.479	-25.760	0.343	-0.202
-209.465	-105.127	-0.065	0.015
-208.450	-200.000	-0.050	0.246
-207.436	-149.609	-0.137	-0.011
-206.421	65.604	-0.148	0.150
-205.406	-73.164	0.302	0.110
-204.392	41.768	-0.185	0.167
-203.377	-112.803	0.184	-0.036
-202.363	800.000	0.107	-0.327
-201.348	-72.374	-0.193	0.071
-200.333	-46.012	0.178	0.087
-199.319	800.000	0.019	0.055
-198.304	-200.000	0.037	0.199
-197.290	385.206	0.013	-0.026
-196.275	-200.000	0.009	-0.058
-195.260	-110.376	0.498	-0.103
-194.246	669.330	-0.050	-0.129
-193.231	189.716	-0.043	0.064
-192.217	-117.596	0.452	-0.081
-191.202	-200.000	-0.006	-0.327
-190.187	800.000	-0.071	0.255
-189.173	-100.802	0.702	-0.172
-188.158	-52.306	0.104	-0.048
-187.144	-20.761	-0.073	-0.044
-186.129	129.958	-0.074	-0.095
-185.114	-91.012	0.042	-0.012
-184.100	37.141	-0.227	0.200
-183.085	230.463	0.060	0.097
-182.071	-31.843	0.266	0.148
-181.056	-60.971	0.146	0.061
-180.042	-115.273	-0.380	-0.072
-179.027	550.646	-0.103	0.246
-178.012	-74.722	0.024	0.009
-176.998	-200.000	0.030	-0.133
-175.983	-80.244	-0.341	-0.114
-174.969	1.076	0.097	0.069
-173.954	97.290	0.061	0.069
-172.939	-200.000	-0.020	0.398
-171.925	-63.587	-0.135	0.055
-170.910	191.693	0.084	-0.127
-169.896	21.095	-0.225	-0.181
-168.881	-143.293	-0.244	0.023
-167.866	138.360	0.084	-0.110
-166.852	800.000	-0.029	0.110
-165.837	-142.855	-0.081	-0.008
-164.823	800.000	0.069	0.267
-163.808	-176.924	-0.304	0.008
-162.793	-50.482	-0.209	-0.098
-161.779	-52.044	-0.069	0.032
-160.764	32.534	0.238	-0.205
-159.750	-200.000	0.002	0.244
-158.735	1.207	-0.277	0.198
-157.720	-168.109	-0.205	0.008
-156.706	-95.314	-0.269	0.072
-155.691	225.876	-0.170	-0.274
-154.677	-190.076	0.309	0.003
-153.662	72.613	-0.063	0.066
-152.647	145.623	0.034	-0.045
-151.633	-153.655	0.116	0.008
-150.618	450.323	-0.058	0.127
-149.604	-69.328	0.117	-0.045
-148.589	27.336	-0.220	-0.184
-147.574	800.000	0.143	0.513
-146.560	-41.842	0.487	0.248
-145.545	153.755	0.192	-0.261
-144.531	-200.000	-0.031	-0.140
-143.516	66.593	-0.220	0.223
-142.502	18.686	0.361	0.287
-141.487	800.000	-0.011	-0.043
-140.472	-120.935	-0.455	-0.076
-139.458	800.000	0.068	0.281
-138.443	29.760	0.097	-0.082
-137.429	-59.724	-0.283	0.120
-136.414	98.508	0.182	-0.208
-135.399	-78.164	0.184	0.063
-134.385	800.000	0.028	-0.093
-133.370	-36.020	0.085	0.046
-132.356	-200.000	-0.031	0.310
-131.341	-200.000	0.033	-0.156
-130.326	386.919	0.078	-0.161
-129.312	107.964	0.290	-0.343
-128.297	-67.841	-0.207	-0.080
-127.283	-111.783	0.115	0.023
-126.268	-93.055	0.191	-0.053
-125.253	51.099	0.048	0.046
-124.239	-200.000	-0.022	-0.159
-123.224	237.445	-0.055	0.090
-122.210	222.867	-0.061	0.098
-121.195	-49.705	-0.217	0.103
-120.180	6.457	0.058	-0.043
-119.166	-200.000	-0.040	-0.319
-118.151	147.542	0.173	0.231
-117.137	185.325	-0.110	0.162
-116.122	116.810	0.068	-0.083
-115.107	800.000	-0.068	0.246
-114.093	-167.626	0.116	-0.005
-113.078	67.793	-0.160	0.163
-112.064	92.487	0.100	-0.111
-111.049	-169.298	0.318	0.012
-110.034	10.149	-0.183	-0.138
-109.020	800.000	0.036	-0.106
-108.005	-0.402	-0.310	0.219
-106.991	-117.578	0.354	-0.063
-105.976	100.993	0.134	0.155
-104.962	-200.000	0.036	0.196
-103.947	556.592	-0.033	-0.078
-102.932	164.050	-0.196	-0.274
-101.918	268.876	0.169	-0.293
-100.903	604.412	0.049	-0.121
-99.889	-73.889	0.247	-0.089
-98.874	-10.434	-0.123	0.081
-97.859	-64.460	0.397	0.160
-96.845	287.202	0.127	0.228
-95.830	-200.000	0.015	0.101
-94.816	-13.249	-0.316	-0.203
-93.801	663.963	-0.039	0.101
-92.786	243.186	-0.162	0.270
-91.772	142.161	-0.157	0.206
-90.757	681.254	0.103	-0.266
-89.743	361.047	-0.033	-0.066
-88.728	377.241	-0.184	-0.373
-87.713	250.070	-0.032	-0.054
-86.699	800.000	0.040	-0.111
-85.684	709.590	0.133	-0.348
-84.670	15.210	-0.135	0.105
-83.655	79.623	-0.105	-0.112
-82.640	30.143	-0.175	-0.148
-81.626	800.000	0.054	0.231
-80.611	-64.177	0.299	0.121
-79.597	-48.837	0.130	-0.062
-78.582	-114.897	0.179	-0.034
-77.567	296.218	-0.060	-0.109
-76.553	26.802	0.154	-0.128
-75.538	-110.848	-0.106	-0.022
-74.524	195.689	-0.057	-0.086
-73.509	-134.560	-0.174	-0.021
-72.494	271.846	0.052	0.090
-71.480	-200.000	0.082	0.527
-70.465	800.000	0.140	0.386
-69.451	-1.482	0.290	0.203
-68.436	-200.000	-0.001	-0.030
-67.422	98.906	-0.077	-0.088
-66.407	102.475	-0.063	-0.073
-65.392	-87.590	-0.135	-0.040
-64.378	-13.408	-0.192	0.123
-63.363	217.100	-0.179	-0.283
-62.349	-146.110	0.262	0.023
-61.334	168.857	-0.685	-0.968
-60.319	-200.000	0.133	0.611
-59.305	428.624	-0.337	-0.721
-58.290	474.271	0.424	0.946
-57.276	374.133	0.733	1.477
-56.261	-200.000	96.001	583.853
-55.246	591.187	1409.269	3444.233
-54.232	184.835	2614.168	3838.790
-53.217	106.997	2339.910	2752.290
-52.203	38.012	2095.888	1845.706
-51.188	32.992	2010.023	1724.334
-50.173	31.582	1991.362	1695.499
-49.159	46.612	2040.707	1875.646
-48.144	47.917	2058.170	1903.590
-47.130	33.794	2020.604	1740.497
-46.115	31.375	2010.300	1709.450
-45.100	31.313	2007.201	1706.184
-44.086	31.271	2004.679	1703.591
-43.071	31.238	2002.293	1701.194
-42.057	31.188	2000.170	1698.867
-41.042	31.159	1998.230	1696.888
-40.027	31.293	1995.857	1696.020
-39.013	31.295	1993.883	1694.295
-37.998	31.378	1992.439	1693.756
-36.984	31.412	1990.184	1692.078
-35.969	31.425	1988.264	1690.496
-34.954	31.440	1986.239	1688.842
-33.940	31.395	1985.384	1687.639
-32.925	31.410	1983.971	1686.508
-31.911	31.422	1981.813	1684.720
-30.896	31.371	1980.455	1683.033
-29.881	31.381	1979.055	1681.870
-28.867	31.517	1976.860	1681.164
-27.852	31.489	1974.938	1679.209
-26.838	31.407	1973.509	1677.189
-25.823	31.427	1971.711	1675.780
-24.809	31.425	1969.853	1674.110
-23.794	31.457	1968.046	1672.794
-22.779	31.494	1965.368	1670.786
-21.765	31.391	1964.534	1669.085
-20.750	31.412	1962.724	1667.669
-19.736	31.434	1960.800	1666.169
-18.721	31.489	1959.773	1665.720
-17.706	31.429	1957.868	1663.497
-16.692	31.474	1956.082	1662.314
-15.677	31.444	1954.639	1660.755
-14.663	31.437	1953.101	1659.327
-13.648	31.441	1951.365	1657.816
-12.633	31.423	1950.634	1656.968
-11.619	31.429	1949.212	1655.750
-10.604	31.408	1948.036	1654.503
-9.590	31.363	1947.023	1653.172
-8.575	31.419	1945.136	1652.002
-7.560	31.526	1943.538	1651.524
-6.546	31.509	1942.449	1650.387
-5.531	31.409	1941.617	1648.732
-4.517	31.448	1940.192	1647.801
-3.502	31.493	1938.952	1647.077
-2.487	31.476	1937.804	1645.887
-1.473	31.483	1937.006	1645.201
-0.458	31.602	1932.118	1642.034
0.556	33.013	1914.228	1619.915
1.571	29.548	1897.291	1575.933
2.586	26.012	1921.721	1565.452
3.600	25.058	1959.101	1587.321
4.615	24.005	1952.784	1572.757
5.629	17.932	1846.334	1435.983
6.644	8.424	1725.499	1266.822
7.659	4.210	1688.755	1206.983
8.673	3.903	1685.600	1202.234
9.688	3.851	1684.061	1200.628
10.702	3.826	1682.956	1199.536
11.717	3.840	1679.714	1197.225
12.731	4.313	1679.706	1200.778
13.746	10.501	1694.075	1259.122
14.761	18.573	1710.838	1334.533
15.775	21.014	1713.844	1355.757
16.790	20.414	1711.979	1349.500
17.804	19.435	1708.446	1339.002
18.819	18.460	1705.041	1328.660
19.834	17.835	1702.449	1321.684
20.848	17.554	1701.215	1318.432
21.863	17.372	1699.846	1315.849
22.877	17.089	1698.160	1312.242
23.892	16.845	1697.253	1309.538
24.907	16.794	1696.433	1308.398
25.921	16.835	1694.594	1307.175
26.936	16.846	1693.652	1306.417
27.950	16.888	1692.885	1306.035
28.965	16.921	1692.187	1305.637
29.980	16.909	1691.311	1304.752
30.994	17.047	1690.394	1304.993
32.009	17.101	1689.345	1304.483
33.023	17.084	1688.835	1303.837
34.038	17.174	1687.520	1303.398
35.053	17.197	1686.156	1302.407
36.067	17.091	1685.083	1300.651
37.082	16.993	1684.015	1298.964
38.096	17.099	1682.102	1298.185
39.111	17.070	1681.818	1297.627
40.126	17.060	1681.253	1297.003
41.140	17.130	1679.904	1296.380
42.155	16.881	1678.719	1293.449
43.169	16.725	1677.389	1291.121
44.184	16.599	1676.300	1289.210
45.199	16.624	1675.529	1288.688
46.213	16.662	1673.543	1287.342
47.228	16.706	1672.647	1286.874
48.242	16.898	1671.036	1286.971
49.257	16.872	1670.654	1286.368
50.271	16.967	1669.086	1285.771
51.286	16.834	1668.774	1284.405
52.301	16.894	1666.755	1283.192
53.315	16.980	1665.123	1282.470
54.330	16.811	1663.764	1280.036
55.344	16.758	1662.166	1278.295
56.359	16.653	1660.596	1276.178
57.374	16.755	1659.186	1275.753
58.388	16.822	1658.490	1275.607
59.403	16.757	1657.008	1273.869
60.417	16.685	1655.843	1272.322
61.432	16.614	1655.140	1271.132
62.447	16.678	1653.108	1269.937
63.461	16.535	1652.569	1268.341
64.476	16.546	1651.051	1267.144
65.490	16.496	1650.106	1265.931
66.505	16.444	1649.401	1264.895
67.520	16.507	1647.623	1263.887
68.534	16.595	1646.720	1263.741
69.549	16.610	1645.695	1262.952
70.563	16.538	1644.641	1261.496
71.578	16.473	1643.650	1260.143
72.593	16.410	1642.648	1258.795
73.607	16.454	1641.062	1257.792
74.622	16.480	1639.671	1256.809
75.636	16.380	1639.264	1255.643
76.651	16.389	1638.477	1254.992
77.666	16.430	1637.434	1254.389
78.680	16.417	1636.950	1253.809
79.695	16.431	1636.007	1253.082
80.709	16.558	1634.482	1252.746
81.724	16.550	1634.216	1252.367
82.739	16.637	1633.285	1252.191
83.753	16.785	1632.011	1252.195
84.768	16.769	1631.390	1251.491
85.782	16.877	1630.700	1251.648
86.797	16.994	1630.071	1251.917
87.812	16.993	1628.869	1250.874
88.826	16.961	1627.561	1249.524
89.841	16.940	1626.865	1248.722
90.855	17.016	1626.000	1248.510
91.870	16.946	1624.986	1247.109
92.884	16.990	1624.088	1246.630
93.899	17.016	1623.088	1245.944
94.914	17.025	1621.824	1244.931
95.928	17.064	1620.649	1244.205
96.943	17.171	1619.020	1243.624
97.957	17.135	1617.903	1242.397
98.972	17.070	1616.180	1240.485
99.987	16.995	1615.087	1238.989
101.001	16.965	1613.296	1237.286
102.016	16.975	1612.100	1236.336
103.030	16.892	1610.730	1234.567
104.045	17.010	1609.693	1234.520
105.060	16.997	1608.244	1233.210
106.074	16.939	1606.525	1231.361
107.089	16.857	1604.858	1229.382
108.103	16.727	1603.043	1226.934
109.118	16.599	1601.423	1224.661
110.133	16.485	1600.585	1223.088
111.147	16.586	1598.979	1222.486
112.162	16.548	1597.783	1221.184
113.176	16.690	1596.145	1220.850
114.191	16.695	1594.858	1219.792
115.206	16.730	1593.453	1218.862
116.220	16.750	1592.408	1218.101
117.235	16.744	1590.878	1216.781
118.249	16.674	1589.745	1215.302
119.264	16.619	1588.666	1213.972
120.279	16.691	1586.644	1212.838
121.293	16.584	1584.906	1210.635
122.308	16.563	1583.590	1209.374
123.322	16.457	1582.552	1207.716
124.337	16.442	1581.074	1206.378
125.352	16.529	1579.366	1205.582
126.366	16.543	1578.362	1204.813
127.381	16.531	1577.231	1203.760
128.395	16.434	1576.368	1202.305
129.410	16.384	1574.697	1200.566
130.424	16.542	1573.280	1200.502
131.439	16.598	1571.836	1199.693
132.454	16.617	1571.005	1199.083
133.468	16.668	1569.342	1198.070
134.483	16.719	1568.568	1197.731
135.497	16.788	1566.663	1196.658
136.512	16.751	1565.766	1195.606
137.527	16.788	1564.138	1194.517
138.541	16.777	1563.349	1193.734
139.556	16.799	1561.551	1192.412
140.570	16.883	1559.858	1191.606
141.585	16.858	1558.929	1190.612
142.600	16.996	1557.825	1190.633
143.614	17.005	1556.628	1189.676
144.629	17.052	1555.608	1189.119
145.643	17.157	1553.863	1188.412
146.658	17.163	1552.611	1187.394
147.673	17.099	1550.923	1185.553
148.687	17.006	1549.344	1183.590
149.702	16.974	1547.744	1182.042
150.716	16.923	1546.188	1180.391
151.731	16.880	1544.822	1178.950
152.746	16.874	1543.614	1177.876
153.760	16.779	1542.314	1176.123
154.775	16.894	1540.894	1175.736
155.789	16.921	1540.054	1175.175
156.804	16.997	1538.397	1174.334
157.819	17.040	1537.733	1174.021
158.833	16.954	1536.936	1172.711
159.848	17.066	1535.569	1172.343
160.862	17.158	1534.538	1172.082
161.877	17.211	1532.977	1171.154
162.892	17.133	1531.884	1169.676
163.906	16.925	1530.442	1167.044
164.921	17.011	1528.821	1166.293
165.935	16.952	1528.122	1165.249
166.950	16.936	1526.953	1164.146
167.964	16.985	1525.720	1163.438
168.979	17.010	1524.858	1162.851
169.994	17.097	1523.559	1162.352
171.008	16.911	1522.860	1160.446
172.023	17.036	1521.613	1160.244
173.037	17.118	1520.135	1159.577
174.052	17.226	1519.264	1159.546
175.067	17.308	1517.956	1159.005
176.081	17.200	1516.784	1157.273
177.096	17.019	1515.807	1155.190
178.110	16.972	1514.267	1153.594
179.125	17.003	1513.321	1152.987
180.140	17.092	1511.952	1152.443
181.154	17.094	1510.869	1151.528
182.169	17.076	1510.060	1150.690
183.183	17.154	1508.787	1150.144
184.198	17.273	1507.790	1150.092
185.213	17.248	1507.087	1149.285
186.227	17.355	1505.651	1148.811
187.242	17.312	1504.924	1147.864
188.256	17.352	1503.757	1147.142
189.271	17.405	1502.765	1146.637
190.286	17.441	1501.673	1145.945
191.300	17.417	1500.746	1144.977
192.315	17.155	1498.628	1141.501
193.329	17.014	1497.197	1139.359
194.344	16.985	1496.272	1138.360
195.359	16.996	1495.665	1137.875
196.373	17.116	1494.404	1137.617
197.388	17.195	1493.910	1137.666
198.402	17.195	1492.965	1136.847
199.417	17.331	1491.650	1136.659
200.432	17.476	1490.791	1136.867
201.446	17.576	1489.673	1136.585
202.461	17.696	1488.656	1136.506
203.475	17.772	1487.422	1135.969
204.490	17.760	1486.660	1135.209
205.504	17.701	1485.390	1133.749
206.519	17.542	1484.377	1131.819
207.534	17.458	1482.794	1129.950
208.548	17.421	1482.151	1129.113
209.563	17.475	1480.895	1128.419
210.577	17.511	1479.688	1127.635
211.592	17.410	1479.367	1126.621
212.607	17.556	1478.181	1126.589
213.621	17.667	1477.653	1126.815
214.636	17.736	1477.228	1126.852
215.650	17.683	1475.579	1125.145
216.665	17.642	1474.534	1123.974
217.680	17.705	1473.725	1123.673
218.694	17.763	1473.696	1123.935
219.709	17.836	1472.448	1123.366
220.723	17.821	1471.468	1122.421
221.738	17.803	1470.263	1121.283
222.753	17.797	1469.708	1120.717
223.767	17.752	1468.943	1119.739
224.782	17.816	1467.797	1119.190
225.796	17.835	1466.409	1118.155
226.811	17.921	1465.782	1118.146
227.826	17.927	1465.340	1117.747
228.840	17.931	1463.961	1116.619
229.855	17.948	1463.169	1116.029
230.869	17.855	1462.154	1114.552
231.884	17.910	1460.969	1113.909
232.899	17.839	1459.780	1112.440
233.913	17.762	1458.807	1111.099
234.928	17.699	1457.298	1109.441
235.942	17.708	1455.849	1108.296
236.957	17.597	1455.276	1107.042
237.972	17.625	1454.189	1106.301
238.986	17.658	1452.721	1105.300
240.001	17.720	1451.816	1104.915
241.015	17.672	1451.031	1103.907
242.030	17.815	1449.380	1103.479
243.045	17.833	1449.109	1103.291
244.059	17.861	1447.943	1102.485
245.074	17.863	1446.932	1101.634
246.088	17.922	1446.214	1101.370
247.103	17.960	1445.317	1100.833
248.117	18.023	1444.639	1100.625
249.132	18.080	1444.077	1100.462
250.147	18.217	1443.278	1100.642
251.161	18.336	1442.865	1100.995
252.176	18.333	1442.568	1100.652
253.190	18.394	1441.688	1100.273
254.205	18.562	1440.291	1100.189
255.220	18.670	1439.113	1099.881
256.234	18.648	1438.636	1099.277
257.249	18.672	1438.007	1098.854
258.263	18.539	1437.461	1097.489
259.278	18.547	1436.876	1097.000
260.293	18.509	1435.411	1095.539
261.307	18.593	1434.372	1095.186
262.322	18.563	1434.123	1094.708
263.336	18.734	1433.389	1095.140
264.351	18.713	1432.319	1094.089
265.366	18.806	1430.711	1093.356
266.380	18.790	1429.868	1092.519
267.395	18.820	1429.015	1091.958
268.409	18.715	1428.396	1090.724
269.424	18.727	1427.327	1089.887
270.439	18.608	1426.181	1088.160
271.453	18.643	1424.924	1087.323
272.468	18.691	1424.046	1086.866
273.482	18.637	1423.244	1085.812
274.497	18.543	1422.650	1084.668
275.512	18.560	1421.725	1083.973
276.526	18.581	1420.613	1083.167
277.541	18.548	1419.684	1082.149
278.555	18.508	1419.693	1081.809
279.570	18.546	1418.677	1081.181
280.585	18.744	1417.082	1081.119
281.599	18.759	1416.860	1080.943
282.614	18.832	1415.543	1080.306
283.628	18.859	1414.323	1079.445
284.643	18.734	1413.171	1077.685
285.657	18.632	1412.173	1076.193
286.672	18.687	1410.946	1075.506
287.687	18.665	1410.076	1074.609
288.701	18.701	1409.231	1074.095
289.716	18.748	1408.429	1073.685
290.730	18.749	1407.515	1072.897
291.745	18.818	1406.362	1072.355
292.760	18.827	1405.459	1071.628
293.774	18.813	1404.729	1070.889
294.789	18.827	1403.852	1070.212
295.803	18.818	1403.350	1069.677
296.818	18.911	1402.388	1069.430
297.833	18.941	1401.245	1068.652
298.847	18.823	1400.419	1067.191
299.862	18.809	1399.113	1066.019
300.876	18.847	1398.311	1065.548
301.891	18.896	1396.976	1064.739
302.906	18.972	1396.566	1064.803
303.920	18.940	1396.121	1064.168
304.935	19.120	1395.370	1064.614
305.949	19.168	1394.426	1064.099
306.964	19.267	1393.184	1063.667
307.979	19.202	1392.621	1062.742
308.993	19.199	1391.557	1061.819
310.008	19.027	1390.825	1060.107
311.022	19.141	1389.695	1059.856
312.037	19.277	1388.506	1059.689
313.052	19.258	1387.821	1058.954
314.066	19.261	1386.676	1058.007
315.081	19.187	1385.042	1056.213
316.095	19.068	1384.122	1054.688
317.110	18.992	1383.404	1053.585
318.125	19.002	1382.263	1052.684
319.139	19.075	1381.206	1052.230
320.154	18.986	1380.380	1050.964
321.168	19.093	1379.279	1050.686
322.183	19.064	1378.120	1049.536
323.197	19.090	1377.399	1049.047
324.212	19.030	1376.860	1048.182
325.227	19.126	1376.240	1048.202
326.241	19.138	1375.287	1047.457
327.256	19.096	1374.456	1046.472
328.270	19.182	1373.000	1045.797
329.285	19.189	1372.141	1045.090
330.300	19.106	1371.280	1043.837
331.314	19.200	1369.977	1043.323
332.329	19.201	1369.448	1042.837
333.343	19.182	1368.393	1041.824
334.358	19.153	1367.626	1040.975
335.373	19.216	1367.469	1041.144
336.387	19.290	1366.410	1040.693
337.402	19.326	1365.869	1040.406
338.416	19.387	1364.769	1039.844
339.431	19.376	1364.660	1039.600
340.446	19.461	1363.441	1039.090
341.460	19.456	1362.850	1038.521
342.475	19.548	1361.786	1038.168
343.489	19.633	1361.406	1038.299
344.504	19.756	1359.767	1037.695
345.519	19.686	1359.523	1036.995
346.533	19.732	1358.187	1036.160
347.548	19.754	1357.467	1035.653
348.562	19.846	1356.695	1035.523
349.577	19.857	1356.026	1034.987
350.592	19.793	1354.944	1033.686
351.606	19.672	1353.813	1032.008
352.621	19.571	1352.654	1030.432
353.635	19.488	1351.589	1029.037
354.650	19.575	1350.458	1028.602
355.665	19.663	1349.413	1028.236
356.679	19.551	1348.727	1026.958
357.694	19.565	1347.347	1025.900
358.708	19.687	1346.437	1025.840
359.723	19.632	1345.619	1024.799
360.738	19.787	1344.297	1024.623
361.752	19.693	1343.381	1023.275
362.767	19.722	1342.265	1022.506
363.781	19.777	1341.575	1022.219
364.796	19.780	1341.066	1021.754
365.810	19.782	1340.246	1021.050
366.825	19.967	1339.501	1021.485
367.840	19.945	1338.971	1020.860
368.854	20.056	1338.494	1021.060
369.869	20.236	1337.783	1021.488
370.883	20.180	1336.974	1020.453
371.898	20.113	1336.226	1019.399
372.913	20.048	1335.172	1018.119
373.927	20.028	1334.140	1017.124
374.942	19.961	1333.596	1016.226
375.956	20.092	1332.801	1016.302
376.971	20.214	1331.635	1016.038
377.986	20.175	1331.224	1015.404
379.000	20.151	1330.498	1014.619
380.015	20.268	1329.494	1014.446
381.029	20.339	1329.011	1014.403
382.044	20.271	1328.448	1013.487
383.059	20.256	1327.867	1012.868
384.073	20.287	1327.048	1012.334
385.088	20.287	1326.226	1011.616
386.102	20.309	1325.664	1011.231
387.117	20.366	1324.656	1010.703
388.132	20.347	1323.591	1009.687
389.146	20.228	1322.804	1008.309
390.161	20.101	1322.130	1006.967
391.175	20.120	1321.854	1006.775
392.190	20.190	1320.555	1006.105
393.205	20.280	1319.598	1005.808
394.219	20.322	1318.797	1005.351
395.234	20.291	1317.792	1004.315
396.248	20.229	1316.251	1002.694
397.263	20.297	1314.657	1001.785
398.278	20.267	1313.478	1000.627
399.292	20.267	1312.172	999.541
400.307	20.180	1311.028	998.084
401.321	20.230	1309.609	997.203
402.336	20.073	1309.310	995.982
403.350	20.108	1307.964	995.071
404.365	20.072	1307.237	994.226
405.380	20.275	1306.053	994.397
406.394	20.269	1305.308	993.708
407.409	20.354	1305.016	993.883
408.423	20.367	1304.561	993.523
409.438	20.473	1303.568	993.285
410.453	20.529	1302.659	992.826
411.467	20.741	1301.956	993.413
412.482	20.669	1301.724	992.736
413.496	20.714	1300.665	992.098
414.511	20.658	1300.550	991.604
415.526	20.734	1299.385	991.061
416.540	20.790	1299.131	991.099
417.555	20.831	1298.135	990.484
418.569	20.890	1297.283	990.081
419.584	20.849	1297.150	989.661
420.599	20.855	1296.577	989.171
421.613	142.354	1433.774	1791.649
422.628	137.653	1453.737	1791.777
