DTS Sentinel unit serial number:	SN413079Multiplexer serial number:	ORYXHardware model number:	OX4-SRSoftware version number:	ORYX F/W v4.00 Oryx Data Collector v3.7.2.0data status	okinstallation	princeton_trtdifferential loss correction	single-endedforward channel	channel 4reverse channel	N/Adate	2019/09/19time	04:13:35forward acquisition time	60.00reverse acquisition time	0.00gamma	496.2192k internal	0.2340k external	0.2340temperature offset calibration	1.0031default loss term (dB/km)	0.3790temperature slope calibration	1.0000multiplexer offset coefficient	1.0000multiplexer slope coefficient	1.0000fibre end	0.00T internal ref (°C)	20.31T ext. ref 1 (°C)	0.64T ext. ref 2 (°C)	13.80length (m)	temperature (°C)	Stokes	anti-Stokes-747.200	-151.024	0.391	-0.030
-746.185	67.345	-0.332	0.340
-745.171	-158.400	-0.158	-0.009
-744.156	-200.000	-0.057	0.262
-743.142	-69.255	0.159	-0.061
-742.127	-26.959	-0.080	0.047
-741.112	-62.958	-0.186	0.077
-740.098	-8.277	0.105	0.071
-739.083	-200.000	0.005	-0.117
-738.069	-24.699	-0.420	0.250
-737.054	34.861	0.168	0.147
-736.039	-133.332	-0.201	0.025
-735.025	604.936	-0.024	0.060
-734.010	-117.442	-0.310	0.056
-732.996	83.753	-0.094	0.102
-731.981	-61.183	0.191	0.081
-730.966	-113.058	-0.476	-0.094
-729.952	-200.000	0.026	-0.146
-728.937	120.828	0.097	0.121
-727.923	-60.095	0.196	0.084
-726.908	-101.301	-0.370	-0.091
-725.894	-162.538	-0.113	0.006
-724.879	800.000	0.109	-0.434
-723.864	145.127	0.053	-0.071
-722.850	800.000	0.004	-0.013
-721.835	38.691	-0.242	-0.216
-720.821	-126.748	-0.280	-0.041
-719.806	800.000	0.109	-0.316
-718.791	38.581	-0.440	-0.393
-717.777	-200.000	-0.004	0.056
-716.762	78.919	0.321	-0.344
-715.748	51.641	-0.178	0.170
-714.733	-200.000	0.018	-0.128
-713.718	135.718	-0.100	0.130
-712.704	-88.236	-0.226	0.068
-711.689	-200.000	0.051	0.247
-710.675	800.000	-0.153	0.438
-709.660	243.009	0.049	0.083
-708.645	366.796	0.167	0.336
-707.631	-34.588	-0.104	0.057
-706.616	-140.082	-0.363	0.038
-705.602	135.495	0.287	-0.373
-704.587	-3.207	-0.300	0.210
-703.572	27.986	0.085	-0.071
-702.558	131.437	0.113	-0.145
-701.543	-68.522	-0.144	-0.056
-700.529	-98.836	-0.413	0.105
-699.514	800.000	0.024	0.069
-698.499	-34.560	-0.337	0.184
-697.485	-200.000	0.004	-0.193
-696.470	-200.000	-0.008	-0.123
-695.456	164.744	-0.110	-0.155
-694.441	212.423	-0.104	-0.165
-693.426	-52.220	-0.125	0.058
-692.412	101.743	-0.145	-0.169
-691.397	-133.871	-0.173	0.021
-690.383	317.756	-0.024	-0.045
-689.368	-200.000	-0.007	-0.106
-688.354	-200.000	0.012	-0.192
-687.339	-27.720	-0.125	0.073
-686.324	394.278	-0.086	-0.180
-685.310	371.748	-0.118	-0.239
-684.295	-87.714	-0.125	-0.038
-683.281	-67.355	0.294	0.115
-682.266	383.825	-0.102	0.210
-681.251	39.338	-0.137	-0.123
-680.237	-28.023	-0.249	0.144
-679.222	-16.907	-0.377	-0.238
-678.208	-139.057	0.165	-0.018
-677.193	-200.000	0.043	0.390
-676.178	241.571	0.096	-0.160
-675.164	263.598	0.199	0.345
-674.149	-36.403	-0.087	-0.047
-673.135	800.000	-0.121	-0.388
-672.120	112.696	0.134	-0.162
-671.105	33.104	-0.183	-0.159
-670.091	43.372	0.100	0.091
-669.076	-200.000	-0.054	0.414
-668.062	116.926	0.123	-0.151
-667.047	-178.720	0.096	0.002
-666.032	204.183	0.022	-0.034
-665.018	-200.000	0.015	0.140
-664.003	51.837	-0.110	0.105
-662.989	-94.818	-0.344	0.093
-661.974	19.502	0.004	-0.004
-660.959	130.693	-0.061	-0.079
-659.945	800.000	-0.070	0.196
-658.930	-105.964	0.060	-0.013
-657.916	66.054	-0.190	0.193
-656.901	10.884	0.045	0.034
-655.886	-200.000	0.004	0.438
-654.872	-113.965	0.495	0.096
-653.857	-54.432	0.168	-0.076
-652.843	599.981	0.073	-0.180
-651.828	18.516	0.122	-0.098
-650.814	-21.354	-0.129	-0.078
-649.799	516.079	0.234	-0.545
-648.784	103.326	0.214	-0.251
-647.770	5.381	-0.005	-0.004
-646.755	-100.272	-0.213	0.053
-645.741	-200.000	-0.007	0.038
-644.726	2.555	0.132	-0.095
-643.711	-200.000	-0.027	0.408
-642.697	-200.000	-0.001	-0.033
-641.682	60.434	0.129	-0.128
-640.668	800.000	0.017	-0.052
-639.653	-84.743	-0.210	0.066
-638.638	71.741	-0.195	0.202
-637.624	-6.691	0.264	0.179
-636.609	800.000	-0.069	-0.227
-635.595	-200.000	-0.032	-0.143
-634.580	598.073	-0.087	-0.216
-633.565	663.740	-0.053	0.135
-632.551	-166.778	0.102	-0.004
-631.536	-200.000	0.004	0.175
-630.522	-200.000	-0.008	-0.112
-629.507	-29.818	-0.080	-0.045
-628.492	240.492	-0.092	-0.153
-627.478	-175.331	0.130	0.004
-626.463	-38.747	-0.043	0.023
-625.449	26.186	-0.127	-0.106
-624.434	390.034	-0.151	-0.312
-623.419	611.316	0.088	-0.219
-622.405	7.258	-0.045	0.034
-621.390	234.996	0.160	-0.264
-620.376	327.822	0.124	0.238
-619.361	-134.395	-0.416	0.051
-618.346	-72.205	-0.168	0.062
-617.332	-200.000	0.006	-0.219
-616.317	-98.914	0.229	0.058
-615.303	-200.000	-0.025	-0.217
-614.288	-200.000	-0.092	-0.564
-613.273	-139.024	-0.246	0.027
-612.259	-109.272	0.100	-0.021
-611.244	-200.000	0.041	0.219
-610.230	340.531	0.072	-0.141
-609.215	-200.000	-0.004	0.049
-608.201	-145.873	0.168	-0.015
-607.186	-28.154	0.291	0.168
-606.171	-75.973	-0.191	0.067
-605.157	607.591	-0.137	-0.340
-604.142	1.510	-0.319	-0.229
-603.128	-59.570	0.115	-0.049
-602.113	-171.008	0.342	-0.012
-601.098	-200.000	0.060	-0.345
-600.084	-200.000	-0.009	-0.454
-599.069	-43.072	0.206	-0.104
-598.055	-200.000	0.031	0.424
-597.040	-200.000	0.016	-0.187
-596.025	800.000	-0.066	-0.233
-595.011	28.852	-0.073	0.061
-593.996	-200.000	0.047	0.216
-592.982	800.000	-0.082	-0.242
-591.967	-28.700	0.161	-0.092
-590.952	487.001	-0.101	0.230
-589.938	-200.000	-0.035	0.241
-588.923	-2.591	0.260	0.181
-587.909	-125.998	-0.013	0.002
-586.894	-121.974	0.193	0.032
-585.879	-44.828	-0.203	0.101
-584.865	11.191	-0.249	-0.190
-583.850	-83.445	-0.281	-0.090
-582.836	90.572	0.107	-0.119
-581.821	-196.518	-0.193	0.001
-580.806	-97.855	-0.208	0.054
-579.792	800.000	-0.099	-0.289
-578.777	800.000	0.138	-0.421
-577.763	-200.000	0.005	0.274
-576.748	-31.510	-0.180	-0.101
-575.733	-142.601	-0.165	-0.016
-574.719	-200.000	-0.052	-0.235
-573.704	-142.313	-0.051	0.005
-572.690	-65.459	-0.231	0.092
-571.675	-122.115	0.034	0.006
-570.661	-200.000	0.029	-0.393
-569.646	-187.348	-0.373	0.005
-568.631	-8.230	0.024	0.016
-567.617	800.000	-0.102	0.408
-566.602	-152.758	0.128	0.009
-565.588	-14.326	-0.203	0.130
-564.573	-3.073	0.179	0.125
-563.558	142.915	0.092	0.122
-562.544	-200.000	-0.037	-0.402
-561.529	-41.344	-0.107	-0.055
-560.515	280.969	0.048	0.086
-559.500	-20.854	0.399	0.243
-558.485	158.319	-0.071	0.098
-557.471	-60.925	0.172	-0.072
-556.456	35.614	-0.318	0.278
-555.442	761.222	-0.040	0.108
-554.427	427.114	-0.178	-0.381
-553.412	90.284	0.146	0.163
-552.398	-57.306	-0.092	0.040
-551.383	260.526	0.120	0.206
-550.369	-85.522	-0.573	-0.178
-549.354	52.185	0.152	-0.145
-548.339	800.000	-0.126	-0.387
-547.325	-121.838	0.212	0.035
-546.310	-200.000	-0.020	-0.133
-545.296	-3.048	0.170	0.118
-544.281	13.960	0.138	0.107
-543.266	35.766	-0.146	-0.128
-542.252	316.387	-0.108	0.202
-541.237	-162.030	0.168	0.008
-540.223	92.348	-0.109	-0.122
-539.208	230.681	-0.288	0.469
-538.193	-200.000	-0.007	-0.034
-537.179	-90.298	-0.234	-0.068
-536.164	621.461	-0.135	0.338
-535.150	137.541	0.156	-0.202
-534.135	-105.138	-0.040	0.009
-533.121	-128.321	0.232	-0.033
-532.106	41.269	-0.213	0.192
-531.091	103.061	0.061	0.071
-530.077	-142.942	0.057	0.005
-529.062	21.241	0.117	0.095
-528.048	-34.709	-0.129	0.070
-527.033	682.127	-0.176	-0.456
-526.018	800.000	-0.050	0.173
-525.004	130.277	0.316	0.402
-523.989	-186.837	0.193	-0.003
-522.975	4.639	-0.181	0.132
-521.960	800.000	-0.014	0.043
-520.945	31.040	0.118	-0.101
-519.931	387.866	-0.207	-0.427
-518.916	87.756	-0.138	-0.152
-517.902	800.000	0.092	0.274
-516.887	-185.586	0.426	-0.006
-515.872	-184.733	0.505	-0.008
-514.858	377.623	0.055	0.112
-513.843	-109.676	-0.214	-0.045
-512.829	-200.000	0.033	-0.197
-511.814	-200.000	-0.011	0.113
-510.799	128.517	0.165	-0.209
-509.785	450.305	0.172	-0.377
-508.770	68.717	-0.089	0.091
-507.756	267.416	-0.081	0.141
-506.741	-200.000	-0.049	-0.368
-505.726	-22.404	-0.418	0.252
-504.712	73.943	-0.047	-0.049
-503.697	134.253	-0.107	0.138
-502.683	800.000	-0.034	0.101
-501.668	604.822	-0.139	0.343
-500.653	194.581	0.086	0.129
-499.639	-200.000	0.005	-0.167
-498.624	-54.938	0.116	-0.052
-497.610	-200.000	-0.016	-0.089
-496.595	-200.000	-0.014	-0.166
-495.581	98.854	-0.320	0.366
-494.566	-115.150	-0.104	0.020
-493.551	-200.000	0.033	0.309
-492.537	-83.987	0.123	0.039
-491.522	-80.545	0.094	-0.031
-490.508	283.502	0.097	-0.174
-489.493	800.000	-0.029	0.093
-488.478	-115.681	-0.245	0.046
-487.464	-47.800	0.110	0.053
-486.449	-6.448	-0.090	0.061
-485.435	-68.853	-0.081	0.031
-484.420	-88.156	-0.157	0.047
-483.405	-159.603	-0.130	-0.007
-482.391	-200.000	-0.015	0.384
-481.376	47.175	-0.372	0.344
-480.362	235.434	-0.109	0.178
-479.347	47.823	0.143	-0.133
-478.332	-200.000	0.057	0.259
-477.318	140.107	-0.057	0.074
-476.303	800.000	-0.073	0.217
-475.289	-200.000	-0.007	0.094
-474.274	11.361	0.149	-0.114
-473.259	53.238	0.179	-0.171
-472.245	-50.358	-0.312	0.146
-471.230	-200.000	-0.004	-0.297
-470.216	536.870	-0.152	0.358
-469.201	208.695	0.147	-0.229
-468.186	800.000	0.071	-0.208
-467.172	38.726	0.234	0.207
-466.157	-191.289	0.245	0.002
-465.143	-115.385	-0.229	-0.043
-464.128	-98.672	0.142	-0.036
-463.113	-49.471	0.373	0.176
-462.099	-152.341	-0.280	0.020
-461.084	382.274	-0.140	0.286
-460.070	-200.000	0.014	-0.071
-459.055	209.084	0.210	-0.327
-458.040	85.883	-0.187	-0.204
-457.026	-27.726	0.137	0.079
-456.011	18.565	-0.100	0.079
-454.997	210.519	0.196	-0.306
-453.982	-83.731	0.247	0.078
-452.968	-200.000	-0.014	0.078
-451.953	-200.000	-0.059	0.392
-450.938	546.955	-0.118	0.280
-449.924	-69.086	-0.155	-0.059
-448.909	-76.297	-0.296	0.103
-447.895	5.284	0.134	0.098
-446.880	-200.000	-0.064	-0.347
-445.865	-29.718	0.126	0.071
-444.851	6.933	0.120	-0.089
-443.836	-200.000	0.020	-0.224
-442.822	800.000	0.181	0.735
-441.807	-98.883	-0.189	-0.048
-440.792	-200.000	0.037	-0.424
-439.778	784.562	-0.008	-0.022
-438.763	16.087	-0.202	0.158
-437.749	-33.764	0.120	-0.065
-436.734	166.917	-0.102	0.143
-435.719	-200.000	0.036	0.165
-434.705	-189.525	-0.066	-0.001
-433.690	261.645	0.085	0.146
-432.676	-48.203	0.026	-0.013
-431.661	-200.000	0.016	0.075
-430.646	-123.733	0.355	0.056
-429.632	308.963	-0.140	-0.258
-428.617	94.075	-0.087	-0.097
-427.603	94.232	0.095	-0.106
-426.588	28.950	-0.164	0.138
-425.573	-10.481	-0.181	0.119
-424.559	-200.000	-0.002	0.157
-423.544	645.651	-0.028	-0.071
-422.530	800.000	-0.045	0.184
-421.515	460.232	-0.011	0.025
-420.500	116.831	-0.172	-0.209
-419.486	222.428	-0.098	-0.156
-418.471	-180.135	-0.270	-0.006
-417.457	-49.209	0.197	0.093
-416.442	46.602	-0.203	0.187
-415.428	-117.267	-0.165	-0.030
-414.413	800.000	-0.042	-0.150
-413.398	-150.728	0.477	-0.036
-412.384	790.652	0.043	0.118
-411.369	-191.486	-0.079	-0.001
-410.355	21.706	-0.083	-0.067
-409.340	-26.943	0.283	0.164
-408.325	-54.674	0.047	0.021
-407.311	166.456	0.180	0.252
-406.296	13.598	-0.174	0.133
-405.282	163.211	0.156	0.216
-404.267	-57.524	-0.308	0.134
-403.252	-46.020	0.185	0.090
-402.238	270.395	-0.047	-0.082
-401.223	-111.895	0.188	0.038
-400.209	592.163	0.034	0.083
-399.194	-130.097	-0.168	0.023
-398.179	-82.398	-0.179	-0.057
-397.165	-153.716	0.318	0.022
-396.150	132.659	-0.098	0.125
-395.136	800.000	0.073	0.230
-394.121	-65.808	0.288	-0.114
-393.106	101.236	-0.065	-0.075
-392.092	80.344	0.089	0.095
-391.077	-82.992	0.457	-0.146
-390.063	-200.000	0.000	-0.035
-389.048	605.208	-0.043	0.105
-388.033	-200.000	0.010	0.146
-387.019	4.180	-0.166	0.120
-386.004	-200.000	-0.069	0.372
-384.990	800.000	-0.032	0.131
-383.975	186.990	-0.211	0.310
-382.960	-200.000	0.065	0.379
-381.946	800.000	0.104	0.374
-380.931	654.325	0.059	0.150
-379.917	378.580	0.131	-0.265
-378.902	99.996	-0.197	0.226
-377.888	-19.713	0.206	-0.126
-376.873	-183.531	0.229	-0.004
-375.858	153.520	0.333	0.451
-374.844	-200.000	-0.048	-0.215
-373.829	-133.769	-0.155	0.019
-372.815	173.689	-0.167	-0.238
-371.800	73.930	0.150	0.156
-370.785	151.990	0.058	-0.078
-369.771	-15.453	-0.061	-0.039
-368.756	800.000	0.036	0.142
-367.742	-169.081	0.218	0.008
-366.727	800.000	0.122	-0.361
-365.712	-143.186	-0.379	-0.036
-364.698	19.853	-0.076	-0.061
-363.683	91.673	-0.266	0.296
-362.669	-200.000	-0.009	0.271
-361.654	-39.008	-0.124	-0.064
-360.639	29.063	-0.285	-0.238
-359.625	-165.873	0.185	0.008
-358.610	471.893	-0.048	0.108
-357.596	-200.000	0.005	-0.028
-356.581	81.807	-0.093	-0.099
-355.566	21.767	0.187	0.150
-354.552	110.122	0.143	-0.170
-353.537	-31.750	-0.296	-0.164
-352.523	177.577	-0.024	0.034
-351.508	800.000	0.100	-0.287
-350.493	-2.812	0.015	0.010
-349.479	378.514	0.073	0.148
-348.464	-104.721	0.320	0.073
-347.450	68.400	0.277	-0.281
-346.435	36.792	0.105	0.092
-345.420	-200.000	-0.011	-0.099
-344.406	-47.154	0.292	-0.141
-343.391	90.418	0.084	0.092
-342.377	127.661	0.071	0.089
-341.362	-180.647	-0.219	0.004
-340.348	-62.104	-0.144	0.059
-339.333	-132.445	-0.511	0.065
-338.318	27.984	-0.052	-0.043
-337.304	22.792	0.229	0.185
-336.289	-170.236	0.223	-0.008
-335.275	45.784	0.134	-0.122
-334.260	39.948	0.117	-0.104
-333.245	-185.662	0.121	-0.002
-332.231	800.000	0.057	0.204
-331.216	-200.000	0.005	0.251
-330.202	7.612	0.070	-0.051
-329.187	-123.142	0.266	0.042
-328.172	-200.000	-0.005	0.187
-327.158	483.755	-0.085	-0.191
-326.143	-57.886	-0.353	0.152
-325.129	-151.819	0.328	0.024
-324.114	-200.000	-0.002	0.204
-323.099	-21.086	-0.432	-0.261
-322.085	-105.759	-0.106	0.024
-321.070	148.868	-0.061	-0.082
-320.056	191.272	0.070	0.104
-319.041	379.327	-0.015	-0.031
-318.026	-200.000	-0.007	-0.054
-317.012	61.324	0.222	-0.218
-315.997	-127.030	-0.154	-0.022
-314.983	-103.238	0.166	0.039
-313.968	-116.920	0.229	0.041
-312.953	-87.820	0.141	-0.042
-311.939	19.368	-0.088	-0.069
-310.924	542.123	0.209	-0.491
-309.910	15.818	-0.087	-0.068
-308.895	199.330	0.120	0.181
-307.880	93.515	0.115	-0.129
-306.866	148.579	-0.183	0.244
-305.851	173.395	0.112	0.160
-304.837	-111.317	0.063	0.013
-303.822	-200.000	-0.001	0.230
-302.807	-101.770	0.176	-0.042
-301.793	16.209	-0.284	0.221
-300.778	-200.000	-0.073	-0.395
-299.764	37.121	-0.046	-0.040
-298.749	-200.000	0.063	-0.286
-297.735	95.700	0.121	-0.136
-296.720	262.441	-0.069	0.118
-295.705	-200.000	0.056	-0.309
-294.691	7.338	0.123	-0.091
-293.676	-19.923	-0.170	-0.103
-292.662	-64.177	-0.221	0.089
-291.647	-36.398	-0.252	0.134
-290.632	13.257	-0.054	-0.041
-289.618	114.960	-0.228	-0.274
-288.603	-200.000	-0.016	-0.246
-287.589	12.550	0.172	0.131
-286.574	-200.000	0.076	-0.364
-285.559	800.000	-0.030	-0.091
-284.545	-142.420	-0.208	0.020
-283.530	199.855	-0.245	-0.371
-282.516	-200.000	0.020	-0.117
-281.501	800.000	-0.082	0.276
-280.486	106.138	-0.126	0.147
-279.472	48.197	0.214	-0.197
-278.457	256.584	0.164	0.278
-277.443	800.000	-0.072	0.197
-276.428	64.937	0.354	0.352
-275.413	-200.000	-0.002	-0.185
-274.399	12.239	-0.182	0.138
-273.384	99.292	-0.200	-0.228
-272.370	150.725	0.094	-0.125
-271.355	211.729	-0.080	0.123
-270.340	-47.361	0.096	0.046
-269.326	4.205	-0.169	-0.122
-268.311	66.416	0.097	-0.097
-267.297	-200.000	-0.008	0.215
-266.282	168.077	0.042	-0.058
-265.267	-20.677	0.106	0.064
-264.253	-152.957	0.134	0.009
-263.238	-138.665	0.225	-0.024
-262.224	-117.929	-0.024	0.004
-261.209	22.362	-0.110	-0.089
-260.195	-23.481	0.175	0.103
-259.180	302.293	0.122	0.223
-258.165	375.412	0.181	0.363
-257.151	-134.013	0.104	-0.013
-256.136	324.568	0.048	0.090
-255.122	122.478	-0.215	-0.264
-254.107	44.318	0.127	-0.114
-253.092	258.500	-0.043	0.073
-252.078	125.477	-0.188	-0.234
-251.063	25.061	0.275	0.224
-250.049	-6.658	-0.231	-0.155
-249.034	-76.423	0.271	-0.094
-248.019	405.572	-0.086	0.178
-247.005	-200.000	-0.030	0.285
-245.990	-98.078	-0.489	0.124
-244.976	71.183	0.296	-0.302
-243.961	318.780	-0.175	-0.325
-242.946	-106.510	0.184	0.040
-241.932	-200.000	-0.014	-0.137
-240.917	73.216	-0.297	-0.305
-239.903	-24.902	0.342	-0.199
-238.888	-46.945	0.345	-0.166
-237.873	392.198	0.076	0.154
-236.859	-81.690	-0.164	0.053
-235.844	800.000	-0.092	0.275
-234.830	-200.000	-0.015	-0.115
-233.815	241.541	0.073	0.120
-232.800	13.662	0.171	0.131
-231.786	57.850	-0.132	-0.126
-230.771	-87.019	0.248	0.074
-229.757	-126.548	-0.038	0.005
-228.742	-200.000	-0.039	0.330
-227.727	-76.840	-0.124	-0.043
-226.713	-98.045	0.250	0.063
-225.698	800.000	0.070	-0.249
-224.684	-120.293	-0.187	-0.031
-223.669	-61.180	0.180	0.075
-222.655	-50.754	0.048	-0.022
-221.640	232.000	0.180	0.291
-220.625	49.598	0.174	-0.161
-219.611	-4.968	-0.378	0.256
-218.596	-82.145	-0.176	-0.056
-217.582	-200.000	0.008	0.123
-216.567	800.000	-0.100	0.309
-215.552	269.749	-0.054	-0.093
-214.538	133.366	0.147	0.186
-213.523	185.119	0.177	-0.257
-212.509	-200.000	-0.038	-0.166
-211.494	12.216	0.114	0.087
-210.479	-73.983	-0.023	-0.008
-209.465	-36.630	0.130	0.069
-208.450	-200.000	-0.011	-0.191
-207.436	730.360	-0.118	0.311
-206.421	324.479	0.198	0.371
-205.406	-46.386	0.357	0.172
-204.392	133.215	0.080	-0.101
-203.377	20.226	0.230	-0.183
-202.363	49.804	0.186	0.172
-201.348	17.118	0.452	0.352
-200.333	-200.000	-0.015	-0.193
-199.319	-200.000	-0.020	0.178
-198.304	800.000	-0.049	-0.197
-197.290	-89.912	0.076	0.022
-196.275	-200.000	0.021	0.139
-195.260	-164.810	-0.266	0.012
-194.246	-73.483	-0.301	0.108
-193.231	800.000	0.145	0.404
-192.217	219.621	0.165	-0.259
-191.202	-56.961	0.143	0.062
-190.187	-149.789	-0.254	0.020
-189.173	69.572	-0.265	0.267
-188.158	-133.376	-0.361	-0.045
-187.144	800.000	0.061	-0.237
-186.129	-80.220	0.068	0.022
-185.114	363.795	-0.182	-0.359
-184.100	465.698	-0.169	-0.372
-183.085	412.400	-0.081	-0.169
-182.071	22.367	-0.078	-0.063
-181.056	-78.076	0.481	-0.162
-180.042	-200.000	0.006	0.036
-179.027	23.216	-0.089	0.072
-178.012	65.189	-0.107	0.106
-176.998	-99.876	-0.159	-0.039
-175.983	-200.000	0.027	0.184
-174.969	-88.531	0.166	-0.049
-173.954	65.106	-0.166	0.165
-172.939	152.444	-0.032	0.043
-171.925	800.000	0.049	0.162
-170.910	-27.806	0.222	-0.126
-169.896	-56.958	-0.381	-0.165
-168.881	40.382	0.477	0.421
-167.866	-200.000	-0.024	-0.315
-166.852	273.899	0.099	-0.171
-165.837	106.780	-0.351	-0.408
-164.823	800.000	0.088	-0.278
-163.808	95.023	-0.190	-0.212
-162.793	-10.618	-0.064	0.042
-161.779	-167.520	0.166	0.006
-160.764	-200.000	-0.006	-0.153
-159.750	-29.662	-0.190	-0.106
-158.735	-200.000	-0.003	-0.326
-157.720	-52.024	0.409	-0.186
-156.706	-64.453	-0.430	-0.171
-155.691	800.000	-0.114	-0.452
-154.677	56.519	0.176	-0.168
-153.662	105.503	-0.230	0.267
-152.647	-17.476	0.180	0.111
-151.633	10.774	-0.333	-0.249
-150.618	-200.000	-0.002	-0.058
-149.604	-49.122	0.157	-0.074
-148.589	5.890	0.165	-0.119
-147.574	-81.333	0.274	-0.088
-146.560	67.053	0.071	-0.071
-145.545	133.597	0.052	0.065
-144.531	-107.415	0.210	0.045
-143.516	587.474	-0.045	-0.109
-142.502	-58.807	0.371	0.157
-141.487	15.273	-0.327	0.251
-140.472	-200.000	0.048	-0.268
-139.458	319.678	-0.164	0.305
-138.443	-200.000	0.004	-0.080
-137.429	-59.616	0.139	0.058
-136.414	313.316	0.115	0.211
-135.399	185.114	0.105	-0.152
-134.385	-63.928	-0.138	0.055
-133.370	800.000	-0.096	0.405
-132.356	606.291	-0.135	0.329
-131.341	-170.011	0.339	0.012
-130.326	-125.608	0.329	-0.049
-129.312	638.880	-0.106	0.264
-128.297	-83.794	0.391	0.122
-127.283	76.214	-0.230	-0.239
-126.268	-200.000	-0.016	-0.119
-125.253	478.864	0.092	-0.204
-124.239	-200.000	0.006	0.274
-123.224	-85.288	-0.260	-0.080
-122.210	403.875	-0.138	-0.284
-121.195	-36.423	0.234	-0.124
-120.180	-71.496	0.227	0.083
-119.166	-123.242	0.053	0.008
-118.151	96.895	-0.259	0.290
-117.137	-114.512	-0.436	0.082
-116.122	5.072	0.090	-0.065
-115.107	-103.291	-0.266	0.061
-114.093	607.779	-0.159	0.387
-113.078	-177.980	-0.263	-0.006
-112.064	54.772	-0.092	-0.087
-111.049	404.851	-0.095	-0.196
-110.034	-93.682	0.283	0.076
-109.020	30.420	-0.177	-0.148
-108.005	192.497	0.138	0.204
-106.991	800.000	-0.039	0.124
-105.976	-80.025	0.346	0.114
-104.962	65.986	-0.087	-0.086
-103.947	65.923	0.034	-0.033
-102.932	72.727	0.261	-0.267
-101.918	-46.337	0.194	-0.093
-100.903	-200.000	-0.049	-0.226
-99.889	-117.586	0.214	0.038
-98.874	-56.752	0.184	0.080
-97.859	-5.961	-0.242	-0.162
-96.845	-121.152	-0.127	-0.021
-95.830	353.518	-0.032	-0.063
-94.816	22.160	0.157	0.126
-93.801	153.707	0.205	0.274
-92.786	-200.000	-0.008	0.209
-91.772	516.448	0.089	0.204
-90.757	-200.000	-0.011	-0.124
-89.743	-200.000	-0.032	-0.160
-88.728	-173.342	0.079	0.002
-87.713	-30.626	-0.084	0.047
-86.699	-141.005	-0.214	-0.021
-85.684	16.147	0.156	-0.120
-84.670	-82.483	-0.156	0.049
-83.655	181.177	-0.050	-0.072
-82.640	-200.000	0.020	-0.222
-81.626	97.514	-0.369	-0.414
-80.611	222.337	0.264	0.416
-79.597	-141.986	0.271	0.026
-78.582	299.787	-0.139	-0.250
-77.567	800.000	-0.126	0.420
-76.553	-64.330	-0.251	0.100
-75.538	126.717	-0.061	-0.076
-74.524	-91.686	0.275	0.077
-73.509	-105.513	-0.571	-0.127
-72.494	-200.000	-0.038	0.214
-71.480	-200.000	-0.018	-0.173
-70.465	-137.912	0.480	0.052
-69.451	-170.256	0.151	-0.005
-68.436	-10.941	-0.215	-0.139
-67.422	451.831	-0.214	-0.462
-66.407	-6.721	0.115	-0.076
-65.392	800.000	0.025	-0.070
-64.378	111.858	-0.118	-0.139
-63.363	523.193	-0.083	0.190
-62.349	-200.000	0.024	0.350
-61.334	140.542	-1.064	-1.371
-60.319	-5.581	0.813	0.545
-59.305	465.567	-0.550	-1.203
-58.290	94.458	1.321	1.465
-57.276	800.000	0.567	1.594
-56.261	-200.000	136.804	654.966
-55.246	334.832	1667.568	3153.023
-54.232	133.093	2807.283	3539.067
-53.217	77.306	2349.936	2438.914
-52.203	26.422	2091.066	1706.252
-51.188	21.943	2009.220	1598.694
-50.173	21.098	1994.408	1579.202
-49.159	39.018	2073.027	1808.233
-48.144	36.307	2082.677	1791.459
-47.130	22.361	2034.727	1622.588
-46.115	20.409	2023.874	1595.949
-45.100	20.269	2020.780	1592.161
-44.086	20.134	2018.675	1589.205
-43.071	20.199	2015.509	1587.245
-42.057	20.147	2013.928	1585.463
-41.042	20.237	2011.679	1584.445
-40.027	20.221	2010.299	1583.148
-39.013	20.258	2008.680	1582.153
-37.998	20.269	2006.288	1580.303
-36.984	20.196	2005.557	1579.003
-35.969	20.156	2002.884	1576.467
-34.954	20.103	2002.164	1575.364
-33.940	20.237	2000.032	1574.835
-32.925	20.317	1998.570	1574.352
-31.911	20.253	1997.229	1572.647
-30.896	20.307	1995.015	1571.331
-29.881	20.325	1993.872	1570.537
-28.867	20.366	1991.895	1569.281
-27.852	20.383	1989.845	1567.758
-26.838	20.397	1988.374	1566.662
-25.823	20.356	1986.084	1564.432
-24.809	20.311	1984.959	1563.072
-23.794	20.441	1983.174	1562.776
-22.779	20.318	1981.960	1560.655
-21.765	20.354	1980.059	1559.419
-20.750	20.358	1978.485	1558.150
-19.736	20.432	1976.374	1557.096
-18.721	20.396	1975.522	1556.040
-17.706	20.345	1973.693	1554.074
-16.692	20.322	1971.781	1552.302
-15.677	20.309	1970.298	1550.956
-14.663	20.320	1969.007	1549.976
-13.648	20.319	1968.315	1549.366
-12.633	20.311	1966.948	1548.157
-11.619	20.371	1965.200	1547.249
-10.604	20.422	1963.645	1546.417
-9.590	20.258	1962.998	1544.391
-8.575	20.276	1961.326	1543.172
-7.560	20.383	1959.957	1542.983
-6.546	20.366	1958.356	1541.513
-5.531	20.309	1957.711	1540.443
-4.517	20.355	1955.916	1539.376
-3.502	20.356	1954.909	1538.532
-2.487	20.359	1953.856	1537.664
-1.473	20.341	1952.748	1536.576
-0.458	20.417	1947.328	1532.920
0.556	19.096	1926.883	1502.854
1.571	14.608	1907.777	1448.935
2.586	10.683	1930.789	1431.731
3.600	9.716	1964.868	1448.195
4.615	9.847	1956.031	1442.723
5.629	7.794	1856.951	1352.087
6.644	3.365	1747.196	1236.576
7.659	0.927	1717.173	1195.975
8.673	0.663	1714.405	1191.860
9.688	0.645	1713.492	1190.981
10.702	0.670	1712.152	1190.135
11.717	0.572	1708.079	1186.428
12.731	0.848	1705.993	1187.043
13.746	4.472	1713.920	1220.979
14.761	11.193	1727.418	1283.584
15.775	16.104	1736.073	1328.694
16.790	17.142	1737.307	1337.702
17.804	16.318	1734.454	1328.904
18.819	15.318	1731.692	1318.806
19.834	14.794	1728.373	1312.051
20.848	14.525	1726.662	1308.525
21.863	14.336	1725.710	1306.208
22.877	13.975	1724.296	1302.190
23.892	13.770	1722.662	1299.235
24.907	13.742	1721.302	1297.876
25.921	13.683	1720.416	1296.632
26.936	13.667	1719.297	1295.549
27.950	13.736	1718.323	1295.239
28.965	13.793	1717.851	1295.218
29.980	13.756	1717.214	1294.332
30.994	13.791	1716.018	1293.589
32.009	13.836	1714.755	1292.875
33.023	13.928	1713.771	1292.734
34.038	13.916	1713.323	1292.183
35.053	13.887	1712.331	1291.095
36.067	13.926	1710.809	1290.136
37.082	13.820	1709.564	1288.261
38.096	13.836	1708.514	1287.483
39.111	13.904	1707.814	1287.370
40.126	13.881	1707.410	1286.772
41.140	13.881	1705.950	1285.556
42.155	13.744	1705.052	1283.710
43.169	13.650	1703.539	1281.730
44.184	13.678	1702.204	1280.828
45.199	13.658	1700.474	1279.260
46.213	13.624	1700.258	1278.719
47.228	13.673	1698.853	1277.924
48.242	13.624	1697.508	1276.423
49.257	13.738	1696.358	1276.324
50.271	13.759	1694.808	1275.208
51.286	13.725	1694.217	1274.388
52.301	13.780	1692.062	1273.077
53.315	13.880	1690.403	1272.482
54.330	13.769	1689.260	1270.661
55.344	13.703	1688.150	1269.207
56.359	13.749	1686.538	1268.230
57.374	13.690	1685.640	1266.994
58.388	13.757	1684.108	1266.247
59.403	13.693	1682.659	1264.555
60.417	13.686	1681.179	1263.275
61.432	13.674	1680.411	1262.497
62.447	13.696	1678.932	1261.437
63.461	13.647	1677.442	1259.833
64.476	13.583	1676.879	1258.813
65.490	13.575	1675.264	1257.431
66.505	13.640	1674.321	1257.102
67.520	13.621	1672.934	1255.811
68.534	13.661	1672.142	1255.403
69.549	13.629	1671.088	1254.264
70.563	13.718	1669.117	1253.346
71.578	13.667	1667.663	1251.759
72.593	13.569	1666.845	1250.296
73.607	13.612	1665.448	1249.461
74.622	13.653	1664.772	1249.153
75.636	13.632	1663.577	1247.984
76.651	13.518	1663.128	1246.680
77.666	13.591	1661.500	1245.897
78.680	13.579	1660.656	1245.063
79.695	13.547	1659.995	1244.219
80.709	13.682	1658.305	1243.856
81.724	13.654	1657.680	1243.064
82.739	13.613	1657.427	1242.456
83.753	13.732	1655.818	1242.031
84.768	13.751	1655.060	1241.496
85.782	13.756	1654.477	1240.985
86.797	13.805	1653.095	1240.209
87.812	13.792	1652.605	1239.631
88.826	13.749	1651.211	1238.152
89.841	13.737	1650.150	1237.162
90.855	13.778	1648.599	1236.194
91.870	13.715	1647.694	1234.936
92.884	13.874	1645.823	1234.606
93.899	13.809	1645.206	1233.550
94.914	13.817	1644.199	1232.750
95.928	13.816	1643.331	1231.981
96.943	13.899	1641.325	1230.983
97.957	13.884	1639.703	1229.543
98.972	13.833	1639.106	1228.610
99.987	13.851	1637.056	1227.099
101.001	13.829	1635.546	1225.701
102.016	13.737	1633.916	1223.692
103.030	13.802	1632.681	1223.135
104.045	13.855	1631.388	1222.447
105.060	13.848	1629.833	1221.122
106.074	13.738	1628.424	1219.151
107.089	13.769	1626.707	1217.986
108.103	13.620	1625.774	1216.082
109.118	13.668	1624.018	1215.018
110.133	13.706	1622.342	1213.936
111.147	13.635	1621.601	1212.755
112.162	13.693	1619.913	1211.810
113.176	13.643	1618.430	1210.223
114.191	13.717	1617.182	1209.721
115.206	13.767	1615.709	1208.879
116.220	13.764	1614.506	1207.853
117.235	13.680	1612.939	1205.961
118.249	13.732	1611.900	1205.458
119.264	13.739	1610.734	1204.527
120.279	13.705	1609.519	1203.263
121.293	13.828	1606.956	1202.133
122.308	13.712	1606.089	1200.539
123.322	13.630	1604.780	1198.860
124.337	13.655	1603.481	1197.965
125.352	13.701	1601.640	1196.820
126.366	13.657	1600.906	1195.847
127.381	13.675	1599.443	1194.776
128.395	13.658	1598.138	1193.573
129.410	13.652	1596.570	1192.255
130.424	13.581	1595.902	1191.135
131.439	13.662	1594.506	1190.571
132.454	13.691	1592.769	1189.376
133.468	13.737	1591.339	1188.538
134.483	13.675	1589.941	1186.942
135.497	13.807	1588.540	1186.733
136.512	13.686	1587.543	1185.022
137.527	13.764	1585.825	1184.192
138.541	13.761	1584.326	1182.947
139.556	13.754	1583.175	1181.933
140.570	13.792	1581.720	1181.013
141.585	13.800	1580.215	1179.838
142.600	13.843	1579.170	1179.261
143.614	13.878	1578.319	1178.769
144.629	14.084	1576.427	1178.708
145.643	13.969	1575.291	1176.946
146.658	13.976	1574.123	1176.017
147.673	14.002	1572.082	1174.570
148.687	13.933	1570.636	1172.899
149.702	13.949	1569.519	1172.073
150.716	14.029	1567.358	1170.920
151.731	13.989	1566.375	1169.804
152.746	14.007	1565.067	1168.850
153.760	13.922	1563.655	1167.094
154.775	13.915	1562.326	1165.951
155.789	13.949	1561.468	1165.446
156.804	14.017	1560.090	1164.787
157.819	14.065	1558.748	1164.020
158.833	14.106	1557.318	1163.136
159.848	14.184	1556.108	1162.676
160.862	14.190	1554.845	1161.670
161.877	14.207	1553.241	1160.483
162.892	14.123	1552.197	1159.021
163.906	14.104	1551.064	1157.939
164.921	14.009	1550.059	1156.421
165.935	14.074	1549.088	1156.049
166.950	14.041	1547.816	1154.769
167.964	14.187	1546.252	1154.513
168.979	14.163	1545.098	1153.383
169.994	14.161	1544.367	1152.718
171.008	14.120	1542.941	1151.272
172.023	14.054	1542.350	1150.272
173.037	14.246	1540.661	1150.234
174.052	14.294	1539.733	1149.771
175.067	14.262	1538.872	1148.811
176.081	14.215	1537.730	1147.526
177.096	14.190	1536.008	1145.969
178.110	14.156	1534.952	1144.845
179.125	14.208	1533.415	1143.955
180.140	14.165	1532.384	1142.789
181.154	14.202	1531.385	1142.197
182.169	14.245	1530.447	1141.695
183.183	14.249	1529.045	1140.576
184.198	14.306	1528.077	1140.141
185.213	14.451	1526.375	1139.761
186.227	14.325	1525.633	1138.244
187.242	14.356	1525.027	1137.905
188.256	14.359	1523.408	1136.614
189.271	14.320	1522.437	1135.529
190.286	14.495	1521.277	1135.755
191.300	14.452	1519.750	1134.221
192.315	14.322	1518.637	1132.405
193.329	14.262	1517.577	1131.103
194.344	14.278	1516.389	1130.229
195.359	14.225	1515.616	1129.192
196.373	14.337	1514.441	1128.976
197.388	14.402	1513.452	1128.578
198.402	14.376	1512.223	1127.389
199.417	14.462	1511.186	1127.099
200.432	14.444	1510.301	1126.212
201.446	14.553	1509.031	1125.905
202.461	14.524	1507.860	1124.736
203.475	14.600	1506.541	1124.165
204.490	14.623	1505.495	1123.441
205.504	14.599	1504.446	1122.393
206.519	14.639	1503.076	1121.542
207.534	14.560	1502.086	1120.173
208.548	14.500	1501.252	1119.052
209.563	14.611	1499.946	1118.726
210.577	14.628	1498.736	1117.833
211.592	14.576	1498.453	1117.178
212.607	14.620	1497.524	1116.677
213.621	14.725	1496.291	1116.366
214.636	14.728	1495.258	1115.512
215.650	14.781	1494.357	1115.100
216.665	14.658	1493.444	1113.498
217.680	14.809	1491.890	1113.247
218.694	14.748	1492.090	1112.889
219.709	14.832	1490.979	1112.523
220.723	14.896	1489.297	1111.593
221.738	14.865	1488.772	1110.895
222.753	14.798	1488.055	1109.821
223.767	14.715	1486.871	1108.288
224.782	14.864	1485.836	1108.406
225.796	14.863	1484.848	1107.564
226.811	14.946	1483.719	1107.177
227.826	14.929	1483.194	1106.574
228.840	14.906	1482.335	1105.678
229.855	14.833	1481.844	1104.736
230.869	14.868	1480.693	1104.008
231.884	14.875	1479.547	1103.105
232.899	14.918	1478.472	1102.487
233.913	14.912	1477.013	1101.260
234.928	14.941	1476.105	1100.676
235.942	14.903	1474.511	1099.144
236.957	14.943	1473.237	1098.361
237.972	14.887	1472.593	1097.416
238.986	14.906	1471.165	1096.375
240.001	14.927	1470.478	1095.908
241.015	15.011	1469.091	1095.324
242.030	15.013	1467.857	1094.322
243.045	15.041	1467.085	1093.831
244.059	15.027	1466.180	1092.968
245.074	15.094	1465.083	1092.491
246.088	15.083	1464.595	1091.959
247.103	15.110	1463.777	1091.427
248.117	15.100	1462.884	1090.604
249.132	15.231	1461.710	1090.481
250.147	15.280	1461.364	1090.447
251.161	15.293	1460.671	1089.915
252.176	15.204	1460.107	1088.820
253.190	15.361	1459.448	1089.253
254.205	15.352	1458.122	1088.106
255.220	15.290	1457.475	1087.128
256.234	15.409	1456.507	1087.082
257.249	15.429	1455.410	1086.294
258.263	15.437	1454.767	1085.767
259.278	15.460	1453.685	1085.017
260.293	15.481	1452.639	1084.275
261.307	15.442	1451.957	1083.417
262.322	15.511	1451.512	1083.435
263.336	15.557	1450.634	1082.983
264.351	15.578	1449.192	1081.946
265.366	15.511	1448.338	1080.780
266.380	15.685	1447.022	1080.817
267.395	15.596	1446.228	1079.561
268.409	15.631	1445.529	1079.166
269.424	15.657	1444.911	1078.780
270.439	15.580	1443.601	1077.209
271.453	15.604	1442.478	1076.429
272.468	15.643	1441.772	1076.056
273.482	15.632	1441.048	1075.354
274.497	15.555	1440.121	1074.069
275.512	15.681	1438.542	1073.607
276.526	15.697	1437.800	1073.055
277.541	15.730	1436.825	1072.447
278.555	15.635	1436.180	1071.264
279.570	15.661	1435.261	1070.646
280.585	15.665	1434.402	1069.938
281.599	15.769	1433.708	1069.991
282.614	15.811	1432.655	1069.374
283.628	15.842	1431.435	1068.566
284.643	15.885	1429.720	1067.462
285.657	15.788	1429.210	1066.374
286.672	15.818	1428.390	1065.856
287.687	15.716	1427.979	1064.813
288.701	15.825	1426.367	1064.204
289.716	15.859	1425.877	1063.961
290.730	15.866	1424.593	1062.951
291.745	15.913	1423.751	1062.523
292.760	15.941	1422.491	1061.668
293.774	15.997	1421.353	1061.078
294.789	15.744	1420.898	1059.052
295.803	16.031	1419.801	1059.946
296.818	16.005	1418.941	1059.045
297.833	16.022	1418.034	1058.384
298.847	15.996	1416.655	1057.096
299.862	15.975	1416.559	1056.797
300.876	16.093	1415.016	1056.293
301.891	16.015	1414.133	1055.050
302.906	16.000	1413.704	1054.548
303.920	16.069	1412.543	1054.015
304.935	16.162	1411.843	1053.985
305.949	15.997	1411.382	1052.516
306.964	16.216	1410.018	1052.770
307.979	16.284	1409.090	1052.408
308.993	16.151	1408.608	1051.129
310.008	16.194	1407.740	1050.654
311.022	16.241	1406.506	1049.929
312.037	16.220	1405.296	1048.807
313.052	16.315	1404.323	1048.574
314.066	16.321	1403.502	1047.908
315.081	16.353	1402.009	1046.899
316.095	16.213	1400.880	1045.094
317.110	16.190	1400.192	1044.351
318.125	16.292	1399.069	1044.048
319.139	16.256	1398.247	1043.120
320.154	16.289	1397.395	1042.598
321.168	16.351	1396.059	1041.893
322.183	16.245	1395.737	1040.903
323.197	16.282	1394.112	1039.826
324.212	16.280	1393.373	1039.173
325.227	16.368	1392.571	1039.025
326.241	16.357	1391.671	1038.190
327.256	16.305	1390.772	1037.108
328.270	16.452	1389.971	1037.322
329.285	16.334	1388.981	1035.770
330.300	16.421	1388.030	1035.502
331.314	16.413	1387.252	1034.780
332.329	16.434	1385.981	1033.867
333.343	16.367	1385.780	1033.219
334.358	16.420	1384.944	1032.828
335.373	16.472	1384.390	1032.639
336.387	16.511	1382.760	1031.570
337.402	16.541	1382.300	1031.318
338.416	16.599	1381.357	1030.879
339.431	16.566	1381.316	1030.558
340.446	16.616	1380.182	1029.922
341.460	16.664	1379.197	1029.389
342.475	16.741	1378.063	1028.917
343.489	16.735	1377.292	1028.213
344.504	16.608	1376.584	1026.828
345.519	16.700	1375.117	1026.197
346.533	16.689	1374.617	1025.670
347.548	16.886	1373.245	1025.748
348.562	16.767	1372.958	1024.717
349.577	16.917	1372.176	1024.955
350.592	16.805	1371.048	1023.345
351.606	16.896	1369.831	1022.891
352.621	16.796	1369.055	1021.623
353.635	16.783	1368.429	1020.981
354.650	16.773	1367.379	1020.049
355.665	16.803	1366.310	1019.341
356.679	16.802	1364.816	1018.132
357.694	16.846	1364.170	1017.827
358.708	16.754	1363.387	1016.599
359.723	16.908	1361.654	1016.141
360.738	16.952	1360.719	1015.613
361.752	16.900	1359.538	1014.336
362.767	17.053	1358.230	1014.181
363.781	16.888	1357.645	1012.671
364.796	16.952	1357.423	1012.794
365.810	17.111	1355.961	1012.564
366.825	16.943	1355.700	1011.275
367.840	16.953	1355.188	1010.865
368.854	17.032	1354.276	1010.567
369.869	17.043	1353.781	1010.176
370.883	17.123	1353.388	1010.266
371.898	17.212	1352.160	1009.789
372.913	17.003	1351.614	1008.053
373.927	17.057	1350.498	1007.448
374.942	17.140	1349.759	1007.302
375.956	17.171	1348.849	1006.717
376.971	17.151	1348.453	1006.211
377.986	17.178	1347.327	1005.446
379.000	17.278	1346.217	1005.118
380.015	17.235	1345.568	1004.288
381.029	17.253	1344.859	1003.780
382.044	17.323	1343.803	1003.318
383.059	17.326	1343.482	1003.002
384.073	17.361	1342.583	1002.453
385.088	17.301	1342.331	1001.818
386.102	17.370	1341.098	1001.216
387.117	17.366	1340.395	1000.578
388.132	17.364	1339.746	999.994
389.146	17.362	1338.684	999.106
390.161	17.327	1337.900	998.223
391.175	17.378	1337.167	997.887
392.190	17.441	1336.312	997.529
393.205	17.519	1335.098	996.993
394.219	17.504	1334.017	996.011
395.234	17.522	1332.711	995.050
396.248	17.470	1331.524	993.773
397.263	17.487	1330.305	992.877
398.278	17.536	1328.773	991.929
399.292	17.471	1327.948	990.846
400.307	17.450	1327.231	990.101
401.321	17.469	1325.905	989.138
402.336	17.387	1325.038	987.926
403.350	17.528	1323.889	987.803
404.365	17.475	1323.108	986.826
405.380	17.540	1322.180	986.423
406.394	17.623	1320.980	985.919
407.409	17.619	1320.824	985.690
408.423	17.615	1319.736	984.769
409.438	17.689	1318.957	984.529
410.453	17.720	1318.362	984.174
411.467	17.718	1317.801	983.656
412.482	17.752	1317.301	983.397
413.496	17.724	1316.225	982.343
414.511	17.822	1315.249	982.091
415.526	17.838	1314.734	981.714
416.540	17.939	1313.937	981.609
417.555	17.948	1313.174	981.004
418.569	17.923	1312.388	980.185
419.584	17.980	1311.740	979.946
420.599	17.895	1311.433	979.139
421.613	102.131	1364.547	1493.659
422.628	100.589	1372.190	1493.720
