DTS Sentinel unit serial number:	SN413079Multiplexer serial number:	ORYXHardware model number:	OX4-SRSoftware version number:	ORYX F/W v4.00 Oryx Data Collector v3.7.2.0data status	okinstallation	princeton_trtdifferential loss correction	single-endedforward channel	channel 4reverse channel	N/Adate	2019/09/16time	09:29:35forward acquisition time	60.00reverse acquisition time	0.00gamma	496.2192k internal	0.2306k external	0.2306temperature offset calibration	0.9965default loss term (dB/km)	0.3790temperature slope calibration	1.0000multiplexer offset coefficient	1.0000multiplexer slope coefficient	1.0000fibre end	0.00T internal ref (°C)	31.81T ext. ref 1 (°C)	12.22T ext. ref 2 (°C)	29.50length (m)	temperature (°C)	Stokes	anti-Stokes-747.200	-200.000	-0.066	-0.295
-746.185	0.984	-0.092	0.067
-745.171	-71.794	0.251	0.095
-744.156	-150.372	-0.075	0.006
-743.142	577.438	0.153	0.382
-742.127	-194.800	-0.199	0.002
-741.112	635.708	0.032	0.084
-740.098	-70.383	-0.200	-0.077
-739.083	-50.926	-0.243	-0.116
-738.069	-160.198	-0.117	-0.006
-737.054	-48.386	-0.062	0.030
-736.039	800.000	0.055	0.234
-735.025	677.623	-0.124	0.328
-734.010	-143.380	-0.205	-0.020
-732.996	-68.697	0.107	-0.042
-731.981	-176.646	-0.332	-0.009
-730.966	164.357	-0.132	-0.189
-729.952	97.213	-0.246	-0.287
-728.937	72.110	-0.166	-0.176
-727.923	800.000	-0.115	-0.334
-726.908	-175.451	-0.346	-0.010
-725.894	-49.513	0.074	-0.036
-724.879	-200.000	0.026	-0.210
-723.864	81.997	-0.035	0.038
-722.850	-129.297	-0.208	0.029
-721.835	-31.649	-0.084	-0.048
-720.821	-195.933	0.034	-0.000
-719.806	575.364	-0.075	-0.186
-718.791	-21.572	-0.124	0.077
-717.777	241.690	0.127	0.216
-716.762	176.803	-0.101	-0.149
-715.748	249.102	-0.071	-0.123
-714.733	-90.950	-0.317	-0.093
-713.718	146.418	0.191	0.261
-712.704	101.479	-0.103	0.122
-711.689	-200.000	-0.031	0.251
-710.675	406.930	0.045	-0.097
-709.660	-200.000	0.029	0.203
-708.645	-115.593	-0.167	0.032
-707.631	-74.714	0.205	-0.075
-706.616	253.390	-0.041	0.070
-705.602	-94.196	0.039	-0.011
-704.587	7.605	0.190	0.144
-703.572	-127.988	0.423	-0.062
-702.558	-63.076	0.141	0.059
-701.543	-175.020	-0.097	0.003
-700.529	62.154	0.140	0.142
-699.514	-200.000	-0.012	0.321
-698.499	-118.928	-0.391	0.070
-697.485	-59.774	-0.097	-0.042
-696.470	-200.000	0.042	-0.193
-695.456	-11.559	-0.083	0.055
-694.441	290.160	-0.160	0.295
-693.426	91.675	-0.352	0.401
-692.412	138.989	-0.231	0.309
-691.397	800.000	0.082	0.333
-690.383	-162.753	-0.136	-0.007
-689.368	-148.012	-0.142	0.012
-688.354	-200.000	0.126	-0.001
-687.339	-89.167	0.206	0.062
-686.324	-110.433	-0.354	-0.075
-685.310	-124.505	0.207	0.033
-684.295	-62.163	-0.075	-0.032
-683.281	-53.218	-0.090	0.042
-682.266	-57.370	-0.211	0.094
-681.251	-15.406	0.097	-0.063
-680.237	800.000	-0.024	-0.092
-679.222	26.905	0.176	-0.150
-678.208	-1.501	-0.084	0.060
-677.193	-200.000	0.053	-0.437
-676.178	-200.000	0.003	0.149
-675.164	800.000	-0.123	0.381
-674.149	302.431	0.090	-0.168
-673.135	-79.651	-0.214	0.073
-672.120	110.800	-0.105	-0.128
-671.105	-29.883	0.146	0.084
-670.091	20.263	-0.037	-0.030
-669.076	-35.113	-0.070	0.038
-668.062	-200.000	-0.009	-0.084
-667.047	756.512	-0.030	0.082
-666.032	67.928	0.066	-0.069
-665.018	-128.654	-0.335	0.048
-664.003	-72.193	-0.075	0.028
-662.989	-64.872	-0.123	0.051
-661.974	173.207	-0.057	0.084
-660.959	47.597	0.052	-0.049
-659.945	800.000	0.051	-0.177
-658.930	-3.970	-0.094	0.066
-657.916	-94.932	0.206	0.056
-656.901	-31.853	-0.205	-0.117
-655.886	-63.781	0.253	-0.105
-654.872	348.447	0.059	-0.118
-653.857	617.685	-0.099	-0.252
-652.843	33.187	-0.183	-0.161
-651.828	331.455	-0.057	-0.112
-650.814	-200.000	0.002	0.279
-649.799	-76.162	-0.166	0.060
-648.784	-93.576	-0.340	0.095
-647.770	52.812	0.231	-0.224
-646.755	376.639	-0.109	-0.226
-645.741	-152.865	-0.259	0.019
-644.726	55.846	-0.216	-0.212
-643.711	-150.372	0.195	0.015
-642.697	-93.592	0.221	0.062
-641.682	-147.684	0.030	0.003
-640.668	-84.452	0.348	-0.111
-639.653	-125.391	-0.244	-0.038
-638.638	800.000	-0.037	-0.145
-637.624	88.292	0.039	-0.044
-636.609	0.007	-0.138	-0.100
-635.595	-200.000	-0.023	-0.198
-634.580	414.150	0.044	-0.096
-633.565	-67.418	0.329	-0.131
-632.551	287.290	-0.185	-0.339
-631.536	800.000	0.103	-0.379
-630.522	-200.000	0.024	0.271
-629.507	-79.402	0.153	-0.053
-628.492	-88.932	-0.315	-0.095
-627.478	781.178	-0.113	-0.314
-626.463	176.364	0.214	0.314
-625.449	-86.866	-0.199	-0.061
-624.434	-200.000	-0.024	-0.407
-623.419	141.041	-0.069	-0.092
-622.405	440.500	-0.038	-0.085
-621.390	226.640	0.090	0.148
-620.376	800.000	-0.118	0.356
-619.361	267.106	-0.101	0.179
-618.346	7.288	0.171	-0.129
-617.332	-21.753	0.053	0.033
-616.317	474.267	-0.082	-0.187
-615.303	42.061	-0.138	-0.127
-614.288	-57.298	-0.454	-0.202
-613.273	779.983	0.113	0.313
-612.259	-200.000	0.017	-0.118
-611.244	-9.483	0.206	0.139
-610.230	34.887	0.065	-0.057
-609.215	-200.000	-0.015	0.132
-608.201	800.000	0.092	-0.260
-607.186	1.528	-0.228	-0.166
-606.171	-200.000	0.036	-0.184
-605.157	-67.541	-0.182	0.072
-604.142	-50.499	0.315	0.150
-603.128	-168.829	-0.034	-0.001
-602.113	-66.511	0.117	-0.047
-601.098	-43.304	0.137	0.070
-600.084	221.146	0.065	0.106
-599.069	162.182	0.193	0.274
-598.055	25.987	0.145	0.122
-597.040	-200.000	-0.002	-0.072
-596.025	-200.000	0.029	-0.555
-595.011	-143.531	-0.301	-0.029
-593.996	-200.000	-0.015	0.105
-592.982	72.977	0.041	-0.043
-591.967	-193.976	0.293	0.002
-590.952	158.360	-0.232	0.326
-589.938	347.930	0.085	0.170
-588.923	-47.543	-0.214	0.105
-587.909	-200.000	-0.024	-0.124
-586.894	-72.994	-0.401	0.149
-585.879	171.145	-0.181	0.262
-584.865	-200.000	-0.023	-0.369
-583.850	41.673	-0.219	-0.201
-582.836	-28.229	0.277	-0.162
-581.821	-200.000	-0.001	-0.171
-580.806	-111.312	-0.350	0.072
-579.792	33.160	0.068	0.060
-578.777	226.914	0.093	0.153
-577.763	110.784	-0.209	0.254
-576.748	800.000	0.039	0.122
-575.733	87.018	-0.056	-0.062
-574.719	57.188	0.144	0.142
-573.704	144.316	0.054	-0.072
-572.690	-125.848	0.186	-0.028
-571.675	148.469	-0.145	-0.198
-570.661	-9.868	0.172	-0.116
-569.646	800.000	-0.037	0.108
-568.631	-78.773	-0.370	0.127
-567.617	26.637	-0.115	0.098
-566.602	-66.071	-0.370	0.149
-565.588	271.861	-0.043	0.076
-564.573	514.448	-0.051	0.120
-563.558	-200.000	-0.025	0.305
-562.544	-193.350	-0.246	-0.002
-561.529	-200.000	-0.033	-0.227
-560.515	72.757	0.346	-0.364
-559.500	200.840	0.129	-0.200
-558.485	-200.000	0.001	-0.079
-557.471	191.134	-0.165	0.251
-556.456	-200.000	0.002	-0.137
-555.442	-176.522	-0.265	0.007
-554.427	800.000	0.047	-0.181
-553.412	-110.966	0.148	0.031
-552.398	54.284	-0.105	0.102
-551.383	100.171	0.121	0.141
-550.369	22.737	0.209	-0.173
-549.354	-39.622	-0.150	0.079
-548.339	-200.000	-0.006	-0.312
-547.325	-163.687	0.220	0.010
-546.310	-200.000	-0.003	0.262
-545.296	-82.957	0.249	-0.081
-544.281	73.492	-0.129	-0.137
-543.266	623.432	-0.076	-0.194
-542.252	-156.521	0.083	0.005
-541.237	-123.283	-0.251	-0.041
-540.223	-43.119	0.099	-0.051
-539.208	283.931	-0.101	-0.183
-538.193	-75.728	-0.084	0.030
-537.179	800.000	0.046	-0.163
-536.164	-200.000	-0.090	-0.410
-535.150	-10.654	-0.259	0.173
-534.135	-200.000	-0.038	0.292
-533.121	-200.000	0.047	0.264
-532.106	43.640	0.086	0.079
-531.091	208.842	-0.091	0.144
-530.077	31.831	0.251	-0.218
-529.062	800.000	-0.063	0.211
-528.048	-44.050	0.235	-0.119
-527.033	640.713	0.158	-0.406
-526.018	-200.000	-0.026	-0.323
-525.004	168.394	0.304	-0.437
-523.989	74.543	0.163	-0.173
-522.975	-7.214	0.141	0.096
-521.960	800.000	-0.158	0.479
-520.945	-200.000	-0.031	-0.183
-519.931	-136.443	-0.157	0.018
-518.916	-99.359	0.107	-0.027
-517.902	170.860	-0.107	0.155
-516.887	-156.003	-0.117	0.008
-515.872	-200.000	-0.012	0.094
-514.858	485.442	-0.127	0.293
-513.843	-49.896	-0.250	0.120
-512.829	-82.846	-0.199	0.065
-511.814	-200.000	0.049	-0.297
-510.799	-200.000	-0.054	0.277
-509.785	-98.892	0.245	0.063
-508.770	-37.726	0.234	0.126
-507.756	-188.963	-0.532	-0.006
-506.741	674.288	-0.056	-0.146
-505.726	-200.000	-0.012	0.359
-504.712	-54.706	0.182	0.083
-503.697	248.216	-0.070	0.119
-502.683	-22.078	0.100	0.061
-501.668	204.343	0.094	0.147
-500.653	-76.802	0.131	0.046
-499.639	-73.181	0.185	-0.068
-498.624	-23.405	-0.252	-0.153
-497.610	232.959	-0.110	-0.182
-496.595	-177.535	-0.474	0.012
-495.581	145.643	-0.208	-0.281
-494.566	-132.481	-0.155	0.020
-493.551	-16.031	0.273	-0.175
-492.537	-151.897	-0.101	-0.007
-491.522	189.801	0.264	0.398
-490.508	33.900	-0.198	-0.174
-489.493	49.585	-0.244	0.231
-488.478	-200.000	0.004	0.246
-487.464	-200.000	-0.022	0.107
-486.449	-200.000	-0.072	0.417
-485.435	50.201	-0.202	-0.192
-484.420	-200.000	0.042	-0.289
-483.405	105.273	-0.028	0.034
-482.391	44.586	0.187	0.173
-481.376	15.406	-0.276	-0.218
-480.362	-4.078	-0.139	-0.097
-479.347	-191.248	0.067	-0.001
-478.332	-99.692	-0.390	-0.098
-477.318	101.897	0.161	0.190
-476.303	800.000	0.026	-0.094
-475.289	800.000	-0.013	0.037
-474.274	267.909	0.107	0.189
-473.259	-200.000	0.004	0.370
-472.245	71.325	0.180	-0.188
-471.230	-116.673	-0.382	-0.071
-470.216	192.379	0.105	-0.160
-469.201	800.000	-0.019	-0.079
-468.186	-129.245	-0.072	-0.010
-467.172	299.683	-0.240	0.445
-466.157	325.801	0.062	-0.120
-465.143	-101.425	0.211	0.052
-464.128	30.818	-0.315	-0.271
-463.113	42.097	-0.102	-0.093
-462.099	-200.000	0.007	0.233
-461.084	31.187	-0.236	-0.204
-460.070	-148.923	0.052	0.004
-459.055	-81.815	-0.105	0.035
-458.040	800.000	-0.085	-0.323
-457.026	-84.833	0.152	-0.048
-456.011	-200.000	0.077	0.630
-454.997	585.490	-0.107	-0.264
-453.982	101.343	0.059	0.069
-452.968	-120.355	0.448	-0.077
-451.953	-79.995	0.328	0.111
-450.938	-73.611	-0.116	-0.043
-449.924	800.000	-0.056	-0.161
-448.909	-142.033	-0.319	0.032
-447.895	81.958	-0.382	-0.417
-446.880	70.776	-0.082	-0.085
-445.865	800.000	-0.054	-0.160
-444.851	56.102	0.052	-0.050
-443.836	185.112	-0.095	-0.141
-442.822	104.185	-0.066	0.078
-441.807	-200.000	-0.037	0.335
-440.792	-153.655	0.034	-0.002
-439.778	-79.935	0.039	0.013
-438.763	-200.000	0.012	-0.364
-437.749	-200.000	0.066	-0.304
-436.734	-35.393	-0.146	-0.080
-435.719	-116.572	-0.199	0.037
-434.705	-200.000	0.003	-0.117
-433.690	-0.222	-0.133	0.095
-432.676	-3.646	-0.099	-0.069
-431.661	-66.320	-0.068	-0.027
-430.646	-11.307	0.338	-0.224
-429.632	-128.306	0.277	-0.040
-428.617	8.714	0.220	0.167
-427.603	-0.495	0.215	-0.154
-426.588	214.248	-0.065	0.104
-425.573	800.000	-0.067	0.245
-424.559	-179.398	-0.065	-0.001
-423.544	-175.571	0.194	0.005
-422.530	-200.000	0.054	-0.527
-421.515	-91.740	0.451	0.129
-420.500	-44.647	0.056	-0.028
-419.486	406.012	0.062	0.131
-418.471	-200.000	0.054	0.282
-417.457	513.839	0.152	-0.356
-416.442	800.000	0.042	-0.149
-415.428	-84.240	-0.221	-0.070
-414.413	465.134	0.117	0.262
-413.398	-200.000	-0.037	-0.212
-412.384	-200.000	-0.042	0.320
-411.369	-48.249	0.077	0.037
-410.355	-114.968	-0.441	-0.084
-409.340	-200.000	0.029	0.254
-408.325	200.844	0.182	0.281
-407.311	800.000	0.017	0.054
-406.296	-48.989	-0.219	-0.106
-405.282	24.026	0.319	-0.265
-404.267	-200.000	0.035	-0.402
-403.252	-157.152	0.295	-0.018
-402.238	-163.602	0.176	0.008
-401.223	800.000	0.004	0.013
-400.209	-83.614	0.142	-0.046
-399.194	-111.207	0.065	-0.013
-398.179	35.870	0.153	-0.135
-397.165	-140.956	0.330	0.034
-396.150	73.325	-0.149	0.156
-395.136	689.249	0.084	-0.220
-394.121	294.258	-0.164	-0.300
-393.106	-151.179	-0.072	0.005
-392.092	800.000	0.026	0.104
-391.077	87.756	0.255	-0.283
-390.063	800.000	-0.042	0.181
-389.048	212.485	0.186	0.295
-388.033	-49.739	-0.308	-0.147
-387.019	-87.672	-0.275	0.083
-386.004	-200.000	-0.012	0.159
-384.990	-124.102	0.461	-0.073
-383.975	800.000	-0.128	-0.365
-382.960	800.000	0.070	0.243
-381.946	89.617	0.236	0.264
-380.931	187.676	0.155	0.231
-379.917	564.526	0.086	0.210
-378.902	-0.085	0.060	-0.043
-377.888	-18.657	-0.240	-0.150
-376.873	-56.113	-0.150	-0.067
-375.858	3.092	0.126	0.092
-374.844	-28.907	-0.127	-0.073
-373.829	491.601	-0.074	-0.170
-372.815	800.000	-0.065	-0.223
-371.800	502.288	-0.111	-0.258
-370.785	112.788	-0.240	-0.291
-369.771	166.031	0.093	-0.132
-368.756	184.319	0.174	0.258
-367.742	-144.577	0.087	0.008
-366.727	800.000	0.072	-0.251
-365.712	-140.224	-0.414	-0.044
-364.698	45.527	0.123	0.114
-363.683	320.395	-0.144	-0.274
-362.669	252.019	-0.064	-0.110
-361.654	102.807	0.233	0.274
-360.639	689.485	-0.010	-0.027
-359.625	-39.866	-0.090	-0.047
-358.610	-98.659	0.195	-0.050
-357.596	800.000	0.077	0.225
-356.581	-24.384	0.448	0.268
-355.566	68.820	-0.044	-0.046
-354.552	110.059	-0.179	-0.215
-353.537	-200.000	0.004	0.094
-352.523	-18.932	0.414	-0.258
-351.508	800.000	-0.093	-0.294
-350.493	-58.092	0.080	0.035
-349.479	414.974	0.213	0.454
-348.464	-81.222	-0.165	-0.055
-347.450	89.414	-0.145	-0.162
-346.435	-64.111	0.147	-0.060
-345.420	800.000	-0.047	-0.202
-344.406	-200.000	0.014	0.108
-343.391	800.000	0.057	0.231
-342.377	-153.737	0.221	-0.015
-341.362	-15.428	-0.079	0.051
-340.348	-99.078	-0.058	0.015
-339.333	-94.776	0.091	0.025
-338.318	-0.865	0.171	0.121
-337.304	152.374	0.019	-0.026
-336.289	-164.964	-0.241	0.011
-335.275	-40.911	0.441	-0.228
-334.260	-142.026	-0.271	-0.027
-333.245	-200.000	0.002	0.278
-332.231	-80.388	0.250	-0.084
-331.216	24.172	0.263	-0.217
-330.202	24.439	-0.049	-0.041
-329.187	303.186	0.106	0.197
-328.172	-33.747	0.286	0.158
-327.158	800.000	0.065	-0.274
-326.143	-116.542	0.117	0.022
-325.129	-98.256	-0.217	-0.056
-324.114	102.521	0.103	0.121
-323.099	721.766	0.074	0.197
-322.085	564.106	-0.109	-0.264
-321.070	800.000	-0.044	-0.158
-320.056	85.282	-0.255	0.280
-319.041	-152.620	0.203	-0.014
-318.026	-112.099	0.087	0.018
-317.012	800.000	0.087	0.288
-315.997	-13.216	0.198	0.129
-314.983	174.572	0.149	0.215
-313.968	800.000	0.071	0.295
-312.953	-20.650	0.155	-0.095
-311.939	-133.677	0.273	-0.034
-310.924	356.815	-0.128	-0.256
-309.910	170.379	0.164	0.234
-308.895	32.160	0.087	-0.075
-307.880	-200.000	0.014	0.241
-306.866	-178.917	0.227	-0.005
-305.851	800.000	-0.034	0.095
-304.837	-103.962	0.239	0.056
-303.822	800.000	-0.037	0.132
-302.807	-3.414	-0.033	-0.023
-301.793	-20.480	-0.219	-0.135
-300.778	-27.592	0.232	-0.135
-299.764	-200.000	-0.034	0.285
-298.749	800.000	-0.063	0.215
-297.735	-200.000	0.014	-0.150
-296.720	-124.687	-0.264	0.041
-295.705	-58.229	-0.101	0.044
-294.691	-126.950	-0.271	-0.040
-293.676	-12.364	-0.080	0.052
-292.662	34.478	-0.147	0.128
-291.647	-200.000	-0.041	0.210
-290.632	-200.000	-0.042	0.188
-289.618	117.815	0.152	-0.187
-288.603	11.519	-0.307	0.236
-287.589	84.422	-0.087	0.096
-286.574	-200.000	-0.014	0.088
-285.559	-55.659	-0.175	0.078
-284.545	135.787	0.013	0.018
-283.530	85.570	-0.153	0.168
-282.516	800.000	-0.033	0.134
-281.501	-67.486	-0.343	0.135
-280.486	25.265	-0.231	-0.192
-279.472	-76.884	-0.221	-0.077
-278.457	65.935	0.177	-0.180
-277.443	-200.000	0.043	-0.200
-276.428	-125.670	0.269	0.041
-275.413	800.000	-0.082	0.225
-274.399	-141.862	-0.104	0.010
-273.384	42.483	0.191	-0.174
-272.370	272.437	0.116	-0.205
-271.355	767.333	-0.045	0.123
-270.340	-67.177	0.155	-0.061
-269.326	800.000	-0.026	-0.112
-268.311	-80.998	-0.172	0.057
-267.297	-148.174	-0.216	-0.018
-266.282	212.917	0.057	-0.090
-265.267	211.008	0.112	0.175
-264.253	-57.121	-0.439	0.193
-263.238	-200.000	-0.049	0.539
-262.224	190.322	-0.215	0.322
-261.209	171.809	-0.095	-0.136
-260.195	-200.000	-0.037	-0.293
-259.180	12.185	0.218	0.168
-258.165	-200.000	0.008	-0.136
-257.151	-129.023	0.084	0.012
-256.136	-165.587	0.197	-0.009
-255.122	382.164	0.090	-0.184
-254.107	800.000	-0.085	-0.276
-253.092	-129.290	0.474	0.066
-252.078	-32.734	0.325	-0.180
-251.063	-54.303	-0.338	-0.153
-250.049	-200.000	-0.012	-0.353
-249.034	800.000	0.055	0.190
-248.019	219.253	-0.155	-0.248
-247.005	14.217	-0.263	-0.204
-245.990	-121.579	-0.368	-0.061
-244.976	-95.279	-0.100	-0.027
-243.961	-35.244	0.222	0.121
-242.946	-200.000	-0.047	-0.328
-241.932	353.663	-0.051	0.101
-240.917	477.950	-0.177	-0.400
-239.903	800.000	0.082	0.271
-238.888	-44.416	-0.158	0.079
-237.873	61.023	0.113	0.111
-236.859	-38.970	0.196	-0.103
-235.844	-163.973	0.031	-0.001
-234.830	800.000	0.037	-0.127
-233.815	800.000	-0.171	-0.473
-232.800	-34.852	0.144	0.079
-231.786	-71.129	-0.313	0.117
-230.771	463.973	0.184	-0.410
-229.757	-138.552	0.198	0.022
-228.742	168.690	0.081	0.116
-227.727	-200.000	0.028	0.325
-226.713	152.696	-0.108	-0.148
-225.698	97.452	-0.160	-0.183
-224.684	-200.000	0.011	-0.087
-223.669	-200.000	0.020	0.120
-222.655	22.399	0.091	-0.074
-221.640	-37.728	0.235	-0.125
-220.625	372.061	-0.180	0.365
-219.611	-82.150	-0.125	-0.041
-218.596	-109.687	0.008	-0.002
-217.582	136.277	0.187	0.243
-216.567	-137.867	0.144	0.016
-215.552	-66.258	-0.157	0.062
-214.538	-37.883	-0.136	0.072
-213.523	-112.669	0.318	-0.063
-212.509	193.599	0.144	0.217
-211.494	151.187	0.139	0.188
-210.479	800.000	0.037	0.103
-209.465	164.112	0.109	-0.154
-208.450	-200.000	0.015	-0.205
-207.436	-102.781	-0.175	0.042
-206.421	-76.255	0.289	-0.101
-205.406	167.103	0.207	0.293
-204.392	-80.764	-0.143	0.047
-203.377	-132.962	0.132	0.017
-202.363	150.754	0.181	0.245
-201.348	-155.904	0.125	0.008
-200.333	347.815	-0.202	-0.397
-199.319	-111.688	0.215	0.043
-198.304	-64.173	-0.350	-0.142
-197.290	-106.258	-0.253	-0.056
-196.275	-200.000	-0.025	0.130
-195.260	188.948	0.317	0.472
-194.246	229.265	0.046	0.075
-193.231	323.394	-0.030	0.058
-192.217	-75.156	-0.242	0.086
-191.202	-85.843	0.040	-0.012
-190.187	24.840	-0.250	-0.206
-189.173	-69.489	0.252	0.096
-188.158	-200.000	0.005	-0.290
-187.144	-200.000	-0.001	0.016
-186.129	29.465	-0.318	0.269
-185.114	-165.206	0.393	-0.017
-184.100	774.038	0.165	0.449
-183.085	800.000	0.096	0.366
-182.071	-200.000	0.012	-0.112
-181.056	-113.083	0.184	0.036
-180.042	-126.495	-0.130	-0.019
-179.027	737.066	0.050	0.134
-178.012	-54.134	-0.188	0.085
-176.998	-125.773	0.387	0.058
-175.983	-143.844	-0.163	-0.015
-174.969	-200.000	-0.030	0.161
-173.954	-200.000	-0.028	0.200
-172.939	-200.000	-0.003	-0.174
-171.925	-200.000	-0.004	0.119
-170.910	-170.109	0.431	-0.015
-169.896	-200.000	0.030	0.175
-168.881	319.797	-0.164	0.310
-167.866	30.500	0.177	0.151
-166.852	-85.032	-0.078	-0.024
-165.837	38.168	-0.162	-0.143
-164.823	16.545	-0.315	-0.248
-163.808	-146.610	0.382	0.033
-162.793	-137.539	-0.219	-0.025
-161.779	44.096	-0.224	0.204
-160.764	-200.000	0.032	0.164
-159.750	-48.212	-0.363	0.174
-158.735	-75.867	0.296	0.104
-157.720	-200.000	-0.001	0.178
-156.706	255.768	-0.131	0.222
-155.691	-141.555	0.159	-0.016
-154.677	-200.000	-0.047	-0.323
-153.662	-10.938	-0.172	0.113
-152.647	21.251	0.145	0.117
-151.633	85.584	0.195	0.213
-150.618	-173.163	0.075	0.002
-149.604	189.713	-0.220	-0.328
-148.589	174.560	-0.248	-0.357
-147.574	57.125	-0.103	-0.100
-146.560	48.217	0.254	-0.236
-145.545	-158.124	-0.335	0.020
-144.531	250.334	0.128	-0.216
-143.516	-99.260	0.277	0.069
-142.502	216.824	0.074	0.116
-141.487	-57.344	0.180	-0.079
-140.472	43.021	-0.017	0.015
-139.458	74.551	-0.055	-0.058
-138.443	-92.112	0.305	-0.086
-137.429	17.729	0.086	-0.068
-136.414	12.347	-0.147	0.112
-135.399	661.948	0.073	-0.186
-134.385	-200.000	0.013	0.343
-133.370	233.485	0.084	0.137
-132.356	800.000	0.072	0.209
-131.341	44.998	-0.195	0.178
-130.326	56.116	-0.105	-0.102
-129.312	-121.272	0.112	0.019
-128.297	-200.000	-0.008	-0.088
-127.283	-200.000	-0.005	0.344
-126.268	352.894	0.120	0.236
-125.253	-117.938	0.113	0.020
-124.239	-165.205	0.050	-0.002
-123.224	60.399	0.230	0.226
-122.210	-200.000	0.030	-0.138
-121.195	596.304	0.090	0.221
-120.180	-200.000	-0.008	0.177
-119.166	234.779	-0.088	0.144
-118.151	-176.916	0.227	0.006
-117.137	800.000	0.039	-0.110
-116.122	-88.730	-0.092	0.027
-115.107	-200.000	-0.002	0.019
-114.093	-60.052	0.248	-0.105
-113.078	245.553	-0.045	-0.075
-112.064	-140.753	0.308	-0.032
-111.049	-42.560	-0.188	-0.095
-110.034	-200.000	-0.030	0.197
-109.020	-50.929	0.084	-0.039
-108.005	289.454	-0.054	-0.098
-106.991	336.415	-0.030	-0.058
-105.976	76.965	-0.164	0.172
-104.962	-200.000	0.046	0.215
-103.947	-69.383	-0.123	-0.047
-102.932	79.881	0.223	0.238
-101.918	135.769	-0.108	0.140
-100.903	12.024	-0.107	0.082
-99.889	526.541	-0.140	0.327
-98.874	235.178	-0.135	0.222
-97.859	-39.883	0.226	0.117
-96.845	-155.940	0.443	-0.028
-95.830	133.596	0.223	0.287
-94.816	32.614	-0.078	-0.067
-93.801	298.060	0.030	0.054
-92.786	800.000	0.044	0.128
-91.772	-138.235	0.279	0.031
-90.757	32.428	0.120	-0.103
-89.743	121.345	0.060	-0.075
-88.728	129.568	-0.159	0.202
-87.713	800.000	0.017	0.053
-86.699	166.769	-0.053	0.074
-85.684	158.900	0.111	-0.152
-84.670	68.265	0.184	0.187
-83.655	8.833	0.186	-0.139
-82.640	-59.143	-0.203	0.087
-81.626	-200.000	0.083	-0.371
-80.611	168.109	0.080	0.112
-79.597	800.000	0.052	-0.227
-78.582	-34.116	-0.099	-0.054
-77.567	488.996	-0.098	-0.223
-76.553	-32.354	0.262	0.145
-75.538	37.693	0.195	0.171
-74.524	56.387	-0.170	0.164
-73.509	800.000	-0.055	0.174
-72.494	-86.810	0.216	0.065
-71.480	69.845	0.132	0.135
-70.465	-139.993	0.235	0.025
-69.451	-174.652	0.070	0.002
-68.436	-200.000	-0.053	-0.326
-67.422	-63.496	-0.403	0.164
-66.407	91.165	0.197	0.219
-65.392	800.000	-0.016	0.061
-64.378	-200.000	-0.040	-0.259
-63.363	169.679	-0.156	0.221
-62.349	-141.212	-0.207	0.021
-61.334	99.847	-0.875	-1.004
-60.319	-200.000	0.017	0.710
-59.305	576.572	-0.464	-1.123
-58.290	133.760	0.666	0.854
-57.276	800.000	0.619	1.756
-56.261	-200.000	95.155	585.384
-55.246	532.860	1406.881	3298.336
-54.232	151.657	2598.228	3505.656
-53.217	101.547	2342.309	2703.182
-52.203	38.296	2099.517	1851.519
-51.188	33.407	2013.322	1730.884
-50.173	31.888	1995.153	1701.427
-49.159	47.149	2043.358	1882.893
-48.144	48.219	2061.005	1908.904
-47.130	34.221	2023.803	1747.095
-46.115	31.865	2013.227	1716.358
-45.100	31.677	2011.011	1712.685
-44.086	31.684	2008.263	1710.334
-43.071	31.545	2005.930	1707.014
-42.057	31.574	2003.349	1705.016
-41.042	31.676	2001.453	1704.258
-40.027	31.621	1999.422	1701.969
-39.013	31.632	1997.557	1700.406
-37.998	31.688	1995.744	1699.310
-36.984	31.761	1993.665	1698.130
-35.969	31.785	1991.176	1696.164
-34.954	31.775	1990.133	1695.115
-33.940	31.849	1988.269	1694.131
-32.925	31.910	1986.247	1692.892
-31.911	31.865	1984.875	1691.248
-30.896	31.779	1983.437	1689.179
-29.881	31.895	1981.944	1688.889
-28.867	31.875	1980.191	1687.141
-27.852	31.794	1978.766	1685.138
-26.838	31.831	1976.660	1683.605
-25.823	31.828	1974.863	1681.981
-24.809	31.848	1972.690	1680.242
-23.794	31.798	1971.341	1678.578
-22.779	31.764	1969.413	1676.565
-21.765	31.775	1967.646	1675.096
-20.750	31.804	1965.775	1673.692
-19.736	31.901	1964.029	1673.008
-18.721	31.808	1962.959	1671.199
-17.706	31.835	1961.184	1669.866
-16.692	31.913	1959.441	1669.011
-15.677	31.849	1957.948	1667.103
-14.663	31.816	1956.262	1665.309
-13.648	31.844	1955.351	1664.715
-12.633	31.848	1954.317	1663.798
-11.619	31.849	1952.954	1662.588
-10.604	31.832	1951.047	1660.743
-9.590	31.790	1950.147	1659.543
-8.575	31.853	1948.450	1658.587
-7.560	31.785	1947.529	1657.136
-6.546	31.875	1945.882	1656.461
-5.531	31.804	1944.766	1654.825
-4.517	31.865	1943.329	1654.069
-3.502	31.801	1942.458	1652.696
-2.487	31.809	1941.249	1651.675
-1.473	31.868	1940.058	1651.119
-0.458	31.997	1935.891	1648.638
0.556	30.303	1917.323	1626.264
1.571	26.986	1900.001	1582.574
2.586	23.562	1923.727	1571.912
3.600	22.722	1961.122	1594.735
4.615	22.263	1956.725	1586.883
5.629	19.709	1861.149	1487.289
6.644	15.049	1751.353	1361.607
7.659	12.468	1717.296	1314.392
8.673	12.226	1714.065	1309.874
9.688	12.275	1713.001	1309.340
10.702	12.247	1711.091	1307.538
11.717	12.112	1707.792	1303.830
12.731	12.442	1707.041	1305.762
13.746	15.655	1714.300	1336.792
14.761	18.698	1719.531	1364.985
15.775	18.498	1717.089	1361.342
16.790	17.258	1713.653	1348.661
17.804	16.135	1710.336	1337.031
18.819	15.168	1706.494	1326.263
19.834	14.443	1704.005	1318.479
20.848	14.118	1702.361	1314.520
21.863	13.868	1700.407	1310.919
22.877	13.619	1698.858	1307.647
23.892	13.396	1697.296	1304.571
24.907	13.321	1696.376	1303.159
25.921	13.342	1694.747	1301.953
26.936	13.299	1694.096	1301.003
27.950	13.320	1693.401	1300.519
28.965	13.348	1692.723	1300.103
29.980	13.361	1692.248	1299.724
30.994	13.430	1690.950	1299.151
32.009	13.431	1690.009	1298.319
33.023	13.479	1689.046	1297.848
34.038	13.608	1687.854	1297.820
35.053	13.603	1685.976	1296.225
36.067	13.460	1685.587	1294.691
37.082	13.444	1683.975	1293.214
38.096	13.441	1683.390	1292.626
39.111	13.487	1682.803	1292.421
40.126	13.532	1681.620	1291.751
41.140	13.508	1681.183	1291.112
42.155	13.386	1679.509	1288.762
43.169	13.270	1677.666	1286.336
44.184	13.258	1676.731	1285.408
45.199	13.261	1675.225	1284.164
46.213	13.236	1674.341	1283.182
47.228	13.233	1673.260	1282.215
48.242	13.364	1671.794	1281.990
49.257	13.433	1670.339	1281.295
50.271	13.349	1669.436	1279.838
51.286	13.346	1668.354	1278.874
52.301	13.393	1666.859	1277.981
53.315	13.394	1665.153	1276.567
54.330	13.308	1664.169	1275.034
55.344	13.275	1662.610	1273.476
56.359	13.236	1661.053	1271.867
57.374	13.287	1660.118	1271.431
58.388	13.274	1658.996	1270.360
59.403	13.273	1657.318	1268.954
60.417	13.241	1656.047	1267.627
61.432	13.182	1655.360	1266.535
62.447	13.188	1653.960	1265.395
63.461	13.166	1652.782	1264.215
64.476	13.177	1651.719	1263.376
65.490	13.090	1650.634	1261.770
66.505	13.141	1649.772	1261.391
67.520	13.180	1648.350	1260.486
68.534	13.152	1647.414	1259.442
69.549	13.241	1646.150	1259.042
70.563	13.304	1644.965	1258.505
71.578	13.186	1644.417	1257.078
72.593	13.193	1642.609	1255.642
73.607	13.125	1642.248	1254.737
74.622	13.103	1641.065	1253.554
75.636	13.081	1639.451	1252.039
76.651	13.120	1638.861	1251.775
77.666	13.144	1638.076	1251.245
78.680	13.013	1637.824	1249.954
79.695	13.134	1636.223	1249.536
80.709	13.107	1635.715	1248.831
81.724	13.170	1634.472	1248.247
82.739	13.211	1633.579	1247.770
83.753	13.178	1632.853	1246.855
84.768	13.321	1631.520	1246.805
85.782	13.362	1631.166	1246.733
86.797	13.446	1630.217	1246.526
87.812	13.413	1629.344	1245.504
88.826	13.427	1627.798	1244.318
89.841	13.339	1626.640	1242.661
90.855	13.291	1626.184	1241.840
91.870	13.324	1625.073	1241.125
92.884	13.393	1623.642	1240.447
93.899	13.441	1622.500	1239.819
94.914	13.355	1621.827	1238.554
95.928	13.497	1620.204	1238.267
96.943	13.553	1618.577	1237.330
97.957	13.505	1617.422	1235.978
98.972	13.506	1615.966	1234.763
99.987	13.382	1614.455	1232.581
101.001	13.382	1613.001	1231.362
102.016	13.399	1610.984	1229.838
103.030	13.446	1609.859	1229.217
104.045	13.498	1608.529	1228.480
105.060	13.522	1606.905	1227.306
106.074	13.395	1605.734	1225.367
107.089	13.367	1603.742	1223.529
108.103	13.199	1602.822	1221.475
109.118	13.191	1600.918	1219.860
110.133	13.229	1599.426	1218.897
111.147	13.180	1598.370	1217.624
112.162	13.204	1597.056	1216.691
113.176	13.334	1595.215	1216.135
114.191	13.290	1593.841	1214.657
115.206	13.272	1593.154	1213.894
116.220	13.354	1591.544	1213.159
117.235	13.194	1590.032	1210.730
118.249	13.232	1588.621	1209.823
119.264	13.262	1587.647	1209.195
120.279	13.247	1586.082	1207.789
121.293	13.240	1584.081	1206.105
122.308	13.248	1582.810	1205.091
123.322	13.188	1581.009	1203.175
124.337	13.199	1579.783	1202.220
125.352	13.151	1578.682	1200.923
126.366	13.228	1577.508	1200.484
127.381	13.132	1576.555	1198.956
128.395	13.162	1575.319	1198.125
129.410	13.239	1574.069	1197.626
130.424	13.334	1572.423	1196.959
131.439	13.238	1571.303	1195.302
132.454	13.287	1569.923	1194.503
133.468	13.375	1568.333	1193.822
134.483	13.331	1567.303	1192.614
135.497	13.303	1565.729	1191.109
136.512	13.423	1563.978	1190.535
137.527	13.341	1563.033	1189.126
138.541	13.350	1561.679	1188.052
139.556	13.423	1560.152	1187.307
140.570	13.393	1559.328	1186.363
141.585	13.414	1557.657	1185.135
142.600	13.555	1556.162	1184.902
143.614	13.526	1554.935	1183.658
144.629	13.567	1553.906	1183.059
145.643	13.649	1552.508	1182.479
146.658	13.674	1551.019	1181.417
147.673	13.695	1548.999	1179.924
148.687	13.518	1548.106	1177.881
149.702	13.543	1546.927	1177.052
150.716	13.535	1544.761	1175.246
151.731	13.412	1543.615	1173.397
152.746	13.462	1542.496	1172.801
153.760	13.510	1540.846	1171.782
154.775	13.525	1539.712	1170.920
155.789	13.491	1538.603	1169.729
156.804	13.567	1537.561	1169.375
157.819	13.542	1536.325	1168.150
158.833	13.671	1535.034	1167.976
159.848	13.680	1533.850	1167.035
160.862	13.711	1532.443	1166.082
161.877	13.682	1531.933	1165.383
162.892	13.670	1530.685	1164.246
163.906	13.613	1529.094	1162.534
164.921	13.584	1527.703	1161.170
165.935	13.584	1526.516	1160.166
166.950	13.642	1525.333	1159.569
167.964	13.606	1524.237	1158.386
168.979	13.679	1523.759	1158.426
169.994	13.670	1522.321	1157.167
171.008	13.678	1521.194	1156.264
172.023	13.699	1520.206	1155.556
173.037	13.739	1518.907	1154.747
174.052	13.791	1517.891	1154.236
175.067	13.778	1517.265	1153.570
176.081	13.801	1515.654	1152.398
177.096	13.600	1514.725	1150.195
178.110	13.665	1513.175	1149.368
179.125	13.557	1512.650	1148.122
180.140	13.650	1510.792	1147.252
181.154	13.729	1509.971	1147.072
182.169	13.782	1508.467	1146.194
183.183	13.800	1507.553	1145.523
184.198	13.895	1506.174	1145.025
185.213	13.890	1505.276	1144.208
186.227	13.890	1504.500	1143.517
187.242	13.981	1502.853	1142.793
188.256	13.884	1502.106	1141.454
189.271	13.981	1501.165	1141.305
190.286	13.974	1499.838	1140.145
191.300	13.952	1498.923	1139.200
192.315	13.878	1497.484	1137.503
193.329	13.842	1495.734	1135.826
194.344	13.725	1495.087	1134.432
195.359	13.835	1494.116	1134.346
196.373	13.798	1493.174	1133.275
197.388	13.907	1492.575	1133.470
198.402	13.945	1491.396	1132.728
199.417	14.087	1490.025	1132.556
200.432	14.084	1489.438	1131.990
201.446	14.220	1488.222	1131.887
202.461	14.151	1486.946	1130.351
203.475	14.118	1485.805	1129.158
204.490	14.129	1485.168	1128.649
205.504	14.208	1484.239	1128.379
206.519	14.120	1482.688	1126.504
207.534	14.070	1481.271	1124.989
208.548	14.112	1480.153	1124.325
209.563	14.146	1478.862	1123.475
210.577	14.166	1477.682	1122.612
211.592	14.175	1477.117	1122.147
212.607	14.074	1477.165	1121.403
213.621	14.250	1476.158	1121.725
214.636	14.188	1475.304	1120.561
215.650	14.252	1474.140	1120.007
216.665	14.256	1472.788	1118.908
217.680	14.336	1472.010	1118.756
218.694	14.419	1471.100	1118.521
219.709	14.388	1470.219	1117.544
220.723	14.325	1469.288	1116.316
221.738	14.266	1468.636	1115.325
222.753	14.449	1467.420	1115.529
223.767	14.380	1466.589	1114.339
224.782	14.385	1465.509	1113.451
225.796	14.373	1464.987	1112.877
226.811	14.463	1463.951	1112.590
227.826	14.503	1463.277	1112.248
228.840	14.437	1462.624	1111.215
229.855	14.327	1461.258	1109.344
230.869	14.370	1460.346	1108.841
231.884	14.445	1459.361	1108.489
232.899	14.402	1458.188	1107.220
233.913	14.383	1456.546	1105.747
234.928	14.388	1455.547	1104.926
235.942	14.491	1454.152	1104.449
236.957	14.349	1453.302	1102.768
237.972	14.377	1452.470	1102.224
238.986	14.322	1451.372	1100.927
240.001	14.485	1449.982	1100.850
241.015	14.479	1448.960	1099.942
242.030	14.417	1447.756	1098.517
243.045	14.433	1446.991	1097.947
244.059	14.538	1446.222	1097.960
245.074	14.613	1444.816	1097.287
246.088	14.566	1443.995	1096.259
247.103	14.634	1443.836	1096.488
248.117	14.626	1443.331	1095.951
249.132	14.669	1442.117	1095.213
250.147	14.740	1441.472	1095.095
251.161	14.794	1440.917	1094.931
252.176	14.878	1440.037	1094.716
253.190	14.899	1439.287	1094.187
254.205	14.934	1438.282	1093.556
255.220	15.012	1437.433	1093.322
256.234	15.011	1436.979	1092.873
257.249	15.053	1435.871	1092.208
258.263	15.076	1434.654	1091.334
259.278	15.137	1433.860	1091.029
260.293	14.984	1433.297	1089.507
261.307	15.048	1432.515	1089.237
262.322	15.079	1431.599	1088.642
263.336	15.228	1430.576	1088.741
264.351	15.150	1430.007	1087.704
265.366	15.180	1428.723	1086.826
266.380	15.155	1427.839	1085.890
267.395	15.235	1427.012	1085.685
268.409	15.256	1425.744	1084.759
269.424	15.186	1424.873	1083.548
270.439	15.276	1423.687	1083.131
271.453	15.189	1423.023	1081.969
272.468	15.224	1422.219	1081.490
273.482	15.208	1421.497	1080.745
274.497	15.242	1420.383	1080.019
275.512	15.242	1419.617	1079.343
276.526	15.231	1418.536	1078.351
277.541	15.196	1417.883	1077.534
278.555	15.139	1416.963	1076.376
279.570	15.254	1416.333	1076.542
280.585	15.280	1415.304	1075.826
281.599	15.343	1414.434	1075.478
282.614	15.310	1412.987	1074.072
283.628	15.347	1411.923	1073.403
284.643	15.360	1411.303	1072.917
285.657	15.325	1410.302	1071.838
286.672	15.313	1409.014	1070.687
287.687	15.419	1407.788	1070.337
288.701	15.360	1407.005	1069.276
289.716	15.323	1406.795	1068.782
290.730	15.391	1405.904	1068.443
291.745	15.404	1404.733	1067.541
292.760	15.386	1403.411	1066.328
293.774	15.464	1402.116	1065.746
294.789	15.379	1401.373	1064.545
295.803	15.487	1400.806	1064.709
296.818	15.624	1399.656	1064.604
297.833	15.590	1398.610	1063.504
298.847	15.537	1397.582	1062.290
299.862	15.471	1396.865	1061.236
300.876	15.489	1395.977	1060.581
301.891	15.543	1394.959	1060.051
302.906	15.502	1394.383	1059.265
303.920	15.639	1393.614	1059.449
304.935	15.645	1392.881	1058.838
305.949	15.708	1392.089	1058.537
306.964	15.805	1390.743	1058.029
307.979	15.796	1390.084	1057.378
308.993	15.851	1389.230	1056.982
310.008	15.773	1388.420	1055.783
311.022	15.752	1387.428	1054.802
312.037	15.852	1386.251	1054.438
313.052	15.805	1385.084	1053.167
314.066	15.746	1384.577	1052.315
315.081	15.733	1383.347	1051.206
316.095	15.788	1381.787	1050.271
317.110	15.747	1380.966	1049.303
318.125	15.838	1379.881	1048.949
319.139	15.705	1379.471	1047.718
320.154	15.697	1378.695	1046.983
321.168	15.764	1377.474	1046.381
322.183	15.779	1376.140	1045.366
323.197	15.726	1375.509	1044.471
324.212	15.825	1374.776	1044.433
325.227	15.771	1374.035	1043.441
326.241	15.852	1373.038	1043.099
327.256	15.804	1372.488	1042.286
328.270	15.862	1371.188	1041.570
329.285	15.899	1370.088	1040.872
330.300	15.888	1369.059	1039.928
331.314	15.831	1368.302	1038.906
332.329	15.962	1367.294	1038.861
333.343	15.905	1366.485	1037.804
334.358	15.875	1365.691	1036.920
335.373	15.869	1365.115	1036.358
336.387	16.088	1363.994	1036.763
337.402	16.102	1363.056	1036.039
338.416	16.004	1362.719	1035.091
339.431	16.004	1361.805	1034.308
340.446	16.046	1361.365	1034.137
341.460	16.186	1360.182	1034.005
342.475	16.138	1359.203	1032.875
343.489	16.225	1358.244	1032.585
344.504	16.214	1357.583	1031.927
345.519	16.235	1356.557	1031.187
346.533	16.198	1355.866	1030.341
347.548	16.390	1354.488	1030.371
348.562	16.365	1353.780	1029.592
349.577	16.444	1352.744	1029.194
350.592	16.297	1352.260	1027.837
351.606	16.314	1351.437	1027.230
352.621	16.196	1350.420	1025.645
353.635	16.195	1349.560	1024.894
354.650	16.201	1348.205	1023.814
355.665	16.218	1347.411	1023.225
356.679	16.224	1346.164	1022.223
357.694	16.311	1345.096	1021.845
358.708	16.273	1344.151	1020.809
359.723	16.344	1342.827	1020.138
360.738	16.402	1342.234	1019.948
361.752	16.460	1340.780	1019.108
362.767	16.391	1339.927	1017.953
363.781	16.476	1338.977	1017.650
364.796	16.422	1338.285	1016.710
365.810	16.434	1337.672	1016.227
366.825	16.453	1336.948	1015.698
367.840	16.579	1335.910	1015.580
368.854	16.665	1335.005	1015.319
369.869	16.733	1334.707	1015.409
370.883	16.710	1334.276	1014.854
371.898	16.643	1333.726	1013.941
372.913	16.645	1332.932	1013.262
373.927	16.599	1331.517	1011.822
374.942	16.721	1330.648	1011.801
375.956	16.783	1329.709	1011.365
376.971	16.647	1329.482	1010.294
377.986	16.757	1328.442	1010.069
379.000	16.717	1327.529	1009.050
380.015	16.818	1326.524	1008.797
381.029	16.751	1326.023	1007.926
382.044	16.759	1325.410	1007.419
383.059	16.993	1324.430	1007.973
384.073	16.863	1323.999	1006.783
385.088	16.875	1323.346	1006.273
386.102	16.947	1322.435	1005.915
387.117	16.945	1321.692	1005.251
388.132	16.984	1321.011	1004.875
389.146	16.874	1320.063	1003.416
390.161	16.817	1319.274	1002.390
391.175	16.872	1318.575	1002.094
392.190	16.776	1317.792	1000.840
393.205	16.834	1317.328	1000.744
394.219	16.903	1315.710	999.834
395.234	17.076	1314.287	999.683
396.248	16.991	1313.002	998.118
397.263	16.964	1311.547	996.763
398.278	16.825	1310.613	995.150
399.292	16.959	1309.510	995.011
400.307	16.984	1308.262	994.119
401.321	16.910	1307.117	992.729
402.336	16.856	1306.286	991.696
403.350	16.906	1305.678	991.436
404.365	16.823	1304.737	990.151
405.380	16.968	1303.362	989.866
406.394	16.980	1302.566	989.240
407.409	17.043	1301.926	989.037
408.423	17.038	1301.638	988.700
409.438	17.108	1300.435	988.106
410.453	17.084	1299.988	987.539
411.467	17.211	1299.234	987.619
412.482	17.270	1298.518	987.330
413.496	17.301	1297.631	986.745
414.511	17.272	1297.144	986.124
415.526	17.349	1296.335	985.864
416.540	17.311	1295.901	985.229
417.555	17.426	1295.175	985.252
418.569	17.476	1294.565	984.994
419.584	17.343	1294.071	983.762
420.599	17.366	1293.082	983.056
421.613	92.283	1350.987	1457.608
422.628	90.669	1359.390	1457.733
