DTS Sentinel unit serial number:	SN413079Multiplexer serial number:	ORYXHardware model number:	OX4-SRSoftware version number:	ORYX F/W v4.00 Oryx Data Collector v3.7.2.0data status	okinstallation	princeton_trtdifferential loss correction	single-endedforward channel	channel 4reverse channel	N/Adate	2019/09/14time	05:29:35forward acquisition time	60.00reverse acquisition time	0.00gamma	496.2192k internal	0.2320k external	0.2320temperature offset calibration	1.0136default loss term (dB/km)	0.3790temperature slope calibration	1.0000multiplexer offset coefficient	1.0000multiplexer slope coefficient	1.0000fibre end	0.00T internal ref (°C)	26.92T ext. ref 1 (°C)	3.39T ext. ref 2 (°C)	21.87length (m)	temperature (°C)	Stokes	anti-Stokes-747.200	800.000	-0.050	0.144
-746.185	202.622	-0.187	0.292
-745.171	800.000	0.045	-0.158
-744.156	302.771	0.026	-0.049
-743.142	-100.279	-0.401	0.101
-742.127	40.270	0.225	0.205
-741.112	-143.297	-0.118	-0.011
-740.098	5.554	0.193	-0.144
-739.083	-40.859	-0.069	0.036
-738.069	800.000	-0.074	0.288
-737.054	-200.000	-0.037	0.236
-736.039	130.835	-0.282	0.366
-735.025	-91.956	0.433	0.124
-734.010	-200.000	0.012	-0.436
-732.996	-51.358	-0.330	-0.156
-731.981	674.507	0.092	-0.241
-730.966	-36.119	0.045	-0.024
-729.952	-11.494	-0.186	0.123
-728.937	209.948	0.145	0.230
-727.923	-200.000	-0.027	0.317
-726.908	800.000	0.033	0.101
-725.894	-126.168	-0.331	0.050
-724.879	-5.542	0.407	-0.282
-723.864	-43.435	-0.215	-0.110
-722.850	503.893	-0.049	-0.114
-721.835	-200.000	-0.025	0.189
-720.821	-28.201	-0.123	0.072
-719.806	-153.037	0.041	-0.003
-718.791	40.937	-0.036	-0.033
-717.777	-200.000	-0.158	-0.000
-716.762	-200.000	-0.090	-0.000
-715.748	-200.000	0.019	0.176
-714.733	-200.000	0.040	-0.338
-713.718	800.000	-0.094	-0.294
-712.704	646.691	0.069	-0.179
-711.689	-200.000	-0.015	-0.225
-710.675	228.984	0.169	-0.278
-709.660	-132.661	0.310	0.040
-708.645	-157.403	-0.268	-0.016
-707.631	-65.042	-0.155	0.063
-706.616	-66.995	0.154	0.062
-705.602	-156.167	0.093	-0.006
-704.587	800.000	0.081	-0.314
-703.572	-200.000	0.005	0.164
-702.558	70.255	0.096	-0.100
-701.543	-110.182	0.067	-0.014
-700.529	-66.078	0.201	0.081
-699.514	-17.842	0.012	0.007
-698.499	-122.882	0.092	-0.015
-697.485	41.627	0.115	0.105
-696.470	139.933	-0.100	-0.133
-695.456	88.026	-0.116	-0.130
-694.441	51.955	0.207	-0.199
-693.426	1.489	0.099	-0.072
-692.412	-13.345	-0.179	-0.117
-691.397	-166.735	0.342	0.014
-690.383	-12.393	0.140	-0.092
-689.368	28.143	0.273	-0.232
-688.354	-98.743	0.125	-0.032
-687.339	145.582	-0.106	0.143
-686.324	-200.000	0.006	0.177
-685.310	-62.272	0.115	-0.048
-684.295	-200.000	0.004	-0.242
-683.281	-5.813	-0.103	0.071
-682.266	-59.126	0.317	0.138
-681.251	170.270	-0.053	0.076
-680.237	25.460	0.229	-0.192
-679.222	-177.923	0.054	-0.001
-678.208	-200.000	0.063	-0.391
-677.193	-200.000	-0.041	0.246
-676.178	359.670	-0.103	-0.207
-675.164	-25.523	0.269	-0.160
-674.149	308.724	0.049	0.093
-673.135	177.018	0.070	-0.102
-672.120	449.804	-0.116	0.259
-671.105	-40.521	-0.217	-0.113
-670.091	1.250	0.099	0.072
-669.076	-200.000	0.033	-0.177
-668.062	612.735	-0.088	-0.223
-667.047	160.557	-0.075	-0.105
-666.032	800.000	-0.023	0.094
-665.018	721.730	-0.104	-0.279
-664.003	-105.024	0.244	0.056
-662.989	25.866	-0.362	-0.304
-661.974	-200.000	0.012	0.105
-660.959	800.000	0.009	-0.037
-659.945	800.000	-0.017	0.051
-658.930	243.944	0.175	-0.296
-657.916	-32.302	0.376	-0.212
-656.901	-35.627	-0.271	0.148
-655.886	57.895	-0.038	0.037
-654.872	169.144	-0.125	-0.180
-653.857	-76.719	0.227	-0.080
-652.843	-200.000	-0.027	0.159
-651.828	109.766	0.039	0.047
-650.814	542.688	0.149	-0.357
-649.799	-29.598	-0.132	0.076
-648.784	-95.876	0.142	-0.038
-647.770	134.410	-0.128	0.167
-646.755	-142.696	0.111	-0.011
-645.741	-200.000	0.006	-0.060
-644.726	178.050	-0.126	0.185
-643.711	-200.000	-0.043	0.357
-642.697	28.516	0.075	0.063
-641.682	73.483	-0.056	0.059
-640.668	-20.549	0.431	0.267
-639.653	-200.000	0.043	-0.260
-638.638	-200.000	-0.061	0.391
-637.624	800.000	0.061	-0.240
-636.609	413.078	0.039	0.083
-635.595	186.410	-0.080	0.119
-634.580	-12.493	0.126	0.083
-633.565	73.819	-0.009	-0.010
-632.551	46.440	-0.271	0.253
-631.536	24.551	-0.324	-0.269
-630.522	159.049	0.135	-0.189
-629.507	23.829	0.188	0.156
-628.492	-75.429	-0.110	-0.039
-627.478	-45.517	0.228	0.114
-626.463	25.090	0.083	0.070
-625.449	313.822	-0.093	-0.177
-624.434	427.991	-0.158	0.342
-623.419	63.748	0.321	0.324
-622.405	181.493	0.188	-0.278
-621.390	-58.457	-0.145	0.064
-620.376	-200.000	-0.037	0.313
-619.361	162.572	-0.125	0.177
-618.346	-109.222	0.224	-0.048
-617.332	126.256	-0.125	0.159
-616.317	-200.000	0.010	-0.178
-615.303	-143.835	-0.256	0.024
-614.288	-200.000	-0.054	0.281
-613.273	-97.392	0.273	-0.072
-612.259	291.902	-0.013	-0.024
-611.244	800.000	-0.023	0.069
-610.230	72.060	0.206	-0.215
-609.215	652.678	0.072	-0.184
-608.201	-59.625	0.162	0.070
-607.186	-32.195	0.204	-0.115
-606.171	-73.434	0.169	-0.062
-605.157	-19.124	0.152	0.095
-604.142	-104.312	-0.199	0.046
-603.128	716.363	-0.070	-0.188
-602.113	-121.773	0.452	-0.075
-601.098	-114.608	0.255	-0.049
-600.084	150.712	-0.024	-0.033
-599.069	-98.812	0.172	0.044
-598.055	-29.962	-0.203	-0.116
-597.040	417.936	0.063	-0.135
-596.025	-100.752	0.187	0.046
-595.011	-101.450	-0.196	-0.048
-593.996	24.395	0.036	-0.030
-592.982	-34.296	0.166	0.092
-591.967	303.185	0.109	0.202
-590.952	-3.576	0.209	0.146
-589.938	-24.765	-0.065	-0.039
-588.923	800.000	0.076	0.331
-587.909	-56.392	0.361	0.161
-586.894	231.554	0.171	-0.282
-585.879	-200.000	-0.020	0.146
-584.865	-72.940	0.489	-0.181
-583.850	265.090	-0.112	-0.196
-582.836	-98.094	-0.195	-0.051
-581.821	5.285	0.258	-0.191
-580.806	800.000	0.024	-0.086
-579.792	-32.363	0.285	-0.160
-578.777	363.349	-0.087	-0.175
-577.763	-200.000	-0.013	0.126
-576.748	-200.000	-0.032	0.209
-575.733	32.182	0.219	-0.190
-574.719	82.518	-0.122	0.133
-573.704	-200.000	0.008	0.366
-572.690	464.117	0.058	0.131
-571.675	29.778	-0.074	0.063
-570.661	223.494	-0.185	0.299
-569.646	-200.000	0.002	-0.060
-568.631	19.821	0.279	-0.225
-567.617	-200.000	0.031	-0.198
-566.602	-28.601	-0.174	-0.100
-565.588	-0.443	-0.185	0.132
-564.573	-31.033	0.127	-0.072
-563.558	-37.897	-0.366	0.195
-562.544	-74.039	-0.329	0.120
-561.529	558.340	0.082	-0.198
-560.515	372.529	0.012	0.024
-559.500	27.290	0.120	-0.101
-558.485	267.696	-0.165	-0.290
-557.471	703.736	0.056	-0.148
-556.456	-200.000	-0.044	0.276
-555.442	24.449	-0.279	0.232
-554.427	260.028	0.163	0.283
-553.412	-70.220	-0.226	-0.086
-552.398	-200.000	0.010	0.181
-551.383	126.531	-0.139	0.177
-550.369	-84.078	0.187	-0.060
-549.354	-200.000	0.004	-0.175
-548.339	400.365	0.112	-0.236
-547.325	50.183	-0.110	0.104
-546.310	543.129	0.155	0.371
-545.296	-31.687	-0.148	-0.084
-544.281	741.060	0.052	0.139
-543.266	-77.404	-0.090	0.031
-542.252	-200.000	0.017	-0.102
-541.237	-200.000	-0.010	-0.243
-540.223	-200.000	0.039	0.202
-539.208	800.000	0.036	-0.141
-538.193	176.894	0.017	-0.025
-537.179	-200.000	-0.002	-0.157
-536.164	-86.272	-0.172	0.053
-535.150	-143.652	-0.260	-0.025
-534.135	-17.097	-0.106	0.067
-533.121	252.423	-0.046	0.079
-532.106	-200.000	0.001	0.346
-531.091	-139.498	-0.651	0.070
-530.077	-189.223	0.312	0.004
-529.062	52.647	0.104	0.099
-528.048	-27.844	-0.205	-0.119
-527.033	103.930	-0.164	-0.194
-526.018	80.655	-0.030	0.033
-525.004	-144.840	0.099	0.009
-523.989	-119.680	-0.172	-0.030
-522.975	-184.407	-0.292	0.005
-521.960	681.826	0.074	-0.193
-520.945	800.000	-0.074	-0.237
-519.931	286.077	-0.071	-0.129
-518.916	-52.737	-0.314	-0.145
-517.902	-82.230	0.247	0.080
-516.887	-32.878	0.305	-0.170
-515.872	530.247	0.061	0.143
-514.858	582.988	-0.054	-0.133
-513.843	-13.153	0.298	0.194
-512.829	557.154	-0.088	-0.212
-511.814	-200.000	-0.001	-0.016
-510.799	-78.632	-0.174	-0.060
-509.785	92.979	0.207	0.235
-508.770	-99.186	-0.143	-0.036
-507.756	185.622	0.103	-0.153
-506.741	-24.362	-0.124	0.074
-505.726	667.125	-0.087	-0.226
-504.712	1.044	0.448	-0.322
-503.697	584.982	0.087	0.214
-502.683	-21.975	-0.073	-0.044
-501.668	-19.818	0.169	-0.104
-500.653	-159.252	0.114	0.006
-499.639	-79.008	0.167	-0.057
-498.624	313.357	-0.110	-0.207
-497.610	586.357	-0.064	-0.158
-496.595	-200.000	0.010	0.201
-495.581	-96.203	-0.124	0.033
-494.566	-123.841	0.222	-0.035
-493.551	-60.616	-0.224	-0.095
-492.537	800.000	-0.095	-0.289
-491.522	0.695	0.315	0.226
-490.508	101.283	-0.050	0.058
-489.493	183.853	-0.085	-0.125
-488.478	24.146	0.305	0.252
-487.464	-20.481	-0.208	-0.128
-486.449	292.724	-0.119	0.216
-485.435	-117.639	-0.265	0.048
-484.420	-117.807	0.352	-0.063
-483.405	-200.000	-0.007	0.113
-482.391	393.305	0.026	0.055
-481.376	800.000	-0.184	-0.517
-480.362	-110.573	-0.251	0.052
-479.347	167.836	0.047	0.068
-478.332	-141.299	0.289	0.029
-477.318	746.052	0.058	-0.156
-476.303	244.361	0.177	0.298
-475.289	-200.000	-0.032	0.256
-474.274	-200.000	0.009	-0.139
-473.259	-175.999	-0.162	-0.004
-472.245	224.757	0.075	-0.121
-471.230	-48.338	0.393	-0.189
-470.216	-123.111	-0.191	-0.031
-469.201	245.000	-0.046	0.077
-468.186	800.000	-0.043	0.145
-467.172	-164.277	-0.026	-0.001
-466.157	641.832	-0.064	0.163
-465.143	-200.000	-0.005	-0.159
-464.128	486.692	-0.062	0.141
-463.113	88.310	-0.121	-0.135
-462.099	43.250	-0.154	-0.141
-461.084	631.549	-0.073	0.185
-460.070	-200.000	0.061	0.338
-459.055	-46.547	-0.306	-0.150
-458.040	-200.000	0.023	0.139
-457.026	-153.087	0.099	0.007
-456.011	-139.639	0.204	-0.022
-454.997	-89.825	-0.139	0.041
-453.982	-0.224	-0.240	-0.171
-452.968	800.000	0.078	-0.216
-451.953	-200.000	-0.030	-0.194
-450.938	-187.859	-0.398	-0.005
-449.924	-189.252	0.166	0.002
-448.909	-5.127	-0.099	-0.068
-447.895	-0.361	-0.106	0.075
-446.880	-200.000	0.006	0.036
-445.865	-113.860	0.203	-0.039
-444.851	48.848	-0.173	0.162
-443.836	800.000	-0.030	-0.114
-442.822	-103.240	0.091	0.021
-441.807	800.000	0.036	0.112
-440.792	157.309	-0.142	-0.196
-439.778	800.000	0.071	0.256
-438.763	150.908	-0.159	0.216
-437.749	-87.205	0.047	0.014
-436.734	68.327	0.054	-0.055
-435.719	-149.763	-0.168	-0.013
-434.705	-200.000	-0.041	-0.377
-433.690	-120.478	-0.150	0.026
-432.676	800.000	0.025	0.097
-431.661	-126.644	0.336	0.050
-430.646	-41.787	-0.342	-0.175
-429.632	-91.967	-0.122	-0.035
-428.617	-117.433	0.148	0.027
-427.603	-200.000	0.020	-0.100
-426.588	800.000	-0.054	0.161
-425.573	233.752	-0.054	-0.089
-424.559	88.695	0.159	0.177
-423.544	-168.831	0.180	-0.007
-422.530	800.000	0.036	0.122
-421.515	-39.005	-0.187	-0.098
-420.500	-93.221	-0.268	-0.074
-419.486	-126.118	0.056	0.008
-418.471	800.000	-0.023	-0.065
-417.457	127.501	0.267	0.339
-416.442	-148.483	-0.183	0.015
-415.428	-76.288	-0.338	0.119
-414.413	303.464	-0.106	-0.195
-413.398	800.000	-0.023	-0.067
-412.384	-44.695	-0.070	-0.035
-411.369	-65.084	-0.231	-0.093
-410.355	-72.312	0.136	-0.050
-409.340	-113.444	-0.467	-0.091
-408.325	-80.806	0.314	-0.104
-407.311	-117.030	-0.084	-0.015
-406.296	-103.443	0.126	-0.030
-405.282	-92.606	0.295	0.083
-404.267	277.122	0.119	-0.211
-403.252	32.675	-0.157	-0.136
-402.238	-109.091	0.239	0.051
-401.223	-119.847	0.350	0.060
-400.209	-16.868	0.123	-0.078
-399.194	314.518	-0.158	-0.298
-398.179	-24.012	-0.162	0.097
-397.165	160.948	-0.128	0.179
-396.150	800.000	-0.023	-0.087
-395.136	372.479	-0.157	0.317
-394.121	-200.000	0.019	-0.102
-393.106	-9.353	0.153	0.102
-392.092	534.494	-0.047	0.112
-391.077	-53.372	0.316	-0.144
-390.063	-96.697	-0.429	0.113
-389.048	-2.651	0.296	0.207
-388.033	-185.529	-0.166	0.003
-387.019	211.920	-0.231	-0.362
-386.004	-1.407	-0.195	-0.137
-384.990	-80.294	-0.150	-0.050
-383.975	33.621	-0.125	0.108
-382.960	-200.000	0.015	-0.219
-381.946	194.285	0.093	0.141
-380.931	-12.671	-0.153	0.100
-379.917	559.393	0.068	0.162
-378.902	-89.876	0.184	-0.054
-377.888	-200.000	-0.006	-0.158
-376.873	-21.556	0.142	-0.086
-375.858	-200.000	0.003	-0.147
-374.844	272.128	-0.094	-0.165
-373.829	-102.767	0.212	-0.050
-372.815	45.467	-0.090	-0.083
-371.800	-58.596	-0.030	-0.013
-370.785	242.324	-0.050	0.083
-369.771	-39.330	-0.050	0.026
-368.756	-15.130	0.121	-0.077
-367.742	-45.703	0.136	-0.067
-366.727	45.548	0.166	0.153
-365.712	-34.555	0.068	-0.037
-364.698	-200.000	-0.031	-0.257
-363.683	-200.000	0.007	0.260
-362.669	-82.979	-0.099	0.032
-361.654	-141.542	-0.057	-0.006
-360.639	429.839	-0.248	-0.534
-359.625	800.000	-0.048	0.165
-358.610	-63.584	0.315	0.129
-357.596	-90.841	-0.117	-0.033
-356.581	554.940	-0.202	-0.484
-355.566	-200.000	-0.039	-0.230
-354.552	152.387	-0.284	-0.386
-353.537	53.000	0.096	0.091
-352.523	-126.050	-0.122	0.018
-351.508	56.147	0.082	-0.080
-350.493	298.692	-0.048	0.087
-349.479	-109.876	-0.212	-0.044
-348.464	800.000	-0.076	0.290
-347.450	168.965	0.213	-0.303
-346.435	-200.000	-0.044	0.226
-345.420	165.763	0.104	-0.147
-344.406	-16.377	0.080	-0.051
-343.391	-130.659	-0.131	0.017
-342.377	153.093	-0.201	-0.273
-341.362	-35.308	0.239	0.130
-340.348	-115.301	0.060	-0.011
-339.333	227.757	-0.075	0.121
-338.318	-200.000	0.005	0.059
-337.304	798.083	0.052	0.142
-336.289	-109.832	0.226	-0.047
-335.275	102.638	0.166	0.193
-334.260	138.790	0.140	0.183
-333.245	637.698	0.057	0.144
-332.231	-200.000	-0.051	-0.300
-331.216	-200.000	-0.026	-0.151
-330.202	-53.521	-0.079	0.036
-329.187	-200.000	-0.012	-0.107
-328.172	-200.000	-0.025	0.159
-327.158	270.300	-0.114	-0.200
-326.143	338.615	-0.113	0.219
-325.129	-74.572	0.222	0.080
-324.114	545.832	-0.046	-0.110
-323.099	-91.614	-0.182	-0.052
-322.085	-195.741	-0.160	-0.001
-321.070	-25.848	-0.253	0.148
-320.056	-46.917	0.261	-0.127
-319.041	13.220	-0.064	-0.050
-318.026	-200.000	-0.000	0.257
-317.012	-59.742	0.283	0.120
-315.997	716.988	0.077	0.203
-314.983	13.880	0.127	0.098
-313.968	86.145	0.142	0.155
-312.953	-139.135	-0.322	0.035
-311.939	220.361	0.056	0.090
-310.924	254.256	-0.131	-0.222
-309.910	21.001	0.073	0.059
-308.895	-139.103	-0.072	-0.008
-307.880	81.780	-0.219	-0.236
-306.866	-200.000	0.015	0.244
-305.851	33.010	0.159	0.137
-304.837	-200.000	0.036	0.218
-303.822	-33.339	-0.331	-0.182
-302.807	7.762	-0.187	0.139
-301.793	-13.883	0.147	0.095
-300.778	800.000	0.045	-0.180
-299.764	-94.728	0.403	0.109
-298.749	228.459	0.177	-0.287
-297.735	-114.704	0.200	0.038
-296.720	-49.244	0.072	-0.034
-295.705	49.253	0.277	-0.258
-294.691	-86.377	-0.304	-0.093
-293.676	-200.000	-0.018	0.177
-292.662	-200.000	-0.017	-0.108
-291.647	118.270	0.196	-0.240
-290.632	10.135	-0.142	0.107
-289.618	-200.000	0.003	-0.260
-288.603	37.453	-0.165	0.145
-287.589	800.000	0.109	-0.426
-286.574	-151.527	-0.163	-0.012
-285.559	-183.514	-0.434	0.007
-284.545	206.045	-0.101	0.157
-283.530	-200.000	0.007	0.084
-282.516	-119.783	-0.183	-0.031
-281.501	-105.775	0.544	0.122
-280.486	171.123	0.024	0.034
-279.472	800.000	0.017	-0.066
-278.457	-121.794	0.051	-0.008
-277.443	-122.726	-0.175	-0.028
-276.428	379.011	-0.091	-0.184
-275.413	-36.887	-0.012	0.006
-274.399	128.727	0.123	-0.155
-273.384	66.539	0.040	0.040
-272.370	-89.801	0.400	-0.116
-271.355	-108.431	-0.144	0.031
-270.340	-112.649	0.101	0.020
-269.326	240.846	-0.245	0.406
-268.311	-83.117	0.182	-0.058
-267.297	-11.460	0.187	-0.122
-266.282	-70.111	-0.145	0.055
-265.267	-13.039	-0.182	0.118
-264.253	-161.821	0.218	0.011
-263.238	-200.000	-0.014	-0.274
-262.224	800.000	-0.046	0.194
-261.209	-132.276	0.282	0.036
-260.195	-104.474	-0.091	-0.021
-259.180	-162.928	-0.251	-0.012
-258.165	14.162	0.110	0.085
-257.151	800.000	0.103	-0.337
-256.136	-39.296	-0.159	-0.083
-255.122	366.041	-0.100	0.200
-254.107	-25.807	0.189	-0.110
-253.092	-83.908	0.435	0.137
-252.078	0.154	0.231	0.163
-251.063	-13.806	-0.116	-0.074
-250.049	-31.956	0.275	0.153
-249.034	-67.762	-0.138	0.054
-248.019	-66.692	0.320	0.126
-247.005	-68.005	-0.299	0.116
-245.990	800.000	0.055	0.206
-244.976	-200.000	-0.013	-0.300
-243.961	389.900	0.059	-0.121
-242.946	358.597	0.079	0.156
-241.932	800.000	-0.050	-0.213
-240.917	-29.746	0.072	-0.041
-239.903	-200.000	0.015	0.084
-238.888	-17.718	-0.188	0.117
-237.873	-15.295	-0.391	0.248
-236.859	146.057	0.038	-0.051
-235.844	72.620	-0.128	-0.133
-234.830	-95.471	0.251	-0.067
-233.815	92.162	0.166	0.186
-232.800	81.771	-0.031	0.033
-231.786	-200.000	-0.056	-0.271
-230.771	69.257	0.161	-0.164
-229.757	63.717	-0.082	-0.081
-228.742	261.753	-0.119	-0.204
-227.727	-107.137	-0.127	-0.028
-226.713	-119.877	0.076	-0.013
-225.698	-200.000	-0.008	0.051
-224.684	-39.008	0.200	0.104
-223.669	-132.963	-0.061	-0.008
-222.655	-32.854	0.258	0.142
-221.640	-104.809	-0.165	0.038
-220.625	-142.310	-0.271	-0.026
-219.611	-114.593	-0.430	-0.082
-218.596	376.223	-0.301	-0.609
-217.582	-132.818	-0.278	-0.035
-216.567	77.141	0.185	0.194
-215.552	95.072	0.199	-0.225
-214.538	233.623	-0.064	0.104
-213.523	-72.842	0.230	0.084
-212.509	294.577	0.091	0.165
-211.494	-71.978	-0.316	0.117
-210.479	-41.529	-0.058	0.030
-209.465	9.612	0.090	-0.068
-208.450	-72.955	0.100	-0.036
-207.436	134.118	0.081	-0.104
-206.421	-104.079	-0.259	0.060
-205.406	-156.326	-0.234	-0.015
-204.392	512.230	0.140	-0.322
-203.377	-86.422	0.101	-0.031
-202.363	490.006	0.030	0.067
-201.348	-96.984	-0.153	0.040
-200.333	89.944	0.239	0.264
-199.319	800.000	0.061	-0.256
-198.304	8.540	-0.122	-0.091
-197.290	-65.893	-0.206	0.081
-196.275	-91.192	-0.210	0.060
-195.260	-180.159	0.177	-0.004
-194.246	-79.217	-0.044	-0.015
-193.231	800.000	0.078	-0.305
-192.217	-102.195	0.328	0.078
-191.202	-147.387	-0.150	-0.013
-190.187	-67.501	0.012	-0.005
-189.173	-14.136	-0.269	0.172
-188.158	-17.350	-0.329	0.205
-187.144	800.000	0.068	0.245
-186.129	-200.000	-0.013	0.112
-185.114	170.440	0.195	0.276
-184.100	800.000	-0.072	0.234
-183.085	8.441	-0.059	0.044
-182.071	-107.103	-0.344	0.075
-181.056	-66.029	-0.098	-0.039
-180.042	800.000	-0.111	0.349
-179.027	157.522	0.058	0.080
-178.012	-64.741	0.217	0.087
-176.998	-124.097	0.169	0.026
-175.983	427.594	-0.188	0.400
-174.969	-37.150	0.167	0.088
-173.954	-75.797	0.179	-0.063
-172.939	56.519	-0.168	0.162
-171.925	-189.022	-0.234	-0.003
-170.910	14.857	0.181	0.140
-169.896	-40.009	0.331	0.171
-168.881	725.262	-0.084	-0.221
-167.866	800.000	-0.050	-0.152
-166.852	174.342	0.118	-0.169
-165.837	-44.506	0.096	0.047
-164.823	22.990	0.136	-0.110
-163.808	-55.853	-0.154	0.068
-162.793	242.724	0.111	0.183
-161.779	177.388	-0.140	-0.201
-160.764	-7.119	0.153	-0.102
-159.750	232.498	-0.125	-0.203
-158.735	-130.406	-0.395	0.053
-157.720	40.498	0.185	0.165
-156.706	338.217	0.071	-0.136
-155.691	800.000	-0.068	-0.233
-154.677	-158.855	0.342	0.019
-153.662	-200.000	-0.011	0.185
-152.647	34.398	0.317	-0.273
-151.633	110.578	-0.081	0.096
-150.618	-48.579	-0.242	0.115
-149.604	800.000	-0.055	0.211
-148.589	-26.085	-0.366	-0.213
-147.574	800.000	-0.033	-0.100
-146.560	-103.862	-0.250	-0.058
-145.545	800.000	0.138	0.461
-144.531	-121.218	0.266	-0.044
-143.516	-67.167	0.110	-0.043
-142.502	-49.879	-0.077	-0.036
-141.487	-141.069	0.220	0.022
-140.472	-77.932	-0.357	0.122
-139.458	-145.350	-0.246	-0.022
-138.443	285.982	-0.188	-0.334
-137.429	-200.000	-0.042	-0.303
-136.414	800.000	-0.053	-0.183
-135.399	231.477	-0.035	0.057
-134.385	-57.854	0.073	-0.032
-133.370	34.992	-0.216	0.187
-132.356	800.000	0.067	-0.196
-131.341	647.058	0.028	-0.072
-130.326	700.345	-0.063	-0.163
-129.312	-147.036	0.536	-0.045
-128.297	101.897	0.121	0.139
-127.283	-74.242	-0.101	-0.036
-126.268	-16.700	0.177	0.111
-125.253	-69.292	-0.222	0.084
-124.239	-118.293	0.060	-0.011
-123.224	251.612	-0.178	0.299
-122.210	-200.000	0.015	0.510
-121.195	166.274	-0.030	0.042
-120.180	-27.703	-0.413	0.237
-119.166	-200.000	0.008	0.070
-118.151	89.036	0.225	0.247
-117.137	240.375	0.128	-0.211
-116.122	375.287	0.082	-0.165
-115.107	578.823	-0.081	-0.195
-114.093	-124.790	-0.184	-0.028
-113.078	-116.279	-0.341	0.062
-112.064	-17.343	0.192	-0.119
-111.049	8.605	-0.186	-0.138
-110.034	-81.732	-0.082	0.027
-109.020	-14.053	0.018	0.011
-108.005	-31.287	-0.302	-0.167
-106.991	134.425	-0.059	-0.075
-105.976	-113.836	0.205	-0.039
-104.962	452.935	0.139	0.302
-103.947	-77.077	-0.207	-0.071
-102.932	-43.826	-0.076	-0.038
-101.918	-92.352	0.318	0.088
-100.903	22.120	-0.065	0.053
-99.889	-200.000	0.080	0.417
-98.874	263.259	0.087	-0.149
-97.859	-124.381	-0.200	-0.031
-96.845	124.748	0.142	0.176
-95.830	-87.504	-0.156	0.046
-94.816	-77.023	-0.042	-0.014
-93.801	-92.897	0.212	-0.058
-92.786	90.612	0.114	-0.126
-91.772	32.724	0.194	-0.165
-90.757	12.894	0.135	0.103
-89.743	-94.136	0.139	-0.038
-88.728	255.452	0.193	0.326
-87.713	-61.012	-0.236	-0.098
-86.699	800.000	0.052	-0.205
-85.684	13.113	0.253	-0.193
-84.670	-200.000	-0.014	-0.222
-83.655	-200.000	0.329	-0.001
-82.640	495.362	-0.044	-0.100
-81.626	-138.519	0.194	-0.021
-80.611	-64.768	-0.035	0.014
-79.597	-58.326	-0.189	0.081
-78.582	13.520	-0.162	-0.124
-77.567	800.000	0.023	-0.072
-76.553	-200.000	-0.007	-0.277
-75.538	-137.710	-0.238	-0.026
-74.524	800.000	0.024	0.076
-73.509	-42.597	-0.309	-0.155
-72.494	80.222	0.183	0.193
-71.480	-200.000	0.046	0.287
-70.465	15.992	-0.255	0.198
-69.451	-27.381	-0.337	0.193
-68.436	-63.726	0.185	-0.075
-67.422	58.670	-0.147	0.142
-66.407	-185.899	0.144	0.002
-65.392	58.325	0.234	0.226
-64.378	-112.143	0.133	0.026
-63.363	-11.345	0.256	0.166
-62.349	163.548	0.184	0.255
-61.334	123.467	-0.890	-1.099
-60.319	49.741	0.421	0.391
-59.305	288.421	-0.543	-0.969
-58.290	172.009	0.883	1.249
-57.276	800.000	0.497	1.605
-56.261	-200.000	115.997	662.857
-55.246	523.047	1532.560	3543.817
-54.232	172.228	2715.811	3843.560
-53.217	98.534	2337.589	2652.454
-52.203	33.580	2081.429	1780.091
-51.188	28.636	1995.972	1662.295
-50.173	27.340	1978.296	1635.868
-49.159	45.936	2038.089	1855.496
-48.144	44.349	2053.445	1854.925
-47.130	29.205	2011.698	1680.314
-46.115	26.970	2000.953	1650.970
-45.100	26.879	1998.527	1648.082
-44.086	26.830	1995.730	1645.259
-43.071	26.830	1993.350	1643.239
-42.057	26.692	1991.582	1640.463
-41.042	26.735	1989.956	1639.447
-40.027	26.826	1987.142	1637.885
-39.013	26.871	1985.288	1636.702
-37.998	26.759	1984.359	1634.855
-36.984	26.811	1982.431	1633.673
-35.969	26.777	1980.478	1631.690
-34.954	26.937	1978.027	1631.048
-33.940	26.897	1976.882	1629.684
-32.925	26.862	1975.629	1628.270
-31.911	26.887	1973.965	1627.058
-30.896	26.917	1971.378	1625.128
-29.881	26.951	1970.164	1624.367
-28.867	26.926	1968.411	1622.635
-27.852	26.897	1966.813	1620.994
-26.838	26.969	1965.027	1620.097
-25.823	27.004	1963.175	1618.821
-24.809	26.948	1961.374	1616.771
-23.794	27.004	1959.445	1615.613
-22.779	26.959	1958.124	1614.064
-21.765	26.949	1956.534	1612.603
-20.750	27.000	1954.349	1611.185
-19.736	26.993	1952.851	1609.828
-18.721	26.965	1951.566	1608.455
-17.706	26.910	1949.863	1606.496
-16.692	27.018	1948.175	1606.004
-15.677	26.917	1947.117	1604.170
-14.663	26.954	1945.161	1602.825
-13.648	26.960	1944.047	1601.896
-12.633	26.951	1942.458	1600.442
-11.619	26.945	1941.636	1599.652
-10.604	26.908	1939.970	1597.890
-9.590	26.972	1938.364	1597.068
-8.575	26.911	1937.249	1595.548
-7.560	26.925	1935.811	1594.418
-6.546	26.937	1934.225	1593.157
-5.531	26.985	1933.347	1592.794
-4.517	26.947	1932.138	1591.401
-3.502	26.945	1931.075	1590.443
-2.487	26.868	1930.227	1589.005
-1.473	26.951	1928.530	1588.273
-0.458	27.018	1923.960	1585.036
0.556	27.849	1904.350	1557.241
1.571	23.696	1885.923	1506.880
2.586	19.888	1908.621	1492.113
3.600	18.862	1944.735	1511.198
4.615	18.313	1937.630	1500.728
5.629	13.965	1835.710	1385.480
6.644	6.770	1722.114	1243.156
7.659	3.721	1689.002	1195.578
8.673	3.409	1686.568	1191.341
9.688	3.352	1685.224	1189.845
10.702	3.400	1683.536	1188.918
11.717	3.408	1679.977	1186.364
12.731	3.827	1678.993	1188.779
13.746	8.649	1690.423	1234.026
14.761	16.197	1707.025	1304.606
15.775	20.017	1713.246	1338.832
16.790	20.209	1712.419	1339.551
17.804	19.337	1709.611	1330.508
18.819	18.277	1706.646	1319.914
19.834	17.772	1703.854	1313.749
20.848	17.523	1702.253	1310.478
21.863	17.370	1701.325	1308.473
22.877	17.082	1699.959	1305.097
23.892	16.979	1698.463	1303.040
24.907	16.861	1697.447	1301.241
25.921	16.815	1696.200	1299.812
26.936	16.848	1694.788	1298.870
27.950	16.919	1694.296	1298.922
28.965	16.945	1693.753	1298.589
29.980	16.943	1693.176	1298.015
30.994	17.142	1691.827	1298.393
32.009	17.066	1691.032	1297.084
33.023	17.162	1690.038	1296.937
34.038	17.211	1688.710	1296.183
35.053	17.131	1688.390	1295.212
36.067	17.068	1686.293	1293.010
37.082	16.964	1685.558	1291.536
38.096	17.079	1684.368	1291.382
39.111	17.058	1684.169	1290.960
40.126	17.092	1683.302	1290.441
41.140	17.107	1682.045	1289.471
42.155	16.956	1679.861	1286.545
43.169	16.821	1678.473	1284.339
44.184	16.812	1677.430	1283.358
45.199	16.743	1676.335	1281.884
46.213	16.733	1675.038	1280.703
47.228	16.722	1673.984	1279.708
48.242	16.831	1672.591	1279.348
49.257	16.988	1672.232	1280.144
50.271	16.840	1671.439	1278.312
51.286	16.921	1669.897	1277.629
52.301	16.961	1668.032	1276.393
53.315	16.951	1666.772	1275.239
54.330	16.895	1665.535	1273.756
55.344	16.735	1663.908	1271.196
56.359	16.744	1662.062	1269.741
57.374	16.801	1661.065	1269.296
58.388	16.746	1660.043	1267.989
59.403	16.771	1658.541	1266.918
60.417	16.675	1657.275	1265.119
61.432	16.622	1656.240	1263.822
62.447	16.722	1654.936	1263.461
63.461	16.549	1654.067	1261.401
64.476	16.525	1652.777	1260.121
65.490	16.521	1651.134	1258.729
66.505	16.551	1650.335	1258.229
67.520	16.605	1649.149	1257.620
68.534	16.571	1648.182	1256.514
69.549	16.592	1647.457	1256.013
70.563	16.651	1645.589	1254.910
71.578	16.541	1644.960	1253.506
72.593	16.533	1643.431	1252.172
73.607	16.481	1642.626	1251.064
74.622	16.361	1641.349	1249.088
75.636	16.429	1640.459	1248.808
76.651	16.566	1639.519	1248.990
77.666	16.436	1638.942	1247.484
78.680	16.454	1637.870	1246.690
79.695	16.492	1637.251	1246.383
80.709	16.515	1636.492	1245.866
81.724	16.617	1635.231	1245.547
82.739	16.697	1635.079	1245.908
83.753	16.733	1634.251	1245.433
84.768	16.775	1633.117	1244.771
85.782	16.921	1632.156	1244.999
86.797	17.092	1631.255	1245.458
87.812	17.037	1630.682	1244.502
88.826	16.972	1629.386	1242.931
89.841	16.921	1628.299	1241.617
90.855	16.870	1627.838	1240.783
91.870	16.985	1626.420	1240.435
92.884	17.082	1625.033	1239.971
93.899	17.101	1624.341	1239.474
94.914	17.126	1622.690	1238.289
95.928	17.132	1621.686	1237.456
96.943	17.203	1620.304	1236.806
97.957	17.141	1618.636	1234.978
98.972	17.194	1617.077	1234.061
99.987	17.053	1615.965	1232.080
101.001	17.137	1613.837	1230.956
102.016	17.105	1612.501	1229.597
103.030	17.043	1611.110	1227.978
104.045	17.066	1610.162	1227.314
105.060	17.071	1608.879	1226.263
106.074	17.021	1607.139	1224.466
107.089	16.811	1605.769	1221.802
108.103	16.604	1604.370	1219.139
109.118	16.540	1602.762	1217.348
110.133	16.564	1601.445	1216.415
111.147	16.594	1599.398	1214.964
112.162	16.660	1598.245	1214.455
113.176	16.641	1597.039	1213.299
114.191	16.684	1596.057	1212.752
115.206	16.821	1593.998	1212.057
116.220	16.732	1593.385	1210.849
117.235	16.652	1592.276	1209.327
118.249	16.713	1590.559	1208.348
119.264	16.667	1588.931	1206.679
120.279	16.607	1587.851	1205.322
121.293	16.591	1586.252	1203.893
122.308	16.581	1584.688	1202.527
123.322	16.605	1583.031	1201.332
124.337	16.552	1580.754	1199.122
125.352	16.496	1580.061	1198.093
126.366	16.506	1578.960	1197.225
127.381	16.545	1577.769	1196.492
128.395	16.514	1576.847	1195.470
129.410	16.424	1575.988	1194.072
130.424	16.517	1574.442	1193.456
131.439	16.529	1573.018	1192.357
132.454	16.564	1571.633	1191.446
133.468	16.604	1570.766	1190.964
134.483	16.721	1568.572	1190.017
135.497	16.706	1567.455	1188.962
136.512	16.809	1565.955	1188.435
137.527	16.817	1564.778	1187.494
138.541	16.755	1563.641	1186.097
139.556	16.843	1561.907	1185.291
140.570	16.930	1560.952	1185.065
141.585	16.975	1559.394	1184.096
142.600	16.954	1558.665	1183.290
143.614	17.068	1557.614	1183.181
144.629	17.114	1556.396	1182.473
145.643	17.126	1555.030	1181.413
146.658	17.179	1553.766	1180.717
147.673	17.069	1551.888	1178.421
148.687	17.027	1550.481	1176.957
149.702	16.926	1548.734	1174.831
150.716	16.870	1546.763	1172.844
151.731	16.854	1545.392	1171.589
152.746	16.819	1544.470	1170.541
153.760	16.882	1542.943	1169.715
154.775	16.886	1541.572	1168.604
155.789	16.963	1540.698	1168.369
156.804	16.970	1539.934	1167.732
157.819	16.947	1538.888	1166.676
158.833	17.099	1536.654	1165.921
159.848	17.115	1536.490	1165.807
160.862	17.267	1534.942	1165.575
161.877	17.178	1533.753	1163.957
162.892	17.173	1532.537	1162.893
163.906	16.983	1530.901	1160.250
164.921	16.943	1529.391	1158.728
165.935	16.944	1527.940	1157.539
166.950	16.987	1527.583	1157.453
167.964	16.937	1526.756	1156.387
168.979	17.031	1525.353	1155.862
169.994	17.029	1524.343	1154.981
171.008	17.067	1523.590	1154.564
172.023	17.066	1522.106	1153.331
173.037	17.176	1520.824	1153.009
174.052	17.219	1519.680	1152.329
175.067	17.156	1519.435	1151.617
176.081	17.174	1517.786	1150.384
177.096	17.003	1516.120	1147.863
178.110	16.990	1515.232	1147.003
179.125	16.893	1513.929	1145.256
180.140	17.088	1512.722	1145.558
181.154	17.100	1511.794	1144.836
182.169	17.115	1510.819	1144.100
183.183	17.130	1509.447	1143.060
184.198	17.218	1508.499	1142.832
185.213	17.291	1507.602	1142.543
186.227	17.401	1506.387	1142.256
187.242	17.295	1505.807	1141.003
188.256	17.389	1504.520	1140.560
189.271	17.457	1503.433	1140.090
190.286	17.554	1502.228	1139.722
191.300	17.466	1501.361	1138.379
192.315	17.206	1499.784	1135.343
193.329	16.954	1497.930	1132.158
194.344	16.913	1497.163	1131.202
195.359	16.986	1496.052	1130.752
196.373	16.974	1495.482	1130.138
197.388	17.231	1494.733	1131.187
198.402	17.305	1493.581	1130.705
199.417	17.456	1492.430	1130.739
200.432	17.476	1491.619	1130.157
201.446	17.683	1490.901	1130.889
202.461	17.713	1489.656	1130.040
203.475	17.743	1488.535	1129.291
204.490	17.725	1487.955	1128.627
205.504	17.585	1486.511	1126.506
206.519	17.529	1485.203	1125.048
207.534	17.535	1483.943	1124.036
208.548	17.418	1482.567	1122.122
209.563	17.483	1481.599	1121.718
210.577	17.436	1480.736	1120.654
211.592	17.470	1479.820	1120.082
212.607	17.523	1479.334	1119.968
213.621	17.686	1478.584	1120.372
214.636	17.739	1477.559	1119.846
215.650	17.679	1476.583	1118.609
216.665	17.702	1475.841	1118.099
217.680	17.747	1475.072	1117.713
218.694	17.799	1474.423	1117.465
219.709	17.765	1473.551	1116.482
220.723	17.825	1472.413	1115.912
221.738	17.797	1471.724	1115.107
222.753	17.834	1470.428	1114.273
223.767	17.719	1469.870	1113.001
224.782	17.801	1468.493	1112.390
225.796	17.764	1467.759	1111.496
226.811	18.024	1466.755	1112.334
227.826	18.050	1466.263	1112.026
228.840	17.969	1465.345	1110.706
229.855	17.797	1464.445	1108.807
230.869	17.798	1463.538	1108.033
231.884	17.870	1461.957	1107.204
232.899	17.840	1461.237	1106.368
233.913	17.784	1459.670	1104.716
234.928	17.704	1458.502	1103.216
235.942	17.650	1457.342	1101.897
236.957	17.677	1455.960	1100.925
237.972	17.637	1455.038	1099.874
238.986	17.614	1453.962	1098.817
240.001	17.669	1453.044	1098.381
241.015	17.658	1452.136	1097.523
242.030	17.758	1451.011	1097.218
243.045	17.680	1450.674	1096.365
244.059	17.826	1449.024	1095.960
245.074	17.840	1448.502	1095.561
246.088	17.878	1447.691	1095.089
247.103	17.929	1447.015	1094.811
248.117	18.046	1445.911	1094.627
249.132	18.094	1445.293	1094.369
250.147	18.152	1445.120	1094.514
251.161	18.343	1444.248	1094.981
252.176	18.394	1443.640	1094.744
253.190	18.463	1442.991	1094.597
254.205	18.568	1442.135	1094.525
255.220	18.602	1441.109	1093.863
256.234	18.667	1440.501	1093.721
257.249	18.641	1439.555	1092.736
258.263	18.591	1438.615	1091.613
259.278	18.652	1437.314	1090.913
260.293	18.585	1436.904	1090.083
261.307	18.534	1436.278	1089.188
262.322	18.666	1435.071	1089.012
263.336	18.684	1434.315	1088.458
264.351	18.751	1433.376	1088.073
265.366	18.830	1432.458	1087.776
266.380	18.749	1431.752	1086.635
267.395	18.710	1430.875	1085.623
268.409	18.727	1429.672	1084.721
269.424	18.748	1428.302	1083.721
270.439	18.689	1427.334	1082.515
271.453	18.674	1426.652	1081.812
272.468	18.629	1425.796	1080.783
273.482	18.608	1425.166	1080.077
274.497	18.497	1424.016	1078.409
275.512	18.545	1422.892	1077.770
276.526	18.602	1422.217	1077.515
277.541	18.595	1420.852	1076.345
278.555	18.539	1420.194	1075.402
279.570	18.654	1419.462	1075.472
280.585	18.716	1418.419	1074.973
281.599	18.769	1418.050	1074.929
282.614	18.831	1416.918	1074.368
283.628	18.893	1415.367	1073.481
284.643	18.684	1414.293	1071.268
285.657	18.692	1413.547	1070.655
286.672	18.701	1412.579	1069.887
287.687	18.769	1411.372	1069.302
288.701	18.700	1411.005	1068.496
289.716	18.655	1410.505	1067.743
290.730	18.834	1408.744	1067.430
291.745	18.708	1408.005	1065.995
292.760	18.821	1407.111	1065.923
293.774	18.838	1405.846	1064.976
294.789	18.838	1405.176	1064.373
295.803	18.928	1404.707	1064.484
296.818	18.977	1403.891	1064.076
297.833	18.963	1402.145	1062.567
298.847	18.871	1401.432	1061.369
299.862	18.864	1400.090	1060.215
300.876	18.847	1399.405	1059.494
301.891	18.831	1398.533	1058.641
302.906	18.971	1398.018	1059.022
303.920	18.974	1397.507	1058.559
304.935	19.079	1396.449	1058.311
305.949	19.162	1395.895	1058.306
306.964	19.213	1394.973	1057.824
307.979	19.330	1394.101	1057.788
308.993	19.283	1393.055	1056.612
310.008	19.110	1392.023	1054.679
311.022	19.234	1391.114	1054.655
312.037	19.247	1389.898	1053.718
313.052	19.210	1388.747	1052.527
314.066	19.203	1387.838	1051.705
315.081	19.131	1386.746	1050.345
316.095	19.042	1385.187	1048.527
317.110	18.911	1384.517	1047.127
318.125	18.883	1383.763	1046.297
319.139	18.962	1382.663	1045.851
320.154	18.907	1381.945	1044.881
321.168	18.997	1380.625	1044.337
322.183	19.020	1379.594	1043.605
323.197	19.078	1378.638	1043.140
324.212	19.101	1377.676	1042.463
325.227	19.092	1377.289	1042.024
326.241	19.162	1375.999	1041.378
327.256	19.208	1374.952	1040.768
328.270	19.132	1374.616	1039.966
329.285	19.148	1373.670	1039.251
330.300	19.100	1373.055	1038.409
331.314	19.136	1371.438	1037.309
332.329	19.145	1370.686	1036.703
333.343	19.142	1369.775	1035.904
334.358	19.107	1369.512	1035.401
335.373	19.264	1368.209	1035.268
336.387	19.263	1367.694	1034.779
337.402	19.417	1366.847	1034.972
338.416	19.386	1366.299	1034.281
339.431	19.429	1366.007	1034.227
340.446	19.473	1365.226	1033.808
341.460	19.498	1364.177	1033.072
342.475	19.615	1363.160	1032.906
343.489	19.614	1362.489	1032.301
344.504	19.674	1361.528	1031.840
345.519	19.680	1360.811	1031.245
346.533	19.817	1359.879	1031.263
347.548	19.779	1359.108	1030.358
348.562	19.832	1357.944	1029.699
349.577	19.927	1357.308	1029.692
350.592	19.826	1356.270	1028.214
351.606	19.675	1355.180	1026.402
352.621	19.595	1354.209	1025.101
353.635	19.433	1353.594	1023.584
354.650	19.519	1352.129	1022.896
355.665	19.419	1351.446	1021.695
356.679	19.590	1349.843	1021.401
357.694	19.614	1349.130	1020.913
358.708	19.584	1348.181	1019.926
359.723	19.756	1346.967	1019.938
360.738	19.701	1346.046	1018.821
361.752	19.717	1344.924	1017.976
362.767	19.680	1343.618	1016.684
363.781	19.732	1342.796	1016.278
364.796	19.797	1342.168	1016.090
365.810	19.806	1341.750	1015.736
366.825	19.954	1340.910	1015.880
367.840	19.962	1340.271	1015.354
368.854	20.114	1339.622	1015.664
369.869	20.134	1339.539	1015.628
370.883	20.145	1338.671	1014.942
371.898	20.123	1337.431	1013.787
372.913	20.114	1336.476	1012.922
373.927	20.077	1335.618	1011.961
374.942	19.985	1335.195	1011.018
375.956	20.046	1334.416	1010.695
376.971	20.285	1333.404	1011.228
377.986	20.176	1332.521	1009.838
379.000	20.109	1331.878	1008.869
380.015	20.255	1331.077	1009.021
381.029	20.278	1330.719	1008.797
382.044	20.350	1329.992	1008.574
383.059	20.401	1329.319	1008.273
384.073	20.380	1328.250	1007.250
385.088	20.394	1327.706	1006.830
386.102	20.269	1326.999	1005.480
387.117	20.293	1326.207	1004.930
388.132	20.348	1325.499	1004.622
389.146	20.280	1324.005	1003.005
390.161	20.206	1323.283	1001.942
391.175	20.211	1322.379	1001.197
392.190	20.125	1321.865	1000.225
393.205	20.290	1320.834	1000.305
394.219	20.315	1320.116	999.821
395.234	20.409	1318.691	999.196
396.248	20.288	1317.644	997.614
397.263	20.271	1316.255	996.378
398.278	20.220	1314.947	995.005
399.292	20.204	1313.818	993.973
400.307	20.142	1312.724	992.703
401.321	20.089	1311.222	991.177
402.336	20.085	1310.470	990.500
403.350	20.078	1309.539	989.664
404.365	20.112	1308.636	989.089
405.380	20.162	1307.777	988.636
406.394	20.186	1307.232	988.277
407.409	20.367	1305.981	988.275
408.423	20.259	1306.017	987.601
409.438	20.517	1304.594	987.900
410.453	20.602	1304.346	988.109
411.467	20.467	1304.125	987.089
412.482	20.618	1303.398	987.307
413.496	20.744	1302.747	987.443
414.511	20.646	1301.987	986.222
415.526	20.800	1300.826	986.128
416.540	20.843	1300.215	985.820
417.555	20.823	1299.446	985.039
418.569	20.844	1299.094	984.803
419.584	20.788	1298.469	983.925
420.599	20.814	1297.866	983.529
421.613	145.200	1435.861	1797.212
422.628	140.414	1455.908	1797.303
