DTS Sentinel unit serial number:	SN413079Multiplexer serial number:	ORYXHardware model number:	OX4-SRSoftware version number:	ORYX F/W v4.00 Oryx Data Collector v3.7.2.0data status	okinstallation	princeton_trtdifferential loss correction	single-endedforward channel	channel 4reverse channel	N/Adate	2019/09/12time	18:38:18forward acquisition time	15.00reverse acquisition time	0.00gamma	496.2192k internal	0.2307k external	0.2307temperature offset calibration	1.0141default loss term (dB/km)	0.3790temperature slope calibration	1.0000multiplexer offset coefficient	1.0000multiplexer slope coefficient	1.0000fibre end	0.00T internal ref (°C)	33.12T ext. ref 1 (°C)	2.99T ext. ref 2 (°C)	27.71length (m)	temperature (°C)	Stokes	anti-Stokes-747.200	-123.785	-0.898	0.144
-746.185	-175.329	-0.821	-0.023
-745.171	-200.000	-0.057	-0.354
-744.156	-200.000	-0.026	0.288
-743.142	-38.005	-0.864	-0.467
-742.127	-200.000	-0.021	0.227
-741.112	-200.000	-0.058	-0.440
-740.098	-87.829	0.123	0.038
-739.083	267.905	-0.216	-0.384
-738.069	-83.524	-0.363	0.118
-737.054	224.250	-0.514	-0.845
-736.039	-171.354	-0.975	0.033
-735.025	800.000	-0.187	0.593
-734.010	478.180	0.146	-0.336
-732.996	129.131	0.180	-0.233
-731.981	-41.978	0.524	0.273
-730.966	-48.759	-0.692	0.338
-729.952	-32.616	-0.669	0.379
-728.937	334.105	-0.027	0.053
-727.923	-200.000	0.121	1.269
-726.908	31.335	-0.832	0.726
-725.894	-134.729	-0.726	-0.090
-724.879	-129.017	-0.640	-0.091
-723.864	-200.000	0.152	-0.680
-722.850	402.716	0.237	0.507
-721.835	-200.000	-0.055	0.570
-720.821	76.086	0.306	-0.329
-719.806	-119.512	-0.846	0.149
-718.791	173.844	-0.254	0.373
-717.777	-200.000	0.052	-0.495
-716.762	-200.000	0.063	-1.084
-715.748	403.667	0.514	-1.099
-714.733	-43.936	-0.519	-0.265
-713.718	531.198	-0.127	0.304
-712.704	88.568	-0.190	0.215
-711.689	-200.000	-0.013	-0.643
-710.675	-68.766	-0.447	-0.176
-709.660	395.232	0.404	0.855
-708.645	-67.047	-0.800	-0.321
-707.631	-170.783	-0.167	0.006
-706.616	-150.515	-0.570	0.044
-705.602	67.723	-0.511	0.530
-704.587	-200.000	-0.005	0.272
-703.572	198.609	-0.670	1.041
-702.558	299.221	0.249	0.465
-701.543	800.000	-0.247	-0.964
-700.529	-127.658	-0.354	-0.052
-699.514	35.334	-0.217	0.193
-698.499	-200.000	0.049	0.705
-697.485	-77.507	0.732	0.258
-696.470	448.234	0.325	0.726
-695.456	-200.000	-0.005	-0.492
-694.441	294.146	0.127	0.236
-693.426	-14.056	-0.521	0.341
-692.412	214.409	0.383	-0.616
-691.397	-9.394	-0.302	-0.205
-690.383	230.877	0.141	0.235
-689.368	-149.561	0.414	-0.033
-688.354	800.000	-0.147	0.501
-687.339	-32.489	-0.178	-0.101
-686.324	-200.000	0.035	-0.733
-685.310	120.400	-0.926	-1.167
-684.295	294.017	-0.149	0.275
-683.281	-200.000	-0.355	-0.001
-682.266	-200.000	0.013	0.859
-681.251	-21.380	-0.484	-0.300
-680.237	42.882	-0.394	0.364
-679.222	151.055	0.550	-0.759
-678.208	172.325	-0.299	-0.436
-677.193	-39.048	0.243	-0.130
-676.178	268.580	-0.343	0.610
-675.164	-147.610	-0.382	0.033
-674.149	142.943	-0.501	-0.676
-673.135	-163.462	0.581	-0.028
-672.120	-200.000	0.145	0.659
-671.105	800.000	0.142	-0.612
-670.091	-77.927	0.568	-0.199
-669.076	800.000	0.296	0.947
-668.062	800.000	-0.107	-0.333
-667.047	-134.373	-0.920	-0.114
-666.032	-0.514	0.075	0.054
-665.018	-95.868	-1.224	-0.331
-664.003	-127.663	-0.609	0.089
-662.989	-95.225	-0.294	0.080
-661.974	389.072	0.233	-0.489
-660.959	92.220	-0.395	0.451
-659.945	-200.000	0.050	0.716
-658.930	-114.240	-0.405	0.079
-657.916	-102.008	0.545	-0.133
-656.901	36.543	0.817	-0.731
-655.886	395.103	-0.197	-0.416
-654.872	-120.905	-0.383	-0.065
-653.857	-144.026	-0.841	0.080
-652.843	201.375	-0.177	0.275
-651.828	-8.527	0.093	-0.063
-650.814	-90.123	0.304	-0.090
-649.799	1.456	0.192	0.140
-648.784	228.863	0.104	0.171
-647.770	-39.517	-0.123	0.065
-646.755	-200.000	-0.031	0.578
-645.741	-156.834	0.314	0.020
-644.726	-200.000	-0.086	-0.477
-643.711	-26.100	-0.411	-0.245
-642.697	-153.230	-0.640	-0.045
-641.682	15.471	-0.725	-0.577
-640.668	-141.830	0.727	-0.074
-639.653	76.308	-0.415	0.445
-638.638	-145.693	-0.396	0.036
-637.624	-111.296	0.632	0.131
-636.609	-31.878	1.324	0.751
-635.595	27.876	-0.119	-0.101
-634.580	670.737	-0.194	-0.510
-633.565	-89.444	-1.003	0.299
-632.551	-111.713	-0.326	0.067
-631.536	-104.267	0.056	0.013
-630.522	-60.922	0.802	0.343
-629.507	-23.544	0.346	0.210
-628.492	266.609	0.098	-0.174
-627.478	-35.046	-0.706	-0.390
-626.463	96.377	0.166	0.192
-625.449	31.504	0.225	0.195
-624.434	-84.877	0.347	-0.110
-623.419	-97.358	-0.349	0.092
-622.405	-156.999	0.705	0.044
-621.390	800.000	-0.218	0.748
-620.376	800.000	0.246	1.026
-619.361	-77.424	-0.359	-0.126
-618.346	639.761	0.285	0.735
-617.332	-133.298	-0.149	0.019
-616.317	52.629	-0.256	0.247
-615.303	18.219	-0.649	-0.524
-614.288	-90.462	-0.690	-0.202
-613.273	-35.623	0.096	0.053
-612.259	12.436	-0.503	-0.392
-611.244	-30.324	0.836	0.480
-610.230	-89.910	-0.218	-0.064
-609.215	-200.000	0.095	-0.939
-608.201	-43.537	-0.447	-0.228
-607.186	-200.000	-0.003	0.092
-606.171	-134.658	-0.601	-0.074
-605.157	50.638	-0.445	-0.426
-604.142	32.970	0.331	0.290
-603.128	112.215	-0.256	-0.313
-602.113	-94.083	-0.414	-0.115
-601.098	-113.974	0.239	-0.047
-600.084	-114.269	0.334	-0.065
-599.069	-200.000	0.034	-0.231
-598.055	350.995	0.185	0.371
-597.040	179.191	0.358	-0.530
-596.025	72.587	-0.430	-0.454
-595.011	517.542	-0.173	0.409
-593.996	-94.587	-0.202	-0.056
-592.982	34.217	0.259	-0.228
-591.967	475.284	0.199	-0.455
-590.952	12.208	0.046	-0.036
-589.938	800.000	-0.045	-0.194
-588.923	800.000	0.136	-0.413
-587.909	-144.697	-0.144	0.013
-586.894	76.900	-0.659	-0.707
-585.879	580.930	-0.148	0.365
-584.865	169.536	0.145	0.209
-583.850	-141.249	0.593	0.061
-582.836	-138.170	0.389	-0.044
-581.821	114.358	-0.363	-0.446
-580.806	501.902	-0.280	0.654
-579.792	-179.942	-0.594	0.013
-578.777	-200.000	-0.016	0.296
-577.763	-37.331	-0.584	-0.315
-576.748	800.000	0.121	0.435
-575.733	-50.916	0.192	0.091
-574.719	45.931	0.193	0.180
-573.704	800.000	-0.069	-0.198
-572.690	145.717	0.239	0.324
-571.675	-93.786	-0.663	0.184
-570.661	200.489	0.333	-0.517
-569.646	-43.941	0.259	0.131
-568.631	-16.614	-0.226	-0.145
-567.617	800.000	0.140	-0.609
-566.602	-200.000	-0.035	0.346
-565.588	-200.000	0.083	-0.520
-564.573	31.445	0.378	-0.328
-563.558	349.278	-0.323	-0.644
-562.544	568.401	0.363	0.891
-561.529	-67.822	-0.380	-0.150
-560.515	800.000	-0.200	0.599
-559.500	800.000	-0.211	0.616
-558.485	316.311	-0.432	0.823
-557.471	-44.306	0.626	-0.317
-556.456	118.744	-0.125	-0.155
-555.442	-200.000	0.018	0.144
-554.427	-0.522	1.122	-0.804
-553.412	-12.795	-0.607	-0.399
-552.398	225.821	0.370	-0.605
-551.383	51.274	-0.354	0.339
-550.369	-131.826	0.418	-0.055
-549.354	-169.383	0.812	0.030
-548.339	800.000	-0.132	0.443
-547.325	95.783	-0.726	-0.837
-546.310	-80.992	-0.406	0.136
-545.296	97.184	0.146	-0.169
-544.281	139.358	0.867	-1.151
-543.266	92.760	0.103	0.117
-542.252	18.321	-0.465	-0.375
-541.237	-158.687	-0.353	0.020
-540.223	-35.853	0.314	-0.172
-539.208	-75.274	-0.459	-0.165
-538.193	-81.593	-0.506	0.168
-537.179	-50.553	1.014	-0.482
-536.164	-140.582	-1.348	-0.141
-535.150	800.000	0.288	0.977
-534.135	-95.273	0.448	-0.122
-533.121	-28.349	-0.380	-0.221
-532.106	800.000	-0.112	0.420
-531.091	49.185	-0.376	0.356
-530.077	800.000	0.303	-1.118
-529.062	800.000	-0.310	1.155
-528.048	-200.000	-0.090	0.510
-527.033	-132.987	0.272	0.035
-526.018	766.404	-0.050	-0.138
-525.004	293.893	0.045	-0.083
-523.989	299.356	-0.221	-0.410
-522.975	-88.937	-0.497	-0.148
-521.960	-131.498	-0.363	-0.048
-520.945	-83.879	0.483	0.155
-519.931	-192.403	0.646	-0.006
-518.916	37.697	0.715	0.639
-517.902	2.864	0.400	0.293
-516.887	-200.000	0.018	-0.260
-515.872	-23.324	-0.818	-0.496
-514.858	249.869	-0.007	0.012
-513.843	-109.634	-0.799	-0.170
-512.829	-200.000	0.055	0.362
-511.814	229.749	0.245	0.403
-510.799	55.028	-0.727	-0.708
-509.785	-189.999	-0.507	0.006
-508.770	-169.431	-0.789	-0.029
-507.756	-64.217	0.579	-0.238
-506.741	86.367	-0.256	-0.284
-505.726	-200.000	-0.046	0.287
-504.712	34.530	-0.297	-0.261
-503.697	105.061	-0.652	0.775
-502.683	800.000	0.142	0.434
-501.668	-3.447	0.598	-0.419
-500.653	-33.626	0.172	0.095
-499.639	-200.000	-0.016	0.299
-498.624	283.675	0.234	-0.423
-497.610	800.000	-0.174	0.519
-496.595	-95.344	0.383	0.104
-495.581	133.026	0.293	-0.382
-494.566	-97.265	0.141	0.037
-493.551	800.000	0.102	0.297
-492.537	138.334	-0.260	-0.344
-491.522	800.000	0.100	-0.304
-490.508	356.984	0.293	-0.589
-489.493	800.000	0.158	0.576
-488.478	-200.000	-0.021	0.302
-487.464	-25.269	-1.127	-0.671
-486.449	-190.503	-0.364	0.004
-485.435	-135.573	-0.495	-0.059
-484.420	118.378	-0.333	-0.414
-483.405	244.499	0.633	1.070
-482.391	-200.000	0.099	0.641
-481.376	-200.000	-0.131	-0.667
-480.362	-155.053	-0.276	0.018
-479.347	-200.000	-0.051	0.569
-478.332	-200.000	-0.215	0.998
-477.318	-29.463	-0.632	0.364
-476.303	-74.618	0.171	0.062
-475.289	800.000	-0.484	1.454
-474.274	-200.000	0.049	0.632
-473.259	-104.252	-0.334	-0.078
-472.245	299.576	0.135	0.251
-471.230	-42.483	0.352	0.181
-470.216	-200.000	0.050	-0.748
-469.201	90.257	0.557	-0.627
-468.186	104.573	-0.402	-0.476
-467.172	-200.000	0.113	0.516
-466.157	83.560	0.699	0.766
-465.143	142.705	0.322	-0.430
-464.128	-90.257	-0.518	-0.151
-463.113	-88.223	0.666	-0.201
-462.099	127.989	-0.161	0.206
-461.084	-127.659	0.812	-0.118
-460.070	-99.271	0.173	0.044
-459.055	-163.912	-0.193	0.009
-458.040	129.555	0.334	0.429
-457.026	396.457	-0.394	0.828
-456.011	-8.744	-0.224	-0.151
-454.997	694.798	-0.158	-0.417
-453.982	800.000	0.133	-0.424
-452.968	104.056	0.587	0.694
-451.953	-200.000	-0.106	-1.048
-450.938	-200.000	-0.016	-0.284
-449.924	-3.007	-0.250	-0.175
-448.909	800.000	0.184	-0.797
-447.895	231.378	0.385	0.634
-446.880	-151.648	-0.794	0.059
-445.865	-48.864	-0.808	-0.390
-444.851	-94.262	-0.339	0.093
-443.836	767.737	-0.069	-0.188
-442.822	41.747	-0.825	-0.752
-441.807	153.001	0.136	-0.187
-440.792	-7.395	0.070	0.047
-439.778	-200.000	-0.013	0.179
-438.763	-28.297	0.366	-0.212
-437.749	-200.000	0.006	-0.698
-436.734	-55.235	-0.460	-0.208
-435.719	-101.914	0.757	0.184
-434.705	614.045	-0.183	0.460
-433.690	-200.000	-0.009	0.349
-432.676	329.258	0.078	0.151
-431.661	176.485	0.426	0.623
-430.646	-111.408	-0.372	0.076
-429.632	78.365	0.791	0.849
-428.617	800.000	0.039	-0.141
-427.603	-141.009	0.609	-0.063
-426.588	696.664	-0.104	-0.275
-425.573	-157.011	0.983	-0.060
-424.559	-40.501	0.817	0.426
-423.544	62.903	-0.287	-0.289
-422.530	-5.677	0.751	0.517
-421.515	202.782	0.469	0.728
-420.500	800.000	0.126	0.351
-419.486	93.930	-0.225	-0.256
-418.471	-46.669	0.273	-0.134
-417.457	-200.000	0.053	-0.235
-416.442	216.185	-0.241	-0.384
-415.428	-200.000	-0.055	-0.420
-414.413	103.003	0.264	-0.310
-413.398	-81.407	0.363	0.120
-412.384	249.969	0.328	-0.559
-411.369	-38.291	-0.493	-0.262
-410.355	388.084	0.333	-0.691
-409.340	177.439	-0.082	0.120
-408.325	-134.342	0.088	0.011
-407.311	69.430	0.315	-0.326
-406.296	800.000	0.138	0.497
-405.282	-200.000	-0.127	-0.816
-404.267	-103.545	0.731	0.172
-403.252	-102.881	0.587	0.140
-402.238	660.616	-0.187	0.484
-401.223	92.816	0.364	0.413
-400.209	-18.302	0.686	0.430
-399.194	-57.811	1.406	-0.617
-398.179	339.601	0.206	-0.402
-397.165	158.525	0.275	0.383
-396.150	283.876	-0.477	-0.860
-395.136	15.735	0.218	0.172
-394.121	80.565	-0.360	0.389
-393.106	231.906	-0.114	-0.187
-392.092	-12.494	-0.588	-0.385
-391.077	-200.000	-0.031	0.285
-390.063	28.416	0.334	0.283
-389.048	117.332	-0.647	0.798
-388.033	-1.766	0.700	-0.494
-387.019	-99.459	0.708	-0.179
-386.004	754.570	-0.102	0.278
-384.990	-47.525	0.601	-0.293
-383.975	-200.000	-0.184	-1.013
-382.960	-38.233	0.508	-0.270
-381.946	-116.403	-1.162	-0.215
-380.931	-70.623	0.554	0.210
-379.917	22.403	-0.127	0.104
-378.902	-200.000	-0.043	-0.196
-377.888	77.065	0.173	-0.184
-376.873	280.575	-0.272	-0.487
-375.858	473.612	-0.334	-0.754
-374.844	203.971	0.278	-0.432
-373.829	369.181	-0.362	-0.735
-372.815	-200.000	0.027	-0.576
-371.800	2.094	0.935	0.677
-370.785	-30.606	0.372	0.211
-369.771	58.574	-0.455	0.447
-368.756	41.295	-0.672	0.609
-367.742	43.624	0.510	0.467
-366.727	-162.401	-0.323	-0.016
-365.712	346.288	0.358	0.706
-364.698	282.000	-0.405	0.727
-363.683	-37.364	-0.376	-0.201
-362.669	800.000	0.108	-0.430
-361.654	-41.647	-1.008	-0.519
-360.639	365.135	-0.192	-0.388
-359.625	-11.092	0.552	0.365
-358.610	800.000	0.277	0.870
-357.596	-93.060	0.672	0.187
-356.581	-49.769	0.248	-0.118
-355.566	189.176	0.312	0.467
-354.552	109.647	0.320	0.384
-353.537	266.475	-0.378	0.661
-352.523	497.136	-0.042	-0.096
-351.508	-152.206	-1.125	-0.082
-350.493	-112.133	0.375	-0.076
-349.479	800.000	0.097	-0.415
-348.464	800.000	-0.191	0.670
-347.450	-200.000	0.206	1.021
-346.435	-86.909	0.593	0.181
-345.420	-63.608	0.204	-0.084
-344.406	165.921	-0.560	0.794
-343.391	180.704	0.623	-0.916
-342.377	442.460	-0.271	-0.595
-341.362	261.233	-0.437	-0.758
-340.348	-200.000	0.164	-0.787
-339.333	-42.556	0.750	0.382
-338.318	7.104	0.578	-0.431
-337.304	-100.489	0.553	-0.137
-336.289	42.324	-0.367	-0.334
-335.275	-155.433	-0.535	0.035
-334.260	-117.130	-1.106	0.202
-333.245	-200.000	-0.030	-0.157
-332.231	198.834	0.307	-0.470
-331.216	273.013	-0.181	-0.319
-330.202	-49.873	-0.531	-0.252
-329.187	25.654	-0.408	-0.340
-328.172	-172.733	-0.545	-0.017
-327.158	-112.683	0.298	-0.059
-326.143	-200.000	-0.148	0.730
-325.129	-70.396	0.415	-0.157
-324.114	-200.000	-0.090	-0.494
-323.099	-200.000	-0.032	-0.383
-322.085	800.000	0.132	0.512
-321.070	-200.000	-0.073	-0.565
-320.056	545.144	0.273	-0.652
-319.041	-20.483	0.400	-0.246
-318.026	433.407	0.307	0.667
-317.012	-58.092	-0.247	-0.108
-315.997	82.297	-0.633	0.686
-314.983	53.944	0.714	0.686
-313.968	-89.736	-0.711	0.208
-312.953	-200.000	0.033	0.428
-311.939	-200.000	0.095	0.586
-310.924	-80.491	0.395	0.132
-309.910	-109.886	-0.491	-0.103
-308.895	27.952	0.114	-0.096
-307.880	460.842	0.279	-0.621
-306.866	-36.980	-0.916	0.491
-305.851	-200.000	-0.182	-0.862
-304.837	50.025	-0.691	0.652
-303.822	534.282	0.056	0.133
-302.807	-200.000	-0.121	-0.687
-301.793	0.632	0.328	0.235
-300.778	-24.035	-0.349	0.208
-299.764	53.024	-0.689	0.659
-298.749	-50.256	-0.929	-0.439
-297.735	-0.648	0.538	-0.381
-296.720	-27.136	-0.314	-0.183
-295.705	-99.884	0.406	0.101
-294.691	214.017	-0.423	-0.668
-293.676	-174.208	0.347	-0.010
-292.662	-111.329	-0.285	-0.058
-291.647	629.672	0.215	0.543
-290.632	150.107	0.390	0.529
-289.618	-4.811	-0.236	-0.162
-288.603	744.160	-0.118	0.316
-287.589	-200.000	-0.066	1.312
-286.574	800.000	0.234	0.708
-285.559	64.957	0.272	-0.274
-284.545	-200.000	-0.008	-0.317
-283.530	-40.520	0.535	-0.277
-282.516	-35.810	-0.052	0.028
-281.501	-10.052	-0.757	0.502
-280.486	416.881	0.111	0.237
-279.472	175.962	-0.345	-0.500
-278.457	-139.046	0.131	-0.014
-277.443	-195.979	-0.468	0.003
-276.428	-119.044	0.079	-0.014
-275.413	132.752	-0.362	-0.466
-274.399	800.000	0.150	-0.534
-273.384	-200.000	-0.047	0.709
-272.370	-50.297	-0.240	0.113
-271.355	-94.484	-0.853	0.232
-270.340	4.214	0.929	0.679
-269.326	-137.412	-0.362	0.041
-268.311	477.512	0.064	0.144
-267.297	-200.000	-0.067	-0.603
-266.282	-19.155	0.676	-0.419
-265.267	-200.000	0.031	-0.672
-264.253	-16.724	-0.363	0.229
-263.238	800.000	0.100	-0.321
-262.224	-67.778	0.755	-0.295
-261.209	-157.947	-0.780	0.046
-260.195	-200.000	0.009	1.010
-259.180	-118.446	0.439	-0.078
-258.165	-200.000	-0.037	0.332
-257.151	-37.103	0.560	-0.299
-256.136	800.000	-0.167	0.656
-255.122	-200.000	0.002	0.098
-254.107	-174.500	-0.888	-0.025
-253.092	125.013	-0.252	-0.316
-252.078	591.813	-0.180	0.443
-251.063	111.724	-0.358	-0.431
-250.049	-144.318	-0.177	-0.016
-249.034	-125.755	0.571	0.086
-248.019	-91.172	-0.742	0.212
-247.005	91.561	-0.357	-0.400
-245.990	-200.000	-0.037	-0.608
-244.976	800.000	-0.185	0.574
-243.961	-49.083	0.724	-0.345
-242.946	13.243	0.476	-0.368
-241.932	-126.851	0.522	-0.077
-240.917	54.278	0.036	0.035
-239.903	-94.986	0.481	-0.130
-238.888	-200.000	-0.757	0.002
-237.873	308.256	0.498	0.927
-236.859	800.000	0.104	0.317
-235.844	-93.250	0.093	0.026
-234.830	177.616	0.320	0.464
-233.815	-78.412	0.504	0.172
-232.800	371.110	-0.284	0.573
-231.786	-200.000	-0.145	-0.871
-230.771	-33.732	-0.427	-0.235
-229.757	-200.000	0.082	0.383
-228.742	-2.527	0.082	0.057
-227.727	132.774	-0.675	0.868
-226.713	800.000	-0.065	-0.219
-225.698	77.959	0.338	-0.359
-224.684	83.502	-0.127	0.138
-223.669	-117.263	0.883	0.160
-222.655	324.518	-0.295	-0.561
-221.640	494.994	-0.119	0.272
-220.625	-187.538	0.285	-0.004
-219.611	-109.612	-0.455	0.095
-218.596	183.997	0.502	-0.740
-217.582	262.292	0.464	0.803
-216.567	-200.000	0.094	0.853
-215.552	-79.182	0.331	0.112
-214.538	285.257	0.136	-0.244
-213.523	800.000	-0.236	-0.687
-212.509	452.361	-0.126	-0.277
-211.494	-7.125	-0.431	-0.291
-210.479	0.930	-0.315	-0.225
-209.465	-35.096	0.361	-0.196
-208.450	137.652	-0.173	-0.226
-207.436	-200.000	0.135	-0.614
-206.421	154.706	-0.533	0.729
-205.406	-87.803	0.143	-0.043
-204.392	800.000	-0.170	0.710
-203.377	-200.000	-0.004	0.874
-202.363	-200.000	-0.043	-0.338
-201.348	-61.977	0.322	-0.134
-200.333	-200.000	-0.069	0.394
-199.319	23.131	-0.446	0.365
-198.304	-200.000	-0.007	-0.211
-197.290	800.000	0.062	-0.240
-196.275	580.822	0.085	0.207
-195.260	800.000	0.189	-0.799
-194.246	0.553	0.322	0.229
-193.231	-169.269	-1.152	-0.042
-192.217	199.672	0.168	0.256
-191.202	-17.019	0.497	-0.312
-190.187	104.910	0.381	0.447
-189.173	-49.294	-0.376	-0.178
-188.158	-89.287	-0.272	-0.080
-187.144	800.000	-0.041	-0.130
-186.129	-200.000	-0.014	0.841
-185.114	87.608	-0.272	-0.300
-184.100	19.167	0.391	-0.312
-183.085	292.361	-0.154	-0.279
-182.071	-200.000	-0.050	-0.508
-181.056	-96.344	0.450	0.119
-180.042	240.593	0.097	-0.161
-179.027	319.323	0.136	-0.257
-178.012	-200.000	-0.037	0.266
-176.998	-10.981	-0.308	0.202
-175.983	-180.356	0.725	0.015
-174.969	326.190	0.142	-0.270
-173.954	800.000	-0.165	-0.641
-172.939	-154.228	-0.165	-0.011
-171.925	-104.976	-0.505	0.115
-170.910	238.285	0.150	0.247
-169.896	-97.732	0.200	-0.052
-168.881	-200.000	-0.035	0.263
-167.866	-4.991	-0.470	-0.322
-166.852	-200.000	-0.093	-0.568
-165.837	651.539	0.288	-0.733
-164.823	48.014	0.123	0.114
-163.808	-100.294	-0.383	-0.094
-162.793	267.439	0.471	0.819
-161.779	-47.143	0.584	0.283
-160.764	380.327	-0.132	-0.269
-159.750	-200.000	-0.037	-0.388
-158.735	800.000	0.135	0.405
-157.720	-47.626	0.095	0.046
-156.706	-104.496	0.126	-0.029
-155.691	-145.048	0.527	0.048
-154.677	625.469	0.122	0.306
-153.662	128.590	0.209	-0.264
-152.647	236.711	-0.312	-0.513
-151.633	78.302	-0.211	0.223
-150.618	-1.983	-0.404	0.282
-149.604	-38.227	-0.309	0.163
-148.589	237.418	0.234	-0.385
-147.574	579.991	0.110	-0.269
-146.560	-200.000	0.102	0.479
-145.545	334.625	0.125	-0.240
-144.531	172.734	0.386	0.552
-143.516	589.996	0.209	0.513
-142.502	-8.820	0.691	-0.460
-141.487	-200.000	-0.092	-0.503
-140.472	800.000	0.082	-0.226
-139.458	800.000	0.124	-0.507
-138.443	-200.000	-0.115	-0.599
-137.429	39.901	0.434	-0.387
-136.414	-83.391	-0.335	0.107
-135.399	-75.262	-0.268	0.095
-134.385	-89.424	-0.260	-0.076
-133.370	-46.806	0.160	0.078
-132.356	199.991	-0.367	-0.559
-131.341	152.093	0.427	-0.578
-130.326	189.004	-0.229	-0.341
-129.312	-200.000	-0.026	0.671
-128.297	-49.859	-0.687	-0.324
-127.283	-62.740	0.981	-0.403
-126.268	283.930	0.112	0.200
-125.253	-20.532	-0.548	0.334
-124.239	-125.102	-0.985	0.150
-123.224	800.000	-0.219	0.696
-122.210	67.313	0.139	-0.141
-121.195	-98.516	0.336	-0.085
-120.180	104.432	0.290	-0.339
-119.166	800.000	0.381	-1.139
-118.151	800.000	0.196	-0.649
-117.137	-24.233	-0.052	-0.031
-116.122	-56.400	0.303	0.134
-115.107	0.018	0.251	-0.178
-114.093	-200.000	0.060	-0.365
-113.078	-148.384	0.363	0.030
-112.064	-75.981	-0.603	-0.212
-111.049	-200.000	0.053	-0.388
-110.034	-24.212	-1.091	0.646
-109.020	289.565	0.267	0.481
-108.005	-200.000	0.053	0.446
-106.991	-184.495	-0.686	0.011
-105.976	-200.000	-0.132	0.667
-104.962	800.000	-0.070	0.294
-103.947	-200.000	0.011	0.485
-102.932	-123.271	-0.239	0.038
-101.918	339.710	0.578	-1.118
-100.903	-200.000	-0.012	0.326
-99.889	-166.269	0.527	-0.022
-98.874	-200.000	-0.207	-0.945
-97.859	-94.984	-0.674	0.181
-96.845	800.000	0.155	0.660
-95.830	20.345	-0.075	0.060
-94.816	136.906	0.041	0.053
-93.801	-152.929	-0.415	0.029
-92.786	-200.000	-0.077	-0.414
-91.772	199.683	-0.123	-0.188
-90.757	-21.860	-0.688	0.415
-89.743	-200.000	0.133	-0.685
-88.728	12.698	-0.436	0.334
-87.713	-34.201	0.655	-0.357
-86.699	-200.000	-0.061	0.572
-85.684	11.845	-0.414	0.315
-84.670	-38.236	0.174	-0.092
-83.655	-26.049	0.242	-0.141
-82.640	-54.021	0.354	0.160
-81.626	716.885	-0.150	0.395
-80.611	214.891	-0.300	-0.470
-79.597	-200.000	0.132	-0.790
-78.582	-77.917	0.634	-0.217
-77.567	425.433	0.160	0.342
-76.553	13.480	0.299	0.230
-75.538	-200.000	0.019	0.533
-74.524	-200.000	0.035	0.775
-73.509	97.945	-0.449	-0.512
-72.494	-102.405	-0.786	0.186
-71.480	800.000	0.200	-0.708
-70.465	-84.046	-0.418	0.132
-69.451	17.654	0.185	-0.146
-68.436	800.000	0.437	1.262
-67.422	-69.517	-0.375	-0.142
-66.407	454.134	-0.268	-0.587
-65.392	55.952	-0.568	-0.546
-64.378	189.927	-0.831	-1.235
-63.363	94.773	-0.498	0.560
-62.349	111.190	-0.198	0.236
-61.334	-13.676	-1.381	-0.885
-60.319	-12.524	1.351	0.873
-59.305	-43.277	-0.774	-0.388
-58.290	800.000	0.351	1.183
-57.276	483.306	1.014	2.281
-56.261	-200.000	95.804	570.554
-55.246	630.464	1367.381	3424.563
-54.232	197.469	2540.602	3838.913
-53.217	107.822	2285.512	2694.543
-52.203	39.614	2047.002	1816.520
-51.188	34.934	1963.100	1700.510
-50.173	33.589	1945.397	1673.249
-49.159	48.627	1996.476	1851.969
-48.144	49.142	2015.491	1874.150
-47.130	35.451	1975.743	1715.816
-46.115	33.169	1964.184	1685.399
-45.100	33.012	1962.377	1682.383
-44.086	32.786	1961.647	1679.682
-43.071	32.859	1957.687	1676.874
-42.057	32.753	1955.927	1674.351
-41.042	32.873	1954.775	1674.371
-40.027	33.187	1950.583	1673.487
-39.013	33.076	1948.816	1670.930
-37.998	32.989	1947.375	1668.858
-36.984	33.253	1945.813	1669.784
-35.969	33.052	1943.685	1666.119
-34.954	32.979	1943.433	1665.190
-33.940	32.995	1941.715	1663.793
-32.925	33.127	1939.671	1663.140
-31.911	33.293	1938.356	1663.406
-30.896	33.193	1935.397	1659.916
-29.881	33.174	1934.786	1659.167
-28.867	33.078	1933.053	1656.771
-27.852	33.047	1931.281	1654.915
-26.838	33.205	1929.380	1654.604
-25.823	33.203	1926.722	1652.237
-24.809	33.102	1926.186	1650.833
-23.794	33.092	1924.171	1648.948
-22.779	33.131	1922.371	1647.680
-21.765	33.143	1919.976	1645.671
-20.750	33.226	1919.138	1645.613
-19.736	33.367	1917.505	1645.371
-18.721	33.123	1916.191	1642.060
-17.706	32.988	1914.867	1639.685
-16.692	33.160	1912.461	1639.049
-15.677	33.233	1910.881	1638.261
-14.663	33.317	1910.070	1638.231
-13.648	33.149	1908.771	1635.602
-12.633	33.013	1909.021	1634.572
-11.619	33.161	1907.171	1634.201
-10.604	33.130	1905.096	1632.088
-9.590	33.189	1902.173	1630.028
-8.575	33.057	1902.142	1628.799
-7.560	33.009	1902.117	1628.306
-6.546	33.094	1899.358	1626.607
-5.531	33.151	1898.468	1626.270
-4.517	33.211	1897.840	1626.186
-3.502	33.166	1895.235	1623.501
-2.487	32.973	1895.480	1621.992
-1.473	33.157	1894.874	1622.988
-0.458	33.181	1889.439	1618.469
0.556	34.198	1870.231	1590.604
1.571	29.651	1850.340	1535.856
2.586	25.777	1870.757	1520.045
3.600	24.558	1906.441	1538.406
4.615	23.659	1900.910	1526.083
5.629	18.379	1800.404	1402.158
6.644	8.376	1682.521	1233.346
7.659	3.364	1643.987	1167.099
8.673	2.969	1640.158	1161.294
9.688	3.040	1638.864	1160.813
10.702	2.955	1637.982	1159.440
11.717	2.997	1635.231	1157.707
12.731	3.510	1632.677	1159.656
13.746	10.119	1648.647	1220.932
14.761	19.732	1670.880	1310.512
15.775	24.566	1678.883	1353.401
16.790	25.349	1679.883	1360.015
17.804	25.677	1678.971	1361.645
18.819	25.588	1678.457	1360.433
19.834	25.910	1677.248	1361.766
20.848	26.084	1677.508	1363.171
21.863	26.127	1675.616	1361.838
22.877	26.084	1674.342	1360.357
23.892	26.186	1673.525	1360.342
24.907	26.076	1673.670	1359.511
25.921	26.000	1673.668	1358.817
26.936	26.230	1670.738	1358.042
27.950	25.971	1670.194	1355.538
28.965	26.195	1669.554	1356.577
29.980	26.151	1668.904	1355.601
30.994	26.216	1667.651	1354.948
32.009	26.169	1666.646	1353.665
33.023	26.030	1665.927	1351.912
34.038	26.358	1664.316	1352.942
35.053	26.082	1664.336	1350.774
36.067	26.092	1663.968	1350.435
37.082	26.151	1662.915	1349.898
38.096	26.080	1661.147	1347.812
39.111	26.080	1660.182	1346.915
40.126	26.109	1659.842	1346.737
41.140	26.116	1659.005	1345.990
42.155	26.288	1657.019	1345.539
43.169	26.110	1656.740	1343.866
44.184	26.044	1655.369	1342.146
45.199	26.160	1654.896	1342.503
46.213	26.007	1654.342	1340.801
47.228	26.327	1652.518	1341.582
48.242	26.259	1650.792	1339.551
49.257	26.166	1650.062	1338.154
50.271	26.326	1648.672	1338.090
51.286	25.852	1649.241	1334.927
52.301	26.174	1646.439	1334.923
53.315	26.037	1645.960	1333.399
54.330	26.189	1644.760	1333.435
55.344	26.258	1643.975	1333.192
56.359	26.146	1641.441	1330.190
57.374	26.116	1640.205	1328.851
58.388	26.158	1639.276	1328.288
59.403	26.248	1638.005	1327.801
60.417	26.101	1637.096	1325.872
61.432	26.044	1637.110	1325.344
62.447	26.220	1636.070	1325.674
63.461	26.137	1634.666	1323.812
64.476	26.204	1632.657	1322.557
65.490	26.100	1632.294	1321.390
66.505	26.181	1631.722	1321.402
67.520	25.950	1631.865	1319.709
68.534	26.250	1629.113	1319.557
69.549	26.088	1628.105	1317.441
70.563	26.245	1627.658	1318.111
71.578	26.061	1626.945	1316.076
72.593	25.997	1626.102	1314.809
73.607	25.988	1626.129	1314.648
74.622	26.518	1622.919	1315.793
75.636	26.179	1622.706	1313.035
76.651	26.418	1622.520	1314.510
77.666	26.307	1620.969	1312.327
78.680	26.472	1619.595	1312.296
79.695	26.342	1619.251	1310.962
80.709	26.357	1618.421	1310.278
81.724	26.265	1617.814	1309.008
82.739	26.341	1617.158	1308.909
83.753	26.259	1615.896	1307.179
84.768	26.253	1615.727	1306.886
85.782	26.412	1613.679	1306.259
86.797	26.164	1613.563	1304.259
87.812	26.376	1612.531	1304.840
88.826	26.391	1610.674	1303.334
89.841	26.389	1609.840	1302.524
90.855	26.364	1608.176	1300.885
91.870	26.194	1608.576	1299.873
92.884	26.346	1606.860	1299.459
93.899	26.282	1606.392	1298.504
94.914	26.356	1605.103	1297.881
95.928	26.443	1603.794	1297.336
96.943	26.243	1602.154	1294.455
97.957	26.467	1600.387	1294.518
98.972	26.373	1599.430	1292.961
99.987	26.359	1599.119	1292.491
101.001	26.106	1597.459	1289.227
102.016	26.453	1595.816	1290.268
103.030	26.425	1594.396	1288.803
104.045	26.290	1594.611	1287.898
105.060	26.161	1592.101	1284.839
106.074	26.404	1590.573	1285.222
107.089	26.285	1589.316	1283.251
108.103	26.268	1588.750	1282.559
109.118	26.296	1587.724	1281.816
110.133	26.245	1587.371	1281.051
111.147	26.323	1584.589	1279.248
112.162	26.492	1583.578	1279.512
113.176	26.354	1582.871	1277.854
114.191	26.447	1580.968	1276.857
115.206	26.365	1580.492	1275.781
116.220	26.491	1578.018	1274.561
117.235	26.370	1577.879	1273.486
118.249	26.295	1576.939	1272.085
119.264	26.420	1574.617	1270.977
120.279	26.200	1574.972	1269.604
121.293	26.361	1573.089	1269.104
122.308	26.529	1571.911	1269.220
123.322	26.309	1570.418	1266.364
124.337	26.354	1569.569	1265.879
125.352	26.454	1569.078	1266.069
126.366	26.595	1567.358	1265.558
127.381	26.657	1565.957	1264.746
128.395	26.696	1564.797	1263.972
129.410	26.485	1564.450	1262.104
130.424	26.442	1563.353	1260.814
131.439	26.443	1561.708	1259.378
132.454	26.190	1561.543	1257.376
133.468	26.454	1559.680	1257.601
134.483	26.525	1558.672	1257.165
135.497	26.547	1557.598	1256.344
136.512	26.671	1555.471	1255.375
137.527	26.648	1553.569	1253.571
138.541	26.712	1552.899	1253.365
139.556	26.397	1552.947	1251.112
140.570	26.451	1551.370	1250.100
141.585	26.887	1548.816	1250.943
142.600	26.788	1548.702	1250.055
143.614	26.520	1548.075	1247.594
144.629	26.380	1546.935	1245.597
145.643	26.400	1545.767	1244.686
146.658	26.307	1543.548	1242.146
147.673	26.463	1542.591	1242.338
148.687	26.537	1541.586	1241.927
149.702	26.375	1540.476	1239.814
150.716	26.498	1539.974	1240.146
151.731	26.466	1538.944	1238.986
152.746	26.437	1537.306	1237.359
153.760	26.723	1534.673	1237.083
154.775	26.528	1534.447	1235.456
155.789	26.526	1534.271	1235.195
156.804	26.755	1532.557	1235.267
157.819	26.798	1530.529	1233.814
158.833	26.695	1530.217	1232.752
159.848	26.850	1528.839	1232.590
160.862	26.432	1528.792	1229.599
161.877	26.564	1528.178	1229.892
162.892	26.396	1527.162	1227.827
163.906	26.584	1525.490	1227.649
164.921	26.574	1524.608	1226.763
165.935	26.517	1524.657	1226.309
166.950	26.382	1524.341	1225.032
167.964	26.684	1521.837	1224.951
168.979	26.481	1520.896	1222.713
169.994	26.626	1519.707	1222.628
171.008	26.835	1518.098	1222.636
172.023	26.922	1517.401	1222.549
173.037	26.752	1516.840	1220.847
174.052	26.760	1516.133	1220.226
175.067	26.497	1515.594	1217.909
176.081	26.576	1513.944	1217.007
177.096	26.643	1513.829	1217.262
178.110	26.526	1512.726	1215.476
179.125	26.676	1511.080	1215.055
180.140	26.878	1508.615	1214.321
181.154	26.919	1508.656	1214.521
182.169	26.726	1508.317	1212.850
183.183	26.801	1506.379	1211.679
184.198	26.639	1506.755	1210.797
185.213	26.780	1506.443	1211.379
186.227	26.666	1504.742	1209.139
187.242	26.765	1504.020	1209.115
188.256	26.708	1503.489	1208.199
189.271	26.547	1502.850	1206.507
190.286	26.859	1501.174	1207.132
191.300	26.772	1500.995	1206.300
192.315	26.801	1499.894	1205.504
193.329	26.913	1497.889	1204.533
194.344	26.688	1499.244	1204.015
195.359	26.944	1495.814	1202.855
196.373	26.780	1495.585	1201.477
197.388	26.687	1495.261	1200.493
198.402	26.618	1494.843	1199.596
199.417	26.732	1492.482	1198.345
200.432	26.703	1492.089	1197.733
201.446	26.733	1491.961	1197.727
202.461	26.818	1490.301	1196.844
203.475	26.873	1488.537	1195.684
204.490	26.631	1489.499	1194.758
205.504	26.610	1487.407	1192.838
206.519	26.589	1486.793	1192.098
207.534	26.688	1485.973	1191.990
208.548	26.826	1484.952	1191.972
209.563	26.787	1484.842	1191.523
210.577	26.849	1483.825	1191.007
211.592	26.629	1483.367	1189.088
212.607	26.889	1481.945	1189.551
213.621	26.776	1482.790	1189.379
214.636	26.955	1480.834	1188.880
215.650	26.778	1479.962	1186.915
216.665	26.884	1478.600	1186.410
217.680	26.895	1477.943	1185.849
218.694	26.846	1477.084	1184.735
219.709	26.936	1476.286	1184.581
220.723	26.873	1475.769	1183.649
221.738	26.992	1473.958	1182.865
222.753	26.900	1472.891	1181.303
223.767	26.749	1472.823	1180.161
224.782	26.797	1472.769	1180.327
225.796	26.897	1471.593	1179.930
226.811	26.755	1471.334	1178.695
227.826	26.822	1470.630	1178.466
228.840	26.905	1469.581	1178.058
229.855	26.865	1468.105	1176.511
230.869	26.933	1467.994	1176.757
231.884	26.940	1466.030	1175.123
232.899	26.730	1466.204	1173.803
233.913	26.811	1464.491	1172.853
234.928	26.684	1463.793	1171.367
235.942	26.914	1462.917	1172.048
236.957	27.047	1460.283	1170.691
237.972	26.840	1460.412	1169.354
238.986	26.880	1460.238	1169.369
240.001	26.736	1458.929	1167.294
241.015	26.803	1459.175	1167.814
242.030	27.089	1456.620	1167.504
243.045	27.005	1454.781	1165.389
244.059	26.927	1454.847	1164.840
245.074	26.961	1454.043	1164.312
246.088	27.095	1453.351	1164.511
247.103	27.000	1452.928	1163.466
248.117	27.010	1452.112	1162.773
249.132	27.331	1450.184	1163.176
250.147	27.122	1450.613	1162.078
251.161	27.071	1450.926	1161.900
252.176	27.462	1448.775	1162.572
253.190	27.318	1448.112	1161.017
254.205	27.128	1448.088	1159.685
255.220	27.070	1445.811	1157.388
256.234	27.334	1445.057	1158.362
257.249	27.005	1445.910	1156.851
258.263	27.224	1444.088	1156.683
259.278	27.119	1443.417	1155.377
260.293	27.117	1442.134	1154.236
261.307	27.319	1441.046	1154.542
262.322	27.059	1440.709	1152.523
263.336	27.165	1439.992	1152.517
264.351	27.154	1438.720	1151.326
265.366	27.345	1437.782	1151.684
266.380	27.229	1437.700	1150.781
267.395	27.063	1435.660	1147.997
268.409	27.112	1434.884	1147.584
269.424	27.115	1434.463	1147.166
270.439	27.124	1434.296	1146.989
271.453	27.124	1432.918	1145.783
272.468	27.157	1431.734	1144.948
273.482	27.057	1432.319	1144.680
274.497	27.051	1430.508	1143.098
275.512	27.126	1429.858	1142.946
276.526	27.275	1428.439	1142.644
277.541	26.958	1428.301	1140.443
278.555	27.051	1428.039	1140.720
279.570	27.074	1427.119	1140.027
280.585	27.216	1425.172	1139.260
281.599	27.209	1424.340	1138.452
282.614	27.352	1423.694	1138.726
283.628	27.043	1424.018	1136.954
284.643	26.922	1423.170	1135.419
285.657	27.148	1422.119	1135.888
286.672	27.199	1420.318	1134.671
287.687	27.367	1419.484	1134.949
288.701	27.070	1419.631	1133.117
289.716	27.041	1419.598	1132.810
290.730	27.179	1416.849	1131.375
291.745	27.182	1415.664	1130.346
292.760	27.192	1415.667	1130.311
293.774	27.109	1414.505	1128.770
294.789	26.996	1414.252	1127.764
295.803	27.049	1413.515	1127.408
296.818	27.138	1412.140	1126.760
297.833	27.255	1411.308	1126.723
298.847	27.143	1410.973	1125.662
299.862	27.089	1409.897	1124.367
300.876	27.318	1408.379	1124.474
301.891	26.993	1407.711	1121.837
302.906	27.293	1407.379	1123.323
303.920	27.071	1406.164	1120.884
304.935	26.991	1406.684	1120.703
305.949	27.117	1405.630	1120.542
306.964	27.238	1404.726	1120.471
307.979	27.314	1402.992	1119.454
308.993	27.225	1402.585	1118.486
310.008	27.074	1402.932	1117.734
311.022	27.176	1400.604	1116.403
312.037	27.315	1399.430	1116.223
313.052	27.102	1399.656	1114.995
314.066	27.295	1397.536	1114.394
315.081	27.243	1397.505	1113.954
316.095	27.076	1396.472	1112.007
317.110	27.006	1394.897	1110.223
318.125	27.203	1393.828	1110.484
319.139	27.327	1393.608	1110.965
320.154	27.200	1392.539	1109.236
321.168	27.162	1392.169	1108.616
322.183	27.186	1391.592	1108.206
323.197	27.212	1389.778	1106.819
324.212	27.095	1390.092	1106.256
325.227	27.187	1389.278	1106.071
326.241	27.285	1387.549	1105.192
327.256	27.356	1386.513	1104.703
328.270	27.276	1385.731	1103.494
329.285	27.287	1385.535	1103.307
330.300	27.212	1385.005	1102.331
331.314	26.999	1383.519	1099.761
332.329	27.128	1382.835	1099.905
333.343	27.349	1381.968	1100.451
334.358	27.274	1381.371	1099.428
335.373	27.342	1381.036	1099.473
336.387	27.261	1380.043	1098.098
337.402	27.214	1378.833	1096.751
338.416	27.247	1378.526	1096.609
339.431	27.521	1377.063	1097.002
340.446	27.507	1377.576	1097.226
341.460	27.242	1376.397	1094.594
342.475	27.306	1375.795	1094.406
343.489	27.415	1375.162	1094.458
344.504	27.393	1373.920	1093.242
345.519	27.533	1372.869	1093.148
346.533	27.477	1372.596	1092.504
347.548	27.261	1371.599	1090.317
348.562	27.358	1369.478	1089.116
349.577	27.328	1369.824	1089.115
350.592	27.380	1369.718	1089.243
351.606	27.522	1367.919	1088.564
352.621	27.444	1366.641	1086.983
353.635	27.366	1365.905	1085.841
354.650	27.548	1364.886	1086.020
355.665	27.014	1365.035	1082.854
356.679	27.358	1363.026	1083.217
357.694	27.320	1361.951	1082.038
358.708	27.423	1362.053	1082.635
359.723	27.271	1359.514	1079.618
360.738	27.499	1360.028	1081.286
361.752	27.360	1358.297	1078.991
362.767	27.240	1356.817	1077.007
363.781	27.184	1356.018	1075.947
364.796	27.160	1356.172	1075.835
365.810	27.474	1355.232	1076.847
366.825	27.336	1355.068	1075.807
367.840	27.263	1353.760	1074.242
368.854	27.215	1352.047	1072.503
369.869	27.329	1351.393	1072.563
370.883	27.519	1351.385	1073.582
371.898	27.065	1351.159	1070.634
372.913	26.973	1350.452	1069.438
373.927	27.276	1349.068	1070.030
374.942	27.468	1347.359	1069.705
375.956	27.418	1346.751	1068.836
376.971	27.366	1345.947	1067.797
377.986	27.217	1345.310	1066.323
379.000	27.434	1344.598	1066.937
380.015	27.400	1342.715	1065.146
381.029	27.442	1343.590	1065.993
382.044	27.308	1342.830	1064.510
383.059	27.295	1342.305	1063.924
384.073	27.119	1341.837	1062.433
385.088	27.302	1340.078	1062.015
386.102	27.377	1340.838	1062.961
387.117	27.397	1339.338	1061.794
388.132	27.454	1337.878	1060.875
389.146	27.293	1338.309	1060.186
390.161	27.489	1337.422	1060.528
391.175	27.304	1336.343	1058.506
392.190	27.024	1336.512	1056.916
393.205	27.379	1334.996	1057.686
394.219	27.368	1334.133	1056.844
395.234	27.548	1332.776	1056.717
396.248	27.252	1332.184	1054.441
397.263	27.132	1331.204	1052.878
398.278	27.274	1330.109	1052.739
399.292	27.272	1328.759	1051.566
400.307	27.255	1328.326	1051.031
401.321	27.241	1327.880	1050.507
402.336	27.240	1325.857	1048.807
403.350	27.262	1324.622	1047.864
404.365	27.041	1324.021	1046.020
405.380	27.339	1323.354	1047.119
406.394	27.324	1322.514	1046.272
407.409	27.312	1321.539	1045.341
408.423	27.405	1320.694	1045.113
409.438	27.387	1320.287	1044.596
410.453	27.287	1319.050	1042.951
411.467	27.443	1318.924	1043.652
412.482	27.240	1317.738	1041.463
413.496	27.507	1317.164	1042.441
414.511	27.139	1317.299	1040.352
415.526	27.390	1316.415	1040.998
416.540	27.184	1315.676	1039.143
417.555	27.454	1314.642	1039.776
418.569	27.308	1313.569	1038.001
419.584	27.319	1313.043	1037.560
420.599	27.302	1313.075	1037.397
421.613	142.484	1436.124	1793.001
422.628	138.256	1454.044	1793.076
