DTS Sentinel unit serial number:	SN413079Multiplexer serial number:	ORYXHardware model number:	OX4-SRSoftware version number:	ORYX F/W v4.00 Oryx Data Collector v3.7.2.0data status	okinstallation	princeton_trtdifferential loss correction	single-endedforward channel	channel 4reverse channel	N/Adate	2019/09/17time	13:13:35forward acquisition time	60.00reverse acquisition time	0.00gamma	496.2192k internal	0.2301k external	0.2301temperature offset calibration	0.9986default loss term (dB/km)	0.3790temperature slope calibration	1.0000multiplexer offset coefficient	1.0000multiplexer slope coefficient	1.0000fibre end	0.00T internal ref (°C)	33.94T ext. ref 1 (°C)	0.41T ext. ref 2 (°C)	31.64length (m)	temperature (°C)	Stokes	anti-Stokes-747.200	-56.592	0.182	-0.082
-746.185	71.521	-0.250	-0.265
-745.171	-166.213	0.174	0.008
-744.156	-110.973	-0.068	-0.014
-743.142	-76.528	0.223	-0.080
-742.127	-152.046	-0.352	-0.026
-741.112	-200.000	-0.006	0.299
-740.098	116.983	-0.020	0.025
-739.083	-56.942	0.170	0.077
-738.069	191.874	0.117	0.180
-737.054	-6.788	0.318	0.221
-736.039	-81.414	-0.260	-0.087
-735.025	-43.586	0.144	-0.074
-734.010	-200.000	-0.034	-0.412
-732.996	35.385	0.176	-0.157
-731.981	0.318	-0.151	-0.110
-730.966	800.000	0.052	-0.176
-729.952	-200.000	-0.024	0.148
-728.937	-87.833	0.424	-0.130
-727.923	-200.000	0.009	-0.122
-726.908	800.000	0.116	-0.503
-725.894	-48.248	-0.174	0.086
-724.879	4.598	-0.325	-0.243
-723.864	20.578	0.165	-0.136
-722.850	-97.599	-0.277	0.073
-721.835	-78.899	0.171	0.059
-720.821	396.905	-0.150	-0.320
-719.806	-200.000	0.021	-0.133
-718.791	-42.804	0.093	0.048
-717.777	-28.029	0.301	0.177
-716.762	320.714	0.070	0.135
-715.748	-45.742	-0.196	0.098
-714.733	-200.000	-0.017	-0.127
-713.718	109.731	0.048	-0.058
-712.704	800.000	-0.097	-0.402
-711.689	375.439	0.047	-0.097
-710.675	-200.000	-0.038	-0.306
-709.660	-200.000	-0.030	-0.167
-708.645	-4.965	-0.158	-0.111
-707.631	-200.000	0.002	-0.032
-706.616	800.000	0.030	-0.116
-705.602	-134.795	-0.355	-0.044
-704.587	139.412	-0.102	0.137
-703.572	53.687	-0.041	-0.040
-702.558	-78.377	-0.248	-0.086
-701.543	-40.309	-0.252	0.133
-700.529	-102.500	0.220	-0.054
-699.514	129.270	0.005	-0.007
-698.499	369.536	-0.059	-0.122
-697.485	-29.369	-0.224	-0.130
-696.470	-61.815	-0.241	-0.103
-695.456	67.079	-0.090	0.094
-694.441	-128.591	0.040	0.006
-693.426	-200.000	-0.028	-0.256
-692.412	-127.775	0.209	0.031
-691.397	292.679	0.060	0.112
-690.383	-38.102	-0.372	-0.201
-689.368	-43.895	-0.226	0.116
-688.354	-92.598	0.120	-0.034
-687.339	-44.534	0.192	-0.098
-686.324	-84.683	0.062	0.020
-685.310	416.305	-0.078	-0.170
-684.295	146.714	-0.203	-0.277
-683.281	-200.000	-0.020	-0.219
-682.266	-200.000	0.014	0.111
-681.251	-33.222	-0.156	0.088
-680.237	156.217	0.246	0.345
-679.222	-151.358	-0.134	0.010
-678.208	17.966	-0.201	-0.163
-677.193	-63.439	-0.287	-0.120
-676.178	229.223	-0.106	0.177
-675.164	144.029	0.179	-0.243
-674.149	229.172	-0.156	0.259
-673.135	82.200	-0.344	0.380
-672.120	307.564	0.140	-0.266
-671.105	42.978	0.034	0.032
-670.091	-166.117	-0.317	-0.014
-669.076	-120.720	0.085	0.015
-668.062	-106.332	-0.039	0.009
-667.047	-129.829	0.205	-0.029
-666.032	146.929	0.044	-0.060
-665.018	-48.495	0.140	0.068
-664.003	-60.073	-0.317	-0.138
-662.989	-200.000	0.009	-0.120
-661.974	800.000	-0.057	-0.170
-660.959	56.565	-0.110	0.108
-659.945	-172.845	-0.518	0.016
-658.930	-200.000	-0.019	0.103
-657.916	-200.000	-0.071	0.000
-656.901	-200.000	0.026	0.206
-655.886	-104.591	0.393	-0.092
-654.872	-2.378	-0.117	0.083
-653.857	-200.000	-0.073	-0.389
-652.843	-107.899	0.085	0.019
-651.828	265.131	0.066	-0.118
-650.814	-200.000	-0.003	-0.150
-649.799	274.406	-0.046	-0.083
-648.784	629.659	-0.160	0.410
-647.770	-83.358	-0.177	-0.058
-646.755	-56.621	0.165	-0.074
-645.741	-200.000	-0.024	-0.422
-644.726	-29.329	-0.160	-0.093
-643.711	-19.203	-0.212	0.133
-642.697	-137.499	-0.094	0.011
-641.682	-168.634	-0.302	0.012
-640.668	-115.190	-0.241	-0.046
-639.653	144.280	-0.157	-0.212
-638.638	175.696	-0.138	-0.203
-637.624	280.859	0.135	-0.245
-636.609	-33.015	0.094	-0.053
-635.595	-200.000	0.004	0.190
-634.580	-91.652	0.335	-0.097
-633.565	371.863	0.018	0.038
-632.551	142.952	-0.188	0.254
-631.536	497.527	0.092	-0.215
-630.522	-84.198	-0.126	-0.041
-629.507	-200.000	-0.003	0.160
-628.492	-108.413	-0.091	0.020
-627.478	380.653	0.032	0.066
-626.463	92.969	-0.139	0.159
-625.449	-3.017	-0.193	0.137
-624.434	800.000	-0.025	-0.086
-623.419	68.684	-0.080	-0.083
-622.405	-8.782	0.064	-0.044
-621.390	-23.949	0.171	0.104
-620.376	-200.000	-0.031	-0.185
-619.361	185.980	0.170	0.256
-618.346	-85.345	0.280	0.089
-617.332	0.946	-0.231	-0.168
-616.317	368.597	0.051	-0.106
-615.303	119.094	0.194	0.243
-614.288	17.777	-0.049	0.039
-613.273	-90.486	0.140	-0.041
-612.259	98.288	0.124	0.145
-611.244	-37.887	0.129	0.069
-610.230	-50.121	-0.222	-0.107
-609.215	-133.279	-0.118	0.015
-608.201	116.599	0.091	0.113
-607.186	538.143	0.057	0.138
-606.171	5.537	-0.125	-0.093
-605.157	-76.981	-0.098	-0.035
-604.142	-104.258	0.287	-0.068
-603.128	-200.000	0.003	-0.092
-602.113	-77.517	0.160	0.056
-601.098	-89.350	0.259	-0.077
-600.084	-113.695	-0.150	-0.030
-599.069	-32.061	-0.116	0.066
-598.055	-98.424	0.510	0.132
-597.040	-129.989	-0.240	-0.033
-596.025	1.079	-0.189	-0.137
-595.011	-104.315	-0.460	-0.108
-593.996	-153.551	0.193	0.014
-592.982	800.000	0.144	0.493
-591.967	-200.000	-0.021	0.252
-590.952	-200.000	0.052	0.434
-589.938	-36.536	-0.348	-0.190
-588.923	118.318	-0.088	-0.110
-587.909	-200.000	0.046	0.275
-586.894	-72.659	-0.371	0.139
-585.879	747.342	0.032	0.088
-584.865	-73.683	-0.142	-0.052
-583.850	-200.000	0.016	0.113
-582.836	800.000	0.084	0.342
-581.821	142.094	0.183	0.246
-580.806	-122.692	0.196	-0.032
-579.792	699.441	0.017	-0.045
-578.777	-108.230	-0.207	-0.045
-577.763	-177.716	-0.348	0.009
-576.748	-33.651	0.124	-0.069
-575.733	239.361	-0.075	-0.126
-574.719	1.720	-0.292	0.213
-573.704	171.725	-0.063	-0.091
-572.690	341.680	0.079	-0.157
-571.675	-200.000	0.015	-0.068
-570.661	551.927	0.025	0.061
-569.646	-98.957	0.230	-0.059
-568.631	-35.008	0.587	-0.324
-567.617	69.314	-0.165	-0.172
-566.602	-34.730	0.228	-0.126
-565.588	-158.773	-0.226	-0.013
-564.573	-200.000	-0.004	-0.217
-563.558	-72.792	0.241	-0.090
-562.544	43.793	0.115	0.106
-561.529	-142.151	-0.170	0.017
-560.515	533.548	0.094	0.226
-559.500	-104.043	0.343	-0.081
-558.485	-66.885	0.503	-0.201
-557.471	-133.456	-0.357	0.045
-556.456	351.705	0.081	0.163
-555.442	-143.338	0.135	0.013
-554.427	81.008	0.114	-0.125
-553.412	73.266	-0.294	0.312
-552.398	325.692	0.158	-0.305
-551.383	331.906	-0.132	0.258
-550.369	61.031	-0.118	0.118
-549.354	47.981	0.087	-0.082
-548.339	269.469	-0.115	-0.205
-547.325	-62.075	0.161	0.068
-546.310	47.101	0.143	0.135
-545.296	-8.289	0.166	0.113
-544.281	198.420	-0.068	-0.105
-543.266	-141.041	-0.190	-0.020
-542.252	-116.871	-0.068	-0.013
-541.237	-175.348	0.200	0.006
-540.223	172.640	-0.180	-0.262
-539.208	-50.981	0.143	0.068
-538.193	-197.476	-0.085	0.001
-537.179	15.579	0.071	0.056
-536.164	-200.000	-0.035	0.302
-535.150	-21.394	0.313	-0.193
-534.135	170.867	-0.103	-0.149
-533.121	-34.135	-0.125	-0.070
-532.106	101.739	0.090	-0.106
-531.091	-200.000	-0.046	-0.252
-530.077	-70.661	-0.231	0.088
-529.062	215.287	0.116	-0.186
-528.048	-141.353	-0.264	0.027
-527.033	416.715	-0.071	0.154
-526.018	105.702	0.081	-0.097
-525.004	9.870	0.052	-0.040
-523.989	-173.137	-0.088	-0.003
-522.975	-34.364	0.085	-0.047
-521.960	-21.582	-0.328	-0.202
-520.945	-200.000	0.011	0.113
-519.931	-49.283	0.222	0.107
-518.916	-13.875	0.107	-0.070
-517.902	800.000	-0.043	0.166
-516.887	-37.542	0.019	-0.010
-515.872	39.417	0.258	-0.233
-514.858	-200.000	-0.024	-0.214
-513.843	-100.580	-0.072	0.018
-512.829	-200.000	0.047	0.312
-511.814	372.371	0.026	-0.054
-510.799	52.891	0.118	0.114
-509.785	-200.000	-0.036	-0.189
-508.770	611.380	0.075	0.190
-507.756	-2.757	0.477	-0.337
-506.741	-200.000	-0.010	-0.541
-505.726	-200.000	-0.014	-0.352
-504.712	-200.000	-0.023	-0.259
-503.697	-112.926	-0.223	-0.045
-502.683	-32.530	0.174	-0.098
-501.668	219.099	-0.115	0.186
-500.653	256.999	-0.092	-0.160
-499.639	-200.000	0.035	0.364
-498.624	-154.679	0.131	0.009
-497.610	565.239	0.055	-0.135
-496.595	-21.288	0.139	-0.086
-495.581	-81.578	0.062	-0.021
-494.566	-5.388	0.079	-0.055
-493.551	25.829	-0.213	0.179
-492.537	123.170	-0.082	-0.104
-491.522	-114.482	-0.195	-0.038
-490.508	549.443	0.205	-0.497
-489.493	334.528	0.032	-0.062
-488.478	-200.000	0.058	-0.421
-487.464	-199.448	0.349	-0.002
-486.449	-90.623	-0.279	-0.081
-485.435	98.149	0.106	-0.124
-484.420	-122.301	-0.133	-0.022
-483.405	-107.354	-0.270	0.060
-482.391	373.413	0.092	0.190
-481.376	211.736	0.086	0.137
-480.362	-43.978	-0.063	0.032
-479.347	128.497	0.088	0.113
-478.332	-200.000	0.012	-0.137
-477.318	133.223	-0.327	0.427
-476.303	-0.853	0.108	-0.077
-475.289	108.789	-0.100	-0.120
-474.274	-94.637	-0.207	0.057
-473.259	57.112	-0.273	0.268
-472.245	-200.000	-0.015	0.083
-471.230	-200.000	0.031	0.159
-470.216	-142.175	-0.235	-0.023
-469.201	-93.944	0.129	-0.036
-468.186	-200.000	0.047	-0.364
-467.172	537.913	0.011	0.026
-466.157	360.438	-0.068	0.137
-465.143	800.000	-0.032	0.134
-464.128	677.293	0.126	0.329
-463.113	-114.008	0.192	-0.038
-462.099	-115.642	0.359	-0.068
-461.084	-27.436	-0.200	0.117
-460.070	800.000	0.127	-0.422
-459.055	-200.000	-0.013	-0.188
-458.040	-200.000	0.000	-0.135
-457.026	-5.436	0.253	-0.175
-456.011	-34.175	-0.307	0.170
-454.997	10.740	0.141	-0.109
-453.982	800.000	-0.024	-0.090
-452.968	287.926	0.270	-0.492
-451.953	-105.600	0.211	0.048
-450.938	306.856	-0.092	0.174
-449.924	-132.030	-0.206	-0.027
-448.909	4.175	0.150	0.110
-447.895	-128.218	0.142	0.020
-446.880	37.474	0.188	0.168
-445.865	-36.107	0.063	-0.034
-444.851	800.000	-0.059	0.257
-443.836	-30.325	-0.153	-0.088
-442.822	-75.368	-0.198	0.071
-441.807	-200.000	0.006	-0.163
-440.792	-46.413	0.366	-0.181
-439.778	279.059	0.097	0.175
-438.763	-49.464	-0.133	-0.064
-437.749	129.769	-0.137	-0.177
-436.734	800.000	0.036	-0.151
-435.719	-66.938	-0.044	0.018
-434.705	-193.638	-0.493	0.004
-433.690	181.876	-0.077	-0.114
-432.676	-87.855	-0.183	0.055
-431.661	-57.331	-0.151	-0.067
-430.646	188.859	-0.159	-0.239
-429.632	-200.000	0.005	0.239
-428.617	-200.000	-0.119	0.672
-427.603	204.485	-0.068	-0.107
-426.588	101.119	0.164	0.192
-425.573	-200.000	-0.080	0.438
-424.559	800.000	0.021	0.073
-423.544	-200.000	0.007	-0.152
-422.530	132.861	-0.088	-0.115
-421.515	-105.967	-0.217	-0.049
-420.500	-200.000	-0.001	0.275
-419.486	-69.724	-0.098	0.038
-418.471	201.009	-0.128	-0.198
-417.457	82.590	0.142	0.155
-416.442	220.445	-0.117	-0.188
-415.428	-49.622	0.263	-0.126
-414.413	-45.542	0.164	-0.082
-413.398	800.000	-0.030	0.121
-412.384	-73.132	-0.158	-0.058
-411.369	266.679	-0.073	0.128
-410.355	-200.000	0.001	0.194
-409.340	232.434	0.162	-0.267
-408.325	-155.651	-0.159	-0.010
-407.311	-139.051	-0.111	0.012
-406.296	-38.115	0.232	0.124
-405.282	-99.040	0.175	-0.045
-404.267	171.425	0.090	0.130
-403.252	-200.000	0.065	0.338
-402.238	-200.000	-0.008	-0.094
-401.223	-172.070	-0.335	-0.011
-400.209	-200.000	-0.034	0.206
-399.194	138.825	0.105	0.139
-398.179	32.123	-0.108	0.094
-397.165	-61.377	0.105	-0.044
-396.150	-7.920	-0.033	-0.023
-395.136	-31.317	-0.218	-0.124
-394.121	-29.227	-0.240	-0.138
-393.106	11.783	0.264	0.204
-392.092	-200.000	0.019	-0.101
-391.077	-200.000	0.014	0.204
-390.063	-99.455	-0.112	-0.028
-389.048	-200.000	-0.024	-0.139
-388.033	536.289	0.127	-0.304
-387.019	800.000	0.137	0.409
-386.004	27.109	0.150	-0.126
-384.990	183.819	-0.108	-0.160
-383.975	513.422	0.030	0.071
-382.960	-43.503	-0.176	-0.090
-381.946	569.936	-0.023	0.056
-380.931	38.306	-0.351	0.314
-379.917	156.515	0.135	0.188
-378.902	-200.000	-0.042	-0.322
-377.888	-19.508	0.386	0.240
-376.873	-84.953	-0.492	-0.155
-375.858	15.025	-0.442	0.348
-374.844	-200.000	0.012	-0.066
-373.829	272.540	-0.229	-0.406
-372.815	210.755	-0.166	0.262
-371.800	-29.053	0.092	-0.053
-370.785	-200.000	0.007	0.154
-369.771	86.624	-0.036	0.040
-368.756	218.122	0.079	0.127
-367.742	-200.000	-0.009	0.236
-366.727	283.705	-0.181	0.327
-365.712	-200.000	0.003	-0.138
-364.698	73.375	0.128	0.134
-363.683	-51.269	-0.159	0.075
-362.669	-200.000	-0.015	0.092
-361.654	5.928	0.145	-0.108
-360.639	155.562	0.018	0.025
-359.625	-125.982	0.310	-0.047
-358.610	-200.000	0.038	0.231
-357.596	-200.000	0.080	-0.377
-356.581	800.000	-0.167	-0.507
-355.566	-178.240	-0.161	0.004
-354.552	-52.197	0.091	0.043
-353.537	-50.216	-0.126	-0.060
-352.523	-150.907	-0.110	0.008
-351.508	132.180	-0.191	-0.247
-350.493	179.201	-0.216	-0.317
-349.479	-133.309	0.249	-0.031
-348.464	-150.426	0.199	0.015
-347.450	140.736	0.064	-0.085
-346.435	-33.634	0.231	0.128
-345.420	-200.000	-0.011	-0.056
-344.406	124.839	-0.071	-0.089
-343.391	-15.297	-0.097	0.062
-342.377	-122.276	0.565	0.093
-341.362	-200.000	0.002	0.101
-340.348	-179.335	-0.357	0.008
-339.333	6.336	0.109	0.081
-338.318	63.046	0.094	-0.094
-337.304	189.329	-0.023	0.034
-336.289	-200.000	-0.091	0.419
-335.275	-200.000	0.022	0.128
-334.260	9.509	0.102	-0.078
-333.245	29.115	0.228	0.194
-332.231	-10.041	-0.410	0.273
-331.216	-164.079	0.247	-0.011
-330.202	-34.133	0.114	-0.063
-329.187	-20.270	0.101	0.063
-328.172	-200.000	0.020	0.313
-327.158	-86.744	0.300	-0.092
-326.143	81.482	-0.094	0.102
-325.129	384.738	0.109	0.225
-324.114	-200.000	-0.017	-0.109
-323.099	-200.000	0.021	0.145
-322.085	-116.834	-0.479	-0.088
-321.070	-87.733	-0.199	0.060
-320.056	-112.420	0.361	0.072
-319.041	-95.070	-0.104	0.028
-318.026	800.000	-0.049	0.148
-317.012	336.142	0.029	-0.057
-315.997	167.095	-0.120	-0.171
-314.983	-28.925	0.276	-0.159
-313.968	-200.000	0.075	-0.334
-312.953	800.000	0.061	-0.189
-311.939	-200.000	-0.168	0.001
-310.924	62.854	0.156	-0.157
-309.910	-200.000	0.012	-0.138
-308.895	-7.592	0.162	-0.110
-307.880	-103.817	0.182	0.043
-306.866	108.079	0.177	-0.211
-305.851	6.125	0.079	0.059
-304.837	519.876	0.047	-0.111
-303.822	-200.000	-0.006	-0.087
-302.807	568.415	-0.104	0.253
-301.793	800.000	0.101	0.289
-300.778	218.209	-0.220	0.351
-299.764	-94.827	0.249	-0.068
-298.749	-200.000	-0.054	-0.369
-297.735	-81.426	-0.137	-0.045
-296.720	-200.000	-0.003	-0.023
-295.705	553.678	0.073	-0.175
-294.691	-200.000	0.027	-0.200
-293.676	-61.847	0.214	-0.090
-292.662	61.306	0.253	0.252
-291.647	198.562	-0.044	-0.068
-290.632	531.698	0.071	-0.169
-289.618	-39.560	-0.293	0.154
-288.603	-200.000	-0.001	0.070
-287.589	16.561	0.051	-0.040
-286.574	-99.094	-0.362	-0.092
-285.559	157.228	0.103	0.142
-284.545	-200.000	0.041	0.222
-283.530	173.896	0.121	0.175
-282.516	-200.000	0.023	0.176
-281.501	195.297	0.122	0.186
-280.486	-200.000	0.011	-0.213
-279.472	-62.229	-0.167	-0.070
-278.457	-93.167	0.332	0.092
-277.443	-35.525	0.059	0.032
-276.428	-133.628	-0.080	0.010
-275.413	-200.000	0.021	-0.249
-274.399	24.750	-0.097	-0.080
-273.384	-31.047	-0.149	0.084
-272.370	1.557	0.132	-0.095
-271.355	33.106	0.218	0.190
-270.340	488.115	-0.115	0.263
-269.326	-180.545	-0.377	-0.008
-268.311	70.077	0.083	0.086
-267.297	-7.420	0.112	-0.076
-266.282	-168.577	0.123	0.005
-265.267	208.904	0.066	0.103
-264.253	-200.000	-0.043	0.195
-263.238	-61.367	-0.048	0.020
-262.224	-173.745	-0.381	0.011
-261.209	349.335	-0.153	0.302
-260.195	-88.166	-0.207	0.062
-259.180	-33.380	0.180	0.100
-258.165	239.297	-0.105	0.175
-257.151	-56.623	0.150	0.067
-256.136	-126.006	-0.149	0.022
-255.122	554.917	-0.005	0.013
-254.107	-14.916	-0.217	-0.139
-253.092	99.736	0.053	-0.061
-252.078	420.975	0.128	0.274
-251.063	-200.000	0.074	-0.474
-250.049	-21.165	-0.153	-0.093
-249.034	800.000	-0.061	0.173
-248.019	115.339	0.049	-0.060
-247.005	10.744	0.227	0.173
-245.990	779.969	0.055	-0.150
-244.976	-82.343	-0.264	-0.086
-243.961	-200.000	-0.029	-0.301
-242.946	105.442	-0.105	0.124
-241.932	-161.792	-0.319	-0.016
-240.917	800.000	0.032	0.099
-239.903	-24.833	-0.160	-0.095
-238.888	702.810	0.078	-0.206
-237.873	-133.594	0.184	-0.023
-236.859	126.941	0.188	0.238
-235.844	49.388	-0.021	0.020
-234.830	-200.000	0.025	-0.157
-233.815	800.000	-0.134	-0.372
-232.800	-127.631	0.392	-0.057
-231.786	79.414	0.292	0.313
-230.771	36.980	0.102	-0.090
-229.757	105.771	-0.166	0.196
-228.742	-158.645	-0.154	-0.009
-227.727	138.743	0.076	-0.100
-226.713	800.000	0.041	-0.177
-225.698	-59.767	-0.208	-0.089
-224.684	-134.476	-0.289	0.035
-223.669	-155.809	0.243	0.016
-222.655	45.720	0.184	-0.169
-221.640	71.009	-0.149	-0.154
-220.625	-159.753	0.187	0.010
-219.611	-16.810	0.143	0.090
-218.596	-12.343	-0.051	-0.033
-217.582	-28.560	0.195	0.112
-216.567	-15.400	-0.257	0.164
-215.552	-97.063	-0.232	0.061
-214.538	-200.000	0.055	-0.536
-213.523	24.986	0.171	-0.141
-212.509	800.000	-0.024	0.074
-211.494	27.449	0.075	0.063
-210.479	333.688	-0.104	-0.201
-209.465	-74.186	-0.418	0.151
-208.450	800.000	0.017	-0.061
-207.436	-36.476	-0.067	0.036
-206.421	93.050	0.141	0.159
-205.406	-200.000	0.002	0.212
-204.392	14.971	0.128	-0.100
-203.377	112.735	0.205	0.247
-202.363	800.000	-0.086	-0.274
-201.348	-192.312	-0.041	0.000
-200.333	300.112	-0.094	-0.173
-199.319	-200.000	-0.029	0.258
-198.304	68.924	-0.110	0.112
-197.290	-108.636	0.310	0.066
-196.275	241.431	-0.126	-0.210
-195.260	-152.986	0.195	0.014
-194.246	33.055	0.184	0.159
-193.231	-200.000	-0.015	-0.337
-192.217	22.325	0.454	-0.370
-191.202	-92.100	-0.210	0.059
-190.187	800.000	0.109	0.390
-189.173	785.448	-0.076	0.208
-188.158	-200.000	-0.012	0.239
-187.144	582.391	-0.091	0.222
-186.129	272.998	-0.163	0.287
-185.114	-99.284	0.249	0.063
-184.100	-72.297	-0.245	-0.091
-183.085	-200.000	0.015	-0.188
-182.071	-116.722	-0.498	0.091
-181.056	-90.309	0.322	0.093
-180.042	-29.982	0.253	0.144
-179.027	52.277	0.111	0.105
-178.012	211.111	0.052	-0.082
-176.998	13.458	0.326	-0.252
-175.983	-67.780	-0.018	0.007
-174.969	-132.682	0.121	0.016
-173.954	-77.255	0.257	0.089
-172.939	322.380	-0.173	-0.328
-171.925	-80.895	0.262	0.086
-170.910	-161.970	-0.399	0.020
-169.896	97.332	0.202	0.231
-168.881	-200.000	-0.009	-0.257
-167.866	-87.540	-0.306	-0.092
-166.852	32.009	0.093	0.080
-165.837	-94.020	-0.229	0.063
-164.823	115.305	-0.084	-0.102
-163.808	-116.384	0.124	-0.023
-162.793	-37.512	-0.320	0.170
-161.779	46.885	-0.114	0.105
-160.764	60.956	-0.157	-0.155
-159.750	-47.826	0.174	0.084
-158.735	-146.913	0.212	-0.018
-157.720	-100.606	-0.171	0.042
-156.706	-73.442	0.391	-0.142
-155.691	-200.000	0.042	-0.396
-154.677	-200.000	-0.048	-0.224
-153.662	-79.485	0.162	0.054
-152.647	-200.000	0.009	-0.216
-151.633	-33.226	-0.369	0.204
-150.618	431.150	0.024	0.052
-149.604	163.173	0.160	-0.224
-148.589	-25.779	0.128	-0.075
-147.574	-200.000	-0.053	-0.280
-146.560	-127.729	-0.189	0.027
-145.545	629.353	0.082	0.207
-144.531	-200.000	-0.021	-0.207
-143.516	-84.206	-0.254	0.080
-142.502	30.546	0.107	-0.091
-141.487	401.381	-0.089	-0.187
-140.472	367.209	-0.005	-0.011
-139.458	-102.209	-0.223	-0.053
-138.443	147.962	-0.193	0.259
-137.429	-200.000	-0.038	-0.187
-136.414	-200.000	-0.055	0.340
-135.399	-146.080	0.345	0.030
-134.385	245.183	0.195	0.327
-133.370	-34.061	0.196	0.107
-132.356	-160.104	-0.363	0.020
-131.341	-164.059	-0.339	-0.016
-130.326	-200.000	0.014	0.159
-129.312	-200.000	-0.016	-0.147
-128.297	643.923	0.163	0.415
-127.283	22.206	0.373	0.303
-126.268	28.830	0.125	0.106
-125.253	-29.240	-0.153	-0.087
-124.239	-147.061	0.048	0.004
-123.224	-174.291	0.147	-0.004
-122.210	427.593	-0.040	-0.087
-121.195	-78.466	0.113	0.038
-120.180	-200.000	-0.024	0.154
-119.166	36.436	-0.261	-0.229
-118.151	-117.793	0.198	-0.035
-117.137	-59.017	-0.456	-0.196
-116.122	800.000	0.044	0.158
-115.107	-200.000	0.020	0.099
-114.093	505.834	0.053	-0.122
-113.078	63.626	0.098	0.098
-112.064	-104.076	0.106	0.025
-111.049	-37.654	-0.028	-0.015
-110.034	-200.000	0.004	0.148
-109.020	163.000	-0.060	0.084
-108.005	549.562	-0.099	-0.236
-106.991	-196.411	0.229	0.002
-105.976	-27.963	0.160	-0.092
-104.962	-200.000	0.040	-0.212
-103.947	201.326	0.038	0.059
-102.932	7.215	-0.256	-0.190
-101.918	141.539	0.221	-0.292
-100.903	-200.000	-0.019	0.204
-99.889	-63.418	-0.302	0.123
-98.874	-119.780	0.519	0.089
-97.859	-9.813	0.323	0.214
-96.845	800.000	-0.162	-0.593
-95.830	-200.000	0.068	-0.335
-94.816	800.000	0.192	0.579
-93.801	-200.000	0.043	0.220
-92.786	-15.370	0.247	0.157
-91.772	-200.000	-0.024	0.166
-90.757	-118.365	-0.398	-0.070
-89.743	800.000	0.099	-0.426
-88.728	87.134	-0.013	-0.014
-87.713	-130.332	-0.301	-0.041
-86.699	747.240	0.150	0.402
-85.684	-200.000	0.014	0.132
-84.670	77.120	0.181	0.191
-83.655	-101.676	0.379	-0.091
-82.640	39.010	-0.087	-0.077
-81.626	2.280	0.029	-0.021
-80.611	6.916	-0.218	-0.161
-79.597	17.151	-0.079	-0.062
-78.582	91.106	-0.174	0.194
-77.567	-135.878	-0.159	-0.019
-76.553	-14.338	0.471	-0.301
-75.538	-24.093	0.301	-0.179
-74.524	-151.221	0.115	0.009
-73.509	-34.202	-0.207	0.113
-72.494	-35.152	-0.271	-0.147
-71.480	279.084	-0.115	0.204
-70.465	800.000	0.074	-0.245
-69.451	96.346	0.308	0.350
-68.436	203.276	-0.107	0.165
-67.422	-161.333	0.108	0.006
-66.407	242.407	-0.107	0.179
-65.392	-200.000	-0.013	-0.064
-64.378	-200.000	0.035	-0.247
-63.363	-200.000	-0.017	-0.264
-62.349	33.096	0.048	0.041
-61.334	369.854	-0.525	-1.056
-60.319	174.878	0.345	0.496
-59.305	-200.000	0.168	-0.839
-58.290	214.042	0.568	0.893
-57.276	551.299	0.731	1.743
-56.261	-200.000	95.702	544.798
-55.246	506.521	1405.789	3235.505
-54.232	144.868	2632.559	3493.394
-53.217	100.936	2370.287	2735.950
-52.203	40.346	2114.753	1888.903
-51.188	35.559	2027.197	1766.725
-50.173	34.025	2008.677	1736.523
-49.159	46.972	2059.704	1900.776
-48.144	49.261	2080.052	1940.718
-47.130	36.344	2037.459	1782.634
-46.115	33.944	2025.895	1750.378
-45.100	33.929	2022.674	1747.390
-44.086	33.867	2020.833	1745.155
-43.071	33.794	2017.867	1741.861
-42.057	33.670	2016.180	1739.193
-41.042	33.797	2013.361	1737.858
-40.027	33.862	2011.477	1736.763
-39.013	33.851	2009.075	1734.513
-37.998	33.812	2008.056	1733.211
-36.984	33.852	2006.104	1731.820
-35.969	33.884	2003.897	1730.136
-34.954	33.848	2002.206	1728.284
-33.940	33.887	2000.571	1727.162
-32.925	33.868	1998.949	1725.518
-31.911	33.918	1997.523	1724.670
-30.896	33.984	1994.731	1722.791
-29.881	33.928	1993.756	1721.371
-28.867	33.966	1991.891	1720.041
-27.852	33.894	1990.500	1718.118
-26.838	34.015	1988.313	1717.256
-25.823	33.955	1986.406	1714.993
-24.809	33.960	1984.710	1713.513
-23.794	33.950	1982.936	1711.819
-22.779	33.968	1981.314	1710.514
-21.765	33.980	1979.812	1709.260
-20.750	33.905	1978.604	1707.472
-19.736	33.982	1976.495	1706.278
-18.721	34.017	1974.962	1705.198
-17.706	33.958	1973.559	1703.392
-16.692	33.952	1971.485	1701.483
-15.677	34.030	1969.726	1700.596
-14.663	33.991	1968.635	1699.233
-13.648	33.998	1967.720	1698.439
-12.633	33.956	1966.168	1696.658
-11.619	33.973	1964.821	1695.582
-10.604	34.001	1962.898	1694.103
-9.590	33.998	1961.624	1692.907
-8.575	33.979	1960.432	1691.647
-7.560	33.886	1959.366	1689.831
-6.546	33.964	1957.839	1689.135
-5.531	34.003	1956.745	1688.470
-4.517	33.990	1955.939	1687.597
-3.502	34.090	1953.967	1686.713
-2.487	33.983	1952.886	1684.770
-1.473	33.987	1952.107	1684.058
-0.458	34.105	1947.719	1681.251
0.556	32.811	1928.732	1658.255
1.571	29.093	1910.341	1609.855
2.586	24.993	1932.889	1592.354
3.600	23.627	1969.125	1609.686
4.615	22.742	1964.583	1597.813
5.629	17.456	1859.995	1467.175
6.644	7.193	1732.716	1283.838
7.659	1.156	1690.737	1204.765
8.673	0.554	1686.750	1197.044
9.688	0.428	1684.974	1194.684
10.702	0.431	1683.849	1193.805
11.717	0.228	1681.409	1190.360
12.731	0.935	1680.418	1195.138
13.746	8.038	1696.719	1263.093
14.761	16.484	1714.056	1343.257
15.775	18.303	1714.661	1358.062
16.790	17.259	1711.266	1346.979
17.804	16.205	1708.248	1336.147
18.819	15.227	1704.436	1325.312
19.834	14.535	1702.193	1317.985
20.848	14.260	1700.668	1314.516
21.863	14.020	1699.296	1311.452
22.877	13.799	1697.348	1308.088
23.892	13.554	1696.209	1305.166
24.907	13.405	1694.936	1302.893
25.921	13.410	1694.061	1302.143
26.936	13.478	1692.895	1301.672
27.950	13.393	1692.576	1300.639
28.965	13.522	1691.085	1300.390
29.980	13.512	1690.966	1300.105
30.994	13.681	1689.195	1299.957
32.009	13.634	1688.153	1298.672
33.023	13.625	1687.961	1298.336
34.038	13.676	1686.973	1297.865
35.053	13.654	1685.772	1296.652
36.067	13.629	1684.423	1295.306
37.082	13.551	1683.625	1293.968
38.096	13.600	1682.506	1293.373
39.111	13.587	1682.084	1292.836
40.126	13.568	1681.013	1291.748
41.140	13.636	1679.723	1291.169
42.155	13.541	1678.741	1289.564
43.169	13.367	1677.641	1287.251
44.184	13.471	1675.778	1286.518
45.199	13.394	1674.692	1284.968
46.213	13.360	1673.881	1283.972
47.228	13.429	1672.485	1283.321
48.242	13.522	1671.014	1282.799
49.257	13.532	1670.360	1282.258
50.271	13.501	1668.772	1280.686
51.286	13.448	1667.964	1279.547
52.301	13.562	1666.002	1278.807
53.315	13.578	1664.394	1277.586
54.330	13.576	1662.823	1276.252
55.344	13.475	1661.820	1274.590
56.359	13.449	1659.854	1272.770
57.374	13.471	1659.207	1272.325
58.388	13.365	1658.380	1270.769
59.403	13.414	1656.445	1269.547
60.417	13.373	1655.639	1268.505
61.432	13.402	1653.866	1267.255
62.447	13.360	1652.709	1265.939
63.461	13.315	1651.342	1264.432
64.476	13.270	1650.684	1263.474
65.490	13.303	1649.522	1262.724
66.505	13.323	1648.078	1261.662
67.520	13.322	1647.049	1260.748
68.534	13.250	1646.296	1259.516
69.549	13.340	1645.124	1259.196
70.563	13.464	1643.102	1258.475
71.578	13.338	1642.067	1256.611
72.593	13.378	1640.944	1255.948
73.607	13.291	1640.164	1254.578
74.622	13.293	1638.513	1253.224
75.636	13.328	1637.704	1252.760
76.651	13.257	1637.106	1251.647
77.666	13.304	1636.395	1251.353
78.680	13.272	1635.532	1250.343
79.695	13.205	1634.609	1249.014
80.709	13.298	1633.210	1248.538
81.724	13.323	1632.306	1247.924
82.739	13.365	1631.824	1247.761
83.753	13.356	1630.391	1246.493
84.768	13.375	1629.481	1245.826
85.782	13.507	1628.711	1246.124
86.797	13.529	1627.926	1245.579
87.812	13.566	1626.918	1244.976
88.826	13.451	1625.878	1243.206
89.841	13.412	1624.866	1242.026
90.855	13.421	1623.914	1241.255
91.870	13.469	1622.167	1240.174
92.884	13.527	1621.110	1239.687
93.899	13.508	1620.074	1238.645
94.914	13.540	1619.054	1237.991
95.928	13.566	1618.062	1237.318
96.943	13.683	1616.267	1236.710
97.957	13.590	1614.938	1234.888
98.972	13.657	1613.146	1233.910
99.987	13.632	1611.741	1232.537
101.001	13.595	1610.268	1231.026
102.016	13.507	1608.858	1229.187
103.030	13.572	1607.772	1228.733
104.045	13.437	1606.765	1226.852
105.060	13.588	1604.758	1226.328
106.074	13.525	1603.204	1224.571
107.089	13.455	1601.796	1222.865
108.103	13.362	1600.601	1221.159
109.118	13.369	1599.046	1219.917
110.133	13.358	1597.545	1218.583
111.147	13.359	1596.265	1217.512
112.162	13.423	1594.716	1216.692
113.176	13.464	1593.369	1215.854
114.191	13.392	1592.489	1214.544
115.206	13.495	1591.298	1214.285
116.220	13.473	1589.184	1212.403
117.235	13.450	1588.102	1211.305
118.249	13.449	1586.991	1210.346
119.264	13.491	1585.820	1209.650
120.279	13.446	1584.062	1207.875
121.293	13.443	1582.618	1206.642
122.308	13.490	1580.950	1205.604
123.322	13.459	1579.413	1204.103
124.337	13.459	1577.703	1202.689
125.352	13.439	1576.979	1201.887
126.366	13.449	1575.843	1200.987
127.381	13.427	1574.613	1199.787
128.395	13.463	1573.489	1199.087
129.410	13.391	1572.009	1197.326
130.424	13.455	1570.260	1196.356
131.439	13.357	1569.632	1195.060
132.454	13.543	1568.284	1195.275
133.468	13.532	1566.473	1193.710
134.483	13.442	1565.215	1191.992
135.497	13.510	1563.793	1191.292
136.512	13.505	1562.470	1190.146
137.527	13.612	1560.485	1189.297
138.541	13.560	1559.505	1188.074
139.556	13.545	1558.329	1186.961
140.570	13.542	1556.677	1185.576
141.585	13.622	1555.184	1184.908
142.600	13.649	1554.348	1184.361
143.614	13.650	1553.226	1183.406
144.629	13.731	1551.385	1182.474
145.643	13.800	1550.080	1181.869
146.658	13.803	1548.944	1180.920
147.673	13.729	1547.279	1179.017
148.687	13.632	1546.036	1177.280
149.702	13.743	1544.118	1176.500
150.716	13.556	1542.887	1174.138
151.731	13.661	1541.191	1173.482
152.746	13.585	1539.866	1171.836
153.760	13.601	1538.822	1171.052
154.775	13.664	1537.331	1170.258
155.789	13.727	1535.785	1169.417
156.804	13.660	1535.269	1168.450
157.819	13.748	1533.815	1167.862
158.833	13.722	1532.487	1166.566
159.848	13.745	1531.615	1165.957
160.862	13.882	1530.053	1165.627
161.877	13.857	1528.874	1164.450
162.892	13.782	1528.025	1163.176
163.906	13.827	1525.891	1161.764
164.921	13.748	1525.033	1160.451
165.935	13.710	1523.978	1159.285
166.950	13.808	1522.839	1159.000
167.964	13.729	1522.051	1157.746
168.979	13.766	1520.421	1156.662
169.994	13.881	1519.398	1156.579
171.008	13.820	1518.081	1155.054
172.023	13.833	1517.195	1154.363
173.037	13.871	1515.863	1153.512
174.052	13.871	1515.024	1152.773
175.067	13.914	1513.772	1152.014
176.081	13.951	1512.475	1151.187
177.096	13.746	1511.252	1148.732
178.110	13.837	1510.132	1148.412
179.125	13.900	1508.712	1147.661
180.140	13.847	1507.718	1146.440
181.154	13.866	1507.113	1146.010
182.169	13.952	1505.690	1145.417
183.183	13.919	1504.641	1144.294
184.198	14.027	1503.285	1143.903
185.213	14.173	1502.075	1143.888
186.227	14.105	1501.005	1142.499
187.242	14.056	1500.350	1141.563
188.256	14.094	1499.141	1140.807
189.271	14.092	1497.839	1139.698
190.286	14.140	1496.617	1138.994
191.300	14.094	1495.486	1137.722
192.315	14.067	1494.589	1136.754
193.329	13.851	1493.391	1134.268
194.344	13.975	1492.028	1133.974
195.359	14.041	1491.121	1133.639
196.373	13.991	1490.670	1132.853
197.388	14.027	1489.425	1132.054
198.402	14.103	1488.378	1131.674
199.417	14.143	1486.900	1130.724
200.432	14.250	1485.845	1130.548
201.446	14.283	1484.708	1129.805
202.461	14.354	1483.859	1129.540
203.475	14.260	1482.861	1128.043
204.490	14.378	1481.211	1127.490
205.504	14.287	1480.568	1126.281
206.519	14.339	1479.370	1125.624
207.534	14.357	1478.123	1124.699
208.548	14.232	1477.424	1123.219
209.563	14.370	1476.050	1123.005
210.577	14.320	1475.254	1121.967
211.592	14.420	1474.140	1121.695
212.607	14.408	1473.167	1120.770
213.621	14.437	1472.520	1120.378
214.636	14.384	1472.146	1119.636
215.650	14.497	1470.634	1119.144
216.665	14.362	1470.198	1117.808
217.680	14.508	1469.129	1117.873
218.694	14.547	1468.426	1117.506
219.709	14.489	1467.736	1116.490
220.723	14.565	1466.194	1115.730
221.738	14.555	1465.551	1115.071
222.753	14.532	1464.962	1114.373
223.767	14.543	1463.720	1113.405
224.782	14.543	1462.828	1112.622
225.796	14.629	1461.396	1112.011
226.811	14.600	1461.027	1111.436
227.826	14.625	1460.102	1110.801
228.840	14.646	1459.232	1110.182
229.855	14.647	1458.125	1109.245
230.869	14.615	1457.415	1108.396
231.884	14.640	1456.024	1107.409
232.899	14.664	1455.149	1106.803
233.913	14.609	1454.222	1105.636
234.928	14.462	1453.218	1103.801
235.942	14.551	1451.676	1103.124
236.957	14.584	1450.442	1102.303
237.972	14.631	1449.123	1101.513
238.986	14.576	1447.829	1100.068
240.001	14.648	1446.956	1099.785
241.015	14.673	1445.836	1099.000
242.030	14.718	1444.538	1098.212
243.045	14.649	1444.171	1097.383
244.059	14.710	1442.810	1096.650
245.074	14.744	1442.395	1096.460
246.088	14.774	1441.758	1096.081
247.103	14.787	1440.704	1095.267
248.117	14.817	1439.640	1094.557
249.132	14.839	1439.110	1094.203
250.147	14.906	1438.408	1094.010
251.161	15.044	1437.671	1094.255
252.176	15.023	1437.183	1093.649
253.190	15.073	1436.340	1093.236
254.205	14.930	1435.514	1091.574
255.220	15.133	1434.411	1091.966
256.234	15.145	1433.522	1091.272
257.249	15.211	1432.572	1090.878
258.263	15.225	1431.756	1090.255
259.278	15.132	1431.124	1089.070
260.293	15.202	1429.885	1088.485
261.307	15.225	1428.955	1087.833
262.322	15.300	1428.176	1087.630
263.336	15.322	1427.943	1087.495
264.351	15.287	1426.691	1086.220
265.366	15.402	1425.509	1085.970
266.380	15.356	1424.847	1085.073
267.395	15.319	1423.789	1083.931
268.409	15.338	1422.770	1083.182
269.424	15.372	1422.068	1082.773
270.439	15.362	1420.666	1081.542
271.453	15.361	1419.787	1080.770
272.468	15.284	1419.111	1079.666
273.482	15.280	1418.750	1079.267
274.497	15.323	1417.381	1078.411
275.512	15.284	1416.421	1077.335
276.526	15.408	1415.654	1077.450
277.541	15.375	1414.981	1076.632
278.555	15.389	1413.954	1075.846
279.570	15.460	1412.696	1075.249
280.585	15.456	1411.842	1074.473
281.599	15.421	1411.109	1073.599
282.614	15.514	1410.093	1073.327
283.628	15.468	1409.250	1072.297
284.643	15.530	1407.945	1071.600
285.657	15.485	1406.737	1070.298
286.672	15.518	1405.662	1069.598
287.687	15.534	1404.930	1069.051
288.701	15.524	1403.659	1067.922
289.716	15.503	1403.128	1067.293
290.730	15.526	1402.497	1066.861
291.745	15.606	1401.150	1066.253
292.760	15.493	1400.520	1064.964
293.774	15.609	1399.380	1064.738
294.789	15.678	1398.182	1064.165
295.803	15.683	1397.298	1063.429
296.818	15.726	1396.444	1062.960
297.833	15.652	1395.699	1061.833
298.847	15.636	1394.790	1060.947
299.862	15.634	1393.674	1059.987
300.876	15.747	1392.227	1059.506
301.891	15.811	1391.689	1059.403
302.906	15.829	1390.772	1058.725
303.920	15.808	1390.218	1058.081
304.935	15.739	1389.993	1057.379
305.949	15.879	1388.996	1057.411
306.964	15.843	1387.698	1056.100
307.979	15.880	1386.927	1055.656
308.993	15.921	1385.709	1054.890
310.008	15.883	1384.924	1053.961
311.022	15.927	1383.981	1053.423
312.037	15.893	1383.054	1052.415
313.052	15.910	1382.426	1051.948
314.066	15.982	1381.230	1051.395
315.081	15.877	1380.275	1049.923
316.095	15.905	1379.238	1049.211
317.110	15.948	1378.016	1048.459
318.125	15.937	1377.158	1047.644
319.139	15.915	1376.308	1046.766
320.154	15.967	1375.232	1046.179
321.168	16.010	1373.874	1045.318
322.183	15.985	1373.003	1044.411
323.197	15.913	1371.997	1043.104
324.212	16.024	1371.271	1043.148
325.227	16.062	1370.592	1042.775
326.241	16.054	1369.777	1042.014
327.256	16.056	1369.016	1041.357
328.270	16.028	1368.240	1040.503
329.285	15.977	1367.372	1039.432
330.300	16.074	1366.161	1039.020
331.314	16.062	1365.029	1037.994
332.329	16.027	1364.386	1037.198
333.343	16.026	1363.710	1036.587
334.358	16.053	1362.995	1036.117
335.373	16.226	1361.650	1036.064
336.387	16.126	1361.336	1035.119
337.402	16.248	1360.326	1035.006
338.416	16.246	1359.540	1034.308
339.431	16.194	1359.257	1033.678
340.446	16.157	1358.871	1033.068
341.460	16.361	1357.012	1032.813
342.475	16.440	1356.352	1032.700
343.489	16.328	1355.373	1031.180
344.504	16.421	1354.287	1030.828
345.519	16.385	1353.639	1030.028
346.533	16.502	1352.598	1029.858
347.548	16.534	1351.374	1029.027
348.562	16.484	1351.326	1028.595
349.577	16.558	1349.976	1027.925
350.592	16.505	1349.249	1026.961
351.606	16.545	1348.090	1026.232
352.621	16.444	1347.221	1024.867
353.635	16.429	1346.263	1023.953
354.650	16.481	1345.447	1023.557
355.665	16.498	1344.318	1022.714
356.679	16.519	1342.875	1021.650
357.694	16.471	1342.248	1020.792
358.708	16.556	1340.881	1020.176
359.723	16.612	1340.187	1019.894
360.738	16.585	1339.056	1018.784
361.752	16.627	1337.700	1017.913
362.767	16.681	1336.632	1017.332
363.781	16.612	1336.210	1016.508
364.796	16.518	1335.673	1015.446
365.810	16.675	1334.656	1015.522
366.825	16.630	1333.931	1014.616
367.840	16.660	1333.368	1014.277
368.854	16.742	1332.702	1014.171
369.869	16.841	1331.944	1014.095
370.883	16.813	1331.239	1013.302
371.898	16.801	1330.306	1012.428
372.913	16.820	1329.559	1011.887
373.927	16.688	1328.843	1010.461
374.942	16.917	1327.514	1010.726
375.956	16.821	1327.360	1009.950
376.971	16.964	1326.099	1009.750
377.986	16.946	1325.383	1009.009
379.000	16.941	1324.625	1008.316
380.015	16.961	1323.833	1007.742
381.029	16.980	1322.971	1007.107
382.044	17.087	1322.178	1007.051
383.059	17.021	1321.784	1006.267
384.073	17.074	1320.974	1005.879
385.088	16.964	1320.831	1005.025
386.102	17.193	1319.307	1005.137
387.117	17.122	1318.843	1004.270
388.132	17.045	1318.277	1003.299
389.146	17.052	1316.934	1002.227
390.161	17.065	1316.590	1001.957
391.175	17.059	1315.661	1001.125
392.190	17.000	1315.079	1000.242
393.205	17.105	1313.966	999.925
394.219	17.245	1312.787	999.765
395.234	17.158	1311.811	998.422
396.248	17.066	1310.650	996.908
397.263	17.119	1309.264	996.081
398.278	17.211	1307.500	995.187
399.292	17.161	1306.436	993.997
400.307	17.122	1305.610	993.054
401.321	17.120	1304.297	991.957
402.336	17.030	1303.950	991.078
403.350	17.112	1302.665	990.493
404.365	17.250	1301.220	990.108
405.380	17.136	1301.054	989.229
406.394	17.228	1300.322	989.123
407.409	17.183	1299.360	988.041
408.423	17.273	1298.815	988.061
409.438	17.359	1298.173	987.987
410.453	17.318	1297.323	987.012
411.467	17.361	1296.397	986.469
412.482	17.393	1296.199	986.417
413.496	17.530	1295.333	986.467
414.511	17.501	1294.332	985.450
415.526	17.508	1293.661	984.889
416.540	17.498	1293.045	984.276
417.555	17.561	1292.642	984.250
418.569	17.599	1291.694	983.657
419.584	17.578	1291.214	983.083
420.599	17.539	1290.392	982.148
421.613	90.676	1347.523	1445.380
422.628	89.092	1355.805	1445.487
