DTS Sentinel unit serial number:	SN413079Multiplexer serial number:	ORYXHardware model number:	OX4-SRSoftware version number:	ORYX F/W v4.00 Oryx Data Collector v3.7.2.0data status	okinstallation	princeton_trtdifferential loss correction	single-endedforward channel	channel 4reverse channel	N/Adate	2019/09/17time	09:33:35forward acquisition time	60.00reverse acquisition time	0.00gamma	496.2192k internal	0.2312k external	0.2312temperature offset calibration	0.9973default loss term (dB/km)	0.3790temperature slope calibration	1.0000multiplexer offset coefficient	1.0000multiplexer slope coefficient	1.0000fibre end	0.00T internal ref (°C)	29.06T ext. ref 1 (°C)	0.15T ext. ref 2 (°C)	25.44length (m)	temperature (°C)	Stokes	anti-Stokes-747.200	88.659	0.203	-0.229
-746.185	800.000	-0.043	0.178
-745.171	800.000	-0.031	0.097
-744.156	-52.938	0.108	-0.050
-743.142	-200.000	-0.021	-0.229
-742.127	-55.196	0.374	0.171
-741.112	-53.785	0.303	0.140
-740.098	800.000	-0.070	-0.239
-739.083	-180.765	-0.037	0.001
-738.069	-200.000	-0.033	0.376
-737.054	43.747	-0.236	-0.219
-736.039	-78.162	-0.195	0.068
-735.025	251.292	0.247	0.426
-734.010	-81.717	-0.138	0.046
-732.996	204.106	-0.116	-0.182
-731.981	0.831	-0.205	-0.149
-730.966	-20.463	-0.166	-0.103
-729.952	13.601	0.220	-0.173
-728.937	-200.000	0.023	-0.229
-727.923	-27.065	-0.269	-0.159
-726.908	7.062	-0.310	-0.235
-725.894	800.000	0.011	-0.042
-724.879	-68.467	0.247	0.097
-723.864	386.353	-0.023	0.048
-722.850	-174.062	0.425	0.013
-721.835	102.069	0.091	0.108
-720.821	800.000	-0.035	-0.108
-719.806	-164.411	0.093	0.004
-718.791	275.979	0.057	0.103
-717.777	-200.000	0.009	0.191
-716.762	156.397	0.126	0.176
-715.748	620.929	0.172	-0.439
-714.733	-83.909	0.192	0.062
-713.718	-55.710	-0.272	0.123
-712.704	192.564	-0.086	-0.132
-711.689	800.000	-0.083	0.257
-710.675	6.833	-0.153	-0.116
-709.660	800.000	-0.100	-0.294
-708.645	-200.000	-0.015	-0.076
-707.631	-28.679	0.180	-0.105
-706.616	-94.895	0.381	0.105
-705.602	57.427	0.157	0.155
-704.587	126.898	-0.178	0.229
-703.572	30.040	0.222	-0.192
-702.558	-200.000	-0.021	-0.298
-701.543	161.042	0.135	-0.191
-700.529	-55.637	0.184	0.083
-699.514	-200.000	0.013	0.105
-698.499	-200.000	-0.026	-0.173
-697.485	-39.150	-0.221	-0.118
-696.470	17.422	-0.031	-0.025
-695.456	-88.820	0.125	-0.038
-694.441	800.000	0.072	0.270
-693.426	29.623	-0.139	-0.120
-692.412	-200.000	-0.008	-0.081
-691.397	800.000	0.082	0.295
-690.383	371.913	0.106	0.217
-689.368	-200.000	0.045	0.206
-688.354	-59.610	-0.100	-0.044
-687.339	511.834	-0.115	0.270
-686.324	-123.905	-0.472	-0.075
-685.310	800.000	-0.041	-0.123
-684.295	-172.521	0.166	-0.005
-683.281	448.812	-0.069	-0.154
-682.266	-122.335	-0.124	-0.020
-681.251	-62.275	0.109	0.046
-680.237	800.000	-0.090	0.336
-679.222	31.257	0.181	0.157
-678.208	-79.620	-0.257	-0.088
-677.193	496.299	-0.104	0.241
-676.178	9.940	0.138	0.106
-675.164	-28.362	0.296	-0.173
-674.149	80.722	-0.221	0.241
-673.135	-200.000	0.026	-0.292
-672.120	-136.085	-0.305	-0.036
-671.105	-200.000	0.023	-0.313
-670.091	51.929	0.170	0.163
-669.076	-200.000	-0.011	-0.272
-668.062	113.942	-0.094	-0.116
-667.047	800.000	0.069	-0.288
-666.032	5.596	0.151	0.113
-665.018	81.731	0.056	0.061
-664.003	800.000	-0.038	-0.136
-662.989	19.976	0.007	0.006
-661.974	221.778	0.133	-0.216
-660.959	14.682	0.175	-0.139
-659.945	282.178	-0.053	0.097
-658.930	-130.237	0.046	0.006
-657.916	-200.000	0.000	0.003
-656.901	-132.316	-0.120	0.016
-655.886	-10.080	-0.255	-0.171
-654.872	800.000	-0.048	-0.173
-653.857	41.771	-0.157	-0.144
-652.843	800.000	0.060	0.251
-651.828	-200.000	0.010	0.096
-650.814	-200.000	-0.036	-0.484
-649.799	-145.947	-0.381	0.034
-648.784	229.795	-0.085	-0.141
-647.770	-137.374	-0.158	-0.018
-646.755	-170.029	0.074	-0.003
-645.741	-200.000	-0.008	0.000
-644.726	-160.451	-0.210	0.011
-643.711	-182.016	0.115	-0.002
-642.697	-68.499	0.101	0.040
-641.682	800.000	0.136	-0.403
-640.668	-52.478	-0.115	0.054
-639.653	107.049	-0.187	-0.225
-638.638	-105.081	0.240	0.056
-637.624	205.713	-0.065	-0.102
-636.609	108.347	-0.137	-0.165
-635.595	387.844	-0.032	-0.067
-634.580	114.939	0.270	0.332
-633.565	-31.185	-0.282	-0.161
-632.551	-151.987	0.151	0.011
-631.536	-200.000	-0.028	0.140
-630.522	-200.000	-0.009	0.053
-629.507	-31.591	0.221	0.126
-628.492	142.662	-0.154	-0.206
-627.478	-125.495	0.226	0.035
-626.463	312.826	-0.028	-0.053
-625.449	-200.000	0.003	0.175
-624.434	800.000	0.108	0.319
-623.419	-115.390	0.071	-0.014
-622.405	246.338	-0.129	-0.219
-621.390	32.251	0.235	0.205
-620.376	800.000	-0.025	0.110
-619.361	-25.351	-0.214	0.128
-618.346	800.000	-0.060	0.254
-617.332	67.423	-0.232	0.239
-616.317	-60.361	-0.258	0.111
-615.303	-200.000	0.045	0.398
-614.288	320.384	-0.080	0.152
-613.273	-81.361	0.204	-0.068
-612.259	800.000	0.097	-0.400
-611.244	-121.342	-0.337	0.057
-610.230	800.000	-0.069	0.245
-609.215	413.907	0.156	-0.335
-608.201	800.000	0.165	0.552
-607.186	51.211	-0.076	-0.073
-606.171	-33.177	-0.353	-0.197
-605.157	-200.000	0.017	0.270
-604.142	-84.274	-0.096	0.031
-603.128	73.570	0.266	0.281
-602.113	800.000	0.084	0.308
-601.098	3.955	-0.209	0.154
-600.084	215.961	-0.250	0.401
-599.069	-148.024	0.196	-0.016
-598.055	165.837	0.112	-0.159
-597.040	-64.892	0.250	0.102
-596.025	800.000	-0.031	-0.104
-595.011	-106.778	-0.318	-0.071
-593.996	-168.925	-0.145	-0.005
-592.982	-45.569	-0.159	0.079
-591.967	382.902	-0.073	-0.151
-590.952	127.890	-0.249	-0.319
-589.938	-88.556	0.208	0.063
-588.923	154.037	-0.233	-0.322
-587.909	59.582	0.084	-0.084
-586.894	-5.256	-0.228	0.158
-585.879	-200.000	-0.173	0.001
-584.865	345.750	-0.036	-0.072
-583.850	-157.232	-0.073	-0.004
-582.836	303.290	0.143	0.267
-581.821	-200.000	0.023	0.157
-580.806	-200.000	-0.007	-0.133
-579.792	-151.130	0.216	-0.016
-578.777	-164.984	-0.211	-0.009
-577.763	-133.898	-0.070	-0.009
-576.748	800.000	-0.092	0.326
-575.733	117.442	-0.136	0.169
-574.719	50.332	0.048	-0.046
-573.704	-136.502	-0.271	0.032
-572.690	178.704	-0.079	-0.116
-571.675	260.499	0.072	0.125
-570.661	-200.000	0.003	0.111
-569.646	164.006	0.063	0.089
-568.631	-200.000	0.048	0.211
-567.617	-58.723	0.522	-0.228
-566.602	630.288	0.052	-0.132
-565.588	45.366	-0.111	0.103
-564.573	110.354	0.189	0.228
-563.558	-115.505	0.134	-0.025
-562.544	-71.610	0.219	0.082
-561.529	-84.060	-0.150	-0.048
-560.515	-200.000	-0.043	-0.270
-559.500	170.072	0.113	-0.163
-558.485	-60.309	-0.100	-0.043
-557.471	-4.498	0.037	-0.025
-556.456	800.000	-0.032	0.093
-555.442	-157.953	0.160	0.009
-554.427	251.129	0.241	0.414
-553.412	-165.955	-0.203	-0.009
-552.398	117.364	-0.198	-0.245
-551.383	-56.868	-0.055	-0.024
-550.369	-92.735	0.343	-0.097
-549.354	81.266	0.116	-0.126
-548.339	-43.312	-0.305	-0.155
-547.325	-18.766	0.072	0.045
-546.310	-110.080	-0.412	0.087
-545.296	-145.082	-0.157	-0.014
-544.281	-168.861	-0.227	-0.009
-543.266	134.867	-0.105	-0.138
-542.252	800.000	0.175	0.488
-541.237	-137.869	-0.133	0.015
-540.223	256.280	0.124	-0.214
-539.208	-200.000	-0.032	-0.287
-538.193	-42.122	0.193	-0.099
-537.179	113.608	-0.244	-0.298
-536.164	195.846	-0.048	-0.073
-535.150	-200.000	-0.018	-0.116
-534.135	186.064	-0.212	-0.317
-533.121	-3.839	0.158	0.110
-532.106	-200.000	-0.064	0.292
-531.091	-123.826	-0.409	0.065
-530.077	-200.000	-0.006	-0.385
-529.062	-126.433	0.173	0.026
-528.048	123.834	0.049	0.062
-527.033	634.692	0.059	-0.150
-526.018	800.000	0.073	0.264
-525.004	175.776	-0.150	-0.218
-523.989	800.000	0.065	-0.279
-522.975	-177.049	-0.124	-0.003
-521.960	-66.176	-0.187	-0.075
-520.945	800.000	0.064	-0.241
-519.931	-4.912	0.209	0.145
-518.916	-140.520	-0.196	-0.020
-517.902	-89.838	0.435	-0.128
-516.887	256.516	-0.056	0.097
-515.872	-200.000	-0.001	-0.141
-514.858	-120.387	-0.194	0.033
-513.843	-55.599	-0.608	-0.274
-512.829	800.000	-0.063	0.223
-511.814	302.808	0.085	-0.158
-510.799	273.822	0.062	0.111
-509.785	87.555	-0.121	0.135
-508.770	-47.984	-0.171	0.083
-507.756	-52.078	-0.188	0.088
-506.741	800.000	0.026	0.107
-505.726	-200.000	-0.068	0.471
-504.712	-62.169	0.037	-0.015
-503.697	-98.947	-0.296	-0.075
-502.683	-200.000	0.010	0.226
-501.668	39.743	-0.185	-0.167
-500.653	-33.086	-0.333	-0.186
-499.639	800.000	0.067	-0.207
-498.624	-200.000	0.040	-0.218
-497.610	67.548	-0.088	0.090
-496.595	-36.137	0.550	-0.298
-495.581	-135.763	0.207	-0.025
-494.566	-163.464	0.158	-0.008
-493.551	-200.000	-0.008	0.125
-492.537	-98.127	-0.112	-0.029
-491.522	-185.935	-0.148	-0.002
-490.508	-200.000	-0.006	0.193
-489.493	-34.990	0.114	0.063
-488.478	-57.995	-0.343	-0.150
-487.464	249.916	0.039	0.067
-486.449	570.483	0.039	0.094
-485.435	253.517	-0.061	-0.105
-484.420	-101.944	-0.361	0.088
-483.405	800.000	0.131	0.423
-482.391	519.286	0.131	-0.309
-481.376	-181.076	-0.252	0.005
-480.362	-92.680	0.126	0.035
-479.347	38.403	-0.109	0.098
-478.332	13.670	-0.197	-0.154
-477.318	239.232	-0.139	0.231
-476.303	-57.271	-0.192	0.085
-475.289	-12.865	0.209	-0.137
-474.274	-200.000	-0.036	-0.427
-473.259	-30.339	0.056	-0.032
-472.245	800.000	-0.028	0.104
-471.230	57.402	0.056	-0.055
-470.216	-111.496	0.189	-0.039
-469.201	800.000	-0.019	-0.069
-468.186	124.321	-0.131	0.165
-467.172	15.954	0.079	-0.062
-466.157	217.910	0.017	-0.028
-465.143	295.265	0.071	0.131
-464.128	-62.245	0.121	-0.050
-463.113	317.151	-0.065	-0.124
-462.099	-95.021	0.133	-0.036
-461.084	-200.000	0.005	-0.214
-460.070	800.000	-0.066	0.203
-459.055	-24.523	0.178	-0.107
-458.040	-9.429	-0.059	-0.040
-457.026	-25.949	0.207	0.122
-456.011	64.486	-0.180	-0.182
-454.997	467.548	0.202	0.455
-453.982	-12.114	0.141	-0.092
-452.968	-200.000	0.248	0.000
-451.953	233.994	0.124	-0.205
-450.938	-72.073	0.269	0.100
-449.924	800.000	-0.041	-0.169
-448.909	-200.000	0.030	0.169
-447.895	-84.592	0.300	-0.095
-446.880	-85.416	-0.136	0.043
-445.865	466.638	0.053	-0.118
-444.851	-137.251	0.107	0.012
-443.836	216.150	-0.100	-0.160
-442.822	800.000	-0.018	0.080
-441.807	-200.000	0.011	0.262
-440.792	574.162	0.034	0.084
-439.778	-33.839	-0.176	-0.097
-438.763	-87.460	-0.338	-0.103
-437.749	800.000	0.045	-0.167
-436.734	723.563	-0.145	0.387
-435.719	-200.000	-0.018	-0.437
-434.705	-166.171	-0.038	-0.002
-433.690	18.948	0.146	0.117
-432.676	-41.111	-0.298	-0.154
-431.661	14.836	0.172	0.135
-430.646	-200.000	0.002	-0.023
-429.632	-68.709	0.216	-0.084
-428.617	800.000	-0.065	-0.268
-427.603	628.933	0.142	-0.359
-426.588	239.175	0.092	-0.154
-425.573	365.041	0.124	-0.250
-424.559	340.954	0.109	-0.213
-423.544	-200.000	-0.007	-0.112
-422.530	800.000	-0.088	-0.360
-421.515	554.269	0.122	0.295
-420.500	-145.769	-0.204	-0.018
-419.486	800.000	0.071	0.284
-418.471	-25.166	-0.021	-0.013
-417.457	-200.000	0.141	0.000
-416.442	800.000	0.124	-0.417
-415.428	32.205	-0.137	0.119
-414.413	800.000	-0.054	-0.172
-413.398	-8.635	-0.198	-0.133
-412.384	212.292	-0.079	-0.124
-411.369	-134.795	-0.139	0.017
-410.355	249.155	0.072	0.122
-409.340	-86.621	0.300	-0.092
-408.325	92.700	-0.146	-0.165
-407.311	55.901	0.057	-0.056
-406.296	-200.000	-0.046	0.300
-405.282	64.010	0.169	-0.171
-404.267	21.230	0.188	-0.153
-403.252	-16.563	-0.191	-0.121
-402.238	301.034	0.117	0.216
-401.223	47.609	-0.183	-0.171
-400.209	21.186	-0.149	-0.121
-399.194	66.168	0.210	-0.214
-398.179	-200.000	-0.025	0.173
-397.165	800.000	0.215	-0.617
-396.150	12.591	-0.092	0.071
-395.136	2.207	0.280	0.203
-394.121	212.807	0.140	0.222
-393.106	-74.588	0.232	0.084
-392.092	319.643	0.199	0.378
-391.077	800.000	-0.033	-0.113
-390.063	-45.901	0.330	-0.163
-389.048	-79.489	0.192	0.065
-388.033	-200.000	-0.036	-0.507
-387.019	-69.455	-0.279	0.107
-386.004	494.138	-0.102	-0.234
-384.990	277.799	0.115	-0.204
-383.975	-200.000	0.013	-0.251
-382.960	338.797	-0.076	0.148
-381.946	-59.975	0.141	0.060
-380.931	-200.000	0.004	0.410
-379.917	6.072	0.227	0.169
-378.902	560.808	-0.072	0.175
-377.888	-200.000	-0.027	-0.162
-376.873	800.000	-0.015	0.042
-375.858	-148.486	-0.207	0.017
-374.844	190.957	-0.119	0.179
-373.829	2.235	0.258	0.187
-372.815	173.972	0.129	-0.187
-371.800	-200.000	-0.026	-0.213
-370.785	194.848	-0.152	0.231
-369.771	-16.677	-0.051	-0.032
-368.756	-200.000	-0.017	0.167
-367.742	-200.000	0.183	0.000
-366.727	-200.000	0.002	0.121
-365.712	-150.363	0.200	-0.015
-364.698	-165.582	0.089	0.004
-363.683	-48.656	-0.163	0.078
-362.669	800.000	-0.050	0.167
-361.654	-85.821	-0.086	-0.027
-360.639	-159.287	-0.182	0.010
-359.625	258.582	0.111	-0.192
-358.610	-200.000	-0.005	0.197
-357.596	-137.625	0.106	0.012
-356.581	9.246	0.220	0.166
-355.566	-45.456	-0.256	0.127
-354.552	64.538	0.118	0.119
-353.537	771.122	-0.071	-0.192
-352.523	4.495	-0.065	-0.048
-351.508	-76.743	-0.187	-0.065
-350.493	104.889	0.132	-0.156
-349.479	-78.829	0.338	-0.115
-348.464	263.630	-0.073	0.128
-347.450	-103.128	-0.202	0.048
-346.435	285.673	-0.089	0.160
-345.420	-116.293	0.395	0.073
-344.406	-200.000	0.005	0.261
-343.391	800.000	0.034	-0.123
-342.377	-106.233	0.121	-0.027
-341.362	-200.000	-0.017	0.206
-340.348	446.703	-0.040	-0.089
-339.333	800.000	0.088	-0.265
-338.318	315.241	0.081	-0.153
-337.304	17.569	0.257	-0.204
-336.289	-98.972	0.095	0.024
-335.275	9.198	-0.077	0.058
-334.260	-200.000	-0.022	-0.166
-333.245	800.000	-0.049	0.137
-332.231	-132.165	0.301	0.039
-331.216	236.055	0.031	0.051
-330.202	-136.103	-0.108	0.013
-329.187	239.200	-0.072	0.120
-328.172	520.320	-0.079	-0.184
-327.158	65.365	0.070	-0.070
-326.143	222.642	-0.098	0.158
-325.129	-200.000	-0.010	-0.061
-324.114	-3.143	0.045	-0.031
-323.099	-145.650	0.383	-0.034
-322.085	-200.000	-0.066	-0.332
-321.070	-10.344	-0.199	-0.132
-320.056	75.790	0.089	0.094
-319.041	-38.066	0.330	0.175
-318.026	-200.000	0.034	0.214
-317.012	800.000	-0.064	0.224
-315.997	800.000	0.019	-0.057
-314.983	800.000	-0.025	0.099
-313.968	492.237	0.047	0.108
-312.953	-131.922	0.283	-0.037
-311.939	-97.676	-0.155	-0.040
-310.924	496.024	0.052	-0.119
-309.910	-107.410	-0.154	-0.034
-308.895	-200.000	0.051	-0.377
-307.880	-200.000	0.119	0.000
-306.866	-13.548	-0.099	0.064
-305.851	-200.000	0.020	0.155
-304.837	76.334	-0.198	-0.209
-303.822	800.000	0.073	0.232
-302.807	82.806	-0.109	0.118
-301.793	17.907	0.140	0.111
-300.778	256.909	-0.155	-0.266
-299.764	308.286	-0.083	-0.154
-298.749	-98.298	-0.217	-0.056
-297.735	-54.891	0.202	0.091
-296.720	-200.000	-0.107	0.482
-295.705	541.203	0.155	-0.369
-294.691	-200.000	-0.054	0.291
-293.676	-13.018	0.208	-0.135
-292.662	-200.000	0.017	0.169
-291.647	16.653	-0.350	0.276
-290.632	-200.000	0.018	-0.240
-289.618	-200.000	-0.035	-0.191
-288.603	152.595	0.189	-0.258
-287.589	800.000	0.039	0.144
-286.574	34.900	0.151	0.131
-285.559	800.000	-0.082	0.307
-284.545	168.343	-0.178	-0.252
-283.530	699.399	-0.099	-0.259
-282.516	-158.439	-0.223	-0.013
-281.501	120.428	0.217	0.269
-280.486	516.411	-0.250	0.582
-279.472	-93.729	-0.306	-0.084
-278.457	-78.254	0.582	0.199
-277.443	-200.000	0.017	-0.172
-276.428	-70.312	-0.442	-0.167
-275.413	-163.202	-0.099	0.005
-274.399	588.038	0.021	0.051
-273.384	-88.579	0.238	0.071
-272.370	13.339	0.072	0.055
-271.355	39.457	0.175	-0.156
-270.340	150.666	-0.188	0.255
-269.326	670.098	0.032	0.082
-268.311	102.929	-0.169	0.197
-267.297	5.178	0.134	0.098
-266.282	135.114	-0.056	0.072
-265.267	426.639	-0.099	-0.213
-264.253	-107.235	0.239	-0.052
-263.238	-35.866	-0.058	-0.031
-262.224	-139.418	-0.189	0.020
-261.209	479.714	0.142	-0.321
-260.195	218.393	-0.049	-0.077
-259.180	-200.000	-0.036	-0.323
-258.165	-5.368	-0.160	-0.110
-257.151	286.413	0.067	0.120
-256.136	284.315	-0.088	0.158
-255.122	67.335	0.189	0.192
-254.107	-81.714	0.171	-0.056
-253.092	800.000	-0.050	0.154
-252.078	-159.466	0.288	-0.016
-251.063	-98.139	0.147	0.038
-250.049	-115.300	0.177	0.033
-249.034	800.000	-0.042	0.128
-248.019	800.000	0.075	-0.300
-247.005	-200.000	-0.006	0.162
-245.990	120.035	0.153	0.189
-244.976	788.186	0.053	0.144
-243.961	-112.613	-0.112	0.022
-242.946	-114.477	0.143	-0.027
-241.932	519.961	-0.145	-0.339
-240.917	620.099	-0.021	-0.052
-239.903	37.348	0.089	-0.079
-238.888	321.190	0.065	0.122
-237.873	99.249	0.202	0.232
-236.859	-160.174	-0.129	0.007
-235.844	546.928	-0.033	0.078
-234.830	-51.579	0.364	0.169
-233.815	113.674	0.098	0.119
-232.800	-143.072	-0.451	-0.043
-231.786	321.198	-0.037	-0.071
-230.771	-17.006	0.115	0.072
-229.757	-114.887	0.178	0.034
-228.742	-61.436	-0.219	0.091
-227.727	-96.218	-0.099	-0.026
-226.713	-113.452	-0.261	-0.051
-225.698	-191.944	0.278	0.003
-224.684	3.365	0.358	-0.259
-223.669	232.636	-0.142	0.232
-222.655	-86.467	-0.306	0.093
-221.640	-200.000	0.061	0.000
-220.625	-127.149	0.091	0.013
-219.611	-138.129	-0.484	0.053
-218.596	-151.401	0.114	0.008
-217.582	-6.109	0.103	-0.070
-216.567	-91.847	-0.177	0.050
-215.552	-103.224	-0.247	-0.058
-214.538	-200.000	0.015	-0.181
-213.523	295.973	0.047	-0.085
-212.509	-121.062	0.109	-0.018
-211.494	-25.603	0.080	0.047
-210.479	210.931	-0.132	0.207
-209.465	47.886	0.243	0.226
-208.450	-28.064	-0.200	0.115
-207.436	160.918	0.077	-0.106
-206.421	89.994	-0.150	-0.166
-205.406	-30.208	-0.303	0.171
-204.392	-149.264	-0.114	0.009
-203.377	63.230	0.213	-0.212
-202.363	55.952	-0.369	0.356
-201.348	-200.000	-0.031	0.167
-200.333	279.270	0.185	0.327
-199.319	778.251	0.082	-0.223
-198.304	-80.918	-0.157	0.052
-197.290	11.783	-0.173	0.132
-196.275	-115.585	-0.303	0.056
-195.260	800.000	-0.011	0.032
-194.246	-101.227	0.144	0.035
-193.231	49.635	-0.054	-0.051
-192.217	75.672	0.075	0.079
-191.202	-96.126	-0.253	-0.067
-190.187	-171.179	0.297	-0.010
-189.173	-163.443	-0.238	-0.011
-188.158	800.000	-0.154	0.444
-187.144	800.000	0.053	0.191
-186.129	-200.000	-0.007	0.076
-185.114	-115.465	0.252	-0.047
-184.100	161.101	-0.122	-0.170
-183.085	-136.734	0.052	-0.006
-182.071	-200.000	-0.073	-0.422
-181.056	-8.847	-0.202	0.134
-180.042	800.000	-0.095	0.282
-179.027	800.000	0.053	-0.162
-178.012	800.000	-0.086	-0.244
-176.998	72.513	0.105	-0.109
-175.983	-75.644	0.173	-0.061
-174.969	-200.000	-0.045	-0.467
-173.954	-200.000	-0.036	0.193
-172.939	-200.000	0.250	-0.001
-171.925	-200.000	0.018	0.245
-170.910	183.113	0.045	-0.066
-169.896	-7.525	0.327	-0.219
-168.881	-200.000	0.012	0.143
-167.866	-200.000	0.003	-0.138
-166.852	791.897	0.075	0.204
-165.837	11.836	0.380	-0.289
-164.823	237.348	-0.174	-0.286
-163.808	800.000	-0.030	0.106
-162.793	-52.939	0.206	0.094
-161.779	46.383	-0.199	0.183
-160.764	144.700	0.100	0.133
-159.750	523.053	0.074	-0.172
-158.735	88.343	0.077	-0.085
-157.720	19.222	0.191	-0.152
-156.706	-53.319	0.015	0.007
-155.691	-200.000	0.007	-0.070
-154.677	-68.469	0.273	0.105
-153.662	133.874	-0.226	-0.290
-152.647	800.000	0.052	-0.179
-151.633	800.000	0.113	0.318
-150.618	116.558	0.249	0.303
-149.604	106.689	0.320	-0.376
-148.589	800.000	0.107	0.367
-147.574	-114.054	0.192	-0.037
-146.560	227.693	0.079	-0.127
-145.545	178.087	0.075	0.108
-144.531	206.674	0.075	0.116
-143.516	208.698	-0.151	-0.234
-142.502	-200.000	0.015	0.358
-141.487	-148.516	0.435	0.035
-140.472	-200.000	-0.027	-0.377
-139.458	260.081	0.071	0.121
-138.443	11.059	0.122	-0.093
-137.429	-200.000	0.190	0.001
-136.414	-77.315	0.027	0.009
-135.399	-13.377	0.202	-0.130
-134.385	13.247	0.300	0.230
-133.370	-13.454	0.078	0.050
-132.356	9.690	-0.019	0.015
-131.341	-200.000	-0.060	0.329
-130.326	119.810	-0.091	0.111
-129.312	136.064	-0.063	0.081
-128.297	-200.000	-0.027	0.265
-127.283	-78.266	0.114	0.039
-126.268	588.337	-0.036	-0.088
-125.253	296.982	-0.115	-0.208
-124.239	-159.905	0.194	-0.011
-123.224	-200.000	-0.023	0.191
-122.210	185.627	0.101	0.149
-121.195	507.365	-0.081	0.187
-120.180	338.869	-0.108	0.208
-119.166	-86.281	0.341	-0.104
-118.151	30.146	-0.055	0.046
-117.137	-22.389	-0.311	0.187
-116.122	-200.000	-0.089	-0.558
-115.107	639.181	0.129	0.325
-114.093	216.424	-0.210	0.330
-113.078	-93.145	0.363	-0.100
-112.064	800.000	0.050	0.159
-111.049	800.000	-0.038	-0.104
-110.034	140.056	-0.237	0.309
-109.020	64.444	0.117	0.117
-108.005	157.848	0.087	0.119
-106.991	-200.000	0.016	0.163
-105.976	-4.184	-0.147	0.101
-104.962	-200.000	-0.059	0.324
-103.947	-177.940	0.344	-0.008
-102.932	-108.937	-0.118	-0.025
-101.918	50.129	0.283	0.265
-100.903	800.000	-0.014	0.042
-99.889	382.181	0.088	0.179
-98.874	527.510	0.078	0.182
-97.859	-37.308	0.265	-0.140
-96.845	195.899	-0.139	-0.209
-95.830	183.425	0.026	-0.037
-94.816	800.000	-0.084	-0.314
-93.801	-24.073	-0.452	0.267
-92.786	106.000	0.259	0.304
-91.772	-151.077	-0.371	0.028
-90.757	800.000	-0.093	-0.310
-89.743	-58.137	0.053	-0.023
-88.728	712.073	0.062	-0.162
-87.713	579.691	-0.076	0.183
-86.699	112.055	0.029	-0.034
-85.684	-200.000	-0.041	-0.312
-84.670	-200.000	0.049	-0.215
-83.655	198.017	0.146	-0.221
-82.640	800.000	0.057	0.222
-81.626	81.755	0.090	-0.096
-80.611	-189.473	-0.180	0.002
-79.597	303.659	0.034	0.062
-78.582	800.000	-0.043	-0.148
-77.567	496.850	0.107	0.243
-76.553	-46.829	0.220	-0.106
-75.538	22.560	0.202	-0.164
-74.524	149.269	0.322	-0.431
-73.509	403.888	0.245	0.511
-72.494	-78.593	-0.453	0.153
-71.480	339.204	-0.013	-0.025
-70.465	-28.261	0.252	0.144
-69.451	-43.097	-0.279	-0.140
-68.436	-139.195	0.010	0.001
-67.422	221.660	0.084	0.133
-66.407	-14.959	0.102	0.065
-65.392	-41.149	0.172	0.088
-64.378	-84.752	0.213	-0.066
-63.363	156.547	0.085	-0.115
-62.349	-160.193	-0.269	0.014
-61.334	63.880	-1.028	-1.020
-60.319	61.068	0.475	0.465
-59.305	-200.000	-0.228	-1.115
-58.290	319.620	0.702	1.315
-57.276	606.203	0.608	1.497
-56.261	-200.000	106.840	585.666
-55.246	438.561	1481.671	3192.583
-54.232	142.426	2682.833	3517.188
-53.217	95.579	2337.174	2632.637
-52.203	35.236	2086.178	1805.814
-51.188	30.768	2001.873	1692.261
-50.173	29.357	1984.894	1665.105
-49.159	45.116	2041.471	1857.405
-48.144	45.343	2058.286	1874.709
-47.130	31.397	2017.246	1710.738
-46.115	29.117	2006.015	1680.368
-45.100	28.997	2003.033	1676.706
-44.086	29.016	2000.671	1674.839
-43.071	28.935	1997.993	1671.796
-42.057	28.911	1995.961	1669.813
-41.042	28.841	1994.717	1668.066
-40.027	28.946	1992.557	1667.149
-39.013	29.027	1989.906	1665.598
-37.998	29.001	1988.313	1663.966
-36.984	29.016	1986.312	1662.353
-35.969	28.970	1984.940	1660.731
-34.954	28.953	1983.089	1658.963
-33.940	29.041	1981.261	1658.158
-32.925	29.096	1979.822	1657.379
-31.911	28.962	1978.236	1654.786
-30.896	29.040	1976.489	1653.959
-29.881	29.046	1974.860	1652.580
-28.867	29.137	1973.026	1651.797
-27.852	29.167	1971.059	1650.353
-26.838	29.186	1969.185	1648.891
-25.823	29.167	1967.825	1647.520
-24.809	29.167	1965.301	1645.340
-23.794	29.114	1964.023	1643.731
-22.779	29.042	1962.643	1641.864
-21.765	29.061	1961.274	1640.823
-20.750	29.068	1959.266	1639.142
-19.736	29.056	1957.862	1637.799
-18.721	29.117	1955.713	1636.477
-17.706	29.045	1954.809	1635.018
-16.692	29.014	1952.925	1633.098
-15.677	29.048	1951.590	1632.223
-14.663	29.071	1949.418	1630.543
-13.648	29.062	1948.291	1629.453
-12.633	29.091	1946.930	1628.508
-11.619	29.095	1946.027	1627.729
-10.604	29.175	1943.886	1626.577
-9.590	29.009	1943.088	1624.382
-8.575	29.052	1941.651	1623.491
-7.560	29.095	1940.569	1622.899
-6.546	29.131	1939.009	1621.851
-5.531	29.031	1938.236	1620.260
-4.517	29.117	1936.618	1619.598
-3.502	29.069	1935.657	1618.307
-2.487	29.113	1934.639	1617.781
-1.473	29.069	1933.208	1616.132
-0.458	29.209	1928.510	1613.369
0.556	27.329	1909.094	1587.458
1.571	23.470	1890.780	1538.675
2.586	19.802	1914.456	1525.512
3.600	19.005	1950.952	1547.298
4.615	18.905	1946.126	1542.435
5.629	14.815	1843.883	1426.425
6.644	5.784	1722.297	1259.954
7.659	0.695	1684.701	1192.273
8.673	0.155	1681.499	1185.645
9.688	0.214	1679.779	1184.794
10.702	0.181	1678.186	1183.308
11.717	0.060	1675.020	1180.015
12.731	0.687	1674.271	1184.298
13.746	6.935	1688.669	1243.647
14.761	14.941	1704.357	1318.432
15.775	17.426	1707.588	1340.414
16.790	16.882	1705.187	1334.135
17.804	15.889	1701.333	1323.196
18.819	14.892	1698.303	1312.901
19.834	14.323	1696.252	1306.734
20.848	14.047	1694.429	1303.048
21.863	13.696	1692.696	1298.856
22.877	13.548	1691.205	1296.436
23.892	13.313	1690.206	1293.718
24.907	13.176	1688.764	1291.433
25.921	13.233	1687.269	1290.614
26.936	13.182	1686.987	1289.892
27.950	13.177	1685.753	1288.794
28.965	13.352	1684.981	1289.453
29.980	13.330	1684.099	1288.489
30.994	13.350	1683.753	1288.271
32.009	13.388	1682.751	1287.683
33.023	13.419	1681.883	1287.147
34.038	13.443	1680.851	1286.432
35.053	13.485	1679.468	1285.585
36.067	13.472	1678.085	1284.311
37.082	13.345	1677.541	1282.796
38.096	13.363	1676.493	1282.023
39.111	13.343	1675.616	1281.084
40.126	13.483	1674.979	1281.568
41.140	13.353	1673.883	1279.604
42.155	13.322	1672.453	1278.161
43.169	13.205	1671.210	1276.193
44.184	13.175	1670.183	1275.065
45.199	13.182	1669.080	1274.164
46.213	13.172	1668.091	1273.216
47.228	13.203	1666.957	1272.483
48.242	13.202	1665.466	1271.224
49.257	13.278	1664.056	1270.617
50.271	13.316	1662.608	1269.692
51.286	13.318	1661.339	1268.624
52.301	13.375	1659.807	1267.779
53.315	13.266	1658.875	1266.124
54.330	13.270	1657.963	1265.341
55.344	13.210	1656.074	1263.332
56.359	13.290	1654.247	1262.435
57.374	13.200	1653.366	1260.965
58.388	13.196	1652.130	1259.884
59.403	13.187	1650.948	1258.798
60.417	13.210	1649.349	1257.640
61.432	13.188	1648.374	1256.623
62.447	13.177	1646.923	1255.319
63.461	13.207	1645.840	1254.615
64.476	13.160	1644.787	1253.340
65.490	13.198	1643.367	1252.439
66.505	13.116	1642.369	1250.941
67.520	13.091	1641.469	1249.957
68.534	13.145	1640.419	1249.459
69.549	13.198	1639.461	1249.016
70.563	13.185	1637.852	1247.581
71.578	13.168	1636.821	1246.558
72.593	13.087	1636.307	1245.449
73.607	13.040	1635.024	1244.006
74.622	13.049	1633.772	1243.015
75.636	13.017	1632.633	1241.792
76.651	13.134	1631.642	1241.810
77.666	13.047	1630.634	1240.275
78.680	13.035	1629.323	1239.084
79.695	13.042	1628.887	1238.692
80.709	13.143	1627.239	1238.088
81.724	13.068	1626.870	1237.135
82.739	13.123	1625.538	1236.421
83.753	13.172	1624.669	1236.023
84.768	13.310	1623.624	1236.149
85.782	13.256	1623.365	1235.439
86.797	13.347	1621.952	1234.930
87.812	13.336	1621.018	1234.032
88.826	13.264	1619.784	1232.445
89.841	13.142	1618.664	1230.578
90.855	13.229	1617.605	1230.310
91.870	13.253	1616.833	1229.789
92.884	13.376	1615.292	1229.426
93.899	13.317	1614.750	1228.468
94.914	13.387	1612.931	1227.495
95.928	13.360	1612.204	1226.629
96.943	13.374	1610.585	1225.390
97.957	13.454	1608.868	1224.572
98.972	13.337	1608.156	1223.057
99.987	13.397	1606.295	1221.973
101.001	13.344	1604.645	1220.220
102.016	13.262	1603.560	1218.682
103.030	13.355	1601.775	1217.900
104.045	13.298	1600.865	1216.682
105.060	13.265	1599.724	1215.469
106.074	13.290	1597.859	1214.123
107.089	13.282	1596.157	1212.662
108.103	13.225	1594.948	1211.219
109.118	13.172	1593.369	1209.531
110.133	13.014	1592.560	1207.650
111.147	13.187	1590.497	1207.247
112.162	13.171	1589.108	1205.967
113.176	13.188	1588.233	1205.319
114.191	13.203	1587.018	1204.403
115.206	13.235	1585.575	1203.432
116.220	13.294	1584.521	1202.951
117.235	13.247	1583.072	1201.403
118.249	13.299	1581.719	1200.654
119.264	13.163	1581.279	1199.220
120.279	13.247	1579.173	1198.131
121.293	13.173	1577.903	1196.523
122.308	13.142	1576.574	1195.188
123.322	13.186	1575.062	1194.250
124.337	13.232	1572.993	1192.907
125.352	13.179	1571.856	1191.557
126.366	13.125	1571.011	1190.424
127.381	13.149	1569.703	1189.499
128.395	13.183	1568.400	1188.654
129.410	13.150	1567.263	1187.446
130.424	13.174	1566.067	1186.611
131.439	13.163	1564.522	1185.258
132.454	13.233	1563.213	1184.657
133.468	13.195	1561.770	1183.186
134.483	13.309	1559.841	1182.440
135.497	13.261	1558.860	1181.247
136.512	13.292	1557.504	1180.338
137.527	13.373	1555.966	1179.642
138.541	13.231	1554.793	1177.641
139.556	13.322	1553.119	1176.916
140.570	13.334	1551.941	1176.001
141.585	13.391	1550.379	1175.120
142.600	13.326	1549.185	1173.653
143.614	13.373	1547.972	1172.960
144.629	13.387	1547.007	1172.226
145.643	13.470	1544.890	1171.104
146.658	13.520	1543.825	1170.548
147.673	13.445	1542.183	1168.665
148.687	13.485	1540.609	1167.652
149.702	13.429	1539.275	1166.145
150.716	13.408	1537.661	1164.673
151.731	13.367	1536.142	1163.130
152.746	13.343	1535.180	1162.133
153.760	13.466	1533.564	1161.668
154.775	13.434	1532.445	1160.489
155.789	13.475	1530.708	1159.360
156.804	13.470	1529.522	1158.328
157.819	13.589	1528.188	1158.044
158.833	13.578	1527.107	1157.047
159.848	13.636	1526.216	1156.673
160.862	13.598	1525.381	1155.671
161.877	13.643	1523.899	1154.765
162.892	13.529	1522.939	1153.135
163.906	13.486	1521.645	1151.756
164.921	13.531	1519.837	1150.599
165.935	13.524	1519.193	1149.960
166.950	13.481	1518.127	1148.754
167.964	13.637	1516.622	1148.592
168.979	13.550	1516.022	1147.435
169.994	13.546	1514.517	1146.171
171.008	13.534	1513.419	1145.154
172.023	13.647	1512.334	1145.010
173.037	13.654	1511.432	1144.274
174.052	13.660	1510.411	1143.440
175.067	13.669	1509.095	1142.411
176.081	13.661	1508.034	1141.447
177.096	13.589	1506.600	1139.769
178.110	13.604	1505.675	1139.071
179.125	13.653	1503.813	1137.898
180.140	13.611	1503.247	1137.079
181.154	13.683	1501.937	1136.483
182.169	13.698	1500.933	1135.722
183.183	13.723	1499.825	1134.953
184.198	13.714	1498.583	1133.853
185.213	13.773	1497.851	1133.601
186.227	13.834	1496.042	1132.551
187.242	13.900	1495.176	1132.245
188.256	13.898	1494.131	1131.338
189.271	13.873	1492.976	1130.190
190.286	13.857	1492.206	1129.404
191.300	13.981	1490.960	1129.199
192.315	13.837	1489.186	1126.778
193.329	13.582	1488.318	1124.296
194.344	13.727	1487.193	1124.326
195.359	13.653	1486.410	1123.133
196.373	13.760	1485.319	1122.936
197.388	13.888	1484.099	1122.781
198.402	13.837	1483.201	1121.656
199.417	13.942	1481.775	1121.190
200.432	13.974	1480.625	1120.436
201.446	13.983	1479.884	1119.837
202.461	14.039	1478.647	1119.180
203.475	14.017	1477.527	1118.080
204.490	14.138	1476.336	1117.895
205.504	14.065	1475.404	1116.603
206.519	14.019	1473.929	1115.074
207.534	14.039	1473.303	1114.641
208.548	14.022	1472.246	1113.625
209.563	14.001	1471.090	1112.515
210.577	14.000	1470.484	1111.951
211.592	13.987	1469.113	1110.730
212.607	14.087	1468.456	1110.798
213.621	14.154	1468.071	1110.858
214.636	14.274	1466.510	1110.379
215.650	14.195	1465.461	1108.959
216.665	14.263	1464.577	1108.645
217.680	14.090	1463.955	1106.926
218.694	14.215	1463.596	1107.386
219.709	14.358	1462.142	1107.141
220.723	14.338	1461.322	1106.291
221.738	14.217	1460.060	1104.430
222.753	14.285	1459.398	1104.285
223.767	14.265	1458.659	1103.497
224.782	14.313	1457.585	1102.904
225.796	14.277	1456.927	1102.070
226.811	14.338	1456.222	1101.840
227.826	14.383	1455.114	1101.201
228.840	14.376	1454.366	1100.495
229.855	14.451	1453.237	1100.037
230.869	14.367	1452.485	1098.817
231.884	14.401	1451.339	1098.076
232.899	14.403	1449.701	1096.751
233.913	14.394	1448.898	1095.986
234.928	14.339	1447.847	1094.739
235.942	14.356	1446.651	1093.847
236.957	14.284	1445.719	1092.575
237.972	14.244	1444.426	1091.234
238.986	14.346	1443.207	1090.888
240.001	14.385	1441.821	1089.997
241.015	14.396	1441.174	1089.486
242.030	14.380	1440.394	1088.695
243.045	14.428	1439.169	1087.984
244.059	14.367	1438.762	1087.183
245.074	14.457	1437.653	1086.836
246.088	14.481	1437.375	1086.684
247.103	14.524	1436.392	1086.123
248.117	14.536	1435.205	1085.208
249.132	14.625	1434.160	1084.901
250.147	14.666	1433.714	1084.738
251.161	14.709	1432.863	1084.278
252.176	14.884	1431.928	1084.607
253.190	14.876	1431.184	1083.897
254.205	14.827	1430.881	1083.256
255.220	14.903	1429.790	1082.822
256.234	14.905	1429.178	1082.278
257.249	14.945	1428.313	1081.785
258.263	14.842	1427.606	1080.491
259.278	14.905	1426.244	1079.768
260.293	14.927	1425.366	1079.151
261.307	14.910	1425.054	1078.709
262.322	14.877	1424.095	1077.677
263.336	15.038	1423.053	1077.825
264.351	15.083	1421.950	1077.184
265.366	15.090	1420.927	1076.361
266.380	15.091	1420.145	1075.680
267.395	15.169	1418.998	1075.218
268.409	15.153	1418.133	1074.366
269.424	15.050	1417.461	1073.098
270.439	14.986	1416.374	1071.772
271.453	15.125	1415.362	1071.800
272.468	15.042	1414.605	1070.604
273.482	15.053	1414.184	1070.261
274.497	15.057	1413.132	1069.394
275.512	15.075	1411.809	1068.414
276.526	15.038	1411.385	1067.757
277.541	15.202	1409.873	1067.569
278.555	15.145	1409.416	1066.766
279.570	15.050	1408.850	1065.634
280.585	15.136	1407.335	1064.941
281.599	15.152	1406.617	1064.410
282.614	15.227	1405.694	1064.091
283.628	15.244	1404.372	1063.102
284.643	15.244	1403.349	1062.233
285.657	15.201	1402.241	1061.029
286.672	15.301	1401.430	1060.958
287.687	15.333	1400.436	1060.313
288.701	15.251	1399.312	1058.851
289.716	15.289	1398.819	1058.621
290.730	15.332	1397.966	1058.152
291.745	15.371	1396.897	1057.496
292.760	15.302	1396.135	1056.388
293.774	15.408	1395.062	1056.154
294.789	15.306	1394.262	1054.813
295.803	15.429	1393.293	1054.758
296.818	15.473	1391.949	1053.925
297.833	15.426	1391.392	1053.112
298.847	15.477	1390.233	1052.462
299.862	15.406	1389.677	1051.508
300.876	15.383	1388.654	1050.495
301.891	15.487	1387.287	1050.017
302.906	15.596	1386.454	1049.977
303.920	15.474	1386.236	1048.957
304.935	15.549	1385.377	1048.682
305.949	15.701	1384.299	1048.717
306.964	15.620	1383.981	1047.884
307.979	15.746	1382.467	1047.428
308.993	15.630	1381.578	1045.941
310.008	15.611	1380.884	1045.204
311.022	15.579	1379.895	1044.164
312.037	15.773	1378.770	1044.421
313.052	15.687	1378.099	1043.289
314.066	15.745	1377.287	1042.943
315.081	15.738	1375.924	1041.774
316.095	15.611	1374.911	1040.126
317.110	15.760	1373.350	1039.778
318.125	15.676	1372.663	1038.647
319.139	15.680	1372.209	1038.234
320.154	15.721	1371.207	1037.640
321.168	15.702	1370.328	1036.763
322.183	15.729	1369.036	1035.863
323.197	15.694	1368.460	1035.116
324.212	15.765	1367.639	1034.844
325.227	15.875	1366.849	1034.830
326.241	15.784	1365.863	1033.432
327.256	15.760	1365.109	1032.620
328.270	15.802	1363.786	1031.786
329.285	15.744	1363.285	1030.960
330.300	15.795	1362.343	1030.474
331.314	15.798	1361.420	1029.700
332.329	15.885	1360.324	1029.309
333.343	15.881	1359.376	1028.478
334.358	15.894	1358.477	1027.787
335.373	15.837	1357.833	1026.864
336.387	15.903	1356.916	1026.479
337.402	15.980	1355.919	1026.103
338.416	15.950	1355.374	1025.418
339.431	15.975	1354.924	1025.138
340.446	16.008	1353.815	1024.408
341.460	16.073	1352.991	1024.092
342.475	16.129	1351.817	1023.449
343.489	16.171	1350.921	1022.936
344.504	16.106	1350.360	1022.030
345.519	16.125	1349.582	1021.462
346.533	16.210	1348.467	1021.043
347.548	16.256	1347.644	1020.609
348.562	16.184	1346.755	1019.412
349.577	16.297	1345.874	1019.332
350.592	16.388	1344.955	1019.100
351.606	16.341	1343.921	1017.940
352.621	16.183	1343.182	1016.337
353.635	16.219	1342.135	1015.675
354.650	16.205	1341.121	1014.733
355.665	16.175	1340.228	1013.785
356.679	16.176	1339.182	1012.910
357.694	16.198	1338.157	1012.180
358.708	16.271	1337.074	1011.706
359.723	16.264	1336.115	1010.850
360.738	16.376	1335.011	1010.595
361.752	16.329	1333.756	1009.275
362.767	16.362	1332.732	1008.611
363.781	16.428	1331.720	1008.148
364.796	16.477	1331.464	1008.155
365.810	16.375	1331.082	1007.170
366.825	16.504	1330.004	1007.032
367.840	16.512	1329.228	1006.406
368.854	16.510	1328.528	1005.772
369.869	16.516	1328.376	1005.608
370.883	16.574	1327.536	1005.226
371.898	16.639	1326.275	1004.567
372.913	16.665	1325.461	1004.015
373.927	16.525	1325.036	1002.776
374.942	16.540	1323.981	1001.974
375.956	16.658	1323.523	1002.236
376.971	16.648	1322.712	1001.479
377.986	16.655	1321.334	1000.386
379.000	16.617	1320.791	999.663
380.015	16.693	1320.087	999.490
381.029	16.705	1319.298	998.876
382.044	16.810	1318.373	998.703
383.059	16.765	1317.880	997.980
384.073	16.831	1317.186	997.756
385.088	16.788	1316.679	997.027
386.102	16.751	1315.835	996.084
387.117	16.775	1315.339	995.761
388.132	16.974	1314.210	995.987
389.146	16.769	1313.702	994.308
390.161	16.741	1312.629	993.246
391.175	16.825	1312.159	993.292
392.190	16.720	1311.568	992.145
393.205	16.858	1310.644	992.166
394.219	16.874	1309.639	991.410
395.234	17.016	1307.913	990.847
396.248	16.968	1306.799	989.636
397.263	16.938	1305.388	988.302
398.278	16.899	1304.096	987.012
399.292	16.988	1302.786	986.449
400.307	16.821	1302.279	985.004
401.321	16.825	1301.168	984.100
402.336	16.878	1299.949	983.399
403.350	17.000	1298.646	983.033
404.365	16.849	1297.990	981.576
405.380	16.887	1296.841	980.843
406.394	16.857	1296.710	980.479
407.409	16.955	1296.116	980.515
408.423	17.016	1295.347	980.198
409.438	17.141	1294.605	980.270
410.453	17.130	1293.403	979.211
411.467	17.192	1292.868	979.076
412.482	17.148	1292.562	978.501
413.496	17.266	1291.554	978.334
414.511	17.200	1290.762	977.269
415.526	17.244	1290.293	977.077
416.540	17.284	1289.209	976.398
417.555	17.372	1288.936	976.610
418.569	17.408	1287.866	975.924
419.584	17.343	1287.783	975.398
420.599	17.412	1287.126	975.211
421.613	94.834	1354.052	1469.334
422.628	92.930	1363.767	1469.405
