DTS Sentinel unit serial number:	SN413079Multiplexer serial number:	ORYXHardware model number:	OX4-SRSoftware version number:	ORYX F/W v4.00 Oryx Data Collector v3.7.2.0data status	okinstallation	princeton_trtdifferential loss correction	single-endedforward channel	channel 4reverse channel	N/Adate	2019/09/18time	13:41:34forward acquisition time	60.00reverse acquisition time	0.00gamma	496.2192k internal	0.2302k external	0.2302temperature offset calibration	0.9996default loss term (dB/km)	0.3790temperature slope calibration	1.0000multiplexer offset coefficient	1.0000multiplexer slope coefficient	1.0000fibre end	0.00T internal ref (°C)	34.44T ext. ref 1 (°C)	0.63T ext. ref 2 (°C)	30.26length (m)	temperature (°C)	Stokes	anti-Stokes-747.200	-95.637	0.082	0.022
-746.185	181.961	0.101	0.151
-745.171	800.000	0.023	-0.102
-744.156	186.719	0.102	-0.154
-743.142	445.674	0.166	0.371
-742.127	-166.169	0.255	0.011
-741.112	-111.949	0.101	-0.021
-740.098	-31.977	-0.060	0.034
-739.083	-150.313	0.242	0.019
-738.069	395.891	-0.129	0.274
-737.054	-8.378	-0.164	0.112
-736.039	-200.000	-0.021	0.222
-735.025	-200.000	-0.018	0.102
-734.010	28.174	-0.131	0.112
-732.996	208.594	-0.093	0.147
-731.981	323.885	-0.042	0.081
-730.966	-79.217	0.220	-0.076
-729.952	434.464	0.162	-0.359
-728.937	-147.963	-0.086	0.007
-727.923	-115.198	-0.281	-0.054
-726.908	217.018	-0.054	-0.088
-725.894	565.019	-0.064	-0.158
-724.879	-77.438	-0.038	0.014
-723.864	673.112	-0.132	0.349
-722.850	43.760	0.127	0.119
-721.835	800.000	-0.111	-0.430
-720.821	800.000	0.042	-0.160
-719.806	-90.297	0.199	-0.059
-718.791	639.305	-0.158	-0.408
-717.777	105.189	-0.245	-0.294
-716.762	-3.093	-0.064	0.046
-715.748	-139.606	-0.307	-0.033
-714.733	-64.852	-0.138	-0.057
-713.718	800.000	0.055	-0.218
-712.704	46.489	-0.149	-0.141
-711.689	-19.875	-0.190	-0.120
-710.675	218.334	0.127	0.207
-709.660	274.919	-0.121	0.218
-708.645	253.357	0.194	0.337
-707.631	-200.000	0.068	-0.341
-706.616	-56.053	0.079	-0.036
-705.602	-200.000	-0.108	-0.000
-704.587	-200.000	-0.003	0.189
-703.572	-200.000	-0.012	-0.122
-702.558	-200.000	-0.026	0.271
-701.543	218.819	0.113	0.183
-700.529	-200.000	0.052	-0.271
-699.514	78.132	0.300	-0.326
-698.499	278.929	-0.202	0.367
-697.485	-46.796	0.135	-0.067
-696.470	-184.067	0.333	0.006
-695.456	-200.000	-0.002	0.093
-694.441	800.000	0.085	0.285
-693.426	31.666	0.313	0.274
-692.412	415.377	-0.134	0.290
-691.397	-200.000	0.033	-0.235
-690.383	636.240	-0.112	0.288
-689.368	-31.551	-0.145	0.083
-688.354	-64.415	0.210	0.087
-687.339	95.799	0.048	0.055
-686.324	212.938	0.179	-0.288
-685.310	36.677	0.075	0.067
-684.295	-109.138	-0.298	-0.065
-683.281	43.544	0.422	0.392
-682.266	-81.654	0.034	-0.011
-681.251	-83.950	0.286	0.092
-680.237	-200.000	-0.022	0.243
-679.222	800.000	0.060	0.247
-678.208	-72.694	-0.248	0.093
-677.193	-152.002	0.278	-0.021
-676.178	-200.000	0.003	-0.120
-675.164	-200.000	-0.012	-0.176
-674.149	-25.408	0.265	0.159
-673.135	-49.440	0.092	0.045
-672.120	211.119	0.209	-0.335
-671.105	-200.000	-0.018	-0.122
-670.091	-144.084	-0.321	0.031
-669.076	800.000	-0.057	0.199
-668.062	800.000	0.018	-0.055
-667.047	-42.131	-0.233	-0.121
-666.032	-12.050	0.141	-0.094
-665.018	-200.000	0.042	-0.190
-664.003	-38.594	0.140	-0.075
-662.989	-200.000	-0.065	-0.431
-661.974	146.661	-0.097	-0.132
-660.959	-127.090	-0.132	0.020
-659.945	-200.000	0.013	0.077
-658.930	-90.368	0.158	0.046
-657.916	-200.000	-0.002	0.181
-656.901	-167.166	0.163	0.007
-655.886	-52.611	-0.111	-0.052
-654.872	-93.499	-0.204	0.057
-653.857	6.642	0.115	-0.087
-652.843	94.463	0.033	-0.038
-651.828	-200.000	0.011	0.263
-650.814	-47.595	-0.258	0.127
-649.799	-200.000	0.008	0.100
-648.784	-200.000	0.001	0.114
-647.770	-91.105	0.344	-0.100
-646.755	0.455	0.209	0.151
-645.741	-38.229	0.220	-0.119
-644.726	-19.880	-0.167	0.105
-643.711	-166.889	0.391	-0.016
-642.697	-91.371	-0.187	0.054
-641.682	-158.189	-0.122	-0.007
-640.668	-138.634	0.224	0.025
-639.653	-200.000	-0.027	-0.239
-638.638	800.000	-0.037	0.131
-637.624	64.129	0.317	-0.323
-636.609	-18.796	-0.134	-0.085
-635.595	-144.450	-0.142	-0.013
-634.580	22.911	-0.272	-0.226
-633.565	29.205	0.112	-0.096
-632.551	186.709	-0.032	0.049
-631.536	494.403	0.117	-0.272
-630.522	288.215	0.098	-0.179
-629.507	266.509	0.079	-0.141
-628.492	-15.528	0.062	-0.040
-627.478	271.934	-0.053	-0.095
-626.463	-200.000	0.010	0.113
-625.449	276.501	-0.125	-0.226
-624.434	-200.000	0.010	-0.248
-623.419	-200.000	-0.007	-0.157
-622.405	-200.000	-0.029	0.391
-621.390	-82.609	-0.251	0.082
-620.376	349.902	0.059	-0.118
-619.361	-53.238	-0.310	0.144
-618.346	800.000	0.160	-0.515
-617.332	-200.000	0.010	-0.249
-616.317	43.796	0.148	0.138
-615.303	5.946	-0.238	-0.179
-614.288	-45.190	-0.338	0.170
-613.273	800.000	0.021	0.077
-612.259	-22.188	0.095	0.058
-611.244	-115.494	-0.067	-0.013
-610.230	-39.510	-0.240	0.127
-609.215	800.000	-0.093	-0.320
-608.201	124.418	-0.106	-0.135
-607.186	-183.169	-0.239	-0.004
-606.171	-200.000	-0.007	0.132
-605.157	-16.730	0.133	0.085
-604.142	800.000	-0.096	0.277
-603.128	113.731	-0.133	0.163
-602.113	514.640	-0.059	0.138
-601.098	758.331	-0.096	-0.265
-600.084	800.000	-0.059	0.232
-599.069	-42.276	-0.220	0.114
-598.055	-86.226	0.132	-0.041
-597.040	98.236	0.053	0.062
-596.025	494.528	-0.091	0.213
-595.011	-18.855	0.232	-0.146
-593.996	-130.897	-0.268	0.036
-592.982	-75.021	0.086	0.031
-591.967	-47.112	-0.208	0.103
-590.952	-97.835	-0.267	-0.070
-589.938	39.153	-0.037	-0.034
-588.923	-138.403	0.205	0.023
-587.909	-56.199	0.239	-0.108
-586.894	-112.022	-0.440	-0.090
-585.879	-51.358	-0.227	0.107
-584.865	-21.810	-0.261	-0.161
-583.850	-200.000	0.041	-0.200
-582.836	0.787	0.377	-0.273
-581.821	-200.000	0.010	-0.361
-580.806	-0.753	-0.167	-0.120
-579.792	800.000	-0.064	0.190
-578.777	-22.882	-0.248	-0.151
-577.763	-146.582	-0.135	0.012
-576.748	-150.540	0.314	0.024
-575.733	800.000	0.061	0.206
-574.719	175.720	0.255	0.375
-573.704	169.918	-0.151	-0.219
-572.690	-200.000	-0.015	0.070
-571.675	160.241	0.149	0.210
-570.661	-115.114	0.467	0.090
-569.646	-63.431	-0.477	-0.199
-568.631	-8.469	0.054	-0.037
-567.617	64.436	0.064	0.066
-566.602	498.380	-0.076	0.178
-565.588	83.051	-0.263	-0.289
-564.573	-71.480	0.181	-0.069
-563.558	246.459	-0.160	-0.273
-562.544	166.677	-0.036	-0.052
-561.529	26.337	-0.236	0.200
-560.515	417.395	-0.135	0.291
-559.500	-124.448	0.201	-0.032
-558.485	800.000	-0.020	0.061
-557.471	-200.000	0.317	0.000
-556.456	592.846	0.163	-0.407
-555.442	-200.000	-0.038	0.255
-554.427	736.245	0.025	0.068
-553.412	-96.046	0.253	0.068
-552.398	-18.856	0.138	0.087
-551.383	688.826	0.078	-0.206
-550.369	-27.817	0.082	-0.048
-549.354	-200.000	-0.032	0.306
-548.339	-108.117	-0.194	-0.043
-547.325	-116.231	0.099	-0.019
-546.310	-75.276	-0.028	0.010
-545.296	800.000	0.103	0.305
-544.281	-70.626	-0.106	0.040
-543.266	-53.088	-0.006	-0.003
-542.252	-66.935	-0.318	0.127
-541.237	-185.789	-0.188	0.003
-540.223	-188.446	-0.142	0.002
-539.208	193.260	0.183	0.280
-538.193	216.816	-0.043	0.070
-537.179	400.796	-0.088	0.187
-536.164	55.165	0.068	-0.066
-535.150	20.109	-0.078	-0.063
-534.135	-176.102	0.072	-0.002
-533.121	-45.671	0.111	-0.056
-532.106	14.335	-0.214	-0.168
-531.091	60.920	0.034	0.034
-530.077	556.336	-0.065	0.157
-529.062	-90.419	0.174	0.051
-528.048	11.093	-0.239	0.185
-527.033	-166.044	-0.254	-0.011
-526.018	-116.290	0.344	-0.064
-525.004	800.000	0.074	-0.226
-523.989	121.427	-0.015	0.019
-522.975	50.757	0.184	0.176
-521.960	794.401	0.067	0.186
-520.945	113.527	-0.077	-0.095
-519.931	726.298	-0.106	0.286
-518.916	340.501	0.143	0.282
-517.902	117.063	-0.250	-0.310
-516.887	-92.250	-0.043	0.012
-515.872	-200.000	0.000	0.229
-514.858	-200.000	-0.023	0.194
-513.843	-200.000	0.003	0.196
-512.829	-49.190	0.350	0.169
-511.814	307.814	0.037	-0.069
-510.799	800.000	0.040	-0.131
-509.785	-87.770	-0.293	0.089
-508.770	188.195	0.094	-0.141
-507.756	211.971	-0.092	0.146
-506.741	-200.000	0.043	-0.229
-505.726	95.883	0.027	0.031
-504.712	720.006	-0.047	0.125
-503.697	42.180	0.113	0.104
-502.683	-12.610	0.146	0.096
-501.668	-128.819	0.182	0.026
-500.653	-200.000	-0.078	0.348
-499.639	308.698	-0.123	-0.231
-498.624	71.920	-0.122	-0.128
-497.610	-61.959	0.125	-0.053
-496.595	744.218	0.038	0.104
-495.581	232.468	0.047	-0.078
-494.566	4.005	0.152	-0.112
-493.551	767.336	-0.100	0.275
-492.537	145.656	0.084	0.114
-491.522	297.976	0.084	-0.157
-490.508	800.000	0.006	0.025
-489.493	139.555	0.156	0.207
-488.478	800.000	-0.063	-0.204
-487.464	52.913	-0.238	0.229
-486.449	-200.000	0.018	0.177
-485.435	419.455	-0.105	0.226
-484.420	-76.548	-0.120	-0.043
-483.405	800.000	0.033	-0.139
-482.391	800.000	-0.013	0.054
-481.376	-134.455	0.410	0.051
-480.362	-200.000	-0.079	-0.362
-479.347	-41.989	-0.154	0.080
-478.332	-96.565	-0.048	-0.013
-477.318	-200.000	-0.003	-0.098
-476.303	130.341	-0.111	0.143
-475.289	-200.000	0.011	-0.226
-474.274	583.212	0.041	0.101
-473.259	-200.000	-0.051	0.271
-472.245	714.943	-0.171	-0.458
-471.230	201.134	0.157	-0.243
-470.216	202.482	0.037	-0.057
-469.201	-8.166	-0.094	0.064
-468.186	-47.133	-0.037	0.018
-467.172	800.000	-0.108	-0.395
-466.157	-46.578	-0.064	-0.032
-465.143	-200.000	-0.004	-0.096
-464.128	-200.000	0.048	-0.341
-463.113	362.926	0.170	-0.345
-462.099	-81.688	-0.099	-0.033
-461.084	-200.000	0.037	-0.446
-460.070	212.471	0.141	-0.224
-459.055	-83.657	-0.419	-0.135
-458.040	186.145	-0.076	-0.115
-457.026	33.957	0.050	-0.044
-456.011	-200.000	-0.042	-0.371
-454.997	395.506	0.123	0.258
-453.982	-84.349	-0.147	-0.047
-452.968	-66.083	-0.186	-0.075
-451.953	160.117	-0.081	-0.113
-450.938	31.250	-0.169	0.146
-449.924	-72.037	-0.226	0.085
-448.909	800.000	0.031	0.106
-447.895	159.293	-0.080	-0.112
-446.880	-112.262	-0.218	0.044
-445.865	-43.135	-0.205	0.105
-444.851	-200.000	-0.020	0.103
-443.836	729.637	-0.034	-0.091
-442.822	-42.354	-0.094	-0.048
-441.807	496.389	0.108	-0.250
-440.792	-33.917	-0.320	0.177
-439.778	109.842	-0.111	-0.135
-438.763	-200.000	-0.016	0.148
-437.749	-18.134	0.408	0.257
-436.734	33.877	0.163	-0.143
-435.719	124.065	0.147	-0.186
-434.705	-124.593	-0.167	0.026
-433.690	-43.357	0.145	0.074
-432.676	-158.790	0.096	0.006
-431.661	-200.000	-0.002	0.166
-430.646	-140.440	0.140	0.015
-429.632	-96.525	-0.344	0.092
-428.617	200.874	-0.068	0.106
-427.603	-87.265	-0.080	-0.025
-426.588	236.259	0.099	0.166
-425.573	-200.000	-0.029	0.267
-424.559	800.000	-0.091	0.319
-423.544	154.124	-0.104	-0.143
-422.530	38.892	0.177	0.159
-421.515	-200.000	-0.001	-0.008
-420.500	103.089	-0.053	0.063
-419.486	0.932	0.083	-0.060
-418.471	-200.000	0.035	0.229
-417.457	-200.000	-0.020	-0.307
-416.442	-160.303	0.140	0.008
-415.428	800.000	-0.019	0.065
-414.413	-114.907	-0.103	0.020
-413.398	198.689	0.110	-0.170
-412.384	-29.395	-0.167	-0.096
-411.369	95.926	0.151	-0.174
-410.355	-200.000	-0.036	-0.294
-409.340	-200.000	0.023	0.314
-408.325	-200.000	0.475	-0.000
-407.311	12.469	0.221	-0.172
-406.296	-67.438	-0.231	0.091
-405.282	394.384	-0.101	0.212
-404.267	-184.523	0.256	0.004
-403.252	800.000	-0.014	-0.053
-402.238	-92.120	0.281	0.080
-401.223	430.776	0.134	0.291
-400.209	800.000	-0.058	0.246
-399.194	-150.518	-0.104	0.008
-398.179	31.401	0.071	-0.062
-397.165	-103.085	0.175	0.042
-396.150	21.910	-0.129	0.106
-395.136	-140.902	0.072	0.007
-394.121	0.505	0.147	0.105
-393.106	39.481	-0.033	0.030
-392.092	-200.000	-0.015	-0.178
-391.077	800.000	-0.038	0.148
-390.063	-22.770	0.099	-0.060
-389.048	95.858	0.080	0.092
-388.033	-185.757	-0.366	0.006
-387.019	-83.524	-0.190	0.061
-386.004	80.075	-0.074	-0.079
-384.990	-164.642	0.352	-0.016
-383.975	30.692	-0.137	0.118
-382.960	335.050	-0.172	0.334
-381.946	-46.155	-0.234	0.116
-380.931	474.630	-0.083	0.189
-379.917	-123.975	0.274	-0.043
-378.902	285.615	0.069	0.125
-377.888	36.543	-0.268	0.238
-376.873	-22.914	-0.092	0.056
-375.858	177.306	0.107	0.157
-374.844	120.168	-0.202	-0.252
-373.829	-51.133	-0.261	-0.123
-372.815	117.881	0.058	-0.071
-371.800	623.980	0.051	-0.128
-370.785	-16.518	-0.239	0.152
-369.771	16.847	0.237	-0.189
-368.756	516.910	0.071	0.166
-367.742	-79.769	0.197	-0.067
-366.727	800.000	0.017	0.070
-365.712	-40.485	-0.200	-0.104
-364.698	-167.107	0.128	0.005
-363.683	265.724	-0.034	-0.059
-362.669	160.485	0.029	-0.041
-361.654	-106.780	0.458	0.102
-360.639	484.125	0.028	-0.064
-359.625	-34.453	0.180	0.099
-358.610	30.402	0.190	0.163
-357.596	-126.955	0.343	0.051
-356.581	437.880	-0.115	0.251
-355.566	-169.703	-0.204	-0.007
-354.552	-200.000	-0.021	-0.102
-353.537	140.233	0.062	-0.082
-352.523	123.051	0.251	0.316
-351.508	-200.000	-0.031	0.138
-350.493	439.555	-0.122	-0.267
-349.479	-149.150	-0.273	-0.022
-348.464	-200.000	-0.069	0.387
-347.450	800.000	-0.049	0.194
-346.435	-200.000	-0.039	0.234
-345.420	-123.231	-0.138	0.022
-344.406	69.901	-0.160	0.165
-343.391	73.852	0.045	0.048
-342.377	120.445	0.137	0.170
-341.362	-200.000	-0.074	-0.384
-340.348	-160.936	-0.323	-0.017
-339.333	290.685	0.124	-0.226
-338.318	-14.799	-0.071	0.045
-337.304	-5.024	0.263	0.182
-336.289	-42.707	-0.093	0.047
-335.275	58.541	-0.347	-0.342
-334.260	-200.000	0.003	0.067
-333.245	-112.223	0.254	-0.051
-332.231	-200.000	0.007	-0.348
-331.216	237.665	0.073	-0.121
-330.202	800.000	0.031	-0.110
-329.187	165.159	0.129	-0.182
-328.172	294.911	0.090	0.166
-327.158	62.876	0.195	-0.196
-326.143	127.799	0.075	-0.095
-325.129	282.702	-0.135	-0.243
-324.114	-200.000	0.011	-0.180
-323.099	365.687	-0.024	-0.048
-322.085	20.821	0.113	0.092
-321.070	-73.062	0.237	-0.087
-320.056	93.280	-0.221	-0.250
-319.041	-126.903	-0.179	-0.026
-318.026	-56.122	-0.101	0.045
-317.012	15.914	-0.146	0.115
-315.997	-200.000	0.001	0.032
-314.983	800.000	0.051	-0.142
-313.968	698.161	0.095	-0.250
-312.953	-56.365	0.373	0.166
-311.939	-60.822	-0.186	-0.079
-310.924	106.333	-0.082	0.097
-309.910	184.928	0.175	0.260
-308.895	-200.000	-0.046	-0.211
-307.880	800.000	-0.123	-0.392
-306.866	-95.496	-0.134	0.036
-305.851	-68.395	0.298	-0.116
-304.837	-24.739	0.232	-0.138
-303.822	292.787	-0.108	0.197
-302.807	157.436	0.109	-0.151
-301.793	-200.000	-0.018	-0.370
-300.778	-157.346	0.327	0.020
-299.764	-200.000	0.024	-0.200
-298.749	318.882	0.192	-0.364
-297.735	-28.256	0.027	0.016
-296.720	192.674	-0.094	0.142
-295.705	221.058	0.141	0.226
-294.691	-200.000	-0.011	-0.288
-293.676	73.826	-0.185	-0.194
-292.662	-38.955	-0.346	0.182
-291.647	-61.836	0.106	-0.045
-290.632	668.373	-0.026	0.067
-289.618	555.172	-0.095	-0.228
-288.603	800.000	0.093	0.318
-287.589	91.851	0.273	-0.308
-286.574	-200.000	0.002	0.144
-285.559	800.000	-0.056	-0.179
-284.545	-103.616	-0.092	-0.022
-283.530	-27.020	-0.168	-0.098
-282.516	24.590	0.113	-0.093
-281.501	-93.956	-0.152	-0.042
-280.486	73.080	0.272	0.285
-279.472	-5.406	-0.040	0.027
-278.457	3.792	-0.215	0.157
-277.443	46.671	0.134	-0.124
-276.428	800.000	-0.072	-0.272
-275.413	-85.523	-0.271	-0.085
-274.399	47.109	-0.211	0.196
-273.384	-35.863	-0.153	-0.083
-272.370	205.410	-0.111	0.173
-271.355	-200.000	0.001	-0.033
-270.340	83.038	-0.063	0.068
-269.326	-13.182	0.272	-0.177
-268.311	-200.000	0.003	0.014
-267.297	-200.000	0.001	0.537
-266.282	-30.766	-0.218	0.123
-265.267	-200.000	0.076	-0.360
-264.253	294.271	0.191	0.349
-263.238	800.000	0.079	-0.244
-262.224	-29.592	-0.099	-0.056
-261.209	-121.387	0.188	0.031
-260.195	128.066	0.114	0.145
-259.180	76.688	-0.128	0.136
-258.165	800.000	0.057	-0.173
-257.151	800.000	0.062	0.175
-256.136	-20.099	-0.088	0.054
-255.122	-6.248	-0.094	-0.064
-254.107	733.237	0.126	-0.338
-253.092	-90.225	0.166	0.048
-252.078	800.000	0.027	-0.087
-251.063	-200.000	0.003	-0.114
-250.049	796.864	-0.063	-0.174
-249.034	-200.000	-0.078	0.349
-248.019	-200.000	-0.004	-0.054
-247.005	169.533	-0.182	0.260
-245.990	-22.975	0.231	-0.139
-244.976	800.000	-0.089	-0.286
-243.961	80.186	-0.148	0.160
-242.946	104.853	0.229	0.270
-241.932	44.344	0.281	-0.258
-240.917	-5.452	-0.279	-0.191
-239.903	-143.113	0.263	0.025
-238.888	-200.000	0.044	-0.193
-237.873	93.899	-0.135	0.153
-236.859	218.790	-0.136	0.218
-235.844	157.694	-0.121	0.168
-234.830	800.000	-0.016	0.063
-233.815	-163.267	-0.403	0.019
-232.800	-152.488	-0.299	0.021
-231.786	-113.625	-0.326	-0.064
-230.771	736.875	0.072	-0.194
-229.757	215.902	-0.121	0.192
-228.742	-89.194	0.319	-0.094
-227.727	183.223	-0.116	0.170
-226.713	499.629	-0.103	0.238
-225.698	800.000	0.080	0.297
-224.684	219.380	-0.068	0.109
-223.669	-115.043	-0.219	0.042
-222.655	-126.619	0.029	-0.004
-221.640	174.401	-0.191	0.275
-220.625	800.000	0.058	0.243
-219.611	800.000	-0.060	0.202
-218.596	-27.192	0.070	-0.041
-217.582	48.859	-0.271	-0.254
-216.567	-200.000	0.002	-0.102
-215.552	-41.375	-0.076	0.039
-214.538	395.192	0.021	-0.044
-213.523	-200.000	0.014	-0.296
-212.509	-73.842	0.348	0.126
-211.494	-70.149	-0.253	-0.096
-210.479	-89.766	-0.529	-0.155
-209.465	-37.314	0.232	-0.124
-208.450	-90.358	0.184	0.053
-207.436	-34.024	0.275	0.151
-206.421	-62.145	0.311	0.130
-205.406	-57.493	0.126	-0.055
-204.392	31.779	0.165	0.141
-203.377	-200.000	0.014	0.119
-202.363	112.537	0.251	-0.303
-201.348	-200.000	0.002	0.032
-200.333	-135.679	0.405	0.048
-199.319	156.621	-0.224	-0.309
-198.304	-151.010	0.327	-0.025
-197.290	-200.000	-0.015	0.075
-196.275	-123.182	0.074	0.012
-195.260	352.509	0.071	-0.140
-194.246	-19.858	0.114	-0.070
-193.231	-193.266	0.234	-0.002
-192.217	-61.724	-0.200	0.084
-191.202	800.000	0.029	-0.115
-190.187	57.589	0.187	-0.183
-189.173	-146.100	0.154	0.014
-188.158	25.438	-0.157	0.130
-187.144	42.677	0.241	-0.219
-186.129	507.952	-0.145	0.336
-185.114	800.000	-0.040	-0.154
-184.100	-200.000	-0.006	-0.262
-183.085	-200.000	0.065	0.398
-182.071	120.057	0.087	0.108
-181.056	-200.000	0.042	0.450
-180.042	-36.966	0.181	-0.097
-179.027	-200.000	0.037	0.257
-178.012	146.519	-0.281	0.376
-176.998	-106.025	0.184	-0.041
-175.983	58.575	0.207	-0.203
-174.969	-82.582	0.184	0.059
-173.954	61.792	-0.198	-0.197
-172.939	-200.000	-0.041	0.357
-171.925	-200.000	0.028	-0.322
-170.910	-56.981	-0.163	0.072
-169.896	-13.785	0.208	-0.134
-168.881	800.000	0.087	-0.245
-167.866	-29.572	0.143	0.081
-166.852	-104.112	0.220	0.051
-165.837	541.743	0.090	-0.213
-164.823	-40.844	0.024	0.012
-163.808	372.116	0.074	-0.149
-162.793	-103.942	0.127	-0.029
-161.779	280.973	-0.171	0.304
-160.764	50.416	0.133	0.125
-159.750	80.432	0.164	0.176
-158.735	135.369	-0.066	0.086
-157.720	800.000	0.145	-0.424
-156.706	9.168	0.106	-0.080
-155.691	-58.753	-0.328	-0.141
-154.677	-157.571	-0.229	-0.014
-153.662	82.817	-0.044	-0.047
-152.647	-200.000	-0.076	0.348
-151.633	280.599	0.107	0.191
-150.618	626.075	-0.048	0.120
-149.604	27.700	-0.327	0.274
-148.589	-115.847	-0.238	0.044
-147.574	138.316	-0.154	0.202
-146.560	143.911	0.073	0.097
-145.545	-74.772	-0.336	0.120
-144.531	-182.172	0.054	-0.001
-143.516	197.740	-0.110	0.168
-142.502	-51.565	-0.171	0.080
-141.487	136.351	-0.267	0.347
-140.472	-151.972	-0.045	-0.003
-139.458	-149.808	-0.230	-0.018
-138.443	40.768	-0.102	0.092
-137.429	66.835	-0.241	0.244
-136.414	-33.960	0.121	0.066
-135.399	-80.339	0.339	-0.113
-134.385	-200.000	-0.039	0.204
-133.370	-83.852	-0.276	-0.088
-132.356	21.683	0.111	-0.090
-131.341	118.253	0.135	-0.165
-130.326	-96.035	0.271	0.072
-129.312	-200.000	-0.050	-0.368
-128.297	-200.000	-0.000	-0.289
-127.283	-34.534	-0.144	-0.078
-126.268	800.000	-0.069	0.218
-125.253	-135.353	-0.096	-0.011
-124.239	-200.000	0.016	0.215
-123.224	-142.385	0.238	0.023
-122.210	121.302	-0.075	-0.093
-121.195	-24.898	-0.165	-0.097
-120.180	250.536	-0.194	-0.328
-119.166	800.000	0.076	-0.282
-118.151	-112.399	-0.222	0.044
-117.137	-94.425	-0.314	-0.085
-116.122	35.126	0.178	-0.155
-115.107	710.390	-0.052	0.136
-114.093	-63.132	-0.264	-0.108
-113.078	-68.268	0.009	-0.004
-112.064	-105.967	-0.210	-0.047
-111.049	154.385	-0.236	0.322
-110.034	800.000	0.092	0.263
-109.020	800.000	0.087	0.301
-108.005	-200.000	0.007	0.189
-106.991	-200.000	-0.007	-0.052
-105.976	291.377	-0.056	-0.101
-104.962	-4.935	-0.314	-0.215
-103.947	-79.534	0.066	0.022
-102.932	168.262	0.181	-0.256
-101.918	-127.892	-0.153	0.022
-100.903	-135.570	-0.229	0.027
-99.889	654.563	-0.080	-0.203
-98.874	-116.441	0.256	0.047
-97.859	39.027	0.116	-0.103
-96.845	104.037	0.033	0.039
-95.830	-200.000	-0.023	-0.138
-94.816	-90.902	-0.225	0.064
-93.801	800.000	0.057	0.166
-92.786	-200.000	-0.031	-0.143
-91.772	-200.000	-0.062	0.274
-90.757	-200.000	-0.001	0.120
-89.743	-151.767	0.293	0.021
-88.728	470.480	0.091	0.203
-87.713	800.000	0.058	0.164
-86.699	-15.951	-0.210	-0.133
-85.684	-78.888	-0.104	0.035
-84.670	-24.346	0.227	-0.135
-83.655	-187.831	-0.101	-0.001
-82.640	-41.800	0.107	0.055
-81.626	197.063	-0.062	-0.093
-80.611	-200.000	-0.047	-0.313
-79.597	800.000	-0.146	0.510
-78.582	-0.794	-0.293	0.207
-77.567	124.598	-0.187	-0.234
-76.553	730.411	-0.069	0.183
-75.538	81.269	0.073	-0.078
-74.524	341.758	0.068	0.132
-73.509	800.000	0.059	0.235
-72.494	45.565	0.127	0.117
-71.480	-175.931	0.409	-0.011
-70.465	0.925	0.196	0.139
-69.451	-89.266	0.281	-0.082
-68.436	-164.853	-0.231	0.010
-67.422	236.199	-0.189	0.310
-66.407	-26.001	0.214	-0.125
-65.392	-200.000	0.090	0.461
-64.378	123.279	-0.037	-0.046
-63.363	-72.372	-0.240	-0.088
-62.349	-200.000	-0.050	0.272
-61.334	-47.396	-1.141	-0.551
-60.319	175.759	0.319	0.459
-59.305	-200.000	-0.119	-0.567
-58.290	305.447	0.532	0.982
-57.276	381.584	0.689	1.403
-56.261	-200.000	95.173	546.133
-55.246	500.211	1420.048	3249.999
-54.232	142.180	2654.524	3494.081
-53.217	101.230	2385.681	2755.416
-52.203	40.809	2127.987	1904.344
-51.188	35.986	2039.519	1780.651
-50.173	34.585	2020.573	1751.193
-49.159	47.796	2072.353	1919.250
-48.144	50.143	2091.753	1959.006
-47.130	36.802	2050.038	1797.125
-46.115	34.452	2038.160	1764.924
-45.100	34.326	2035.243	1761.165
-44.086	34.312	2033.301	1759.286
-43.071	34.288	2030.432	1756.514
-42.057	34.161	2027.932	1753.105
-41.042	34.344	2025.769	1752.853
-40.027	34.312	2024.115	1751.061
-39.013	34.329	2022.107	1749.406
-37.998	34.313	2020.575	1747.867
-36.984	34.382	2018.148	1746.330
-35.969	34.332	2016.355	1744.253
-34.954	34.405	2014.383	1743.146
-33.940	34.471	2012.242	1741.829
-32.925	34.446	2011.004	1740.457
-31.911	34.498	2009.381	1739.454
-30.896	34.461	2007.726	1737.614
-29.881	34.489	2006.139	1736.431
-28.867	34.455	2004.566	1734.688
-27.852	34.528	2002.851	1733.800
-26.838	34.510	2000.489	1731.521
-25.823	34.382	1999.212	1729.188
-24.809	34.511	1997.163	1728.519
-23.794	34.498	1995.215	1726.645
-22.779	34.430	1993.743	1724.690
-21.765	34.427	1991.964	1723.049
-20.750	34.456	1990.365	1721.869
-19.736	34.467	1988.649	1720.415
-18.721	34.576	1986.680	1719.623
-17.706	34.415	1985.559	1717.131
-16.692	34.470	1984.326	1716.495
-15.677	34.431	1982.882	1714.821
-14.663	34.486	1980.806	1713.455
-13.648	34.503	1979.492	1712.404
-12.633	34.433	1978.417	1710.775
-11.619	34.344	1977.191	1708.855
-10.604	34.450	1975.525	1708.291
-9.590	34.448	1974.032	1706.912
-8.575	34.393	1972.935	1705.405
-7.560	34.426	1971.494	1704.394
-6.546	34.430	1970.440	1703.447
-5.531	34.518	1968.465	1702.458
-4.517	34.526	1967.537	1701.656
-3.502	34.414	1966.721	1699.890
-2.487	34.425	1965.165	1698.570
-1.473	34.492	1964.548	1698.567
-0.458	34.612	1959.481	1695.182
0.556	33.057	1939.527	1667.441
1.571	28.636	1919.033	1610.981
2.586	24.115	1940.405	1588.545
3.600	22.539	1976.606	1603.714
4.615	21.698	1970.777	1591.201
5.629	16.760	1867.259	1464.894
6.644	6.874	1742.112	1286.455
7.659	1.260	1700.246	1210.731
8.673	0.746	1695.873	1203.418
9.688	0.669	1695.355	1202.335
10.702	0.582	1694.185	1200.707
11.717	0.523	1690.212	1197.311
12.731	1.055	1689.899	1201.201
13.746	7.698	1705.385	1265.111
14.761	15.728	1721.488	1341.227
15.775	17.853	1722.661	1358.964
16.790	17.169	1720.357	1351.582
17.804	16.294	1716.948	1341.833
18.819	15.262	1713.803	1331.074
19.834	14.586	1711.461	1323.773
20.848	14.290	1709.849	1320.062
21.863	14.082	1707.542	1316.517
22.877	13.744	1706.590	1312.991
23.892	13.622	1704.982	1310.671
24.907	13.498	1703.547	1308.473
25.921	13.471	1702.397	1307.260
26.936	13.474	1701.487	1306.470
27.950	13.535	1700.698	1306.231
28.965	13.553	1700.306	1305.957
29.980	13.616	1699.472	1305.692
30.994	13.643	1698.849	1305.316
32.009	13.675	1697.422	1304.353
33.023	13.752	1696.924	1304.464
34.038	13.776	1695.804	1303.674
35.053	13.676	1695.103	1302.234
36.067	13.732	1693.268	1301.150
37.082	13.613	1692.361	1299.406
38.096	13.702	1691.693	1299.471
39.111	13.672	1690.892	1298.507
40.126	13.724	1689.665	1297.854
41.140	13.638	1688.680	1296.311
42.155	13.555	1687.277	1294.476
43.169	13.449	1686.244	1292.739
44.184	13.480	1684.781	1291.746
45.199	13.470	1683.876	1290.855
46.213	13.437	1682.675	1289.563
47.228	13.475	1681.516	1288.859
48.242	13.452	1680.008	1287.409
49.257	13.564	1678.662	1287.133
50.271	13.532	1677.633	1285.985
51.286	13.555	1676.566	1285.231
52.301	13.556	1675.213	1284.087
53.315	13.567	1673.715	1282.908
54.330	13.566	1672.309	1281.713
55.344	13.479	1671.148	1280.036
56.359	13.498	1669.227	1278.601
57.374	13.429	1668.584	1277.461
58.388	13.606	1666.652	1277.230
59.403	13.500	1665.376	1275.327
60.417	13.362	1664.252	1273.292
61.432	13.415	1662.725	1272.419
62.447	13.452	1661.335	1271.525
63.461	13.406	1660.124	1270.131
64.476	13.382	1659.171	1269.104
65.490	13.451	1657.518	1268.259
66.505	13.404	1656.621	1267.102
67.520	13.350	1656.230	1266.276
68.534	13.459	1654.808	1265.908
69.549	13.440	1653.785	1264.866
70.563	13.445	1652.448	1263.776
71.578	13.377	1651.285	1262.253
72.593	13.461	1649.742	1261.601
73.607	13.401	1648.741	1260.267
74.622	13.386	1647.657	1259.212
75.636	13.357	1646.825	1258.243
76.651	13.327	1646.237	1257.456
77.666	13.287	1644.977	1256.079
78.680	13.286	1644.065	1255.268
79.695	13.287	1643.205	1254.502
80.709	13.461	1641.589	1254.479
81.724	13.410	1641.543	1253.948
82.739	13.483	1640.275	1253.417
83.753	13.489	1639.106	1252.459
84.768	13.546	1638.305	1252.171
85.782	13.542	1637.552	1251.449
86.797	13.483	1637.053	1250.511
87.812	13.602	1635.283	1249.949
88.826	13.642	1633.976	1249.145
89.841	13.574	1632.445	1247.351
90.855	13.494	1632.449	1246.636
91.870	13.482	1630.913	1245.264
92.884	13.650	1629.333	1245.208
93.899	13.566	1628.689	1243.974
94.914	13.584	1627.519	1243.109
95.928	13.656	1626.112	1242.465
96.943	13.691	1624.769	1241.589
97.957	13.600	1623.163	1239.571
98.972	13.648	1621.732	1238.731
99.987	13.572	1620.587	1237.177
101.001	13.605	1618.712	1235.883
102.016	13.510	1617.620	1234.232
103.030	13.619	1615.968	1233.676
104.045	13.557	1614.549	1232.017
105.060	13.592	1613.198	1231.137
106.074	13.597	1611.496	1229.768
107.089	13.536	1610.226	1228.235
108.103	13.476	1609.048	1226.788
109.118	13.472	1606.673	1224.838
110.133	13.453	1605.701	1223.848
111.147	13.445	1604.332	1222.636
112.162	13.436	1603.444	1221.785
113.176	13.534	1601.358	1220.814
114.191	13.526	1600.094	1219.681
115.206	13.541	1599.320	1219.096
116.220	13.595	1597.681	1218.132
117.235	13.533	1596.360	1216.560
118.249	13.541	1594.864	1215.374
119.264	13.499	1593.778	1214.133
120.279	13.519	1592.196	1212.966
121.293	13.538	1590.263	1211.522
122.308	13.468	1589.244	1210.125
123.322	13.529	1587.315	1209.000
124.337	13.511	1585.894	1207.675
125.352	13.497	1584.742	1206.592
126.366	13.455	1583.949	1205.573
127.381	13.484	1582.656	1204.697
128.395	13.472	1581.544	1203.655
129.410	13.500	1579.708	1202.351
130.424	13.523	1578.413	1201.429
131.439	13.590	1577.409	1201.046
132.454	13.574	1575.716	1199.535
133.468	13.635	1574.227	1198.737
134.483	13.656	1572.802	1197.697
135.497	13.546	1571.710	1195.961
136.512	13.595	1570.516	1195.302
137.527	13.680	1568.723	1194.445
138.541	13.608	1567.764	1193.093
139.556	13.569	1566.507	1191.749
140.570	13.703	1564.520	1191.094
141.585	13.753	1562.957	1190.159
142.600	13.677	1562.315	1189.019
143.614	13.766	1560.614	1188.256
144.629	13.751	1559.824	1187.444
145.643	13.784	1558.462	1186.537
146.658	13.725	1557.063	1184.943
147.673	13.791	1555.376	1184.022
148.687	13.778	1553.665	1182.527
149.702	13.752	1552.307	1181.201
150.716	13.651	1550.661	1179.126
151.731	13.774	1549.510	1179.023
152.746	13.666	1548.064	1177.052
153.760	13.758	1546.218	1176.197
154.775	13.685	1545.185	1174.789
155.789	13.808	1544.062	1174.699
156.804	13.815	1542.359	1173.351
157.819	13.821	1541.328	1172.508
158.833	13.897	1540.283	1172.144
159.848	13.905	1538.333	1170.611
160.862	13.885	1537.731	1169.908
161.877	14.002	1536.268	1169.515
162.892	13.914	1535.238	1168.011
163.906	13.822	1533.980	1166.305
164.921	13.822	1532.362	1164.972
165.935	13.894	1531.380	1164.625
166.950	13.802	1530.702	1163.364
167.964	13.906	1529.004	1162.693
168.979	13.937	1527.927	1161.992
169.994	13.902	1526.950	1160.899
171.008	13.844	1526.114	1159.755
172.023	13.976	1524.630	1159.446
173.037	13.992	1523.406	1158.529
174.052	13.957	1522.095	1157.181
175.067	13.954	1521.497	1156.608
176.081	13.935	1520.278	1155.440
177.096	13.883	1518.531	1153.655
178.110	13.940	1517.528	1153.182
179.125	13.926	1516.264	1152.021
180.140	13.931	1515.284	1151.213
181.154	13.918	1514.846	1150.688
182.169	14.015	1513.032	1149.881
183.183	14.028	1511.777	1148.913
184.198	14.037	1510.909	1148.214
185.213	14.222	1508.805	1147.788
186.227	14.158	1508.567	1147.065
187.242	14.139	1507.190	1145.785
188.256	14.235	1506.378	1145.731
189.271	14.244	1504.799	1144.492
190.286	14.303	1503.534	1143.833
191.300	14.222	1503.201	1142.919
192.315	14.086	1501.962	1140.944
193.329	14.015	1500.939	1139.580
194.344	14.027	1499.538	1138.497
195.359	14.031	1498.363	1137.529
196.373	14.104	1497.925	1137.594
197.388	14.159	1496.446	1136.751
198.402	14.192	1495.384	1136.066
199.417	14.215	1494.363	1135.351
200.432	14.238	1493.586	1134.816
201.446	14.297	1492.412	1134.226
202.461	14.372	1491.101	1133.634
203.475	14.461	1490.054	1133.343
204.490	14.461	1488.517	1132.078
205.504	14.457	1487.313	1131.035
206.519	14.421	1486.490	1130.060
207.534	14.387	1485.719	1129.149
208.548	14.346	1484.262	1127.665
209.563	14.337	1483.287	1126.760
210.577	14.349	1482.665	1126.271
211.592	14.366	1481.071	1125.075
212.607	14.405	1480.532	1124.826
213.621	14.468	1479.933	1124.696
214.636	14.488	1478.788	1123.864
215.650	14.551	1477.779	1123.420
216.665	14.474	1476.748	1122.020
217.680	14.553	1476.160	1122.009
218.694	14.498	1475.379	1120.940
219.709	14.571	1474.477	1120.651
220.723	14.669	1473.153	1120.204
221.738	14.690	1472.161	1119.491
222.753	14.559	1471.575	1118.069
223.767	14.501	1470.625	1116.854
224.782	14.639	1469.539	1116.854
225.796	14.570	1468.855	1115.774
226.811	14.632	1468.167	1115.570
227.826	14.722	1467.050	1115.226
228.840	14.715	1466.244	1114.468
229.855	14.690	1465.278	1113.466
230.869	14.674	1464.238	1112.473
231.884	14.675	1463.325	1111.684
232.899	14.666	1462.155	1110.634
233.913	14.643	1460.731	1109.307
234.928	14.724	1459.547	1108.845
235.942	14.620	1458.980	1107.628
236.957	14.718	1457.202	1106.829
237.972	14.684	1456.173	1105.723
238.986	14.722	1454.577	1104.666
240.001	14.604	1454.687	1103.871
241.015	14.747	1452.863	1103.333
242.030	14.730	1452.144	1102.577
243.045	14.709	1451.339	1101.728
244.059	14.843	1450.066	1101.548
245.074	14.840	1449.320	1100.867
246.088	14.857	1448.588	1100.325
247.103	14.917	1447.544	1099.827
248.117	14.847	1446.967	1098.833
249.132	14.926	1446.039	1098.546
250.147	15.043	1445.181	1098.570
251.161	15.072	1444.856	1098.413
252.176	15.002	1444.192	1097.350
253.190	15.147	1442.735	1097.102
254.205	15.111	1441.914	1096.139
255.220	15.141	1441.047	1095.585
256.234	15.210	1440.283	1095.358
257.249	15.227	1439.604	1094.852
258.263	15.126	1439.096	1093.711
259.278	15.075	1438.353	1092.716
260.293	15.144	1436.892	1091.957
261.307	15.333	1435.748	1092.222
262.322	15.315	1434.935	1091.391
263.336	15.320	1434.493	1090.994
264.351	15.367	1433.288	1090.285
265.366	15.488	1432.209	1090.155
266.380	15.374	1431.689	1088.919
267.395	15.331	1430.258	1087.454
268.409	15.432	1429.596	1087.514
269.424	15.370	1428.708	1086.339
270.439	15.344	1427.580	1085.214
271.453	15.349	1426.800	1084.557
272.468	15.390	1425.817	1083.979
273.482	15.393	1425.183	1083.420
274.497	15.498	1424.235	1083.284
275.512	15.393	1423.141	1081.679
276.526	15.427	1422.058	1080.976
277.541	15.409	1421.695	1080.492
278.555	15.479	1420.961	1080.286
279.570	15.443	1420.169	1079.360
280.585	15.424	1418.565	1077.920
281.599	15.546	1418.080	1078.241
282.614	15.550	1416.920	1077.288
283.628	15.418	1416.110	1075.731
284.643	15.623	1414.724	1075.895
285.657	15.537	1413.762	1074.523
286.672	15.728	1412.538	1074.716
287.687	15.653	1411.199	1073.126
288.701	15.623	1410.639	1072.414
289.716	15.618	1409.828	1071.668
290.730	15.721	1408.837	1071.475
291.745	15.678	1408.162	1070.592
292.760	15.670	1407.452	1069.909
293.774	15.657	1406.094	1068.696
294.789	15.694	1404.999	1068.006
295.803	15.690	1404.499	1067.506
296.818	15.816	1403.299	1067.298
297.833	15.696	1402.437	1065.787
298.847	15.674	1401.627	1064.942
299.862	15.737	1400.531	1064.411
300.876	15.775	1399.271	1063.600
301.891	15.820	1398.348	1063.088
302.906	15.873	1397.638	1062.791
303.920	15.829	1397.134	1062.033
304.935	15.823	1396.207	1061.199
305.949	15.913	1395.327	1061.002
306.964	15.938	1394.515	1060.449
307.979	15.946	1393.724	1059.804
308.993	15.947	1393.053	1059.206
310.008	16.010	1391.972	1058.685
311.022	15.963	1390.760	1057.375
312.037	16.043	1389.825	1057.073
313.052	15.959	1388.942	1055.779
314.066	15.978	1387.853	1054.981
315.081	16.031	1387.114	1054.656
316.095	16.089	1386.021	1054.096
317.110	15.989	1384.982	1052.585
318.125	15.947	1384.113	1051.572
319.139	16.005	1382.943	1050.949
320.154	16.038	1382.048	1050.380
321.168	16.101	1380.552	1049.547
322.183	16.063	1379.634	1048.516
323.197	16.086	1378.720	1047.872
324.212	16.072	1378.102	1047.224
325.227	16.082	1376.971	1046.333
326.241	16.108	1376.187	1045.806
327.256	16.106	1375.192	1044.946
328.270	16.142	1374.402	1044.475
329.285	16.098	1373.875	1043.712
330.300	16.135	1372.847	1043.067
331.314	16.139	1371.664	1042.099
332.329	16.090	1371.017	1041.215
333.343	16.166	1369.807	1040.668
334.358	16.213	1369.047	1040.290
335.373	16.285	1368.141	1039.952
336.387	16.282	1367.368	1039.256
337.402	16.290	1366.412	1038.490
338.416	16.397	1365.659	1038.479
339.431	16.359	1365.599	1038.109
340.446	16.339	1365.057	1037.483
341.460	16.402	1363.717	1036.762
342.475	16.358	1363.003	1035.854
343.489	16.374	1361.934	1035.049
344.504	16.388	1361.062	1034.381
345.519	16.536	1359.959	1034.356
346.533	16.465	1359.248	1033.290
347.548	16.489	1358.298	1032.620
348.562	16.636	1357.172	1032.574
349.577	16.603	1356.346	1031.652
350.592	16.604	1355.774	1031.128
351.606	16.512	1354.714	1029.675
352.621	16.610	1353.373	1029.159
353.635	16.502	1352.738	1027.926
354.650	16.488	1351.829	1027.059
355.665	16.553	1350.987	1026.726
356.679	16.593	1349.777	1025.959
357.694	16.500	1348.903	1024.639
358.708	16.510	1347.826	1023.793
359.723	16.584	1346.542	1023.173
360.738	16.637	1345.618	1022.698
361.752	16.694	1344.429	1022.050
362.767	16.754	1343.233	1021.411
363.781	16.715	1342.346	1020.415
364.796	16.643	1341.943	1019.580
365.810	16.636	1341.586	1019.177
366.825	16.674	1340.543	1018.524
367.840	16.689	1339.860	1018.004
368.854	16.745	1339.302	1017.828
369.869	16.842	1338.263	1017.528
370.883	16.883	1337.751	1017.301
371.898	16.883	1337.032	1016.660
372.913	16.891	1336.037	1015.862
373.927	16.929	1334.933	1015.161
374.942	16.850	1334.263	1014.089
375.956	16.832	1333.987	1013.678
376.971	17.017	1332.625	1013.664
377.986	16.954	1332.195	1012.869
379.000	17.028	1331.278	1012.525
380.015	16.911	1330.411	1011.076
381.029	17.029	1329.851	1011.267
382.044	17.142	1328.738	1011.000
383.059	16.952	1328.767	1009.804
384.073	17.042	1327.835	1009.543
385.088	17.083	1327.009	1009.069
386.102	17.147	1326.066	1008.642
387.117	17.106	1325.474	1007.860
388.132	17.078	1324.681	1006.998
389.146	17.157	1323.873	1006.765
390.161	17.202	1322.909	1006.209
391.175	17.036	1322.250	1004.637
392.190	17.174	1321.670	1004.921
393.205	17.183	1320.803	1004.226
394.219	17.187	1319.386	1003.087
395.234	17.217	1318.296	1002.343
396.248	17.226	1316.723	1001.113
397.263	17.192	1315.460	999.864
398.278	17.214	1314.357	999.070
399.292	17.268	1312.842	998.145
400.307	17.218	1312.245	997.312
401.321	17.179	1311.819	996.667
402.336	17.200	1310.239	995.501
403.350	17.146	1309.525	994.559
404.365	17.136	1308.960	993.982
405.380	17.327	1307.657	994.022
406.394	17.347	1306.716	993.335
407.409	17.369	1305.783	992.663
408.423	17.357	1305.279	992.122
409.438	17.427	1304.406	991.780
410.453	17.438	1303.806	991.301
411.467	17.496	1302.837	990.815
412.482	17.460	1302.406	990.187
413.496	17.599	1301.610	990.303
414.511	17.564	1300.903	989.475
415.526	17.503	1300.369	988.626
416.540	17.531	1299.854	988.308
417.555	17.708	1298.478	988.204
418.569	17.582	1298.002	987.023
419.584	17.613	1297.487	986.725
420.599	17.738	1296.700	986.760
421.613	91.324	1346.740	1446.084
422.628	89.931	1353.979	1446.154
