DTS Sentinel unit serial number:	SN413079Multiplexer serial number:	ORYXHardware model number:	OX4-SRSoftware version number:	ORYX F/W v4.00 Oryx Data Collector v3.7.2.0data status	okinstallation	princeton_trtdifferential loss correction	single-endedforward channel	channel 4reverse channel	N/Adate	2019/09/12time	18:22:19forward acquisition time	15.00reverse acquisition time	0.00gamma	496.2192k internal	0.2307k external	0.2307temperature offset calibration	1.0136default loss term (dB/km)	0.3790temperature slope calibration	1.0000multiplexer offset coefficient	1.0000multiplexer slope coefficient	1.0000fibre end	0.00T internal ref (°C)	33.37T ext. ref 1 (°C)	2.98T ext. ref 2 (°C)	27.98length (m)	temperature (°C)	Stokes	anti-Stokes-747.200	-31.903	0.209	0.119
-746.185	-200.000	-0.156	0.788
-745.171	123.934	0.316	-0.404
-744.156	-185.533	0.938	0.015
-743.142	44.082	-0.307	-0.286
-742.127	-20.183	-0.624	0.391
-741.112	-12.876	-0.133	-0.088
-740.098	20.195	0.725	-0.595
-739.083	800.000	0.171	-0.504
-738.069	-40.711	-0.407	-0.214
-737.054	-78.463	-0.625	-0.218
-736.039	631.417	0.153	-0.395
-735.025	-51.104	-0.186	-0.089
-734.010	800.000	-0.177	-0.511
-732.996	203.389	0.135	-0.213
-731.981	-79.476	-0.967	-0.332
-730.966	212.675	-0.257	-0.412
-729.952	-152.031	-0.324	-0.024
-728.937	165.061	-0.354	-0.508
-727.923	-89.310	-0.282	0.084
-726.908	-200.000	0.006	-0.456
-725.894	115.265	-0.333	-0.413
-724.879	513.796	-0.145	0.343
-723.864	-65.399	0.177	0.072
-722.850	-200.000	0.104	0.663
-721.835	-107.999	-0.740	0.163
-720.821	2.241	-0.599	0.440
-719.806	31.233	0.506	0.441
-718.791	44.396	0.242	-0.226
-717.777	-53.862	0.411	-0.191
-716.762	-200.000	-0.016	0.750
-715.748	75.174	-0.637	0.683
-714.733	-200.000	-0.117	0.778
-713.718	-116.919	0.386	-0.072
-712.704	41.702	0.653	0.601
-711.689	-100.610	-0.790	-0.198
-710.675	299.577	-0.100	-0.187
-709.660	-200.000	-0.017	0.222
-708.645	127.850	-0.126	0.162
-707.631	-11.521	-0.895	-0.598
-706.616	-36.882	-0.974	-0.531
-705.602	44.338	-0.856	0.798
-704.587	-200.000	-0.024	-0.433
-703.572	-103.052	-0.343	0.082
-702.558	-4.479	0.487	0.341
-701.543	800.000	0.131	0.494
-700.529	-200.000	-0.115	0.701
-699.514	644.257	-0.428	-1.109
-698.499	164.610	0.540	0.774
-697.485	-116.327	0.444	0.083
-696.470	-106.717	-0.627	-0.141
-695.456	-119.299	0.719	-0.127
-694.441	-200.000	0.107	0.523
-693.426	-138.677	-0.469	0.052
-692.412	264.999	-0.077	-0.136
-691.397	172.909	0.455	-0.665
-690.383	-119.678	0.655	-0.115
-689.368	336.821	-0.379	-0.748
-688.354	19.174	-0.880	-0.717
-687.339	-200.000	0.313	0.000
-686.324	41.097	-0.819	-0.751
-685.310	82.470	0.180	-0.198
-684.295	154.816	0.316	0.440
-683.281	58.549	0.324	-0.323
-682.266	8.970	-0.554	-0.424
-681.251	800.000	-0.056	-0.222
-680.237	-200.000	-0.061	-0.578
-679.222	93.191	0.152	0.174
-678.208	-200.000	0.100	-1.189
-677.193	-17.042	0.812	0.520
-676.178	800.000	0.054	-0.163
-675.164	147.156	0.310	-0.423
-674.149	664.473	0.225	-0.590
-673.135	-200.000	0.066	0.329
-672.120	-10.680	-0.181	0.122
-671.105	-36.490	-0.093	0.051
-670.091	57.037	0.577	-0.571
-669.076	248.276	0.448	-0.769
-668.062	-200.000	-0.075	0.461
-667.047	-200.000	-0.087	-0.468
-666.032	-200.000	-0.002	0.185
-665.018	-40.447	0.623	0.328
-664.003	-200.000	-0.120	0.880
-662.989	-130.179	-0.819	-0.113
-661.974	-140.438	0.722	0.076
-660.959	-47.426	-0.550	0.271
-659.945	-99.126	1.189	-0.305
-658.930	311.972	-0.234	0.445
-657.916	392.607	0.261	0.550
-656.901	52.096	0.422	-0.408
-655.886	-200.000	0.013	0.254
-654.872	-200.000	-0.058	-0.413
-653.857	-84.643	0.544	-0.174
-652.843	78.109	0.661	-0.714
-651.828	31.346	-0.112	-0.097
-650.814	45.058	-0.191	0.178
-649.799	186.851	0.170	0.256
-648.784	-105.602	0.557	0.128
-647.770	-143.811	0.546	0.052
-646.755	22.907	0.418	-0.347
-645.741	-124.882	1.312	-0.205
-644.726	440.236	0.165	0.365
-643.711	-55.752	-0.220	-0.100
-642.697	-42.222	-0.345	0.179
-641.682	0.487	0.555	0.402
-640.668	-159.167	-0.260	-0.015
-639.653	-171.123	-0.261	0.009
-638.638	-38.757	0.447	-0.239
-637.624	158.115	-0.167	-0.235
-636.609	-200.000	-0.060	-0.570
-635.595	-3.189	-0.402	-0.283
-634.580	102.440	-0.522	-0.618
-633.565	31.478	0.326	0.284
-632.551	-140.515	0.820	-0.086
-631.536	122.282	-0.526	-0.665
-630.522	-114.165	-0.964	-0.189
-629.507	-200.000	-0.172	0.000
-628.492	107.430	-0.503	0.606
-627.478	-109.414	0.057	-0.012
-626.463	-32.650	-0.454	-0.256
-625.449	228.631	0.283	-0.467
-624.434	-53.087	-0.127	-0.059
-623.419	42.086	-0.863	-0.793
-622.405	219.943	-0.289	0.468
-621.390	-128.582	-0.234	-0.034
-620.376	329.667	0.271	0.529
-619.361	506.567	-0.373	-0.874
-618.346	800.000	0.042	0.158
-617.332	800.000	-0.292	-1.241
-616.317	-64.473	0.398	-0.164
-615.303	-200.000	0.031	0.675
-614.288	800.000	-0.135	0.488
-613.273	-80.191	-0.675	-0.229
-612.259	-129.322	0.813	0.114
-611.244	440.159	0.169	-0.374
-610.230	-200.000	0.132	-0.789
-609.215	440.753	-0.518	-1.145
-608.201	-73.474	-0.436	-0.161
-607.186	352.447	0.124	0.249
-606.171	-112.623	0.455	-0.092
-605.157	157.471	-0.523	-0.732
-604.142	-105.473	0.390	0.090
-603.128	800.000	-0.188	0.749
-602.113	-40.403	0.467	-0.245
-601.098	-111.116	0.472	-0.098
-600.084	73.959	0.347	0.368
-599.069	800.000	0.096	0.317
-598.055	-78.574	-0.136	-0.047
-597.040	16.827	0.057	-0.046
-596.025	-200.000	-0.028	-0.617
-595.011	800.000	-0.108	0.391
-593.996	-80.613	-0.411	-0.138
-592.982	-200.000	0.006	-0.508
-591.967	-19.918	-0.144	0.090
-590.952	-34.706	0.251	-0.139
-589.938	-200.000	0.210	0.001
-588.923	-162.631	0.583	-0.029
-587.909	800.000	0.099	0.287
-586.894	-97.230	-0.204	0.054
-585.879	0.068	-0.319	-0.230
-584.865	13.461	0.678	0.531
-583.850	-33.979	0.567	-0.315
-582.836	1.856	0.499	0.364
-581.821	-200.000	-0.007	-0.335
-580.806	800.000	0.167	-0.541
-579.792	-76.588	-0.755	-0.268
-578.777	2.871	0.483	-0.354
-577.763	-47.987	-0.744	0.364
-576.748	45.357	-0.295	0.275
-575.733	610.571	0.416	-1.050
-574.719	97.110	0.340	-0.394
-573.704	-81.506	0.479	0.159
-572.690	-69.218	-0.718	-0.279
-571.675	98.244	0.129	-0.150
-570.661	-193.200	0.491	0.004
-569.646	800.000	-0.144	0.535
-568.631	634.160	-0.190	0.486
-567.617	238.390	-0.294	-0.494
-566.602	31.742	-0.330	0.287
-565.588	-56.241	-0.480	-0.216
-564.573	741.043	0.281	0.762
-563.558	-131.809	-0.557	-0.074
-562.544	-72.182	0.368	0.138
-561.529	182.681	0.244	0.364
-560.515	-126.733	0.297	0.044
-559.500	-200.000	-1.493	-0.006
-558.485	278.386	-0.300	0.540
-557.471	-145.628	-0.900	-0.081
-556.456	-49.267	-0.869	-0.419
-555.442	209.389	0.587	0.929
-554.427	-200.000	0.016	0.567
-553.412	82.565	-0.241	-0.264
-552.398	127.399	0.310	-0.397
-551.383	94.515	0.185	0.212
-550.369	-4.436	0.538	0.375
-549.354	89.575	-0.324	-0.365
-548.339	-79.827	0.293	-0.100
-547.325	-200.000	0.015	0.552
-546.310	-45.433	0.668	-0.334
-545.296	-200.000	-0.114	-0.615
-544.281	-8.268	-0.240	0.163
-543.266	-63.614	-0.460	-0.191
-542.252	209.864	-0.384	0.608
-541.237	-200.000	-0.024	0.182
-540.223	-88.746	1.095	0.328
-539.208	681.337	0.144	-0.377
-538.193	250.782	-0.123	0.210
-537.179	-200.000	-0.056	-0.372
-536.164	71.207	0.392	-0.410
-535.150	443.390	0.363	-0.804
-534.135	-52.970	-0.407	-0.189
-533.121	-35.026	0.203	0.112
-532.106	321.426	0.405	-0.777
-531.091	112.492	0.284	0.347
-530.077	109.964	0.705	0.854
-529.062	591.899	-0.113	0.281
-528.048	236.057	0.216	-0.360
-527.033	26.731	-0.350	-0.295
-526.018	593.687	0.199	-0.496
-525.004	-200.000	-0.026	-0.582
-523.989	53.977	-0.465	-0.450
-522.975	-61.439	0.274	0.116
-521.960	-200.000	0.019	-0.430
-520.945	268.320	0.236	-0.417
-519.931	106.957	-0.050	0.060
-518.916	-77.860	0.179	0.062
-517.902	53.347	-0.117	-0.113
-516.887	230.745	0.191	0.314
-515.872	-200.000	0.056	1.184
-514.858	-9.629	0.155	-0.104
-513.843	58.468	-0.519	-0.514
-512.829	-173.378	-1.046	0.032
-511.814	-185.666	-0.471	0.007
-510.799	800.000	0.292	1.041
-509.785	288.440	-0.240	0.438
-508.770	800.000	-0.122	-0.426
-507.756	-167.753	0.111	-0.004
-506.741	381.498	0.282	0.583
-505.726	-130.318	0.066	0.009
-504.712	720.362	0.143	-0.384
-503.697	-18.600	0.694	-0.436
-502.683	800.000	0.161	0.563
-501.668	800.000	-0.167	-0.727
-500.653	-200.000	0.000	-0.722
-499.639	-40.443	0.453	-0.237
-498.624	-200.000	-0.021	-0.124
-497.610	-200.000	0.025	-0.252
-496.595	28.024	-0.337	0.286
-495.581	266.975	-0.388	0.683
-494.566	-200.000	0.010	0.164
-493.551	-23.255	-0.205	0.124
-492.537	-200.000	-0.187	1.552
-491.522	12.679	-0.578	-0.450
-490.508	-55.184	-0.015	-0.007
-489.493	800.000	-0.117	0.333
-488.478	-20.695	-0.483	-0.298
-487.464	-129.502	0.835	0.116
-486.449	-88.502	0.624	0.187
-485.435	800.000	-0.134	0.526
-484.420	12.603	-0.393	0.305
-483.405	-61.910	-0.274	0.115
-482.391	-154.826	0.963	-0.064
-481.376	-200.000	0.052	0.357
-480.362	-113.596	-0.433	0.085
-479.347	-169.474	-0.364	-0.013
-478.332	281.985	0.264	-0.476
-477.318	800.000	0.258	-0.908
-476.303	-200.000	-0.065	0.776
-475.289	283.604	-0.140	0.253
-474.274	800.000	0.051	-0.158
-473.259	389.278	-0.358	-0.746
-472.245	-200.000	0.098	0.825
-471.230	-106.139	0.284	-0.064
-470.216	-64.722	0.136	0.056
-469.201	-138.006	-0.360	0.040
-468.186	-60.758	0.356	0.152
-467.172	-43.846	0.233	-0.118
-466.157	-77.633	-0.737	-0.257
-465.143	139.199	0.196	-0.260
-464.128	-27.955	-0.088	0.051
-463.113	99.316	-0.884	1.028
-462.099	-77.305	0.544	-0.190
-461.084	-108.837	-0.007	0.001
-460.070	-200.000	0.019	-0.416
-459.055	-89.480	-1.346	-0.398
-458.040	324.873	-0.018	-0.034
-457.026	800.000	-0.200	0.869
-456.011	-0.366	0.439	-0.314
-454.997	-39.991	-0.697	-0.365
-453.982	-200.000	-0.007	0.349
-452.968	-200.000	0.026	-0.462
-451.953	-42.050	-0.706	0.363
-450.938	-200.000	-0.008	0.543
-449.924	-29.545	0.191	0.110
-448.909	-200.000	0.001	-0.305
-447.895	-131.418	-0.217	-0.029
-446.880	-67.401	-0.184	-0.073
-445.865	-64.474	0.287	0.117
-444.851	486.871	0.113	0.259
-443.836	457.385	0.261	0.584
-442.822	800.000	0.041	-0.128
-441.807	800.000	0.059	-0.185
-440.792	186.795	-0.370	-0.554
-439.778	-69.851	-0.108	-0.041
-438.763	-91.680	0.505	-0.145
-437.749	162.048	0.254	0.358
-436.734	-127.784	-0.261	0.038
-435.719	-135.720	0.748	-0.089
-434.705	-55.205	-0.057	0.026
-433.690	343.553	-0.016	-0.031
-432.676	9.780	0.398	0.303
-431.661	130.925	0.190	-0.245
-430.646	-200.000	0.083	-0.736
-429.632	124.294	0.294	-0.371
-428.617	-200.000	-0.016	-0.255
-427.603	21.971	0.535	-0.438
-426.588	800.000	-0.150	0.483
-425.573	80.926	-0.161	0.174
-424.559	255.930	-0.141	0.243
-423.544	-200.000	-0.054	0.603
-422.530	-162.565	0.495	0.025
-421.515	-67.246	0.832	0.329
-420.500	-177.010	-0.729	0.018
-419.486	183.331	0.533	0.790
-418.471	36.016	0.130	0.115
-417.457	-2.819	-0.074	0.052
-416.442	-42.764	-0.698	0.357
-415.428	110.757	0.224	0.271
-414.413	-200.000	-0.019	-0.337
-413.398	-42.027	-0.656	0.337
-412.384	-57.506	0.162	-0.071
-411.369	-154.461	-0.500	0.034
-410.355	-67.693	-0.490	0.192
-409.340	183.356	-0.302	0.448
-408.325	-35.804	0.189	-0.103
-407.311	-80.026	0.052	0.018
-406.296	28.357	0.468	0.397
-405.282	51.114	0.553	0.526
-404.267	-111.128	0.885	0.182
-403.252	245.135	-0.373	-0.630
-402.238	43.755	0.348	-0.320
-401.223	301.700	0.308	-0.572
-400.209	-200.000	0.042	0.503
-399.194	69.902	-0.252	0.260
-398.179	177.358	0.502	-0.733
-397.165	-200.000	0.140	-1.113
-396.150	-123.450	0.420	0.067
-395.136	-102.555	-0.176	0.042
-394.121	500.069	0.135	-0.313
-393.106	-61.305	0.261	-0.110
-392.092	229.072	0.483	0.791
-391.077	-77.418	0.816	0.284
-390.063	-136.806	-1.100	0.127
-389.048	-200.000	-0.114	-0.552
-388.033	-200.000	-0.031	0.371
-387.019	-200.000	-0.002	-0.015
-386.004	800.000	0.181	0.602
-384.990	132.192	-0.426	-0.550
-383.975	-106.179	-0.560	-0.126
-382.960	603.087	0.087	0.216
-381.946	215.243	0.396	0.630
-380.931	-100.607	-0.230	0.057
-379.917	-80.103	0.045	0.015
-378.902	-200.000	0.267	-1.507
-377.888	800.000	-0.180	0.736
-376.873	-89.516	0.479	0.141
-375.858	800.000	0.054	0.152
-374.844	168.543	-0.153	-0.218
-373.829	-112.254	-0.058	0.012
-372.815	337.334	0.379	-0.738
-371.800	-67.791	-0.388	0.152
-370.785	-42.252	0.252	0.129
-369.771	-102.257	0.418	-0.101
-368.756	800.000	0.088	0.295
-367.742	-81.305	-0.917	0.303
-366.727	16.214	0.614	-0.485
-365.712	800.000	0.155	-0.659
-364.698	83.175	-0.383	-0.417
-363.683	800.000	0.166	-0.467
-362.669	150.548	0.629	0.856
-361.654	-26.293	-0.676	-0.397
-360.639	-101.095	-0.422	0.104
-359.625	-200.000	0.004	-0.229
-358.610	-72.543	-0.415	-0.154
-357.596	45.645	0.236	-0.219
-356.581	800.000	0.078	0.296
-355.566	-39.732	0.007	0.004
-354.552	-24.318	0.464	0.277
-353.537	15.475	0.184	0.145
-352.523	-200.000	-0.213	1.031
-351.508	405.368	-0.697	1.471
-350.493	-200.000	-0.168	0.877
-349.479	-200.000	0.122	0.579
-348.464	-187.453	0.327	0.004
-347.450	-80.894	0.331	-0.110
-346.435	-200.000	-0.052	-0.511
-345.420	-102.276	1.002	-0.241
-344.406	-200.000	0.030	-0.175
-343.391	-54.257	-0.728	-0.331
-342.377	-200.000	-0.690	0.001
-341.362	117.305	0.166	0.204
-340.348	180.002	0.259	-0.380
-339.333	-69.944	-0.593	0.226
-338.318	-126.993	-0.543	0.080
-337.304	-113.151	0.345	0.068
-336.289	800.000	0.135	-0.557
-335.275	-200.000	-0.014	0.339
-334.260	-200.000	0.104	0.838
-333.245	-81.823	0.292	0.096
-332.231	-6.250	-0.391	-0.267
-331.216	800.000	0.290	-0.842
-330.202	154.700	-0.607	0.835
-329.187	124.759	-0.259	0.327
-328.172	-9.417	-0.067	0.045
-327.158	197.002	-0.035	0.053
-326.143	800.000	0.266	-0.787
-325.129	297.076	0.151	-0.278
-324.114	569.319	0.184	0.446
-323.099	-81.972	0.384	0.126
-322.085	-200.000	-0.126	-0.729
-321.070	-62.313	0.265	-0.110
-320.056	28.725	0.536	-0.454
-319.041	-40.231	-0.308	-0.160
-318.026	48.547	-0.501	0.469
-317.012	53.350	-0.854	0.819
-315.997	-76.569	-0.459	0.161
-314.983	130.936	0.308	-0.395
-313.968	-92.864	-0.511	0.143
-312.953	800.000	-0.067	-0.228
-311.939	585.591	0.361	-0.888
-310.924	-123.584	-0.578	0.092
-309.910	800.000	-0.083	-0.327
-308.895	665.644	-0.053	0.138
-307.880	-200.000	0.039	-0.366
-306.866	59.392	-0.378	0.373
-305.851	-73.737	0.970	0.353
-304.837	54.366	0.168	0.162
-303.822	-20.964	-0.331	-0.203
-302.807	19.468	0.233	0.188
-301.793	-20.090	0.445	0.275
-300.778	-149.971	-0.170	0.013
-299.764	-173.725	0.297	-0.009
-298.749	800.000	-0.156	0.535
-297.735	346.334	0.140	-0.276
-296.720	115.220	-0.512	-0.624
-295.705	176.908	0.344	-0.501
-294.691	49.225	-0.122	-0.115
-293.676	35.751	-0.438	0.384
-292.662	79.671	0.275	-0.295
-291.647	69.852	0.360	-0.371
-290.632	69.479	-0.474	0.488
-289.618	-200.000	0.065	0.355
-288.603	180.849	-0.417	-0.612
-287.589	-166.856	-1.041	-0.043
-286.574	-67.435	0.819	0.321
-285.559	-28.245	-0.640	-0.369
-284.545	-24.839	0.290	0.172
-283.530	-104.563	-0.470	-0.108
-282.516	33.936	0.656	0.571
-281.501	198.972	-0.290	-0.444
-280.486	-200.000	0.057	0.490
-279.472	108.993	0.485	-0.580
-278.457	209.312	0.217	0.339
-277.443	186.609	-0.371	-0.552
-276.428	-84.916	0.515	0.161
-275.413	-71.239	-0.168	0.063
-274.399	-200.000	-0.036	-0.415
-273.384	201.422	0.694	-1.067
-272.370	-200.000	-0.010	-0.386
-271.355	-145.036	0.699	0.064
-270.340	800.000	0.278	-0.875
-269.326	800.000	0.301	0.952
-268.311	51.198	-0.980	-0.928
-267.297	105.757	0.336	0.397
-266.282	607.501	-0.184	-0.459
-265.267	184.868	-0.040	-0.060
-264.253	29.137	0.518	0.439
-263.238	800.000	-0.078	0.332
-262.224	-200.000	0.060	-0.390
-261.209	-121.028	0.629	0.105
-260.195	293.387	0.241	0.438
-259.180	-157.521	-0.830	0.050
-258.165	348.382	-0.275	-0.540
-257.151	-68.160	0.797	0.310
-256.136	-44.237	-0.847	0.424
-255.122	-200.000	-0.047	-0.258
-254.107	30.644	-1.023	0.873
-253.092	114.380	0.617	-0.750
-252.078	241.620	0.605	1.009
-251.063	-200.000	0.041	0.319
-250.049	11.134	-0.526	-0.401
-249.034	-50.091	0.177	0.084
-248.019	428.410	-0.134	0.288
-247.005	-200.000	-0.016	-0.871
-245.990	-65.184	0.205	-0.082
-244.976	-120.209	-0.331	0.056
-243.961	-200.000	0.036	-0.405
-242.946	541.175	0.179	-0.424
-241.932	-200.000	0.077	-0.489
-240.917	-9.367	-0.758	-0.505
-239.903	-200.000	0.106	0.678
-238.888	-54.312	-0.212	-0.096
-237.873	-40.401	-0.543	-0.281
-236.859	25.601	-0.594	-0.493
-235.844	-200.000	-0.020	1.135
-234.830	800.000	-0.057	0.159
-233.815	125.742	-0.135	0.170
-232.800	-200.000	0.048	-0.479
-231.786	-1.805	0.424	-0.297
-230.771	-200.000	0.042	-0.355
-229.757	298.077	0.070	0.128
-228.742	-145.500	1.472	0.132
-227.727	-41.199	0.200	0.103
-226.713	-44.191	-0.583	0.291
-225.698	-111.747	-0.316	0.064
-224.684	-200.000	0.063	-0.796
-223.669	-2.211	-0.352	-0.246
-222.655	267.253	-0.165	-0.287
-221.640	-58.510	0.151	-0.065
-220.625	-200.000	-0.032	0.762
-219.611	-142.441	-0.434	0.043
-218.596	-200.000	-0.235	0.000
-217.582	-149.474	0.645	0.051
-216.567	-122.761	-0.982	0.158
-215.552	-110.129	-0.741	-0.154
-214.538	250.945	-0.207	-0.350
-213.523	318.519	0.082	0.154
-212.509	800.000	-0.267	-0.754
-211.494	-129.303	0.791	0.110
-210.479	-96.939	0.431	-0.112
-209.465	-59.334	0.556	-0.238
-208.450	-111.459	-0.590	0.120
-207.436	-107.337	-0.234	0.051
-206.421	-119.432	-0.624	-0.108
-205.406	-68.498	-0.563	-0.217
-204.392	-101.846	-0.347	-0.084
-203.377	193.433	0.231	-0.349
-202.363	-200.000	0.146	0.748
-201.348	33.325	0.089	0.077
-200.333	-50.525	0.746	0.350
-199.319	5.912	0.283	0.209
-198.304	-78.675	0.293	-0.100
-197.290	102.357	0.281	0.326
-196.275	282.439	0.305	0.545
-195.260	5.342	-0.306	-0.224
-194.246	800.000	-0.151	0.422
-193.231	-62.960	-0.137	0.056
-192.217	-97.528	-0.519	-0.134
-191.202	-200.000	0.017	0.215
-190.187	-200.000	0.037	0.735
-189.173	800.000	-0.233	-0.835
-188.158	800.000	0.131	0.394
-187.144	-200.000	-0.054	-0.884
-186.129	-200.000	-0.122	0.864
-185.114	167.382	0.305	-0.431
-184.100	-4.182	0.258	0.178
-183.085	-71.214	0.618	-0.231
-182.071	592.338	0.260	0.640
-181.056	-104.664	0.972	-0.223
-180.042	-11.802	-0.571	0.373
-179.027	800.000	-0.132	-0.422
-178.012	-71.281	-1.161	0.433
-176.998	-145.234	0.825	0.074
-175.983	30.002	0.244	-0.207
-174.969	-121.195	-0.518	-0.086
-173.954	150.795	0.435	0.588
-172.939	263.710	0.309	0.535
-171.925	800.000	0.129	0.447
-170.910	800.000	-0.068	0.281
-169.896	-65.488	-0.581	-0.232
-168.881	-71.059	-0.046	-0.017
-167.866	-200.000	-0.149	1.084
-166.852	800.000	-0.101	-0.358
-165.837	137.496	-0.164	-0.213
-164.823	109.567	-0.187	0.222
-163.808	566.748	0.154	-0.371
-162.793	194.331	-0.373	0.563
-161.779	-111.769	1.199	0.241
-160.764	-42.906	0.205	-0.104
-159.750	-145.168	0.203	-0.018
-158.735	504.768	-0.188	-0.432
-157.720	-90.019	-0.730	-0.212
-156.706	-152.413	0.937	0.067
-155.691	368.894	-0.526	1.057
-154.677	800.000	0.193	0.654
-153.662	-85.255	0.393	-0.122
-152.647	156.168	-0.428	0.587
-151.633	-200.000	-0.016	-0.275
-150.618	-77.354	-0.981	0.339
-149.604	475.166	-0.127	-0.286
-148.589	-113.937	0.539	0.104
-147.574	211.575	-0.264	0.413
-146.560	240.145	0.104	-0.173
-145.545	-134.464	0.447	0.054
-144.531	53.937	0.354	-0.338
-143.516	694.839	0.073	-0.189
-142.502	-52.696	-0.516	-0.237
-141.487	-47.219	0.405	-0.196
-140.472	-139.807	0.321	-0.034
-139.458	709.759	0.078	-0.206
-138.443	-190.024	-0.386	-0.004
-137.429	777.123	-0.228	0.619
-136.414	81.885	-0.405	0.436
-135.399	65.561	-0.572	0.575
-134.385	-46.025	0.577	0.283
-133.370	9.306	-0.574	0.431
-132.356	8.181	-0.409	-0.305
-131.341	97.104	-0.080	0.091
-130.326	-200.000	0.037	0.205
-129.312	-200.000	-0.025	-0.175
-128.297	153.724	-0.048	-0.066
-127.283	-46.071	-0.949	-0.464
-126.268	-13.561	0.698	-0.449
-125.253	-200.000	-0.111	0.670
-124.239	488.997	0.370	-0.838
-123.224	800.000	-0.118	-0.415
-122.210	800.000	0.298	1.267
-121.195	-102.652	-0.443	-0.105
-120.180	49.339	0.568	-0.531
-119.166	374.829	-0.547	-1.106
-118.151	800.000	0.275	-0.757
-117.137	169.828	0.217	0.308
-116.122	-126.446	-0.674	-0.099
-115.107	-94.540	-0.871	-0.235
-114.093	-48.149	0.645	0.309
-113.078	800.000	-0.027	0.101
-112.064	20.901	-0.708	-0.569
-111.049	800.000	0.204	-0.576
-110.034	-200.000	0.198	-0.950
-109.020	-115.706	0.473	-0.088
-108.005	-150.379	-0.555	0.042
-106.991	365.294	0.289	-0.577
-105.976	-55.829	-0.322	-0.143
-104.962	-143.480	-0.339	-0.032
-103.947	123.661	-0.333	-0.414
-102.932	-119.025	0.123	-0.021
-101.918	-200.000	-0.004	0.185
-100.903	-132.226	0.878	-0.113
-99.889	258.619	-0.269	0.460
-98.874	-200.000	0.034	0.402
-97.859	477.571	-0.101	0.228
-96.845	-69.459	-0.567	-0.216
-95.830	7.815	-0.765	-0.568
-94.816	-200.000	-0.048	0.551
-93.801	-34.271	-0.719	-0.391
-92.786	49.202	-0.021	0.020
-91.772	-126.249	-0.328	0.049
-90.757	-200.000	0.034	1.198
-89.743	800.000	0.054	-0.152
-88.728	-181.019	-0.355	-0.007
-87.713	-59.943	-0.967	0.410
-86.699	-36.906	0.432	-0.230
-85.684	-200.000	0.125	-0.774
-84.670	-70.126	0.296	0.111
-83.655	-146.960	-0.719	0.061
-82.640	-60.570	1.255	-0.528
-81.626	325.015	-0.236	-0.447
-80.611	36.107	-0.521	-0.455
-79.597	800.000	0.020	0.060
-78.582	-200.000	-0.081	-0.864
-77.567	621.314	-0.164	0.408
-76.553	-123.074	0.526	-0.084
-75.538	355.879	-0.052	0.103
-74.524	239.389	-0.593	-0.978
-73.509	-200.000	0.056	-0.742
-72.494	-66.964	1.039	0.406
-71.480	-200.000	-0.023	-0.114
-70.465	137.963	-0.545	0.708
-69.451	-83.979	-1.524	0.480
-68.436	-4.437	-0.244	-0.167
-67.422	140.886	0.084	-0.111
-66.407	-200.000	-0.034	-0.437
-65.392	-72.943	0.667	-0.243
-64.378	-186.716	0.300	-0.004
-63.363	-100.750	-0.612	-0.149
-62.349	-95.267	0.435	-0.116
-61.334	66.317	-1.216	-1.223
-60.319	8.912	0.763	0.570
-59.305	800.000	-0.204	-0.663
-58.290	800.000	0.275	1.058
-57.276	59.544	1.588	1.550
-56.261	-200.000	94.825	565.229
-55.246	626.490	1369.734	3422.418
-54.232	195.476	2552.305	3839.654
-53.217	108.335	2290.419	2705.283
-52.203	39.834	2048.625	1820.135
-51.188	35.079	1964.585	1703.221
-50.173	33.554	1946.965	1674.429
-49.159	48.979	1998.933	1857.522
-48.144	49.931	2015.830	1881.672
-47.130	35.725	1977.545	1719.975
-46.115	33.400	1967.707	1690.621
-45.100	33.257	1965.349	1687.252
-44.086	33.170	1962.305	1683.800
-43.071	33.304	1959.107	1682.177
-42.057	33.279	1956.419	1679.582
-41.042	33.325	1953.918	1677.780
-40.027	33.269	1953.127	1676.536
-39.013	33.200	1951.374	1674.351
-37.998	33.368	1949.187	1673.890
-36.984	33.219	1948.347	1671.790
-35.969	33.300	1946.413	1670.778
-34.954	33.355	1944.865	1669.865
-33.940	33.208	1942.452	1666.435
-32.925	33.315	1941.346	1666.367
-31.911	33.496	1939.500	1666.308
-30.896	33.352	1938.402	1664.028
-29.881	33.411	1935.534	1662.020
-28.867	33.553	1934.484	1662.295
-27.852	33.406	1933.222	1659.855
-26.838	33.275	1932.137	1657.710
-25.823	33.605	1928.568	1657.471
-24.809	33.399	1928.476	1655.527
-23.794	33.400	1925.509	1652.918
-22.779	33.633	1923.277	1652.974
-21.765	33.361	1923.233	1650.496
-20.750	33.505	1919.147	1648.180
-19.736	33.450	1918.788	1647.323
-18.721	33.441	1918.601	1647.018
-17.706	33.201	1916.945	1643.448
-16.692	33.215	1914.308	1641.240
-15.677	33.535	1912.146	1642.097
-14.663	33.462	1911.973	1641.248
-13.648	33.555	1910.699	1640.900
-12.633	33.394	1909.413	1638.332
-11.619	33.436	1908.371	1637.741
-10.604	33.511	1906.707	1636.896
-9.590	33.220	1905.753	1633.499
-8.575	33.221	1903.957	1631.898
-7.560	33.363	1902.416	1631.742
-6.546	33.274	1901.047	1629.736
-5.531	33.363	1900.809	1630.231
-4.517	33.162	1900.169	1627.892
-3.502	33.376	1897.112	1627.044
-2.487	33.247	1896.634	1625.464
-1.473	33.339	1895.294	1625.034
-0.458	33.440	1891.400	1622.499
0.556	34.369	1872.205	1594.615
1.571	30.145	1851.081	1541.450
2.586	25.913	1871.924	1522.997
3.600	24.809	1907.177	1542.032
4.615	23.920	1901.979	1530.050
5.629	18.474	1802.376	1405.270
6.644	8.658	1682.193	1235.983
7.659	3.556	1644.716	1169.736
8.673	2.933	1642.176	1163.113
9.688	3.088	1639.827	1162.515
10.702	3.073	1638.414	1161.301
11.717	2.826	1634.933	1156.862
12.731	3.286	1634.791	1160.127
13.746	9.964	1650.881	1222.107
14.761	20.037	1673.597	1315.707
15.775	25.026	1681.948	1360.128
16.790	26.141	1682.313	1368.770
17.804	26.072	1682.379	1368.172
18.819	26.368	1680.207	1368.530
19.834	26.227	1681.962	1368.770
20.848	26.580	1681.344	1370.815
21.863	26.770	1678.810	1370.064
22.877	26.523	1679.443	1368.594
23.892	26.765	1677.802	1368.963
24.907	26.643	1676.540	1366.893
25.921	26.724	1675.798	1366.779
26.936	26.750	1674.956	1366.163
27.950	26.887	1673.345	1365.760
28.965	26.827	1673.443	1365.269
29.980	26.721	1672.485	1363.572
30.994	26.600	1671.859	1362.029
32.009	26.852	1669.540	1361.911
33.023	26.744	1669.282	1360.769
34.038	26.967	1667.233	1360.650
35.053	26.886	1666.942	1359.689
36.067	26.895	1665.865	1358.754
37.082	26.906	1664.330	1357.462
38.096	26.847	1664.784	1357.276
39.111	26.738	1663.717	1355.471
40.126	26.752	1662.252	1354.259
41.140	26.623	1662.085	1353.041
42.155	26.740	1661.295	1353.148
43.169	26.590	1661.084	1351.739
44.184	26.665	1659.218	1350.664
45.199	26.665	1657.859	1349.435
46.213	26.652	1657.342	1348.798
47.228	26.834	1655.535	1348.559
48.242	27.016	1653.849	1348.420
49.257	26.816	1653.371	1346.428
50.271	26.740	1652.367	1344.924
51.286	26.586	1652.144	1343.482
52.301	26.719	1650.421	1342.944
53.315	26.965	1647.280	1342.093
54.330	26.937	1647.208	1341.705
55.344	26.751	1645.059	1338.464
56.359	27.059	1643.937	1339.707
57.374	26.812	1643.859	1337.705
58.388	26.860	1642.622	1336.929
59.403	26.679	1640.785	1333.988
60.417	26.915	1639.904	1334.887
61.432	26.954	1638.803	1334.158
62.447	26.965	1638.692	1334.035
63.461	26.914	1637.469	1332.544
64.476	26.963	1636.535	1332.023
65.490	27.057	1634.632	1331.051
66.505	27.125	1633.636	1330.620
67.520	26.800	1633.212	1327.773
68.534	26.941	1632.296	1327.942
69.549	26.815	1631.515	1326.273
70.563	26.897	1629.430	1325.056
71.578	26.908	1629.441	1325.029
72.593	27.040	1628.233	1324.889
73.607	26.994	1626.401	1322.945
74.622	27.013	1625.662	1322.367
75.636	26.945	1626.043	1322.067
76.651	27.236	1624.066	1322.458
77.666	27.050	1623.403	1320.450
78.680	26.931	1622.855	1319.021
79.695	26.889	1621.228	1317.281
80.709	26.838	1621.630	1317.116
81.724	26.870	1621.402	1317.052
82.739	27.016	1619.159	1316.170
83.753	27.015	1618.739	1315.701
84.768	26.967	1617.138	1313.938
85.782	27.156	1616.025	1314.283
86.797	26.914	1615.501	1311.991
87.812	26.957	1614.574	1311.432
88.826	27.169	1613.446	1311.929
89.841	27.079	1611.891	1309.901
90.855	27.090	1611.892	1309.869
91.870	27.134	1610.407	1308.859
92.884	27.148	1609.751	1308.310
93.899	27.086	1608.157	1306.458
94.914	27.052	1607.691	1305.714
95.928	27.135	1606.783	1305.459
96.943	27.199	1604.642	1304.067
97.957	27.033	1604.316	1302.492
98.972	27.039	1602.672	1301.088
99.987	27.204	1600.780	1300.614
101.001	26.998	1600.299	1298.639
102.016	27.263	1597.269	1297.952
103.030	27.115	1597.019	1296.585
104.045	27.230	1595.216	1295.819
105.060	27.082	1594.286	1293.895
106.074	27.025	1592.978	1292.313
107.089	27.151	1591.280	1291.717
108.103	27.233	1590.238	1291.342
109.118	27.256	1590.172	1291.340
110.133	27.206	1588.520	1289.527
111.147	27.252	1586.982	1288.491
112.162	27.388	1585.726	1288.316
113.176	27.314	1585.176	1287.233
114.191	27.224	1584.847	1286.218
115.206	27.118	1583.832	1284.527
116.220	27.095	1582.028	1282.793
117.235	27.143	1581.771	1282.811
118.249	27.139	1580.209	1281.399
119.264	27.368	1578.595	1281.588
120.279	27.344	1577.270	1280.234
121.293	27.364	1576.135	1279.339
122.308	27.248	1575.396	1277.807
123.322	27.433	1573.012	1277.062
124.337	27.198	1572.272	1274.698
125.352	27.255	1572.294	1275.004
126.366	27.355	1571.188	1274.694
127.381	27.173	1571.064	1273.206
128.395	27.360	1569.525	1273.159
129.410	27.323	1568.365	1271.847
130.424	27.359	1567.390	1271.189
131.439	27.435	1565.164	1269.808
132.454	27.251	1565.075	1268.338
133.468	27.451	1562.800	1267.776
134.483	27.287	1561.996	1265.870
135.497	27.467	1560.747	1265.993
136.512	27.295	1559.837	1263.949
137.527	27.310	1558.017	1262.466
138.541	27.293	1558.238	1262.418
139.556	27.377	1556.150	1261.196
140.570	27.161	1554.533	1258.279
141.585	27.336	1553.453	1258.502
142.600	27.301	1552.855	1257.665
143.614	27.361	1551.375	1256.768
144.629	27.240	1550.779	1255.338
145.643	27.351	1549.091	1254.631
146.658	26.964	1549.081	1251.838
147.673	27.316	1546.773	1252.288
148.687	27.253	1546.016	1251.134
149.702	27.447	1545.203	1251.698
150.716	27.238	1543.085	1248.438
151.731	27.333	1542.378	1248.402
152.746	27.688	1540.234	1248.987
153.760	27.473	1540.391	1247.537
154.775	27.160	1540.664	1245.498
155.789	27.526	1538.173	1245.882
156.804	27.473	1537.384	1244.771
157.819	27.339	1536.606	1243.113
158.833	27.549	1534.004	1242.330
159.848	27.510	1533.482	1241.531
160.862	27.714	1532.809	1242.268
161.877	27.560	1532.063	1240.502
162.892	27.379	1530.898	1238.221
163.906	27.602	1530.436	1239.254
164.921	27.400	1530.078	1237.480
165.935	27.575	1529.627	1238.196
166.950	27.177	1529.124	1234.976
167.964	27.576	1526.657	1235.575
168.979	27.658	1525.437	1235.040
169.994	27.561	1524.704	1233.679
171.008	27.671	1523.699	1233.501
172.023	27.494	1523.285	1231.857
173.037	27.563	1521.596	1230.851
174.052	27.591	1520.243	1229.837
175.067	27.747	1519.654	1230.301
176.081	27.594	1518.522	1228.242
177.096	27.673	1517.847	1228.121
178.110	27.777	1516.530	1227.649
179.125	27.586	1515.502	1225.423
180.140	27.802	1514.488	1225.944
181.154	27.718	1514.116	1224.973
182.169	27.786	1513.518	1224.835
183.183	27.813	1512.651	1224.206
184.198	27.916	1510.780	1223.273
185.213	27.709	1510.731	1221.740
186.227	27.662	1510.452	1221.094
187.242	27.803	1509.589	1221.229
188.256	27.916	1507.398	1220.101
189.271	27.769	1507.270	1218.909
190.286	27.743	1505.938	1217.551
191.300	27.793	1505.561	1217.474
192.315	27.846	1505.151	1217.387
193.329	27.825	1504.248	1216.407
194.344	27.905	1502.398	1215.341
195.359	27.693	1503.387	1214.619
196.373	27.957	1501.349	1214.618
197.388	27.964	1500.672	1214.014
198.402	27.936	1500.015	1213.190
199.417	27.750	1499.319	1211.284
200.432	27.647	1499.000	1210.232
201.446	27.736	1497.774	1209.728
202.461	27.916	1496.078	1209.445
203.475	27.771	1494.860	1207.388
204.490	27.960	1493.663	1207.570
205.504	28.022	1493.133	1207.440
206.519	27.933	1492.362	1206.122
207.534	27.986	1492.012	1206.080
208.548	28.147	1490.895	1206.136
209.563	28.063	1489.812	1204.600
210.577	28.062	1489.342	1204.108
211.592	27.925	1488.786	1202.649
212.607	27.936	1488.474	1202.362
213.621	28.026	1487.371	1201.957
214.636	28.025	1485.922	1200.672
215.650	28.040	1486.378	1201.031
216.665	28.029	1485.522	1200.161
217.680	28.198	1484.072	1199.992
218.694	27.951	1484.271	1198.429
219.709	28.064	1482.651	1197.755
220.723	27.881	1481.191	1195.268
221.738	28.135	1480.772	1196.489
222.753	28.082	1479.900	1195.332
223.767	28.037	1478.454	1193.764
224.782	27.928	1478.518	1193.000
225.796	28.132	1477.334	1193.266
226.811	28.231	1476.223	1192.907
227.826	28.157	1475.749	1191.937
228.840	28.209	1475.317	1191.825
229.855	28.008	1475.466	1190.529
230.869	28.529	1473.633	1192.336
231.884	28.197	1472.757	1189.360
232.899	28.271	1471.252	1188.522
233.913	28.152	1471.025	1187.462
234.928	28.021	1470.361	1185.969
235.942	27.976	1470.281	1185.509
236.957	28.346	1467.847	1185.836
237.972	28.270	1466.202	1183.913
238.986	28.424	1465.586	1184.302
240.001	28.079	1465.032	1181.522
241.015	28.254	1463.739	1181.508
242.030	28.570	1462.170	1182.170
243.045	28.462	1462.435	1181.586
244.059	28.344	1461.782	1180.195
245.074	28.689	1460.038	1180.901
246.088	28.401	1460.008	1178.921
247.103	28.338	1459.886	1178.307
248.117	28.670	1458.115	1178.911
249.132	28.534	1457.898	1177.756
250.147	28.717	1456.439	1177.644
251.161	28.720	1455.060	1176.449
252.176	28.548	1455.412	1175.527
253.190	28.350	1455.507	1174.231
254.205	28.582	1453.590	1174.066
255.220	28.664	1453.240	1174.199
256.234	28.577	1452.232	1172.726
257.249	28.543	1451.951	1172.181
258.263	28.801	1450.379	1172.455
259.278	28.705	1450.338	1171.706
260.293	28.666	1449.190	1170.424
261.307	28.570	1448.625	1169.250
262.322	28.246	1449.077	1167.450
263.336	28.321	1448.032	1166.977
264.351	28.556	1446.170	1166.869
265.366	28.631	1445.679	1166.851
266.380	28.708	1444.122	1165.976
267.395	28.744	1443.368	1165.493
268.409	28.430	1442.347	1162.575
269.424	28.745	1441.223	1163.565
270.439	28.701	1440.680	1162.741
271.453	28.780	1439.626	1162.288
272.468	28.732	1439.769	1161.998
273.482	28.703	1438.650	1160.809
274.497	28.701	1437.949	1160.125
275.512	28.688	1438.540	1160.418
276.526	28.713	1436.439	1158.780
277.541	28.727	1435.089	1157.675
278.555	28.590	1435.220	1156.816
279.570	28.619	1434.562	1156.367
280.585	28.759	1433.331	1156.153
281.599	28.915	1432.339	1156.233
282.614	28.749	1432.085	1154.880
283.628	28.694	1430.741	1153.351
284.643	28.725	1429.900	1152.763
285.657	29.130	1428.227	1153.848
286.672	28.758	1428.289	1151.464
287.687	28.800	1427.261	1150.799
288.701	28.625	1426.861	1149.279
289.716	28.825	1426.494	1150.132
290.730	29.133	1424.432	1150.292
291.745	28.890	1424.251	1148.529
292.760	28.910	1422.728	1147.321
293.774	28.976	1421.307	1146.489
294.789	28.907	1421.083	1145.773
295.803	28.951	1421.348	1146.162
296.818	28.986	1420.922	1145.933
297.833	29.029	1419.089	1144.623
298.847	28.910	1418.562	1143.358
299.862	29.023	1417.672	1143.238
300.876	28.879	1417.114	1141.797
301.891	29.018	1416.035	1141.688
302.906	29.106	1414.935	1141.247
303.920	29.026	1414.734	1140.485
304.935	29.037	1413.985	1139.851
305.949	28.950	1413.649	1138.941
306.964	29.049	1412.607	1138.611
307.979	29.114	1411.049	1137.657
308.993	29.133	1410.849	1137.509
310.008	29.021	1409.920	1135.972
311.022	29.170	1409.161	1136.177
312.037	29.178	1407.884	1135.098
313.052	29.127	1407.385	1134.280
314.066	29.103	1406.754	1133.520
315.081	29.116	1405.352	1132.370
316.095	29.347	1404.502	1133.010
317.110	29.175	1403.303	1130.881
318.125	28.997	1403.540	1129.878
319.139	29.134	1402.215	1129.558
320.154	29.167	1400.789	1128.508
321.168	29.389	1400.166	1129.268
322.183	29.201	1399.568	1127.532
323.197	29.296	1398.653	1127.278
324.212	29.449	1397.280	1127.005
325.227	29.226	1397.127	1125.423
326.241	29.326	1397.418	1126.168
327.256	29.334	1395.357	1124.454
328.270	29.393	1395.319	1124.687
329.285	29.312	1395.138	1123.942
330.300	29.334	1393.474	1122.641
331.314	29.341	1392.104	1121.476
332.329	29.351	1390.858	1120.434
333.343	29.495	1391.025	1121.347
334.358	29.574	1390.492	1121.296
335.373	29.607	1388.327	1119.650
336.387	29.411	1388.837	1118.777
337.402	29.351	1388.567	1118.097
338.416	29.498	1388.286	1118.662
339.431	29.564	1386.464	1117.496
340.446	29.368	1386.516	1116.249
341.460	29.399	1385.662	1115.651
342.475	29.359	1385.604	1115.262
343.489	29.557	1383.900	1114.991
344.504	29.601	1383.185	1114.579
345.519	29.518	1382.537	1113.459
346.533	29.641	1381.315	1113.117
347.548	29.687	1380.280	1112.462
348.562	29.775	1379.343	1112.135
349.577	29.734	1377.763	1110.520
350.592	29.601	1378.339	1110.087
351.606	29.480	1377.870	1108.885
352.621	29.659	1376.867	1109.054
353.635	29.439	1376.950	1107.702
354.650	29.512	1375.616	1106.969
355.665	29.708	1374.632	1107.251
356.679	29.696	1373.146	1105.887
357.694	29.886	1371.229	1105.378
358.708	29.628	1371.083	1103.624
359.723	29.685	1369.865	1102.885
360.738	29.606	1368.865	1101.511
361.752	29.779	1367.647	1101.464
362.767	30.041	1365.628	1101.297
363.781	29.710	1365.700	1099.291
364.796	29.926	1365.395	1100.233
365.810	29.622	1366.234	1099.004
366.825	29.853	1364.216	1098.651
367.840	29.899	1361.861	1096.934
368.854	30.070	1362.312	1098.208
369.869	29.715	1362.954	1096.525
370.883	29.798	1362.211	1096.326
371.898	29.601	1361.250	1094.288
372.913	29.749	1360.821	1094.718
373.927	30.063	1358.734	1094.798
374.942	29.768	1358.285	1092.600
375.956	29.833	1358.802	1093.302
376.971	29.965	1357.559	1092.983
377.986	29.965	1356.038	1091.661
379.000	30.114	1355.450	1091.973
380.015	30.025	1355.133	1091.095
381.029	30.080	1353.640	1090.118
382.044	30.079	1353.587	1089.977
383.059	29.970	1352.636	1088.470
384.073	30.029	1352.924	1088.956
385.088	30.155	1352.059	1088.902
386.102	30.139	1350.731	1087.643
387.117	30.284	1349.985	1087.794
388.132	30.158	1349.518	1086.585
389.146	30.185	1348.811	1086.076
390.161	30.094	1347.624	1084.495
391.175	30.158	1347.921	1085.011
392.190	30.076	1347.547	1084.132
393.205	30.114	1345.808	1082.860
394.219	30.086	1345.054	1081.996
395.234	30.085	1344.045	1081.081
396.248	30.216	1342.641	1080.619
397.263	30.120	1341.511	1079.056
398.278	29.901	1341.592	1077.748
399.292	30.129	1340.550	1078.146
400.307	30.360	1338.315	1077.594
401.321	30.407	1338.477	1077.902
402.336	30.040	1337.340	1074.761
403.350	30.369	1335.602	1075.172
404.365	30.130	1335.084	1073.282
405.380	30.224	1333.998	1072.855
406.394	30.431	1333.427	1073.500
407.409	29.911	1333.545	1070.492
408.423	29.959	1332.274	1069.650
409.438	30.177	1331.812	1070.447
410.453	29.893	1331.069	1068.116
411.467	30.217	1330.369	1069.330
412.482	30.099	1329.460	1067.821
413.496	29.878	1328.537	1065.714
414.511	29.815	1328.007	1064.831
415.526	30.072	1326.771	1065.223
416.540	29.759	1325.935	1062.663
417.555	30.092	1325.333	1063.995
418.569	29.611	1325.804	1061.516
419.584	29.654	1325.639	1061.541
420.599	29.679	1324.110	1060.360
421.613	142.046	1437.473	1793.443
422.628	138.149	1453.983	1793.454
