DTS Sentinel unit serial number:	SN413079Multiplexer serial number:	ORYXHardware model number:	OX4-SRSoftware version number:	ORYX F/W v4.00 Oryx Data Collector v3.7.2.0data status	okinstallation	princeton_trtdifferential loss correction	single-endedforward channel	channel 4reverse channel	N/Adate	2019/09/15time	03:37:35forward acquisition time	60.00reverse acquisition time	0.00gamma	496.2192k internal	0.2310k external	0.2310temperature offset calibration	1.0031default loss term (dB/km)	0.3790temperature slope calibration	1.0000multiplexer offset coefficient	1.0000multiplexer slope coefficient	1.0000fibre end	0.00T internal ref (°C)	31.00T ext. ref 1 (°C)	4.61T ext. ref 2 (°C)	25.84length (m)	temperature (°C)	Stokes	anti-Stokes-747.200	-86.858	0.306	-0.095
-746.185	-200.000	-0.049	0.344
-745.171	-141.328	-0.181	-0.019
-744.156	-63.927	0.144	0.060
-743.142	-126.358	0.331	0.050
-742.127	-178.450	0.364	-0.009
-741.112	73.354	0.191	0.203
-740.098	-12.512	0.212	0.141
-739.083	246.916	0.041	0.070
-738.069	68.218	-0.485	0.504
-737.054	31.218	-0.070	-0.061
-736.039	-184.752	-0.365	-0.006
-735.025	558.665	0.081	0.199
-734.010	-82.676	-0.092	0.030
-732.996	12.185	-0.158	0.123
-731.981	4.032	-0.367	-0.272
-730.966	-53.718	0.187	-0.087
-729.952	-141.696	-0.246	0.025
-728.937	-11.230	0.375	-0.251
-727.923	103.980	0.153	-0.183
-726.908	43.695	-0.181	-0.168
-725.894	55.249	-0.165	0.162
-724.879	161.058	-0.199	-0.282
-723.864	380.256	-0.100	-0.208
-722.850	2.479	-0.232	-0.170
-721.835	800.000	0.067	-0.202
-720.821	423.445	0.108	0.235
-719.806	-200.000	0.029	0.209
-718.791	-22.663	-0.322	0.197
-717.777	800.000	-0.070	-0.285
-716.762	-200.000	0.016	-0.209
-715.748	-200.000	-0.078	0.428
-714.733	-0.467	0.260	-0.187
-713.718	342.629	0.198	-0.393
-712.704	-27.345	-0.290	-0.171
-711.689	26.246	0.071	-0.060
-710.675	549.006	0.187	-0.453
-709.660	-116.070	0.116	0.022
-708.645	-124.054	0.066	-0.011
-707.631	395.084	-0.160	0.337
-706.616	-56.078	0.028	-0.013
-705.602	-102.653	-0.381	0.092
-704.587	24.966	0.218	-0.183
-703.572	175.966	0.096	-0.141
-702.558	297.203	0.121	-0.226
-701.543	-92.818	0.251	0.071
-700.529	-32.782	0.328	0.185
-699.514	-184.953	0.343	0.005
-698.499	43.181	-0.135	-0.125
-697.485	-13.632	-0.398	-0.261
-696.470	-136.451	0.043	-0.005
-695.456	16.359	-0.228	0.182
-694.441	800.000	0.040	-0.145
-693.426	-139.547	0.229	-0.025
-692.412	247.111	-0.042	-0.072
-691.397	-77.296	-0.285	0.100
-690.383	233.207	0.075	0.125
-689.368	12.902	-0.182	0.143
-688.354	-182.391	0.356	0.007
-687.339	203.979	-0.092	0.145
-686.324	-157.729	0.153	0.009
-685.310	411.573	-0.037	-0.079
-684.295	713.038	-0.023	0.061
-683.281	-132.904	0.103	-0.013
-682.266	-200.000	-0.067	-0.531
-681.251	121.060	0.132	-0.166
-680.237	-151.609	-0.200	-0.015
-679.222	21.164	-0.118	-0.097
-678.208	-70.812	-0.466	0.178
-677.193	-14.541	-0.191	-0.125
-676.178	66.296	0.292	-0.300
-675.164	50.415	0.273	0.261
-674.149	-24.649	-0.101	-0.061
-673.135	-28.370	-0.072	-0.042
-672.120	800.000	0.080	-0.250
-671.105	222.344	-0.057	0.093
-670.091	-200.000	-0.004	0.065
-669.076	-71.453	0.094	-0.036
-668.062	-28.753	-0.145	-0.084
-667.047	455.573	0.054	-0.122
-666.032	-2.344	-0.194	0.137
-665.018	576.224	0.050	-0.123
-664.003	-169.532	0.125	0.005
-662.989	149.914	0.027	0.037
-661.974	800.000	0.088	0.278
-660.959	-0.014	-0.203	-0.146
-659.945	-109.897	-0.081	0.017
-658.930	593.771	0.078	0.196
-657.916	-141.096	0.175	0.018
-656.901	-67.369	0.186	0.074
-655.886	-33.827	0.096	-0.054
-654.872	800.000	0.036	-0.131
-653.857	-70.454	-0.217	-0.083
-652.843	140.845	-0.021	0.028
-651.828	-39.580	-0.235	0.124
-650.814	-49.218	0.131	0.063
-649.799	185.520	-0.095	-0.142
-648.784	-105.115	-0.244	0.056
-647.770	195.286	-0.120	0.184
-646.755	196.501	0.147	-0.226
-645.741	573.248	0.086	0.213
-644.726	776.917	-0.168	-0.463
-643.711	-147.063	0.146	0.013
-642.697	-200.000	-0.080	-0.364
-641.682	-129.673	-0.241	-0.034
-640.668	117.594	0.124	0.154
-639.653	163.627	-0.064	-0.091
-638.638	-40.611	-0.224	0.117
-637.624	222.457	0.071	0.115
-636.609	41.183	-0.105	0.096
-635.595	800.000	-0.049	0.203
-634.580	-23.517	-0.193	0.117
-633.565	-2.063	-0.023	-0.016
-632.551	53.161	0.198	-0.191
-631.536	-103.376	0.577	-0.137
-630.522	-128.245	-0.408	0.059
-629.507	800.000	-0.024	-0.069
-628.492	96.310	0.115	0.133
-627.478	166.663	-0.191	-0.274
-626.463	76.793	-0.037	0.040
-625.449	800.000	0.035	0.120
-624.434	-200.000	0.050	0.396
-623.419	173.841	0.087	-0.127
-622.405	-144.687	0.285	0.027
-621.390	23.940	0.097	-0.081
-620.376	20.970	0.136	-0.111
-619.361	-200.000	-0.005	-0.111
-618.346	-60.200	-0.095	0.041
-617.332	18.910	0.116	-0.094
-616.317	-56.982	-0.257	0.115
-615.303	800.000	-0.052	0.180
-614.288	800.000	-0.083	-0.279
-613.273	767.976	0.086	-0.236
-612.259	-89.410	-0.255	-0.076
-611.244	-140.884	-0.191	0.020
-610.230	800.000	0.003	0.015
-609.215	-99.192	-0.120	0.031
-608.201	152.990	0.180	0.249
-607.186	117.804	-0.102	0.126
-606.171	-40.058	0.108	-0.057
-605.157	-18.224	0.319	-0.202
-604.142	113.479	-0.106	0.130
-603.128	-200.000	-0.000	-0.070
-602.113	-50.851	-0.053	-0.025
-601.098	800.000	0.037	-0.156
-600.084	-27.737	0.101	0.059
-599.069	110.523	-0.183	-0.222
-598.055	16.116	0.180	-0.144
-597.040	-121.944	-0.580	-0.096
-596.025	-178.448	0.120	-0.003
-595.011	-147.995	0.216	0.018
-593.996	800.000	-0.068	0.251
-592.982	-150.785	-0.155	-0.012
-591.967	-160.106	-0.122	0.007
-590.952	-99.388	0.219	0.056
-589.938	-171.360	0.215	0.007
-588.923	-102.560	-0.465	-0.112
-587.909	49.241	0.125	-0.119
-586.894	800.000	-0.032	-0.091
-585.879	-54.361	0.194	-0.089
-584.865	-9.075	-0.382	0.258
-583.850	210.995	-0.124	0.197
-582.836	-200.000	-0.040	0.312
-581.821	84.843	0.296	0.327
-580.806	49.685	-0.122	0.116
-579.792	-22.343	0.165	-0.101
-578.777	12.028	0.103	0.080
-577.763	392.824	-0.080	0.168
-576.748	97.480	0.119	0.138
-575.733	-79.955	0.355	-0.120
-574.719	-61.956	-0.165	0.069
-573.704	-37.210	0.084	-0.045
-572.690	-29.624	-0.238	-0.137
-571.675	-35.176	0.234	0.129
-570.661	190.066	-0.082	-0.124
-569.646	-200.000	-0.019	0.179
-568.631	57.142	-0.180	0.177
-567.617	299.664	-0.096	-0.179
-566.602	-0.001	0.134	0.097
-565.588	-200.000	0.034	0.237
-564.573	195.039	-0.302	-0.462
-563.558	-40.958	0.214	-0.112
-562.544	-165.547	-0.250	0.011
-561.529	-104.136	-0.103	-0.024
-560.515	-123.129	0.164	0.027
-559.500	114.465	0.095	-0.116
-558.485	100.701	-0.149	-0.174
-557.471	19.180	-0.116	-0.094
-556.456	45.913	-0.160	-0.150
-555.442	105.146	0.134	-0.160
-554.427	800.000	-0.089	0.255
-553.412	-5.046	0.172	0.119
-552.398	-200.000	-0.021	-0.270
-551.383	-144.893	-0.212	0.020
-550.369	160.912	0.165	-0.232
-549.354	-200.000	-0.029	0.196
-548.339	-147.789	0.329	0.028
-547.325	-200.000	0.018	0.365
-546.310	-24.050	-0.344	-0.207
-545.296	-119.483	0.132	-0.023
-544.281	467.214	-0.063	-0.142
-543.266	93.000	0.172	-0.196
-542.252	122.996	-0.208	-0.262
-541.237	-14.127	0.153	-0.099
-540.223	513.217	-0.047	0.111
-539.208	800.000	-0.089	-0.260
-538.193	-81.960	-0.319	0.105
-537.179	-200.000	-0.001	-0.165
-536.164	-65.786	-0.121	-0.049
-535.150	37.920	-0.207	-0.185
-534.135	-124.362	0.203	0.032
-533.121	800.000	-0.032	-0.143
-532.106	124.900	0.136	-0.173
-531.091	-169.526	0.162	0.006
-530.077	-200.000	-0.013	-0.191
-529.062	-41.410	-0.064	-0.033
-528.048	-60.100	-0.157	-0.067
-527.033	17.746	-0.190	0.152
-526.018	-36.980	0.283	-0.153
-525.004	-200.000	0.015	0.138
-523.989	9.862	0.230	0.176
-522.975	564.492	0.143	0.349
-521.960	6.631	-0.072	-0.054
-520.945	-42.543	0.361	0.185
-519.931	-200.000	-0.033	0.463
-518.916	800.000	0.100	0.384
-517.902	-159.786	-0.091	-0.005
-516.887	-200.000	0.023	0.122
-515.872	-32.936	0.429	0.240
-514.858	-31.073	-0.189	0.107
-513.843	800.000	0.054	-0.161
-512.829	159.054	-0.177	-0.248
-511.814	-44.084	0.274	0.139
-510.799	-99.785	-0.132	-0.033
-509.785	-200.000	0.042	-0.302
-508.770	-200.000	0.059	-0.269
-507.756	-200.000	-0.032	-0.248
-506.741	-0.437	0.168	-0.120
-505.726	-200.000	-0.010	0.100
-504.712	-148.487	0.330	0.027
-503.697	30.487	0.242	-0.208
-502.683	-41.909	-0.257	-0.133
-501.668	-200.000	0.086	0.433
-500.653	800.000	0.071	0.203
-499.639	378.943	-0.094	0.193
-498.624	-71.575	0.230	-0.086
-497.610	-200.000	0.034	0.160
-496.595	-200.000	0.008	-0.052
-495.581	-20.546	0.227	-0.140
-494.566	-36.115	0.151	-0.082
-493.551	800.000	-0.036	-0.134
-492.537	174.480	-0.153	0.223
-491.522	320.244	0.030	0.058
-490.508	353.687	0.097	-0.193
-489.493	48.570	-0.102	-0.096
-488.478	-124.770	-0.139	-0.022
-487.464	-68.704	0.277	0.108
-486.449	250.074	-0.165	0.282
-485.435	-139.505	-0.047	-0.005
-484.420	-95.796	0.066	-0.018
-483.405	51.475	-0.092	0.087
-482.391	800.000	-0.080	0.296
-481.376	-52.461	0.385	0.179
-480.362	-200.000	0.027	-0.157
-479.347	296.624	0.151	0.278
-478.332	-200.000	-0.022	0.112
-477.318	35.269	-0.081	0.071
-476.303	-84.297	-0.192	0.061
-475.289	6.970	-0.266	-0.199
-474.274	-90.368	0.262	-0.076
-473.259	-23.854	-0.280	0.168
-472.245	-51.033	-0.158	0.075
-471.230	-129.111	0.326	0.046
-470.216	-52.336	-0.213	0.099
-469.201	800.000	-0.038	-0.114
-468.186	-200.000	-0.003	0.064
-467.172	143.143	-0.110	0.147
-466.157	156.054	-0.184	0.255
-465.143	49.514	-0.098	-0.092
-464.128	-10.306	-0.087	0.058
-463.113	29.206	-0.180	0.153
-462.099	25.616	-0.090	0.075
-461.084	213.410	-0.172	-0.273
-460.070	-132.601	-0.136	0.018
-459.055	215.278	0.188	0.299
-458.040	-162.322	-0.107	0.005
-457.026	774.041	0.085	-0.232
-456.011	-155.426	-0.210	-0.014
-454.997	-170.817	-0.181	0.006
-453.982	-157.925	0.252	-0.015
-452.968	-130.811	-0.250	-0.034
-451.953	-151.462	0.185	0.014
-450.938	-200.000	-0.008	0.048
-449.924	10.063	0.126	0.096
-448.909	800.000	-0.055	-0.189
-447.895	-115.618	0.206	0.039
-446.880	-126.653	0.150	0.022
-445.865	800.000	0.060	-0.239
-444.851	-15.912	-0.154	0.099
-443.836	-200.000	-0.020	-0.194
-442.822	225.431	0.222	-0.360
-441.807	-200.000	-0.014	0.136
-440.792	-85.044	0.060	0.019
-439.778	-200.000	0.020	0.091
-438.763	493.921	0.040	-0.092
-437.749	-93.211	-0.250	-0.070
-436.734	112.336	-0.044	-0.053
-435.719	-107.248	0.093	-0.021
-434.705	-53.636	-0.270	-0.124
-433.690	417.767	-0.023	-0.049
-432.676	23.768	-0.361	0.299
-431.661	-108.945	0.241	-0.052
-430.646	-69.884	0.157	-0.060
-429.632	-79.007	0.263	-0.090
-428.617	-200.000	-0.017	-0.094
-427.603	-108.458	0.119	0.026
-426.588	800.000	0.082	-0.345
-425.573	-74.499	-0.201	0.073
-424.559	-109.884	0.468	-0.098
-423.544	-77.865	-0.387	-0.134
-422.530	-100.930	-0.051	-0.012
-421.515	-32.471	0.116	-0.065
-420.500	-14.676	0.215	0.139
-419.486	-200.000	-0.009	0.101
-418.471	-7.322	-0.344	0.234
-417.457	92.952	0.112	0.126
-416.442	-200.000	-0.044	-0.235
-415.428	240.254	-0.098	0.164
-414.413	-200.000	-0.035	0.175
-413.398	247.236	0.095	0.161
-412.384	313.367	-0.080	0.152
-411.369	74.699	-0.192	-0.203
-410.355	-37.587	0.067	0.036
-409.340	425.139	-0.088	0.189
-408.325	-200.000	0.019	0.116
-407.311	156.049	0.179	-0.247
-406.296	-67.610	0.118	-0.046
-405.282	-96.418	0.148	-0.039
-404.267	-200.000	0.034	0.187
-403.252	107.112	0.120	-0.142
-402.238	195.503	0.303	-0.462
-401.223	132.735	-0.173	-0.224
-400.209	431.599	0.039	0.084
-399.194	-85.907	0.051	0.016
-398.179	-137.363	0.200	0.023
-397.165	-143.096	0.313	0.030
-396.150	727.625	0.042	-0.113
-395.136	-174.791	0.283	-0.008
-394.121	-200.000	-0.010	0.228
-393.106	800.000	0.007	-0.019
-392.092	-200.000	-0.034	0.159
-391.077	-54.650	-0.176	-0.080
-390.063	15.451	0.169	0.133
-389.048	800.000	0.080	0.228
-388.033	89.957	-0.092	-0.103
-387.019	-23.409	-0.127	-0.076
-386.004	265.707	0.098	0.172
-384.990	-35.727	0.390	-0.212
-383.975	114.231	0.110	0.134
-382.960	321.713	-0.095	0.181
-381.946	-144.086	0.409	0.038
-380.931	-139.829	0.467	0.050
-379.917	-200.000	0.015	0.145
-378.902	800.000	0.015	0.051
-377.888	-45.072	0.088	-0.044
-376.873	-61.698	-0.212	-0.089
-375.858	687.615	0.017	-0.044
-374.844	-19.445	0.086	0.053
-373.829	211.804	-0.181	0.286
-372.815	775.238	-0.040	0.108
-371.800	-36.143	0.156	0.084
-370.785	-94.590	-0.140	0.038
-369.771	1.772	0.037	0.027
-368.756	-31.731	0.130	0.073
-367.742	-200.000	0.042	0.186
-366.727	-132.954	0.386	-0.049
-365.712	95.116	0.254	0.289
-364.698	-128.323	-0.162	0.023
-363.683	-18.887	-0.159	-0.099
-362.669	277.786	-0.086	0.153
-361.654	494.394	0.052	0.119
-360.639	800.000	-0.043	0.133
-359.625	-85.610	-0.154	-0.048
-358.610	115.024	0.193	0.236
-357.596	257.657	-0.215	-0.369
-356.581	-44.666	-0.315	-0.157
-355.566	145.951	-0.110	-0.147
-354.552	102.911	-0.172	0.201
-353.537	-106.770	-0.300	0.067
-352.523	10.281	0.106	-0.081
-351.508	86.080	-0.169	-0.186
-350.493	-155.601	0.164	-0.011
-349.479	355.849	0.057	-0.113
-348.464	-39.994	-0.282	-0.147
-347.450	76.806	0.094	-0.099
-346.435	-138.554	0.190	-0.021
-345.420	-44.662	0.039	-0.019
-344.406	-91.007	-0.307	0.088
-343.391	800.000	0.059	-0.193
-342.377	289.085	0.161	0.292
-341.362	522.522	-0.057	0.135
-340.348	-63.155	-0.362	0.149
-339.333	200.078	-0.114	0.175
-338.318	-116.911	-0.178	0.032
-337.304	-200.000	0.030	-0.164
-336.289	-67.577	-0.173	0.068
-335.275	-200.000	-0.015	-0.161
-334.260	-200.000	0.042	0.238
-333.245	111.034	-0.061	-0.074
-332.231	-96.793	0.305	0.080
-331.216	-200.000	-0.029	-0.161
-330.202	-30.911	-0.177	-0.100
-329.187	-136.860	0.408	0.047
-328.172	-200.000	-0.005	0.114
-327.158	-91.482	0.240	-0.068
-326.143	61.888	-0.190	0.189
-325.129	-81.990	-0.173	-0.056
-324.114	122.355	-0.076	-0.095
-323.099	30.308	0.159	-0.136
-322.085	-50.483	0.114	-0.054
-321.070	3.521	0.214	-0.156
-320.056	800.000	0.078	0.277
-319.041	-76.476	-0.193	0.068
-318.026	800.000	0.014	-0.045
-317.012	-38.739	-0.017	0.009
-315.997	-143.781	-0.025	0.002
-314.983	-185.869	0.189	-0.003
-313.968	800.000	0.041	0.114
-312.953	-2.256	0.160	0.112
-311.939	15.089	0.160	-0.125
-310.924	-200.000	-0.009	-0.136
-309.910	-141.880	-0.116	-0.012
-308.895	176.818	0.163	-0.236
-307.880	-36.952	-0.292	-0.157
-306.866	-58.201	0.184	0.080
-305.851	163.498	-0.047	0.066
-304.837	378.117	0.055	-0.112
-303.822	-62.703	0.250	0.104
-302.807	-147.313	-0.350	0.030
-301.793	-11.427	0.242	-0.159
-300.778	-104.316	-0.326	0.075
-299.764	-179.724	-0.329	-0.007
-298.749	672.023	0.043	0.110
-297.735	130.521	0.064	0.082
-296.720	19.239	-0.201	-0.161
-295.705	-28.113	-0.221	-0.128
-294.691	56.842	0.255	-0.248
-293.676	-30.544	-0.284	0.161
-292.662	-200.000	0.030	0.228
-291.647	-200.000	0.011	-0.174
-290.632	-177.418	-0.345	0.008
-289.618	-200.000	0.009	-0.044
-288.603	115.717	0.252	0.308
-287.589	-97.335	0.108	0.028
-286.574	-19.723	0.089	0.055
-285.559	139.266	-0.175	-0.229
-284.545	-104.081	0.110	0.026
-283.530	-200.000	-0.033	0.183
-282.516	315.228	-0.045	-0.085
-281.501	-66.940	-0.286	0.113
-280.486	-41.850	-0.392	0.201
-279.472	-97.383	-0.442	-0.115
-278.457	-200.000	-0.046	0.259
-277.443	-200.000	-0.015	0.124
-276.428	-107.998	-0.087	0.019
-275.413	-53.894	-0.123	0.056
-274.399	-200.000	0.005	0.256
-273.384	-200.000	0.010	0.135
-272.370	-200.000	-0.004	-0.190
-271.355	-100.785	0.249	-0.061
-270.340	-6.953	0.233	0.157
-269.326	-200.000	-0.006	0.033
-268.311	-157.257	0.123	0.007
-267.297	68.265	0.147	-0.150
-266.282	238.017	-0.067	0.111
-265.267	137.259	0.027	0.036
-264.253	60.349	-0.398	-0.393
-263.238	89.962	-0.180	-0.201
-262.224	57.975	-0.188	-0.184
-261.209	102.647	0.331	-0.386
-260.195	410.212	-0.090	0.191
-259.180	-200.000	0.024	0.142
-258.165	-44.589	0.344	-0.171
-257.151	-110.921	0.126	0.026
-256.136	129.717	0.130	0.166
-255.122	659.426	0.098	0.252
-254.107	-200.000	-0.031	-0.220
-253.092	-200.000	-0.069	-0.412
-252.078	800.000	-0.040	-0.125
-251.063	180.229	0.067	0.098
-250.049	-35.985	0.140	0.075
-249.034	-147.545	-0.125	-0.011
-248.019	266.362	-0.202	0.352
-247.005	-18.726	0.108	-0.067
-245.990	255.904	0.064	-0.109
-244.976	-19.545	-0.224	-0.138
-243.961	800.000	-0.070	0.266
-242.946	240.125	-0.125	0.207
-241.932	-144.073	0.154	-0.014
-240.917	-70.929	0.313	-0.118
-239.903	800.000	0.028	-0.120
-238.888	292.483	0.155	0.280
-237.873	-200.000	-0.008	-0.393
-236.859	-39.746	0.165	-0.086
-235.844	117.455	0.144	0.177
-234.830	16.743	0.150	-0.118
-233.815	-200.000	-0.032	0.221
-232.800	-62.740	0.117	-0.048
-231.786	-200.000	0.008	-0.323
-230.771	-76.964	-0.308	0.107
-229.757	-58.264	-0.029	-0.012
-228.742	-22.465	0.202	0.122
-227.727	53.651	0.153	0.146
-226.713	114.470	-0.157	-0.190
-225.698	-158.840	0.152	0.009
-224.684	-200.000	0.005	0.063
-223.669	-74.332	0.202	-0.073
-222.655	-146.369	-0.286	0.025
-221.640	-21.229	-0.110	-0.067
-220.625	-138.175	-0.341	0.038
-219.611	184.730	-0.149	-0.220
-218.596	367.712	-0.080	-0.160
-217.582	26.962	-0.174	-0.145
-216.567	-200.000	0.177	0.001
-215.552	57.159	-0.069	0.067
-214.538	-200.000	0.028	0.137
-213.523	58.057	-0.183	0.178
-212.509	-18.294	0.324	-0.201
-211.494	-108.544	0.141	0.030
-210.479	11.704	0.123	-0.094
-209.465	-180.805	0.316	0.006
-208.450	-71.061	-0.146	-0.055
-207.436	-150.160	0.366	0.028
-206.421	169.117	-0.040	0.056
-205.406	-104.213	0.153	-0.035
-204.392	-44.807	0.422	-0.209
-203.377	90.568	-0.127	0.142
-202.363	3.948	-0.039	0.028
-201.348	14.006	0.139	-0.107
-200.333	21.173	0.328	-0.265
-199.319	14.015	0.026	0.020
-198.304	-200.000	0.007	-0.043
-197.290	395.940	0.063	0.130
-196.275	-43.825	-0.046	0.023
-195.260	280.822	-0.070	-0.124
-194.246	-63.165	-0.209	-0.086
-193.231	-200.000	0.048	0.218
-192.217	-117.104	-0.270	-0.049
-191.202	800.000	0.040	0.127
-190.187	673.642	-0.121	0.312
-189.173	-147.440	-0.347	-0.029
-188.158	800.000	0.036	-0.144
-187.144	412.333	-0.027	0.058
-186.129	679.026	0.119	-0.307
-185.114	-103.176	0.232	0.054
-184.100	514.921	-0.053	0.122
-183.085	-181.986	-0.433	-0.008
-182.071	-71.291	-0.260	0.097
-181.056	-59.635	-0.098	-0.042
-180.042	800.000	0.109	-0.333
-179.027	-26.320	0.288	0.168
-178.012	138.330	0.157	-0.204
-176.998	-1.272	-0.153	-0.108
-175.983	800.000	0.050	-0.192
-174.969	800.000	0.072	-0.199
-173.954	246.042	-0.049	-0.082
-172.939	-58.249	0.234	0.101
-171.925	124.337	-0.156	-0.195
-170.910	-155.694	-0.033	0.002
-169.896	181.836	-0.185	-0.270
-168.881	-107.882	-0.174	0.038
-167.866	117.900	-0.019	0.024
-166.852	172.497	-0.073	0.104
-165.837	99.189	-0.238	-0.274
-164.823	-200.000	-0.015	0.205
-163.808	46.827	-0.082	-0.076
-162.793	547.055	-0.053	-0.127
-161.779	-21.902	-0.181	0.109
-160.764	-200.000	0.023	0.158
-159.750	-104.305	-0.138	-0.032
-158.735	-200.000	0.039	0.319
-157.720	28.935	0.221	-0.186
-156.706	800.000	-0.025	0.089
-155.691	800.000	0.082	0.256
-154.677	205.279	0.227	0.349
-153.662	800.000	-0.021	-0.087
-152.647	10.759	-0.330	-0.250
-151.633	-125.712	-0.218	0.033
-150.618	161.357	0.074	-0.103
-149.604	-19.691	-0.171	-0.105
-148.589	111.278	-0.065	0.078
-147.574	92.813	-0.182	-0.204
-146.560	-93.374	-0.161	-0.044
-145.545	-32.020	0.147	-0.082
-144.531	-105.997	0.031	0.007
-143.516	55.871	0.152	0.147
-142.502	-80.759	-0.074	0.024
-141.487	-6.948	-0.153	-0.103
-140.472	-18.399	0.197	0.122
-139.458	233.452	0.148	-0.241
-138.443	800.000	-0.041	0.149
-137.429	-200.000	-0.040	-0.271
-136.414	-89.818	-0.325	-0.094
-135.399	40.260	0.203	0.181
-134.385	-60.989	0.122	-0.051
-133.370	-35.476	0.150	0.081
-132.356	25.512	-0.124	0.102
-131.341	-111.456	0.134	-0.027
-130.326	589.235	0.053	0.129
-129.312	-85.984	0.061	-0.019
-128.297	800.000	0.023	-0.089
-127.283	-82.236	-0.739	-0.239
-126.268	55.704	0.215	-0.207
-125.253	201.475	0.087	0.134
-124.239	247.853	0.154	0.258
-123.224	34.462	0.148	-0.128
-122.210	-200.000	-0.038	0.313
-121.195	800.000	-0.040	0.170
-120.180	-67.964	0.166	0.064
-119.166	-200.000	-0.016	0.092
-118.151	108.247	-0.065	0.077
-117.137	173.998	0.075	0.107
-116.122	800.000	-0.097	-0.349
-115.107	800.000	-0.048	-0.205
-114.093	800.000	0.070	0.232
-113.078	-93.028	0.152	-0.042
-112.064	37.074	-0.091	-0.080
-111.049	-141.867	-0.185	-0.018
-110.034	0.962	0.029	-0.020
-109.020	-1.576	0.108	0.075
-108.005	-200.000	-0.043	0.256
-106.991	-200.000	0.022	-0.231
-105.976	800.000	0.076	0.264
-104.962	25.620	0.088	0.073
-103.947	800.000	0.044	0.149
-102.932	800.000	-0.031	0.120
-101.918	-140.397	-0.129	-0.013
-100.903	800.000	0.040	0.166
-99.889	800.000	-0.036	0.116
-98.874	328.319	0.056	0.107
-97.859	-200.000	-0.022	-0.099
-96.845	800.000	-0.133	-0.413
-95.830	144.254	-0.290	0.383
-94.816	-200.000	-0.004	-0.056
-93.801	-18.480	-0.195	-0.121
-92.786	40.982	-0.293	-0.262
-91.772	131.117	-0.121	-0.154
-90.757	-131.104	0.211	0.028
-89.743	800.000	0.021	-0.079
-88.728	800.000	-0.039	-0.111
-87.713	207.906	0.109	0.168
-86.699	-73.090	0.120	0.043
-85.684	582.775	0.041	0.099
-84.670	-200.000	-0.020	0.194
-83.655	382.480	-0.123	0.250
-82.640	655.466	0.072	-0.184
-81.626	105.305	0.176	0.205
-80.611	-79.559	-0.083	0.028
-79.597	-200.000	-0.065	-0.490
-78.582	-162.430	-0.562	0.028
-77.567	2.098	0.199	0.142
-76.553	-200.000	-0.020	-0.231
-75.538	-66.613	0.336	-0.132
-74.524	-158.058	0.102	-0.006
-73.509	122.437	0.171	-0.211
-72.494	-38.389	0.100	-0.052
-71.480	-57.110	0.265	-0.116
-70.465	60.944	-0.159	-0.156
-69.451	-101.802	0.321	-0.077
-68.436	-48.843	0.327	0.155
-67.422	46.690	0.089	0.082
-66.407	-77.637	-0.038	-0.013
-65.392	-200.000	0.007	0.136
-64.378	-200.000	-0.072	-0.366
-63.363	-4.349	0.078	-0.053
-62.349	-106.294	0.198	-0.044
-61.334	15.197	-0.917	-0.711
-60.319	177.138	0.291	0.419
-59.305	800.000	-0.269	-0.894
-58.290	800.000	0.494	1.368
-57.276	495.268	0.755	1.715
-56.261	-200.000	101.160	598.707
-55.246	569.636	1413.592	3398.333
-54.232	187.671	2606.518	3846.239
-53.217	107.858	2308.133	2718.039
-52.203	37.663	2063.670	1810.823
-51.188	32.734	1977.999	1691.503
-50.173	31.154	1959.809	1661.820
-49.159	46.077	2013.185	1842.230
-48.144	47.482	2030.802	1870.973
-47.130	33.367	1990.743	1707.840
-46.115	31.050	1980.103	1677.825
-45.100	30.948	1976.826	1674.066
-44.086	30.857	1975.175	1671.789
-43.071	30.775	1972.330	1668.581
-42.057	30.767	1970.395	1666.803
-41.042	30.880	1968.623	1666.246
-40.027	30.890	1966.255	1664.270
-39.013	30.888	1964.139	1662.393
-37.998	30.942	1962.621	1661.519
-36.984	30.918	1960.734	1659.645
-35.969	30.914	1958.661	1657.787
-34.954	31.026	1957.090	1657.394
-33.940	30.923	1955.848	1655.354
-32.925	30.991	1953.922	1654.262
-31.911	31.020	1951.815	1652.669
-30.896	31.096	1950.140	1651.866
-29.881	31.026	1949.142	1650.333
-28.867	30.993	1947.691	1648.742
-27.852	31.076	1945.913	1647.905
-26.838	31.033	1944.042	1645.880
-25.823	31.143	1942.201	1645.222
-24.809	31.048	1940.561	1642.931
-23.794	30.970	1939.254	1641.074
-22.779	31.041	1937.432	1640.088
-21.765	31.052	1935.558	1638.542
-20.750	30.961	1933.935	1636.300
-19.736	30.952	1932.311	1634.781
-18.721	31.061	1930.584	1634.212
-17.706	31.075	1929.096	1633.009
-16.692	31.028	1927.343	1631.049
-15.677	31.030	1925.878	1629.759
-14.663	31.031	1924.687	1628.696
-13.648	31.029	1923.292	1627.438
-12.633	31.021	1921.810	1626.048
-11.619	30.976	1920.463	1624.448
-10.604	30.977	1919.320	1623.431
-9.590	30.941	1918.263	1622.157
-8.575	31.008	1916.537	1621.215
-7.560	31.063	1914.912	1620.258
-6.546	30.966	1914.288	1618.819
-5.531	31.033	1912.977	1618.227
-4.517	30.993	1911.610	1616.658
-3.502	30.961	1910.988	1615.797
-2.487	30.971	1909.229	1614.325
-1.473	31.024	1908.560	1614.156
-0.458	31.087	1903.228	1610.126
0.556	30.115	1883.676	1582.746
1.571	26.054	1864.922	1532.435
2.586	22.073	1887.959	1516.923
3.600	21.136	1923.557	1537.140
4.615	20.697	1917.965	1528.677
5.629	16.068	1818.224	1410.416
6.644	8.329	1702.389	1259.600
7.659	4.849	1668.008	1207.117
8.673	4.704	1664.159	1203.103
9.688	4.521	1662.846	1200.636
10.702	4.606	1661.900	1200.500
11.717	4.590	1658.607	1197.891
12.731	4.955	1657.647	1199.903
13.746	10.016	1669.409	1247.467
14.761	16.925	1684.404	1312.205
15.775	19.126	1686.670	1330.887
16.790	18.420	1683.976	1323.194
17.804	17.327	1680.701	1312.070
18.819	16.426	1677.062	1302.179
19.834	15.699	1675.263	1295.069
20.848	15.421	1673.561	1291.494
21.863	15.248	1671.627	1288.559
22.877	14.945	1670.577	1285.307
23.892	14.729	1669.459	1282.675
24.907	14.651	1667.957	1280.814
25.921	14.671	1667.047	1280.154
26.936	14.580	1666.035	1278.563
27.950	14.642	1664.896	1278.053
28.965	14.743	1664.436	1278.359
29.980	14.659	1663.962	1277.242
30.994	14.783	1663.110	1277.422
32.009	14.915	1661.563	1277.124
33.023	14.917	1660.544	1276.248
34.038	14.967	1659.679	1275.851
35.053	14.965	1658.671	1274.945
36.067	14.872	1657.287	1273.059
37.082	14.875	1656.308	1272.219
38.096	14.810	1655.535	1271.022
39.111	14.827	1654.773	1270.448
40.126	14.867	1653.830	1269.917
41.140	14.840	1652.999	1268.966
42.155	14.734	1651.235	1266.695
43.169	14.645	1650.022	1264.977
44.184	14.516	1649.147	1263.218
45.199	14.559	1647.536	1262.196
46.213	14.566	1646.529	1261.367
47.228	14.502	1645.712	1260.145
48.242	14.710	1643.979	1260.272
49.257	14.698	1643.417	1259.645
50.271	14.761	1642.009	1258.923
51.286	14.777	1640.641	1257.886
52.301	14.774	1639.168	1256.625
53.315	14.807	1637.624	1255.573
54.330	14.807	1636.067	1254.273
55.344	14.690	1634.838	1252.338
56.359	14.567	1633.902	1250.591
57.374	14.641	1632.342	1249.838
58.388	14.618	1631.316	1248.772
59.403	14.637	1629.625	1247.510
60.417	14.528	1628.658	1245.848
61.432	14.518	1627.452	1244.737
62.447	14.502	1626.424	1243.721
63.461	14.499	1625.178	1242.634
64.476	14.508	1624.004	1241.693
65.490	14.407	1622.562	1239.731
66.505	14.375	1621.934	1238.904
67.520	14.428	1621.117	1238.565
68.534	14.522	1619.817	1238.158
69.549	14.489	1618.859	1237.070
70.563	14.533	1617.477	1236.232
71.578	14.439	1616.258	1234.496
72.593	14.376	1615.439	1233.298
73.607	14.337	1614.878	1232.470
74.622	14.330	1613.465	1231.232
75.636	14.320	1612.551	1230.348
76.651	14.371	1611.509	1229.821
77.666	14.370	1610.941	1229.270
78.680	14.381	1609.885	1228.439
79.695	14.343	1609.139	1227.482
80.709	14.382	1608.416	1227.112
81.724	14.387	1607.627	1226.434
82.739	14.447	1607.014	1226.297
83.753	14.562	1605.528	1225.905
84.768	14.596	1605.138	1225.743
85.782	14.600	1604.523	1225.195
86.797	14.745	1603.698	1225.526
87.812	14.854	1602.356	1225.187
88.826	14.820	1600.984	1223.781
89.841	14.677	1600.277	1222.089
90.855	14.740	1598.749	1221.273
91.870	14.798	1597.628	1220.728
92.884	14.803	1597.646	1220.676
93.899	14.799	1595.911	1219.208
94.914	14.899	1594.809	1218.990
95.928	14.873	1593.446	1217.650
96.943	14.922	1592.301	1217.028
97.957	14.873	1590.862	1215.461
98.972	14.820	1589.372	1213.834
99.987	14.731	1587.908	1211.957
101.001	14.784	1586.270	1210.985
102.016	14.838	1585.023	1210.316
103.030	14.723	1583.465	1208.187
104.045	14.713	1582.458	1207.243
105.060	14.775	1581.031	1206.494
106.074	14.748	1579.674	1205.157
107.089	14.668	1578.040	1203.228
108.103	14.597	1576.064	1201.100
109.118	14.475	1574.681	1199.068
110.133	14.451	1573.400	1197.811
111.147	14.504	1572.133	1197.122
112.162	14.547	1570.604	1196.159
113.176	14.538	1569.283	1194.986
114.191	14.572	1568.305	1194.378
115.206	14.694	1566.944	1194.106
116.220	14.615	1565.850	1192.601
117.235	14.542	1564.299	1190.791
118.249	14.581	1563.352	1190.248
119.264	14.518	1561.916	1188.599
120.279	14.612	1560.068	1187.759
121.293	14.426	1559.213	1185.676
122.308	14.507	1557.027	1184.487
123.322	14.515	1555.719	1183.445
124.337	14.435	1554.550	1181.884
125.352	14.382	1553.258	1180.417
126.366	14.429	1552.386	1179.985
127.381	14.457	1551.239	1179.207
128.395	14.442	1550.245	1178.239
129.410	14.424	1548.662	1176.805
130.424	14.487	1547.211	1176.046
131.439	14.495	1545.970	1175.053
132.454	14.534	1544.772	1174.314
133.468	14.561	1543.366	1173.333
134.483	14.629	1541.733	1172.464
135.497	14.616	1540.137	1171.056
136.512	14.635	1539.339	1170.474
137.527	14.669	1537.833	1169.463
138.541	14.730	1536.693	1168.925
139.556	14.664	1534.966	1167.047
140.570	14.710	1533.908	1166.456
141.585	14.832	1532.291	1165.974
142.600	14.831	1531.701	1165.420
143.614	14.912	1530.264	1164.789
144.629	14.898	1529.416	1163.941
145.643	14.973	1528.098	1163.355
146.658	14.994	1526.516	1162.195
147.673	14.956	1525.452	1161.019
148.687	14.864	1523.667	1158.917
149.702	14.714	1522.101	1156.588
150.716	14.741	1520.339	1155.330
151.731	14.819	1518.716	1154.531
152.746	14.900	1517.538	1154.097
153.760	14.740	1516.748	1152.287
154.775	14.733	1515.692	1151.339
155.789	14.838	1514.171	1150.803
156.804	14.944	1512.625	1150.253
157.819	14.900	1511.897	1149.296
158.833	14.877	1510.631	1148.076
159.848	14.941	1509.933	1147.882
160.862	15.024	1508.481	1147.245
161.877	15.074	1507.453	1146.707
162.892	15.000	1506.150	1145.105
163.906	14.842	1504.848	1142.937
164.921	14.783	1503.530	1141.429
165.935	14.870	1502.735	1141.322
166.950	14.879	1501.652	1140.459
167.964	14.853	1500.623	1139.397
168.979	14.966	1499.438	1139.163
169.994	14.908	1498.745	1138.145
171.008	14.936	1497.123	1137.003
172.023	14.941	1496.226	1136.252
173.037	15.032	1494.743	1135.646
174.052	15.045	1494.400	1135.370
175.067	15.044	1493.563	1134.626
176.081	15.048	1492.081	1133.428
177.096	14.878	1491.021	1131.373
178.110	14.897	1489.340	1130.124
179.125	14.943	1487.959	1129.287
180.140	14.932	1487.199	1128.541
181.154	14.988	1486.073	1127.959
182.169	15.042	1484.771	1127.239
183.183	15.055	1483.899	1126.565
184.198	15.109	1482.740	1125.948
185.213	15.110	1482.095	1125.364
186.227	15.239	1480.789	1125.136
187.242	15.112	1480.036	1123.612
188.256	15.282	1478.981	1123.853
189.271	15.277	1477.139	1122.322
190.286	15.367	1476.431	1122.284
191.300	15.233	1475.555	1120.623
192.315	15.103	1474.182	1118.618
193.329	15.005	1472.386	1116.498
194.344	14.833	1471.863	1114.859
195.359	14.956	1470.701	1114.695
196.373	15.036	1469.506	1114.227
197.388	15.105	1468.824	1114.072
198.402	15.221	1467.536	1113.767
199.417	15.213	1466.958	1113.177
200.432	15.420	1465.873	1113.625
201.446	15.459	1464.856	1113.014
202.461	15.536	1463.614	1112.483
203.475	15.500	1462.723	1111.464
204.490	15.604	1461.433	1111.076
205.504	15.553	1460.065	1109.599
206.519	15.389	1460.151	1108.484
207.534	15.414	1458.185	1107.063
208.548	15.417	1457.212	1106.242
209.563	15.415	1456.490	1105.583
210.577	15.461	1454.893	1104.579
211.592	15.505	1454.063	1104.139
212.607	15.462	1453.501	1103.328
213.621	15.580	1452.897	1103.549
214.636	15.569	1452.372	1102.980
215.650	15.582	1450.674	1101.682
216.665	15.600	1449.666	1100.932
217.680	15.630	1449.149	1100.644
218.694	15.658	1448.931	1100.558
219.709	15.668	1447.527	1099.465
220.723	15.761	1446.719	1099.362
221.738	15.699	1445.794	1098.156
222.753	15.753	1444.736	1097.608
223.767	15.648	1444.227	1096.434
224.782	15.697	1443.319	1095.971
225.796	15.841	1442.029	1095.830
226.811	15.881	1440.850	1095.096
227.826	15.856	1440.530	1094.597
228.840	15.792	1439.625	1093.398
229.855	15.757	1438.404	1092.141
230.869	15.751	1437.830	1091.574
231.884	15.868	1436.277	1091.055
232.899	15.787	1435.294	1089.687
233.913	15.792	1433.740	1088.442
234.928	15.694	1432.882	1087.062
235.942	15.591	1431.845	1085.512
236.957	15.648	1430.604	1084.843
237.972	15.708	1429.568	1084.348
238.986	15.690	1428.192	1083.095
240.001	15.737	1427.528	1082.800
241.015	15.739	1426.692	1082.084
242.030	15.758	1425.397	1081.125
243.045	15.713	1424.795	1080.281
244.059	15.769	1423.697	1079.718
245.074	15.777	1423.035	1079.171
246.088	15.891	1422.077	1079.078
247.103	15.834	1421.222	1077.967
248.117	15.908	1420.431	1077.750
249.132	16.066	1419.633	1078.058
250.147	16.041	1419.513	1077.710
251.161	16.137	1418.698	1077.612
252.176	16.260	1417.574	1077.444
253.190	16.264	1417.075	1076.999
254.205	16.284	1416.300	1076.439
255.220	16.332	1415.761	1076.240
256.234	16.401	1414.450	1075.587
257.249	16.404	1413.771	1074.993
258.263	16.418	1412.883	1074.311
259.278	16.418	1412.138	1073.655
260.293	16.382	1411.144	1072.571
261.307	16.356	1410.111	1071.529
262.322	16.442	1409.732	1071.691
263.336	16.552	1408.943	1071.695
264.351	16.630	1407.653	1071.113
265.366	16.558	1407.392	1070.359
266.380	16.563	1405.992	1069.234
267.395	16.589	1405.517	1068.942
268.409	16.686	1404.523	1068.702
269.424	16.532	1403.389	1066.774
270.439	16.515	1402.351	1065.786
271.453	16.555	1401.101	1064.994
272.468	16.507	1400.133	1063.860
273.482	16.486	1399.534	1063.179
274.497	16.425	1399.041	1062.331
275.512	16.459	1398.357	1061.930
276.526	16.438	1397.084	1060.735
277.541	16.515	1396.201	1060.453
278.555	16.512	1395.062	1059.475
279.570	16.471	1394.583	1058.764
280.585	16.576	1393.670	1058.633
281.599	16.585	1392.738	1057.884
282.614	16.696	1391.860	1057.822
283.628	16.709	1390.685	1056.913
284.643	16.575	1389.712	1055.242
285.657	16.582	1388.728	1054.449
286.672	16.532	1387.933	1053.442
287.687	16.677	1386.827	1053.410
288.701	16.730	1385.423	1052.578
289.716	16.705	1384.771	1051.838
290.730	16.636	1384.553	1051.146
291.745	16.651	1383.612	1050.434
292.760	16.778	1382.235	1050.081
293.774	16.804	1381.275	1049.424
294.789	16.763	1380.258	1048.301
295.803	16.853	1379.422	1048.129
296.818	16.915	1378.502	1047.724
297.833	16.799	1377.876	1046.439
298.847	16.747	1376.830	1045.232
299.862	16.771	1375.547	1044.310
300.876	16.775	1374.515	1043.461
301.891	16.771	1374.018	1042.963
302.906	16.860	1373.245	1042.833
303.920	16.910	1372.260	1042.301
304.935	16.904	1371.751	1041.784
305.949	16.947	1371.219	1041.556
306.964	17.026	1370.325	1041.270
307.979	17.142	1368.963	1040.852
308.993	17.057	1368.247	1039.694
310.008	17.036	1366.968	1038.500
311.022	17.057	1366.363	1038.077
312.037	17.146	1365.307	1037.727
313.052	17.104	1364.428	1036.710
314.066	17.215	1363.215	1036.376
315.081	17.035	1362.498	1034.642
316.095	16.995	1360.962	1033.141
317.110	16.922	1360.355	1032.145
318.125	17.014	1358.784	1031.421
319.139	16.952	1358.177	1030.492
320.154	16.948	1357.329	1029.733
321.168	16.995	1355.903	1028.844
322.183	16.937	1355.198	1027.865
323.197	17.066	1354.504	1028.033
324.212	17.054	1353.543	1027.139
325.227	17.097	1352.772	1026.722
326.241	17.131	1351.914	1026.184
327.256	17.038	1351.316	1025.080
328.270	17.127	1350.190	1024.671
329.285	17.110	1349.257	1023.767
330.300	17.065	1348.157	1022.572
331.314	17.199	1347.365	1022.688
332.329	17.136	1346.481	1021.551
333.343	17.209	1345.316	1021.013
334.358	17.133	1344.626	1019.945
335.373	17.168	1344.067	1019.639
336.387	17.176	1343.899	1019.471
337.402	17.316	1342.543	1019.192
338.416	17.338	1341.608	1018.518
339.431	17.351	1341.295	1018.271
340.446	17.437	1340.607	1018.175
341.460	17.437	1339.542	1017.273
342.475	17.461	1338.845	1016.800
343.489	17.540	1337.798	1016.385
344.504	17.536	1337.130	1015.765
345.519	17.622	1336.360	1015.601
346.533	17.645	1335.240	1014.800
347.548	17.694	1334.144	1014.169
348.562	17.728	1333.274	1013.617
349.577	17.735	1332.567	1013.032
350.592	17.635	1332.013	1011.925
351.606	17.543	1330.943	1010.480
352.621	17.528	1330.140	1009.691
353.635	17.470	1328.867	1008.291
354.650	17.385	1327.886	1006.953
355.665	17.554	1326.781	1007.029
356.679	17.494	1326.139	1006.094
357.694	17.540	1324.833	1005.291
358.708	17.570	1323.728	1004.535
359.723	17.597	1322.720	1003.844
360.738	17.637	1321.514	1003.072
361.752	17.677	1320.267	1002.273
362.767	17.611	1319.439	1001.168
363.781	17.691	1318.591	1000.904
364.796	17.708	1318.354	1000.738
365.810	17.732	1317.360	1000.034
366.825	17.827	1316.723	1000.021
367.840	17.840	1316.048	999.493
368.854	17.914	1315.238	999.227
369.869	17.951	1315.057	999.214
370.883	18.029	1314.147	998.890
371.898	18.012	1313.405	998.141
372.913	17.991	1312.295	997.088
373.927	17.847	1311.841	995.814
374.942	17.899	1310.908	995.319
375.956	17.963	1310.226	995.087
376.971	18.094	1309.044	994.862
377.986	17.992	1308.229	993.563
379.000	18.014	1307.759	993.244
380.015	18.070	1307.047	992.944
381.029	18.115	1306.621	992.791
382.044	18.288	1305.515	992.865
383.059	18.188	1304.893	991.724
384.073	18.253	1304.157	991.453
385.088	18.166	1303.470	990.343
386.102	18.234	1302.449	989.871
387.117	18.283	1301.857	989.616
388.132	18.223	1301.027	988.554
389.146	18.085	1300.351	987.152
390.161	18.035	1299.806	986.365
391.175	18.069	1298.577	985.544
392.190	18.187	1297.708	985.473
393.205	18.264	1296.733	985.092
394.219	18.297	1295.597	984.331
395.234	18.274	1294.647	983.390
396.248	18.210	1293.637	982.166
397.263	18.321	1291.950	981.437
398.278	18.213	1290.917	979.947
399.292	18.164	1289.595	978.574
400.307	18.078	1288.560	977.213
401.321	18.024	1287.731	976.185
402.336	18.080	1286.690	975.634
403.350	18.084	1285.943	975.004
404.365	18.075	1285.088	974.216
405.380	18.089	1284.161	973.507
406.394	18.286	1282.987	973.653
407.409	18.321	1282.680	973.533
408.423	18.238	1282.451	972.798
409.438	18.454	1281.148	972.949
410.453	18.428	1280.144	971.956
411.467	18.377	1280.131	971.569
412.482	18.442	1279.651	971.488
413.496	18.562	1278.611	971.294
414.511	18.500	1278.089	970.461
415.526	18.704	1277.068	970.750
416.540	18.666	1276.555	970.061
417.555	18.716	1275.795	969.680
418.569	18.694	1275.679	969.380
419.584	18.736	1274.814	968.878
420.599	18.688	1273.626	967.617
421.613	141.163	1432.452	1798.847
422.628	135.750	1455.567	1798.961
