DTS Sentinel unit serial number:	SN413079Multiplexer serial number:	ORYXHardware model number:	OX4-SRSoftware version number:	ORYX F/W v4.00 Oryx Data Collector v3.7.2.0data status	okinstallation	princeton_trtdifferential loss correction	single-endedforward channel	channel 4reverse channel	N/Adate	2019/09/18time	02:37:35forward acquisition time	60.00reverse acquisition time	0.00gamma	496.2192k internal	0.2335k external	0.2335temperature offset calibration	0.9996default loss term (dB/km)	0.3790temperature slope calibration	1.0000multiplexer offset coefficient	1.0000multiplexer slope coefficient	1.0000fibre end	0.00T internal ref (°C)	22.80T ext. ref 1 (°C)	0.17T ext. ref 2 (°C)	16.75length (m)	temperature (°C)	Stokes	anti-Stokes-747.200	-162.314	0.300	0.015
-746.185	-163.800	-0.259	-0.012
-745.171	-136.733	-0.176	-0.020
-744.156	-200.000	0.009	0.130
-743.142	-55.146	0.125	-0.056
-742.127	-200.000	-0.004	-0.059
-741.112	-200.000	-0.000	-0.080
-740.098	-16.946	-0.430	-0.273
-739.083	-200.000	-0.028	-0.254
-738.069	-66.021	-0.481	0.193
-737.054	321.462	-0.124	0.237
-736.039	-31.599	-0.205	-0.116
-735.025	-118.289	-0.014	-0.002
-734.010	562.976	-0.056	-0.135
-732.996	314.093	-0.060	-0.113
-731.981	11.596	0.087	-0.067
-730.966	642.584	-0.064	0.164
-729.952	-200.000	0.002	-0.087
-728.937	-135.432	-0.185	0.022
-727.923	800.000	0.060	-0.172
-726.908	-12.413	-0.306	-0.201
-725.894	14.481	0.342	0.268
-724.879	-25.427	0.270	0.160
-723.864	46.018	0.033	0.030
-722.850	-36.537	-0.193	-0.104
-721.835	41.263	-0.126	0.114
-720.821	-200.000	0.014	-0.151
-719.806	433.319	-0.079	-0.172
-718.791	237.153	0.048	-0.079
-717.777	-17.020	0.053	0.034
-716.762	100.913	0.108	0.126
-715.748	-6.394	0.106	0.073
-714.733	85.232	0.106	-0.117
-713.718	-67.318	-0.143	0.056
-712.704	-14.104	0.038	-0.025
-711.689	13.292	0.128	-0.100
-710.675	83.703	0.350	-0.383
-709.660	-62.519	0.031	-0.013
-708.645	-17.021	-0.120	0.076
-707.631	119.077	0.058	-0.072
-706.616	-115.720	0.178	0.034
-705.602	800.000	0.055	-0.196
-704.587	-200.000	-0.022	0.290
-703.572	-103.091	0.420	0.100
-702.558	412.076	0.047	-0.100
-701.543	54.487	-0.145	-0.140
-700.529	-200.000	-0.032	-0.186
-699.514	-200.000	0.001	-0.311
-698.499	-110.079	-0.379	0.079
-697.485	-85.642	-0.024	-0.008
-696.470	-149.573	-0.156	0.012
-695.456	71.922	0.234	0.244
-694.441	-170.270	-0.196	-0.007
-693.426	-38.258	0.217	0.115
-692.412	93.971	0.107	0.122
-691.397	-116.301	-0.304	-0.056
-690.383	-168.006	-0.306	-0.012
-689.368	-45.024	0.114	-0.057
-688.354	-10.084	-0.277	-0.184
-687.339	298.288	-0.090	0.166
-686.324	800.000	-0.038	-0.143
-685.310	-109.509	-0.087	0.018
-684.295	201.845	-0.236	-0.365
-683.281	-200.000	0.057	0.293
-682.266	128.410	0.019	0.024
-681.251	201.807	0.080	0.124
-680.237	298.755	-0.056	0.103
-679.222	-138.728	0.036	0.004
-678.208	-200.000	-0.082	-0.491
-677.193	-88.357	-0.087	-0.026
-676.178	220.859	-0.059	0.095
-675.164	332.451	-0.037	-0.072
-674.149	800.000	0.025	-0.094
-673.135	77.752	-0.126	-0.135
-672.120	-123.600	0.359	0.057
-671.105	236.248	0.244	0.405
-670.091	296.020	-0.105	-0.193
-669.076	-157.812	0.251	0.015
-668.062	16.322	0.167	-0.132
-667.047	-40.230	-0.107	-0.056
-666.032	-171.366	0.098	0.003
-665.018	12.000	0.203	-0.156
-664.003	-46.182	0.328	0.162
-662.989	155.742	-0.176	-0.243
-661.974	-18.751	-0.122	0.076
-660.959	387.975	0.117	-0.243
-659.945	70.285	0.094	0.098
-658.930	-127.291	-0.305	0.045
-657.916	800.000	0.060	0.171
-656.901	242.482	0.130	-0.218
-655.886	-127.723	0.109	-0.016
-654.872	-21.278	0.156	-0.096
-653.857	53.166	-0.087	-0.084
-652.843	-81.660	0.193	-0.063
-651.828	-132.438	-0.246	-0.032
-650.814	32.313	0.290	-0.251
-649.799	394.360	-0.107	-0.223
-648.784	20.602	0.142	-0.115
-647.770	44.393	-0.103	-0.095
-646.755	3.163	-0.169	0.123
-645.741	73.175	0.080	0.083
-644.726	800.000	-0.070	0.195
-643.711	8.709	0.035	-0.026
-642.697	-18.409	-0.192	-0.120
-641.682	70.235	0.150	0.155
-640.668	327.841	-0.118	-0.227
-639.653	113.259	-0.068	0.083
-638.638	800.000	0.020	-0.067
-637.624	800.000	-0.060	-0.215
-636.609	232.892	0.146	0.240
-635.595	-200.000	0.001	0.350
-634.580	-200.000	0.007	-0.077
-633.565	-91.696	-0.197	-0.056
-632.551	-81.725	-0.093	-0.030
-631.536	-109.053	0.172	-0.037
-630.522	-37.084	0.179	0.096
-629.507	-85.912	-0.159	0.049
-628.492	-56.462	0.155	-0.069
-627.478	-41.209	0.225	-0.116
-626.463	28.293	-0.357	0.302
-625.449	223.418	0.062	-0.100
-624.434	-147.798	0.235	-0.020
-623.419	330.552	-0.010	-0.020
-622.405	504.736	-0.105	-0.243
-621.390	-150.064	0.305	0.024
-620.376	-200.000	-0.022	0.145
-619.361	43.922	-0.345	-0.316
-618.346	134.242	-0.163	0.211
-617.332	19.532	0.281	0.226
-616.317	1.115	0.011	-0.008
-615.303	-77.857	-0.028	0.010
-614.288	-0.614	-0.134	-0.095
-613.273	429.650	0.041	-0.088
-612.259	-54.529	0.344	0.156
-611.244	-134.454	-0.146	-0.018
-610.230	-15.750	0.096	0.061
-609.215	184.127	-0.103	-0.153
-608.201	61.753	0.113	0.112
-607.186	-65.564	-0.340	-0.136
-606.171	-86.798	0.190	-0.058
-605.157	-131.502	-0.080	-0.010
-604.142	586.164	0.051	0.124
-603.128	800.000	-0.094	0.284
-602.113	800.000	0.060	0.218
-601.098	-117.713	-0.214	0.039
-600.084	144.872	0.137	0.183
-599.069	-200.000	0.000	-0.031
-598.055	618.056	0.041	-0.103
-597.040	-104.856	-0.271	-0.062
-596.025	-108.457	0.411	0.088
-595.011	-152.623	0.098	0.007
-593.996	183.009	0.147	-0.217
-592.982	-22.552	0.401	0.242
-591.967	800.000	0.094	0.366
-590.952	-200.000	0.019	-0.367
-589.938	29.658	-0.292	-0.248
-588.923	109.862	0.114	-0.137
-587.909	-121.000	-0.133	0.022
-586.894	38.440	0.239	-0.213
-585.879	584.860	0.139	-0.342
-584.865	-191.707	-0.102	-0.001
-583.850	-20.110	-0.256	0.158
-582.836	270.976	0.116	0.203
-581.821	800.000	0.084	0.250
-580.806	42.940	-0.099	-0.091
-579.792	-86.773	0.183	-0.056
-578.777	120.701	0.184	0.228
-577.763	178.824	-0.131	-0.191
-576.748	123.372	-0.280	-0.351
-575.733	-69.260	0.095	-0.037
-574.719	-62.820	0.243	0.100
-573.704	94.554	-0.073	-0.083
-572.690	65.654	-0.058	0.058
-571.675	-200.000	0.048	0.522
-570.661	-200.000	0.029	0.146
-569.646	743.617	0.052	-0.140
-568.631	-158.975	-0.186	0.011
-567.617	-98.287	0.363	-0.093
-566.602	51.913	-0.105	-0.099
-565.588	167.948	0.133	0.189
-564.573	-200.000	0.025	-0.139
-563.558	752.246	0.118	0.319
-562.544	799.004	0.102	0.280
-561.529	-83.727	-0.224	-0.071
-560.515	206.984	-0.174	0.270
-559.500	-4.926	0.111	0.076
-558.485	-47.007	0.084	0.041
-557.471	140.444	0.122	-0.160
-556.456	-55.785	0.155	-0.069
-555.442	-13.781	0.353	0.228
-554.427	-75.331	-0.180	-0.064
-553.412	-200.000	0.008	-0.344
-552.398	-111.195	-0.268	0.055
-551.383	-149.887	-0.140	0.011
-550.369	122.757	0.059	0.073
-549.354	800.000	-0.042	0.146
-548.339	-101.699	-0.404	0.098
-547.325	486.294	-0.025	0.058
-546.310	-200.000	0.026	-0.185
-545.296	25.293	0.223	-0.185
-544.281	-157.447	-0.231	0.014
-543.266	140.690	-0.122	-0.161
-542.252	32.317	-0.113	-0.097
-541.237	-200.000	0.017	-0.217
-540.223	-153.923	0.191	-0.013
-539.208	19.644	-0.094	0.075
-538.193	-9.221	-0.295	-0.196
-537.179	155.988	-0.130	0.178
-536.164	535.758	0.139	0.330
-535.150	-200.000	-0.193	0.000
-534.135	341.583	-0.155	-0.301
-533.121	-8.485	0.073	0.049
-532.106	-73.718	-0.223	-0.081
-531.091	800.000	-0.126	-0.442
-530.077	415.206	0.095	0.201
-529.062	186.763	-0.141	-0.209
-528.048	-63.699	-0.245	0.100
-527.033	15.245	-0.181	0.142
-526.018	-200.000	-0.005	0.303
-525.004	313.343	-0.080	0.149
-523.989	-80.518	-0.511	-0.170
-522.975	61.022	0.342	-0.338
-521.960	-172.358	-0.419	-0.013
-520.945	224.277	-0.077	-0.124
-519.931	800.000	0.011	-0.034
-518.916	-15.248	-0.324	0.207
-517.902	800.000	0.048	-0.186
-516.887	50.705	0.046	0.043
-515.872	-95.588	-0.276	-0.074
-514.858	-200.000	0.025	0.198
-513.843	-200.000	0.007	0.157
-512.829	89.436	-0.071	-0.078
-511.814	180.978	0.120	0.176
-510.799	248.257	0.144	-0.243
-509.785	158.615	0.099	0.137
-508.770	5.390	-0.063	0.046
-507.756	27.620	-0.269	0.225
-506.741	-200.000	-0.044	0.287
-505.726	-200.000	-0.031	0.180
-504.712	281.206	0.111	-0.198
-503.697	-99.805	0.173	-0.043
-502.683	-110.723	-0.055	0.011
-501.668	126.239	0.197	0.249
-500.653	247.467	-0.190	-0.320
-499.639	-200.000	0.025	0.182
-498.624	-77.663	-0.121	-0.042
-497.610	102.105	0.233	-0.271
-496.595	111.229	0.072	0.086
-495.581	303.596	0.167	-0.308
-494.566	-108.099	-0.283	-0.061
-493.551	335.910	-0.129	0.250
-492.537	-75.565	0.130	-0.046
-491.522	82.870	0.219	-0.237
-490.508	-45.719	0.339	0.167
-489.493	341.462	0.069	0.135
-488.478	-200.000	-0.015	0.269
-487.464	-145.758	-0.212	-0.019
-486.449	-69.938	0.323	0.122
-485.435	431.277	0.132	-0.284
-484.420	800.000	0.026	0.079
-483.405	13.851	-0.075	-0.058
-482.391	660.202	0.046	-0.118
-481.376	483.400	-0.068	-0.155
-480.362	-13.091	0.431	-0.278
-479.347	-200.000	-0.009	-0.042
-478.332	800.000	0.043	0.131
-477.318	651.368	-0.034	0.086
-476.303	109.106	0.182	-0.217
-475.289	91.805	0.105	0.118
-474.274	-200.000	0.000	-0.296
-473.259	-64.109	-0.253	-0.103
-472.245	2.038	-0.311	0.223
-471.230	800.000	0.044	-0.132
-470.216	800.000	-0.079	0.223
-469.201	-169.047	0.161	0.006
-468.186	546.593	-0.098	-0.233
-467.172	-186.126	0.257	0.004
-466.157	800.000	-0.057	0.185
-465.143	800.000	0.023	-0.065
-464.128	203.655	-0.173	-0.266
-463.113	109.710	-0.206	-0.245
-462.099	-145.377	-0.206	0.018
-461.084	2.760	-0.076	-0.055
-460.070	-23.259	-0.299	0.179
-459.055	341.699	0.181	0.352
-458.040	50.798	-0.232	0.219
-457.026	-80.380	-0.321	-0.106
-456.011	-158.603	0.276	-0.016
-454.997	800.000	0.036	-0.126
-453.982	683.662	0.091	0.235
-452.968	39.988	0.129	0.116
-451.953	-96.632	-0.188	-0.049
-450.938	-190.288	0.309	-0.003
-449.924	-73.651	-0.025	-0.009
-448.909	217.893	-0.196	-0.310
-447.895	-28.337	-0.152	0.087
-446.880	-177.254	-0.077	-0.002
-445.865	800.000	0.056	-0.165
-444.851	135.071	-0.106	0.137
-443.836	800.000	0.031	-0.123
-442.822	-200.000	-0.025	0.180
-441.807	-32.506	0.146	-0.081
-440.792	103.882	0.129	-0.150
-439.778	-49.513	-0.371	0.175
-438.763	46.952	0.014	-0.013
-437.749	11.322	-0.126	0.096
-436.734	-200.000	0.015	0.245
-435.719	7.084	-0.136	0.101
-434.705	-200.000	-0.013	-0.061
-433.690	-200.000	0.001	0.077
-432.676	270.576	0.107	0.188
-431.661	-51.314	0.264	-0.123
-430.646	67.904	-0.285	0.290
-429.632	-164.220	0.070	0.003
-428.617	-200.000	0.036	0.278
-427.603	-99.627	0.116	-0.029
-426.588	400.675	-0.121	-0.251
-425.573	270.959	-0.114	-0.200
-424.559	543.154	0.123	-0.292
-423.544	800.000	0.053	0.151
-422.530	133.952	-0.101	-0.130
-421.515	-110.573	0.275	-0.057
-420.500	-200.000	-0.001	-0.011
-419.486	-24.342	-0.113	-0.067
-418.471	26.672	-0.066	-0.055
-417.457	-200.000	-0.034	-0.190
-416.442	-18.447	0.115	0.071
-415.428	-114.098	0.111	0.021
-414.413	-200.000	-0.006	0.238
-413.398	-93.164	0.238	-0.066
-412.384	5.247	-0.258	-0.188
-411.369	-28.505	-0.249	0.143
-410.355	-67.297	0.069	0.027
-409.340	239.666	-0.191	-0.315
-408.325	-90.107	-0.346	0.100
-407.311	-138.681	-0.419	-0.045
-406.296	-75.416	0.222	0.078
-405.282	-200.000	0.002	0.298
-404.267	-78.764	-0.165	0.056
-403.252	800.000	-0.077	0.221
-402.238	266.665	-0.203	0.352
-401.223	-92.865	-0.238	-0.066
-400.209	-142.295	0.456	0.045
-399.194	-34.234	0.100	0.055
-398.179	55.099	-0.161	0.155
-397.165	229.471	0.075	-0.121
-396.150	-55.516	0.289	-0.128
-395.136	800.000	-0.100	-0.320
-394.121	348.902	0.032	-0.062
-393.106	-64.215	-0.242	0.098
-392.092	800.000	-0.053	-0.200
-391.077	14.970	-0.193	0.150
-390.063	76.520	0.280	-0.295
-389.048	800.000	-0.023	0.086
-388.033	-60.924	0.249	-0.104
-387.019	445.763	-0.167	-0.363
-386.004	318.291	-0.123	0.231
-384.990	188.821	0.102	0.151
-383.975	-200.000	-0.001	0.043
-382.960	18.561	0.153	-0.121
-381.946	-70.608	0.177	0.066
-380.931	-30.386	0.278	0.156
-379.917	-42.083	-0.200	-0.101
-378.902	-145.796	0.159	-0.014
-377.888	417.755	0.050	-0.107
-376.873	51.633	-0.268	0.253
-375.858	-119.449	0.132	0.023
-374.844	-200.000	0.001	0.242
-373.829	434.145	-0.128	-0.275
-372.815	-200.000	-0.019	0.275
-371.800	-31.602	0.306	0.170
-370.785	37.949	-0.099	0.088
-369.771	-115.184	0.040	0.008
-368.756	-200.000	0.051	0.252
-367.742	-80.023	-0.214	-0.071
-366.727	-111.295	-0.057	0.012
-365.712	-31.056	-0.286	0.160
-364.698	119.787	0.083	-0.102
-363.683	446.147	0.063	0.137
-362.669	-59.366	0.364	0.155
-361.654	189.490	-0.113	-0.167
-360.639	-200.000	0.056	0.348
-359.625	-200.000	0.042	-0.231
-358.610	46.406	0.291	-0.267
-357.596	-200.000	-0.007	-0.058
-356.581	-194.572	-0.239	0.002
-355.566	225.319	-0.042	0.067
-354.552	86.093	0.143	0.156
-353.537	60.642	0.102	-0.100
-352.523	211.122	0.196	0.305
-351.508	-115.896	-0.202	0.037
-350.493	22.503	0.064	-0.051
-349.479	-200.000	0.004	-0.262
-348.464	112.259	-0.092	-0.111
-347.450	-172.985	0.209	0.006
-346.435	-37.982	-0.138	0.072
-345.420	-58.657	-0.059	-0.025
-344.406	-200.000	0.012	0.255
-343.391	-96.791	0.273	0.071
-342.377	9.651	-0.266	0.199
-341.362	-200.000	0.009	-0.059
-340.348	-18.444	-0.512	-0.316
-339.333	3.271	0.250	-0.180
-338.318	0.262	-0.184	0.130
-337.304	-97.207	0.230	-0.059
-336.289	-200.000	0.028	0.273
-335.275	18.190	-0.040	-0.032
-334.260	291.967	-0.103	0.185
-333.245	-132.542	-0.127	-0.016
-332.231	490.231	0.097	-0.219
-331.216	27.803	0.185	0.155
-330.202	515.360	-0.093	-0.215
-329.187	74.971	-0.299	-0.312
-328.172	800.000	0.016	-0.049
-327.158	0.910	0.018	-0.013
-326.143	244.443	-0.119	0.198
-325.129	-114.332	0.217	0.041
-324.114	800.000	0.099	0.284
-323.099	202.287	0.124	-0.190
-322.085	126.936	-0.141	0.176
-321.070	-200.000	-0.004	-0.097
-320.056	119.850	-0.264	0.323
-319.041	-63.206	-0.180	-0.073
-318.026	-66.165	-0.280	-0.110
-317.012	18.721	0.388	-0.307
-315.997	770.894	0.106	0.286
-314.983	224.261	0.049	0.079
-313.968	276.610	-0.082	0.144
-312.953	-105.611	0.400	0.090
-311.939	-87.708	-0.116	0.035
-310.924	165.597	-0.077	-0.108
-309.910	184.652	-0.012	-0.018
-308.895	152.080	0.152	-0.205
-307.880	-33.248	0.283	-0.155
-306.866	39.642	-0.165	-0.146
-305.851	21.761	0.240	-0.193
-304.837	-124.640	0.141	0.022
-303.822	564.739	-0.196	-0.470
-302.807	244.097	-0.169	0.279
-301.793	-72.538	-0.138	0.050
-300.778	-200.000	-0.003	-0.113
-299.764	88.959	0.177	0.195
-298.749	800.000	-0.016	0.055
-297.735	-200.000	0.027	-0.121
-296.720	800.000	0.061	0.173
-295.705	-130.342	0.451	-0.060
-294.691	-47.135	-0.187	0.090
-293.676	800.000	-0.116	-0.446
-292.662	-199.375	0.149	0.001
-291.647	-102.974	0.105	-0.025
-290.632	800.000	0.068	-0.221
-289.618	800.000	0.065	-0.228
-288.603	164.729	-0.194	-0.271
-287.589	800.000	0.053	-0.169
-286.574	6.242	0.113	0.083
-285.559	-30.276	0.169	0.095
-284.545	69.200	-0.339	0.344
-283.530	21.058	0.247	0.197
-282.516	-93.886	-0.233	0.063
-281.501	-200.000	0.005	-0.033
-280.486	95.532	-0.134	-0.151
-279.472	-200.000	-0.118	0.565
-278.457	29.671	0.149	-0.125
-277.443	-200.000	0.021	-0.091
-276.428	0.504	-0.252	-0.178
-275.413	-200.000	-0.011	0.055
-274.399	-142.413	0.131	-0.013
-273.384	-51.582	0.162	-0.074
-272.370	-200.000	0.098	0.533
-271.355	-200.000	-0.074	0.428
-270.340	156.835	-0.184	0.251
-269.326	80.926	-0.269	0.287
-268.311	96.445	-0.088	-0.100
-267.297	38.548	-0.280	-0.246
-266.282	177.174	-0.053	-0.077
-265.267	158.351	0.036	-0.049
-264.253	226.049	-0.089	0.143
-263.238	83.006	-0.183	0.196
-262.224	-57.496	-0.049	0.021
-261.209	384.573	-0.158	0.320
-260.195	551.060	-0.077	0.181
-259.180	-88.765	-0.203	-0.059
-258.165	-111.861	-0.350	-0.070
-257.151	-48.452	0.192	-0.091
-256.136	-6.567	-0.126	-0.085
-255.122	97.040	-0.071	-0.080
-254.107	-200.000	0.021	0.136
-253.092	188.330	-0.050	-0.074
-252.078	-14.647	0.226	0.143
-251.063	800.000	0.058	0.168
-250.049	-132.550	-0.351	-0.044
-249.034	24.406	-0.109	0.089
-248.019	178.613	0.224	-0.322
-247.005	3.252	0.093	-0.066
-245.990	800.000	0.015	-0.052
-244.976	-38.808	0.161	-0.084
-243.961	143.602	-0.149	-0.196
-242.946	-95.369	0.051	-0.013
-241.932	149.007	0.248	-0.331
-240.917	-200.000	-0.026	-0.268
-239.903	138.892	0.164	-0.212
-238.888	-65.420	0.079	-0.031
-237.873	202.165	-0.040	0.061
-236.859	464.236	-0.058	-0.129
-235.844	-200.000	-0.005	0.361
-234.830	-200.000	-0.005	0.191
-233.815	13.581	0.206	-0.158
-232.800	37.270	0.096	-0.084
-231.786	-200.000	-0.036	-0.198
-230.771	26.147	0.247	-0.203
-229.757	-130.374	0.213	-0.028
-228.742	800.000	-0.099	-0.337
-227.727	-38.434	-0.210	0.109
-226.713	-140.586	0.268	0.027
-225.698	30.418	-0.123	0.104
-224.684	337.178	-0.146	-0.280
-223.669	-136.428	0.274	-0.031
-222.655	21.467	0.070	0.056
-221.640	541.616	0.168	0.394
-220.625	-154.292	0.137	-0.009
-219.611	-75.093	-0.140	-0.049
-218.596	-28.887	-0.065	-0.037
-217.582	-200.000	0.023	-0.124
-216.567	12.338	0.245	0.186
-215.552	800.000	0.115	0.478
-214.538	90.193	0.156	-0.172
-213.523	-7.092	-0.208	-0.139
-212.509	-16.969	-0.099	-0.062
-211.494	-200.000	0.035	0.222
-210.479	230.912	-0.211	-0.341
-209.465	-19.489	-0.249	0.152
-208.450	600.403	-0.009	0.022
-207.436	800.000	-0.070	-0.294
-206.421	88.412	0.174	-0.190
-205.406	-35.481	0.109	0.058
-204.392	-90.165	0.281	-0.080
-203.377	-134.041	0.299	-0.036
-202.363	-144.462	-0.305	-0.028
-201.348	-102.903	-0.128	0.030
-200.333	72.220	0.303	-0.310
-199.319	32.206	-0.226	0.192
-198.304	-130.468	-0.273	-0.036
-197.290	422.777	-0.095	0.201
-196.275	-200.000	-0.002	0.167
-195.260	800.000	0.056	0.161
-194.246	-77.498	-0.196	0.067
-193.231	-27.711	0.209	0.119
-192.217	-40.306	0.104	0.053
-191.202	458.389	-0.076	0.166
-190.187	-94.614	0.071	0.019
-189.173	6.980	0.046	-0.033
-188.158	-200.000	-0.057	-0.449
-187.144	5.563	0.227	0.165
-186.129	-25.210	-0.026	0.015
-185.114	88.453	0.238	0.260
-184.100	-13.413	-0.079	-0.050
-183.085	-96.687	0.277	0.072
-182.071	-200.000	0.026	-0.232
-181.056	-9.496	-0.115	0.076
-180.042	310.902	-0.066	-0.121
-179.027	-63.218	0.333	-0.135
-178.012	-200.000	0.085	-0.458
-176.998	3.964	0.219	-0.158
-175.983	664.601	-0.041	-0.105
-174.969	-200.000	0.007	0.178
-173.954	-77.566	-0.322	-0.110
-172.939	6.320	0.259	-0.189
-171.925	-36.532	-0.085	-0.045
-170.910	101.037	0.145	-0.165
-169.896	45.060	0.184	-0.167
-168.881	-81.180	0.180	-0.059
-167.866	-153.579	0.340	0.023
-166.852	765.680	-0.033	0.089
-165.837	172.065	0.139	0.196
-164.823	104.109	-0.120	0.138
-163.808	107.299	0.156	0.182
-162.793	-103.732	0.136	0.031
-161.779	572.489	0.105	-0.252
-160.764	145.379	0.232	-0.306
-159.750	-200.000	-0.020	0.273
-158.735	138.166	0.056	-0.073
-157.720	-73.122	-0.161	-0.058
-156.706	82.871	-0.123	0.132
-155.691	127.022	0.072	-0.090
-154.677	0.387	0.076	0.054
-153.662	74.061	-0.139	-0.143
-152.647	670.582	-0.094	0.240
-151.633	-103.847	0.121	0.028
-150.618	800.000	-0.066	0.280
-149.604	-45.457	-0.219	0.107
-148.589	-65.258	0.464	-0.184
-147.574	-107.833	0.129	0.028
-146.560	328.552	-0.079	-0.149
-145.545	85.506	-0.035	-0.038
-144.531	74.362	0.170	0.176
-143.516	-125.175	-0.095	-0.014
-142.502	62.415	0.122	-0.120
-141.487	-200.000	0.027	-0.192
-140.472	-113.870	-0.183	-0.035
-139.458	-164.084	-0.335	0.015
-138.443	-115.581	0.080	-0.015
-137.429	800.000	0.087	0.320
-136.414	88.583	-0.086	0.093
-135.399	800.000	-0.078	0.214
-134.385	-200.000	-0.027	0.211
-133.370	355.577	-0.028	0.055
-132.356	518.611	0.173	0.398
-131.341	35.799	-0.071	0.062
-130.326	71.793	-0.207	-0.211
-129.312	383.054	0.133	-0.267
-128.297	106.029	0.149	0.173
-127.283	-200.000	-0.040	0.316
-126.268	-114.200	-0.204	0.039
-125.253	-93.415	-0.135	-0.037
-124.239	29.689	0.258	0.215
-123.224	-149.220	-0.096	0.008
-122.210	-130.760	0.350	-0.046
-121.195	-131.855	0.361	0.046
-120.180	271.770	-0.113	0.196
-119.166	800.000	0.049	-0.137
-118.151	-77.913	0.380	-0.128
-117.137	-128.821	0.306	0.042
-116.122	-75.386	0.204	0.071
-115.107	-65.334	0.268	-0.106
-114.093	800.000	0.073	0.227
-113.078	-61.906	0.132	0.054
-112.064	181.506	-0.118	-0.171
-111.049	-69.332	-0.163	-0.061
-110.034	14.812	-0.167	0.128
-109.020	132.781	-0.248	0.314
-108.005	800.000	0.167	0.528
-106.991	800.000	0.011	-0.041
-105.976	-87.069	-0.046	-0.014
-104.962	-200.000	-0.023	0.170
-103.947	53.819	0.227	0.214
-102.932	-200.000	0.057	0.246
-101.918	-200.000	0.020	0.192
-100.903	-9.571	0.294	0.192
-99.889	-56.309	-0.125	-0.054
-98.874	-200.000	-0.018	-0.173
-97.859	451.829	-0.100	-0.217
-96.845	388.467	-0.020	-0.040
-95.830	235.686	-0.060	-0.098
-94.816	-200.000	0.054	0.397
-93.801	94.909	-0.235	0.262
-92.786	-89.393	0.195	-0.056
-91.772	-200.000	-0.004	0.113
-90.757	-61.498	-0.026	-0.011
-89.743	-200.000	-0.045	0.193
-88.728	13.958	0.184	0.140
-87.713	-92.005	0.208	0.058
-86.699	-200.000	0.060	0.317
-85.684	-200.000	0.074	0.342
-84.670	-200.000	0.019	-0.127
-83.655	-41.278	-0.270	0.136
-82.640	787.721	-0.050	0.134
-81.626	335.195	-0.140	0.266
-80.611	-200.000	-0.077	0.369
-79.597	-200.000	0.007	-0.157
-78.582	264.730	0.136	0.231
-77.567	187.539	0.132	-0.193
-76.553	34.648	0.129	-0.110
-75.538	1.385	-0.159	-0.112
-74.524	-84.295	0.140	0.043
-73.509	-111.095	0.035	-0.007
-72.494	337.071	-0.176	-0.334
-71.480	122.262	0.074	0.090
-70.465	800.000	-0.069	0.273
-69.451	-200.000	-0.009	0.187
-68.436	25.260	0.174	0.142
-67.422	-200.000	0.018	0.135
-66.407	436.635	-0.038	-0.081
-65.392	-148.545	0.319	-0.025
-64.378	624.420	0.105	-0.259
-63.363	15.456	0.256	-0.197
-62.349	-200.000	-0.070	-0.365
-61.334	14.647	-1.431	-1.094
-60.319	-3.056	0.813	0.555
-59.305	200.319	-0.803	-1.207
-58.290	220.998	0.893	1.403
-57.276	300.203	0.857	1.547
-56.261	-200.000	127.739	672.255
-55.246	404.170	1610.258	3317.279
-54.232	135.712	2777.284	3536.535
-53.217	86.587	2340.698	2525.270
-52.203	29.387	2079.796	1728.629
-51.188	24.555	1994.784	1614.357
-50.173	23.405	1979.092	1591.274
-49.159	41.896	2052.672	1820.677
-48.144	39.606	2065.202	1810.709
-47.130	24.992	2016.625	1635.761
-46.115	22.814	2005.726	1607.054
-45.100	22.785	2002.544	1604.175
-44.086	22.715	2000.140	1601.545
-43.071	22.657	1997.895	1599.166
-42.057	22.613	1996.010	1597.187
-41.042	22.632	1993.994	1595.686
-40.027	22.700	1992.014	1594.653
-39.013	22.693	1990.482	1593.297
-37.998	22.762	1988.493	1592.266
-36.984	22.691	1986.843	1590.239
-35.969	22.595	1985.532	1588.270
-34.954	22.754	1983.202	1587.772
-33.940	22.730	1981.909	1586.452
-32.925	22.785	1980.177	1585.498
-31.911	22.786	1978.505	1584.110
-30.896	22.803	1976.974	1582.976
-29.881	22.776	1975.272	1581.305
-28.867	22.874	1973.376	1580.597
-27.852	22.902	1971.848	1579.565
-26.838	22.806	1970.363	1577.450
-25.823	22.894	1968.303	1576.528
-24.809	22.865	1966.332	1574.632
-23.794	22.915	1964.148	1573.263
-22.779	22.878	1962.595	1571.628
-21.765	22.851	1961.470	1570.421
-20.750	22.864	1959.644	1569.011
-19.736	22.809	1958.665	1567.678
-18.721	22.856	1956.999	1566.699
-17.706	22.846	1955.537	1565.377
-16.692	22.738	1953.460	1562.697
-15.677	22.776	1952.097	1561.882
-14.663	22.834	1950.562	1561.106
-13.648	22.732	1949.596	1559.373
-12.633	22.816	1948.332	1559.036
-11.619	22.682	1947.587	1557.194
-10.604	22.798	1945.342	1556.360
-9.590	22.811	1944.033	1555.373
-8.575	22.858	1942.393	1554.406
-7.560	22.901	1940.808	1553.457
-6.546	22.842	1939.511	1551.835
-5.531	22.798	1939.050	1551.024
-4.517	22.843	1937.886	1550.423
-3.502	22.773	1936.356	1548.524
-2.487	22.762	1935.546	1547.714
-1.473	22.784	1934.837	1547.283
-0.458	22.897	1928.999	1543.541
0.556	21.128	1908.788	1514.906
1.571	16.922	1890.228	1463.809
2.586	13.225	1914.820	1450.339
3.600	12.424	1950.090	1469.760
4.615	12.325	1942.800	1463.254
5.629	9.570	1842.892	1364.575
6.644	3.743	1730.035	1234.445
7.659	0.469	1698.167	1185.901
8.673	0.169	1695.172	1181.348
9.688	0.181	1694.223	1180.676
10.702	0.211	1692.728	1179.765
11.717	0.099	1688.693	1175.970
12.731	0.518	1687.122	1178.045
13.746	5.108	1696.784	1220.660
14.761	12.223	1711.522	1287.121
15.775	16.257	1718.147	1323.686
16.790	16.723	1718.278	1327.326
17.804	15.928	1714.982	1318.439
18.819	14.945	1711.730	1308.140
19.834	14.333	1709.594	1301.608
20.848	14.009	1708.251	1297.945
21.863	13.844	1706.490	1295.206
22.877	13.650	1704.727	1292.237
23.892	13.445	1703.397	1289.517
24.907	13.311	1702.372	1287.583
25.921	13.242	1701.087	1285.959
26.936	13.264	1700.317	1285.438
27.950	13.326	1699.355	1285.078
28.965	13.314	1698.827	1284.468
29.980	13.479	1698.025	1285.035
30.994	13.430	1696.948	1283.725
32.009	13.493	1696.005	1283.389
33.023	13.496	1695.136	1282.639
34.038	13.444	1695.025	1282.039
35.053	13.481	1693.365	1280.953
36.067	13.540	1691.595	1279.958
37.082	13.399	1690.754	1278.118
38.096	13.422	1690.296	1277.836
39.111	13.419	1690.070	1277.528
40.126	13.483	1688.294	1276.566
41.140	13.462	1687.724	1275.862
42.155	13.377	1686.173	1273.919
43.169	13.355	1684.901	1272.677
44.184	13.260	1684.018	1271.174
45.199	13.274	1682.774	1270.224
46.213	13.232	1681.867	1269.102
47.228	13.287	1680.286	1268.226
48.242	13.379	1678.613	1267.555
49.257	13.334	1677.921	1266.574
50.271	13.362	1676.476	1265.588
51.286	13.383	1674.997	1264.520
52.301	13.409	1673.440	1263.425
53.315	13.388	1672.703	1262.604
54.330	13.393	1670.892	1261.160
55.344	13.381	1669.195	1259.673
56.359	13.330	1667.869	1258.172
57.374	13.396	1666.726	1257.702
58.388	13.473	1665.031	1256.896
59.403	13.248	1664.298	1254.523
60.417	13.193	1662.754	1252.835
61.432	13.230	1661.528	1252.078
62.447	13.288	1660.414	1251.570
63.461	13.262	1659.288	1250.413
64.476	13.239	1657.785	1248.996
65.490	13.165	1656.577	1247.415
66.505	13.188	1655.355	1246.557
67.520	13.202	1654.588	1245.973
68.534	13.141	1653.693	1244.733
69.549	13.245	1652.074	1244.189
70.563	13.267	1650.197	1242.827
71.578	13.214	1649.330	1241.665
72.593	13.207	1648.309	1240.739
73.607	13.137	1647.186	1239.257
74.622	13.164	1646.018	1238.470
75.636	13.156	1645.078	1237.596
76.651	13.142	1643.997	1236.567
77.666	13.208	1643.067	1236.247
78.680	13.209	1642.070	1235.401
79.695	13.144	1641.380	1234.286
80.709	13.153	1640.361	1233.476
81.724	13.174	1639.553	1232.918
82.739	13.260	1638.271	1232.482
83.753	13.286	1637.631	1232.085
84.768	13.338	1636.529	1231.534
85.782	13.326	1636.197	1231.089
86.797	13.386	1634.681	1230.282
87.812	13.416	1633.313	1229.371
88.826	13.344	1632.196	1227.888
89.841	13.231	1631.459	1226.386
90.855	13.378	1630.339	1226.523
91.870	13.306	1629.459	1225.218
92.884	13.429	1628.295	1225.146
93.899	13.449	1627.064	1224.261
94.914	13.540	1625.329	1223.514
95.928	13.558	1624.438	1222.869
96.943	13.497	1623.400	1221.534
97.957	13.515	1621.797	1220.350
98.972	13.400	1620.561	1218.469
99.987	13.404	1618.917	1217.149
101.001	13.413	1617.057	1215.713
102.016	13.407	1615.940	1214.721
103.030	13.351	1614.668	1213.247
104.045	13.367	1613.370	1212.278
105.060	13.360	1612.433	1211.415
106.074	13.455	1610.382	1210.464
107.089	13.309	1609.295	1208.474
108.103	13.270	1607.763	1206.928
109.118	13.255	1606.366	1205.669
110.133	13.247	1604.651	1204.218
111.147	13.267	1603.398	1203.313
112.162	13.296	1601.892	1202.285
113.176	13.268	1600.504	1200.936
114.191	13.352	1598.958	1200.282
115.206	13.330	1597.849	1199.182
116.220	13.289	1596.876	1198.048
117.235	13.330	1594.948	1196.790
118.249	13.265	1593.978	1195.489
119.264	13.355	1592.507	1194.927
120.279	13.357	1590.948	1193.667
121.293	13.337	1589.559	1192.378
122.308	13.296	1588.424	1191.123
123.322	13.309	1586.481	1189.652
124.337	13.236	1585.349	1188.177
125.352	13.205	1584.113	1186.924
126.366	13.254	1582.856	1186.230
127.381	13.251	1581.619	1185.170
128.395	13.214	1580.459	1183.932
129.410	13.269	1578.930	1183.076
130.424	13.247	1578.100	1182.191
131.439	13.270	1576.306	1180.910
132.454	13.309	1574.885	1180.016
133.468	13.304	1572.958	1178.432
134.483	13.328	1571.740	1177.587
135.497	13.341	1570.963	1176.998
136.512	13.398	1569.223	1175.990
137.527	13.365	1568.124	1174.832
138.541	13.359	1566.677	1173.600
139.556	13.429	1565.498	1173.109
140.570	13.384	1564.127	1171.660
141.585	13.419	1562.577	1170.644
142.600	13.464	1561.540	1170.078
143.614	13.519	1559.896	1169.132
144.629	13.470	1559.001	1168.015
145.643	13.590	1557.354	1167.519
146.658	13.558	1556.208	1166.333
147.673	13.523	1554.891	1165.000
148.687	13.539	1552.832	1163.463
149.702	13.594	1551.672	1162.876
150.716	13.502	1550.077	1160.933
151.731	13.631	1548.431	1160.504
152.746	13.479	1547.112	1158.351
153.760	13.553	1545.506	1157.560
154.775	13.516	1544.629	1156.542
155.789	13.541	1543.252	1155.583
156.804	13.602	1541.996	1154.967
157.819	13.640	1540.579	1154.064
158.833	13.718	1539.589	1153.768
159.848	13.694	1538.340	1152.564
160.862	13.742	1536.833	1151.662
161.877	13.733	1536.023	1150.890
162.892	13.713	1534.356	1149.399
163.906	13.694	1533.005	1148.155
164.921	13.655	1531.528	1146.683
165.935	13.514	1531.332	1145.457
166.950	13.678	1530.116	1145.577
167.964	13.718	1528.232	1144.343
168.979	13.650	1527.846	1143.483
169.994	13.743	1526.588	1143.081
171.008	13.607	1525.820	1141.472
172.023	13.692	1524.427	1140.909
173.037	13.691	1522.857	1139.631
174.052	13.840	1521.803	1139.763
175.067	13.844	1521.101	1139.162
176.081	13.776	1520.104	1137.851
177.096	13.719	1518.722	1136.323
178.110	13.789	1516.765	1135.236
179.125	13.746	1515.928	1134.216
180.140	13.817	1515.118	1133.994
181.154	13.715	1513.688	1132.128
182.169	13.756	1512.641	1131.524
183.183	13.775	1511.370	1130.606
184.198	13.921	1510.486	1130.833
185.213	13.893	1509.046	1129.469
186.227	14.046	1507.747	1129.432
187.242	13.942	1506.719	1127.861
188.256	14.008	1505.644	1127.404
189.271	13.982	1505.023	1126.659
190.286	14.008	1503.761	1125.792
191.300	13.920	1502.720	1124.320
192.315	13.872	1501.267	1122.804
193.329	13.816	1500.123	1121.475
194.344	13.884	1498.510	1120.625
195.359	13.815	1497.923	1119.624
196.373	13.934	1496.502	1119.264
197.388	13.920	1495.894	1118.617
198.402	14.024	1494.609	1118.255
199.417	14.084	1493.467	1117.705
200.432	14.087	1492.616	1116.990
201.446	14.056	1491.762	1116.045
202.461	14.206	1489.831	1115.506
203.475	14.137	1489.172	1114.454
204.490	14.192	1488.154	1113.960
205.504	14.235	1486.757	1113.105
206.519	14.177	1485.919	1111.990
207.534	14.161	1484.425	1110.664
208.548	14.170	1483.037	1109.587
209.563	14.190	1481.955	1108.815
210.577	14.203	1481.408	1108.396
211.592	14.155	1480.718	1107.459
212.607	14.191	1479.857	1106.959
213.621	14.319	1478.910	1107.001
214.636	14.281	1478.075	1106.029
215.650	14.338	1476.631	1105.230
216.665	14.209	1476.278	1104.011
217.680	14.424	1474.679	1104.144
218.694	14.344	1474.729	1103.554
219.709	14.402	1473.635	1103.021
220.723	14.428	1472.543	1102.276
221.738	14.387	1471.753	1101.312
222.753	14.478	1470.596	1100.950
223.767	14.427	1470.090	1100.137
224.782	14.342	1468.980	1098.654
225.796	14.465	1467.376	1098.164
226.811	14.473	1467.070	1097.890
227.826	14.612	1466.064	1097.955
228.840	14.443	1465.486	1096.316
229.855	14.490	1464.552	1095.829
230.869	14.572	1463.051	1095.143
231.884	14.529	1462.065	1094.031
232.899	14.522	1460.915	1093.023
233.913	14.379	1460.698	1091.832
234.928	14.440	1459.105	1090.943
235.942	14.422	1457.950	1089.864
236.957	14.491	1456.710	1089.293
237.972	14.509	1455.039	1088.061
238.986	14.500	1453.993	1087.127
240.001	14.446	1453.353	1086.199
241.015	14.558	1452.281	1086.032
242.030	14.534	1451.218	1084.984
243.045	14.535	1450.701	1084.510
244.059	14.543	1449.778	1083.776
245.074	14.537	1448.598	1082.757
246.088	14.665	1447.816	1082.905
247.103	14.730	1446.926	1082.565
248.117	14.752	1446.035	1081.946
249.132	14.632	1445.481	1080.657
250.147	14.736	1444.907	1080.807
251.161	14.785	1444.086	1080.412
252.176	14.940	1442.936	1080.459
253.190	14.894	1442.642	1079.844
254.205	15.042	1441.472	1079.831
255.220	14.979	1440.694	1078.748
256.234	15.014	1439.919	1078.294
257.249	15.021	1439.108	1077.636
258.263	14.989	1438.439	1076.836
259.278	15.097	1437.106	1076.438
260.293	15.009	1436.147	1075.061
261.307	15.058	1435.664	1074.917
262.322	15.079	1434.890	1074.375
263.336	15.181	1433.985	1074.259
264.351	15.209	1432.584	1073.291
265.366	15.196	1432.038	1072.703
266.380	15.190	1430.897	1071.717
267.395	15.228	1429.956	1071.160
268.409	15.172	1429.579	1070.425
269.424	15.155	1428.373	1069.318
270.439	15.131	1427.563	1068.468
271.453	15.115	1426.452	1067.438
272.468	15.187	1425.410	1067.021
273.482	15.073	1424.932	1065.847
274.497	15.222	1423.747	1065.814
275.512	15.160	1422.961	1064.734
276.526	15.200	1422.036	1064.200
277.541	15.210	1420.664	1063.147
278.555	15.282	1420.166	1063.132
279.570	15.252	1419.136	1062.082
280.585	15.269	1417.791	1061.088
281.599	15.343	1417.386	1061.158
282.614	15.428	1416.010	1060.572
283.628	15.345	1415.183	1059.333
284.643	15.352	1414.313	1058.632
285.657	15.390	1413.190	1057.935
286.672	15.432	1412.223	1057.385
287.687	15.365	1411.377	1056.233
288.701	15.393	1410.335	1055.538
289.716	15.368	1409.783	1054.877
290.730	15.431	1408.690	1054.361
291.745	15.437	1407.657	1053.531
292.760	15.386	1406.815	1052.486
293.774	15.443	1405.643	1051.872
294.789	15.519	1404.658	1051.519
295.803	15.559	1403.888	1051.100
296.818	15.634	1402.846	1050.697
297.833	15.609	1401.790	1049.655
298.847	15.503	1400.919	1048.250
299.862	15.634	1399.925	1048.230
300.876	15.585	1399.029	1047.159
301.891	15.620	1397.798	1046.368
302.906	15.590	1397.170	1045.616
303.920	15.619	1397.080	1045.637
304.935	15.765	1395.950	1045.604
305.949	15.733	1395.228	1044.777
306.964	15.772	1394.420	1044.321
307.979	15.752	1393.519	1043.427
308.993	15.837	1392.180	1042.861
310.008	15.813	1391.662	1042.229
311.022	15.698	1390.787	1040.770
312.037	15.841	1389.460	1040.572
313.052	15.827	1388.702	1039.822
314.066	15.893	1387.262	1039.059
315.081	15.778	1386.880	1037.972
316.095	15.803	1385.404	1036.930
317.110	15.714	1384.496	1035.614
318.125	15.744	1383.710	1035.119
319.139	15.835	1382.741	1034.858
320.154	15.817	1381.566	1033.778
321.168	15.847	1380.665	1033.194
322.183	15.815	1380.004	1032.416
323.197	15.908	1378.347	1031.651
324.212	15.890	1377.454	1030.785
325.227	15.949	1376.903	1030.643
326.241	15.978	1376.051	1030.088
327.256	15.943	1375.406	1029.301
328.270	15.963	1374.436	1028.604
329.285	15.963	1373.714	1027.973
330.300	16.010	1372.501	1027.262
331.314	15.944	1371.423	1025.964
332.329	15.959	1370.880	1025.560
333.343	15.934	1369.689	1024.425
334.358	16.041	1368.966	1024.442
335.373	16.050	1368.373	1023.962
336.387	16.019	1367.807	1023.264
337.402	16.084	1366.901	1022.886
338.416	16.176	1366.139	1022.783
339.431	16.212	1365.532	1022.457
340.446	16.190	1364.631	1021.561
341.460	16.163	1363.616	1020.545
342.475	16.238	1362.506	1020.077
343.489	16.228	1361.985	1019.535
344.504	16.263	1361.046	1018.956
345.519	16.244	1360.081	1018.027
346.533	16.273	1359.143	1017.413
347.548	16.331	1358.152	1016.925
348.562	16.365	1357.542	1016.584
349.577	16.379	1356.723	1015.963
350.592	16.458	1355.756	1015.626
351.606	16.421	1354.414	1014.308
352.621	16.409	1353.629	1013.558
353.635	16.328	1352.398	1012.066
354.650	16.319	1351.609	1011.327
355.665	16.226	1350.956	1010.196
356.679	16.435	1348.967	1009.867
357.694	16.344	1348.270	1008.711
358.708	16.410	1347.554	1008.481
359.723	16.337	1346.436	1007.119
360.738	16.474	1345.308	1007.006
361.752	16.364	1344.543	1005.690
362.767	16.476	1343.347	1005.367
363.781	16.471	1342.508	1004.624
364.796	16.538	1341.613	1004.262
365.810	16.618	1340.933	1004.140
366.825	16.646	1340.092	1003.585
367.840	16.600	1339.616	1002.871
368.854	16.694	1338.417	1002.441
369.869	16.591	1338.485	1001.792
370.883	16.704	1337.610	1001.715
371.898	16.692	1336.614	1000.813
372.913	16.671	1336.253	1000.330
373.927	16.660	1335.163	999.359
374.942	16.722	1334.007	998.770
375.956	16.673	1333.597	998.085
376.971	16.814	1332.626	998.102
377.986	16.800	1331.775	997.295
379.000	16.780	1330.911	996.438
380.015	16.862	1330.061	996.197
381.029	16.815	1329.584	995.474
382.044	16.903	1328.723	995.262
383.059	16.893	1328.136	994.673
384.073	16.908	1327.146	993.934
385.088	16.895	1326.645	993.392
386.102	16.937	1325.911	993.000
387.117	16.943	1325.586	992.708
388.132	17.083	1323.884	992.163
389.146	16.941	1323.613	991.043
390.161	16.990	1322.399	990.333
391.175	17.010	1322.111	990.145
392.190	16.992	1321.244	989.302
393.205	17.030	1319.933	988.452
394.219	17.022	1319.363	987.892
395.234	17.088	1318.378	987.450
396.248	17.073	1316.945	986.201
397.263	17.096	1315.421	985.108
398.278	17.025	1314.016	983.555
399.292	17.131	1312.789	983.168
400.307	17.063	1312.077	982.152
401.321	17.030	1310.858	980.962
402.336	17.015	1309.820	980.011
403.350	17.047	1308.899	979.421
404.365	16.985	1308.041	978.336
405.380	17.164	1307.396	978.795
406.394	17.119	1306.291	977.623
407.409	17.221	1305.634	977.636
408.423	17.192	1304.882	976.815
409.438	17.242	1304.442	976.691
410.453	17.272	1303.673	976.197
411.467	17.211	1302.781	975.094
412.482	17.285	1302.472	975.203
413.496	17.465	1301.395	975.338
414.511	17.408	1300.762	974.451
415.526	17.357	1300.217	973.669
416.540	17.355	1299.687	973.172
417.555	17.518	1298.413	973.062
418.569	17.485	1298.001	972.480
419.584	17.499	1298.002	972.473
420.599	17.451	1296.982	971.351
421.613	100.161	1362.127	1489.103
422.628	98.267	1371.552	1489.146
