DTS Sentinel unit serial number:	SN413079Multiplexer serial number:	ORYXHardware model number:	OX4-SRSoftware version number:	ORYX F/W v4.00 Oryx Data Collector v3.7.2.0data status	okinstallation	princeton_trtdifferential loss correction	single-endedforward channel	channel 4reverse channel	N/Adate	2019/09/11time	22:51:11forward acquisition time	60.00reverse acquisition time	0.00gamma	496.2192k internal	0.2308k external	0.2308temperature offset calibration	1.0076default loss term (dB/km)	0.3790temperature slope calibration	1.0000multiplexer offset coefficient	1.0000multiplexer slope coefficient	1.0000fibre end	0.00T internal ref (°C)	34.72T ext. ref 1 (°C)	1.82T ext. ref 2 (°C)	29.40length (m)	temperature (°C)	Stokes	anti-Stokes-747.200	-180.408	-0.216	-0.005
-746.185	800.000	0.056	0.176
-745.171	-47.594	0.047	0.023
-744.156	154.117	-0.089	0.124
-743.142	-116.073	0.381	0.072
-742.127	-200.000	0.030	0.181
-741.112	-91.666	-0.154	0.045
-740.098	-52.704	0.245	0.115
-739.083	15.326	-0.265	-0.212
-738.069	-59.729	-0.336	0.146
-737.054	59.868	0.096	-0.096
-736.039	165.289	-0.133	-0.190
-735.025	255.737	0.080	-0.140
-734.010	422.998	0.140	-0.306
-732.996	50.680	0.181	-0.175
-731.981	-55.093	0.227	0.104
-730.966	-169.927	-0.089	-0.003
-729.952	520.963	0.124	-0.296
-728.937	20.215	0.263	-0.216
-727.923	128.755	0.233	0.302
-726.908	-95.568	-0.290	-0.079
-725.894	-110.793	-0.118	-0.025
-724.879	-166.438	-0.315	0.013
-723.864	800.000	-0.059	-0.182
-722.850	-32.574	-0.307	-0.174
-721.835	-116.123	-0.614	0.116
-720.821	800.000	0.034	0.149
-719.806	-200.000	0.000	0.048
-718.791	-176.303	-0.038	-0.001
-717.777	-175.800	0.033	0.001
-716.762	-137.339	0.380	-0.044
-715.748	-200.000	0.025	0.152
-714.733	-73.699	0.192	0.071
-713.718	176.478	-0.048	-0.071
-712.704	-200.000	-0.028	0.257
-711.689	618.214	-0.148	-0.378
-710.675	-64.818	0.130	-0.053
-709.660	-156.527	0.294	-0.019
-708.645	-117.705	-0.202	-0.037
-707.631	43.935	-0.128	0.119
-706.616	-7.213	0.056	-0.038
-705.602	-200.000	0.020	0.191
-704.587	376.551	-0.051	-0.106
-703.572	178.743	0.221	-0.327
-702.558	-91.452	-0.229	-0.066
-701.543	-200.000	0.030	0.202
-700.529	-21.550	-0.145	-0.090
-699.514	-24.635	0.334	-0.202
-698.499	768.845	0.052	0.143
-697.485	445.436	-0.170	0.379
-696.470	-55.443	0.106	0.048
-695.456	-88.591	-0.329	-0.099
-694.441	800.000	0.080	0.253
-693.426	147.986	-0.064	-0.087
-692.412	-14.164	-0.190	-0.125
-691.397	530.930	-0.137	0.328
-690.383	-7.453	0.303	0.208
-689.368	-144.940	0.125	0.012
-688.354	156.308	-0.017	0.024
-687.339	-98.498	0.505	0.131
-686.324	800.000	-0.051	-0.153
-685.310	-15.545	-0.240	-0.156
-684.295	15.547	0.126	-0.100
-683.281	-65.947	-0.226	-0.091
-682.266	-85.586	0.175	0.055
-681.251	800.000	0.121	0.400
-680.237	800.000	-0.059	-0.249
-679.222	-70.072	0.165	0.064
-678.208	34.137	0.083	0.074
-677.193	-7.037	0.191	0.131
-676.178	167.577	-0.056	0.081
-675.164	-30.442	0.232	-0.133
-674.149	200.157	-0.115	-0.179
-673.135	321.559	0.204	0.393
-672.120	210.351	-0.021	-0.034
-671.105	338.586	-0.070	-0.139
-670.091	-69.748	-0.072	0.028
-669.076	213.161	-0.321	-0.514
-668.062	249.086	-0.145	-0.249
-667.047	2.412	-0.060	-0.044
-666.032	215.662	0.118	-0.189
-665.018	389.487	0.136	0.286
-664.003	13.542	0.088	0.069
-662.989	-200.000	-0.023	-0.258
-661.974	26.051	0.291	0.246
-660.959	-200.000	-0.017	0.088
-659.945	667.416	-0.117	0.308
-658.930	660.057	0.019	-0.051
-657.916	7.403	0.071	-0.054
-656.901	-89.681	-0.324	-0.096
-655.886	1.642	0.008	-0.006
-654.872	105.256	-0.377	-0.450
-653.857	-129.614	-0.180	-0.025
-652.843	-174.888	0.167	-0.005
-651.828	439.504	0.072	-0.159
-650.814	260.074	0.036	0.063
-649.799	-129.242	-0.063	-0.009
-648.784	-76.268	-0.100	0.036
-647.770	-125.713	0.373	0.057
-646.755	-16.609	-0.262	-0.168
-645.741	-200.000	-0.024	-0.135
-644.726	29.786	-0.132	-0.114
-643.711	185.307	-0.098	-0.147
-642.697	-114.144	0.152	0.030
-641.682	-19.506	-0.349	-0.219
-640.668	-53.414	0.155	-0.072
-639.653	800.000	0.052	-0.153
-638.638	-200.000	-0.026	-0.215
-637.624	-13.419	-0.225	0.147
-636.609	341.911	0.133	-0.264
-635.595	-45.066	0.063	-0.032
-634.580	-60.827	-0.335	0.144
-633.565	-147.254	-0.059	0.005
-632.551	195.362	0.137	-0.211
-631.536	39.786	-0.223	-0.202
-630.522	239.557	-0.159	-0.267
-629.507	-53.532	-0.194	-0.090
-628.492	183.289	-0.116	0.174
-627.478	-49.411	-0.255	-0.123
-626.463	54.789	-0.228	-0.222
-625.449	-47.010	0.112	-0.055
-624.434	-159.400	0.045	-0.003
-623.419	-63.992	-0.197	-0.081
-622.405	-93.703	0.216	0.060
-621.390	632.709	-0.056	0.145
-620.376	-163.899	-0.302	0.014
-619.361	-190.933	0.171	0.002
-618.346	7.523	-0.332	-0.251
-617.332	2.211	0.125	-0.091
-616.317	137.841	0.101	-0.134
-615.303	81.572	0.272	-0.297
-614.288	800.000	-0.033	0.147
-613.273	542.225	-0.058	-0.141
-612.259	-46.309	-0.085	0.042
-611.244	28.996	-0.404	-0.346
-610.230	180.523	-0.013	0.019
-609.215	-200.000	0.060	0.547
-608.201	12.123	0.230	0.179
-607.186	-200.000	-0.061	-0.442
-606.171	318.717	-0.200	-0.382
-605.157	-17.032	0.246	-0.157
-604.142	280.338	0.124	-0.225
-603.128	-200.000	0.026	-0.304
-602.113	224.856	-0.157	0.256
-601.098	-56.533	0.140	-0.063
-600.084	201.576	-0.188	-0.293
-599.069	800.000	0.083	-0.365
-598.055	-77.428	-0.196	0.069
-597.040	-92.355	-0.147	-0.042
-596.025	-200.000	-0.026	0.136
-595.011	175.614	0.142	-0.208
-593.996	-88.681	-0.080	-0.024
-592.982	-200.000	0.033	-0.160
-591.967	-162.790	-0.084	0.004
-590.952	800.000	-0.149	0.477
-589.938	-200.000	0.011	-0.159
-588.923	800.000	0.040	0.133
-587.909	800.000	0.080	-0.266
-586.894	-200.000	-0.036	-0.194
-585.879	387.368	-0.060	-0.124
-584.865	163.579	0.075	-0.107
-583.850	-200.000	0.021	0.186
-582.836	269.801	-0.087	0.154
-581.821	-84.608	-0.203	-0.065
-580.806	-61.548	0.154	0.065
-579.792	-33.632	0.287	-0.160
-578.777	-53.024	-0.232	0.108
-577.763	-200.000	-0.014	0.156
-576.748	800.000	-0.076	-0.305
-575.733	14.277	-0.280	0.220
-574.719	234.201	0.209	0.347
-573.704	-200.000	0.001	-0.181
-572.690	477.671	0.157	-0.358
-571.675	800.000	0.130	0.370
-570.661	-67.320	-0.130	-0.052
-569.646	151.878	-0.026	0.036
-568.631	70.095	0.135	-0.140
-567.617	-44.336	0.197	-0.100
-566.602	286.855	0.068	-0.125
-565.588	79.848	0.037	-0.040
-564.573	-26.742	-0.042	-0.025
-563.558	-96.889	-0.381	0.101
-562.544	595.038	0.159	-0.396
-561.529	800.000	-0.093	-0.258
-560.515	-8.607	0.082	-0.056
-559.500	-143.879	0.165	0.016
-558.485	-127.865	0.337	-0.049
-557.471	493.001	-0.063	0.145
-556.456	-200.000	0.006	0.216
-555.442	-200.000	0.012	0.207
-554.427	-133.906	0.160	0.020
-553.412	-108.501	-0.159	-0.035
-552.398	208.740	0.110	-0.174
-551.383	-200.000	0.025	-0.262
-550.369	-57.200	0.447	-0.199
-549.354	-137.447	0.214	-0.024
-548.339	-40.309	-0.138	-0.073
-547.325	534.826	0.059	-0.142
-546.310	-97.103	-0.039	-0.010
-545.296	-134.404	-0.180	0.022
-544.281	195.588	-0.056	-0.086
-543.266	353.667	-0.093	0.186
-542.252	76.653	0.287	0.307
-541.237	-200.000	0.019	0.240
-540.223	-200.000	-0.024	-0.234
-539.208	-157.572	0.076	0.005
-538.193	102.845	-0.151	0.178
-537.179	-14.674	0.130	0.084
-536.164	-22.706	-0.381	0.232
-535.150	800.000	0.060	0.217
-534.135	-200.000	0.063	0.404
-533.121	-38.258	-0.134	-0.071
-532.106	-90.367	-0.171	0.050
-531.091	-200.000	-0.004	0.145
-530.077	-200.000	0.000	0.429
-529.062	626.199	0.180	0.458
-528.048	-98.633	0.225	0.058
-527.033	356.930	-0.215	0.432
-526.018	-18.158	-0.396	0.250
-525.004	280.383	0.007	-0.013
-523.989	788.590	-0.025	0.069
-522.975	-14.102	-0.128	0.083
-521.960	704.560	-0.032	-0.085
-520.945	327.999	-0.093	0.181
-519.931	297.931	-0.086	-0.160
-518.916	46.099	0.103	-0.097
-517.902	-8.881	-0.048	-0.033
-516.887	46.681	0.078	-0.073
-515.872	-150.423	0.282	0.022
-514.858	-109.557	0.114	-0.024
-513.843	-200.000	-0.001	-0.105
-512.829	358.841	0.063	-0.128
-511.814	-124.978	-0.166	0.026
-510.799	-200.000	0.108	0.559
-509.785	-200.000	-0.021	0.413
-508.770	-200.000	-0.046	0.274
-507.756	18.039	-0.084	0.068
-506.741	393.458	0.036	0.076
-505.726	-126.588	0.159	-0.024
-504.712	-40.132	0.287	-0.151
-503.697	613.722	0.030	0.077
-502.683	244.422	-0.101	0.170
-501.668	-39.122	-0.404	0.214
-500.653	-200.000	-0.004	-0.017
-499.639	278.230	0.220	0.394
-498.624	-200.000	0.033	-0.177
-497.610	-52.593	0.272	0.126
-496.595	-200.000	-0.013	0.059
-495.581	7.871	0.168	-0.127
-494.566	-167.422	0.250	-0.010
-493.551	-169.206	-0.168	0.006
-492.537	200.207	0.135	-0.209
-491.522	-135.907	0.360	0.043
-490.508	-75.673	0.266	0.095
-489.493	-200.000	0.027	-0.238
-488.478	-2.907	0.197	0.138
-487.464	-161.918	-0.289	0.015
-486.449	455.852	-0.022	-0.049
-485.435	7.578	0.138	-0.104
-484.420	-200.000	-0.032	0.474
-483.405	344.637	0.116	0.229
-482.391	-28.760	-0.081	0.047
-481.376	800.000	0.095	0.271
-480.362	112.518	-0.237	-0.289
-479.347	2.075	-0.236	0.172
-478.332	-29.456	-0.086	-0.050
-477.318	62.234	-0.184	0.184
-476.303	16.182	0.239	0.189
-475.289	-43.433	-0.297	0.151
-474.274	800.000	-0.154	0.506
-473.259	-14.609	-0.446	0.288
-472.245	-175.457	0.151	-0.004
-471.230	172.953	0.071	-0.103
-470.216	118.401	0.286	-0.355
-469.201	-200.000	-0.037	-0.243
-468.186	-200.000	-0.001	-0.309
-467.172	-168.630	0.125	0.005
-466.157	800.000	0.079	-0.244
-465.143	387.895	0.118	0.244
-464.128	-200.000	0.039	0.260
-463.113	-200.000	-0.012	0.310
-462.099	354.247	0.142	0.284
-461.084	117.068	-0.346	0.427
-460.070	751.046	-0.029	-0.080
-459.055	147.384	0.048	0.065
-458.040	-108.055	-0.133	-0.029
-457.026	-72.682	-0.095	0.035
-456.011	-24.963	0.109	0.065
-454.997	-200.000	-0.017	0.105
-453.982	-14.885	-0.053	-0.034
-452.968	61.778	0.124	0.124
-451.953	-33.650	0.097	0.054
-450.938	-109.994	0.194	0.041
-449.924	1.498	0.111	0.080
-448.909	-133.600	0.092	-0.012
-447.895	248.134	-0.046	-0.078
-446.880	-67.781	-0.110	-0.043
-445.865	-112.174	0.332	0.067
-444.851	-13.581	0.083	-0.054
-443.836	53.290	-0.140	0.135
-442.822	-40.994	-0.258	0.134
-441.807	-107.718	-0.141	0.031
-440.792	-200.000	-0.013	0.101
-439.778	192.946	0.062	0.094
-438.763	-176.706	-0.270	-0.007
-437.749	-161.590	-0.320	-0.016
-436.734	-200.000	-0.009	-0.454
-435.719	20.611	0.209	0.170
-434.705	-200.000	-0.024	0.279
-433.690	541.252	-0.021	0.050
-432.676	-21.168	0.281	-0.172
-431.661	-200.000	0.014	-0.099
-430.646	30.091	0.126	0.108
-429.632	-14.135	-0.077	-0.050
-428.617	56.817	0.226	-0.221
-427.603	-200.000	-0.014	0.247
-426.588	29.138	0.114	0.097
-425.573	800.000	-0.070	0.236
-424.559	147.283	-0.038	0.051
-423.544	-200.000	0.010	-0.410
-422.530	65.739	0.335	0.341
-421.515	202.862	-0.092	-0.143
-420.500	-107.709	0.170	-0.037
-419.486	285.595	0.158	-0.287
-418.471	39.671	0.303	-0.272
-417.457	-65.099	0.118	-0.048
-416.442	-152.460	-0.048	0.003
-415.428	-200.000	-0.013	-0.303
-414.413	373.581	0.144	0.294
-413.398	153.891	-0.189	0.261
-412.384	-200.000	-0.007	0.119
-411.369	195.489	0.011	0.017
-410.355	379.546	0.106	-0.218
-409.340	131.352	0.188	-0.242
-408.325	52.467	-0.349	-0.335
-407.311	800.000	-0.124	-0.498
-406.296	-200.000	-0.039	0.238
-405.282	-74.515	0.317	-0.115
-404.267	497.141	0.162	-0.373
-403.252	-53.826	-0.205	-0.094
-402.238	-200.000	-0.040	0.203
-401.223	207.137	-0.102	0.160
-400.209	-118.574	0.459	0.081
-399.194	-51.678	-0.145	-0.068
-398.179	-56.575	-0.222	-0.098
-397.165	800.000	-0.011	-0.039
-396.150	-200.000	0.044	-0.261
-395.136	125.232	-0.100	0.126
-394.121	-0.180	0.052	-0.037
-393.106	-89.890	-0.071	0.021
-392.092	-42.471	0.472	-0.241
-391.077	800.000	0.081	-0.284
-390.063	40.370	-0.186	-0.168
-389.048	272.219	0.127	-0.225
-388.033	76.106	0.054	-0.058
-387.019	674.294	-0.047	-0.123
-386.004	194.407	-0.162	0.246
-384.990	5.084	0.200	0.147
-383.975	81.355	-0.180	-0.195
-382.960	613.100	0.020	-0.050
-381.946	-30.140	-0.186	-0.106
-380.931	-42.762	-0.122	0.062
-379.917	170.710	0.184	0.265
-378.902	69.635	0.244	0.252
-377.888	-173.314	-0.598	-0.018
-376.873	210.986	0.124	0.195
-375.858	294.719	-0.090	-0.166
-374.844	666.362	0.118	-0.306
-373.829	-122.108	-0.169	0.028
-372.815	148.320	-0.266	0.360
-371.800	-107.291	-0.361	-0.079
-370.785	-177.541	-0.158	0.004
-369.771	-100.870	-0.217	0.053
-368.756	29.709	-0.161	-0.138
-367.742	-200.000	-0.012	0.067
-366.727	-40.806	0.249	0.129
-365.712	160.077	0.048	0.067
-364.698	131.358	-0.222	0.285
-363.683	-178.886	-0.096	-0.002
-362.669	-90.464	0.237	0.069
-361.654	32.829	-0.067	-0.058
-360.639	-172.219	-0.429	-0.014
-359.625	-150.397	0.283	-0.022
-358.610	-46.961	-0.234	0.115
-357.596	113.514	0.134	0.163
-356.581	-176.478	-0.206	0.005
-355.566	-141.787	0.269	0.027
-354.552	43.101	-0.047	-0.043
-353.537	-10.531	0.212	-0.141
-352.523	-57.234	-0.289	0.127
-351.508	-177.437	-0.234	-0.006
-350.493	363.528	0.120	-0.241
-349.479	232.376	0.035	-0.057
-348.464	-68.313	-0.309	0.120
-347.450	-200.000	0.005	0.056
-346.435	-200.000	-0.002	0.300
-345.420	-200.000	-0.007	-0.212
-344.406	-82.298	0.140	0.046
-343.391	-38.107	-0.311	0.165
-342.377	-61.370	0.407	-0.171
-341.362	-5.603	-0.125	-0.086
-340.348	61.101	-0.165	-0.164
-339.333	158.617	-0.091	0.126
-338.318	68.539	0.081	0.084
-337.304	-200.000	0.022	0.109
-336.289	-200.000	-0.056	0.308
-335.275	800.000	-0.055	-0.166
-334.260	-158.768	-0.244	0.014
-333.245	335.902	0.046	-0.089
-332.231	-200.000	-0.000	-0.342
-331.216	105.651	0.051	0.060
-330.202	182.412	-0.186	0.275
-329.187	-115.838	-0.260	0.049
-328.172	800.000	-0.032	-0.129
-327.158	9.446	-0.035	-0.027
-326.143	-200.000	-0.026	-0.348
-325.129	2.043	-0.052	-0.038
-324.114	48.888	-0.206	-0.193
-323.099	-84.078	0.363	0.115
-322.085	-45.671	-0.113	0.056
-321.070	800.000	-0.095	0.297
-320.056	800.000	0.079	0.341
-319.041	86.392	0.257	-0.283
-318.026	155.724	0.276	0.380
-317.012	263.971	-0.202	0.351
-315.997	-76.884	-0.253	0.088
-314.983	-26.713	0.053	0.031
-313.968	-200.000	0.012	-0.266
-312.953	248.426	0.017	-0.029
-311.939	-41.100	0.043	0.022
-310.924	-88.388	0.145	0.043
-309.910	-200.000	-0.046	-0.250
-308.895	33.395	0.098	0.085
-307.880	-200.000	-0.048	-0.425
-306.866	-72.201	-0.238	0.088
-305.851	62.585	0.081	-0.081
-304.837	603.577	-0.126	-0.313
-303.822	-99.402	0.049	0.012
-302.807	-10.433	0.091	0.061
-301.793	383.801	0.192	-0.395
-300.778	214.064	0.069	-0.109
-299.764	800.000	-0.046	0.175
-298.749	-65.184	0.221	-0.089
-297.735	294.565	-0.109	-0.199
-296.720	-200.000	0.005	-0.092
-295.705	256.301	-0.207	-0.355
-294.691	-80.266	0.120	-0.040
-293.676	800.000	-0.016	-0.061
-292.662	-138.513	0.115	0.013
-291.647	-46.433	0.044	-0.022
-290.632	-200.000	-0.033	0.180
-289.618	-200.000	0.026	-0.208
-288.603	135.647	0.123	0.159
-287.589	74.885	0.050	0.052
-286.574	800.000	-0.181	-0.591
-285.559	-6.649	0.245	-0.166
-284.545	-70.417	-0.342	-0.129
-283.530	-126.372	0.147	0.022
-282.516	-200.000	0.045	0.520
-281.501	-159.613	0.255	0.014
-280.486	116.605	-0.208	-0.255
-279.472	800.000	0.043	0.185
-278.457	224.612	-0.066	-0.106
-277.443	-200.000	0.265	-0.001
-276.428	160.351	-0.157	-0.218
-275.413	800.000	0.090	0.272
-274.399	-169.511	0.231	-0.008
-273.384	152.326	-0.087	0.119
-272.370	10.675	-0.005	-0.004
-271.355	-141.416	-0.342	-0.035
-270.340	25.984	0.141	-0.118
-269.326	-128.736	-0.253	-0.036
-268.311	-40.120	0.231	0.120
-267.297	-92.155	-0.325	-0.092
-266.282	-200.000	0.011	0.356
-265.267	-130.961	0.285	-0.038
-264.253	-200.000	0.016	0.237
-263.238	800.000	-0.031	-0.087
-262.224	-135.751	-0.317	0.037
-261.209	-74.540	0.128	-0.046
-260.195	9.207	0.168	-0.127
-259.180	-23.909	0.181	0.108
-258.165	-118.690	0.056	0.010
-257.151	328.861	0.047	0.090
-256.136	-53.099	-0.355	0.163
-255.122	-200.000	-0.011	0.098
-254.107	190.021	-0.068	0.102
-253.092	220.504	-0.036	0.058
-252.078	725.111	0.063	0.169
-251.063	57.798	-0.110	-0.108
-250.049	-159.250	0.113	-0.006
-249.034	-200.000	0.041	-0.202
-248.019	-106.970	-0.119	-0.026
-247.005	195.890	-0.135	-0.205
-245.990	70.407	-0.304	-0.313
-244.976	202.874	0.299	0.461
-243.961	645.820	-0.146	0.371
-242.946	-115.239	-0.180	-0.034
-241.932	24.796	0.173	0.143
-240.917	800.000	0.058	-0.229
-239.903	127.178	0.125	0.158
-238.888	-177.303	0.289	0.007
-237.873	-56.257	-0.381	0.169
-236.859	-200.000	-0.014	0.066
-235.844	-200.000	-0.008	-0.059
-234.830	-44.634	-0.310	0.154
-233.815	124.188	-0.056	0.070
-232.800	50.337	0.086	-0.081
-231.786	-42.646	0.114	0.058
-230.771	-8.608	-0.075	0.050
-229.757	2.548	-0.290	0.209
-228.742	800.000	-0.085	-0.362
-227.727	9.862	-0.078	-0.059
-226.713	-200.000	0.030	-0.228
-225.698	90.648	0.137	-0.153
-224.684	-39.643	-0.079	-0.041
-223.669	86.588	0.133	0.147
-222.655	-200.000	-0.008	-0.292
-221.640	-155.097	0.096	0.006
-220.625	-37.172	0.143	0.076
-219.611	-32.350	-0.134	0.075
-218.596	-89.482	-0.116	0.034
-217.582	46.555	-0.024	0.022
-216.567	434.303	-0.084	0.181
-215.552	-200.000	0.012	-0.121
-214.538	717.401	-0.028	0.075
-213.523	-200.000	0.032	0.375
-212.509	800.000	-0.067	0.257
-211.494	-200.000	-0.011	-0.270
-210.479	354.904	0.047	0.092
-209.465	74.082	0.226	-0.236
-208.450	290.939	-0.026	0.047
-207.436	345.495	-0.089	0.175
-206.421	311.306	-0.086	0.160
-205.406	-98.203	0.211	-0.054
-204.392	25.905	0.116	0.096
-203.377	-200.000	-0.018	0.130
-202.363	-85.902	-0.582	0.179
-201.348	-31.748	0.102	0.057
-200.333	107.061	0.111	0.131
-199.319	800.000	0.068	-0.201
-198.304	113.887	0.045	-0.054
-197.290	86.196	0.140	0.154
-196.275	103.273	0.132	-0.154
-195.260	800.000	0.079	-0.264
-194.246	-102.295	0.148	-0.035
-193.231	86.779	0.169	0.185
-192.217	-92.199	0.227	0.064
-191.202	25.784	-0.092	-0.076
-190.187	-200.000	0.006	0.202
-189.173	95.744	-0.201	0.229
-188.158	-95.759	0.159	-0.042
-187.144	-109.075	0.175	-0.037
-186.129	757.565	0.156	0.420
-185.114	225.335	0.080	0.129
-184.100	-119.798	0.112	-0.019
-183.085	-200.000	0.040	-0.195
-182.071	305.220	-0.094	0.174
-181.056	-200.000	-0.002	-0.233
-180.042	-200.000	-0.008	0.097
-179.027	222.233	0.039	0.063
-178.012	15.888	0.232	-0.181
-176.998	-200.000	-0.057	0.418
-175.983	76.991	-0.092	-0.097
-174.969	-200.000	0.024	-0.435
-173.954	-200.000	-0.019	0.227
-172.939	-101.211	0.157	-0.038
-171.925	800.000	-0.036	0.118
-170.910	252.720	-0.258	-0.438
-169.896	-200.000	0.002	-0.110
-168.881	-200.000	-0.051	-0.376
-167.866	239.837	-0.114	-0.189
-166.852	800.000	-0.060	-0.177
-165.837	-24.237	0.117	-0.070
-164.823	-126.324	-0.082	0.012
-163.808	-200.000	-0.034	-0.200
-162.793	116.893	0.108	0.132
-161.779	-111.259	0.367	-0.075
-160.764	-178.420	0.284	0.007
-159.750	-150.077	0.083	-0.006
-158.735	-99.124	-0.041	-0.010
-157.720	56.585	0.318	-0.307
-156.706	800.000	-0.065	-0.183
-155.691	-92.540	0.309	0.086
-154.677	-200.000	0.013	0.307
-153.662	-200.000	-0.010	0.083
-152.647	77.571	0.241	-0.255
-151.633	134.322	0.114	0.146
-150.618	317.979	0.012	0.023
-149.604	-4.745	0.165	-0.113
-148.589	-200.000	-0.008	-0.259
-147.574	717.511	-0.033	0.088
-146.560	220.543	0.108	-0.172
-145.545	259.121	-0.089	0.152
-144.531	36.973	-0.075	0.066
-143.516	-200.000	0.023	0.124
-142.502	-200.000	-0.021	-0.353
-141.487	-73.797	0.381	-0.138
-140.472	-19.820	-0.065	0.040
-139.458	-154.949	0.095	0.006
-138.443	-43.129	-0.174	-0.088
-137.429	-74.529	-0.185	-0.066
-136.414	246.756	-0.175	0.294
-135.399	-91.000	0.176	-0.050
-134.385	-200.000	-0.056	-0.346
-133.370	80.009	0.109	0.116
-132.356	65.614	-0.138	0.139
-131.341	-200.000	0.010	0.325
-130.326	-79.673	0.032	-0.011
-129.312	72.594	-0.138	-0.143
-128.297	-133.881	0.169	0.021
-127.283	-47.714	0.397	-0.191
-126.268	-200.000	-0.016	-0.275
-125.253	-161.436	0.145	-0.007
-124.239	-33.496	0.329	0.180
-123.224	71.073	-0.114	-0.117
-122.210	130.606	0.087	0.111
-121.195	-40.121	-0.109	-0.056
-120.180	163.336	0.192	0.268
-119.166	58.934	0.185	-0.181
-118.151	87.996	-0.276	0.303
-117.137	-35.518	0.149	0.080
-116.122	-200.000	0.016	0.324
-115.107	-24.587	-0.158	-0.093
-114.093	-53.601	-0.196	0.089
-113.078	151.927	0.108	0.145
-112.064	800.000	0.092	-0.368
-111.049	-200.000	0.015	0.125
-110.034	-166.503	0.126	0.005
-109.020	-42.187	0.500	0.254
-108.005	142.331	-0.229	0.301
-106.991	-51.260	0.260	0.121
-105.976	-200.000	0.023	-0.250
-104.962	800.000	0.122	0.486
-103.947	-130.287	0.161	0.022
-102.932	-68.803	0.004	0.002
-101.918	-126.110	0.328	0.049
-100.903	-200.000	0.008	0.044
-99.889	-28.439	0.109	-0.062
-98.874	751.098	-0.095	0.255
-97.859	104.526	-0.169	0.197
-96.845	25.259	0.399	0.329
-95.830	-47.962	0.292	0.140
-94.816	174.953	-0.256	-0.367
-93.801	-130.013	0.122	-0.017
-92.786	800.000	0.007	0.019
-91.772	340.308	0.116	0.224
-90.757	10.680	0.076	0.058
-89.743	491.006	0.098	0.223
-88.728	-0.117	0.176	0.124
-87.713	120.677	0.107	0.132
-86.699	52.840	-0.195	0.185
-85.684	-200.000	-0.017	-0.244
-84.670	-200.000	0.006	0.043
-83.655	-103.036	0.321	-0.075
-82.640	-136.378	-0.054	0.006
-81.626	-180.403	0.330	-0.007
-80.611	-29.770	0.232	-0.131
-79.597	-98.552	0.042	0.011
-78.582	142.867	-0.100	0.132
-77.567	72.547	0.101	-0.104
-76.553	-37.834	0.103	-0.054
-75.538	800.000	0.033	0.112
-74.524	232.224	0.132	0.215
-73.509	-130.784	0.307	0.041
-72.494	107.245	0.187	-0.220
-71.480	730.633	-0.084	-0.222
-70.465	-57.902	0.072	0.031
-69.451	-200.000	-0.028	-0.131
-68.436	72.416	0.187	-0.193
-67.422	705.330	0.118	0.307
-66.407	800.000	-0.070	0.295
-65.392	-200.000	-0.000	0.158
-64.378	-82.472	0.197	0.063
-63.363	88.489	0.264	0.291
-62.349	800.000	-0.057	0.222
-61.334	165.037	-0.931	-1.301
-60.319	54.503	0.416	0.396
-59.305	-200.000	0.085	-0.610
-58.290	628.673	0.489	1.222
-57.276	384.280	0.809	1.648
-56.261	-200.000	97.730	592.306
-55.246	560.482	1383.086	3306.620
-54.232	151.477	2592.810	3493.702
-53.217	106.947	2313.646	2718.551
-52.203	41.592	2061.918	1847.410
-51.188	36.520	1974.940	1724.303
-50.173	35.007	1956.656	1694.889
-49.159	50.366	2009.284	1878.674
-48.144	53.323	2029.466	1924.017
-47.130	37.238	1985.112	1739.345
-46.115	34.732	1974.337	1707.478
-45.100	34.647	1971.457	1704.158
-44.086	34.601	1968.872	1701.443
-43.071	34.561	1966.352	1698.847
-42.057	34.563	1963.998	1696.760
-41.042	34.591	1962.610	1695.743
-40.027	34.672	1960.473	1694.550
-39.013	34.631	1958.249	1692.191
-37.998	34.715	1956.222	1691.117
-36.984	34.562	1955.314	1688.914
-35.969	34.624	1953.250	1687.610
-34.954	34.720	1950.771	1686.254
-33.940	34.729	1949.438	1685.113
-32.925	34.705	1948.297	1683.842
-31.911	34.736	1946.367	1682.381
-30.896	34.789	1944.544	1681.204
-29.881	34.728	1943.301	1679.529
-28.867	34.749	1942.082	1678.595
-27.852	34.765	1940.071	1676.935
-26.838	34.782	1938.241	1675.433
-25.823	34.754	1936.314	1673.454
-24.809	34.750	1934.741	1671.993
-23.794	34.751	1933.223	1670.620
-22.779	34.700	1931.714	1668.812
-21.765	34.673	1930.192	1667.191
-20.750	34.705	1928.826	1666.226
-19.736	34.807	1926.594	1665.122
-18.721	34.672	1925.764	1663.163
-17.706	34.755	1923.828	1662.144
-16.692	34.642	1922.512	1659.959
-15.677	34.814	1920.743	1659.854
-14.663	34.739	1919.015	1657.651
-13.648	34.827	1917.667	1657.181
-12.633	34.726	1916.607	1655.324
-11.619	34.713	1915.369	1654.081
-10.604	34.743	1913.822	1652.933
-9.590	34.741	1912.642	1651.831
-8.575	34.761	1911.084	1650.593
-7.560	34.719	1910.230	1649.430
-6.546	34.693	1908.700	1647.821
-5.531	34.764	1907.243	1647.109
-4.517	34.755	1905.818	1645.738
-3.502	34.770	1905.096	1645.172
-2.487	34.729	1904.059	1643.859
-1.473	34.755	1903.068	1643.160
-0.458	34.806	1898.395	1639.504
0.556	34.743	1879.019	1612.405
1.571	30.595	1859.596	1560.862
2.586	26.728	1881.871	1546.495
3.600	25.749	1918.337	1567.805
4.615	25.276	1914.459	1560.381
5.629	19.251	1812.506	1427.401
6.644	8.256	1688.906	1244.620
7.659	2.462	1649.392	1171.161
8.673	1.927	1645.705	1164.356
9.688	1.944	1644.123	1163.268
10.702	1.809	1642.906	1161.274
11.717	1.601	1639.316	1157.048
12.731	2.053	1638.474	1159.786
13.746	9.056	1656.216	1225.883
14.761	19.938	1679.832	1327.131
15.775	25.287	1689.127	1375.471
16.790	26.161	1690.008	1382.765
17.804	26.261	1689.937	1383.351
18.819	26.264	1688.777	1382.301
19.834	26.489	1688.053	1383.306
20.848	26.660	1687.834	1384.312
21.863	26.755	1686.821	1384.083
22.877	26.639	1686.054	1382.443
23.892	26.751	1684.643	1382.017
24.907	26.671	1684.329	1381.030
25.921	26.712	1683.401	1380.457
26.936	26.662	1682.384	1379.121
27.950	26.719	1680.986	1378.288
28.965	26.812	1679.984	1378.051
29.980	26.682	1679.512	1376.551
30.994	26.659	1678.370	1375.323
32.009	26.767	1676.420	1374.419
33.023	26.677	1676.074	1373.337
34.038	26.703	1674.781	1372.351
35.053	26.685	1674.239	1371.649
36.067	26.705	1673.028	1370.681
37.082	26.714	1671.822	1369.647
38.096	26.727	1671.242	1369.144
39.111	26.675	1670.325	1367.883
40.126	26.675	1669.799	1367.327
41.140	26.716	1668.818	1366.712
42.155	26.734	1667.596	1365.724
43.169	26.696	1666.550	1364.464
44.184	26.661	1665.644	1363.341
45.199	26.705	1664.325	1362.471
46.213	26.663	1663.424	1361.296
47.228	26.595	1662.548	1359.947
48.242	26.705	1660.914	1359.316
49.257	26.640	1659.956	1357.923
50.271	26.760	1658.256	1357.311
51.286	26.555	1658.022	1355.466
52.301	26.599	1656.751	1354.632
53.315	26.717	1655.013	1353.977
54.330	26.632	1653.473	1351.963
55.344	26.639	1652.216	1350.865
56.359	26.623	1651.029	1349.656
57.374	26.689	1649.804	1349.025
58.388	26.779	1648.295	1348.346
59.403	26.702	1647.733	1347.193
60.417	26.691	1646.631	1346.093
61.432	26.677	1645.319	1344.797
62.447	26.679	1644.411	1343.947
63.461	26.708	1643.630	1343.404
64.476	26.730	1642.730	1342.716
65.490	26.646	1641.774	1341.194
66.505	26.677	1641.050	1340.715
67.520	26.689	1639.833	1339.687
68.534	26.779	1638.622	1339.246
69.549	26.709	1637.807	1337.943
70.563	26.637	1636.394	1336.138
71.578	26.694	1635.473	1335.689
72.593	26.661	1634.719	1334.715
73.607	26.774	1633.626	1334.531
74.622	26.777	1631.985	1333.096
75.636	26.681	1631.989	1332.277
76.651	26.630	1631.649	1331.503
77.666	26.687	1630.273	1330.684
78.680	26.771	1629.379	1330.452
79.695	26.768	1628.166	1329.323
80.709	26.706	1627.756	1328.413
81.724	26.748	1626.929	1327.935
82.739	26.747	1625.873	1326.944
83.753	26.759	1624.718	1325.971
84.768	26.637	1624.331	1324.650
85.782	26.713	1623.189	1324.152
86.797	26.701	1622.513	1323.394
87.812	26.658	1621.472	1322.114
88.826	26.650	1620.831	1321.419
89.841	26.687	1619.609	1320.578
90.855	26.757	1618.338	1319.929
91.870	26.743	1617.285	1318.854
92.884	26.754	1616.236	1317.962
93.899	26.725	1615.623	1317.134
94.914	26.802	1613.996	1316.252
95.928	26.773	1612.823	1314.971
96.943	26.814	1611.630	1314.177
97.957	26.782	1610.592	1312.985
98.972	26.772	1609.294	1311.738
99.987	26.698	1607.993	1310.021
101.001	26.733	1606.647	1309.061
102.016	26.767	1604.979	1307.838
103.030	26.646	1603.622	1305.738
104.045	26.710	1602.677	1305.319
105.060	26.646	1601.779	1304.011
106.074	26.758	1600.127	1303.356
107.089	26.742	1598.641	1301.915
108.103	26.740	1597.972	1301.241
109.118	26.742	1597.043	1300.382
110.133	26.749	1595.872	1299.360
111.147	26.800	1594.770	1298.717
112.162	26.808	1593.851	1297.908
113.176	26.745	1592.713	1296.418
114.191	26.737	1591.041	1294.883
115.206	26.743	1589.903	1293.886
116.220	26.772	1589.032	1293.273
117.235	26.759	1587.725	1292.004
118.249	26.827	1586.774	1291.598
119.264	26.774	1585.394	1289.980
120.279	26.674	1584.858	1288.722
121.293	26.876	1583.188	1288.687
122.308	26.869	1582.204	1287.720
123.322	26.813	1580.863	1286.117
124.337	26.940	1579.413	1285.726
125.352	26.886	1578.752	1284.690
126.366	26.860	1577.899	1283.699
127.381	26.872	1577.101	1283.017
128.395	26.825	1576.659	1282.215
129.410	26.882	1575.395	1281.476
130.424	26.925	1573.578	1280.189
131.439	26.864	1572.357	1278.647
132.454	26.818	1572.050	1277.962
133.468	26.937	1570.009	1277.031
134.483	26.777	1569.059	1275.015
135.497	26.923	1567.807	1274.912
136.512	26.826	1566.511	1273.064
137.527	26.905	1565.358	1272.570
138.541	26.887	1564.495	1271.629
139.556	26.853	1563.280	1270.292
140.570	26.905	1562.028	1269.527
141.585	26.912	1560.584	1268.292
142.600	26.869	1559.953	1267.361
143.614	26.891	1558.667	1266.361
144.629	26.944	1557.615	1265.763
145.643	26.908	1556.493	1264.490
146.658	26.752	1555.482	1262.466
147.673	26.799	1553.887	1261.390
148.687	26.826	1553.005	1260.749
149.702	26.803	1552.068	1259.720
150.716	26.817	1550.783	1258.660
151.731	26.816	1549.859	1257.790
152.746	26.768	1548.893	1256.567
153.760	26.900	1547.219	1256.010
154.775	26.937	1546.041	1255.196
155.789	26.940	1545.430	1254.608
156.804	26.995	1543.851	1253.596
157.819	26.970	1542.982	1252.612
158.833	26.925	1542.026	1251.415
159.848	26.928	1540.784	1250.312
160.862	27.002	1539.934	1250.025
161.877	26.966	1539.056	1248.948
162.892	27.008	1538.107	1248.358
163.906	26.952	1537.429	1247.312
164.921	26.975	1536.216	1246.380
165.935	27.032	1535.470	1246.050
166.950	26.949	1534.958	1244.959
167.964	26.933	1533.714	1243.729
168.979	27.001	1532.659	1243.229
169.994	26.993	1531.724	1242.305
171.008	26.947	1531.318	1241.553
172.023	26.993	1530.422	1241.028
173.037	27.036	1528.990	1240.050
174.052	27.096	1527.558	1239.194
175.067	27.117	1527.156	1238.899
176.081	26.947	1526.020	1236.707
177.096	27.023	1525.077	1236.357
178.110	27.065	1524.379	1235.963
179.125	27.024	1523.120	1234.555
180.140	26.979	1522.254	1233.441
181.154	27.117	1521.412	1233.582
182.169	27.138	1520.417	1232.810
183.183	27.104	1519.480	1231.714
184.198	26.975	1518.743	1230.128
185.213	27.120	1517.637	1230.105
186.227	27.148	1516.534	1229.293
187.242	27.035	1516.531	1228.418
188.256	27.157	1515.547	1228.335
189.271	27.127	1513.924	1226.714
190.286	27.062	1513.661	1225.950
191.300	27.241	1512.653	1226.233
192.315	27.127	1511.875	1224.728
193.329	27.117	1511.174	1223.984
194.344	27.133	1509.845	1222.905
195.359	27.099	1509.588	1222.361
196.373	27.147	1508.563	1221.742
197.388	27.089	1507.746	1220.581
198.402	26.994	1506.687	1218.984
199.417	27.055	1505.546	1218.362
200.432	27.098	1504.898	1218.017
201.446	27.123	1504.367	1217.645
202.461	27.140	1503.230	1216.730
203.475	27.066	1502.554	1215.582
204.490	27.117	1501.562	1215.014
205.504	27.112	1500.738	1214.207
206.519	27.123	1499.748	1213.372
207.534	27.189	1499.251	1213.303
208.548	27.208	1498.031	1212.332
209.563	27.183	1497.065	1211.276
210.577	27.281	1496.285	1211.192
211.592	27.098	1495.922	1209.572
212.607	27.177	1495.265	1209.461
213.621	27.217	1494.690	1209.156
214.636	27.278	1493.061	1208.132
215.650	27.221	1492.798	1207.434
216.665	27.303	1491.845	1207.103
217.680	27.233	1491.449	1206.209
218.694	27.243	1490.522	1205.420
219.709	27.275	1489.384	1204.603
220.723	27.375	1488.564	1204.498
221.738	27.259	1487.833	1203.033
222.753	27.242	1487.150	1202.258
223.767	27.116	1486.306	1200.637
224.782	27.159	1485.077	1199.821
225.796	27.210	1484.532	1199.613
226.811	27.319	1483.593	1199.471
227.826	27.323	1483.159	1199.037
228.840	27.391	1482.071	1198.502
229.855	27.324	1481.655	1197.618
230.869	27.312	1480.450	1196.457
231.884	27.244	1479.828	1195.402
232.899	27.202	1478.881	1194.251
233.913	27.227	1477.854	1193.484
234.928	27.330	1476.577	1193.023
235.942	27.365	1475.447	1192.233
236.957	27.377	1474.703	1191.603
237.972	27.346	1473.621	1190.423
238.986	27.389	1472.242	1189.485
240.001	27.332	1471.802	1188.653
241.015	27.423	1470.965	1188.462
242.030	27.482	1469.799	1187.799
243.045	27.543	1468.852	1187.331
244.059	27.404	1468.563	1186.087
245.074	27.463	1467.420	1185.443
246.088	27.455	1466.877	1184.846
247.103	27.470	1465.841	1184.002
248.117	27.476	1465.305	1183.499
249.132	27.530	1464.374	1182.994
250.147	27.454	1463.760	1181.902
251.161	27.577	1462.437	1181.528
252.176	27.565	1462.635	1181.503
253.190	27.513	1461.684	1180.296
254.205	27.652	1460.604	1180.221
255.220	27.626	1459.653	1179.175
256.234	27.574	1459.151	1178.327
257.249	27.618	1458.210	1177.748
258.263	27.694	1457.169	1177.295
259.278	27.570	1456.556	1175.896
260.293	27.512	1456.029	1174.993
261.307	27.650	1455.030	1174.970
262.322	27.609	1454.475	1174.157
263.336	27.673	1453.794	1173.913
264.351	27.694	1452.514	1172.913
265.366	27.637	1452.168	1172.165
266.380	27.731	1450.679	1171.458
267.395	27.666	1449.811	1170.238
268.409	27.762	1448.967	1170.067
269.424	27.663	1448.287	1168.783
270.439	27.687	1447.264	1168.005
271.453	27.624	1446.580	1166.951
272.468	27.724	1445.445	1166.568
273.482	27.703	1445.341	1166.245
274.497	27.660	1444.876	1165.498
275.512	27.721	1443.975	1165.055
276.526	27.779	1442.860	1164.423
277.541	27.749	1442.024	1163.451
278.555	27.687	1441.231	1162.315
279.570	27.776	1440.958	1162.557
280.585	27.749	1439.447	1161.066
281.599	27.699	1439.163	1160.412
282.614	27.809	1437.969	1160.048
283.628	27.715	1437.338	1158.842
284.643	27.696	1436.497	1157.940
285.657	27.885	1435.228	1158.010
286.672	27.789	1434.549	1156.754
287.687	27.764	1433.649	1155.765
288.701	27.846	1432.913	1155.588
289.716	27.764	1431.866	1154.125
290.730	27.860	1431.311	1154.181
291.745	27.813	1430.297	1152.962
292.760	27.899	1429.490	1152.753
293.774	27.904	1428.251	1151.686
294.789	27.821	1427.797	1150.694
295.803	27.880	1427.348	1150.603
296.818	27.970	1425.969	1149.956
297.833	27.874	1425.708	1149.037
298.847	27.930	1424.816	1148.569
299.862	27.842	1423.717	1147.029
300.876	27.963	1423.035	1147.141
301.891	27.955	1422.029	1146.179
302.906	27.970	1421.368	1145.639
303.920	28.048	1420.887	1145.637
304.935	28.033	1420.518	1145.141
305.949	28.018	1419.733	1144.315
306.964	28.101	1418.762	1143.953
307.979	28.052	1417.814	1142.778
308.993	28.006	1416.772	1141.552
310.008	28.077	1415.858	1141.156
311.022	28.041	1415.272	1140.361
312.037	28.138	1413.629	1139.539
313.052	28.114	1413.354	1139.067
314.066	28.156	1412.395	1138.456
315.081	28.093	1411.648	1137.359
316.095	28.042	1410.895	1136.337
317.110	28.095	1410.076	1135.904
318.125	28.121	1408.805	1134.943
319.139	28.203	1408.108	1134.788
320.154	28.171	1407.087	1133.663
321.168	28.145	1406.795	1133.170
322.183	28.166	1405.567	1132.212
323.197	28.138	1404.402	1130.995
324.212	28.240	1404.071	1131.265
325.227	28.148	1403.283	1129.958
326.241	28.245	1402.567	1129.878
327.256	28.279	1401.656	1129.255
328.270	28.349	1400.660	1128.787
329.285	28.252	1399.922	1127.493
330.300	28.217	1399.253	1126.642
331.314	28.258	1398.535	1126.212
332.329	28.347	1397.632	1125.934
333.343	28.266	1397.081	1124.897
334.358	28.355	1396.330	1124.733
335.373	28.396	1395.636	1124.331
336.387	28.368	1394.829	1123.405
337.402	28.411	1394.232	1123.091
338.416	28.395	1393.517	1122.316
339.431	28.527	1393.157	1122.734
340.446	28.408	1392.675	1121.519
341.460	28.351	1391.679	1120.272
342.475	28.430	1390.864	1119.999
343.489	28.414	1389.975	1119.086
344.504	28.501	1388.675	1118.473
345.519	28.461	1387.813	1117.436
346.533	28.409	1387.059	1116.411
347.548	28.544	1386.118	1116.378
348.562	28.560	1385.271	1115.692
349.577	28.549	1384.657	1115.031
350.592	28.613	1383.724	1114.571
351.606	28.465	1383.256	1113.198
352.621	28.420	1382.081	1111.878
353.635	28.451	1381.206	1111.266
354.650	28.443	1380.447	1110.506
355.665	28.565	1379.546	1110.424
356.679	28.501	1378.323	1108.951
357.694	28.547	1377.678	1108.613
358.708	28.658	1376.693	1108.394
359.723	28.634	1375.815	1107.443
360.738	28.614	1374.589	1106.237
361.752	28.548	1373.276	1104.686
362.767	28.547	1372.367	1103.853
363.781	28.555	1371.723	1103.284
364.796	28.525	1371.166	1102.558
365.810	28.655	1370.297	1102.543
366.825	28.705	1369.448	1102.060
367.840	28.649	1368.811	1101.117
368.854	28.750	1367.843	1100.846
369.869	28.781	1367.610	1100.748
370.883	28.751	1366.860	1099.865
371.898	28.740	1366.421	1099.348
372.913	28.792	1365.539	1098.854
373.927	28.785	1364.350	1097.756
374.942	28.812	1363.738	1097.329
375.956	28.775	1363.041	1096.453
376.971	28.791	1362.788	1096.246
377.986	28.802	1361.716	1095.354
379.000	28.757	1361.420	1094.751
380.015	28.905	1360.277	1094.613
381.029	28.951	1359.352	1094.047
382.044	28.881	1358.760	1093.058
383.059	28.807	1358.087	1091.979
384.073	28.911	1357.331	1091.891
385.088	28.996	1356.927	1091.975
386.102	28.994	1356.389	1091.434
387.117	28.945	1355.383	1090.238
388.132	28.973	1354.629	1089.701
389.146	29.036	1354.176	1089.613
390.161	28.949	1353.714	1088.631
391.175	28.892	1353.096	1087.698
392.190	28.998	1352.593	1087.825
393.205	28.953	1351.792	1086.817
394.219	28.957	1350.952	1086.073
395.234	28.966	1349.550	1084.901
396.248	28.994	1348.719	1084.299
397.263	29.037	1347.546	1083.515
398.278	29.018	1346.579	1082.530
399.292	29.114	1345.557	1082.174
400.307	29.059	1344.804	1081.152
401.321	29.122	1343.887	1080.687
402.336	29.157	1342.834	1079.953
403.350	29.071	1342.243	1078.879
404.365	29.045	1341.121	1077.727
405.380	29.143	1340.197	1077.461
406.394	29.151	1339.515	1076.869
407.409	29.035	1339.206	1075.846
408.423	29.119	1338.319	1075.527
409.438	29.168	1337.560	1075.110
410.453	29.272	1336.637	1074.875
411.467	29.271	1336.344	1074.544
412.482	29.234	1335.431	1073.499
413.496	29.346	1334.628	1073.409
414.511	29.219	1334.393	1072.383
415.526	29.368	1333.377	1072.341
416.540	29.308	1332.742	1071.384
417.555	29.327	1332.008	1070.812
418.569	29.278	1331.573	1070.081
419.584	29.264	1331.524	1069.868
420.599	29.200	1331.037	1069.012
421.613	93.725	1348.779	1445.620
422.628	93.261	1351.329	1445.743
