DTS Sentinel unit serial number:	SN413079Multiplexer serial number:	ORYXHardware model number:	OX4-SRSoftware version number:	ORYX F/W v4.00 Oryx Data Collector v3.7.2.0data status	okinstallation	princeton_trtdifferential loss correction	single-endedforward channel	channel 4reverse channel	N/Adate	2019/09/19time	04:05:35forward acquisition time	60.00reverse acquisition time	0.00gamma	496.2192k internal	0.2340k external	0.2340temperature offset calibration	1.0030default loss term (dB/km)	0.3790temperature slope calibration	1.0000multiplexer offset coefficient	1.0000multiplexer slope coefficient	1.0000fibre end	0.00T internal ref (°C)	20.37T ext. ref 1 (°C)	0.63T ext. ref 2 (°C)	13.98length (m)	temperature (°C)	Stokes	anti-Stokes-747.200	20.533	-0.062	-0.050
-746.185	-200.000	-0.020	0.176
-745.171	49.630	-0.133	0.125
-744.156	87.055	-0.251	0.278
-743.142	82.459	0.173	0.188
-742.127	-134.236	-0.313	0.039
-741.112	-200.000	-0.011	0.209
-740.098	3.161	-0.213	0.155
-739.083	800.000	0.078	0.222
-738.069	-41.170	0.182	0.094
-737.054	17.279	0.091	-0.072
-736.039	-200.000	-0.281	-0.001
-735.025	35.764	0.042	0.037
-734.010	-52.519	-0.166	-0.077
-732.996	-72.588	-0.211	0.078
-731.981	800.000	0.013	-0.046
-730.966	1.165	0.121	0.087
-729.952	800.000	-0.120	-0.348
-728.937	428.235	-0.096	-0.208
-727.923	40.089	0.301	-0.271
-726.908	-200.000	-0.055	0.279
-725.894	-90.830	-0.435	-0.126
-724.879	12.364	0.024	-0.019
-723.864	-157.154	0.265	-0.016
-722.850	-200.000	0.048	0.314
-721.835	111.271	-0.084	0.102
-720.821	-200.000	-0.049	-0.237
-719.806	-117.369	0.091	-0.016
-718.791	-65.183	0.366	0.148
-717.777	124.724	-0.235	-0.296
-716.762	800.000	-0.061	-0.171
-715.748	-155.252	-0.034	0.002
-714.733	-85.768	-0.096	-0.030
-713.718	59.663	0.181	0.179
-712.704	-179.236	-0.287	0.006
-711.689	590.264	-0.053	0.132
-710.675	800.000	-0.047	0.156
-709.660	-200.000	0.009	-0.130
-708.645	-138.193	-0.191	0.021
-707.631	-172.953	0.110	0.003
-706.616	-144.694	0.171	0.016
-705.602	-38.571	-0.173	-0.092
-704.587	800.000	-0.045	-0.126
-703.572	800.000	0.038	-0.147
-702.558	-112.545	-0.433	-0.086
-701.543	7.321	-0.114	0.085
-700.529	41.753	0.265	-0.241
-699.514	800.000	0.039	0.152
-698.499	110.538	-0.157	0.189
-697.485	55.416	0.135	-0.130
-696.470	8.780	-0.357	-0.269
-695.456	-149.786	0.240	0.019
-694.441	8.004	-0.206	0.154
-693.426	-200.000	-0.015	0.168
-692.412	34.717	-0.083	-0.072
-691.397	38.145	0.027	0.024
-690.383	150.997	0.074	0.100
-689.368	64.205	-0.160	0.161
-688.354	-200.000	0.014	0.143
-687.339	688.680	0.148	0.387
-686.324	-36.970	-0.428	-0.229
-685.310	14.470	0.106	0.083
-684.295	81.767	-0.149	0.161
-683.281	-145.630	0.409	0.037
-682.266	-103.972	0.057	0.013
-681.251	144.000	0.054	-0.072
-680.237	68.175	0.055	0.057
-679.222	-56.980	0.147	0.065
-678.208	-138.645	-0.273	-0.030
-677.193	-39.543	0.192	-0.100
-676.178	-84.941	0.181	0.057
-675.164	-85.243	-0.164	0.051
-674.149	-200.000	-0.020	-0.328
-673.135	57.004	-0.113	0.110
-672.120	-200.000	0.064	-0.382
-671.105	171.128	0.089	-0.128
-670.091	-27.173	-0.147	-0.086
-669.076	319.341	-0.207	-0.393
-668.062	-136.964	-0.256	0.029
-667.047	-200.000	0.027	0.289
-666.032	800.000	-0.016	-0.059
-665.018	69.012	0.078	0.080
-664.003	-166.836	0.129	-0.005
-662.989	124.418	0.140	0.176
-661.974	-161.887	0.410	0.021
-660.959	276.579	-0.163	-0.289
-659.945	172.668	-0.131	0.189
-658.930	-89.451	0.231	0.068
-657.916	750.194	-0.047	0.127
-656.901	-52.379	0.211	0.098
-655.886	9.319	-0.062	0.047
-654.872	-112.981	-0.347	-0.069
-653.857	-4.409	-0.173	0.119
-652.843	83.140	0.160	0.174
-651.828	64.978	0.113	-0.114
-650.814	32.682	-0.115	0.099
-649.799	800.000	-0.027	0.084
-648.784	800.000	0.053	0.173
-647.770	46.596	-0.193	0.179
-646.755	557.457	0.170	-0.410
-645.741	-27.451	-0.338	-0.196
-644.726	-60.259	0.492	0.209
-643.711	800.000	0.019	-0.063
-642.697	440.401	0.048	-0.106
-641.682	-40.385	-0.144	-0.075
-640.668	634.535	-0.136	0.344
-639.653	24.858	-0.083	-0.068
-638.638	-44.687	0.182	-0.091
-637.624	-3.473	0.180	-0.125
-636.609	800.000	-0.026	-0.088
-635.595	-108.500	0.173	-0.037
-634.580	-200.000	-0.026	0.292
-633.565	800.000	0.059	0.206
-632.551	-200.000	-0.063	0.313
-631.536	-126.330	-0.228	-0.034
-630.522	-145.917	0.176	0.016
-629.507	651.457	-0.120	-0.306
-628.492	259.156	-0.217	0.374
-627.478	-200.000	-0.009	0.149
-626.463	-200.000	0.002	-0.091
-625.449	-200.000	0.019	-0.268
-624.434	70.040	0.165	0.170
-623.419	-200.000	0.026	-0.169
-622.405	-98.034	-0.118	0.030
-621.390	-36.439	0.081	-0.043
-620.376	-49.556	-0.219	0.104
-619.361	300.707	-0.098	0.180
-618.346	-33.690	0.440	0.242
-617.332	-58.090	-0.351	0.153
-616.317	72.707	-0.244	-0.254
-615.303	800.000	-0.108	-0.399
-614.288	-200.000	-0.042	-0.278
-613.273	-200.000	0.037	0.163
-612.259	-22.689	-0.249	0.150
-611.244	58.536	0.099	0.097
-610.230	800.000	0.049	0.140
-609.215	516.526	-0.049	0.114
-608.201	675.293	0.088	0.228
-607.186	800.000	-0.025	0.090
-606.171	646.801	0.063	-0.161
-605.157	-200.000	0.070	0.477
-604.142	9.537	-0.250	-0.189
-603.128	-74.472	-0.214	0.077
-602.113	130.561	0.160	-0.204
-601.098	-200.000	-0.017	0.147
-600.084	162.988	0.076	-0.106
-599.069	-125.610	-0.274	-0.041
-598.055	255.226	-0.054	0.092
-597.040	-1.376	-0.107	-0.075
-596.025	800.000	-0.142	-0.457
-595.011	-200.000	0.047	0.266
-593.996	-94.624	0.159	0.043
-592.982	419.774	0.161	0.344
-591.967	26.196	-0.144	0.119
-590.952	-106.693	0.268	0.059
-589.938	-200.000	-0.047	-0.208
-588.923	-63.960	-0.488	-0.199
-587.909	-200.000	-0.003	0.187
-586.894	-14.927	0.287	-0.183
-585.879	-91.466	-0.217	-0.062
-584.865	-200.000	0.010	-0.045
-583.850	-100.801	0.218	0.054
-582.836	-108.903	-0.062	-0.013
-581.821	-200.000	0.000	0.025
-580.806	11.598	0.087	-0.067
-579.792	-73.616	-0.289	0.105
-578.777	-200.000	-0.014	0.170
-577.763	179.308	0.243	0.355
-576.748	95.455	0.013	-0.015
-575.733	161.327	0.039	-0.054
-574.719	-66.402	0.236	0.093
-573.704	-194.770	-0.058	-0.000
-572.690	87.167	-0.347	-0.382
-571.675	52.012	0.189	-0.180
-570.661	-101.354	-0.449	-0.109
-569.646	-26.299	0.073	0.043
-568.631	445.981	0.089	0.194
-567.617	-200.000	-0.002	-0.414
-566.602	88.030	-0.195	0.215
-565.588	23.527	0.196	0.160
-564.573	-127.028	-0.169	-0.025
-563.558	132.224	-0.167	0.214
-562.544	-200.000	-0.043	-0.557
-561.529	188.222	0.097	-0.145
-560.515	-200.000	-0.038	-0.444
-559.500	-137.978	0.199	-0.022
-558.485	-200.000	-0.038	0.217
-557.471	800.000	0.046	0.172
-556.456	-123.132	0.156	-0.025
-555.442	-165.104	0.155	-0.007
-554.427	-121.911	-0.246	-0.040
-553.412	-177.554	-0.226	0.005
-552.398	94.358	-0.226	0.255
-551.383	226.475	-0.119	-0.193
-550.369	506.126	-0.055	0.127
-549.354	-10.024	-0.045	0.030
-548.339	27.731	-0.295	0.247
-547.325	-200.000	-0.053	0.287
-546.310	-189.918	0.093	0.001
-545.296	800.000	0.042	-0.130
-544.281	800.000	0.142	0.431
-543.266	800.000	-0.166	-0.549
-542.252	66.658	-0.025	-0.025
-541.237	114.012	0.168	-0.203
-540.223	77.641	0.103	0.109
-539.208	-116.246	-0.309	0.057
-538.193	2.704	0.150	-0.108
-537.179	-63.862	-0.162	0.066
-536.164	800.000	-0.113	-0.474
-535.150	-132.661	-0.178	0.023
-534.135	205.079	0.204	-0.315
-533.121	-200.000	-0.015	-0.112
-532.106	18.870	0.237	-0.189
-531.091	28.756	-0.102	0.086
-530.077	800.000	-0.099	-0.359
-529.062	-200.000	-0.033	0.231
-528.048	368.019	0.226	0.455
-527.033	129.553	-0.126	-0.160
-526.018	12.791	0.199	0.153
-525.004	498.815	-0.067	-0.154
-523.989	-117.099	-0.134	-0.024
-522.975	-47.154	0.220	-0.107
-521.960	-126.335	-0.267	0.040
-520.945	262.083	-0.065	0.111
-519.931	186.241	0.151	-0.223
-518.916	-65.445	0.249	-0.099
-517.902	28.812	-0.144	0.121
-516.887	-200.000	-0.021	0.205
-515.872	343.476	0.057	-0.111
-514.858	-155.866	-0.150	0.009
-513.843	171.407	-0.085	-0.121
-512.829	800.000	0.087	0.251
-511.814	4.723	0.271	-0.198
-510.799	141.876	-0.088	-0.116
-509.785	-63.685	-0.168	0.068
-508.770	-19.608	-0.195	-0.120
-507.756	800.000	0.052	-0.207
-506.741	800.000	-0.096	0.358
-505.726	-19.282	0.060	-0.037
-504.712	-168.075	0.195	0.008
-503.697	-200.000	0.069	0.477
-502.683	-135.762	0.105	-0.012
-501.668	12.745	-0.250	0.192
-500.653	-84.337	-0.184	-0.058
-499.639	-200.000	0.013	0.067
-498.624	800.000	0.111	-0.408
-497.610	-58.881	-0.475	-0.204
-496.595	297.997	-0.197	-0.360
-495.581	-118.792	-0.344	-0.060
-494.566	-105.309	0.227	0.051
-493.551	130.832	0.182	0.232
-492.537	-31.235	-0.198	-0.111
-491.522	274.558	0.169	0.297
-490.508	-200.000	-0.025	0.125
-489.493	-105.716	-0.139	0.031
-488.478	15.679	0.235	0.184
-487.464	-69.217	-0.233	-0.089
-486.449	800.000	-0.150	0.511
-485.435	-163.265	0.063	0.003
-484.420	190.068	0.261	-0.389
-483.405	-74.326	0.100	-0.036
-482.391	223.691	-0.248	-0.398
-481.376	0.670	0.379	0.269
-480.362	-154.264	0.485	0.032
-479.347	-180.302	-0.143	0.003
-478.332	-77.157	-0.158	0.055
-477.318	58.243	0.109	-0.106
-476.303	-89.298	-0.160	0.047
-475.289	232.808	0.104	-0.170
-474.274	-68.983	-0.471	-0.180
-473.259	-56.582	0.144	-0.063
-472.245	5.101	0.153	0.112
-471.230	-7.859	0.135	0.091
-470.216	36.765	0.255	-0.224
-469.201	800.000	-0.090	-0.274
-468.186	-172.788	-0.177	-0.005
-467.172	277.718	-0.109	-0.192
-466.157	-126.766	0.102	-0.015
-465.143	688.128	-0.084	-0.219
-464.128	-169.017	0.260	-0.010
-463.113	763.274	-0.131	0.352
-462.099	-93.486	0.228	-0.063
-461.084	-91.598	0.323	0.091
-460.070	-66.356	-0.232	-0.091
-459.055	459.193	-0.050	-0.111
-458.040	-73.681	0.165	-0.060
-457.026	-5.973	-0.092	0.063
-456.011	-200.000	-0.042	0.311
-454.997	-24.182	0.382	0.226
-453.982	243.661	0.106	-0.176
-452.968	800.000	0.103	-0.327
-451.953	-38.127	-0.231	-0.122
-450.938	-22.611	-0.096	0.058
-449.924	-110.067	-0.233	0.048
-448.909	-73.590	-0.287	0.104
-447.895	-200.000	-0.005	0.074
-446.880	-78.363	-0.228	0.077
-445.865	-60.543	0.186	0.078
-444.851	146.238	-0.138	0.183
-443.836	-45.413	0.399	-0.196
-442.822	44.701	0.124	-0.113
-441.807	102.510	-0.057	-0.066
-440.792	800.000	-0.124	0.353
-439.778	-142.012	0.161	-0.016
-438.763	-156.102	-0.273	0.017
-437.749	-200.000	0.012	0.480
-436.734	-134.433	0.569	0.069
-435.719	22.810	-0.105	0.085
-434.705	-150.013	0.089	0.007
-433.690	-112.952	0.092	-0.018
-432.676	139.520	-0.090	0.117
-431.661	237.067	-0.147	-0.242
-430.646	27.802	0.278	-0.232
-429.632	73.135	0.073	-0.075
-428.617	20.610	0.357	0.286
-427.603	-137.533	0.093	-0.010
-426.588	173.432	-0.115	0.165
-425.573	-200.000	0.009	0.078
-424.559	187.610	0.191	0.283
-423.544	377.606	-0.194	0.393
-422.530	-200.000	0.084	0.453
-421.515	-87.368	-0.170	0.051
-420.500	-200.000	0.009	-0.239
-419.486	-104.629	0.308	0.070
-418.471	-151.338	-0.036	-0.003
-417.457	-45.313	0.390	0.192
-416.442	-69.282	0.242	0.092
-415.428	-107.372	0.292	0.063
-414.413	87.261	0.215	-0.235
-413.398	-46.821	0.077	-0.038
-412.384	-63.677	0.133	0.054
-411.369	-200.000	-0.007	-0.229
-410.355	0.849	-0.256	-0.182
-409.340	313.302	0.079	0.147
-408.325	106.772	-0.071	-0.083
-407.311	676.242	-0.057	0.146
-406.296	-14.375	0.288	0.184
-405.282	77.230	0.195	-0.206
-404.267	8.296	-0.272	0.202
-403.252	514.316	0.064	-0.148
-402.238	800.000	0.037	0.149
-401.223	-119.073	-0.386	0.067
-400.209	-121.085	0.235	0.039
-399.194	-200.000	-0.012	0.169
-398.179	94.371	-0.143	0.161
-397.165	228.730	0.031	-0.050
-396.150	48.941	-0.282	0.261
-395.136	800.000	0.054	0.186
-394.121	414.169	0.065	0.136
-393.106	-153.489	-0.262	-0.018
-392.092	-97.963	0.184	0.047
-391.077	7.621	0.245	0.181
-390.063	-78.605	0.205	-0.069
-389.048	606.354	0.169	-0.417
-388.033	11.393	0.119	0.090
-387.019	229.648	0.158	0.256
-386.004	-111.044	0.251	-0.051
-384.990	-49.680	0.246	0.116
-383.975	-200.000	0.001	-0.061
-382.960	-200.000	0.002	0.056
-381.946	22.195	0.203	0.164
-380.931	800.000	0.100	-0.283
-379.917	-156.288	0.304	0.019
-378.902	150.880	-0.077	0.104
-377.888	18.178	-0.233	-0.183
-376.873	490.351	0.133	0.300
-375.858	-11.536	-0.215	0.140
-374.844	-8.053	0.016	-0.011
-373.829	-43.637	0.443	0.221
-372.815	-72.298	-0.439	-0.161
-371.800	-200.000	0.013	0.287
-370.785	67.845	-0.240	-0.243
-369.771	-9.580	-0.272	-0.179
-368.756	-200.000	0.040	-0.212
-367.742	26.069	0.300	-0.247
-366.727	-112.692	-0.341	0.067
-365.712	800.000	-0.021	-0.083
-364.698	45.033	0.256	-0.233
-363.683	800.000	-0.061	0.220
-362.669	253.333	-0.113	-0.191
-361.654	25.959	-0.214	-0.176
-360.639	-50.601	-0.220	0.102
-359.625	-17.606	-0.184	-0.114
-358.610	0.758	-0.082	0.058
-357.596	-61.137	0.110	-0.046
-356.581	116.453	0.328	0.397
-355.566	-49.117	-0.198	-0.094
-354.552	-2.654	-0.381	0.263
-353.537	200.615	0.094	0.143
-352.523	-156.267	0.134	0.008
-351.508	211.982	-0.087	0.136
-350.493	-41.293	-0.222	0.113
-349.479	800.000	-0.080	0.276
-348.464	-40.541	-0.177	0.091
-347.450	99.311	0.166	0.189
-346.435	510.849	0.126	0.289
-345.420	-46.612	-0.147	-0.071
-344.406	800.000	-0.069	0.194
-343.391	-106.106	0.158	0.035
-342.377	800.000	-0.020	0.083
-341.362	-28.436	-0.136	0.078
-340.348	-103.418	0.269	0.063
-339.333	-159.810	-0.396	-0.021
-338.318	228.877	-0.096	0.155
-337.304	140.981	0.118	-0.154
-336.289	249.990	0.162	-0.271
-335.275	-142.153	-0.295	0.029
-334.260	-30.244	0.363	-0.203
-333.245	115.521	-0.155	-0.187
-332.231	-200.000	-0.011	-0.105
-331.216	-200.000	0.261	-0.001
-330.202	-49.524	-0.105	0.049
-329.187	-103.507	-0.196	0.046
-328.172	-119.070	-0.189	0.033
-327.158	-60.349	0.151	-0.063
-326.143	-178.535	-0.039	0.001
-325.129	-29.213	-0.103	0.058
-324.114	93.135	-0.154	-0.172
-323.099	159.678	-0.127	-0.174
-322.085	163.882	-0.202	-0.280
-321.070	-85.687	0.156	0.048
-320.056	78.963	0.257	-0.271
-319.041	83.566	-0.051	-0.055
-318.026	-60.603	0.114	-0.048
-317.012	307.055	-0.223	0.410
-315.997	-200.000	0.052	0.411
-314.983	-117.003	0.470	0.085
-313.968	-200.000	-0.114	-0.000
-312.953	800.000	0.021	0.078
-311.939	-55.888	-0.090	0.039
-310.924	1.519	-0.195	-0.138
-309.910	354.269	-0.081	0.159
-308.895	257.552	-0.166	-0.282
-307.880	140.700	-0.141	-0.184
-306.866	-50.415	-0.171	0.079
-305.851	541.581	-0.050	-0.118
-304.837	477.713	-0.060	-0.134
-303.822	-82.059	-0.216	0.069
-302.807	419.174	0.162	0.342
-301.793	-200.000	0.004	-0.302
-300.778	40.157	0.042	-0.037
-299.764	46.055	0.199	0.181
-298.749	800.000	0.029	0.114
-297.735	-200.000	-0.024	0.264
-296.720	213.789	0.152	-0.237
-295.705	220.247	-0.072	0.114
-294.691	-153.772	-0.141	0.009
-293.676	-200.000	0.019	0.117
-292.662	771.594	0.015	0.041
-291.647	-200.000	-0.007	-0.154
-290.632	-72.667	-0.289	-0.105
-289.618	41.807	-0.149	-0.133
-288.603	800.000	0.059	-0.227
-287.589	82.049	0.034	-0.036
-286.574	566.652	0.155	-0.371
-285.559	-200.000	0.048	-0.339
-284.545	176.674	0.043	0.061
-283.530	-170.116	-0.187	-0.007
-282.516	9.645	0.095	-0.071
-281.501	-200.000	-0.065	0.411
-280.486	-76.130	0.186	-0.065
-279.472	-96.348	0.386	-0.101
-278.457	-62.657	-0.314	0.128
-277.443	800.000	-0.060	-0.216
-276.428	-72.608	0.260	-0.095
-275.413	-200.000	-0.023	0.109
-274.399	800.000	0.047	-0.156
-273.384	-39.557	-0.170	0.088
-272.370	-130.169	0.147	0.020
-271.355	66.646	0.039	0.039
-270.340	55.944	-0.154	-0.147
-269.326	800.000	-0.049	-0.208
-268.311	-41.277	0.240	-0.122
-267.297	-140.335	0.383	0.039
-266.282	48.909	-0.142	-0.131
-265.267	-200.000	0.001	-0.024
-264.253	159.708	0.151	-0.207
-263.238	-31.139	0.256	-0.142
-262.224	-61.572	-0.239	0.099
-261.209	157.347	0.031	-0.042
-260.195	-37.905	0.238	-0.125
-259.180	-66.254	-0.292	0.114
-258.165	-17.254	-0.084	0.052
-257.151	129.063	-0.093	0.117
-256.136	49.717	-0.221	-0.205
-255.122	204.708	0.069	-0.106
-254.107	800.000	-0.110	-0.408
-253.092	800.000	0.018	-0.055
-252.078	447.418	-0.069	0.149
-251.063	382.649	-0.177	0.357
-250.049	-121.027	0.181	-0.030
-249.034	-106.906	-0.212	0.046
-248.019	-5.597	-0.286	0.193
-247.005	-200.000	-0.022	0.141
-245.990	-118.291	0.149	-0.026
-244.976	341.395	-0.086	0.166
-243.961	33.862	0.137	-0.117
-242.946	17.846	0.088	0.069
-241.932	337.919	-0.111	-0.213
-240.917	247.702	0.095	-0.157
-239.903	-100.751	-0.390	-0.095
-238.888	-200.000	0.020	-0.297
-237.873	255.593	-0.096	0.162
-236.859	47.087	0.050	0.046
-235.844	-200.000	-0.054	-0.245
-234.830	67.630	0.271	0.272
-233.815	-53.148	0.131	0.059
-232.800	-1.209	-0.077	-0.054
-231.786	-103.586	-0.345	-0.080
-230.771	136.807	0.085	0.109
-229.757	-200.000	-0.002	0.278
-228.742	-200.000	0.079	0.530
-227.727	-131.633	0.162	0.021
-226.713	-200.000	0.005	0.183
-225.698	279.447	-0.136	0.238
-224.684	381.673	0.115	-0.233
-223.669	800.000	0.121	-0.391
-222.655	-40.220	0.152	0.078
-221.640	400.049	0.042	0.086
-220.625	129.536	0.199	-0.250
-219.611	-159.585	-0.188	0.010
-218.596	800.000	-0.077	-0.211
-217.582	89.169	-0.090	0.099
-216.567	198.273	-0.140	0.211
-215.552	440.323	0.091	-0.195
-214.538	-75.255	-0.294	-0.103
-213.523	-52.819	0.063	-0.028
-212.509	800.000	-0.032	0.114
-211.494	262.584	-0.108	-0.183
-210.479	-136.146	-0.106	-0.012
-209.465	56.713	0.128	-0.122
-208.450	14.064	0.069	0.053
-207.436	481.666	0.089	0.197
-206.421	-200.000	-0.046	-0.310
-205.406	213.224	0.113	-0.176
-204.392	427.538	-0.050	0.107
-203.377	-172.090	0.168	-0.005
-202.363	-124.084	0.215	-0.033
-201.348	-200.000	-0.036	0.165
-200.333	-115.903	-0.354	-0.065
-199.319	-109.324	0.145	0.030
-198.304	-81.347	0.104	-0.034
-197.290	-83.925	0.036	-0.011
-196.275	26.292	-0.217	-0.178
-195.260	800.000	0.049	-0.185
-194.246	800.000	0.011	0.045
-193.231	800.000	0.104	0.440
-192.217	-200.000	0.045	0.194
-191.202	-200.000	0.064	0.295
-190.187	-200.000	0.042	-0.233
-189.173	10.089	0.315	-0.235
-188.158	272.013	0.047	0.082
-187.144	-78.549	-0.253	-0.085
-186.129	103.897	-0.145	0.167
-185.114	-200.000	0.006	-0.132
-184.100	34.588	0.361	-0.310
-183.085	723.959	0.115	0.301
-182.071	302.040	-0.047	0.085
-181.056	-118.296	-0.280	0.049
-180.042	-52.153	-0.155	-0.071
-179.027	128.658	0.219	0.274
-178.012	-97.351	-0.241	0.062
-176.998	526.949	0.163	-0.378
-175.983	800.000	-0.120	-0.337
-174.969	320.310	-0.209	-0.390
-173.954	-120.895	-0.141	-0.023
-172.939	54.658	-0.078	0.074
-171.925	-43.304	-0.008	0.004
-170.910	58.503	0.334	-0.321
-169.896	-200.000	0.007	-0.193
-168.881	-123.374	-0.186	0.029
-167.866	-78.242	0.076	0.025
-166.852	-4.299	0.115	0.078
-165.837	-200.000	0.027	0.201
-164.823	-200.000	-0.067	-0.310
-163.808	714.738	0.077	-0.201
-162.793	21.491	0.302	0.240
-161.779	-45.489	0.163	0.079
-160.764	101.078	0.116	0.133
-159.750	-145.910	-0.399	-0.035
-158.735	519.576	0.092	0.211
-157.720	800.000	0.093	-0.329
-156.706	348.490	0.209	-0.405
-155.691	104.428	-0.065	0.075
-154.677	-56.856	0.230	0.099
-153.662	131.356	0.142	-0.178
-152.647	307.006	0.109	-0.198
-151.633	-110.614	0.072	-0.015
-150.618	-35.204	0.137	-0.073
-149.604	172.568	-0.164	-0.232
-148.589	800.000	-0.024	0.093
-147.574	5.901	-0.086	0.063
-146.560	-169.265	-0.062	0.002
-145.545	372.439	0.062	0.124
-144.531	198.784	-0.083	0.124
-143.516	189.735	0.076	-0.112
-142.502	-164.847	0.253	0.011
-141.487	42.524	0.273	-0.243
-140.472	563.024	0.068	-0.162
-139.458	-48.335	-0.318	0.150
-138.443	-78.098	-0.133	-0.045
-137.429	-200.000	0.001	0.171
-136.414	57.214	-0.155	0.148
-135.399	-200.000	0.081	-0.524
-134.385	-34.966	-0.213	0.114
-133.370	598.320	-0.038	0.091
-132.356	-200.000	-0.005	0.136
-131.341	700.257	0.099	0.255
-130.326	-200.000	0.017	-0.253
-129.312	-151.838	-0.198	-0.014
-128.297	37.654	0.103	-0.090
-127.283	29.477	-0.112	-0.094
-126.268	-200.000	-0.015	-0.178
-125.253	-53.739	0.198	-0.089
-124.239	375.046	0.029	0.058
-123.224	120.569	0.230	0.280
-122.210	-63.979	-0.039	-0.016
-121.195	444.785	-0.072	0.155
-120.180	-77.174	-0.240	0.082
-119.166	-129.334	-0.109	-0.015
-118.151	-11.585	0.122	-0.079
-117.137	87.094	0.028	0.030
-116.122	-63.183	0.237	0.096
-115.107	34.550	-0.076	0.065
-114.093	79.302	-0.232	0.243
-113.078	-30.013	0.121	-0.067
-112.064	-200.000	0.024	0.176
-111.049	236.655	0.060	0.097
-110.034	-11.903	0.147	-0.094
-109.020	800.000	0.033	0.095
-108.005	109.047	0.100	0.117
-106.991	84.573	-0.334	-0.358
-105.976	-39.338	-0.227	0.117
-104.962	5.856	0.117	0.084
-103.947	-64.026	0.123	-0.049
-102.932	-113.227	0.184	0.035
-101.918	800.000	0.053	0.155
-100.903	36.766	0.104	-0.090
-99.889	248.770	0.054	0.090
-98.874	544.308	0.115	-0.269
-97.859	-57.468	-0.210	0.090
-96.845	-200.000	0.017	0.081
-95.830	-105.216	0.461	0.103
-94.816	399.214	0.052	-0.107
-93.801	-200.000	-0.044	0.263
-92.786	-141.073	-0.067	-0.007
-91.772	-46.094	-0.280	-0.135
-90.757	496.646	0.093	0.209
-89.743	7.725	0.363	0.265
-88.728	89.568	0.024	-0.026
-87.713	-4.908	-0.111	-0.075
-86.699	-122.150	0.503	-0.080
-85.684	-200.000	-0.031	0.179
-84.670	247.016	-0.166	-0.274
-83.655	-36.398	0.072	-0.038
-82.640	195.277	0.159	0.236
-81.626	215.497	0.080	-0.124
-80.611	-131.184	-0.479	-0.062
-79.597	533.146	-0.063	-0.145
-78.582	-101.261	-0.226	-0.054
-77.567	23.417	0.388	0.311
-76.553	-200.000	0.011	-0.128
-75.538	-112.101	0.197	-0.039
-74.524	0.456	-0.424	0.296
-73.509	800.000	-0.020	0.073
-72.494	-6.947	0.141	-0.094
-71.480	-135.897	0.125	0.014
-70.465	484.353	-0.141	-0.314
-69.451	-192.417	0.438	0.004
-68.436	-200.000	0.008	-0.054
-67.422	-200.000	0.005	-0.256
-66.407	-200.000	0.017	0.086
-65.392	-85.363	0.088	-0.027
-64.378	5.924	0.086	0.062
-63.363	464.666	0.090	0.197
-62.349	-200.000	0.039	0.328
-61.334	30.514	-1.334	-1.113
-60.319	51.071	0.750	0.694
-59.305	800.000	-0.507	-1.488
-58.290	142.753	1.076	1.396
-57.276	361.206	0.905	1.770
-56.261	-200.000	136.879	656.787
-55.246	332.310	1670.639	3147.890
-54.232	132.833	2808.313	3537.350
-53.217	77.047	2350.231	2436.504
-52.203	26.508	2091.393	1707.210
-51.188	21.960	2009.518	1598.977
-50.173	21.091	1995.173	1579.640
-49.159	39.098	2073.195	1808.991
-48.144	36.531	2082.327	1793.109
-47.130	22.447	2034.793	1623.326
-46.115	20.441	2023.947	1596.193
-45.100	20.344	2021.076	1592.970
-44.086	20.275	2019.396	1590.955
-43.071	20.160	2016.127	1587.263
-42.057	20.326	2013.809	1586.894
-41.042	20.336	2012.213	1585.667
-40.027	20.286	2010.006	1583.404
-39.013	20.244	2008.674	1581.913
-37.998	20.255	2007.051	1580.665
-36.984	20.245	2004.814	1578.756
-35.969	20.302	2002.754	1577.591
-34.954	20.309	2001.177	1576.350
-33.940	20.306	2000.302	1575.570
-32.925	20.447	1998.359	1575.250
-31.911	20.385	1996.877	1573.463
-30.896	20.403	1994.781	1571.905
-29.881	20.443	1993.475	1571.184
-28.867	20.388	1991.734	1569.249
-27.852	20.413	1990.285	1568.273
-26.838	20.456	1988.293	1567.024
-25.823	20.394	1986.736	1565.177
-24.809	20.357	1984.961	1563.382
-23.794	20.507	1982.942	1563.079
-22.779	20.373	1981.818	1560.929
-21.765	20.406	1980.255	1559.935
-20.750	20.490	1978.409	1559.168
-19.736	20.380	1976.910	1556.941
-18.721	20.373	1975.318	1555.563
-17.706	20.406	1973.548	1554.397
-16.692	20.360	1972.204	1552.869
-15.677	20.375	1970.319	1551.455
-14.663	20.391	1968.905	1550.427
-13.648	20.329	1968.285	1549.326
-12.633	20.433	1966.608	1548.870
-11.619	20.412	1965.558	1547.795
-10.604	20.354	1964.422	1546.323
-9.590	20.514	1961.840	1545.647
-8.575	20.348	1961.053	1543.494
-7.560	20.355	1960.342	1542.935
-6.546	20.434	1958.666	1542.255
-5.531	20.393	1957.410	1540.843
-4.517	20.397	1956.487	1540.085
-3.502	20.408	1954.818	1538.808
-2.487	20.403	1954.089	1538.132
-1.473	20.425	1952.940	1537.360
-0.458	20.427	1947.725	1533.211
0.556	19.101	1927.146	1503.208
1.571	14.718	1908.178	1450.303
2.586	10.846	1930.756	1433.248
3.600	9.892	1965.186	1450.110
4.615	9.960	1957.544	1444.954
5.629	8.073	1857.407	1354.889
6.644	3.433	1747.576	1237.475
7.659	0.861	1717.191	1195.550
8.673	0.629	1714.521	1191.752
9.688	0.703	1713.161	1191.288
10.702	0.628	1711.833	1189.665
11.717	0.571	1707.722	1186.257
12.731	0.862	1706.473	1187.574
13.746	4.649	1713.400	1222.083
14.761	11.414	1727.091	1285.176
15.775	16.078	1736.301	1328.755
16.790	17.086	1737.286	1337.341
17.804	16.218	1734.292	1328.086
18.819	15.308	1730.742	1318.103
19.834	14.670	1728.914	1311.583
20.848	14.476	1727.106	1308.573
21.863	14.333	1725.310	1305.972
22.877	14.102	1723.516	1302.692
23.892	13.817	1722.190	1299.343
24.907	13.651	1720.955	1296.997
25.921	13.717	1719.913	1296.608
26.936	13.677	1719.456	1295.841
27.950	13.768	1717.907	1295.269
28.965	13.733	1718.147	1295.059
29.980	13.830	1716.853	1294.730
30.994	13.809	1715.810	1293.662
32.009	13.888	1714.980	1293.542
33.023	13.900	1713.970	1292.752
34.038	13.906	1713.425	1292.275
35.053	13.866	1712.010	1290.786
36.067	13.887	1710.707	1289.849
37.082	13.821	1709.321	1288.176
38.096	13.811	1709.204	1287.897
39.111	13.832	1708.014	1287.055
40.126	13.893	1706.938	1286.603
41.140	13.835	1706.292	1285.552
42.155	13.849	1704.395	1284.113
43.169	13.779	1703.142	1282.520
44.184	13.744	1702.077	1281.330
45.199	13.624	1701.086	1279.547
46.213	13.636	1700.323	1278.951
47.228	13.756	1698.396	1278.311
48.242	13.740	1697.342	1277.284
49.257	13.814	1696.014	1276.743
50.271	13.769	1695.068	1275.571
51.286	13.779	1693.484	1274.344
52.301	13.750	1692.170	1273.018
53.315	13.810	1690.667	1272.235
54.330	13.712	1688.803	1269.969
55.344	13.798	1687.208	1269.316
56.359	13.710	1686.262	1267.820
57.374	13.647	1685.684	1266.789
58.388	13.667	1683.729	1265.358
59.403	13.685	1682.281	1264.298
60.417	13.745	1680.463	1263.279
61.432	13.617	1679.976	1261.826
62.447	13.658	1678.313	1260.775
63.461	13.621	1677.384	1259.688
64.476	13.584	1676.380	1258.534
65.490	13.624	1675.525	1258.089
66.505	13.611	1674.206	1256.886
67.520	13.637	1673.158	1256.186
68.534	13.628	1671.985	1255.131
69.549	13.661	1670.563	1254.196
70.563	13.679	1669.326	1253.298
71.578	13.641	1667.840	1251.780
72.593	13.589	1667.109	1250.731
73.607	13.636	1665.879	1250.052
74.622	13.599	1664.577	1248.685
75.636	13.562	1663.903	1247.786
76.651	13.507	1663.056	1246.631
77.666	13.603	1661.428	1246.023
78.680	13.493	1661.023	1244.777
79.695	13.526	1659.845	1244.033
80.709	13.544	1658.763	1243.251
81.724	13.549	1657.665	1242.355
82.739	13.656	1656.876	1242.456
83.753	13.766	1655.563	1242.183
84.768	13.676	1655.243	1241.160
85.782	13.765	1654.113	1240.869
86.797	13.719	1653.630	1240.052
87.812	13.873	1652.003	1239.872
88.826	13.717	1650.921	1237.788
89.841	13.728	1650.193	1237.212
90.855	13.788	1648.756	1236.474
91.870	13.859	1647.305	1235.803
92.884	13.702	1647.140	1234.400
93.899	13.876	1645.572	1234.413
94.914	13.856	1644.298	1233.199
95.928	13.869	1643.053	1232.255
96.943	13.883	1641.454	1231.048
97.957	13.773	1640.566	1229.461
98.972	13.791	1639.006	1228.313
99.987	13.894	1637.346	1227.721
101.001	13.890	1635.601	1226.274
102.016	13.689	1634.446	1223.815
103.030	13.786	1633.157	1223.461
104.045	13.746	1631.754	1222.007
105.060	13.826	1630.193	1221.314
106.074	13.796	1628.709	1219.878
107.089	13.766	1627.386	1218.555
108.103	13.683	1626.123	1216.895
109.118	13.664	1624.725	1215.600
110.133	13.614	1623.842	1214.465
111.147	13.657	1621.395	1212.848
112.162	13.706	1620.046	1212.088
113.176	13.700	1619.053	1211.195
114.191	13.713	1617.620	1210.111
115.206	13.764	1616.183	1209.297
116.220	13.639	1615.584	1207.829
117.235	13.708	1613.777	1206.878
118.249	13.676	1612.321	1205.445
119.264	13.786	1610.739	1204.955
120.279	13.769	1609.504	1203.804
121.293	13.697	1608.246	1202.233
122.308	13.662	1606.762	1200.766
123.322	13.647	1605.435	1199.560
124.337	13.720	1603.550	1198.575
125.352	13.704	1602.185	1197.333
126.366	13.653	1601.268	1196.172
127.381	13.708	1599.507	1195.144
128.395	13.659	1598.697	1194.085
129.410	13.660	1597.154	1192.834
130.424	13.630	1596.051	1191.684
131.439	13.621	1594.535	1190.386
132.454	13.691	1593.188	1189.772
133.468	13.766	1591.188	1188.712
134.483	13.730	1590.080	1187.522
135.497	13.800	1588.200	1186.518
136.512	13.749	1587.572	1185.573
137.527	13.768	1586.678	1184.940
138.541	13.758	1584.780	1183.342
139.556	13.749	1583.338	1182.102
140.570	13.816	1581.578	1181.155
141.585	13.791	1580.521	1180.083
142.600	13.902	1579.118	1179.722
143.614	13.862	1578.354	1178.760
144.629	13.960	1576.603	1178.048
145.643	13.981	1575.217	1177.059
146.658	14.019	1573.744	1176.117
147.673	14.116	1571.903	1175.323
148.687	13.888	1571.412	1173.241
149.702	13.914	1569.862	1172.170
150.716	13.952	1567.641	1170.669
151.731	13.841	1566.563	1168.981
152.746	13.902	1565.386	1168.427
153.760	14.000	1563.790	1167.822
154.775	13.953	1562.540	1166.454
155.789	14.031	1561.158	1165.866
156.804	13.923	1559.807	1163.999
157.819	14.001	1558.544	1163.504
158.833	14.024	1557.346	1162.663
159.848	14.106	1555.916	1162.070
160.862	14.164	1554.696	1161.460
161.877	14.089	1554.310	1160.544
162.892	14.105	1552.203	1158.980
163.906	14.024	1551.079	1157.473
164.921	14.077	1549.540	1156.594
165.935	13.962	1549.202	1155.437
166.950	14.045	1547.593	1154.710
167.964	14.030	1546.607	1153.769
168.979	14.134	1545.657	1153.681
169.994	14.095	1544.390	1152.358
171.008	14.122	1543.371	1151.684
172.023	14.032	1542.672	1150.438
173.037	14.132	1541.163	1149.905
174.052	14.196	1539.995	1149.374
175.067	14.340	1538.426	1149.096
176.081	14.205	1537.322	1147.235
177.096	14.136	1536.296	1145.892
178.110	14.188	1534.555	1144.852
179.125	14.161	1533.159	1143.527
180.140	14.209	1532.692	1143.407
181.154	14.282	1531.077	1142.602
182.169	14.210	1530.204	1141.350
183.183	14.267	1528.936	1140.699
184.198	14.250	1528.255	1139.970
185.213	14.383	1526.677	1139.606
186.227	14.354	1525.263	1138.245
187.242	14.347	1524.690	1137.672
188.256	14.334	1523.753	1136.781
189.271	14.401	1522.312	1136.068
190.286	14.426	1521.402	1135.459
191.300	14.394	1520.194	1134.236
192.315	14.326	1518.896	1132.707
193.329	14.266	1517.277	1130.992
194.344	14.216	1516.151	1129.710
195.359	14.236	1515.751	1129.448
196.373	14.242	1514.894	1128.751
197.388	14.448	1512.847	1128.520
198.402	14.382	1512.367	1127.618
199.417	14.511	1510.482	1126.983
200.432	14.460	1509.795	1126.028
201.446	14.501	1508.701	1125.386
202.461	14.516	1507.642	1124.596
203.475	14.529	1506.553	1123.776
204.490	14.607	1505.124	1123.131
205.504	14.623	1504.435	1122.628
206.519	14.559	1503.376	1121.304
207.534	14.559	1501.741	1119.990
208.548	14.551	1500.966	1119.260
209.563	14.519	1499.987	1118.219
210.577	14.529	1499.138	1117.547
211.592	14.623	1497.859	1117.130
212.607	14.671	1497.274	1116.912
213.621	14.626	1496.489	1115.927
214.636	14.759	1495.078	1115.665
215.650	14.681	1493.980	1114.228
216.665	14.738	1492.692	1113.550
217.680	14.712	1492.759	1113.325
218.694	14.712	1491.757	1112.481
219.709	14.792	1490.474	1111.955
220.723	14.767	1489.454	1110.931
221.738	14.845	1488.616	1110.729
222.753	14.799	1487.738	1109.667
223.767	14.785	1486.659	1108.670
224.782	14.798	1485.958	1108.136
225.796	14.824	1484.625	1107.220
226.811	14.938	1483.805	1107.261
227.826	14.851	1483.131	1106.086
228.840	14.869	1482.772	1105.836
229.855	14.859	1481.316	1104.590
230.869	14.921	1480.057	1103.961
231.884	14.918	1479.154	1103.169
232.899	14.939	1477.895	1102.275
233.913	14.838	1477.239	1101.022
234.928	14.899	1475.306	1099.886
235.942	14.951	1473.983	1099.144
236.957	14.866	1473.350	1098.013
237.972	14.767	1472.199	1096.410
238.986	14.924	1470.813	1096.310
240.001	14.839	1470.161	1095.168
241.015	14.925	1468.830	1094.646
242.030	14.993	1467.645	1094.108
243.045	15.009	1466.932	1093.588
244.059	14.991	1465.859	1092.569
245.074	15.052	1464.579	1091.917
246.088	15.126	1464.503	1092.247
247.103	15.088	1463.449	1091.115
248.117	15.129	1462.352	1090.469
249.132	15.130	1461.877	1090.024
250.147	15.217	1460.767	1089.668
251.161	15.207	1460.252	1089.125
252.176	15.201	1459.904	1088.726
253.190	15.440	1458.885	1089.422
254.205	15.393	1458.152	1088.473
255.220	15.410	1456.628	1087.350
256.234	15.385	1456.234	1086.800
257.249	15.340	1455.875	1086.139
258.263	15.403	1454.326	1085.297
259.278	15.394	1453.546	1084.559
260.293	15.488	1452.522	1084.311
261.307	15.442	1451.794	1083.374
262.322	15.481	1451.073	1082.991
263.336	15.435	1450.589	1082.235
264.351	15.578	1448.693	1081.644
265.366	15.546	1448.056	1080.869
266.380	15.602	1447.091	1080.414
267.395	15.650	1446.053	1079.849
268.409	15.590	1445.249	1078.772
269.424	15.583	1444.019	1077.713
270.439	15.514	1443.375	1076.694
271.453	15.580	1442.594	1076.439
272.468	15.589	1440.985	1075.201
273.482	15.553	1440.615	1074.599
274.497	15.564	1439.539	1073.771
275.512	15.653	1438.712	1073.629
276.526	15.681	1437.553	1072.846
277.541	15.657	1436.581	1071.871
278.555	15.629	1435.969	1071.144
279.570	15.590	1435.202	1070.231
280.585	15.655	1434.038	1069.679
281.599	15.679	1433.353	1069.226
282.614	15.737	1432.735	1069.040
283.628	15.839	1430.943	1068.257
284.643	15.681	1430.270	1066.653
285.657	15.836	1429.314	1066.833
286.672	15.809	1428.450	1065.921
287.687	15.807	1427.263	1064.925
288.701	15.771	1426.178	1063.798
289.716	15.762	1425.671	1063.267
290.730	15.763	1424.655	1062.420
291.745	15.842	1423.310	1061.826
292.760	15.850	1422.423	1061.117
293.774	15.922	1421.740	1060.967
294.789	15.926	1420.734	1060.149
295.803	15.944	1419.425	1059.191
296.818	16.016	1418.854	1059.126
297.833	16.027	1417.532	1058.116
298.847	16.035	1416.795	1057.519
299.862	16.019	1415.787	1056.574
300.876	15.986	1414.768	1055.511
301.891	16.046	1413.919	1055.160
302.906	15.997	1413.515	1054.461
303.920	15.982	1412.901	1053.813
304.935	16.078	1411.813	1053.510
305.949	16.144	1411.014	1053.231
306.964	16.116	1409.803	1052.058
307.979	16.107	1409.340	1051.569
308.993	16.245	1408.117	1051.420
310.008	16.231	1407.020	1050.419
311.022	16.224	1406.117	1049.609
312.037	16.269	1404.869	1048.865
313.052	16.259	1404.057	1048.105
314.066	16.252	1403.430	1047.498
315.081	16.158	1402.489	1046.124
316.095	16.249	1401.187	1045.622
317.110	16.183	1400.511	1044.620
318.125	16.177	1399.255	1043.548
319.139	16.226	1398.304	1043.053
320.154	16.195	1397.859	1042.433
321.168	16.269	1395.834	1041.288
322.183	16.349	1394.743	1040.877
323.197	16.341	1394.122	1040.272
324.212	16.387	1393.150	1039.736
325.227	16.356	1392.277	1038.803
326.241	16.263	1391.639	1037.661
327.256	16.263	1391.096	1037.167
328.270	16.278	1389.715	1036.139
329.285	16.355	1389.119	1036.073
330.300	16.361	1388.165	1035.307
331.314	16.362	1387.366	1034.628
332.329	16.394	1385.926	1033.656
333.343	16.308	1385.399	1032.648
334.358	16.486	1384.103	1032.676
335.373	16.359	1384.040	1031.765
336.387	16.396	1382.779	1030.956
337.402	16.401	1382.002	1030.318
338.416	16.511	1381.115	1030.235
339.431	16.544	1380.801	1030.112
340.446	16.539	1379.820	1029.258
341.460	16.579	1379.049	1028.832
342.475	16.670	1377.618	1028.227
343.489	16.634	1377.109	1027.537
344.504	16.670	1376.121	1026.927
345.519	16.725	1375.087	1026.399
346.533	16.689	1374.060	1025.323
347.548	16.818	1372.813	1025.086
348.562	16.888	1371.799	1024.660
349.577	16.802	1371.842	1024.080
350.592	16.827	1370.659	1023.259
351.606	16.828	1369.756	1022.499
352.621	16.738	1368.561	1020.976
353.635	16.788	1367.716	1020.553
354.650	16.807	1366.926	1019.990
355.665	16.741	1366.053	1018.849
356.679	16.855	1364.844	1018.544
357.694	16.847	1363.761	1017.597
358.708	16.814	1362.981	1016.726
359.723	16.808	1361.761	1015.689
360.738	16.850	1360.499	1014.914
361.752	16.984	1359.347	1014.762
362.767	16.997	1358.160	1013.865
363.781	16.855	1357.434	1012.387
364.796	16.902	1356.831	1012.127
365.810	16.961	1356.084	1011.834
366.825	16.866	1355.431	1010.690
367.840	16.969	1354.827	1010.761
368.854	17.028	1353.966	1010.386
369.869	17.096	1353.482	1010.336
370.883	17.018	1352.673	1009.182
371.898	17.030	1351.566	1008.333
372.913	17.022	1351.463	1008.124
373.927	17.105	1350.015	1007.444
374.942	17.087	1349.360	1006.759
375.956	17.033	1348.868	1005.984
376.971	17.122	1347.847	1005.662
377.986	17.275	1346.607	1005.553
379.000	17.173	1345.851	1004.298
380.015	17.218	1345.275	1004.044
381.029	17.248	1344.741	1003.730
382.044	17.178	1344.005	1002.681
383.059	17.346	1342.926	1002.778
384.073	17.310	1342.501	1002.158
385.088	17.426	1342.118	1002.467
386.102	17.402	1341.103	1001.482
387.117	17.348	1340.619	1000.714
388.132	17.359	1339.644	999.958
389.146	17.343	1339.011	999.303
390.161	17.340	1337.731	998.246
391.175	17.333	1337.001	997.571
392.190	17.340	1336.389	997.067
393.205	17.466	1335.499	997.052
394.219	17.410	1334.434	995.839
395.234	17.514	1332.747	995.102
396.248	17.481	1331.629	993.985
397.263	17.487	1330.485	993.083
398.278	17.473	1329.397	992.099
399.292	17.551	1327.658	991.167
400.307	17.539	1327.028	990.541
401.321	17.517	1325.808	989.415
402.336	17.447	1325.028	988.336
403.350	17.423	1323.937	987.298
404.365	17.489	1323.062	986.940
405.380	17.569	1321.825	986.393
406.394	17.576	1321.427	986.050
407.409	17.534	1320.401	984.955
408.423	17.637	1319.908	985.094
409.438	17.584	1319.463	984.366
410.453	17.688	1318.446	984.125
411.467	17.759	1317.639	983.844
412.482	17.736	1316.807	982.999
413.496	17.630	1316.945	982.407
414.511	17.770	1315.694	982.193
415.526	17.984	1314.200	982.221
416.540	17.770	1314.490	981.118
417.555	17.793	1313.789	980.643
418.569	17.855	1313.097	980.393
419.584	17.957	1312.112	980.158
420.599	17.812	1311.801	979.005
421.613	101.904	1364.094	1492.077
422.628	100.381	1371.637	1492.121
