DTS Sentinel unit serial number:	SN413079Multiplexer serial number:	ORYXHardware model number:	OX4-SRSoftware version number:	ORYX F/W v4.00 Oryx Data Collector v3.7.2.0data status	okinstallation	princeton_trtdifferential loss correction	single-endedforward channel	channel 4reverse channel	N/Adate	2019/09/18time	22:41:34forward acquisition time	60.00reverse acquisition time	0.00gamma	496.2192k internal	0.2333k external	0.2333temperature offset calibration	1.0032default loss term (dB/km)	0.3790temperature slope calibration	1.0000multiplexer offset coefficient	1.0000multiplexer slope coefficient	1.0000fibre end	0.00T internal ref (°C)	24.12T ext. ref 1 (°C)	0.79T ext. ref 2 (°C)	17.97length (m)	temperature (°C)	Stokes	anti-Stokes-747.200	-72.571	-0.215	0.080
-746.185	-109.348	-0.216	0.046
-745.171	30.164	0.168	-0.144
-744.156	-139.193	-0.050	0.005
-743.142	800.000	-0.037	-0.142
-742.127	451.686	0.256	0.570
-741.112	-200.000	-0.002	-0.038
-740.098	48.691	-0.240	-0.226
-739.083	-111.421	-0.301	0.062
-738.069	-40.276	0.159	0.083
-737.054	233.503	0.136	-0.225
-736.039	128.301	0.237	-0.304
-735.025	-53.776	0.149	-0.069
-734.010	220.993	-0.087	-0.140
-732.996	-107.577	-0.337	0.074
-731.981	281.413	-0.099	0.177
-730.966	408.083	0.057	0.122
-729.952	800.000	-0.037	0.123
-728.937	-200.000	-0.066	-0.325
-727.923	-17.719	0.055	0.034
-726.908	687.895	-0.117	-0.307
-725.894	-200.000	-0.019	-0.118
-724.879	-19.975	-0.105	0.065
-723.864	-157.236	-0.554	-0.034
-722.850	-7.794	-0.063	-0.043
-721.835	494.435	-0.020	0.046
-720.821	-200.000	-0.030	0.226
-719.806	-145.233	0.289	0.026
-718.791	278.904	-0.045	-0.080
-717.777	-200.000	0.058	-0.259
-716.762	-25.377	-0.108	0.064
-715.748	-103.801	-0.223	0.052
-714.733	-200.000	-0.013	-0.076
-713.718	41.514	0.258	0.235
-712.704	-16.240	-0.418	0.267
-711.689	326.657	0.145	-0.280
-710.675	-15.262	0.236	0.152
-709.660	-153.646	0.410	0.028
-708.645	800.000	-0.026	0.104
-707.631	800.000	-0.034	0.147
-706.616	-80.572	-0.563	0.188
-705.602	-140.644	0.146	0.015
-704.587	478.143	0.026	-0.059
-703.572	800.000	-0.083	-0.248
-702.558	97.529	-0.156	-0.180
-701.543	191.126	-0.057	-0.086
-700.529	-35.847	-0.376	0.204
-699.514	-34.169	0.106	0.058
-698.499	202.845	-0.232	-0.360
-697.485	800.000	-0.037	-0.154
-696.470	314.527	-0.088	-0.166
-695.456	92.693	-0.239	-0.271
-694.441	-117.814	0.208	0.037
-693.426	-123.403	0.209	-0.033
-692.412	-135.957	-0.129	-0.015
-691.397	153.235	0.100	0.137
-690.383	52.598	0.070	0.067
-689.368	128.719	-0.082	-0.105
-688.354	800.000	-0.056	-0.231
-687.339	-124.122	-0.063	-0.010
-686.324	-111.575	-0.085	-0.017
-685.310	-200.000	-0.065	-0.297
-684.295	-139.369	0.164	-0.018
-683.281	54.481	-0.151	0.146
-682.266	-200.000	-0.068	-0.314
-681.251	-200.000	0.008	0.070
-680.237	-135.941	-0.131	0.015
-679.222	-200.000	0.010	0.151
-678.208	800.000	0.072	0.240
-677.193	-91.345	-0.067	0.019
-676.178	800.000	0.109	-0.337
-675.164	102.280	0.180	-0.211
-674.149	-200.000	-0.024	0.206
-673.135	-55.635	-0.162	0.073
-672.120	163.066	0.114	0.160
-671.105	14.472	-0.019	0.015
-670.091	-90.311	-0.077	-0.022
-669.076	50.238	-0.037	-0.035
-668.062	-89.374	-0.366	0.108
-667.047	-45.143	-0.221	-0.110
-666.032	280.510	0.092	0.165
-665.018	257.040	0.020	0.035
-664.003	-181.467	-0.125	0.002
-662.989	-175.016	0.412	-0.012
-661.974	-200.000	-0.018	-0.163
-660.959	545.969	-0.032	0.077
-659.945	98.194	0.145	-0.168
-658.930	-58.675	-0.297	0.129
-657.916	-147.325	-0.253	-0.022
-656.901	-105.655	0.346	0.079
-655.886	377.239	-0.085	-0.174
-654.872	-15.114	-0.256	0.164
-653.857	158.849	0.069	0.097
-652.843	281.231	-0.142	0.256
-651.828	-50.162	0.205	0.097
-650.814	800.000	-0.048	0.201
-649.799	107.959	-0.058	0.069
-648.784	30.169	0.003	-0.003
-647.770	-200.000	0.007	0.149
-646.755	195.805	0.058	0.089
-645.741	-47.874	-0.180	-0.087
-644.726	591.070	0.059	0.146
-643.711	-171.195	-0.177	-0.006
-642.697	-63.413	0.192	-0.079
-641.682	800.000	-0.114	0.401
-640.668	800.000	0.064	-0.242
-639.653	-200.000	0.021	-0.147
-638.638	800.000	-0.094	-0.269
-637.624	23.186	-0.162	0.133
-636.609	-150.560	0.154	-0.012
-635.595	-200.000	-0.046	0.240
-634.580	800.000	0.018	0.078
-633.565	-97.673	0.342	-0.089
-632.551	-14.703	-0.107	-0.069
-631.536	383.130	0.063	0.131
-630.522	-108.982	-0.308	-0.066
-629.507	147.715	-0.054	0.073
-628.492	800.000	0.041	-0.130
-627.478	238.173	-0.109	-0.181
-626.463	51.099	0.348	0.331
-625.449	29.654	0.167	0.142
-624.434	0.969	0.035	-0.025
-623.419	-79.312	-0.114	-0.039
-622.405	41.867	-0.219	-0.199
-621.390	-52.641	0.092	0.042
-620.376	51.799	-0.138	-0.131
-619.361	-52.576	0.164	-0.076
-618.346	84.319	-0.143	-0.156
-617.332	800.000	-0.061	0.232
-616.317	-49.957	-0.353	0.168
-615.303	-200.000	0.014	-0.163
-614.288	-113.533	0.160	0.031
-613.273	-106.179	0.159	-0.036
-612.259	529.614	0.114	0.270
-611.244	800.000	0.109	-0.356
-610.230	-200.000	-0.012	0.187
-609.215	-200.000	0.260	-0.001
-608.201	-75.066	0.146	0.052
-607.186	-200.000	0.042	0.396
-606.171	-200.000	-0.021	0.261
-605.157	-144.888	-0.241	0.022
-604.142	-200.000	-0.005	-0.099
-603.128	-107.459	0.261	-0.057
-602.113	196.760	-0.368	-0.561
-601.098	-123.321	0.102	0.016
-600.084	433.195	0.071	-0.154
-599.069	-200.000	-0.043	-0.191
-598.055	-30.297	-0.190	-0.108
-597.040	-200.000	0.033	-0.414
-596.025	-200.000	0.021	-0.187
-595.011	-178.178	0.066	0.002
-593.996	-29.320	0.321	-0.184
-592.982	189.127	0.204	0.306
-591.967	-72.834	0.367	0.135
-590.952	-200.000	-0.026	-0.150
-589.938	2.779	-0.200	0.145
-588.923	-12.328	-0.082	-0.053
-587.909	-35.635	-0.066	-0.036
-586.894	-200.000	0.005	-0.065
-585.879	-74.297	-0.315	-0.114
-584.865	-90.017	0.051	0.015
-583.850	80.638	0.096	-0.103
-582.836	-50.298	0.116	-0.055
-581.821	-148.110	-0.267	0.022
-580.806	-40.901	-0.197	0.102
-579.792	-200.000	-0.055	0.345
-578.777	226.955	0.077	-0.125
-577.763	-52.247	0.240	-0.111
-576.748	-4.752	0.213	-0.147
-575.733	394.572	0.101	-0.210
-574.719	800.000	0.067	0.233
-573.704	36.330	0.279	-0.246
-572.690	-200.000	0.006	0.120
-571.675	324.272	0.159	-0.303
-570.661	-62.773	0.028	-0.012
-569.646	-59.452	-0.328	0.141
-568.631	119.321	-0.241	-0.298
-567.617	-200.000	0.031	-0.211
-566.602	-200.000	0.011	0.070
-565.588	694.700	0.095	-0.249
-564.573	800.000	0.070	-0.238
-563.558	377.642	0.053	-0.109
-562.544	-71.303	-0.151	-0.056
-561.529	121.327	0.057	0.071
-560.515	17.837	-0.379	-0.301
-559.500	35.090	0.149	0.130
-558.485	-57.279	-0.227	0.100
-557.471	-141.434	0.155	-0.016
-556.456	68.002	-0.135	0.137
-555.442	-200.000	-0.003	-0.292
-554.427	800.000	0.008	-0.024
-553.412	-200.000	-0.002	-0.255
-552.398	-63.683	0.305	0.125
-551.383	-45.081	-0.226	0.112
-550.369	148.488	-0.145	-0.195
-549.354	322.781	0.051	0.097
-548.339	48.307	0.267	-0.249
-547.325	-200.000	0.037	-0.224
-546.310	-64.006	0.205	-0.084
-545.296	92.695	-0.112	0.126
-544.281	136.322	-0.083	0.108
-543.266	-98.199	-0.324	0.083
-542.252	331.379	-0.077	0.148
-541.237	32.468	-0.195	0.168
-540.223	-200.000	0.032	-0.194
-539.208	-145.839	0.203	0.018
-538.193	800.000	-0.054	-0.155
-537.179	186.241	-0.130	-0.193
-536.164	-19.591	0.150	0.093
-535.150	500.521	-0.030	-0.069
-534.135	-8.885	-0.007	-0.005
-533.121	-200.000	0.003	0.281
-532.106	476.773	0.103	-0.233
-531.091	-145.438	0.273	0.024
-530.077	-12.050	-0.168	0.110
-529.062	221.553	-0.136	-0.218
-528.048	-51.305	0.276	-0.129
-527.033	-102.627	0.356	-0.085
-526.018	-88.716	0.111	-0.033
-525.004	-200.000	0.046	-0.388
-523.989	11.599	-0.228	0.174
-522.975	11.139	0.182	0.139
-521.960	800.000	-0.039	0.130
-520.945	-200.000	-0.063	-0.000
-519.931	-200.000	-0.036	-0.211
-518.916	47.587	0.198	0.184
-517.902	54.739	0.288	0.277
-516.887	-128.547	0.095	0.013
-515.872	216.037	-0.197	0.312
-514.858	330.951	0.152	-0.292
-513.843	-200.000	-0.019	0.371
-512.829	-42.178	-0.471	-0.240
-511.814	-118.286	0.384	-0.068
-510.799	-200.000	-0.016	-0.080
-509.785	-105.487	0.144	0.033
-508.770	589.677	-0.084	-0.205
-507.756	-50.239	-0.176	-0.083
-506.741	-200.000	0.036	-0.197
-505.726	112.591	0.159	0.192
-504.712	-130.432	-0.241	0.032
-503.697	71.343	-0.164	-0.169
-502.683	275.127	-0.074	-0.130
-501.668	110.676	-0.050	-0.060
-500.653	800.000	-0.126	0.422
-499.639	44.676	-0.169	0.154
-498.624	-42.029	0.310	0.158
-497.610	441.433	-0.104	-0.227
-496.595	-200.000	0.022	-0.131
-495.581	202.694	0.116	-0.179
-494.566	46.692	0.097	-0.090
-493.551	-19.013	0.114	-0.071
-492.537	93.313	0.220	0.248
-491.522	-200.000	-0.040	-0.288
-490.508	-200.000	-0.039	0.259
-489.493	-21.728	-0.160	0.097
-488.478	-60.104	-0.242	0.103
-487.464	-167.195	-0.153	0.006
-486.449	-71.660	0.145	0.054
-485.435	-154.268	0.304	0.020
-484.420	-47.790	0.289	-0.139
-483.405	76.012	0.166	-0.175
-482.391	-100.544	-0.267	-0.066
-481.376	139.981	0.137	0.179
-480.362	249.059	0.090	0.152
-479.347	800.000	-0.086	0.291
-478.332	-48.314	-0.355	-0.170
-477.318	-200.000	0.003	0.015
-476.303	-63.401	0.098	-0.040
-475.289	400.791	-0.216	-0.450
-474.274	399.200	0.034	0.071
-473.259	-112.204	-0.240	-0.048
-472.245	800.000	0.082	0.273
-471.230	-156.094	0.275	0.017
-470.216	194.799	0.155	0.234
-469.201	-200.000	0.009	0.142
-468.186	-200.000	-0.004	0.215
-467.172	-200.000	0.027	-0.165
-466.157	-16.163	0.071	-0.045
-465.143	52.871	-0.456	-0.434
-464.128	33.298	-0.067	0.058
-463.113	-200.000	0.022	-0.147
-462.099	800.000	0.132	0.389
-461.084	92.569	-0.044	0.050
-460.070	167.497	0.161	-0.227
-459.055	-200.000	0.009	0.337
-458.040	217.074	-0.028	0.044
-457.026	104.386	-0.071	-0.083
-456.011	-86.481	0.172	-0.053
-454.997	756.750	0.076	0.205
-453.982	-58.147	-0.389	-0.169
-452.968	2.585	-0.222	0.160
-451.953	-17.077	-0.148	0.093
-450.938	-200.000	0.010	0.108
-449.924	170.804	-0.115	-0.163
-448.909	68.809	-0.039	-0.039
-447.895	800.000	0.107	0.309
-446.880	-153.569	0.144	0.010
-445.865	-2.138	0.129	0.090
-444.851	-200.000	0.006	-0.364
-443.836	-58.764	-0.330	0.142
-442.822	800.000	-0.072	0.244
-441.807	11.349	-0.191	-0.146
-440.792	-200.000	-0.011	0.408
-439.778	-70.507	-0.158	0.060
-438.763	-62.321	-0.253	0.105
-437.749	320.759	-0.058	-0.109
-436.734	89.776	-0.132	-0.146
-435.719	50.097	0.147	0.138
-434.705	362.974	-0.124	-0.248
-433.690	-200.000	0.008	0.244
-432.676	-83.439	-0.210	-0.067
-431.661	269.605	-0.104	-0.181
-430.646	-158.142	-0.093	-0.005
-429.632	711.228	-0.095	0.250
-428.617	800.000	-0.143	-0.426
-427.603	160.349	0.064	0.089
-426.588	-79.505	-0.295	0.099
-425.573	-45.582	0.138	0.068
-424.559	800.000	0.048	-0.136
-423.544	192.443	-0.291	0.436
-422.530	-47.758	0.231	0.111
-421.515	-79.143	0.224	-0.076
-420.500	800.000	-0.118	-0.363
-419.486	800.000	0.044	-0.142
-418.471	7.485	-0.198	-0.147
-417.457	52.690	0.147	0.139
-416.442	-77.517	0.169	0.058
-415.428	800.000	0.056	0.221
-414.413	800.000	-0.049	0.173
-413.398	-104.243	0.307	-0.071
-412.384	-41.986	-0.438	-0.223
-411.369	-200.000	-0.021	-0.164
-410.355	175.292	-0.092	-0.132
-409.340	-200.000	-0.030	0.165
-408.325	-21.916	-0.173	-0.105
-407.311	470.091	0.061	0.135
-406.296	-64.133	-0.049	-0.020
-405.282	82.981	0.122	0.131
-404.267	-86.547	0.200	0.061
-403.252	-43.098	-0.480	0.242
-402.238	737.875	0.190	0.507
-401.223	-80.317	-0.293	-0.097
-400.209	800.000	0.068	0.222
-399.194	-88.243	0.136	0.041
-398.179	779.736	-0.021	-0.057
-397.165	136.375	-0.198	0.256
-396.150	23.186	0.130	-0.106
-395.136	243.469	-0.139	0.231
-394.121	422.980	-0.121	-0.259
-393.106	331.290	-0.105	0.201
-392.092	-93.211	-0.314	0.087
-391.077	800.000	-0.088	0.326
-390.063	3.182	0.197	0.142
-389.048	56.638	0.127	0.122
-388.033	-79.616	-0.025	0.008
-387.019	-61.727	0.168	-0.070
-386.004	-67.140	0.187	0.073
-384.990	168.502	-0.082	-0.116
-383.975	-200.000	0.000	-0.043
-382.960	-99.009	-0.048	0.012
-381.946	800.000	-0.042	-0.170
-380.931	185.728	-0.116	-0.171
-379.917	-200.000	-0.252	-0.001
-378.902	40.582	-0.120	-0.107
-377.888	-174.214	-0.074	-0.002
-376.873	-200.000	-0.004	-0.077
-375.858	-154.919	-0.255	-0.017
-374.844	-131.264	0.182	-0.024
-373.829	-200.000	-0.011	-0.079
-372.815	-200.000	-0.020	-0.160
-371.800	-165.665	0.143	0.006
-370.785	-92.073	-0.235	-0.066
-369.771	-200.000	0.093	-0.421
-368.756	-108.960	-0.137	-0.029
-367.742	439.711	0.043	0.093
-366.727	-173.991	-0.312	0.009
-365.712	87.356	0.389	-0.426
-364.698	234.154	-0.231	-0.376
-363.683	-50.832	0.239	-0.112
-362.669	-55.459	-0.131	0.058
-361.654	-27.037	0.054	0.031
-360.639	199.892	0.099	-0.151
-359.625	339.989	0.007	0.014
-358.610	-9.537	0.434	-0.287
-357.596	-126.495	-0.212	-0.031
-356.581	-22.626	0.234	-0.140
-355.566	446.702	0.082	-0.178
-354.552	-107.590	0.395	0.086
-353.537	-98.659	-0.245	0.062
-352.523	5.281	-0.109	0.080
-351.508	356.959	0.176	0.348
-350.493	-84.652	0.236	-0.073
-349.479	-74.269	0.182	0.065
-348.464	-84.751	-0.287	0.089
-347.450	23.145	-0.035	-0.028
-346.435	-16.041	-0.290	0.183
-345.420	22.805	-0.173	-0.141
-344.406	335.718	0.134	-0.258
-343.391	128.367	-0.051	-0.064
-342.377	89.284	-0.170	-0.188
-341.362	-164.079	0.292	-0.013
-340.348	-28.812	0.106	0.060
-339.333	-75.463	-0.232	0.082
-338.318	219.922	0.166	0.263
-337.304	138.020	-0.120	0.156
-336.289	-135.267	0.414	0.049
-335.275	-120.895	-0.277	-0.046
-334.260	-152.237	0.244	-0.017
-333.245	75.576	0.219	0.229
-332.231	-40.048	-0.155	-0.080
-331.216	20.922	0.234	-0.188
-330.202	-5.580	0.077	0.053
-329.187	4.207	-0.090	0.065
-328.172	27.644	-0.104	-0.087
-327.158	80.629	-0.256	-0.273
-326.143	-127.151	0.092	0.013
-325.129	47.007	0.111	-0.102
-324.114	438.571	0.077	0.166
-323.099	-87.891	0.216	0.064
-322.085	-142.162	0.042	-0.004
-321.070	-200.000	-0.006	0.049
-320.056	-200.000	0.010	-0.223
-319.041	-200.000	0.016	0.285
-318.026	800.000	0.029	-0.081
-317.012	37.939	-0.014	-0.013
-315.997	-200.000	-0.026	-0.352
-314.983	-129.182	0.258	0.036
-313.968	384.014	-0.039	-0.080
-312.953	259.467	0.146	0.250
-311.939	86.795	0.162	0.177
-310.924	707.538	-0.076	0.198
-309.910	-14.663	-0.260	-0.165
-308.895	-54.331	0.115	0.052
-307.880	227.964	-0.012	0.019
-306.866	-27.225	-0.131	-0.075
-305.851	-113.914	0.297	-0.057
-304.837	-19.407	-0.300	-0.184
-303.822	456.812	-0.078	0.172
-302.807	-129.087	0.166	-0.023
-301.793	-55.688	0.124	-0.055
-300.778	800.000	-0.043	0.128
-299.764	667.621	0.040	-0.102
-298.749	-109.069	-0.287	-0.060
-297.735	-123.470	0.205	0.032
-296.720	-200.000	0.037	0.202
-295.705	245.432	0.085	0.141
-294.691	186.081	-0.059	0.086
-293.676	-200.000	-0.034	-0.591
-292.662	-79.053	-0.260	-0.087
-291.647	-102.239	-0.077	-0.018
-290.632	-102.929	0.202	0.047
-289.618	-200.000	0.007	-0.034
-288.603	-64.132	0.207	-0.084
-287.589	410.572	-0.041	0.085
-286.574	495.565	0.124	0.281
-285.559	-128.268	0.121	0.017
-284.545	-115.675	0.187	-0.035
-283.530	406.736	-0.197	-0.412
-282.516	484.444	0.188	0.423
-281.501	-103.753	0.338	-0.078
-280.486	-145.201	0.173	0.015
-279.472	-200.000	-0.012	0.064
-278.457	293.773	-0.172	0.311
-277.443	-200.000	0.004	0.131
-276.428	26.510	0.117	0.097
-275.413	512.436	-0.102	0.235
-274.399	-23.063	0.305	-0.181
-273.384	-152.687	-0.190	0.013
-272.370	-50.248	0.085	0.040
-271.355	800.000	0.054	0.153
-270.340	-65.361	0.411	-0.163
-269.326	800.000	-0.062	0.197
-268.311	37.630	-0.097	-0.085
-267.297	302.115	-0.106	-0.193
-266.282	-200.000	0.031	-0.277
-265.267	-200.000	0.011	0.106
-264.253	-126.849	-0.294	-0.043
-263.238	-27.419	0.032	0.018
-262.224	800.000	0.053	-0.227
-261.209	756.980	0.073	-0.194
-260.195	-200.000	-0.037	-0.339
-259.180	-185.792	0.364	0.005
-258.165	751.200	0.057	-0.152
-257.151	40.803	-0.130	-0.116
-256.136	-42.608	0.090	-0.045
-255.122	24.836	-0.117	0.096
-254.107	-61.637	0.293	0.121
-253.092	-200.000	-0.019	-0.278
-252.078	-62.018	-0.303	-0.125
-251.063	-67.212	-0.174	0.067
-250.049	-200.000	0.043	-0.275
-249.034	-154.453	-0.199	-0.013
-248.019	-72.964	-0.161	0.058
-247.005	-140.168	-0.153	-0.016
-245.990	800.000	0.078	0.318
-244.976	755.738	0.044	0.117
-243.961	-121.448	0.149	0.024
-242.946	202.153	0.166	-0.253
-241.932	80.417	0.171	0.182
-240.917	-78.489	0.180	0.061
-239.903	248.329	-0.100	0.167
-238.888	8.560	0.090	-0.067
-237.873	-200.000	-0.052	-0.321
-236.859	68.241	-0.274	0.277
-235.844	681.529	-0.184	0.472
-234.830	-81.561	-0.093	0.030
-233.815	-200.000	-0.043	0.411
-232.800	-52.956	-0.102	0.046
-231.786	198.866	0.102	0.154
-230.771	277.131	-0.181	0.318
-229.757	-200.000	0.045	0.381
-228.742	716.699	0.052	0.135
-227.727	-200.000	0.024	-0.238
-226.713	572.105	-0.068	-0.163
-225.698	-46.392	-0.187	-0.091
-224.684	-200.000	0.030	0.199
-223.669	-92.309	0.098	0.027
-222.655	-200.000	-0.067	0.346
-221.640	-200.000	-0.017	0.276
-220.625	-14.591	0.208	-0.132
-219.611	455.415	0.156	0.341
-218.596	54.583	0.150	0.142
-217.582	-200.000	0.096	0.772
-216.567	-124.259	0.250	0.039
-215.552	-100.707	0.272	-0.066
-214.538	-200.000	-0.022	0.340
-213.523	-200.000	-0.025	-0.151
-212.509	119.325	-0.096	-0.117
-211.494	-58.880	0.111	0.047
-210.479	95.886	-0.053	-0.060
-209.465	543.484	-0.065	0.153
-208.450	213.741	-0.135	0.210
-207.436	60.121	0.216	-0.210
-206.421	-97.498	0.132	0.034
-205.406	-43.004	0.142	0.071
-204.392	-115.472	-0.236	0.044
-203.377	72.721	-0.099	-0.101
-202.363	141.203	0.059	-0.076
-201.348	-200.000	0.066	0.365
-200.333	-200.000	0.064	0.291
-199.319	106.202	0.077	0.090
-198.304	-52.003	0.083	0.038
-197.290	161.272	-0.091	0.125
-196.275	-113.150	0.362	0.070
-195.260	253.928	0.109	0.184
-194.246	-200.000	0.062	-0.349
-193.231	6.937	-0.476	-0.349
-192.217	-20.192	-0.362	0.220
-191.202	-200.000	0.036	-0.365
-190.187	-70.393	0.136	0.051
-189.173	-130.332	0.066	-0.009
-188.158	-153.092	0.190	-0.013
-187.144	750.888	-0.122	0.324
-186.129	-28.123	-0.181	0.103
-185.114	-92.145	-0.186	-0.052
-184.100	-130.593	0.226	0.030
-183.085	134.083	-0.259	-0.330
-182.071	-200.000	-0.033	0.212
-181.056	-105.989	-0.204	-0.045
-180.042	594.721	0.084	-0.204
-179.027	-23.169	0.280	0.166
-178.012	-200.000	0.012	-0.249
-176.998	-18.135	-0.178	0.110
-175.983	-100.571	0.300	0.073
-174.969	164.080	-0.138	-0.191
-173.954	9.158	-0.076	-0.057
-172.939	39.106	-0.050	-0.044
-171.925	104.959	0.048	0.056
-170.910	151.695	0.050	0.067
-169.896	-200.000	0.016	-0.151
-168.881	-92.173	-0.288	0.080
-167.866	23.576	-0.111	-0.090
-166.852	212.629	-0.267	-0.414
-165.837	124.473	0.154	0.191
-164.823	-74.011	-0.265	0.095
-163.808	800.000	0.084	-0.285
-162.793	-200.000	-0.014	0.277
-161.779	-200.000	-0.023	-0.158
-160.764	-130.990	0.401	-0.053
-159.750	-145.815	-0.291	-0.025
-158.735	676.471	0.129	-0.329
-157.720	800.000	-0.049	0.185
-156.706	214.975	0.214	-0.333
-155.691	19.782	-0.216	0.171
-154.677	-92.181	-0.330	0.092
-153.662	233.635	-0.153	0.248
-152.647	-100.914	0.478	-0.116
-151.633	71.510	-0.295	-0.301
-150.618	587.917	0.123	-0.297
-149.604	-90.179	0.210	0.060
-148.589	-109.971	0.056	0.011
-147.574	97.851	-0.169	-0.191
-146.560	-136.156	0.243	-0.028
-145.545	-105.010	0.113	0.025
-144.531	800.000	-0.069	-0.291
-143.516	-200.000	0.054	-0.519
-142.502	800.000	-0.066	-0.183
-141.487	-70.523	0.285	0.106
-140.472	-200.000	-0.015	-0.243
-139.458	86.296	0.227	-0.246
-138.443	-77.521	0.093	0.032
-137.429	22.729	-0.078	-0.063
-136.414	-116.075	-0.327	0.060
-135.399	800.000	-0.056	-0.239
-134.385	800.000	-0.127	0.393
-133.370	28.423	0.194	0.161
-132.356	30.240	0.057	0.048
-131.341	800.000	0.058	-0.221
-130.326	-72.499	0.172	0.062
-129.312	-200.000	-0.041	0.253
-128.297	-42.911	-0.399	-0.199
-127.283	-200.000	0.003	-0.077
-126.268	367.286	-0.104	0.205
-125.253	-68.657	0.220	0.084
-124.239	-48.077	0.245	0.116
-123.224	-200.000	-0.035	0.206
-122.210	262.227	0.052	-0.089
-121.195	-65.578	0.140	-0.055
-120.180	236.259	0.066	-0.107
-119.166	203.486	0.177	-0.268
-118.151	253.299	0.031	-0.052
-117.137	224.889	-0.153	-0.243
-116.122	-126.919	0.239	0.034
-115.107	684.515	-0.129	-0.331
-114.093	-200.000	0.030	0.183
-113.078	-71.798	-0.239	0.087
-112.064	194.584	-0.100	0.148
-111.049	800.000	0.076	-0.235
-110.034	-93.380	-0.147	0.040
-109.020	453.391	-0.089	0.194
-108.005	-21.384	0.135	0.081
-106.991	-137.069	-0.249	0.028
-105.976	296.175	0.090	-0.161
-104.962	-200.000	0.027	0.289
-103.947	-5.457	-0.009	-0.006
-102.932	800.000	0.142	-0.424
-101.918	99.223	0.036	-0.041
-100.903	-19.462	-0.294	-0.179
-99.889	-200.000	-0.055	-0.267
-98.874	133.250	0.290	0.367
-97.859	-119.652	0.082	0.014
-96.845	-200.000	-0.043	-0.257
-95.830	-200.000	0.003	0.087
-94.816	-185.716	0.289	-0.004
-93.801	50.416	0.050	0.046
-92.786	21.361	-0.082	0.066
-91.772	401.406	0.143	-0.294
-90.757	-123.105	-0.210	-0.033
-89.743	800.000	-0.063	0.266
-88.728	28.263	-0.247	-0.204
-87.713	114.941	-0.067	0.080
-86.699	-200.000	-0.053	-0.307
-85.684	-89.044	-0.010	-0.003
-84.670	84.615	-0.107	-0.115
-83.655	-200.000	-0.063	0.320
-82.640	-200.000	-0.100	0.513
-81.626	-27.068	-0.181	0.104
-80.611	199.389	-0.070	0.106
-79.597	68.510	-0.137	-0.137
-78.582	-198.998	-0.077	-0.000
-77.567	800.000	-0.099	0.413
-76.553	529.457	-0.108	-0.249
-75.538	-128.430	0.162	0.023
-74.524	-200.000	-0.077	-0.341
-73.509	-156.985	-0.402	0.024
-72.494	-200.000	0.014	-0.266
-71.480	603.810	0.046	0.112
-70.465	117.133	-0.259	0.311
-69.451	-140.589	-0.401	0.041
-68.436	-197.816	0.181	0.001
-67.422	-37.723	0.245	-0.128
-66.407	-154.033	0.045	0.003
-65.392	-124.683	-0.115	-0.017
-64.378	800.000	0.086	-0.232
-63.363	65.128	0.266	-0.263
-62.349	86.917	-0.033	0.036
-61.334	-37.182	-1.371	-0.718
-60.319	42.234	0.480	0.427
-59.305	696.434	-0.489	-1.256
-58.290	86.160	0.971	1.047
-57.276	420.526	0.678	1.422
-56.261	-200.000	121.709	645.433
-55.246	431.883	1538.613	3264.986
-54.232	145.133	2700.635	3537.144
-53.217	89.600	2315.549	2529.007
-52.203	30.680	2065.866	1730.506
-51.188	26.024	1982.338	1618.798
-50.173	24.640	1966.940	1593.829
-49.159	42.234	2037.721	1811.961
-48.144	40.726	2050.552	1809.566
-47.130	26.190	2003.477	1637.310
-46.115	24.161	1992.703	1610.115
-45.100	24.062	1989.469	1606.551
-44.086	24.053	1986.857	1604.295
-43.071	24.050	1984.152	1602.022
-42.057	23.997	1982.475	1600.125
-41.042	24.013	1980.524	1598.631
-40.027	24.029	1978.892	1597.391
-39.013	24.058	1977.185	1596.211
-37.998	23.981	1975.276	1593.917
-36.984	24.058	1972.994	1592.706
-35.969	24.014	1971.784	1591.272
-34.954	24.058	1969.767	1589.974
-33.940	24.069	1968.826	1589.246
-32.925	24.174	1966.272	1588.060
-31.911	24.161	1965.083	1586.922
-30.896	24.129	1963.506	1585.299
-29.881	24.088	1962.445	1584.014
-28.867	24.152	1960.443	1582.903
-27.852	24.155	1959.468	1582.084
-26.838	24.122	1956.557	1579.370
-25.823	24.190	1954.749	1578.453
-24.809	24.194	1953.086	1577.085
-23.794	24.154	1951.774	1575.607
-22.779	24.165	1950.138	1574.320
-21.765	24.151	1948.340	1572.689
-20.750	24.253	1946.969	1572.414
-19.736	24.189	1945.664	1570.735
-18.721	24.171	1943.675	1568.908
-17.706	24.178	1941.898	1567.477
-16.692	24.181	1939.865	1565.796
-15.677	24.116	1938.761	1564.272
-14.663	24.122	1937.167	1562.975
-13.648	24.228	1935.998	1562.904
-12.633	24.163	1935.219	1561.644
-11.619	24.075	1934.349	1560.102
-10.604	24.133	1932.270	1558.879
-9.590	24.072	1931.241	1557.451
-8.575	24.136	1929.865	1556.838
-7.560	24.125	1928.144	1555.294
-6.546	24.105	1926.980	1554.117
-5.531	24.167	1926.005	1553.809
-4.517	24.149	1924.667	1552.514
-3.502	24.108	1923.536	1551.184
-2.487	24.084	1922.285	1549.904
-1.473	24.053	1921.793	1549.168
-0.458	24.169	1916.491	1545.839
0.556	23.011	1896.414	1517.111
1.571	18.730	1877.739	1465.575
2.586	14.925	1900.338	1450.153
3.600	13.907	1935.367	1467.755
4.615	13.917	1928.609	1462.593
5.629	10.933	1829.553	1362.385
6.644	4.618	1716.839	1228.569
7.659	1.079	1683.603	1177.221
8.673	0.805	1680.907	1173.107
9.688	0.814	1679.798	1172.298
10.702	0.845	1678.210	1171.329
11.717	0.696	1674.389	1167.405
12.731	1.169	1673.380	1170.252
13.746	5.973	1683.424	1214.395
14.761	13.228	1697.340	1280.725
15.775	16.943	1703.414	1314.031
16.790	17.315	1703.416	1316.800
17.804	16.396	1700.610	1307.405
18.819	15.403	1697.559	1297.269
19.834	14.844	1694.853	1290.773
20.848	14.573	1693.623	1287.629
21.863	14.472	1691.394	1285.047
22.877	14.148	1690.226	1281.548
23.892	13.884	1688.785	1278.311
24.907	13.804	1687.654	1276.725
25.921	13.750	1686.229	1275.121
26.936	13.788	1685.274	1274.576
27.950	13.822	1684.759	1274.333
28.965	13.964	1683.807	1274.590
29.980	13.853	1683.127	1273.111
30.994	13.929	1681.695	1272.498
32.009	13.949	1681.229	1272.184
33.023	13.952	1680.074	1271.223
34.038	14.005	1679.658	1271.197
35.053	13.909	1678.605	1269.556
36.067	14.012	1677.222	1269.186
37.082	13.941	1676.011	1267.617
38.096	13.977	1674.821	1266.880
39.111	13.950	1674.278	1266.147
40.126	13.959	1673.768	1265.722
41.140	13.949	1672.401	1264.500
42.155	13.801	1670.907	1262.133
43.169	13.880	1669.663	1261.680
44.184	13.808	1668.591	1260.211
45.199	13.784	1667.336	1258.972
46.213	13.792	1666.077	1257.970
47.228	13.831	1664.746	1257.149
48.242	13.948	1663.190	1256.748
49.257	13.924	1662.795	1256.153
50.271	13.847	1661.253	1254.294
51.286	13.848	1659.745	1253.058
52.301	13.854	1658.475	1252.031
53.315	13.855	1657.334	1251.063
54.330	13.848	1655.313	1249.378
55.344	13.751	1654.247	1247.733
56.359	13.801	1652.995	1247.052
57.374	13.756	1651.789	1245.699
58.388	13.832	1649.991	1244.802
59.403	13.773	1649.103	1243.579
60.417	13.756	1648.173	1242.638
61.432	13.756	1646.890	1241.562
62.447	13.809	1645.151	1240.536
63.461	13.660	1644.686	1238.960
64.476	13.724	1643.329	1238.307
65.490	13.697	1641.781	1236.832
66.505	13.645	1641.265	1235.947
67.520	13.620	1639.986	1234.689
68.534	13.764	1638.837	1234.784
69.549	13.652	1637.944	1233.167
70.563	13.765	1635.983	1232.420
71.578	13.790	1635.304	1231.989
72.593	13.744	1634.075	1230.612
73.607	13.642	1633.485	1229.303
74.622	13.659	1631.714	1227.990
75.636	13.616	1631.095	1227.093
76.651	13.599	1630.197	1226.185
77.666	13.636	1629.021	1225.462
78.680	13.664	1627.851	1224.683
79.695	13.702	1626.681	1223.976
80.709	13.706	1625.695	1223.151
81.724	13.683	1624.952	1222.317
82.739	13.790	1624.068	1222.334
83.753	13.779	1623.313	1221.577
84.768	13.856	1622.071	1221.100
85.782	13.852	1621.370	1220.436
86.797	13.943	1620.649	1220.448
87.812	13.885	1619.482	1219.040
88.826	13.890	1618.172	1217.979
89.841	13.747	1617.233	1216.117
90.855	13.788	1616.156	1215.503
91.870	13.802	1615.375	1214.907
92.884	13.790	1614.520	1214.071
93.899	13.944	1612.814	1213.806
94.914	13.923	1611.646	1212.670
95.928	13.948	1610.854	1212.145
96.943	13.986	1609.564	1211.347
97.957	13.931	1607.632	1209.385
98.972	13.967	1606.449	1208.645
99.987	13.959	1604.748	1207.200
101.001	13.955	1603.531	1206.149
102.016	13.873	1602.126	1204.390
103.030	13.866	1600.921	1203.330
104.045	13.953	1599.185	1202.551
105.060	13.990	1597.783	1201.658
106.074	13.923	1596.662	1200.223
107.089	13.829	1594.758	1198.005
108.103	13.759	1593.341	1196.331
109.118	13.773	1591.868	1195.218
110.133	13.756	1590.512	1193.976
111.147	13.796	1589.366	1193.295
112.162	13.782	1588.186	1192.202
113.176	13.874	1585.912	1191.051
114.191	13.843	1585.301	1190.263
115.206	13.740	1584.177	1188.579
116.220	13.816	1582.669	1187.888
117.235	13.835	1581.052	1186.701
118.249	13.828	1579.885	1185.670
119.264	13.806	1578.788	1184.588
120.279	13.830	1577.074	1183.366
121.293	13.833	1575.667	1182.229
122.308	13.815	1573.996	1180.741
123.322	13.818	1572.198	1179.311
124.337	13.849	1571.017	1178.540
125.352	13.879	1570.109	1177.968
126.366	13.789	1569.184	1176.530
127.381	13.790	1568.123	1175.635
128.395	13.774	1567.063	1174.625
129.410	13.775	1565.184	1173.121
130.424	13.763	1564.133	1172.144
131.439	13.868	1562.476	1171.538
132.454	13.777	1561.524	1170.081
133.468	13.752	1560.223	1168.828
134.483	13.770	1558.887	1167.849
135.497	13.891	1557.187	1167.324
136.512	13.870	1555.715	1165.966
137.527	13.898	1554.115	1164.860
138.541	13.898	1553.174	1164.051
139.556	13.864	1551.826	1162.700
140.570	13.927	1550.072	1161.729
141.585	13.934	1549.083	1160.933
142.600	13.960	1548.005	1160.205
143.614	13.930	1546.973	1159.113
144.629	14.035	1545.352	1158.530
145.643	14.091	1543.772	1157.635
146.658	14.098	1542.790	1156.842
147.673	14.096	1540.838	1155.263
148.687	14.030	1539.589	1153.764
149.702	14.081	1538.002	1152.831
150.716	14.122	1536.148	1151.619
151.731	13.989	1535.204	1149.894
152.746	14.019	1533.822	1148.963
153.760	14.057	1532.298	1147.984
154.775	14.041	1531.518	1147.184
155.789	14.086	1529.998	1146.258
156.804	14.109	1528.323	1145.058
157.819	14.146	1527.536	1144.623
158.833	14.177	1525.996	1143.580
159.848	14.198	1524.820	1142.743
160.862	14.238	1523.310	1141.784
161.877	14.292	1522.440	1141.400
162.892	14.191	1521.090	1139.592
163.906	14.168	1519.692	1138.289
164.921	14.135	1518.564	1137.116
165.935	14.138	1517.786	1136.452
166.950	14.212	1516.670	1136.024
167.964	14.123	1515.595	1134.509
168.979	14.204	1514.622	1134.237
169.994	14.244	1513.030	1133.216
171.008	14.122	1512.635	1131.985
172.023	14.149	1511.931	1131.548
173.037	14.279	1510.083	1130.943
174.052	14.385	1508.660	1130.498
175.067	14.271	1507.995	1129.129
176.081	14.325	1506.646	1128.380
177.096	14.254	1505.717	1127.108
178.110	14.227	1503.948	1125.502
179.125	14.293	1503.033	1125.161
180.140	14.238	1502.011	1123.928
181.154	14.259	1500.938	1123.164
182.169	14.285	1499.602	1122.240
183.183	14.388	1498.591	1122.079
184.198	14.391	1497.382	1121.098
185.213	14.456	1495.960	1120.368
186.227	14.454	1495.070	1119.591
187.242	14.465	1493.801	1118.612
188.256	14.478	1493.099	1118.076
189.271	14.570	1491.870	1117.670
190.286	14.497	1490.353	1115.947
191.300	14.477	1490.225	1115.624
192.315	14.372	1488.185	1113.290
193.329	14.388	1487.462	1112.761
194.344	14.368	1486.536	1111.836
195.359	14.391	1485.192	1110.882
196.373	14.549	1483.989	1110.937
197.388	14.520	1483.062	1109.955
198.402	14.530	1482.047	1109.161
199.417	14.380	1481.153	1107.400
200.432	14.587	1480.206	1107.967
201.446	14.586	1479.326	1107.207
202.461	14.678	1477.684	1106.487
203.475	14.685	1476.647	1105.660
204.490	14.784	1475.540	1105.389
205.504	14.744	1474.270	1104.077
206.519	14.655	1473.672	1102.943
207.534	14.659	1472.293	1101.837
208.548	14.656	1471.348	1101.013
209.563	14.708	1469.836	1100.129
210.577	14.709	1468.972	1099.390
211.592	14.701	1468.216	1098.671
212.607	14.773	1467.308	1098.368
213.621	14.807	1466.777	1098.099
214.636	14.880	1465.709	1097.680
215.650	14.795	1464.720	1096.285
216.665	14.847	1463.298	1095.466
217.680	14.845	1462.845	1095.015
218.694	14.917	1462.051	1094.797
219.709	14.955	1461.276	1094.369
220.723	14.942	1460.326	1093.473
221.738	14.926	1459.166	1092.407
222.753	15.018	1457.942	1091.994
223.767	14.858	1457.393	1090.440
224.782	14.879	1456.316	1089.675
225.796	14.970	1455.460	1089.528
226.811	14.994	1454.977	1089.228
227.826	14.975	1454.222	1088.443
228.840	15.033	1452.901	1087.734
229.855	14.962	1452.017	1086.515
230.869	15.034	1451.128	1086.220
231.884	15.039	1450.232	1085.490
232.899	14.990	1448.754	1083.970
233.913	15.067	1447.493	1083.426
234.928	15.089	1446.707	1082.883
235.942	15.052	1445.241	1081.455
236.957	14.931	1444.305	1079.875
237.972	14.989	1443.221	1079.347
238.986	15.010	1442.184	1078.611
240.001	15.012	1441.673	1078.144
241.015	15.088	1440.369	1077.565
242.030	15.006	1439.200	1076.067
243.045	15.165	1438.169	1076.217
244.059	15.091	1437.007	1074.782
245.074	15.181	1436.419	1074.826
246.088	15.197	1435.542	1074.173
247.103	15.206	1435.261	1073.929
248.117	15.220	1434.226	1073.146
249.132	15.255	1433.355	1072.623
250.147	15.335	1432.030	1072.053
251.161	15.372	1431.828	1072.038
252.176	15.380	1431.214	1071.534
253.190	15.449	1430.016	1070.987
254.205	15.477	1429.239	1070.487
255.220	15.366	1428.695	1069.275
256.234	15.483	1427.844	1069.291
257.249	15.457	1426.775	1068.231
258.263	15.464	1426.314	1067.836
259.278	15.430	1424.773	1066.371
260.293	15.556	1423.988	1066.491
261.307	15.497	1423.266	1065.477
262.322	15.517	1422.990	1065.307
263.336	15.641	1421.878	1065.165
264.351	15.729	1420.276	1064.426
265.366	15.659	1419.962	1063.652
266.380	15.737	1418.386	1062.875
267.395	15.713	1417.976	1062.322
268.409	15.762	1416.736	1061.606
269.424	15.701	1416.083	1060.636
270.439	15.685	1415.465	1059.982
271.453	15.702	1413.926	1058.839
272.468	15.802	1412.843	1058.569
273.482	15.761	1412.253	1057.770
274.497	15.621	1412.010	1056.618
275.512	15.699	1410.984	1056.247
276.526	15.710	1410.156	1055.600
277.541	15.825	1408.694	1055.132
278.555	15.669	1408.228	1053.712
279.570	15.757	1407.304	1053.478
280.585	15.839	1406.048	1052.960
281.599	15.903	1404.832	1052.354
282.614	15.896	1404.473	1051.952
283.628	15.856	1402.898	1050.428
284.643	15.903	1402.288	1050.170
285.657	15.842	1401.140	1048.840
286.672	15.868	1399.860	1047.948
287.687	15.874	1399.270	1047.451
288.701	15.949	1397.955	1046.844
289.716	15.970	1397.358	1046.432
290.730	15.969	1396.547	1045.730
291.745	15.948	1395.290	1044.564
292.760	15.975	1394.605	1044.125
293.774	16.018	1393.166	1043.223
294.789	16.061	1392.381	1042.805
295.803	16.123	1391.567	1042.488
296.818	15.985	1391.211	1041.276
297.833	16.061	1389.947	1040.709
298.847	16.043	1389.138	1039.896
299.862	16.074	1387.748	1038.957
300.876	16.105	1386.759	1038.316
301.891	16.171	1385.869	1037.966
302.906	16.134	1385.398	1037.291
303.920	16.123	1384.804	1036.685
304.935	16.219	1383.852	1036.472
305.949	16.292	1382.910	1036.121
306.964	16.267	1382.251	1035.383
307.979	16.296	1381.504	1034.909
308.993	16.306	1380.252	1033.941
310.008	16.378	1379.261	1033.552
311.022	16.377	1378.039	1032.538
312.037	16.365	1377.314	1031.828
313.052	16.326	1376.800	1031.117
314.066	16.388	1375.054	1030.096
315.081	16.314	1374.290	1028.977
316.095	16.367	1373.226	1028.414
317.110	16.245	1372.422	1026.977
318.125	16.354	1371.642	1026.966
319.139	16.316	1370.666	1025.915
320.154	16.399	1369.663	1025.577
321.168	16.317	1368.548	1024.153
322.183	16.294	1367.878	1023.425
323.197	16.395	1366.537	1022.938
324.212	16.449	1365.881	1022.684
325.227	16.445	1365.148	1022.023
326.241	16.483	1364.017	1021.314
327.256	16.543	1363.118	1020.916
328.270	16.520	1362.038	1019.875
329.285	16.409	1361.138	1018.442
330.300	16.430	1361.032	1018.401
331.314	16.435	1359.900	1017.489
332.329	16.461	1358.775	1016.719
333.343	16.430	1357.956	1015.829
334.358	16.568	1357.096	1015.923
335.373	16.573	1356.460	1015.386
336.387	16.533	1355.652	1014.453
337.402	16.662	1354.461	1014.247
338.416	16.662	1354.227	1013.979
339.431	16.588	1354.021	1013.294
340.446	16.658	1353.235	1013.032
341.460	16.636	1352.547	1012.297
342.475	16.562	1351.271	1010.812
343.489	16.668	1350.228	1010.573
344.504	16.829	1348.745	1010.337
345.519	16.748	1348.228	1009.373
346.533	16.780	1347.482	1008.919
347.548	16.897	1346.218	1008.575
348.562	16.852	1345.308	1007.542
349.577	16.758	1344.818	1006.523
350.592	16.900	1344.045	1006.698
351.606	16.884	1342.871	1005.635
352.621	16.806	1341.950	1004.398
353.635	16.801	1340.923	1003.510
354.650	16.802	1339.947	1002.697
355.665	16.919	1338.769	1002.418
356.679	16.866	1338.118	1001.525
357.694	16.897	1336.747	1000.595
358.708	16.926	1335.626	999.839
359.723	16.926	1334.719	999.074
360.738	16.957	1333.845	998.512
361.752	17.011	1332.472	997.716
362.767	16.939	1331.529	996.497
363.781	17.037	1330.619	996.302
364.796	17.005	1330.120	995.656
365.810	16.996	1329.259	994.868
366.825	17.000	1328.774	994.437
367.840	17.158	1328.076	994.753
368.854	17.108	1327.095	993.638
369.869	17.185	1326.309	993.413
370.883	17.266	1326.045	993.604
371.898	17.122	1325.224	992.058
372.913	17.202	1324.441	991.848
373.927	17.099	1323.596	990.527
374.942	17.190	1322.736	990.326
375.956	17.256	1321.762	989.897
376.971	17.270	1321.126	989.411
377.986	17.302	1320.278	988.874
379.000	17.259	1319.472	987.933
380.015	17.421	1318.323	987.930
381.029	17.289	1317.880	986.741
382.044	17.371	1317.001	986.474
383.059	17.357	1316.544	985.962
384.073	17.363	1316.125	985.594
385.088	17.446	1315.304	985.373
386.102	17.456	1314.306	984.599
387.117	17.528	1313.579	984.380
388.132	17.402	1312.909	983.064
389.146	17.568	1311.888	983.173
390.161	17.518	1311.062	982.177
391.175	17.480	1310.486	981.441
392.190	17.441	1309.679	980.521
393.205	17.467	1308.602	979.781
394.219	17.559	1307.667	979.523
395.234	17.649	1306.293	978.923
396.248	17.624	1304.684	977.486
397.263	17.587	1303.783	976.516
398.278	17.660	1302.507	975.892
399.292	17.734	1301.030	975.119
400.307	17.547	1300.387	973.484
401.321	17.465	1299.401	972.191
402.336	17.512	1298.374	971.603
403.350	17.528	1297.456	970.921
404.365	17.584	1296.422	970.382
405.380	17.652	1296.105	970.448
406.394	17.628	1295.308	969.629
407.409	17.591	1294.544	968.759
408.423	17.740	1294.002	969.116
409.438	17.686	1292.938	967.926
410.453	17.821	1291.934	967.854
411.467	17.763	1291.469	967.092
412.482	17.821	1290.947	966.946
413.496	17.788	1290.547	966.373
414.511	17.934	1289.520	966.342
415.526	17.863	1288.673	965.221
416.540	17.904	1288.057	964.906
417.555	17.976	1287.319	964.677
418.569	17.978	1286.794	964.208
419.584	18.022	1286.247	963.962
420.599	18.021	1285.551	963.346
421.613	101.595	1359.588	1489.788
422.628	99.421	1370.329	1489.865
