DTS Sentinel unit serial number:	SN413079Multiplexer serial number:	ORYXHardware model number:	OX4-SRSoftware version number:	ORYX F/W v4.00 Oryx Data Collector v3.7.2.0data status	okinstallation	princeton_trtdifferential loss correction	single-endedforward channel	channel 4reverse channel	N/Adate	2019/09/15time	01:13:35forward acquisition time	60.00reverse acquisition time	0.00gamma	496.2192k internal	0.2307k external	0.2307temperature offset calibration	1.0037default loss term (dB/km)	0.3790temperature slope calibration	1.0000multiplexer offset coefficient	1.0000multiplexer slope coefficient	1.0000fibre end	0.00T internal ref (°C)	31.94T ext. ref 1 (°C)	4.52T ext. ref 2 (°C)	26.88length (m)	temperature (°C)	Stokes	anti-Stokes-747.200	800.000	0.125	-0.398
-746.185	-23.295	-0.054	-0.033
-745.171	-200.000	0.008	0.069
-744.156	23.581	0.126	0.106
-743.142	-127.580	-0.059	-0.009
-742.127	40.377	-0.122	0.112
-741.112	-200.000	0.047	0.242
-740.098	509.128	0.274	0.648
-739.083	800.000	-0.073	0.283
-738.069	-142.938	-0.128	-0.013
-737.054	800.000	0.111	0.385
-736.039	-27.502	0.257	0.152
-735.025	-200.000	0.087	0.664
-734.010	595.199	0.027	-0.068
-732.996	203.030	-0.211	-0.332
-731.981	-200.000	0.013	-0.237
-730.966	-200.000	-0.010	-0.267
-729.952	-133.275	-0.208	0.027
-728.937	164.195	0.083	0.119
-727.923	-83.443	0.091	0.029
-726.908	632.256	-0.017	0.044
-725.894	-27.973	-0.127	-0.075
-724.879	108.763	-0.300	-0.364
-723.864	-35.253	-0.039	-0.022
-722.850	-200.000	-0.032	-0.351
-721.835	-64.481	-0.214	-0.088
-720.821	-154.019	0.208	0.014
-719.806	-116.244	0.233	-0.044
-718.791	487.957	0.036	0.084
-717.777	-200.000	-0.003	0.188
-716.762	-200.000	-0.251	-0.001
-715.748	800.000	-0.046	-0.163
-714.733	-200.000	0.016	-0.257
-713.718	-18.183	-0.152	-0.097
-712.704	800.000	-0.081	-0.274
-711.689	-116.967	0.114	-0.021
-710.675	-200.000	0.056	0.346
-709.660	321.749	-0.096	0.185
-708.645	800.000	0.045	-0.136
-707.631	407.185	0.086	-0.184
-706.616	386.696	0.078	-0.164
-705.602	-200.000	0.001	0.062
-704.587	-134.325	-0.350	-0.044
-703.572	25.899	0.253	-0.214
-702.558	448.480	0.071	-0.159
-701.543	-18.267	-0.200	-0.127
-700.529	131.851	-0.127	-0.166
-699.514	12.071	-0.278	0.217
-698.499	-200.000	-0.041	0.194
-697.485	-200.000	-0.050	0.234
-696.470	4.005	-0.257	-0.190
-695.456	-38.578	-0.216	-0.116
-694.441	800.000	-0.021	-0.069
-693.426	800.000	0.102	-0.437
-692.412	25.098	-0.285	0.240
-691.397	-25.553	-0.438	0.262
-690.383	-129.573	-0.243	-0.034
-689.368	-70.593	0.052	-0.020
-688.354	800.000	-0.075	0.327
-687.339	-43.881	-0.160	-0.082
-686.324	106.871	-0.162	0.196
-685.310	800.000	0.038	0.138
-684.295	-106.650	-0.080	-0.018
-683.281	-80.785	0.186	0.063
-682.266	100.903	0.097	-0.115
-681.251	-134.631	-0.144	-0.018
-680.237	-57.418	0.121	-0.054
-679.222	8.217	-0.213	-0.163
-678.208	470.187	0.105	-0.238
-677.193	-51.215	0.050	-0.024
-676.178	265.651	-0.046	-0.081
-675.164	30.482	-0.099	0.086
-674.149	-8.983	0.148	-0.101
-673.135	-200.000	0.013	0.190
-672.120	-82.319	0.103	-0.034
-671.105	487.067	0.059	-0.137
-670.091	61.920	0.081	-0.082
-669.076	-99.868	-0.140	0.036
-668.062	313.699	-0.078	0.148
-667.047	-31.317	-0.279	0.159
-666.032	-14.678	-0.496	0.323
-665.018	-38.157	0.132	-0.071
-664.003	-121.828	-0.310	0.052
-662.989	-67.735	0.059	-0.023
-661.974	-66.549	-0.121	0.049
-660.959	21.527	-0.146	0.121
-659.945	-47.676	0.317	-0.156
-658.930	-200.000	0.011	0.072
-657.916	-8.620	0.129	0.088
-656.901	800.000	-0.067	0.233
-655.886	-157.939	-0.099	-0.006
-654.872	57.023	-0.079	-0.078
-653.857	800.000	0.160	0.519
-652.843	-8.312	-0.218	0.148
-651.828	-20.363	-0.371	0.232
-650.814	-93.292	0.236	-0.066
-649.799	-94.584	0.317	-0.087
-648.784	-55.790	0.185	-0.084
-647.770	261.054	-0.238	-0.417
-646.755	-59.050	0.156	0.068
-645.741	129.585	0.247	0.320
-644.726	-200.000	0.013	-0.097
-643.711	67.171	-0.254	0.262
-642.697	-82.822	-0.229	-0.075
-641.682	-13.056	-0.181	-0.119
-640.668	136.565	0.047	-0.062
-639.653	800.000	0.035	0.133
-638.638	40.001	0.138	0.125
-637.624	-200.000	-0.024	-0.158
-636.609	-45.493	-0.241	-0.121
-635.595	-39.633	-0.243	0.129
-634.580	349.058	-0.062	0.125
-633.565	131.154	-0.120	-0.156
-632.551	249.832	0.202	-0.347
-631.536	-200.000	0.037	0.203
-630.522	44.522	0.062	-0.058
-629.507	-110.991	0.131	0.027
-628.492	251.721	-0.163	0.282
-627.478	359.207	0.040	-0.082
-626.463	677.388	-0.083	-0.218
-625.449	-102.097	-0.168	0.041
-624.434	573.008	-0.056	0.139
-623.419	-39.673	-0.076	0.040
-622.405	59.540	0.123	0.123
-621.390	800.000	0.019	0.057
-620.376	-88.753	0.048	-0.014
-619.361	118.463	-0.072	0.089
-618.346	-200.000	-0.026	-0.475
-617.332	213.833	-0.171	0.274
-616.317	107.515	-0.064	0.077
-615.303	800.000	0.056	-0.174
-614.288	-137.205	0.266	0.031
-613.273	-15.564	0.286	-0.184
-612.259	129.190	-0.033	-0.042
-611.244	-26.225	-0.230	0.137
-610.230	-74.493	-0.316	-0.115
-609.215	-200.000	0.017	-0.130
-608.201	-44.915	-0.016	0.008
-607.186	-53.630	-0.387	-0.179
-606.171	151.247	-0.130	0.178
-605.157	275.558	0.091	0.164
-604.142	800.000	0.064	-0.245
-603.128	133.025	0.276	0.360
-602.113	167.681	0.176	-0.253
-601.098	-60.119	0.108	0.046
-600.084	-200.000	0.015	-0.070
-599.069	-200.000	-0.028	-0.327
-598.055	-200.000	0.033	-0.218
-597.040	408.417	-0.058	0.124
-596.025	-144.981	0.188	0.017
-595.011	-200.000	-0.074	0.486
-593.996	76.600	-0.129	-0.138
-592.982	39.693	-0.184	0.167
-591.967	-118.307	0.278	-0.050
-590.952	-200.000	-0.007	0.141
-589.938	-130.856	-0.162	0.022
-588.923	18.300	0.160	-0.129
-587.909	-200.000	0.032	-0.234
-586.894	42.692	-0.033	0.031
-585.879	-200.000	-0.011	0.149
-584.865	309.978	-0.097	0.184
-583.850	-25.119	-0.260	0.156
-582.836	-58.058	-0.242	-0.106
-581.821	-200.000	-0.073	-0.366
-580.806	-186.637	0.342	0.005
-579.792	449.687	0.105	0.234
-578.777	176.200	-0.153	-0.225
-577.763	800.000	0.061	0.248
-576.748	81.649	0.105	-0.114
-575.733	800.000	0.073	0.208
-574.719	13.577	-0.169	0.133
-573.704	74.925	-0.050	-0.053
-572.690	-162.429	0.376	-0.019
-571.675	30.624	-0.121	0.105
-570.661	-20.035	0.298	0.186
-569.646	288.003	-0.141	-0.259
-568.631	-28.912	0.283	0.164
-567.617	-121.383	-0.214	0.036
-566.602	249.772	-0.028	-0.048
-565.588	-29.550	0.075	-0.043
-564.573	800.000	-0.095	-0.363
-563.558	-26.645	0.120	-0.071
-562.544	800.000	0.116	0.327
-561.529	103.630	-0.142	0.168
-560.515	227.037	-0.138	-0.226
-559.500	28.951	0.296	-0.253
-558.485	800.000	-0.034	-0.117
-557.471	470.860	0.139	0.316
-556.456	12.975	-0.122	0.095
-555.442	-70.914	0.146	-0.055
-554.427	118.152	-0.064	-0.079
-553.412	-123.796	-0.291	-0.046
-552.398	237.035	0.147	-0.246
-551.383	-200.000	-0.039	-0.179
-550.369	-132.347	0.391	0.051
-549.354	-74.037	-0.238	0.087
-548.339	454.214	0.080	-0.178
-547.325	87.538	-0.040	-0.045
-546.310	0.343	0.184	0.132
-545.296	171.723	0.131	-0.190
-544.281	259.998	0.064	-0.112
-543.266	147.247	0.078	-0.106
-542.252	-200.000	-0.077	0.364
-541.237	-200.000	0.044	0.298
-540.223	36.428	0.297	0.264
-539.208	800.000	-0.015	0.042
-538.193	454.287	-0.205	-0.458
-537.179	800.000	-0.084	-0.321
-536.164	-113.064	-0.123	-0.024
-535.150	-200.000	-0.044	0.333
-534.135	-200.000	0.025	-0.170
-533.121	-3.134	-0.232	0.163
-532.106	-64.049	-0.102	-0.042
-531.091	-200.000	0.001	-0.203
-530.077	-50.595	-0.382	0.182
-529.062	-200.000	-0.102	0.481
-528.048	-112.413	-0.288	0.058
-527.033	-119.259	0.060	-0.011
-526.018	800.000	0.037	-0.156
-525.004	9.440	-0.197	0.150
-523.989	-164.043	0.361	0.017
-522.975	-44.481	-0.216	0.109
-521.960	546.255	0.103	0.248
-520.945	527.879	-0.062	0.148
-519.931	-95.491	-0.213	-0.058
-518.916	9.876	0.086	0.066
-517.902	-147.356	0.107	0.009
-516.887	-142.977	-0.120	0.012
-515.872	800.000	0.015	0.064
-514.858	-135.357	0.234	-0.028
-513.843	2.356	0.132	0.096
-512.829	96.398	-0.181	0.209
-511.814	800.000	0.039	-0.155
-510.799	-71.138	-0.062	0.023
-509.785	-200.000	0.030	-0.267
-508.770	-200.000	0.000	-0.436
-507.756	-200.000	0.047	-0.338
-506.741	68.988	-0.043	0.044
-505.726	-79.466	-0.292	0.099
-504.712	-200.000	0.025	0.179
-503.697	-28.122	-0.259	0.151
-502.683	174.182	-0.063	0.091
-501.668	-129.758	0.433	0.060
-500.653	-50.346	0.166	-0.079
-499.639	-167.905	-0.131	-0.005
-498.624	-45.360	-0.323	-0.161
-497.610	-34.730	-0.103	0.056
-496.595	423.265	0.089	-0.192
-495.581	134.360	-0.107	0.139
-494.566	161.661	0.119	-0.167
-493.551	-200.000	0.010	0.238
-492.537	-55.120	-0.249	0.113
-491.522	166.918	-0.019	-0.027
-490.508	714.252	0.050	-0.133
-489.493	-27.108	-0.029	0.017
-488.478	-66.329	-0.163	-0.065
-487.464	-87.270	-0.253	-0.077
-486.449	41.894	0.025	0.023
-485.435	-96.623	-0.281	0.074
-484.420	-167.318	-0.191	-0.008
-483.405	-51.199	0.098	0.046
-482.391	-32.023	0.114	0.064
-481.376	-35.689	0.057	-0.031
-480.362	97.636	0.068	0.079
-479.347	355.249	-0.093	0.186
-478.332	-67.920	0.106	0.042
-477.318	218.403	0.081	-0.129
-476.303	800.000	-0.010	0.039
-475.289	-164.010	-0.133	0.006
-474.274	-140.344	-0.251	-0.026
-473.259	-27.186	0.220	-0.129
-472.245	470.146	0.075	-0.170
-471.230	52.412	0.098	0.094
-470.216	800.000	0.059	0.188
-469.201	-189.264	0.163	-0.002
-468.186	-39.255	-0.204	0.108
-467.172	-69.448	-0.230	-0.089
-466.157	109.818	0.273	-0.329
-465.143	45.841	-0.314	-0.293
-464.128	-113.146	0.169	0.033
-463.113	23.041	0.129	-0.107
-462.099	-200.000	0.000	-0.288
-461.084	800.000	0.053	0.192
-460.070	-108.622	-0.210	-0.045
-459.055	-200.000	0.036	-0.273
-458.040	9.393	-0.246	0.187
-457.026	89.878	-0.094	-0.106
-456.011	-150.367	0.177	-0.014
-454.997	-200.000	0.003	0.039
-453.982	-115.889	-0.222	-0.042
-452.968	79.415	0.132	0.142
-451.953	-200.000	-0.017	-0.101
-450.938	-36.327	-0.250	-0.135
-449.924	9.272	-0.182	0.139
-448.909	-176.073	0.201	0.005
-447.895	121.356	0.169	-0.211
-446.880	-54.413	0.135	0.061
-445.865	-131.611	-0.134	0.018
-444.851	14.105	0.269	-0.211
-443.836	-200.000	-0.016	0.091
-442.822	-200.000	-0.225	0.001
-441.807	-42.476	-0.304	0.156
-440.792	329.474	0.070	-0.135
-439.778	436.974	-0.047	-0.103
-438.763	-18.563	-0.135	-0.085
-437.749	-49.333	0.010	0.005
-436.734	-24.528	-0.141	-0.085
-435.719	-200.000	-0.003	-0.021
-434.705	21.616	-0.116	-0.095
-433.690	800.000	0.023	-0.064
-432.676	-135.530	0.175	0.021
-431.661	14.454	-0.275	0.216
-430.646	-123.564	-0.256	-0.041
-429.632	800.000	0.051	0.143
-428.617	-200.000	-0.004	0.104
-427.603	-160.227	0.224	-0.012
-426.588	-134.357	0.138	0.017
-425.573	168.993	0.131	0.187
-424.559	-200.000	0.006	-0.031
-423.544	-107.424	0.058	-0.013
-422.530	390.189	-0.222	-0.461
-421.515	654.332	0.122	-0.314
-420.500	-26.499	-0.169	0.100
-419.486	-200.000	-0.026	0.243
-418.471	-109.755	-0.272	0.057
-417.457	-48.794	0.244	-0.118
-416.442	-200.000	-0.064	0.290
-415.428	-147.877	0.299	0.025
-414.413	800.000	0.056	-0.179
-413.398	312.763	0.165	0.312
-412.384	-68.978	0.341	-0.132
-411.369	-81.235	-0.258	-0.086
-410.355	695.162	-0.091	-0.240
-409.340	-200.000	0.065	0.412
-408.325	-11.967	-0.154	-0.101
-407.311	301.097	-0.017	0.031
-406.296	177.098	0.085	0.124
-405.282	-200.000	-0.040	0.200
-404.267	-200.000	0.010	-0.113
-403.252	-200.000	0.027	0.259
-402.238	383.456	0.051	0.105
-401.223	162.537	-0.350	0.493
-400.209	620.886	0.140	0.355
-399.194	66.559	0.167	-0.170
-398.179	-40.607	0.183	0.095
-397.165	99.882	-0.093	0.108
-396.150	-84.109	0.200	-0.064
-395.136	-44.186	0.182	0.092
-394.121	67.259	0.292	0.299
-393.106	-200.000	0.011	0.214
-392.092	-200.000	0.017	0.098
-391.077	217.785	-0.138	-0.221
-390.063	31.263	-0.212	-0.183
-389.048	-77.463	0.087	0.030
-388.033	85.644	0.144	0.159
-387.019	242.253	-0.086	-0.144
-386.004	-58.977	0.095	0.041
-384.990	95.701	-0.060	-0.069
-383.975	-62.178	0.225	0.094
-382.960	-9.908	0.233	-0.155
-381.946	-200.000	0.003	0.026
-380.931	-100.075	-0.146	-0.037
-379.917	643.290	-0.029	0.075
-378.902	-92.498	-0.080	0.023
-377.888	-200.000	-0.018	0.134
-376.873	-122.578	0.157	0.025
-375.858	-200.000	0.032	0.217
-374.844	-77.752	-0.064	-0.022
-373.829	235.056	-0.255	-0.423
-372.815	800.000	-0.049	-0.161
-371.800	-54.361	0.066	-0.030
-370.785	-44.553	0.283	-0.142
-369.771	-89.849	0.147	-0.043
-368.756	8.442	-0.260	0.196
-367.742	-127.746	-0.193	-0.028
-366.727	281.472	0.080	-0.143
-365.712	109.663	0.026	0.031
-364.698	19.314	-0.228	-0.184
-363.683	-117.521	0.250	0.045
-362.669	-120.172	0.235	0.040
-361.654	-96.482	-0.263	0.070
-360.639	192.469	-0.191	-0.289
-359.625	-200.000	0.046	-0.411
-358.610	135.099	-0.084	0.109
-357.596	-169.828	0.448	0.016
-356.581	-200.000	0.011	-0.133
-355.566	-67.748	0.253	0.099
-354.552	800.000	0.085	0.245
-353.537	443.557	0.164	0.359
-352.523	-72.124	0.267	-0.099
-351.508	800.000	0.053	0.196
-350.493	368.118	0.095	-0.193
-349.479	-86.378	0.149	0.046
-348.464	-169.401	0.165	0.006
-347.450	-200.000	0.011	-0.356
-346.435	-76.554	0.262	0.092
-345.420	800.000	-0.170	-0.509
-344.406	-200.000	0.024	-0.309
-343.391	-200.000	-0.023	0.125
-342.377	9.030	-0.051	-0.039
-341.362	800.000	0.081	-0.265
-340.348	-85.899	-0.068	0.021
-339.333	477.324	-0.132	0.299
-338.318	119.722	-0.093	-0.115
-337.304	-200.000	-0.042	0.266
-336.289	-109.720	0.265	0.056
-335.275	45.920	-0.110	0.102
-334.260	451.210	-0.114	0.253
-333.245	83.023	-0.162	0.177
-332.231	-166.944	-0.343	0.014
-331.216	-145.558	-0.068	-0.006
-330.202	-3.229	-0.249	-0.174
-329.187	-62.701	-0.231	-0.096
-328.172	201.335	-0.061	0.094
-327.158	-200.000	-0.011	-0.348
-326.143	-82.734	0.154	0.050
-325.129	127.664	0.230	-0.292
-324.114	-200.000	0.022	-0.208
-323.099	-200.000	-0.024	-0.226
-322.085	-85.122	0.252	0.079
-321.070	-19.607	-0.265	0.164
-320.056	800.000	-0.018	0.077
-319.041	800.000	0.079	-0.277
-318.026	800.000	-0.073	0.223
-317.012	260.429	-0.038	0.066
-315.997	83.399	0.169	-0.184
-314.983	-122.035	-0.107	-0.018
-313.968	-200.000	-0.016	-0.207
-312.953	-200.000	0.042	-0.250
-311.939	-78.073	0.216	0.074
-310.924	201.328	0.157	0.242
-309.910	18.441	-0.197	0.157
-308.895	799.799	0.041	0.112
-307.880	85.202	0.081	-0.089
-306.866	-174.117	0.290	-0.008
-305.851	-128.943	-0.103	0.014
-304.837	-200.000	-0.008	0.121
-303.822	224.343	0.252	-0.408
-302.807	-104.414	-0.242	-0.056
-301.793	729.758	-0.081	0.216
-300.778	314.704	0.140	-0.264
-299.764	160.987	0.108	0.151
-298.749	244.980	-0.092	0.155
-297.735	244.193	-0.138	0.232
-296.720	12.316	-0.077	0.059
-295.705	-86.737	0.251	0.077
-294.691	-48.806	-0.172	-0.082
-293.676	76.097	0.161	0.170
-292.662	413.845	-0.135	-0.286
-291.647	151.007	0.026	-0.035
-290.632	108.703	0.066	0.079
-289.618	23.789	-0.158	0.130
-288.603	800.000	-0.066	0.269
-287.589	-200.000	-0.017	0.272
-286.574	63.517	0.400	-0.401
-285.559	-200.000	0.007	0.231
-284.545	161.218	-0.207	0.288
-283.530	800.000	0.027	-0.103
-282.516	270.611	-0.110	-0.192
-281.501	300.702	0.114	0.209
-280.486	-92.461	0.225	-0.063
-279.472	-103.740	-0.236	-0.055
-278.457	96.663	-0.112	0.128
-277.443	12.820	0.099	-0.076
-276.428	-20.725	-0.226	-0.138
-275.413	248.188	-0.071	0.120
-274.399	800.000	-0.021	-0.058
-273.384	64.157	0.212	-0.213
-272.370	28.177	0.081	0.068
-271.355	-158.872	0.214	-0.012
-270.340	84.450	0.199	-0.218
-269.326	-8.856	-0.130	-0.087
-268.311	-108.906	-0.227	0.048
-267.297	-124.700	0.139	0.021
-266.282	-17.077	-0.184	0.116
-265.267	54.898	0.082	-0.079
-264.253	-116.935	0.130	0.024
-263.238	-42.899	0.295	-0.150
-262.224	-113.245	-0.044	-0.009
-261.209	87.797	0.066	0.073
-260.195	125.188	-0.050	0.063
-259.180	-23.902	0.105	-0.062
-258.165	-200.000	0.008	0.294
-257.151	76.636	-0.098	-0.104
-256.136	-200.000	-0.014	0.077
-255.122	89.590	0.278	0.310
-254.107	-4.989	-0.117	0.080
-253.092	759.171	-0.030	0.081
-252.078	-200.000	0.002	0.067
-251.063	-200.000	0.000	0.064
-250.049	-161.238	-0.186	0.010
-249.034	60.993	-0.153	-0.152
-248.019	-67.245	-0.135	0.053
-247.005	-200.000	0.046	0.248
-245.990	-200.000	-0.025	0.159
-244.976	618.664	0.108	0.271
-243.961	214.483	-0.118	-0.187
-242.946	-27.565	0.316	-0.183
-241.932	-46.689	0.142	-0.069
-240.917	-200.000	0.014	-0.163
-239.903	-129.117	0.011	-0.001
-238.888	-40.987	-0.168	-0.086
-237.873	800.000	0.093	0.259
-236.859	66.147	-0.057	-0.057
-235.844	155.860	-0.110	-0.151
-234.830	-15.941	0.014	-0.009
-233.815	-108.711	0.241	0.052
-232.800	715.170	-0.074	-0.197
-231.786	-200.000	0.037	-0.208
-230.771	747.754	-0.100	-0.268
-229.757	87.365	0.047	-0.052
-228.742	171.417	0.193	-0.275
-227.727	64.058	0.218	-0.219
-226.713	-56.490	-0.265	0.117
-225.698	-200.000	0.017	0.162
-224.684	-200.000	0.041	0.208
-223.669	64.310	0.196	0.197
-222.655	-109.621	-0.076	-0.016
-221.640	180.773	-0.110	0.161
-220.625	347.764	0.109	0.215
-219.611	-5.517	0.514	-0.351
-218.596	-36.479	0.206	-0.111
-217.582	55.503	-0.074	0.072
-216.567	53.790	-0.228	-0.218
-215.552	-200.000	-0.032	-0.168
-214.538	-13.570	-0.111	0.072
-213.523	-69.016	-0.163	-0.062
-212.509	-200.000	-0.019	-0.296
-211.494	438.880	0.053	-0.116
-210.479	155.505	-0.108	-0.148
-209.465	395.631	0.155	-0.322
-208.450	-77.055	0.229	-0.080
-207.436	553.729	0.053	0.127
-206.421	-82.821	0.189	0.061
-205.406	-94.840	0.444	0.120
-204.392	-134.417	-0.246	0.030
-203.377	104.769	-0.065	0.076
-202.363	800.000	-0.039	-0.162
-201.348	-73.741	-0.209	-0.076
-200.333	21.386	-0.113	0.092
-199.319	-186.003	0.221	0.003
-198.304	390.078	0.133	-0.274
-197.290	119.398	-0.142	0.175
-196.275	-200.000	0.049	0.363
-195.260	311.353	-0.052	0.096
-194.246	-200.000	0.009	-0.080
-193.231	181.542	0.039	-0.057
-192.217	2.312	0.195	0.140
-191.202	-87.779	-0.098	-0.030
-190.187	-41.935	-0.066	0.034
-189.173	296.013	-0.137	0.251
-188.158	-200.000	0.042	-0.323
-187.144	-163.691	0.126	0.006
-186.129	-200.000	0.066	0.000
-185.114	-200.000	0.087	-0.524
-184.100	-200.000	0.004	-0.088
-183.085	-27.994	0.268	-0.155
-182.071	-74.021	-0.446	-0.161
-181.056	-1.187	-0.229	-0.161
-180.042	42.395	0.209	0.189
-179.027	-67.148	-0.226	-0.088
-178.012	396.088	0.103	0.213
-176.998	800.000	0.085	0.241
-175.983	-21.702	-0.378	0.229
-174.969	-68.693	-0.283	0.109
-173.954	6.039	-0.099	0.073
-172.939	-81.082	-0.460	0.151
-171.925	-149.637	0.056	0.004
-170.910	-200.000	-0.056	0.302
-169.896	-200.000	0.040	-0.234
-168.881	-145.355	-0.254	0.023
-167.866	771.113	0.042	-0.113
-166.852	280.069	-0.275	0.489
-165.837	374.639	0.015	-0.030
-164.823	101.628	0.122	0.141
-163.808	220.099	0.161	0.257
-162.793	-93.170	0.343	0.095
-161.779	-66.352	-0.140	-0.055
-160.764	31.496	0.352	-0.300
-159.750	-98.555	0.250	0.064
-158.735	-99.831	0.324	0.081
-157.720	509.851	-0.049	0.113
-156.706	800.000	-0.053	0.220
-155.691	-53.702	-0.306	0.139
-154.677	-200.000	0.002	0.054
-153.662	11.444	0.121	-0.092
-152.647	2.998	-0.294	-0.212
-151.633	415.371	-0.118	0.249
-150.618	-200.000	-0.038	0.301
-149.604	-144.429	0.341	-0.031
-148.589	139.719	0.132	0.173
-147.574	-2.447	-0.086	-0.060
-146.560	409.120	0.194	-0.408
-145.545	172.945	0.139	0.199
-144.531	-200.000	0.048	-0.233
-143.516	-76.643	-0.320	0.111
-142.502	-47.331	-0.261	0.126
-141.487	450.103	0.076	0.166
-140.472	34.140	-0.084	-0.072
-139.458	305.250	-0.052	-0.096
-138.443	-24.039	0.253	-0.150
-137.429	86.869	-0.082	-0.090
-136.414	800.000	0.107	-0.321
-135.399	82.342	-0.155	0.167
-134.385	212.393	-0.099	0.154
-133.370	181.834	-0.104	-0.152
-132.356	92.946	0.321	-0.360
-131.341	-145.080	0.109	-0.010
-130.326	-25.545	-0.048	-0.028
-129.312	62.695	-0.306	0.303
-128.297	80.095	0.286	0.306
-127.283	800.000	-0.034	-0.117
-126.268	147.616	0.161	0.215
-125.253	800.000	-0.147	0.404
-124.239	-138.074	-0.142	-0.016
-123.224	-30.114	0.093	0.053
-122.210	-139.638	-0.031	-0.003
-121.195	-104.428	0.212	0.049
-120.180	-149.666	-0.227	0.018
-119.166	101.181	-0.224	0.258
-118.151	-11.676	-0.313	0.204
-117.137	-200.000	-0.009	-0.153
-116.122	800.000	-0.037	0.129
-115.107	-137.181	0.159	-0.018
-114.093	800.000	0.041	-0.115
-113.078	-200.000	0.017	-0.188
-112.064	26.637	0.152	-0.126
-111.049	261.381	0.123	-0.211
-110.034	-145.918	-0.519	0.046
-109.020	38.414	-0.077	0.068
-108.005	105.428	0.133	-0.155
-106.991	-8.663	0.085	0.057
-105.976	191.091	-0.133	0.198
-104.962	-200.000	-0.017	0.219
-103.947	26.227	-0.077	-0.063
-102.932	289.598	0.108	-0.194
-101.918	-39.036	-0.031	0.016
-100.903	62.022	-0.156	0.155
-99.889	-200.000	0.013	0.161
-98.874	-97.906	-0.335	-0.086
-97.859	-86.793	-0.149	0.045
-96.845	-1.291	0.261	0.183
-95.830	-62.688	-0.290	0.119
-94.816	466.915	0.053	0.119
-93.801	-151.189	-0.471	-0.035
-92.786	-98.038	0.169	0.043
-91.772	-129.763	0.052	0.007
-90.757	646.775	0.191	0.484
-89.743	-109.545	0.119	-0.025
-88.728	-200.000	-0.008	0.315
-87.713	-200.000	0.066	-0.466
-86.699	-78.575	0.259	0.088
-85.684	611.409	-0.140	0.346
-84.670	-200.000	0.041	0.307
-83.655	-200.000	-0.019	0.134
-82.640	-66.594	-0.266	0.104
-81.626	18.387	-0.086	0.068
-80.611	-40.517	0.216	0.111
-79.597	-155.302	0.313	-0.020
-78.582	800.000	-0.074	0.255
-77.567	-177.364	0.304	-0.007
-76.553	-134.456	0.321	0.039
-75.538	-200.000	-0.018	0.279
-74.524	33.151	0.126	-0.109
-73.509	65.823	-0.223	-0.224
-72.494	-68.724	-0.018	0.007
-71.480	800.000	-0.049	-0.166
-70.465	800.000	-0.068	0.207
-69.451	293.238	0.110	-0.198
-68.436	-25.757	0.086	0.050
-67.422	242.480	-0.053	-0.087
-66.407	-12.655	0.098	-0.063
-65.392	443.589	0.086	0.187
-64.378	800.000	-0.049	0.145
-63.363	-53.472	0.172	-0.078
-62.349	-163.147	0.340	-0.016
-61.334	65.063	-0.791	-0.791
-60.319	94.360	0.323	0.363
-59.305	800.000	-0.349	-0.989
-58.290	228.214	0.671	1.082
-57.276	800.000	0.314	1.273
-56.261	-200.000	95.366	593.923
-55.246	642.294	1370.465	3457.261
-54.232	195.388	2554.085	3841.847
-53.217	109.369	2301.198	2727.781
-52.203	38.546	2064.928	1822.768
-51.188	33.668	1980.514	1704.492
-50.173	32.165	1961.821	1674.951
-49.159	46.973	2010.850	1850.787
-48.144	48.325	2029.209	1879.824
-47.130	34.305	1991.572	1719.494
-46.115	31.957	1980.931	1689.123
-45.100	31.873	1978.404	1686.151
-44.086	31.774	1975.754	1682.937
-43.071	31.708	1972.947	1679.883
-42.057	31.767	1971.150	1678.819
-41.042	31.756	1968.741	1676.602
-40.027	31.868	1966.630	1675.738
-39.013	31.813	1965.382	1674.119
-37.998	31.852	1963.736	1672.998
-36.984	31.881	1961.781	1671.525
-35.969	31.901	1959.567	1669.743
-34.954	31.887	1958.133	1668.336
-33.940	31.906	1956.538	1667.081
-32.925	32.025	1954.470	1666.309
-31.911	31.999	1953.052	1664.796
-30.896	31.944	1951.605	1663.010
-29.881	31.985	1949.606	1661.610
-28.867	32.055	1948.059	1660.842
-27.852	32.083	1946.339	1659.561
-26.838	32.018	1944.262	1657.148
-25.823	31.957	1942.659	1655.177
-24.809	31.933	1940.960	1653.451
-23.794	31.943	1939.438	1652.178
-22.779	31.924	1937.429	1650.236
-21.765	31.904	1935.747	1648.559
-20.750	31.938	1934.121	1647.404
-19.736	32.009	1932.326	1646.432
-18.721	31.920	1931.215	1644.643
-17.706	31.892	1929.923	1643.229
-16.692	31.916	1927.828	1641.592
-15.677	31.946	1926.355	1640.533
-14.663	31.960	1924.520	1639.028
-13.648	31.946	1923.778	1638.208
-12.633	31.979	1922.711	1637.522
-11.619	31.941	1921.435	1636.039
-10.604	31.962	1919.894	1634.850
-9.590	31.966	1918.495	1633.631
-8.575	31.911	1916.713	1631.564
-7.560	31.914	1916.294	1631.172
-6.546	31.966	1914.210	1629.781
-5.531	31.932	1913.166	1628.540
-4.517	31.938	1912.411	1627.881
-3.502	31.930	1910.652	1626.251
-2.487	31.884	1909.977	1625.214
-1.473	31.957	1908.683	1624.678
-0.458	32.033	1903.564	1620.912
0.556	31.182	1884.359	1593.772
1.571	26.980	1865.753	1542.287
2.586	23.056	1888.185	1526.880
3.600	22.110	1924.023	1547.396
4.615	21.593	1917.693	1537.628
5.629	16.671	1817.685	1416.235
6.644	8.532	1701.064	1261.286
7.659	4.865	1666.097	1206.877
8.673	4.577	1662.976	1202.285
9.688	4.523	1661.655	1200.805
10.702	4.487	1660.418	1199.523
11.717	4.483	1657.091	1196.983
12.731	4.943	1656.436	1199.944
13.746	10.242	1669.108	1250.039
14.761	17.268	1684.003	1315.652
15.775	19.320	1686.130	1333.085
16.790	18.560	1683.351	1324.898
17.804	17.527	1680.159	1314.299
18.819	16.496	1677.009	1303.771
19.834	15.808	1674.298	1296.256
20.848	15.445	1673.305	1292.572
21.863	15.307	1671.380	1289.909
22.877	15.123	1669.852	1287.202
23.892	14.886	1668.244	1284.031
24.907	14.749	1667.375	1282.199
25.921	14.862	1665.602	1281.584
26.936	14.757	1665.218	1280.372
27.950	14.816	1664.258	1279.973
28.965	14.868	1663.824	1279.925
29.980	14.949	1662.793	1279.635
30.994	14.941	1662.070	1278.903
32.009	15.051	1661.005	1278.814
33.023	15.109	1660.128	1278.466
34.038	15.169	1659.023	1277.966
35.053	15.130	1657.790	1276.605
36.067	15.058	1656.357	1274.834
37.082	14.984	1655.631	1273.606
38.096	14.980	1654.737	1272.771
39.111	15.036	1653.905	1272.442
40.126	15.059	1653.191	1271.956
41.140	15.068	1651.778	1270.826
42.155	14.913	1650.526	1268.577
43.169	14.770	1648.787	1266.046
44.184	14.737	1647.964	1265.049
45.199	14.672	1646.624	1263.417
46.213	14.684	1645.573	1262.587
47.228	14.671	1644.564	1261.602
48.242	14.873	1643.205	1261.972
49.257	14.911	1642.095	1261.295
50.271	14.900	1641.148	1260.376
51.286	14.926	1639.576	1259.254
52.301	14.931	1638.337	1258.229
53.315	15.000	1636.732	1257.399
54.330	14.895	1635.323	1255.423
55.344	14.793	1633.897	1253.446
56.359	14.798	1632.322	1252.170
57.374	14.723	1631.592	1250.932
58.388	14.792	1630.505	1250.507
59.403	14.770	1628.702	1248.853
60.417	14.644	1627.762	1247.074
61.432	14.766	1626.658	1247.032
62.447	14.709	1625.538	1245.640
63.461	14.670	1624.247	1244.246
64.476	14.572	1623.157	1242.570
65.490	14.486	1622.221	1241.107
66.505	14.585	1620.984	1240.788
67.520	14.538	1620.296	1239.798
68.534	14.601	1619.048	1239.203
69.549	14.610	1618.096	1238.430
70.563	14.703	1616.451	1237.752
71.578	14.694	1615.293	1236.687
72.593	14.574	1614.345	1234.970
73.607	14.563	1613.667	1234.258
74.622	14.463	1612.463	1232.489
75.636	14.523	1611.197	1231.850
76.651	14.479	1610.802	1231.119
77.666	14.480	1609.802	1230.250
78.680	14.583	1608.519	1229.924
79.695	14.585	1608.008	1229.438
80.709	14.649	1606.736	1228.830
81.724	14.592	1606.497	1228.115
82.739	14.638	1605.586	1227.646
83.753	14.839	1604.702	1228.345
84.768	14.832	1603.521	1227.279
85.782	14.883	1603.076	1227.201
86.797	14.961	1602.487	1227.212
87.812	14.999	1601.199	1226.403
88.826	14.965	1599.931	1225.069
89.841	14.887	1598.822	1223.541
90.855	14.885	1597.967	1222.764
91.870	14.957	1596.339	1221.938
92.884	15.004	1595.673	1221.662
93.899	14.986	1594.818	1220.767
94.914	14.987	1593.201	1219.430
95.928	15.068	1592.236	1219.173
96.943	15.124	1590.878	1218.436
97.957	15.050	1589.830	1216.982
98.972	14.971	1588.136	1215.005
99.987	14.980	1586.574	1213.767
101.001	14.918	1585.191	1212.158
102.016	14.905	1583.593	1210.735
103.030	14.959	1582.668	1210.307
104.045	14.989	1580.890	1209.056
105.060	14.978	1579.801	1208.040
106.074	14.931	1578.881	1206.889
107.089	14.856	1576.626	1204.515
108.103	14.684	1575.262	1202.130
109.118	14.623	1573.713	1200.406
110.133	14.615	1572.558	1199.357
111.147	14.625	1571.126	1198.234
112.162	14.640	1569.485	1196.985
113.176	14.757	1567.960	1196.554
114.191	14.715	1566.855	1195.304
115.206	14.756	1565.318	1194.317
116.220	14.693	1564.423	1193.079
117.235	14.730	1563.142	1192.259
118.249	14.708	1561.771	1190.955
119.264	14.684	1560.509	1189.715
120.279	14.730	1558.533	1188.428
121.293	14.736	1557.319	1187.440
122.308	14.670	1556.177	1185.995
123.322	14.694	1554.076	1184.463
124.337	14.530	1553.531	1182.780
125.352	14.592	1551.783	1181.784
126.366	14.507	1550.551	1180.138
127.381	14.593	1549.494	1179.836
128.395	14.592	1548.404	1178.896
129.410	14.587	1547.414	1177.999
130.424	14.633	1545.944	1177.104
131.439	14.634	1544.657	1176.024
132.454	14.670	1543.408	1175.227
133.468	14.769	1542.013	1174.756
134.483	14.741	1540.530	1173.326
135.497	14.810	1538.916	1172.475
136.512	14.752	1537.707	1171.046
137.527	14.765	1536.696	1170.258
138.541	14.757	1535.361	1169.082
139.556	14.803	1534.294	1168.490
140.570	14.843	1532.819	1167.546
141.585	14.867	1531.754	1166.795
142.600	14.936	1530.187	1165.983
143.614	15.009	1528.936	1165.431
144.629	15.039	1527.730	1164.619
145.643	15.173	1526.556	1164.549
146.658	15.162	1524.751	1162.994
147.673	15.058	1523.681	1161.354
148.687	14.967	1522.481	1159.710
149.702	14.964	1520.741	1158.255
150.716	14.923	1518.958	1156.516
151.731	14.862	1518.165	1155.390
152.746	14.849	1516.559	1153.970
153.760	14.880	1515.567	1153.330
154.775	14.902	1514.011	1152.192
155.789	14.951	1512.881	1151.569
156.804	14.987	1511.700	1150.815
157.819	15.027	1510.402	1150.000
158.833	15.081	1509.501	1149.586
159.848	15.192	1507.924	1149.041
160.862	15.117	1507.485	1148.096
161.877	15.212	1506.195	1147.661
162.892	15.143	1504.385	1145.705
163.906	15.056	1503.022	1143.971
164.921	14.980	1502.135	1142.680
165.935	14.965	1500.988	1141.600
166.950	15.051	1500.287	1141.554
167.964	15.081	1498.993	1140.675
168.979	15.086	1497.752	1139.659
169.994	15.103	1496.880	1139.014
171.008	15.059	1496.003	1137.947
172.023	14.972	1495.174	1136.623
173.037	15.041	1493.835	1135.974
174.052	15.250	1492.099	1135.972
175.067	15.318	1491.344	1135.757
176.081	15.118	1490.186	1133.420
177.096	15.087	1488.954	1132.170
178.110	14.921	1487.922	1130.166
179.125	15.035	1487.033	1130.161
180.140	15.150	1485.380	1129.577
181.154	15.149	1484.675	1128.939
182.169	15.218	1483.468	1128.381
183.183	15.241	1482.188	1127.464
184.198	15.271	1481.401	1126.965
185.213	15.324	1480.477	1126.525
186.227	15.403	1479.517	1126.222
187.242	15.418	1478.119	1125.158
188.256	15.405	1477.025	1124.136
189.271	15.431	1476.158	1123.555
190.286	15.487	1475.150	1123.061
191.300	15.412	1474.109	1121.666
192.315	15.299	1472.093	1119.279
193.329	15.104	1471.055	1117.088
194.344	15.077	1470.057	1116.057
195.359	15.067	1469.464	1115.439
196.373	15.201	1468.262	1115.320
197.388	15.312	1467.367	1115.281
198.402	15.425	1465.983	1114.883
199.417	15.432	1465.102	1114.159
200.432	15.510	1464.687	1114.263
201.446	15.655	1463.400	1114.145
202.461	15.640	1462.515	1113.271
203.475	15.662	1461.344	1112.429
204.490	15.753	1460.539	1112.320
205.504	15.639	1459.511	1110.688
206.519	15.560	1458.211	1109.074
207.534	15.605	1457.020	1108.370
208.548	15.587	1455.885	1107.289
209.563	15.403	1455.640	1105.790
210.577	15.493	1454.191	1105.187
211.592	15.505	1452.705	1104.036
212.607	15.593	1452.273	1104.190
213.621	15.744	1451.631	1104.595
214.636	15.787	1450.588	1103.984
215.650	15.684	1449.774	1102.592
216.665	15.720	1449.039	1102.171
217.680	15.780	1448.143	1101.787
218.694	15.754	1447.755	1101.223
219.709	15.873	1446.693	1101.097
220.723	15.860	1445.482	1099.992
221.738	15.799	1444.585	1098.815
222.753	15.930	1443.241	1098.548
223.767	15.874	1442.657	1097.640
224.782	15.854	1441.933	1096.864
225.796	15.912	1441.122	1096.526
226.811	15.910	1440.021	1095.583
227.826	15.980	1439.242	1095.347
228.840	15.917	1438.369	1094.175
229.855	15.995	1436.907	1093.473
230.869	15.901	1436.275	1092.284
231.884	15.956	1434.977	1091.555
232.899	15.978	1434.118	1090.952
233.913	15.778	1433.181	1088.846
234.928	15.734	1432.077	1087.628
235.942	15.751	1430.448	1086.403
236.957	15.674	1429.606	1085.172
237.972	15.779	1428.208	1084.692
238.986	15.778	1427.550	1084.090
240.001	15.716	1426.930	1083.123
241.015	15.881	1425.522	1083.017
242.030	15.865	1424.164	1081.787
243.045	15.992	1423.185	1081.767
244.059	15.958	1422.682	1081.069
245.074	15.912	1422.143	1080.267
246.088	16.090	1421.104	1080.525
247.103	15.976	1420.515	1079.252
248.117	16.074	1419.583	1079.076
249.132	16.144	1418.815	1078.841
250.147	16.186	1418.249	1078.587
251.161	16.329	1417.813	1079.071
252.176	16.435	1416.835	1078.911
253.190	16.419	1416.085	1078.139
254.205	16.475	1415.134	1077.678
255.220	16.543	1414.639	1077.637
256.234	16.574	1414.100	1077.329
257.249	16.525	1412.829	1075.956
258.263	16.582	1411.814	1075.450
259.278	16.579	1411.287	1074.935
260.293	16.595	1409.938	1073.916
261.307	16.675	1409.193	1073.756
262.322	16.616	1408.876	1073.048
263.336	16.694	1408.011	1072.787
264.351	16.753	1406.736	1072.093
265.366	16.727	1406.149	1071.389
266.380	16.760	1405.076	1070.684
267.395	16.752	1404.019	1069.734
268.409	16.782	1402.917	1068.992
269.424	16.667	1402.072	1067.526
270.439	16.662	1400.997	1066.579
271.453	16.638	1399.931	1065.527
272.468	16.644	1398.918	1064.699
273.482	16.600	1398.468	1063.981
274.497	16.579	1397.742	1063.206
275.512	16.593	1397.070	1062.685
276.526	16.659	1395.992	1062.185
277.541	16.621	1395.079	1061.160
278.555	16.639	1393.851	1060.243
279.570	16.658	1393.255	1059.817
280.585	16.752	1392.024	1059.375
281.599	16.814	1391.176	1059.021
282.614	16.820	1390.769	1058.657
283.628	16.901	1389.214	1057.883
284.643	16.870	1388.011	1056.680
285.657	16.805	1387.396	1055.715
286.672	16.707	1386.791	1054.553
287.687	16.804	1385.152	1053.815
288.701	16.819	1384.252	1053.132
289.716	16.702	1383.654	1051.858
290.730	16.785	1383.120	1051.875
291.745	16.917	1381.830	1051.614
292.760	16.820	1381.250	1050.478
293.774	16.855	1380.129	1049.754
294.789	16.918	1378.730	1048.984
295.803	17.061	1378.308	1049.454
296.818	16.967	1377.920	1048.483
297.833	17.042	1376.399	1047.698
298.847	16.957	1375.269	1046.225
299.862	16.901	1374.347	1045.083
300.876	16.954	1373.933	1045.003
301.891	17.012	1372.894	1044.475
302.906	16.937	1372.077	1043.304
303.920	17.095	1371.348	1043.622
304.935	17.165	1370.246	1043.125
305.949	17.093	1369.858	1042.295
306.964	17.145	1368.915	1041.805
307.979	17.322	1368.178	1042.238
308.993	17.238	1367.560	1041.159
310.008	17.107	1366.528	1039.481
311.022	17.193	1365.236	1038.931
312.037	17.183	1364.415	1038.154
313.052	17.332	1363.248	1038.081
314.066	17.152	1362.362	1036.220
315.081	17.131	1361.007	1034.966
316.095	17.236	1359.535	1034.395
317.110	17.038	1359.314	1032.929
318.125	17.115	1358.202	1032.461
319.139	17.184	1356.940	1031.831
320.154	17.172	1356.083	1031.015
321.168	17.171	1355.398	1030.395
322.183	17.198	1354.294	1029.631
323.197	17.154	1353.298	1028.517
324.212	17.272	1352.500	1028.535
325.227	17.259	1351.738	1027.784
326.241	17.178	1350.707	1026.420
327.256	17.271	1350.130	1026.449
328.270	17.312	1349.131	1025.851
329.285	17.192	1348.373	1024.455
330.300	17.301	1347.144	1024.090
331.314	17.222	1346.488	1023.024
332.329	17.226	1345.680	1022.345
333.343	17.411	1344.433	1022.417
334.358	17.370	1343.799	1021.597
335.373	17.277	1343.509	1020.730
336.387	17.397	1342.170	1020.340
337.402	17.575	1341.180	1020.564
338.416	17.376	1340.794	1018.989
339.431	17.475	1340.118	1018.980
340.446	17.516	1339.456	1018.633
341.460	17.518	1338.162	1017.569
342.475	17.682	1337.549	1017.993
343.489	17.599	1337.178	1017.126
344.504	17.653	1336.244	1016.647
345.519	17.691	1335.116	1015.924
346.533	17.803	1333.794	1015.493
347.548	17.767	1333.286	1014.801
348.562	17.809	1332.647	1014.480
349.577	17.868	1331.696	1014.016
350.592	17.755	1330.907	1012.653
351.606	17.789	1330.188	1012.219
352.621	17.646	1328.775	1010.202
353.635	17.590	1327.578	1008.874
354.650	17.691	1326.753	1008.754
355.665	17.689	1325.627	1007.796
356.679	17.732	1324.637	1007.209
357.694	17.653	1324.134	1006.272
358.708	17.695	1322.879	1005.480
359.723	17.741	1322.220	1005.160
360.738	17.871	1320.495	1004.524
361.752	17.766	1320.052	1003.483
362.767	17.862	1318.932	1003.103
363.781	17.870	1317.994	1002.350
364.796	17.812	1317.291	1001.388
365.810	17.881	1316.619	1001.193
366.825	18.023	1316.015	1001.473
367.840	17.944	1315.153	1000.267
368.854	17.953	1314.806	999.968
369.869	18.071	1314.650	1000.453
370.883	18.172	1313.537	1000.107
371.898	18.142	1312.965	999.408
372.913	18.093	1311.719	998.084
373.927	18.113	1310.772	997.392
374.942	18.159	1310.169	997.111
375.956	18.090	1309.507	996.117
376.971	18.149	1308.638	995.715
377.986	18.136	1307.842	994.944
379.000	18.175	1306.960	994.414
380.015	18.181	1306.268	993.834
381.029	18.263	1305.380	993.546
382.044	18.373	1304.765	993.629
383.059	18.283	1304.248	992.623
384.073	18.376	1303.582	992.570
385.088	18.369	1302.531	991.642
386.102	18.353	1302.105	991.134
387.117	18.384	1301.217	990.552
388.132	18.362	1300.587	989.853
389.146	18.200	1299.553	988.045
390.161	18.291	1298.505	987.685
391.175	18.182	1297.841	986.465
392.190	18.259	1297.137	986.289
393.205	18.264	1296.395	985.662
394.219	18.483	1295.228	985.952
395.234	18.410	1294.418	984.825
396.248	18.368	1292.924	983.363
397.263	18.341	1291.102	981.736
398.278	18.370	1289.791	980.814
399.292	18.306	1288.860	979.653
400.307	18.305	1288.031	978.931
401.321	18.305	1287.014	978.070
402.336	18.127	1286.261	976.399
403.350	18.196	1284.987	975.739
404.365	18.331	1283.791	975.512
405.380	18.335	1283.010	974.857
406.394	18.376	1282.104	974.314
407.409	18.411	1281.767	974.171
408.423	18.364	1281.130	973.331
409.438	18.535	1280.596	973.813
410.453	18.587	1279.701	973.341
411.467	18.645	1279.046	973.085
412.482	18.690	1278.357	972.733
413.496	18.702	1277.758	972.259
414.511	18.736	1276.810	971.644
415.526	18.757	1276.113	971.142
416.540	18.788	1275.722	970.935
417.555	18.815	1275.317	970.694
418.569	18.769	1274.515	969.739
419.584	18.862	1273.940	969.739
420.599	18.824	1273.506	969.110
421.613	140.147	1431.985	1794.487
422.628	134.767	1455.038	1794.568
