DTS Sentinel unit serial number:	SN413079Multiplexer serial number:	ORYXHardware model number:	OX4-SRSoftware version number:	ORYX F/W v4.00 Oryx Data Collector v3.7.2.0data status	okinstallation	princeton_trtdifferential loss correction	single-endedforward channel	channel 4reverse channel	N/Adate	2019/09/14time	00:45:35forward acquisition time	60.00reverse acquisition time	0.00gamma	496.2192k internal	0.2324k external	0.2324temperature offset calibration	1.0130default loss term (dB/km)	0.3790temperature slope calibration	1.0000multiplexer offset coefficient	1.0000multiplexer slope coefficient	1.0000fibre end	0.00T internal ref (°C)	26.42T ext. ref 1 (°C)	3.17T ext. ref 2 (°C)	21.09length (m)	temperature (°C)	Stokes	anti-Stokes-747.200	181.049	0.306	0.454
-746.185	-18.392	-0.198	0.125
-745.171	-140.675	-0.273	0.028
-744.156	-163.165	-0.343	0.017
-743.142	-159.187	-0.151	-0.009
-742.127	-49.240	-0.218	0.105
-741.112	-99.289	-0.278	0.071
-740.098	-200.000	-0.018	0.362
-739.083	-200.000	-0.019	0.297
-738.069	41.380	-0.308	0.281
-737.054	800.000	0.055	0.197
-736.039	94.898	-0.153	0.176
-735.025	-41.958	-0.231	0.119
-734.010	-64.674	-0.520	0.213
-732.996	168.030	-0.142	-0.204
-731.981	-116.596	-0.070	0.013
-730.966	-200.000	0.010	-0.294
-729.952	239.129	-0.209	-0.350
-728.937	172.817	-0.102	0.149
-727.923	516.209	-0.190	-0.447
-726.908	-87.685	-0.300	-0.091
-725.894	340.864	0.151	-0.298
-724.879	-200.000	0.003	-0.476
-723.864	96.833	0.175	-0.202
-722.850	800.000	0.101	-0.320
-721.835	-136.578	-0.530	-0.062
-720.821	-200.000	-0.041	-0.212
-719.806	-200.000	0.034	-0.251
-718.791	800.000	0.100	0.300
-717.777	11.933	-0.318	-0.247
-716.762	9.714	-0.207	0.158
-715.748	732.975	-0.084	0.227
-714.733	356.380	-0.038	-0.076
-713.718	278.130	0.068	-0.122
-712.704	212.188	-0.096	-0.153
-711.689	17.834	0.225	-0.181
-710.675	-118.337	-0.231	-0.041
-709.660	1.981	-0.268	0.195
-708.645	-14.355	-0.183	0.119
-707.631	-16.602	0.162	0.103
-706.616	15.228	-0.192	-0.152
-705.602	-68.075	-0.124	-0.049
-704.587	-14.696	-0.156	0.101
-703.572	-9.721	-0.233	0.156
-702.558	800.000	0.040	-0.119
-701.543	-74.411	-0.158	0.058
-700.529	75.989	0.086	-0.092
-699.514	98.475	-0.223	-0.259
-698.499	800.000	-0.033	-0.123
-697.485	-26.327	0.102	-0.061
-696.470	-200.000	-0.015	0.504
-695.456	269.135	0.134	-0.237
-694.441	-106.178	-0.226	0.051
-693.426	-177.333	0.157	0.004
-692.412	662.913	-0.152	0.394
-691.397	-200.000	0.001	-0.168
-690.383	207.002	-0.085	-0.134
-689.368	-21.987	0.195	-0.119
-688.354	-126.603	0.023	-0.003
-687.339	26.367	0.157	0.133
-686.324	-148.222	0.426	-0.035
-685.310	-115.159	0.184	0.035
-684.295	-151.981	-0.141	0.010
-683.281	-33.630	-0.245	0.136
-682.266	-200.000	0.019	-0.248
-681.251	-152.432	-0.495	-0.036
-680.237	757.953	0.196	0.534
-679.222	-36.135	-0.022	0.012
-678.208	149.830	-0.082	0.112
-677.193	160.831	-0.033	0.046
-676.178	800.000	-0.108	0.330
-675.164	-200.000	0.063	-0.480
-674.149	82.255	-0.235	0.257
-673.135	-72.010	0.065	-0.024
-672.120	-200.000	0.023	0.385
-671.105	-200.000	0.048	0.360
-670.091	-1.923	-0.201	0.142
-669.076	22.891	-0.119	-0.098
-668.062	-1.611	-0.183	0.130
-667.047	-105.029	-0.318	0.073
-666.032	142.121	-0.146	0.195
-665.018	-200.000	-0.039	-0.245
-664.003	197.222	0.046	-0.071
-662.989	-200.000	0.044	-0.268
-661.974	-82.211	-0.002	0.001
-660.959	-134.505	-0.186	-0.023
-659.945	800.000	-0.020	-0.066
-658.930	-31.910	-0.036	0.020
-657.916	-107.794	0.055	0.012
-656.901	-200.000	0.009	0.057
-655.886	-42.905	0.003	0.002
-654.872	-179.821	0.053	-0.001
-653.857	62.683	0.188	-0.189
-652.843	-15.375	0.190	-0.122
-651.828	8.684	-0.226	0.171
-650.814	800.000	-0.008	0.033
-649.799	800.000	-0.031	-0.119
-648.784	353.428	-0.125	0.249
-647.770	-6.674	-0.034	0.024
-646.755	800.000	0.083	0.253
-645.741	-75.031	-0.527	-0.190
-644.726	-29.455	0.281	-0.161
-643.711	-200.000	0.020	-0.097
-642.697	92.836	0.228	-0.259
-641.682	-200.000	0.008	-0.151
-640.668	90.367	-0.231	-0.260
-639.653	-36.095	-0.061	-0.033
-638.638	-163.282	0.372	-0.018
-637.624	439.717	0.119	-0.260
-636.609	117.074	-0.032	-0.040
-635.595	-86.537	-0.224	0.069
-634.580	69.955	0.337	0.349
-633.565	-86.427	0.018	-0.005
-632.551	-200.000	-0.024	-0.256
-631.536	-44.008	-0.172	0.087
-630.522	-87.385	-0.087	-0.026
-629.507	-200.000	0.055	-0.328
-628.492	26.943	0.071	0.059
-627.478	-200.000	0.024	0.243
-626.463	-200.000	-0.018	-0.107
-625.449	-92.141	0.334	0.095
-624.434	-200.000	0.003	-0.061
-623.419	34.139	-0.102	-0.089
-622.405	-7.448	0.172	-0.117
-621.390	-144.589	0.109	0.010
-620.376	31.196	0.158	-0.137
-619.361	-200.000	0.003	0.050
-618.346	12.538	-0.329	-0.255
-617.332	122.565	0.161	0.202
-616.317	-82.814	-0.162	-0.052
-615.303	800.000	-0.102	-0.319
-614.288	38.279	0.164	-0.146
-613.273	-80.283	-0.291	0.098
-612.259	-65.250	-0.172	-0.069
-611.244	-149.945	-0.285	-0.022
-610.230	-124.923	0.105	0.016
-609.215	-110.170	0.064	0.013
-608.201	57.215	0.186	-0.182
-607.186	-200.000	0.036	-0.330
-606.171	13.342	0.205	0.159
-605.157	-65.665	0.331	-0.133
-604.142	800.000	-0.164	0.484
-603.128	-111.114	-0.187	-0.039
-602.113	-107.748	0.228	0.050
-601.098	617.438	-0.100	0.251
-600.084	-68.401	-0.073	0.028
-599.069	-94.297	-0.029	0.008
-598.055	126.217	0.067	0.085
-597.040	-31.841	-0.453	-0.255
-596.025	-151.481	0.249	0.019
-595.011	37.734	-0.338	0.302
-593.996	134.426	0.086	-0.112
-592.982	-120.368	-0.106	0.018
-591.967	8.772	0.102	0.077
-590.952	800.000	0.074	-0.324
-589.938	-8.390	0.259	0.175
-588.923	-200.000	0.062	0.376
-587.909	-77.428	0.246	0.086
-586.894	-200.000	0.029	0.000
-585.879	-71.553	-0.367	-0.138
-584.865	-200.000	-0.022	-0.145
-583.850	-200.000	-0.035	0.212
-582.836	100.172	-0.128	-0.148
-581.821	-91.410	0.242	0.069
-580.806	-16.134	-0.289	0.184
-579.792	800.000	-0.128	0.377
-578.777	-57.108	0.195	0.086
-577.763	-127.300	-0.171	0.025
-576.748	-200.000	-0.003	-0.101
-575.733	479.629	0.045	-0.103
-574.719	-200.000	0.029	0.230
-573.704	-79.165	0.251	0.086
-572.690	-70.758	-0.179	-0.068
-571.675	-200.000	0.037	-0.258
-570.661	-200.000	0.028	0.179
-569.646	12.033	-0.022	0.017
-568.631	-9.871	0.094	0.063
-567.617	-33.397	0.188	-0.104
-566.602	-54.381	0.311	0.141
-565.588	-200.000	0.017	-0.092
-564.573	-20.912	0.410	0.252
-563.558	800.000	0.151	-0.464
-562.544	229.267	-0.045	-0.073
-561.529	267.511	-0.042	0.073
-560.515	608.577	0.045	0.112
-559.500	-200.000	0.080	-0.359
-558.485	-200.000	0.019	0.166
-557.471	-200.000	0.029	-0.156
-556.456	-148.257	0.239	0.020
-555.442	-200.000	-0.021	-0.398
-554.427	770.333	0.036	-0.097
-553.412	-20.768	0.213	-0.131
-552.398	108.025	-0.217	0.259
-551.383	412.754	-0.194	0.414
-550.369	-200.000	-0.010	0.121
-549.354	10.719	-0.282	0.216
-548.339	-33.937	-0.162	-0.089
-547.325	-38.181	0.167	-0.089
-546.310	-129.388	0.231	-0.032
-545.296	107.138	0.140	-0.166
-544.281	800.000	0.073	-0.209
-543.266	-146.174	-0.246	0.022
-542.252	-200.000	0.022	-0.209
-541.237	-106.719	0.405	0.090
-540.223	-95.729	-0.423	0.113
-539.208	-200.000	0.002	-0.135
-538.193	-50.694	0.096	-0.045
-537.179	-11.265	-0.125	0.083
-536.164	37.685	-0.118	-0.105
-535.150	-200.000	0.039	-0.286
-534.135	20.814	0.160	0.130
-533.121	-200.000	0.002	-0.026
-532.106	-10.803	-0.106	0.070
-531.091	573.071	-0.064	0.156
-530.077	38.761	0.218	-0.195
-529.062	-200.000	0.029	0.298
-528.048	800.000	-0.144	0.466
-527.033	-26.337	0.366	0.215
-526.018	-5.403	-0.329	0.226
-525.004	69.384	0.074	0.077
-523.989	60.901	0.156	0.155
-522.975	428.225	-0.127	0.275
-521.960	141.229	-0.086	0.114
-520.945	0.020	0.125	0.089
-519.931	141.017	0.206	-0.273
-518.916	-21.580	-0.141	-0.086
-517.902	-200.000	0.029	-0.377
-516.887	-200.000	-0.041	-0.250
-515.872	217.384	0.032	-0.051
-514.858	-200.000	0.004	-0.351
-513.843	-101.822	-0.405	-0.098
-512.829	800.000	0.088	-0.296
-511.814	800.000	-0.031	0.133
-510.799	-200.000	-0.000	-0.135
-509.785	-49.648	-0.254	-0.121
-508.770	-200.000	0.023	0.275
-507.756	-83.353	0.203	0.065
-506.741	-15.298	-0.159	0.101
-505.726	143.955	-0.084	-0.112
-504.712	-200.000	0.037	0.508
-503.697	-20.753	0.148	0.091
-502.683	-25.715	0.145	-0.085
-501.668	142.494	0.149	-0.198
-500.653	800.000	0.045	0.180
-499.639	-118.971	-0.288	0.051
-498.624	-1.123	0.288	-0.204
-497.610	-200.000	0.009	-0.218
-496.595	-78.321	-0.167	0.057
-495.581	800.000	0.052	-0.149
-494.566	-200.000	-0.002	-0.044
-493.551	-92.486	0.221	-0.062
-492.537	136.469	-0.049	-0.064
-491.522	150.513	0.143	-0.194
-490.508	-94.019	-0.241	0.066
-489.493	-144.466	-0.096	0.009
-488.478	-53.461	-0.135	-0.062
-487.464	-53.217	0.076	0.035
-486.449	-15.707	0.109	-0.070
-485.435	-46.248	0.147	-0.072
-484.420	-200.000	-0.102	0.482
-483.405	800.000	0.088	0.310
-482.391	-200.000	0.003	0.149
-481.376	121.204	-0.079	-0.099
-480.362	8.334	-0.202	-0.152
-479.347	-200.000	-0.027	0.156
-478.332	52.370	0.177	0.169
-477.318	-200.000	0.002	0.047
-476.303	362.044	-0.115	-0.230
-475.289	28.262	-0.174	-0.147
-474.274	-30.932	0.079	0.045
-473.259	-13.105	0.072	-0.047
-472.245	-93.097	0.171	0.048
-471.230	-200.000	0.023	0.123
-470.216	-200.000	0.046	-0.251
-469.201	-56.652	0.336	0.148
-468.186	237.879	-0.021	0.035
-467.172	-200.000	-0.014	0.357
-466.157	-147.002	-0.375	-0.032
-465.143	60.474	-0.136	-0.134
-464.128	-200.000	-0.048	-0.253
-463.113	-200.000	-0.049	0.456
-462.099	763.732	-0.099	0.268
-461.084	-39.357	0.244	-0.128
-460.070	500.341	-0.037	0.085
-459.055	470.437	-0.067	-0.151
-458.040	-168.593	-0.428	-0.016
-457.026	150.494	0.138	-0.187
-456.011	-115.167	0.079	0.015
-454.997	151.761	0.155	0.211
-453.982	-155.740	0.347	-0.022
-452.968	-75.838	0.443	-0.157
-451.953	-108.414	-0.383	0.082
-450.938	-151.279	-0.356	-0.027
-449.924	800.000	-0.143	-0.411
-448.909	-200.000	-0.008	-0.050
-447.895	-47.394	0.110	0.053
-446.880	67.188	-0.056	-0.057
-445.865	800.000	-0.048	0.155
-444.851	77.921	-0.113	-0.120
-443.836	-200.000	0.000	-0.147
-442.822	18.369	0.045	-0.036
-441.807	-103.949	0.170	0.040
-440.792	24.707	-0.289	-0.239
-439.778	215.304	-0.136	-0.215
-438.763	-57.807	0.113	0.050
-437.749	233.825	-0.136	0.223
-436.734	135.422	0.160	0.207
-435.719	800.000	-0.009	0.037
-434.705	230.240	0.180	0.293
-433.690	65.262	-0.061	0.062
-432.676	716.688	0.030	0.079
-431.661	800.000	0.024	-0.099
-430.646	-172.236	-0.167	0.005
-429.632	149.665	-0.229	0.310
-428.617	-127.399	-0.290	-0.042
-427.603	265.671	0.145	0.251
-426.588	38.745	0.141	-0.126
-425.573	155.419	-0.105	-0.144
-424.559	-107.571	-0.204	0.044
-423.544	-157.506	0.296	0.018
-422.530	12.528	-0.082	0.063
-421.515	-200.000	0.027	-0.188
-420.500	202.760	-0.105	0.161
-419.486	407.208	0.137	-0.289
-418.471	-200.000	0.006	0.086
-417.457	48.723	-0.158	0.147
-416.442	-24.363	-0.327	0.194
-415.428	120.952	0.026	-0.032
-414.413	258.460	0.054	0.093
-413.398	-49.775	0.184	0.087
-412.384	-162.534	0.217	-0.011
-411.369	-200.000	0.015	0.122
-410.355	-200.000	0.012	-0.078
-409.340	79.508	0.138	0.147
-408.325	800.000	-0.089	-0.294
-407.311	-130.448	-0.401	-0.054
-406.296	-73.648	0.310	-0.112
-405.282	0.778	-0.209	0.149
-404.267	45.770	-0.173	0.159
-403.252	-93.853	0.400	-0.110
-402.238	-47.122	0.306	0.149
-401.223	179.904	-0.203	0.297
-400.209	-68.831	-0.058	-0.022
-399.194	-98.024	0.077	-0.020
-398.179	45.211	-0.135	0.124
-397.165	167.328	0.090	0.128
-396.150	-144.445	0.037	0.003
-395.136	-85.997	-0.362	0.112
-394.121	31.006	0.176	0.150
-393.106	-200.000	-0.027	0.138
-392.092	-87.410	-0.058	0.017
-391.077	582.765	-0.088	-0.215
-390.063	60.680	0.029	0.028
-389.048	25.852	-0.184	-0.152
-388.033	800.000	0.062	-0.258
-387.019	31.121	-0.082	-0.070
-386.004	-23.782	-0.038	0.023
-384.990	11.959	-0.043	0.033
-383.975	353.152	-0.063	0.124
-382.960	-140.519	0.268	0.028
-381.946	97.493	0.081	-0.093
-380.931	-106.587	-0.275	-0.061
-379.917	209.533	0.049	0.076
-378.902	586.035	0.084	-0.205
-377.888	692.329	-0.112	-0.292
-376.873	-200.000	-0.017	-0.273
-375.858	-200.000	-0.029	0.263
-374.844	62.826	0.129	0.128
-373.829	154.476	-0.295	-0.402
-372.815	-200.000	-0.008	0.099
-371.800	-153.912	-0.223	0.015
-370.785	800.000	0.040	0.135
-369.771	-84.741	0.255	-0.080
-368.756	-200.000	0.034	-0.181
-367.742	534.552	0.038	0.089
-366.727	-85.648	0.153	0.047
-365.712	-44.422	0.192	0.096
-364.698	-200.000	0.032	0.180
-363.683	233.781	-0.133	0.217
-362.669	800.000	0.030	0.127
-361.654	81.531	-0.197	-0.212
-360.639	-142.144	-0.169	0.017
-359.625	271.458	0.067	-0.118
-358.610	-200.000	-0.020	0.093
-357.596	184.610	-0.124	-0.183
-356.581	-139.862	-0.520	0.055
-355.566	-200.000	0.043	-0.342
-354.552	-183.403	-0.272	-0.005
-353.537	215.949	-0.079	-0.125
-352.523	-103.239	0.152	0.036
-351.508	-200.000	-0.001	0.060
-350.493	-109.513	0.222	-0.047
-349.479	-100.713	-0.121	0.030
-348.464	-25.021	0.162	0.095
-347.450	540.748	-0.158	0.373
-346.435	-18.106	-0.081	0.050
-345.420	127.263	0.199	-0.251
-344.406	-21.052	-0.222	0.135
-343.391	-200.000	0.025	-0.155
-342.377	-200.000	-0.115	0.000
-341.362	-18.752	0.415	0.257
-340.348	16.700	-0.239	0.188
-339.333	800.000	-0.055	-0.179
-338.318	-200.000	-0.026	-0.248
-337.304	-57.836	0.237	-0.103
-336.289	-200.000	0.009	0.246
-335.275	-97.638	0.157	-0.040
-334.260	-89.229	0.273	0.080
-333.245	-87.661	-0.181	-0.054
-332.231	164.210	0.192	-0.269
-331.216	-159.531	-0.057	0.003
-330.202	35.718	-0.113	-0.099
-329.187	-66.531	0.221	-0.087
-328.172	-200.000	-0.009	0.108
-327.158	17.216	-0.179	0.141
-326.143	800.000	-0.044	-0.139
-325.129	-125.874	0.228	-0.034
-324.114	221.265	0.145	0.232
-323.099	84.729	0.191	0.207
-322.085	-71.596	0.133	-0.049
-321.070	-200.000	0.078	0.410
-320.056	800.000	0.076	-0.264
-319.041	-53.210	0.085	-0.039
-318.026	800.000	0.041	0.122
-317.012	-27.454	0.087	0.050
-315.997	-84.290	0.393	0.124
-314.983	-200.000	-0.212	0.000
-313.968	19.071	-0.374	-0.297
-312.953	-68.521	0.254	0.098
-311.939	143.222	0.082	0.109
-310.924	369.484	0.059	-0.119
-309.910	-9.342	0.350	0.232
-308.895	-200.000	0.011	0.363
-307.880	-110.939	0.083	-0.017
-306.866	800.000	0.071	0.198
-305.851	-93.333	0.237	0.065
-304.837	136.963	-0.186	0.241
-303.822	-200.000	-0.032	0.223
-302.807	-8.669	0.137	0.091
-301.793	-120.094	-0.312	0.053
-300.778	140.064	0.115	0.150
-299.764	-200.000	0.034	0.239
-298.749	231.139	-0.019	-0.031
-297.735	-122.245	-0.290	-0.047
-296.720	-56.599	-0.396	-0.174
-295.705	-41.835	-0.091	-0.046
-294.691	43.602	0.081	-0.074
-293.676	-16.775	0.333	-0.209
-292.662	449.454	-0.058	0.127
-291.647	-200.000	0.014	-0.174
-290.632	-65.669	-0.220	0.087
-289.618	69.044	0.198	-0.201
-288.603	233.820	0.092	0.150
-287.589	122.868	-0.174	0.216
-286.574	-182.524	-0.317	-0.006
-285.559	48.530	0.108	0.101
-284.545	-200.000	0.025	-0.232
-283.530	-146.967	-0.256	-0.022
-282.516	194.040	-0.116	-0.175
-281.501	-200.000	-0.028	0.290
-280.486	800.000	-0.065	0.222
-279.472	672.549	-0.056	0.143
-278.457	-200.000	-0.014	0.425
-277.443	-100.624	0.318	-0.078
-276.428	-103.748	0.134	-0.031
-275.413	-62.114	-0.094	-0.039
-274.399	34.461	-0.102	0.088
-273.384	-31.114	-0.434	-0.242
-272.370	245.787	-0.089	-0.148
-271.355	-64.199	0.075	0.030
-270.340	800.000	0.146	-0.488
-269.326	44.385	0.050	-0.046
-268.311	-200.000	-0.000	-0.034
-267.297	-177.271	-0.406	0.010
-266.282	800.000	0.032	-0.108
-265.267	181.742	-0.033	0.049
-264.253	-200.000	-0.021	0.112
-263.238	204.056	0.157	0.240
-262.224	-65.161	-0.072	0.029
-261.209	308.877	0.074	0.138
-260.195	74.465	0.188	0.196
-259.180	40.936	0.038	0.034
-258.165	-200.000	-0.088	0.383
-257.151	-152.159	0.281	0.020
-256.136	-64.015	0.097	0.039
-255.122	-63.932	-0.131	0.053
-254.107	470.281	-0.127	-0.284
-253.092	60.483	-0.103	0.101
-252.078	-169.441	0.155	-0.006
-251.063	247.070	-0.136	-0.228
-250.049	-110.392	-0.145	0.030
-249.034	-99.852	0.129	-0.032
-248.019	-44.174	0.240	0.119
-247.005	302.955	-0.072	-0.132
-245.990	227.517	0.178	0.287
-244.976	109.271	0.259	0.307
-243.961	43.882	-0.115	-0.104
-242.946	-18.601	-0.150	-0.093
-241.932	800.000	-0.027	-0.077
-240.917	-31.778	-0.358	0.199
-239.903	158.782	-0.198	-0.273
-238.888	355.408	0.104	-0.206
-237.873	-39.175	0.231	0.120
-236.859	-23.717	-0.192	-0.114
-235.844	87.812	0.192	-0.211
-234.830	47.125	-0.182	-0.167
-233.815	72.438	0.195	0.201
-232.800	132.642	0.138	0.176
-231.786	-40.865	-0.097	0.050
-230.771	178.738	0.119	-0.172
-229.757	800.000	-0.018	0.066
-228.742	-62.383	-0.370	-0.152
-227.727	613.265	-0.025	-0.062
-226.713	-104.382	0.211	0.048
-225.698	800.000	-0.117	-0.319
-224.684	-200.000	0.010	-0.261
-223.669	-194.704	0.039	0.000
-222.655	220.635	-0.085	-0.135
-221.640	-200.000	0.013	0.110
-220.625	139.559	-0.119	0.156
-219.611	252.142	0.092	0.156
-218.596	57.830	0.146	0.141
-217.582	-200.000	0.055	-0.276
-216.567	201.985	-0.255	0.389
-215.552	-78.641	-0.135	-0.045
-214.538	-68.125	-0.122	0.047
-213.523	-200.000	-0.013	-0.322
-212.509	800.000	0.020	0.058
-211.494	-17.220	0.205	0.128
-210.479	-200.000	0.050	-0.293
-209.465	-19.425	-0.282	0.173
-208.450	-200.000	-0.098	-0.432
-207.436	-46.438	0.427	0.207
-206.421	-98.006	0.085	0.022
-205.406	800.000	0.136	-0.396
-204.392	800.000	-0.082	-0.298
-203.377	-39.420	0.197	0.102
-202.363	-63.641	0.257	0.104
-201.348	509.970	-0.074	0.171
-200.333	-106.538	-0.130	-0.029
-199.319	-91.766	-0.113	0.032
-198.304	777.061	-0.037	0.100
-197.290	800.000	-0.025	-0.069
-196.275	309.124	-0.026	-0.048
-195.260	-74.922	0.341	-0.121
-194.246	-130.221	0.126	-0.017
-193.231	89.335	-0.096	-0.106
-192.217	13.915	0.221	0.170
-191.202	-20.284	0.046	-0.028
-190.187	656.415	0.077	-0.195
-189.173	-200.000	0.026	0.141
-188.158	-62.223	0.148	-0.061
-187.144	-124.778	-0.207	0.032
-186.129	-127.299	0.337	-0.049
-185.114	-144.263	-0.140	0.013
-184.100	41.789	-0.229	0.205
-183.085	74.202	0.398	-0.413
-182.071	527.776	-0.068	-0.158
-181.056	89.608	-0.155	-0.171
-180.042	52.631	0.145	-0.137
-179.027	174.185	-0.273	0.389
-178.012	-200.000	-0.011	-0.047
-176.998	424.690	0.013	-0.027
-175.983	121.628	-0.259	-0.319
-174.969	144.614	-0.083	0.110
-173.954	-200.000	-0.042	0.244
-172.939	-200.000	-0.025	-0.184
-171.925	-57.221	-0.206	0.090
-170.910	-200.000	-0.022	0.154
-169.896	-39.201	-0.250	-0.130
-168.881	-200.000	-0.014	-0.071
-167.866	121.545	-0.404	-0.497
-166.852	-97.731	0.334	0.085
-165.837	-200.000	0.037	-0.271
-164.823	-125.011	-0.046	-0.007
-163.808	66.810	0.330	0.332
-162.793	-170.881	-0.259	0.009
-161.779	800.000	-0.017	0.073
-160.764	69.045	-0.122	-0.124
-159.750	-200.000	0.034	0.310
-158.735	-32.662	0.388	-0.213
-157.720	252.850	0.033	0.055
-156.706	138.788	-0.108	-0.140
-155.691	-136.492	-0.048	-0.005
-154.677	-118.108	-0.233	0.041
-153.662	-15.208	-0.121	-0.076
-152.647	100.811	0.242	-0.277
-151.633	43.929	-0.079	0.072
-150.618	134.490	0.124	0.158
-149.604	-38.644	-0.052	-0.027
-148.589	-200.000	-0.096	0.430
-147.574	88.423	0.169	0.186
-146.560	-200.000	-0.052	-0.335
-145.545	469.819	0.042	0.093
-144.531	800.000	-0.067	0.234
-143.516	-57.367	-0.217	-0.094
-142.502	-121.913	-0.015	-0.003
-141.487	128.427	-0.066	-0.083
-140.472	49.166	-0.176	0.163
-139.458	-9.562	0.114	-0.075
-138.443	-167.924	-0.188	0.007
-137.429	-21.877	0.224	-0.134
-136.414	105.208	-0.092	0.107
-135.399	-200.000	0.050	-0.258
-134.385	415.262	-0.057	0.119
-133.370	800.000	-0.051	0.185
-132.356	-200.000	-0.056	-0.333
-131.341	-71.938	-0.203	0.074
-130.326	77.620	-0.077	-0.081
-129.312	-112.492	-0.259	0.051
-128.297	-187.972	0.500	-0.006
-127.283	800.000	-0.109	0.375
-126.268	-200.000	0.292	0.000
-125.253	322.299	0.083	-0.157
-124.239	-200.000	0.086	0.376
-123.224	217.484	0.073	0.114
-122.210	-136.412	-0.110	-0.013
-121.195	-33.567	0.080	0.043
-120.180	166.353	-0.174	0.243
-119.166	-200.000	-0.025	0.138
-118.151	-60.661	-0.392	0.164
-117.137	-86.942	0.230	-0.069
-116.122	39.054	-0.270	0.238
-115.107	-23.242	-0.162	-0.096
-114.093	56.445	0.110	0.106
-113.078	-87.351	-0.255	0.076
-112.064	170.523	-0.159	-0.224
-111.049	-200.000	0.018	0.183
-110.034	-56.685	0.206	0.090
-109.020	-70.466	0.544	0.203
-108.005	-200.000	-0.076	-0.000
-106.991	-200.000	0.013	-0.200
-105.976	158.716	0.164	0.224
-104.962	-66.213	-0.031	0.012
-103.947	-111.800	0.227	0.045
-102.932	-76.491	-0.270	0.094
-101.918	800.000	-0.131	0.565
-100.903	-152.473	0.284	0.020
-99.889	-77.985	0.135	-0.046
-98.874	193.398	-0.085	0.127
-97.859	-1.871	0.296	0.205
-96.845	331.082	-0.231	0.438
-95.830	352.174	-0.092	-0.179
-94.816	-200.000	0.023	-0.203
-93.801	128.117	0.029	-0.036
-92.786	-200.000	0.012	-0.059
-91.772	-90.442	0.472	-0.135
-90.757	241.723	0.137	0.226
-89.743	3.679	-0.111	0.080
-88.728	-200.000	-0.029	0.133
-87.713	240.121	-0.159	0.261
-86.699	87.934	0.139	0.152
-85.684	-135.379	0.145	-0.017
-84.670	513.358	0.173	-0.398
-83.655	-137.347	0.133	0.015
-82.640	-200.000	-0.027	0.332
-81.626	709.020	-0.033	0.087
-80.611	-200.000	-0.001	0.152
-79.597	-134.873	0.095	-0.011
-78.582	-129.033	0.377	-0.052
-77.567	-19.306	0.265	-0.162
-76.553	-171.332	-0.622	0.020
-75.538	318.695	0.096	0.178
-74.524	129.789	-0.148	0.186
-73.509	-200.000	-0.032	0.166
-72.494	-200.000	0.031	0.240
-71.480	-43.290	0.167	-0.083
-70.465	21.945	-0.222	-0.178
-69.451	116.252	0.235	0.283
-68.436	-200.000	-0.004	0.290
-67.422	87.684	-0.133	0.145
-66.407	-137.685	-0.303	-0.033
-65.392	355.848	-0.185	-0.362
-64.378	338.348	-0.123	-0.235
-63.363	800.000	0.060	0.228
-62.349	-200.000	0.027	0.231
-61.334	22.797	-1.240	-0.999
-60.319	252.681	0.534	0.894
-59.305	440.690	-0.484	-1.041
-58.290	260.953	0.747	1.270
-57.276	468.631	0.742	1.636
-56.261	-200.000	116.559	643.180
-55.246	490.364	1539.905	3461.503
-54.232	172.520	2717.706	3842.886
-53.217	95.017	2325.548	2601.175
-52.203	32.881	2069.552	1760.576
-51.188	28.276	1985.578	1647.750
-50.173	26.929	1968.196	1621.237
-49.159	43.445	2029.619	1822.386
-48.144	42.474	2043.815	1826.229
-47.130	28.632	2002.741	1664.956
-46.115	26.520	1991.592	1636.548
-45.100	26.369	1989.070	1633.046
-44.086	26.384	1986.542	1631.037
-43.071	26.320	1983.997	1628.314
-42.057	26.203	1982.245	1625.756
-41.042	26.319	1979.899	1624.805
-40.027	26.361	1978.189	1623.717
-39.013	26.326	1976.205	1621.712
-37.998	26.308	1974.819	1620.345
-36.984	26.304	1973.238	1618.954
-35.969	26.332	1970.930	1617.245
-34.954	26.315	1969.796	1616.095
-33.940	26.382	1967.705	1614.918
-32.925	26.423	1966.001	1613.819
-31.911	26.422	1964.702	1612.681
-30.896	26.429	1963.008	1611.286
-29.881	26.446	1961.507	1610.145
-28.867	26.433	1959.778	1608.548
-27.852	26.483	1958.214	1607.644
-26.838	26.506	1956.007	1605.969
-25.823	26.482	1954.501	1604.452
-24.809	26.543	1952.076	1602.946
-23.794	26.485	1950.301	1600.911
-22.779	26.409	1948.657	1598.822
-21.765	26.407	1947.298	1597.623
-20.750	26.466	1945.760	1596.824
-19.736	26.436	1944.449	1595.416
-18.721	26.467	1941.953	1593.585
-17.706	26.498	1940.467	1592.572
-16.692	26.478	1938.958	1591.090
-15.677	26.441	1937.784	1589.746
-14.663	26.382	1936.362	1587.997
-13.648	26.474	1934.960	1587.585
-12.633	26.439	1933.753	1586.231
-11.619	26.337	1932.911	1584.581
-10.604	26.430	1931.196	1583.923
-9.590	26.476	1929.641	1582.988
-8.575	26.453	1928.468	1581.765
-7.560	26.455	1927.059	1580.563
-6.546	26.464	1925.557	1579.347
-5.531	26.442	1924.700	1578.392
-4.517	26.539	1923.203	1577.944
-3.502	26.456	1922.343	1576.452
-2.487	26.502	1920.895	1575.601
-1.473	26.411	1920.128	1574.123
-0.458	26.448	1915.325	1570.445
0.556	27.140	1895.521	1542.406
1.571	22.949	1876.965	1491.865
2.586	19.074	1899.424	1476.402
3.600	18.104	1934.801	1495.287
4.615	17.631	1928.222	1485.952
5.629	13.446	1827.406	1373.480
6.644	6.517	1713.904	1233.969
7.659	3.408	1681.708	1186.772
8.673	3.182	1678.790	1182.875
9.688	3.177	1677.867	1182.077
10.702	3.160	1676.384	1180.797
11.717	3.151	1673.567	1178.638
12.731	3.562	1671.829	1180.457
13.746	8.255	1683.471	1224.654
14.761	15.994	1700.154	1296.449
15.775	19.994	1706.772	1332.215
16.790	20.298	1705.945	1333.785
17.804	19.328	1703.036	1323.952
18.819	18.490	1699.923	1314.985
19.834	17.843	1697.035	1307.679
20.848	17.553	1696.305	1304.781
21.863	17.480	1694.848	1302.983
22.877	17.199	1693.781	1299.900
23.892	17.013	1692.024	1297.017
24.907	17.022	1691.001	1296.182
25.921	17.068	1689.425	1295.209
26.936	16.969	1688.683	1293.773
27.950	17.047	1688.018	1293.741
28.965	17.056	1687.457	1293.265
29.980	17.083	1686.559	1292.667
30.994	17.187	1685.501	1292.537
32.009	17.404	1684.066	1292.972
33.023	17.331	1683.891	1292.168
34.038	17.273	1683.021	1290.945
35.053	17.301	1681.617	1289.964
36.067	17.200	1680.162	1287.969
37.082	17.157	1679.155	1286.762
38.096	17.079	1678.455	1285.518
39.111	17.176	1677.135	1285.124
40.126	17.246	1676.621	1285.150
41.140	17.220	1675.661	1284.107
42.155	17.049	1674.207	1281.585
43.169	16.837	1672.706	1278.724
44.184	16.730	1671.609	1276.966
45.199	16.721	1670.709	1276.099
46.213	16.729	1669.363	1275.013
47.228	16.775	1668.239	1274.388
48.242	16.975	1666.532	1274.477
49.257	17.054	1666.220	1274.719
50.271	17.118	1664.474	1273.746
51.286	17.104	1663.510	1272.796
52.301	17.081	1661.796	1271.197
53.315	17.066	1660.943	1270.320
54.330	17.089	1658.559	1268.560
55.344	16.939	1657.756	1266.713
56.359	16.873	1656.155	1264.881
57.374	16.869	1655.136	1263.964
58.388	16.898	1653.460	1262.790
59.403	16.781	1652.635	1261.175
60.417	16.766	1651.005	1259.706
61.432	16.656	1649.676	1257.765
62.447	16.736	1648.585	1257.414
63.461	16.674	1647.497	1256.012
64.476	16.623	1646.012	1254.392
65.490	16.657	1644.911	1253.691
66.505	16.661	1644.117	1253.009
67.520	16.683	1643.000	1252.209
68.534	16.716	1641.707	1251.354
69.549	16.621	1640.959	1249.972
70.563	16.738	1639.536	1249.643
71.578	16.599	1638.148	1247.449
72.593	16.555	1637.136	1246.247
73.607	16.442	1636.760	1245.014
74.622	16.461	1635.063	1243.751
75.636	16.418	1634.361	1242.796
76.651	16.508	1633.680	1242.825
77.666	16.550	1632.542	1242.163
78.680	16.522	1632.153	1241.545
79.695	16.706	1630.727	1241.706
80.709	16.625	1630.232	1240.621
81.724	16.688	1629.259	1240.233
82.739	16.786	1628.686	1240.408
83.753	16.904	1627.730	1240.433
84.768	17.000	1626.361	1239.977
85.782	17.104	1626.257	1240.547
86.797	17.311	1624.916	1240.929
87.812	17.234	1624.239	1239.737
88.826	17.087	1623.439	1237.946
89.841	17.110	1621.746	1236.714
90.855	17.102	1620.865	1235.873
91.870	17.151	1620.255	1235.657
92.884	17.313	1618.654	1235.505
93.899	17.204	1618.728	1234.663
94.914	17.199	1616.981	1233.181
95.928	17.265	1615.611	1232.508
96.943	17.369	1614.213	1232.084
97.957	17.326	1612.935	1230.687
98.972	17.106	1611.852	1228.158
99.987	17.151	1609.757	1226.784
101.001	17.128	1608.076	1225.227
102.016	17.160	1606.652	1224.263
103.030	17.185	1605.445	1223.416
104.045	17.205	1604.588	1222.801
105.060	17.218	1602.704	1221.348
106.074	17.133	1601.207	1219.486
107.089	16.978	1599.714	1217.131
108.103	16.748	1598.373	1214.354
109.118	16.644	1596.331	1211.952
110.133	16.598	1595.031	1210.530
111.147	16.575	1593.992	1209.465
112.162	16.614	1592.545	1208.543
113.176	16.802	1590.544	1208.258
114.191	16.769	1589.338	1206.997
115.206	16.830	1588.755	1206.881
116.220	16.892	1587.130	1205.980
117.235	16.775	1585.888	1204.105
118.249	16.828	1584.187	1203.079
119.264	16.758	1582.839	1201.450
120.279	16.667	1581.465	1199.657
121.293	16.533	1580.312	1197.727
122.308	16.549	1578.524	1196.382
123.322	16.453	1577.555	1194.865
124.337	16.611	1575.182	1194.075
125.352	16.598	1573.851	1192.868
126.366	16.574	1572.691	1191.711
127.381	16.477	1572.090	1190.469
128.395	16.407	1571.178	1189.181
129.410	16.508	1569.782	1188.733
130.424	16.557	1568.158	1187.739
131.439	16.647	1567.036	1187.419
132.454	16.659	1565.911	1186.540
133.468	16.831	1564.480	1186.555
134.483	16.764	1563.447	1185.202
135.497	16.810	1561.592	1184.014
136.512	16.850	1560.292	1183.198
137.527	16.849	1559.262	1182.306
138.541	16.786	1557.916	1180.740
139.556	16.802	1556.807	1179.912
140.570	16.882	1555.567	1179.418
141.585	17.043	1553.915	1179.187
142.600	17.139	1552.502	1178.675
143.614	17.126	1551.675	1177.848
144.629	17.210	1550.645	1177.550
145.643	17.289	1549.077	1176.803
146.658	17.331	1548.231	1176.343
147.673	17.340	1545.843	1174.484
148.687	17.209	1544.118	1172.169
149.702	17.054	1543.187	1170.291
150.716	16.949	1541.451	1168.146
151.731	16.925	1540.085	1166.841
152.746	16.857	1539.180	1165.588
153.760	16.958	1537.331	1164.775
154.775	17.035	1536.086	1164.261
155.789	17.012	1535.380	1163.461
156.804	17.140	1533.522	1162.826
157.819	17.138	1532.822	1162.183
158.833	17.263	1531.446	1161.887
159.848	17.235	1530.465	1160.853
160.862	17.246	1529.800	1160.320
161.877	17.437	1528.021	1160.170
162.892	17.267	1526.952	1158.099
163.906	17.154	1525.391	1156.044
164.921	17.064	1523.757	1154.089
165.935	17.004	1522.953	1152.970
166.950	16.937	1522.295	1151.917
167.964	17.076	1520.866	1151.678
168.979	17.132	1519.561	1150.968
169.994	17.089	1518.888	1150.058
171.008	17.042	1517.662	1148.717
172.023	17.000	1516.845	1147.708
173.037	17.210	1515.803	1148.240
174.052	17.209	1514.581	1147.203
175.067	17.284	1513.214	1146.573
176.081	17.235	1512.187	1145.361
177.096	17.071	1510.815	1143.120
178.110	17.038	1508.893	1141.339
179.125	17.119	1507.774	1140.937
180.140	17.091	1507.657	1140.560
181.154	17.124	1506.447	1139.765
182.169	17.154	1505.619	1139.238
183.183	17.342	1503.876	1139.082
184.198	17.302	1503.712	1138.588
185.213	17.461	1502.141	1138.362
186.227	17.404	1501.885	1137.686
187.242	17.479	1500.500	1137.034
188.256	17.515	1499.410	1136.349
189.271	17.518	1497.844	1135.082
190.286	17.619	1497.022	1135.029
191.300	17.550	1495.805	1133.547
192.315	17.299	1494.473	1130.772
193.329	17.006	1493.196	1127.756
194.344	17.054	1491.517	1126.707
195.359	17.109	1490.653	1126.322
196.373	17.127	1489.923	1125.786
197.388	17.245	1489.121	1125.866
198.402	17.355	1487.985	1125.632
199.417	17.357	1487.742	1125.362
200.432	17.528	1486.248	1125.261
201.446	17.645	1485.915	1125.688
202.461	17.760	1484.896	1125.569
203.475	17.832	1483.761	1125.087
204.490	17.874	1482.615	1124.396
205.504	17.701	1481.707	1122.472
206.519	17.554	1479.990	1120.099
207.534	17.601	1478.688	1119.328
208.548	17.529	1477.847	1118.114
209.563	17.509	1476.506	1116.874
210.577	17.649	1475.742	1117.112
211.592	17.592	1474.511	1115.709
212.607	17.590	1474.582	1115.650
213.621	17.708	1473.878	1115.795
214.636	17.854	1473.081	1116.046
215.650	17.724	1472.169	1114.408
216.665	17.794	1471.125	1113.973
217.680	17.777	1470.383	1113.203
218.694	17.897	1469.807	1113.453
219.709	18.035	1468.804	1113.495
220.723	17.998	1467.694	1112.313
221.738	18.003	1466.274	1111.168
222.753	17.897	1465.697	1109.945
223.767	17.949	1464.378	1109.186
224.782	17.871	1463.728	1108.085
225.796	17.983	1462.804	1108.017
226.811	18.034	1462.289	1107.862
227.826	18.042	1461.479	1107.202
228.840	18.003	1460.489	1106.100
229.855	17.950	1459.092	1104.598
230.869	17.978	1458.007	1103.864
231.884	17.840	1457.598	1102.563
232.899	17.890	1455.991	1101.572
233.913	17.785	1454.774	1099.881
234.928	17.794	1453.497	1098.870
235.942	17.715	1452.312	1097.373
236.957	17.732	1450.979	1096.379
237.972	17.671	1450.243	1095.331
238.986	17.768	1448.962	1094.890
240.001	17.767	1448.194	1094.209
241.015	17.862	1446.665	1093.566
242.030	17.757	1446.153	1092.406
243.045	17.904	1444.632	1092.102
244.059	17.856	1444.031	1091.244
245.074	17.932	1443.366	1091.128
246.088	17.864	1442.826	1090.188
247.103	18.053	1441.538	1090.325
248.117	18.159	1441.052	1090.541
249.132	18.145	1440.657	1090.056
250.147	18.345	1439.525	1090.377
251.161	18.381	1439.717	1090.656
252.176	18.600	1438.894	1091.328
253.190	18.606	1437.714	1090.376
254.205	18.697	1436.924	1090.258
255.220	18.682	1436.794	1089.967
256.234	18.699	1435.945	1089.333
257.249	18.681	1434.947	1088.367
258.263	18.729	1433.903	1087.780
259.278	18.670	1433.183	1086.765
260.293	18.658	1432.226	1085.870
261.307	18.681	1431.344	1085.250
262.322	18.767	1430.654	1085.170
263.336	18.811	1430.028	1084.881
264.351	18.835	1428.639	1083.884
265.366	18.899	1428.201	1083.859
266.380	18.903	1427.113	1082.961
267.395	18.860	1426.158	1081.870
268.409	18.889	1425.016	1081.091
269.424	18.825	1424.398	1080.125
270.439	18.744	1422.602	1078.157
271.453	18.680	1421.647	1076.937
272.468	18.775	1420.670	1076.693
273.482	18.625	1420.666	1075.658
274.497	18.605	1419.593	1074.626
275.512	18.655	1418.154	1073.754
276.526	18.581	1417.636	1072.800
277.541	18.602	1416.987	1072.346
278.555	18.697	1415.706	1071.874
279.570	18.783	1414.806	1071.637
280.585	18.813	1413.505	1070.742
281.599	18.853	1413.445	1070.853
282.614	18.988	1412.258	1070.697
283.628	18.886	1411.005	1069.020
284.643	18.765	1409.966	1067.386
285.657	18.800	1408.392	1066.319
286.672	18.814	1407.777	1065.845
287.687	18.889	1406.478	1065.234
288.701	18.862	1405.928	1064.555
289.716	18.827	1405.418	1063.854
290.730	18.816	1404.965	1063.349
291.745	18.817	1403.590	1062.224
292.760	18.901	1402.611	1061.907
293.774	18.948	1401.305	1061.117
294.789	18.928	1400.414	1060.224
295.803	19.153	1399.693	1060.966
296.818	19.059	1398.803	1059.620
297.833	19.034	1398.136	1058.871
298.847	18.862	1397.288	1057.076
299.862	18.967	1396.109	1056.738
300.876	18.940	1394.921	1055.574
301.891	18.956	1394.252	1055.075
302.906	19.153	1392.880	1055.153
303.920	19.196	1392.811	1055.269
304.935	19.117	1392.300	1054.307
305.949	19.208	1391.534	1054.187
306.964	19.282	1390.811	1054.000
307.979	19.386	1389.542	1053.580
308.993	19.305	1388.648	1052.316
310.008	19.299	1387.538	1051.343
311.022	19.292	1386.411	1050.355
312.037	19.345	1385.780	1050.106
313.052	19.429	1384.863	1049.830
314.066	19.283	1383.859	1048.088
315.081	19.294	1381.966	1046.626
316.095	19.145	1381.049	1044.938
317.110	19.096	1380.092	1043.822
318.125	19.104	1378.866	1042.851
319.139	19.015	1378.806	1042.173
320.154	19.031	1377.489	1041.181
321.168	19.139	1376.529	1041.020
322.183	19.167	1375.431	1040.269
323.197	19.075	1374.775	1039.125
324.212	19.209	1373.707	1039.029
325.227	19.127	1373.147	1038.018
326.241	19.184	1371.861	1037.303
327.256	19.178	1371.130	1036.623
328.270	19.267	1370.173	1036.339
329.285	19.209	1369.730	1035.563
330.300	19.173	1368.483	1034.313
331.314	19.178	1367.311	1033.369
332.329	19.195	1366.393	1032.685
333.343	19.121	1365.962	1031.824
334.358	19.159	1364.869	1031.136
335.373	19.353	1364.158	1031.666
336.387	19.478	1363.307	1031.679
337.402	19.359	1362.917	1030.583
338.416	19.508	1361.920	1030.623
339.431	19.562	1361.347	1030.421
340.446	19.568	1360.752	1029.919
341.460	19.582	1360.108	1029.423
342.475	19.625	1359.176	1028.883
343.489	19.788	1358.048	1028.908
344.504	19.790	1357.238	1028.211
345.519	19.851	1356.787	1028.141
346.533	19.928	1355.214	1027.315
347.548	19.977	1354.560	1027.023
348.562	19.997	1353.879	1026.534
349.577	19.953	1352.994	1025.512
350.592	19.803	1352.729	1024.329
351.606	19.674	1351.387	1022.458
352.621	19.599	1349.769	1020.703
353.635	19.610	1348.570	1019.772
354.650	19.615	1347.568	1018.954
355.665	19.539	1346.998	1017.982
356.679	19.626	1345.223	1017.066
357.694	19.627	1344.653	1016.546
358.708	19.647	1343.538	1015.736
359.723	19.657	1342.736	1015.097
360.738	19.726	1341.678	1014.611
361.752	19.652	1340.930	1013.524
362.767	19.830	1339.324	1013.260
363.781	19.787	1338.685	1012.436
364.796	19.784	1338.067	1011.862
365.810	19.839	1337.159	1011.410
366.825	19.980	1337.083	1012.085
367.840	20.076	1335.907	1011.667
368.854	20.264	1335.330	1012.233
369.869	20.267	1335.028	1011.933
370.883	20.163	1334.188	1010.603
371.898	20.227	1333.328	1010.234
372.913	20.043	1332.662	1008.566
373.927	20.096	1331.572	1007.964
374.942	20.029	1330.805	1006.905
375.956	20.192	1330.269	1007.356
376.971	20.220	1329.512	1006.858
377.986	20.074	1328.666	1005.278
379.000	20.177	1327.699	1005.059
380.015	20.271	1326.831	1004.853
381.029	20.336	1326.053	1004.553
382.044	20.423	1325.710	1004.708
383.059	20.358	1325.006	1003.710
384.073	20.393	1324.105	1003.138
385.088	20.410	1323.424	1002.633
386.102	20.440	1322.696	1002.168
387.117	20.424	1321.707	1001.233
388.132	20.385	1320.852	1000.277
389.146	20.208	1319.866	998.421
390.161	20.147	1319.180	997.464
391.175	20.116	1318.695	996.830
392.190	20.201	1317.773	996.530
393.205	20.153	1317.024	995.600
394.219	20.290	1316.285	995.743
395.234	20.443	1314.530	995.204
396.248	20.465	1313.283	994.296
397.263	20.376	1311.612	992.436
398.278	20.302	1310.560	991.130
399.292	20.251	1309.413	989.885
400.307	20.102	1308.561	988.300
401.321	20.224	1307.180	987.865
402.336	20.283	1306.115	987.308
403.350	20.226	1305.413	986.369
404.365	20.149	1304.268	984.977
405.380	20.100	1303.719	984.197
406.394	20.208	1303.006	984.185
407.409	20.351	1301.727	983.939
408.423	20.310	1301.583	983.511
409.438	20.488	1301.020	984.011
410.453	20.556	1300.331	983.785
411.467	20.643	1299.571	983.616
412.482	20.719	1299.088	983.591
413.496	20.736	1298.318	983.018
414.511	20.707	1297.891	982.446
415.526	20.835	1296.831	982.279
416.540	20.902	1296.333	982.193
417.555	20.958	1295.538	981.818
418.569	20.982	1295.205	981.614
419.584	20.827	1294.784	980.333
420.599	20.878	1293.841	979.820
421.613	145.701	1435.863	1797.902
422.628	140.749	1456.532	1797.954
