DTS Sentinel unit serial number:	SN413079Multiplexer serial number:	ORYXHardware model number:	OX4-SRSoftware version number:	ORYX F/W v4.00 Oryx Data Collector v3.7.2.0data status	okinstallation	princeton_trtdifferential loss correction	single-endedforward channel	channel 4reverse channel	N/Adate	2019/09/15time	15:37:35forward acquisition time	60.00reverse acquisition time	0.00gamma	496.2192k internal	0.2283k external	0.2283temperature offset calibration	0.9954default loss term (dB/km)	0.3790temperature slope calibration	1.0000multiplexer offset coefficient	1.0000multiplexer slope coefficient	1.0000fibre end	0.00T internal ref (°C)	41.52T ext. ref 1 (°C)	5.15T ext. ref 2 (°C)	39.44length (m)	temperature (°C)	Stokes	anti-Stokes-747.200	11.679	-0.127	-0.100
-746.185	-200.000	0.024	0.144
-745.171	162.784	0.166	-0.239
-744.156	-200.000	-0.008	0.218
-743.142	-88.861	-0.401	0.122
-742.127	-200.000	0.086	0.413
-741.112	74.632	0.045	-0.049
-740.098	80.836	-0.242	0.269
-739.083	-200.000	-0.032	0.241
-738.069	-41.905	-0.095	0.050
-737.054	-64.235	0.089	0.037
-736.039	-200.000	0.002	0.465
-735.025	-200.000	-0.009	-0.139
-734.010	494.806	-0.196	-0.462
-732.996	800.000	0.063	-0.193
-731.981	-74.630	0.397	-0.147
-730.966	-200.000	-0.004	-0.025
-729.952	784.722	-0.081	0.229
-728.937	800.000	-0.160	0.456
-727.923	367.900	-0.052	-0.109
-726.908	193.254	0.289	-0.449
-725.894	213.827	-0.104	0.169
-724.879	703.026	0.026	-0.072
-723.864	63.111	-0.155	0.160
-722.850	-80.995	-0.276	-0.094
-721.835	-18.346	0.396	-0.254
-720.821	-141.480	-0.361	0.037
-719.806	-108.183	0.266	0.059
-718.791	-200.000	-0.020	-0.150
-717.777	-200.000	0.007	-0.056
-716.762	-81.691	-0.293	0.099
-715.748	-129.066	-0.135	0.019
-714.733	610.864	0.044	0.113
-713.718	-72.350	-0.309	0.117
-712.704	-42.199	0.049	0.025
-711.689	98.663	-0.187	0.221
-710.675	-123.607	-0.075	-0.012
-709.660	-71.438	-0.222	0.085
-708.645	122.199	-0.239	-0.307
-707.631	-200.000	-0.029	-0.446
-706.616	127.591	-0.060	-0.079
-705.602	-54.109	-0.155	0.072
-704.587	-51.569	0.215	-0.103
-703.572	-141.614	-0.165	0.017
-702.558	290.289	0.047	0.087
-701.543	-26.310	0.405	0.244
-700.529	-200.000	-0.018	-0.148
-699.514	4.824	0.123	0.093
-698.499	-200.000	0.029	-0.230
-697.485	-125.735	0.144	-0.022
-696.470	105.525	0.151	-0.183
-695.456	114.354	-0.079	-0.099
-694.441	231.205	-0.098	0.165
-693.426	-167.086	-0.199	0.008
-692.412	23.201	0.245	-0.206
-691.397	314.394	-0.072	-0.139
-690.383	-112.993	-0.143	-0.029
-689.368	192.735	-0.061	0.094
-688.354	458.243	-0.143	0.327
-687.339	620.645	-0.130	-0.335
-686.324	-83.917	0.029	0.009
-685.310	-55.075	-0.125	-0.058
-684.295	-6.606	-0.051	0.036
-683.281	-51.098	0.283	-0.136
-682.266	-200.000	0.019	-0.239
-681.251	-98.715	0.044	-0.012
-680.237	-103.193	0.086	-0.021
-679.222	499.500	-0.233	-0.550
-678.208	-132.048	0.104	-0.014
-677.193	-200.000	0.009	-0.204
-676.178	266.181	0.039	0.070
-675.164	776.622	-0.103	-0.288
-674.149	-200.000	0.003	-0.080
-673.135	563.194	0.184	-0.456
-672.120	-200.000	-0.040	0.263
-671.105	196.829	0.024	-0.037
-670.091	337.178	0.067	-0.133
-669.076	207.526	-0.185	0.295
-668.062	18.012	-0.169	0.138
-667.047	-147.048	-0.154	0.014
-666.032	800.000	0.066	-0.278
-665.018	-67.309	0.154	-0.062
-664.003	-200.000	0.003	-0.121
-662.989	16.194	-0.228	0.184
-661.974	258.535	-0.155	0.274
-660.959	-200.000	-0.042	0.215
-659.945	-200.000	0.006	0.092
-658.930	64.430	0.080	0.082
-657.916	-83.893	0.055	0.018
-656.901	800.000	-0.142	0.430
-655.886	-200.000	-0.057	0.258
-654.872	-200.000	-0.026	0.284
-653.857	478.943	0.172	0.399
-652.843	711.702	0.126	-0.341
-651.828	-200.000	-0.006	-0.135
-650.814	-136.184	-0.055	-0.007
-649.799	-173.910	0.398	-0.012
-648.784	243.856	-0.132	0.226
-647.770	-149.657	-0.222	0.018
-646.755	-100.242	0.340	-0.087
-645.741	170.837	-0.149	-0.219
-644.726	-113.230	-0.199	-0.040
-643.711	-116.180	0.115	0.022
-642.697	202.717	-0.232	-0.367
-641.682	8.245	-0.145	-0.111
-640.668	-200.000	-0.075	-0.388
-639.653	141.187	0.137	-0.186
-638.638	-200.000	0.007	0.259
-637.624	800.000	-0.090	0.381
-636.609	-185.885	-0.193	-0.003
-635.595	-45.748	0.015	0.007
-634.580	-12.825	-0.262	0.175
-633.565	-20.269	0.144	0.091
-632.551	-85.623	0.166	-0.053
-631.536	-130.531	-0.234	-0.032
-630.522	800.000	0.095	0.295
-629.507	36.137	0.190	0.171
-628.492	295.427	-0.089	-0.167
-627.478	119.555	-0.257	0.326
-626.463	-81.102	-0.211	0.071
-625.449	-25.019	-0.121	-0.073
-624.434	169.770	0.063	-0.091
-623.419	30.098	0.156	-0.136
-622.405	83.844	0.121	-0.135
-621.390	-168.371	0.403	0.016
-620.376	800.000	-0.072	0.292
-619.361	286.314	0.087	-0.161
-618.346	-200.000	0.027	0.282
-617.332	800.000	0.071	-0.232
-616.317	-119.252	0.109	0.019
-615.303	84.667	-0.184	0.206
-614.288	40.966	0.167	0.154
-613.273	310.726	0.022	-0.043
-612.259	-200.000	-0.062	-0.446
-611.244	-19.351	0.080	0.051
-610.230	259.556	0.040	-0.070
-609.215	-76.202	-0.105	0.038
-608.201	800.000	-0.048	-0.136
-607.186	160.846	-0.017	-0.024
-606.171	-43.137	0.024	-0.012
-605.157	187.982	0.266	-0.407
-604.142	-170.065	-0.436	-0.016
-603.128	-160.501	-0.296	-0.016
-602.113	-91.462	0.364	0.106
-601.098	-66.752	-0.051	-0.021
-600.084	207.645	-0.156	-0.249
-599.069	-144.466	-0.272	0.026
-598.055	-96.287	0.175	0.047
-597.040	84.596	0.117	-0.131
-596.025	397.825	-0.120	-0.256
-595.011	-200.000	0.058	-0.267
-593.996	601.408	0.070	-0.177
-592.982	-200.000	-0.010	-0.167
-591.967	-127.537	-0.302	-0.045
-590.952	-118.489	0.242	0.044
-589.938	94.267	0.023	-0.027
-588.923	-85.238	0.112	0.036
-587.909	-79.385	0.091	0.031
-586.894	-78.574	-0.071	-0.025
-585.879	69.269	0.067	-0.070
-584.865	-84.894	0.246	-0.079
-583.850	26.322	0.079	-0.067
-582.836	800.000	0.060	-0.257
-581.821	-200.000	-0.021	-0.189
-580.806	121.111	-0.241	-0.306
-579.792	-159.844	-0.241	0.014
-578.777	800.000	0.055	0.194
-577.763	212.023	-0.085	0.136
-576.748	-200.000	0.019	-0.159
-575.733	-45.429	-0.259	-0.131
-574.719	-76.003	-0.227	-0.082
-573.704	-200.000	0.066	-0.336
-572.690	300.630	0.129	-0.242
-571.675	-99.515	0.123	-0.032
-570.661	141.631	0.196	0.265
-569.646	-158.741	-0.175	-0.010
-568.631	86.078	-0.014	-0.016
-567.617	-52.893	0.124	-0.058
-566.602	-86.601	0.287	0.090
-565.588	800.000	-0.023	0.082
-564.573	800.000	0.079	-0.334
-563.558	-200.000	-0.003	0.385
-562.544	343.121	0.135	0.270
-561.529	11.076	0.097	0.076
-560.515	117.468	0.044	-0.055
-559.500	800.000	-0.069	-0.286
-558.485	180.026	-0.099	0.147
-557.471	-200.000	0.031	0.223
-556.456	-132.302	0.129	0.017
-555.442	28.594	-0.280	-0.242
-554.427	414.298	-0.061	0.133
-553.412	-103.091	0.038	-0.009
-552.398	29.734	-0.264	-0.229
-551.383	133.388	0.031	0.041
-550.369	-0.304	0.303	-0.220
-549.354	-96.788	-0.140	-0.037
-548.339	-50.918	0.075	-0.036
-547.325	-200.000	-0.028	-0.237
-546.310	90.743	-0.112	-0.128
-545.296	-39.501	-0.168	-0.090
-544.281	-200.000	0.044	-0.229
-543.266	155.433	0.086	-0.120
-542.252	-179.221	-0.080	-0.002
-541.237	-73.174	-0.277	-0.103
-540.223	-32.271	0.297	-0.169
-539.208	55.847	-0.038	0.037
-538.193	26.777	0.223	0.191
-537.179	49.044	-0.035	0.033
-536.164	-120.089	0.276	0.048
-535.150	214.982	0.156	-0.252
-534.135	15.362	-0.326	0.260
-533.121	-200.000	0.012	-0.321
-532.106	-135.492	0.062	0.008
-531.091	11.439	0.134	0.105
-530.077	206.536	0.104	0.165
-529.062	335.715	-0.053	-0.105
-528.048	-58.916	-0.168	0.074
-527.033	800.000	-0.032	0.129
-526.018	694.089	-0.036	-0.095
-525.004	-21.406	0.067	-0.041
-523.989	-200.000	0.024	-0.231
-522.975	91.920	0.082	0.094
-521.960	122.261	0.058	0.074
-520.945	-119.067	0.281	-0.050
-519.931	91.079	0.189	-0.216
-518.916	-94.879	-0.125	-0.034
-517.902	-200.000	-0.022	0.153
-516.887	-83.285	-0.162	-0.053
-515.872	-108.421	-0.171	0.038
-514.858	49.917	0.214	0.205
-513.843	94.619	-0.074	0.085
-512.829	-29.397	-0.093	0.054
-511.814	117.671	-0.040	0.050
-510.799	800.000	-0.039	-0.133
-509.785	800.000	-0.030	0.093
-508.770	-200.000	-0.046	0.214
-507.756	91.243	-0.022	-0.026
-506.741	-29.242	-0.113	-0.066
-505.726	-200.000	0.003	0.178
-504.712	-18.724	0.263	0.167
-503.697	-77.596	0.117	-0.041
-502.683	-200.000	-0.002	0.170
-501.668	-200.000	-0.013	0.413
-500.653	800.000	-0.020	0.065
-499.639	-177.515	-0.216	-0.005
-498.624	307.615	0.133	0.253
-497.610	115.927	0.166	-0.207
-496.595	-200.000	0.011	-0.214
-495.581	115.873	-0.162	-0.201
-494.566	13.167	0.107	0.084
-493.551	19.781	0.170	-0.139
-492.537	-142.161	-0.145	-0.015
-491.522	-119.427	-0.342	-0.061
-490.508	-60.528	-0.227	-0.098
-489.493	146.194	-0.216	-0.295
-488.478	-38.722	0.206	0.110
-487.464	-55.447	-0.181	0.083
-486.449	-200.000	-0.033	-0.294
-485.435	-38.526	-0.318	0.171
-484.420	800.000	0.058	0.202
-483.405	-200.000	-0.033	0.216
-482.391	-200.000	-0.017	-0.267
-481.376	-111.599	0.161	0.033
-480.362	-200.000	0.043	0.257
-479.347	-141.308	0.038	0.004
-478.332	-200.000	0.024	0.143
-477.318	620.521	-0.158	0.405
-476.303	14.079	0.120	0.095
-475.289	65.959	0.129	0.133
-474.274	-114.468	0.140	-0.027
-473.259	-146.482	-0.185	0.016
-472.245	-150.184	0.184	-0.015
-471.230	-49.654	0.115	-0.056
-470.216	142.081	-0.286	-0.386
-469.201	612.432	0.118	-0.300
-468.186	-11.855	-0.071	0.047
-467.172	19.735	-0.237	-0.194
-466.157	800.000	-0.016	0.059
-465.143	545.859	-0.112	-0.272
-464.128	-135.619	0.145	-0.017
-463.113	10.591	0.052	0.040
-462.099	800.000	0.041	-0.137
-461.084	685.331	-0.067	-0.178
-460.070	-80.229	0.230	0.078
-459.055	-19.299	-0.070	0.044
-458.040	-96.455	0.241	-0.065
-457.026	17.274	0.213	-0.172
-456.011	324.845	-0.098	-0.190
-454.997	800.000	0.095	-0.348
-453.982	20.256	0.308	0.253
-452.968	76.982	-0.051	0.055
-451.953	701.213	-0.090	-0.240
-450.938	-200.000	-0.002	0.276
-449.924	144.464	-0.051	-0.069
-448.909	66.048	-0.456	-0.470
-447.895	800.000	0.047	0.197
-446.880	161.171	-0.178	0.252
-445.865	-171.467	0.211	0.007
-444.851	2.993	0.336	0.248
-443.836	313.325	0.087	-0.166
-442.822	-129.876	0.069	-0.010
-441.807	-200.000	0.006	-0.128
-440.792	-106.684	-0.062	0.014
-439.778	-32.340	0.110	-0.062
-438.763	-130.844	0.341	-0.046
-437.749	800.000	-0.027	0.090
-436.734	38.176	-0.201	0.182
-435.719	-34.050	-0.311	0.174
-434.705	-85.185	-0.350	0.111
-433.690	57.846	0.359	0.356
-432.676	195.390	0.276	0.426
-431.661	-200.000	0.017	0.182
-430.646	-200.000	0.021	-0.097
-429.632	-74.520	0.053	-0.019
-428.617	146.006	0.125	-0.171
-427.603	800.000	-0.067	-0.242
-426.588	123.075	0.146	0.186
-425.573	-200.000	0.024	-0.157
-424.559	186.841	-0.239	0.362
-423.544	-88.003	0.081	-0.025
-422.530	-115.346	0.285	-0.055
-421.515	534.519	-0.026	0.062
-420.500	415.481	-0.037	0.080
-419.486	329.750	-0.060	-0.118
-418.471	-88.369	-0.220	-0.067
-417.457	-136.702	-0.116	-0.014
-416.442	-51.246	-0.340	-0.161
-415.428	465.151	-0.108	-0.245
-414.413	800.000	-0.087	-0.260
-413.398	-3.131	0.350	0.247
-412.384	-200.000	0.048	-0.276
-411.369	-102.780	-0.176	0.043
-410.355	-200.000	0.012	0.131
-409.340	302.377	0.153	0.288
-408.325	-107.494	0.150	-0.033
-407.311	-16.353	-0.145	-0.093
-406.296	-129.489	0.183	-0.026
-405.282	-37.123	-0.082	0.044
-404.267	-200.000	0.056	0.390
-403.252	800.000	0.110	-0.386
-402.238	179.305	0.110	0.163
-401.223	-200.000	0.021	0.113
-400.209	25.670	0.204	-0.172
-399.194	-35.148	-0.243	0.134
-398.179	-200.000	0.018	-0.263
-397.165	52.585	0.103	-0.100
-396.150	241.348	0.050	0.084
-395.136	-16.292	0.247	-0.159
-394.121	502.683	0.140	0.329
-393.106	371.824	-0.067	0.137
-392.092	383.879	0.073	0.152
-391.077	-200.000	0.024	-0.169
-390.063	329.829	-0.060	0.117
-389.048	-53.904	-0.225	-0.104
-388.033	24.972	-0.141	0.119
-387.019	-46.585	0.085	0.042
-386.004	-137.280	-0.289	-0.033
-384.990	-89.385	0.342	-0.102
-383.975	231.129	0.065	-0.108
-382.960	-126.873	-0.312	0.047
-381.946	79.022	0.076	0.082
-380.931	146.859	0.268	0.365
-379.917	188.808	-0.100	0.152
-378.902	-92.475	0.083	0.024
-377.888	-15.680	0.085	0.055
-376.873	203.556	-0.090	0.141
-375.858	-125.280	0.262	0.041
-374.844	28.805	-0.157	-0.135
-373.829	375.522	-0.154	0.318
-372.815	195.765	0.142	0.219
-371.800	-100.448	-0.100	-0.025
-370.785	-116.260	-0.061	0.011
-369.771	-117.474	0.169	-0.031
-368.756	-135.948	-0.092	0.011
-367.742	156.333	-0.148	-0.207
-366.727	-53.783	-0.302	-0.139
-365.712	800.000	0.095	-0.290
-364.698	-200.000	0.012	0.226
-363.683	737.802	0.089	0.242
-362.669	-45.507	0.126	-0.063
-361.654	20.684	-0.234	-0.192
-360.639	258.526	0.008	-0.013
-359.625	-186.781	0.242	-0.003
-358.610	457.594	-0.235	0.528
-357.596	-97.626	0.066	-0.017
-356.581	203.016	0.160	0.250
-355.566	-67.497	-0.094	0.037
-354.552	-90.310	-0.445	-0.131
-353.537	152.486	0.264	-0.366
-352.523	-117.279	0.215	-0.040
-351.508	-124.424	0.274	0.043
-350.493	800.000	-0.036	0.107
-349.479	-7.266	-0.204	0.140
-348.464	-162.967	0.359	-0.018
-347.450	39.601	-0.063	0.058
-346.435	-115.983	-0.230	0.043
-345.420	-97.453	-0.208	0.055
-344.406	-71.268	-0.189	0.072
-343.391	-26.651	-0.032	0.019
-342.377	-33.325	-0.198	0.111
-341.362	-76.969	-0.072	0.025
-340.348	-144.346	0.090	-0.008
-339.333	158.017	-0.181	0.254
-338.318	70.196	0.140	0.147
-337.304	-200.000	-0.029	0.210
-336.289	-121.434	-0.132	-0.022
-335.275	698.888	-0.054	-0.144
-334.260	-200.000	-0.036	0.200
-333.245	800.000	-0.114	-0.346
-332.231	35.173	0.188	-0.166
-331.216	183.149	-0.139	-0.208
-330.202	6.092	-0.264	-0.198
-329.187	290.420	-0.039	0.072
-328.172	800.000	-0.208	0.584
-327.158	106.141	-0.160	0.192
-326.143	-70.097	-0.236	-0.091
-325.129	-35.722	0.123	-0.068
-324.114	16.129	-0.185	-0.147
-323.099	-19.893	-0.117	-0.073
-322.085	-200.000	0.006	0.202
-321.070	0.367	-0.296	0.214
-320.056	-200.000	-0.014	-0.137
-319.041	-102.029	-0.238	0.058
-318.026	-92.980	-0.238	-0.067
-317.012	-136.435	0.251	0.029
-315.997	-200.000	0.046	0.219
-314.983	37.881	0.091	0.082
-313.968	7.400	0.211	-0.159
-312.953	-125.897	-0.436	0.066
-311.939	-35.433	-0.238	0.131
-310.924	38.534	-0.128	0.116
-309.910	800.000	0.050	0.158
-308.895	-200.000	-0.019	0.155
-307.880	-200.000	-0.012	-0.201
-306.866	156.849	-0.215	0.300
-305.851	-77.419	-0.075	0.026
-304.837	-200.000	0.033	0.224
-303.822	770.802	0.069	-0.189
-302.807	-87.950	-0.182	0.055
-301.793	-137.376	0.270	-0.031
-300.778	24.308	0.405	0.338
-299.764	200.329	-0.166	0.258
-298.749	-88.373	-0.205	-0.062
-297.735	800.000	-0.045	0.147
-296.720	42.148	-0.128	0.118
-295.705	140.387	0.208	0.277
-294.691	192.442	-0.110	-0.168
-293.676	800.000	-0.085	0.257
-292.662	-200.000	-0.018	-0.166
-291.647	363.288	-0.138	-0.279
-290.632	91.874	0.261	-0.297
-289.618	-138.260	-0.142	-0.016
-288.603	-200.000	0.006	0.057
-287.589	176.552	-0.052	0.076
-286.574	777.632	-0.022	0.060
-285.559	-169.158	-0.189	-0.007
-284.545	88.487	0.091	-0.102
-283.530	-84.537	0.221	0.070
-282.516	15.654	0.193	-0.153
-281.501	-200.000	0.052	0.302
-280.486	-122.248	0.052	-0.009
-279.472	-55.773	-0.032	-0.015
-278.457	800.000	-0.015	0.043
-277.443	-17.291	-0.408	-0.259
-276.428	9.365	0.099	0.075
-275.413	-42.143	0.091	-0.047
-274.399	39.572	-0.217	0.196
-273.384	-22.769	0.192	0.117
-272.370	-165.385	0.192	-0.008
-271.355	153.125	-0.174	-0.240
-270.340	44.641	-0.123	-0.114
-269.326	800.000	0.080	0.237
-268.311	181.060	-0.092	0.136
-267.297	800.000	0.097	0.346
-266.282	-14.312	0.160	-0.104
-265.267	264.859	-0.096	-0.169
-264.253	-199.773	-0.295	-0.002
-263.238	-88.416	0.570	0.172
-262.224	515.394	0.115	-0.270
-261.209	-73.967	-0.028	-0.010
-260.195	736.389	-0.124	0.334
-259.180	800.000	-0.006	0.023
-258.165	800.000	-0.048	-0.135
-257.151	-52.726	0.103	-0.048
-256.136	-178.759	0.115	0.003
-255.122	-200.000	0.001	-0.116
-254.107	-55.921	-0.342	-0.154
-253.092	800.000	0.052	0.177
-252.078	475.130	0.018	0.041
-251.063	-200.000	-0.012	0.162
-250.049	643.149	0.075	-0.193
-249.034	75.062	0.117	-0.124
-248.019	-120.988	0.225	0.038
-247.005	800.000	0.056	-0.216
-245.990	-171.506	-0.110	0.004
-244.976	2.845	0.152	0.111
-243.961	-65.376	0.390	0.158
-242.946	339.831	-0.073	0.143
-241.932	-200.000	0.002	0.053
-240.917	606.620	0.030	0.074
-239.903	58.431	-0.256	0.253
-238.888	110.238	-0.145	0.175
-237.873	420.899	-0.062	-0.135
-236.859	800.000	0.083	-0.263
-235.844	497.784	0.074	-0.171
-234.830	266.316	-0.073	-0.128
-233.815	-200.000	0.004	0.043
-232.800	800.000	0.107	-0.411
-231.786	-22.854	0.284	-0.172
-230.771	547.381	-0.154	-0.372
-229.757	-69.975	-0.300	0.115
-228.742	-146.590	-0.213	-0.019
-227.727	800.000	0.042	-0.135
-226.713	22.632	0.073	0.060
-225.698	-18.406	0.225	0.141
-224.684	-31.170	0.113	-0.064
-223.669	-200.000	-0.016	-0.115
-222.655	103.675	0.238	-0.282
-221.640	-73.199	0.139	-0.051
-220.625	-140.142	0.421	0.045
-219.611	-200.000	-0.016	-0.110
-218.596	166.702	0.282	-0.403
-217.582	800.000	0.112	0.333
-216.567	-200.000	-0.004	0.088
-215.552	-200.000	0.025	-0.288
-214.538	133.614	-0.062	0.081
-213.523	61.477	0.042	0.042
-212.509	-200.000	-0.001	-0.047
-211.494	170.882	0.062	-0.090
-210.479	21.211	-0.165	-0.135
-209.465	-200.000	-0.021	0.304
-208.450	35.346	-0.119	0.105
-207.436	323.775	-0.232	-0.446
-206.421	-26.192	0.336	-0.199
-205.406	-17.684	0.179	-0.113
-204.392	-51.844	0.214	0.100
-203.377	-35.530	0.181	-0.099
-202.363	98.687	0.178	-0.207
-201.348	-200.000	-0.005	-0.165
-200.333	129.018	-0.104	0.134
-199.319	-61.732	0.130	0.055
-198.304	-153.409	-0.233	-0.016
-197.290	-118.624	-0.185	-0.033
-196.275	800.000	0.042	0.163
-195.260	145.262	0.189	-0.254
-194.246	-127.809	0.273	-0.040
-193.231	-140.353	0.182	0.019
-192.217	23.830	-0.096	0.080
-191.202	-5.719	-0.241	0.166
-190.187	800.000	-0.084	-0.253
-189.173	-200.000	-0.054	-0.323
-188.158	18.022	-0.203	-0.162
-187.144	74.649	-0.117	-0.124
-186.129	5.862	-0.221	-0.164
-185.114	-43.805	0.212	-0.107
-184.100	248.055	0.059	0.100
-183.085	-7.903	0.149	0.101
-182.071	168.275	0.023	0.033
-181.056	-117.060	-0.375	-0.069
-180.042	99.333	-0.085	0.099
-179.027	-200.000	0.039	0.210
-178.012	625.784	-0.054	-0.137
-176.998	800.000	0.094	0.308
-175.983	392.592	-0.143	0.299
-174.969	20.296	-0.236	-0.191
-173.954	-71.548	0.299	0.112
-172.939	520.910	0.043	0.102
-171.925	332.543	0.123	-0.239
-170.910	800.000	0.103	0.327
-169.896	157.284	0.111	0.154
-168.881	202.004	0.051	0.079
-167.866	464.009	-0.045	0.102
-166.852	-200.000	-0.040	-0.233
-165.837	-97.139	0.188	0.049
-164.823	562.948	-0.076	0.184
-163.808	-200.000	0.038	-0.171
-162.793	378.284	0.051	0.104
-161.779	-200.000	0.005	0.079
-160.764	-47.663	0.089	-0.043
-159.750	34.474	-0.149	0.131
-158.735	800.000	-0.119	0.351
-157.720	-200.000	-0.004	0.123
-156.706	-127.326	-0.069	-0.010
-155.691	260.303	-0.066	0.114
-154.677	-53.396	0.273	-0.126
-153.662	-200.000	0.042	0.348
-152.647	-200.000	0.029	0.218
-151.633	-35.039	-0.109	-0.059
-150.618	63.335	-0.166	-0.167
-149.604	-101.352	-0.177	0.043
-148.589	204.345	0.154	-0.240
-147.574	225.511	0.064	-0.104
-146.560	268.842	0.131	0.231
-145.545	800.000	-0.094	0.357
-144.531	39.185	0.187	0.168
-143.516	107.937	-0.296	0.353
-142.502	-118.232	-0.091	0.016
-141.487	124.724	0.189	-0.239
-140.472	57.415	0.178	0.174
-139.458	-200.000	0.077	0.361
-138.443	391.445	-0.087	-0.180
-137.429	-100.756	0.191	0.047
-136.414	46.215	-0.153	-0.142
-135.399	-200.000	0.008	-0.157
-134.385	34.553	0.185	-0.163
-133.370	415.373	-0.195	-0.418
-132.356	-55.237	0.283	0.127
-131.341	-54.574	0.047	-0.021
-130.326	-200.000	0.005	-0.148
-129.312	110.368	0.291	-0.350
-128.297	-109.713	-0.156	-0.033
-127.283	-83.738	0.323	-0.103
-126.268	-161.951	0.296	-0.015
-125.253	-200.000	0.042	-0.328
-124.239	800.000	-0.079	-0.245
-123.224	634.501	-0.054	-0.138
-122.210	-23.864	0.387	0.232
-121.195	-1.934	0.055	0.039
-120.180	233.255	0.023	-0.038
-119.166	-99.019	-0.179	0.046
-118.151	-78.031	-0.090	0.031
-117.137	335.280	-0.040	0.077
-116.122	42.227	0.139	-0.126
-115.107	-127.581	-0.235	-0.034
-114.093	630.393	0.066	0.169
-113.078	-200.000	-0.009	-0.049
-112.064	92.933	0.135	-0.153
-111.049	386.299	0.037	0.076
-110.034	168.410	-0.033	0.047
-109.020	-18.758	0.051	0.032
-108.005	53.579	0.077	0.074
-106.991	800.000	0.018	-0.062
-105.976	101.106	0.158	0.184
-104.962	-107.624	0.189	-0.041
-103.947	13.114	-0.044	0.034
-102.932	-200.000	-0.012	-0.248
-101.918	50.711	0.208	0.197
-100.903	-35.639	0.251	-0.137
-99.889	43.442	0.216	0.198
-98.874	-200.000	0.015	0.092
-97.859	438.557	-0.068	0.149
-96.845	-61.472	0.100	-0.042
-95.830	113.114	0.071	0.087
-94.816	37.819	0.055	0.049
-93.801	-8.035	0.109	0.074
-92.786	277.870	0.002	-0.004
-91.772	-83.050	0.479	0.154
-90.757	38.429	-0.150	-0.134
-89.743	-113.267	0.215	-0.042
-88.728	-94.125	-0.302	-0.083
-87.713	133.132	0.168	-0.217
-86.699	334.918	0.127	-0.247
-85.684	-96.537	0.150	0.040
-84.670	283.196	-0.151	-0.271
-83.655	134.061	0.156	0.203
-82.640	-116.222	-0.346	-0.064
-81.626	693.498	-0.070	0.184
-80.611	748.766	-0.095	-0.255
-79.597	38.137	-0.124	-0.111
-78.582	398.824	-0.086	0.180
-77.567	-124.479	-0.231	-0.036
-76.553	-21.895	-0.131	-0.080
-75.538	-65.682	-0.028	0.011
-74.524	12.134	-0.160	-0.123
-73.509	-157.492	0.093	0.006
-72.494	-200.000	-0.014	0.106
-71.480	-130.511	-0.185	-0.025
-70.465	183.866	0.097	-0.144
-69.451	9.875	0.087	0.066
-68.436	-187.062	-0.246	-0.003
-67.422	-200.000	0.017	-0.172
-66.407	129.102	0.257	-0.329
-65.392	-200.000	-0.019	-0.227
-64.378	-59.473	-0.354	0.152
-63.363	88.753	-0.104	0.116
-62.349	-32.557	-0.069	-0.039
-61.334	87.794	-0.690	-0.766
-60.319	162.077	0.201	0.282
-59.305	-200.000	-0.181	-1.054
-58.290	-6.515	0.458	0.312
-57.276	800.000	0.445	1.332
-56.261	-200.000	76.682	528.722
-55.246	517.042	1332.918	3118.114
-54.232	141.112	2570.515	3400.962
-53.217	109.266	2384.823	2855.612
-52.203	48.518	2120.561	1987.241
-51.188	43.442	2027.419	1853.466
-50.173	41.603	2009.249	1820.040
-49.159	54.180	2048.086	1970.999
-48.144	59.073	2068.174	2035.181
-47.130	44.347	2032.359	1866.010
-46.115	41.492	2021.363	1829.704
-45.100	41.473	2017.578	1826.030
-44.086	41.396	2015.515	1823.387
-43.071	41.330	2013.224	1820.636
-42.057	41.316	2011.131	1818.543
-41.042	41.315	2009.615	1817.091
-40.027	41.405	2007.417	1815.858
-39.013	41.378	2005.188	1813.519
-37.998	41.436	2003.408	1812.362
-36.984	41.366	2002.060	1810.443
-35.969	41.498	1999.616	1809.358
-34.954	41.479	1997.571	1807.256
-33.940	41.499	1996.120	1806.055
-32.925	41.599	1994.471	1805.396
-31.911	41.562	1992.768	1803.451
-30.896	41.525	1991.617	1802.004
-29.881	41.501	1989.784	1800.057
-28.867	41.585	1987.766	1798.917
-27.852	41.608	1985.447	1796.952
-26.838	41.548	1984.065	1795.090
-25.823	41.539	1982.509	1793.527
-24.809	41.556	1980.445	1791.742
-23.794	41.600	1978.667	1790.463
-22.779	41.593	1976.878	1788.707
-21.765	41.556	1975.511	1787.067
-20.750	41.572	1973.585	1785.398
-19.736	41.503	1972.125	1783.387
-18.721	41.572	1970.977	1782.898
-17.706	41.546	1969.100	1780.895
-16.692	41.472	1967.414	1778.645
-15.677	41.499	1965.441	1777.030
-14.663	41.436	1964.052	1775.140
-13.648	41.511	1963.123	1774.899
-12.633	41.576	1961.700	1774.122
-11.619	41.504	1960.523	1772.340
-10.604	41.523	1959.117	1771.170
-9.590	41.430	1957.533	1768.848
-8.575	41.573	1956.055	1768.705
-7.560	41.550	1954.844	1767.340
-6.546	41.544	1953.763	1766.238
-5.531	41.554	1952.457	1765.072
-4.517	41.536	1951.388	1763.876
-3.502	41.560	1949.983	1762.746
-2.487	41.470	1948.932	1760.937
-1.473	41.481	1948.060	1760.173
-0.458	41.671	1943.712	1757.849
0.556	40.038	1925.963	1738.193
1.571	36.551	1906.797	1690.316
2.586	31.796	1927.884	1666.699
3.600	29.823	1964.716	1680.486
4.615	28.358	1959.713	1662.769
5.629	21.820	1855.623	1517.918
6.644	11.214	1729.605	1328.677
7.659	5.856	1686.677	1252.882
8.673	5.348	1682.968	1245.968
9.688	5.235	1681.575	1243.930
10.702	5.065	1679.978	1241.288
11.717	4.962	1676.900	1238.086
12.731	5.519	1677.304	1242.694
13.746	11.986	1692.522	1305.536
14.761	18.768	1706.486	1370.499
15.775	19.020	1704.070	1370.442
16.790	17.262	1699.476	1352.650
17.804	16.105	1695.998	1340.566
18.819	15.053	1692.674	1329.471
19.834	14.429	1690.204	1322.464
20.848	14.035	1688.824	1318.142
21.863	13.729	1687.033	1314.204
22.877	13.553	1685.281	1311.328
23.892	13.378	1683.777	1308.653
24.907	13.321	1682.572	1307.155
25.921	13.240	1681.769	1305.776
26.936	13.294	1680.316	1304.961
27.950	13.361	1679.654	1304.855
28.965	13.384	1679.228	1304.593
29.980	13.410	1678.457	1304.080
30.994	13.455	1676.908	1303.116
32.009	13.553	1675.820	1302.925
33.023	13.506	1675.646	1302.309
34.038	13.587	1674.372	1301.837
35.053	13.633	1672.680	1300.765
36.067	13.477	1671.969	1298.880
37.082	13.480	1670.477	1297.627
38.096	13.485	1669.433	1296.738
39.111	13.443	1668.956	1295.924
40.126	13.487	1668.112	1295.497
41.140	13.543	1666.972	1294.938
42.155	13.380	1665.397	1292.327
43.169	13.240	1664.018	1290.047
44.184	13.179	1663.173	1288.807
45.199	13.269	1662.096	1288.558
46.213	13.217	1660.714	1286.969
47.228	13.197	1659.781	1285.975
48.242	13.336	1658.113	1285.646
49.257	13.437	1657.330	1285.712
50.271	13.409	1656.330	1284.604
51.286	13.441	1654.813	1283.564
52.301	13.471	1653.104	1282.356
53.315	13.380	1652.456	1281.035
54.330	13.432	1650.445	1279.768
55.344	13.375	1648.191	1277.465
56.359	13.277	1647.542	1276.095
57.374	13.254	1646.431	1274.942
58.388	13.334	1645.607	1274.809
59.403	13.275	1643.952	1272.956
60.417	13.302	1642.385	1271.839
61.432	13.187	1641.587	1270.228
62.447	13.202	1640.469	1269.362
63.461	13.199	1638.838	1267.964
64.476	13.205	1637.849	1267.131
65.490	13.057	1637.145	1265.345
66.505	13.147	1635.490	1264.638
67.520	13.146	1634.978	1264.129
68.534	13.162	1633.935	1263.332
69.549	13.272	1632.294	1262.789
70.563	13.214	1631.416	1261.556
71.578	13.161	1630.129	1260.046
72.593	13.148	1629.241	1259.147
73.607	13.082	1628.368	1257.858
74.622	13.112	1626.996	1256.919
75.636	12.959	1626.495	1255.257
76.651	13.040	1625.547	1255.024
77.666	13.119	1624.170	1254.450
78.680	13.123	1623.658	1253.979
79.695	13.130	1622.845	1253.291
80.709	13.162	1621.802	1252.617
81.724	13.266	1620.534	1252.314
82.739	13.242	1620.407	1251.928
83.753	13.304	1619.202	1251.350
84.768	13.273	1618.787	1250.689
85.782	13.440	1617.839	1251.107
86.797	13.502	1617.032	1250.842
87.812	13.512	1615.948	1249.962
88.826	13.365	1615.338	1248.273
89.841	13.326	1613.922	1246.773
90.855	13.377	1612.964	1246.307
91.870	13.421	1612.147	1245.899
92.884	13.438	1611.307	1245.265
93.899	13.466	1610.148	1244.470
94.914	13.556	1608.780	1243.982
95.928	13.507	1607.963	1242.869
96.943	13.499	1606.710	1241.729
97.957	13.503	1605.132	1240.429
98.972	13.454	1603.621	1238.788
99.987	13.508	1601.969	1237.809
101.001	13.486	1600.064	1236.061
102.016	13.475	1598.850	1234.928
103.030	13.500	1597.287	1233.803
104.045	13.442	1596.337	1232.523
105.060	13.530	1594.655	1231.776
106.074	13.413	1593.994	1230.283
107.089	13.354	1592.062	1228.247
108.103	13.282	1590.471	1226.376
109.118	13.246	1589.015	1224.875
110.133	13.170	1587.217	1222.816
111.147	13.220	1586.187	1222.285
112.162	13.303	1584.935	1221.831
113.176	13.185	1584.064	1220.175
114.191	13.239	1582.512	1219.274
115.206	13.283	1581.199	1218.478
116.220	13.284	1580.117	1217.541
117.235	13.284	1578.664	1216.318
118.249	13.293	1577.433	1215.327
119.264	13.231	1576.299	1213.887
120.279	13.249	1574.766	1212.734
121.293	13.206	1573.390	1211.253
122.308	13.255	1571.434	1210.000
123.322	13.207	1570.073	1208.493
124.337	13.202	1568.814	1207.382
125.352	13.156	1567.658	1206.044
126.366	13.173	1566.768	1205.383
127.381	13.182	1565.530	1204.384
128.395	13.177	1564.311	1203.306
129.410	13.208	1563.082	1202.481
130.424	13.257	1561.514	1201.522
131.439	13.297	1560.391	1200.839
132.454	13.317	1559.102	1199.892
133.468	13.321	1557.921	1198.902
134.483	13.384	1556.231	1197.955
135.497	13.412	1554.768	1196.922
136.512	13.386	1553.595	1195.726
137.527	13.433	1551.930	1194.681
138.541	13.485	1550.872	1194.134
139.556	13.440	1549.704	1192.806
140.570	13.432	1548.082	1191.392
141.585	13.536	1547.153	1191.321
142.600	13.550	1545.713	1190.208
143.614	13.651	1544.240	1189.693
144.629	13.696	1543.152	1189.073
145.643	13.644	1542.033	1187.732
146.658	13.695	1540.783	1187.027
147.673	13.603	1539.217	1185.059
148.687	13.554	1537.649	1183.398
149.702	13.514	1536.272	1181.947
150.716	13.455	1534.651	1180.175
151.731	13.547	1532.658	1179.189
152.746	13.452	1532.006	1177.910
153.760	13.461	1530.753	1176.906
154.775	13.510	1529.322	1176.049
155.789	13.552	1528.087	1175.295
156.804	13.633	1526.918	1174.865
157.819	13.574	1525.901	1173.560
158.833	13.560	1524.314	1172.138
159.848	13.600	1523.798	1171.923
160.862	13.725	1522.502	1171.707
161.877	13.669	1520.965	1170.025
162.892	13.672	1520.107	1169.279
163.906	13.606	1518.241	1167.278
164.921	13.613	1516.968	1166.244
165.935	13.606	1515.934	1165.293
166.950	13.548	1515.307	1164.305
167.964	13.687	1513.836	1164.048
168.979	13.618	1512.509	1162.440
169.994	13.661	1511.872	1162.150
171.008	13.623	1510.916	1161.042
172.023	13.576	1509.714	1159.686
173.037	13.676	1508.444	1159.312
174.052	13.754	1507.292	1158.868
175.067	13.815	1506.254	1158.391
176.081	13.705	1504.994	1156.556
177.096	13.624	1503.777	1154.954
178.110	13.720	1502.342	1154.415
179.125	13.642	1501.555	1153.165
180.140	13.670	1500.547	1152.482
181.154	13.792	1498.953	1152.002
182.169	13.752	1498.160	1151.017
183.183	13.753	1496.978	1150.015
184.198	13.869	1495.619	1149.667
185.213	13.919	1494.345	1148.935
186.227	13.928	1493.553	1148.284
187.242	13.883	1492.781	1147.280
188.256	14.042	1491.120	1147.001
189.271	14.020	1489.998	1145.883
190.286	14.002	1489.155	1145.013
191.300	14.001	1488.396	1144.316
192.315	13.788	1487.340	1141.937
193.329	13.638	1485.689	1139.541
194.344	13.739	1484.437	1139.175
195.359	13.701	1483.461	1138.062
196.373	13.769	1482.561	1137.735
197.388	13.854	1481.584	1137.470
198.402	13.851	1480.791	1136.737
199.417	14.017	1479.826	1137.036
200.432	14.084	1478.755	1136.570
201.446	14.077	1478.105	1135.920
202.461	14.181	1476.808	1135.535
203.475	14.131	1475.433	1134.034
204.490	14.269	1474.478	1134.139
205.504	14.242	1473.476	1133.082
206.519	14.081	1472.491	1131.133
207.534	14.169	1470.554	1130.138
208.548	14.054	1470.235	1129.017
209.563	14.102	1469.184	1128.432
210.577	14.121	1468.225	1127.725
211.592	14.159	1467.103	1127.021
212.607	14.149	1466.652	1126.510
213.621	14.250	1465.549	1126.246
214.636	14.297	1464.681	1125.798
215.650	14.267	1463.851	1124.857
216.665	14.287	1462.570	1123.909
217.680	14.296	1462.075	1123.489
218.694	14.352	1461.503	1123.323
219.709	14.408	1460.574	1122.890
220.723	14.510	1459.176	1122.404
221.738	14.463	1458.102	1121.162
222.753	14.415	1457.557	1120.323
223.767	14.323	1457.199	1119.325
224.782	14.364	1455.656	1118.321
225.796	14.437	1454.935	1118.152
226.811	14.453	1454.417	1117.763
227.826	14.569	1453.229	1117.532
228.840	14.574	1452.032	1116.546
229.855	14.448	1451.217	1114.980
230.869	14.456	1450.174	1114.133
231.884	14.430	1449.309	1113.192
232.899	14.447	1448.337	1112.464
233.913	14.411	1446.842	1110.975
234.928	14.383	1445.578	1109.717
235.942	14.321	1444.450	1108.346
236.957	14.362	1443.435	1107.737
237.972	14.413	1442.131	1106.978
238.986	14.348	1441.018	1105.597
240.001	14.482	1439.997	1105.603
241.015	14.433	1439.087	1104.478
242.030	14.441	1437.795	1103.448
243.045	14.501	1437.005	1103.140
244.059	14.532	1435.979	1102.460
245.074	14.621	1435.136	1102.304
246.088	14.522	1434.540	1101.094
247.103	14.644	1434.092	1101.456
248.117	14.575	1433.207	1100.225
249.132	14.633	1432.669	1100.097
250.147	14.706	1431.685	1099.724
251.161	14.877	1430.920	1100.165
252.176	14.999	1430.323	1100.412
253.190	14.932	1429.665	1099.367
254.205	14.927	1428.969	1098.701
255.220	14.988	1427.646	1097.986
256.234	15.071	1427.062	1097.984
257.249	15.065	1426.278	1097.242
258.263	15.124	1425.501	1096.935
259.278	15.130	1424.339	1095.988
260.293	15.160	1423.452	1095.401
261.307	15.187	1422.512	1094.755
262.322	15.146	1421.952	1093.965
263.336	15.233	1421.125	1093.797
264.351	15.183	1420.424	1092.832
265.366	15.263	1419.160	1092.285
266.380	15.248	1418.151	1091.312
267.395	15.267	1417.254	1090.655
268.409	15.211	1416.593	1089.684
269.424	15.197	1415.870	1088.937
270.439	15.204	1414.286	1087.670
271.453	15.247	1413.039	1086.893
272.468	15.196	1412.385	1085.962
273.482	15.187	1411.905	1085.440
274.497	15.254	1410.596	1084.772
275.512	15.073	1410.073	1083.102
276.526	15.195	1409.242	1083.158
277.541	15.235	1407.941	1082.322
278.555	15.250	1407.027	1081.618
279.570	15.207	1406.308	1080.692
280.585	15.310	1405.477	1080.625
281.599	15.344	1405.036	1080.406
282.614	15.386	1403.872	1079.687
283.628	15.446	1402.604	1078.998
284.643	15.264	1402.174	1077.403
285.657	15.214	1400.638	1075.808
286.672	15.333	1399.373	1075.502
287.687	15.371	1398.898	1075.290
288.701	15.299	1397.947	1073.998
289.716	15.353	1396.851	1073.408
290.730	15.383	1396.229	1073.026
291.745	15.433	1394.771	1072.134
292.760	15.383	1394.342	1071.391
293.774	15.432	1393.706	1071.115
294.789	15.403	1391.963	1069.501
295.803	15.457	1391.507	1069.396
296.818	15.550	1390.743	1069.308
297.833	15.526	1389.532	1068.129
298.847	15.481	1388.811	1067.197
299.862	15.489	1387.830	1066.399
300.876	15.447	1386.919	1065.335
301.891	15.554	1385.429	1064.773
302.906	15.529	1384.793	1064.032
303.920	15.556	1384.499	1063.886
304.935	15.682	1383.538	1063.852
305.949	15.716	1382.806	1063.410
306.964	15.732	1382.206	1062.954
307.979	15.809	1381.043	1062.453
308.993	15.788	1379.857	1061.315
310.008	15.681	1378.991	1059.876
311.022	15.862	1377.851	1060.049
312.037	15.779	1376.895	1058.697
313.052	15.861	1376.028	1058.451
314.066	15.842	1375.064	1057.495
315.081	15.836	1373.730	1056.340
316.095	15.761	1372.848	1055.095
317.110	15.647	1371.548	1053.289
318.125	15.761	1370.317	1052.969
319.139	15.637	1369.871	1051.756
320.154	15.614	1369.366	1051.130
321.168	15.716	1368.028	1050.645
322.183	15.697	1367.251	1049.838
323.197	15.681	1366.358	1048.962
324.212	15.812	1365.310	1048.882
325.227	15.771	1364.502	1047.908
326.241	15.759	1363.580	1047.033
327.256	15.754	1363.142	1046.574
328.270	15.844	1361.860	1046.055
329.285	15.893	1360.954	1045.572
330.300	15.849	1359.798	1044.322
331.314	15.873	1359.185	1043.905
332.329	15.915	1358.168	1043.293
333.343	15.772	1357.846	1042.065
334.358	15.846	1356.482	1041.383
335.373	15.968	1355.593	1041.366
336.387	15.976	1354.749	1040.673
337.402	16.043	1354.124	1040.515
338.416	16.036	1353.650	1040.016
339.431	16.023	1352.978	1039.330
340.446	15.956	1352.415	1038.393
341.460	16.152	1351.063	1038.467
342.475	16.267	1350.176	1038.402
343.489	16.242	1349.302	1037.484
344.504	16.328	1348.791	1037.530
345.519	16.217	1347.511	1035.769
346.533	16.359	1346.569	1035.827
347.548	16.286	1346.174	1034.980
348.562	16.318	1345.404	1034.497
349.577	16.424	1344.098	1034.049
350.592	16.302	1343.439	1032.702
351.606	16.211	1342.360	1031.227
352.621	16.120	1341.390	1029.836
353.635	16.209	1340.510	1029.611
354.650	16.303	1339.100	1029.006
355.665	16.165	1338.868	1027.898
356.679	16.187	1337.386	1026.803
357.694	16.257	1336.496	1026.455
358.708	16.201	1335.699	1025.411
359.723	16.350	1334.481	1025.290
360.738	16.347	1333.453	1024.391
361.752	16.382	1332.218	1023.565
362.767	16.344	1331.014	1022.322
363.781	16.421	1330.078	1021.976
364.796	16.345	1329.747	1021.172
365.810	16.350	1329.213	1020.704
366.825	16.470	1328.351	1020.674
367.840	16.502	1327.478	1020.108
368.854	16.684	1326.863	1020.640
369.869	16.568	1326.544	1019.606
370.883	16.757	1325.232	1019.646
371.898	16.587	1324.866	1018.251
372.913	16.656	1323.497	1017.521
373.927	16.591	1323.022	1016.677
374.942	16.649	1322.281	1016.367
375.956	16.672	1321.371	1015.711
376.971	16.707	1320.677	1015.303
377.986	16.672	1320.050	1014.520
379.000	16.629	1319.162	1013.487
380.015	16.739	1318.068	1013.217
381.029	16.851	1317.730	1013.539
382.044	16.914	1316.892	1013.182
383.059	16.887	1316.064	1012.292
384.073	16.862	1315.831	1011.871
385.088	16.877	1314.749	1011.042
386.102	16.803	1314.264	1010.139
387.117	16.858	1313.432	1009.736
388.132	16.933	1312.355	1009.263
389.146	16.715	1311.907	1007.536
390.161	16.923	1310.908	1007.917
391.175	16.767	1310.199	1006.356
392.190	16.835	1309.072	1005.802
393.205	16.788	1308.462	1004.965
394.219	16.937	1307.622	1005.116
395.234	16.936	1305.940	1003.729
396.248	16.960	1304.449	1002.632
397.263	16.872	1303.565	1001.348
398.278	16.829	1302.558	1000.232
399.292	16.918	1301.143	999.583
400.307	16.824	1300.124	998.157
401.321	16.845	1298.952	997.293
402.336	16.819	1297.817	996.180
403.350	16.878	1296.970	995.784
404.365	16.877	1295.812	994.803
405.380	16.896	1295.142	994.311
406.394	16.935	1294.422	993.898
407.409	16.974	1293.908	993.645
408.423	16.989	1293.038	992.978
409.438	17.135	1292.087	993.016
410.453	17.202	1291.562	992.914
411.467	17.185	1291.138	992.399
412.482	17.168	1290.610	991.805
413.496	17.267	1289.437	991.393
414.511	17.302	1289.019	991.191
415.526	17.237	1288.447	990.283
416.540	17.382	1287.249	990.121
417.555	17.399	1286.716	989.721
418.569	17.448	1286.199	989.520
419.584	17.373	1285.926	988.789
420.599	17.368	1285.041	987.988
421.613	76.096	1320.444	1352.871
422.628	75.185	1325.611	1353.006
