DTS Sentinel unit serial number:	SN413079Multiplexer serial number:	ORYXHardware model number:	OX4-SRSoftware version number:	ORYX F/W v4.00 Oryx Data Collector v3.7.2.0data status	okinstallation	princeton_trtdifferential loss correction	single-endedforward channel	channel 4reverse channel	N/Adate	2019/09/19time	14:33:35forward acquisition time	60.00reverse acquisition time	0.00gamma	496.2192k internal	0.2305k external	0.2305temperature offset calibration	1.0021default loss term (dB/km)	0.3790temperature slope calibration	1.0000multiplexer offset coefficient	1.0000multiplexer slope coefficient	1.0000fibre end	0.00T internal ref (°C)	32.30T ext. ref 1 (°C)	1.07T ext. ref 2 (°C)	29.28length (m)	temperature (°C)	Stokes	anti-Stokes-747.200	-200.000	-0.008	0.223
-746.185	63.748	-0.056	0.058
-745.171	-66.560	0.250	0.101
-744.156	86.253	-0.230	0.258
-743.142	32.948	-0.084	-0.074
-742.127	15.342	0.203	0.162
-741.112	-90.762	-0.194	0.057
-740.098	-200.000	0.003	0.107
-739.083	243.583	0.098	0.167
-738.069	-200.000	-0.013	0.114
-737.054	97.660	0.212	-0.248
-736.039	56.304	-0.147	-0.145
-735.025	387.309	0.200	-0.420
-734.010	-38.530	-0.384	-0.206
-732.996	464.625	-0.079	-0.179
-731.981	-132.906	0.471	-0.061
-730.966	-49.006	-0.165	-0.080
-729.952	68.297	-0.126	-0.131
-728.937	-26.653	-0.063	-0.038
-727.923	-200.000	0.008	0.158
-726.908	-179.050	-0.192	-0.004
-725.894	-115.135	0.215	-0.041
-724.879	-45.996	-0.174	0.087
-723.864	157.423	-0.070	-0.098
-722.850	-96.035	-0.099	0.027
-721.835	-200.000	0.039	0.210
-720.821	800.000	-0.044	0.128
-719.806	-105.806	0.144	0.033
-718.791	17.015	-0.142	0.114
-717.777	-200.000	-0.027	0.235
-716.762	460.391	-0.135	-0.305
-715.748	-200.000	-0.056	0.275
-714.733	350.164	-0.180	0.362
-713.718	650.157	-0.054	0.141
-712.704	-200.000	0.052	-0.275
-711.689	-37.562	-0.279	0.151
-710.675	-10.108	0.164	-0.111
-709.660	-12.565	0.154	-0.102
-708.645	-200.000	0.041	-0.408
-707.631	-41.037	0.153	-0.081
-706.616	627.252	0.065	-0.168
-705.602	-191.116	-0.114	-0.001
-704.587	47.215	0.095	-0.090
-703.572	25.645	0.234	0.198
-702.558	800.000	0.059	-0.169
-701.543	290.288	0.090	0.166
-700.529	116.197	0.112	0.139
-699.514	23.736	0.203	-0.170
-698.499	-36.335	0.095	0.052
-697.485	74.289	0.170	-0.181
-696.470	20.820	-0.332	-0.273
-695.456	-131.508	-0.343	0.046
-694.441	283.851	0.001	-0.001
-693.426	-200.000	0.039	0.282
-692.412	29.409	-0.222	-0.191
-691.397	-57.449	-0.304	-0.135
-690.383	-200.000	0.005	-0.139
-689.368	92.451	0.127	0.146
-688.354	58.480	-0.097	-0.097
-687.339	-75.350	-0.106	0.038
-686.324	-96.377	0.123	-0.033
-685.310	180.013	0.122	-0.182
-684.295	-152.196	-0.195	0.014
-683.281	-200.000	0.008	0.142
-682.266	23.623	0.133	0.111
-681.251	120.742	0.301	-0.380
-680.237	303.735	-0.091	0.170
-679.222	-134.995	-0.188	0.023
-678.208	33.782	0.213	0.188
-677.193	-92.733	-0.145	-0.041
-676.178	-125.293	0.145	0.023
-675.164	-103.326	-0.571	0.137
-674.149	-81.858	0.036	-0.012
-673.135	-155.733	-0.304	-0.020
-672.120	-97.720	-0.056	0.015
-671.105	154.542	-0.373	-0.520
-670.091	-200.000	-0.024	-0.236
-669.076	800.000	-0.084	-0.269
-668.062	-8.812	-0.411	-0.280
-667.047	-200.000	0.021	0.292
-666.032	87.476	-0.090	-0.101
-665.018	88.899	-0.093	-0.105
-664.003	142.754	-0.099	0.133
-662.989	-40.605	-0.124	-0.065
-661.974	800.000	-0.021	-0.081
-660.959	-42.772	-0.087	0.045
-659.945	800.000	-0.114	0.341
-658.930	-42.258	-0.339	-0.176
-657.916	67.158	-0.082	0.085
-656.901	153.969	-0.156	0.217
-655.886	195.457	0.122	0.188
-654.872	-91.552	-0.270	0.078
-653.857	128.541	0.063	0.082
-652.843	17.498	-0.309	0.249
-651.828	-54.561	0.234	-0.107
-650.814	-88.636	-0.352	0.106
-649.799	168.173	-0.142	-0.204
-648.784	-38.662	-0.224	0.120
-647.770	17.945	-0.256	0.207
-646.755	-137.096	-0.280	0.032
-645.741	-200.000	-0.003	-0.103
-644.726	425.980	-0.170	-0.372
-643.711	136.276	-0.124	-0.163
-642.697	800.000	-0.051	-0.219
-641.682	106.628	-0.069	-0.083
-640.668	43.942	0.311	-0.289
-639.653	236.555	-0.107	-0.180
-638.638	15.999	-0.259	-0.206
-637.624	-89.206	-0.113	-0.034
-636.609	-112.536	-0.137	-0.028
-635.595	800.000	-0.082	-0.289
-634.580	-80.391	-0.280	0.095
-633.565	-200.000	-0.002	0.065
-632.551	-200.000	-0.015	0.148
-631.536	-200.000	0.052	-0.305
-630.522	76.859	-0.109	0.117
-629.507	95.113	-0.137	-0.158
-628.492	-35.639	-0.088	-0.048
-627.478	123.625	-0.067	-0.085
-626.463	-29.384	0.192	0.112
-625.449	-200.000	0.023	0.446
-624.434	-200.000	-0.040	0.384
-623.419	0.052	0.299	-0.216
-622.405	800.000	0.038	0.159
-621.390	68.240	-0.190	-0.197
-620.376	-11.215	-0.087	-0.058
-619.361	358.915	-0.030	-0.061
-618.346	-200.000	0.050	-0.221
-617.332	-3.763	0.186	0.131
-616.317	395.447	0.073	-0.154
-615.303	-127.654	-0.244	0.036
-614.288	85.427	-0.200	-0.223
-613.273	800.000	-0.121	-0.363
-612.259	-113.169	0.107	0.021
-611.244	268.929	-0.171	-0.304
-610.230	-200.000	0.003	-0.400
-609.215	286.328	0.105	0.191
-608.201	-5.639	0.172	0.119
-607.186	29.456	0.238	-0.205
-606.171	426.410	-0.048	0.105
-605.157	-200.000	-0.042	-0.401
-604.142	288.832	-0.114	0.208
-603.128	-200.000	0.022	0.169
-602.113	-200.000	0.009	-0.121
-601.098	-200.000	0.031	-0.147
-600.084	426.856	-0.130	-0.285
-599.069	21.588	0.111	0.091
-598.055	800.000	-0.035	0.114
-597.040	800.000	-0.113	-0.393
-596.025	126.851	-0.332	-0.426
-595.011	-77.374	-0.132	-0.047
-593.996	-85.940	-0.165	0.052
-592.982	800.000	-0.089	-0.258
-591.967	-200.000	-0.023	-0.206
-590.952	-51.637	-0.423	0.200
-589.938	-115.305	-0.392	-0.075
-588.923	-64.568	0.228	0.094
-587.909	-132.426	0.100	0.013
-586.894	-170.974	0.188	0.006
-585.879	-125.452	-0.296	0.046
-584.865	16.771	0.316	0.253
-583.850	86.072	-0.092	0.103
-582.836	89.649	0.071	-0.080
-581.821	30.239	-0.044	-0.038
-580.806	-22.251	0.165	-0.101
-579.792	13.025	0.084	-0.065
-578.777	141.391	0.109	0.146
-577.763	-71.896	-0.126	0.047
-576.748	507.410	-0.115	0.270
-575.733	800.000	-0.106	0.393
-574.719	800.000	0.012	0.036
-573.704	-33.336	0.194	0.109
-572.690	-30.952	0.090	-0.051
-571.675	286.947	0.172	0.314
-570.661	77.425	0.070	-0.075
-569.646	-200.000	0.040	-0.192
-568.631	-200.000	-0.054	-0.374
-567.617	-149.809	0.155	0.012
-566.602	-25.070	-0.227	0.136
-565.588	800.000	0.102	0.439
-564.573	800.000	0.100	0.360
-563.558	-45.310	0.127	-0.064
-562.544	70.866	0.123	-0.128
-561.529	125.594	-0.098	0.126
-560.515	-72.091	0.114	-0.043
-559.500	-200.000	0.049	0.396
-558.485	-80.688	0.287	0.096
-557.471	8.118	-0.091	0.069
-556.456	-200.000	0.004	0.185
-555.442	-83.633	0.097	0.031
-554.427	-81.853	0.166	-0.055
-553.412	241.976	-0.190	-0.322
-552.398	29.938	-0.256	0.221
-551.383	-200.000	-0.009	-0.333
-550.369	158.651	0.134	0.188
-549.354	11.243	0.229	0.177
-548.339	84.758	-0.164	0.181
-547.325	392.603	-0.216	-0.454
-546.310	800.000	-0.107	-0.365
-545.296	800.000	0.031	-0.128
-544.281	-4.415	0.084	0.059
-543.266	-200.000	-0.007	0.304
-542.252	62.180	0.088	-0.089
-541.237	286.166	0.152	-0.276
-540.223	60.407	-0.055	0.055
-539.208	-200.000	-0.004	0.196
-538.193	26.499	-0.159	-0.134
-537.179	-61.181	0.237	0.101
-536.164	-146.376	0.388	-0.034
-535.150	558.669	0.105	-0.257
-534.135	-200.000	-0.030	-0.341
-533.121	158.291	-0.052	-0.073
-532.106	-200.000	-0.007	-0.347
-531.091	174.233	0.137	0.200
-530.077	-200.000	0.091	0.000
-529.062	-103.450	-0.195	0.046
-528.048	459.253	0.186	-0.417
-527.033	-200.000	-0.006	-0.301
-526.018	800.000	-0.085	-0.263
-525.004	540.714	-0.062	-0.149
-523.989	-200.000	0.048	-0.315
-522.975	-200.000	0.001	0.114
-521.960	-78.382	-0.058	0.020
-520.945	-74.875	0.172	0.062
-519.931	-200.000	-0.012	-0.126
-518.916	-200.000	-0.014	0.065
-517.902	-200.000	0.044	0.312
-516.887	-50.728	0.052	0.025
-515.872	-22.314	0.218	0.133
-514.858	-54.724	0.197	-0.090
-513.843	-140.180	0.269	-0.028
-512.829	-10.427	-0.007	-0.005
-511.814	-200.000	0.026	0.148
-510.799	-69.821	-0.105	0.040
-509.785	-94.903	-0.163	-0.044
-508.770	-200.000	0.047	-0.348
-507.756	-200.000	-0.130	0.000
-506.741	52.766	-0.072	0.069
-505.726	-200.000	-0.015	0.087
-504.712	633.777	-0.113	-0.288
-503.697	302.727	-0.146	0.273
-502.683	177.259	0.215	-0.316
-501.668	-200.000	-0.005	-0.341
-500.653	680.540	-0.071	0.187
-499.639	145.912	-0.107	-0.144
-498.624	202.726	-0.058	0.091
-497.610	66.958	0.019	0.019
-496.595	-109.033	-0.179	-0.038
-495.581	40.999	0.215	0.196
-494.566	-143.546	0.082	0.008
-493.551	-123.426	0.139	-0.022
-492.537	66.114	-0.155	-0.158
-491.522	25.147	-0.087	0.072
-490.508	-200.000	-0.011	0.233
-489.493	800.000	-0.073	0.259
-488.478	94.101	-0.178	-0.204
-487.464	-94.894	-0.456	0.124
-486.449	666.380	-0.042	-0.110
-485.435	-6.894	0.119	0.082
-484.420	83.396	0.072	0.079
-483.405	800.000	-0.063	0.206
-482.391	112.496	-0.072	-0.087
-481.376	-80.560	-0.391	-0.131
-480.362	14.643	0.199	-0.157
-479.347	-164.695	-0.253	-0.012
-478.332	42.186	0.067	0.061
-477.318	800.000	-0.047	-0.168
-476.303	136.097	-0.122	-0.161
-475.289	45.023	-0.134	0.124
-474.274	118.629	0.190	-0.236
-473.259	-22.196	-0.110	-0.067
-472.245	388.194	0.055	-0.115
-471.230	-196.852	0.282	0.002
-470.216	164.762	0.186	-0.265
-469.201	800.000	0.042	-0.116
-468.186	13.363	0.134	-0.104
-467.172	-200.000	-0.008	-0.292
-466.157	800.000	-0.081	-0.289
-465.143	-106.000	-0.031	0.007
-464.128	-22.207	0.181	-0.110
-463.113	-55.942	0.069	0.031
-462.099	-97.517	-0.281	-0.074
-461.084	216.527	-0.132	0.212
-460.070	-200.000	-0.018	0.565
-459.055	40.720	-0.223	-0.203
-458.040	-118.582	0.263	0.047
-457.026	-92.946	0.174	-0.049
-456.011	41.207	-0.299	-0.272
-454.997	-49.856	-0.216	0.103
-453.982	174.974	0.202	0.294
-452.968	41.366	0.153	0.139
-451.953	-131.579	-0.265	0.035
-450.938	800.000	-0.048	-0.133
-449.924	800.000	0.060	-0.227
-448.909	-78.827	-0.091	-0.031
-447.895	-95.803	-0.101	0.027
-446.880	-69.628	0.101	0.039
-445.865	-22.302	-0.164	-0.100
-444.851	800.000	-0.083	-0.280
-443.836	390.874	0.097	-0.203
-442.822	-200.000	-0.003	0.450
-441.807	-47.852	0.225	-0.110
-440.792	800.000	0.054	0.188
-439.778	-54.938	-0.173	0.078
-438.763	-67.775	0.212	-0.084
-437.749	-157.969	-0.403	-0.024
-436.734	131.759	-0.057	-0.074
-435.719	205.591	-0.095	-0.148
-434.705	-73.017	-0.081	-0.030
-433.690	-150.632	-0.217	-0.017
-432.676	800.000	-0.008	0.029
-431.661	-200.000	-0.004	0.123
-430.646	-200.000	0.020	0.157
-429.632	-187.193	0.174	-0.002
-428.617	-140.465	0.238	0.025
-427.603	-200.000	-0.044	0.454
-426.588	-112.884	-0.108	0.021
-425.573	-89.610	0.152	0.045
-424.559	-124.809	-0.542	-0.084
-423.544	-131.361	-0.058	0.008
-422.530	-185.904	0.055	0.001
-421.515	-200.000	-0.072	-0.437
-420.500	-93.708	-0.051	-0.014
-419.486	-123.694	0.300	-0.048
-418.471	165.990	0.216	-0.307
-417.457	381.106	-0.093	0.193
-416.442	-200.000	-0.004	-0.254
-415.428	1.172	0.252	0.182
-414.413	-105.297	0.566	0.130
-413.398	54.250	-0.235	0.228
-412.384	776.799	-0.110	0.302
-411.369	-64.413	-0.061	-0.025
-410.355	-20.758	-0.212	0.130
-409.340	-191.053	0.058	-0.001
-408.325	-200.000	0.000	-0.034
-407.311	-200.000	-0.039	0.259
-406.296	-57.383	0.163	-0.072
-405.282	86.360	0.170	0.189
-404.267	-99.398	0.234	0.059
-403.252	800.000	0.114	-0.391
-402.238	-200.000	0.049	-0.297
-401.223	213.540	-0.175	-0.279
-400.209	683.043	-0.108	0.283
-399.194	-200.000	-0.039	0.343
-398.179	-200.000	-0.012	-0.118
-397.165	-16.398	0.194	0.124
-396.150	800.000	-0.062	0.240
-395.136	69.834	-0.087	-0.090
-394.121	524.917	0.049	0.117
-393.106	22.815	0.271	0.223
-392.092	-1.216	0.090	-0.064
-391.077	92.328	0.177	0.200
-390.063	157.312	-0.267	0.371
-389.048	134.351	-0.120	-0.156
-388.033	-200.000	-0.003	-0.168
-387.019	-187.327	-0.229	0.003
-386.004	162.447	0.034	0.048
-384.990	15.018	0.154	-0.121
-383.975	-20.983	0.431	-0.265
-382.960	-64.973	0.216	-0.088
-381.946	-200.000	-0.004	0.272
-380.931	111.864	0.146	0.177
-379.917	408.611	-0.084	0.179
-378.902	541.697	-0.138	0.331
-377.888	254.608	0.057	-0.098
-376.873	-36.206	-0.443	0.240
-375.858	226.125	0.105	0.170
-374.844	534.670	-0.111	-0.265
-373.829	58.516	-0.174	0.171
-372.815	-101.235	0.036	0.009
-371.800	-107.706	-0.183	-0.040
-370.785	88.727	0.311	0.347
-369.771	-66.380	-0.452	-0.180
-368.756	-138.229	-0.297	-0.033
-367.742	329.242	-0.037	0.072
-366.727	291.683	-0.050	-0.091
-365.712	41.165	-0.182	-0.165
-364.698	-200.000	0.066	0.324
-363.683	1.328	-0.075	0.054
-362.669	298.484	-0.254	0.468
-361.654	-127.079	0.235	-0.035
-360.639	-68.088	-0.210	0.082
-359.625	-95.898	-0.406	0.109
-358.610	800.000	-0.047	0.132
-357.596	-96.201	0.237	-0.063
-356.581	-19.185	0.151	-0.094
-355.566	800.000	0.082	0.305
-354.552	97.753	0.169	0.195
-353.537	-63.021	0.340	0.141
-352.523	-43.942	-0.141	0.071
-351.508	235.068	-0.134	0.221
-350.493	-200.000	0.051	-0.375
-349.479	-200.000	-0.053	-0.323
-348.464	-104.374	-0.205	-0.048
-347.450	800.000	0.079	0.277
-346.435	795.932	0.058	-0.161
-345.420	301.324	-0.071	0.131
-344.406	-200.000	-0.001	-0.054
-343.391	-200.000	0.002	-0.378
-342.377	388.676	0.048	0.100
-341.362	-200.000	-0.024	-0.237
-340.348	-53.165	0.205	-0.094
-339.333	800.000	-0.056	-0.212
-338.318	797.650	0.103	-0.284
-337.304	-139.780	-0.181	0.019
-336.289	-200.000	0.016	0.106
-335.275	120.266	0.159	0.198
-334.260	-200.000	-0.006	0.126
-333.245	800.000	0.051	0.169
-332.231	2.415	0.195	0.141
-331.216	5.642	0.127	0.094
-330.202	-185.775	0.100	-0.001
-329.187	-200.000	-0.048	-0.278
-328.172	76.905	0.103	-0.109
-327.158	-200.000	0.021	0.402
-326.143	23.683	-0.255	0.210
-325.129	-45.900	0.126	0.062
-324.114	27.202	-0.227	0.191
-323.099	-200.000	0.011	-0.069
-322.085	26.662	-0.069	-0.058
-321.070	283.727	-0.082	0.148
-320.056	-175.167	-0.183	-0.005
-319.041	-88.035	0.025	0.008
-318.026	-187.742	0.214	0.003
-317.012	386.684	-0.093	0.192
-315.997	5.546	0.229	-0.169
-314.983	143.396	0.220	0.293
-313.968	800.000	0.022	-0.064
-312.953	-200.000	-0.031	0.419
-311.939	-98.580	-0.184	0.047
-310.924	536.529	0.090	0.215
-309.910	110.995	-0.068	-0.082
-308.895	-36.344	-0.154	-0.083
-307.880	-200.000	-0.036	0.230
-306.866	-61.950	0.101	-0.042
-305.851	-200.000	-0.013	-0.294
-304.837	67.224	0.062	0.063
-303.822	221.132	-0.296	-0.476
-302.807	130.732	-0.143	-0.183
-301.793	588.636	-0.133	0.327
-300.778	282.328	-0.109	0.196
-299.764	800.000	0.043	-0.164
-298.749	800.000	0.072	0.199
-297.735	48.385	-0.046	0.043
-296.720	525.686	-0.080	0.189
-295.705	354.887	0.027	0.053
-294.691	-200.000	-0.068	0.302
-293.676	800.000	-0.048	-0.163
-292.662	-166.974	-0.161	-0.007
-291.647	-37.081	-0.178	-0.095
-290.632	-48.757	-0.232	-0.111
-289.618	-8.534	0.123	-0.082
-288.603	29.606	-0.198	0.168
-287.589	-37.575	0.193	-0.103
-286.574	800.000	-0.143	0.477
-285.559	56.988	0.291	0.284
-284.545	-200.000	0.033	-0.337
-283.530	781.932	-0.084	0.230
-282.516	-56.800	-0.217	-0.096
-281.501	-102.969	0.249	-0.059
-280.486	30.773	0.249	0.213
-279.472	800.000	0.083	0.243
-278.457	55.615	0.091	-0.088
-277.443	800.000	0.041	0.129
-276.428	-79.472	-0.088	0.030
-275.413	-52.565	-0.050	0.023
-274.399	-200.000	0.011	-0.067
-273.384	-120.480	0.206	0.035
-272.370	-32.560	0.022	-0.012
-271.355	172.216	0.019	-0.028
-270.340	-115.252	0.283	0.054
-269.326	-200.000	-0.016	0.133
-268.311	50.300	-0.199	-0.188
-267.297	17.530	-0.258	-0.205
-266.282	353.543	-0.180	-0.357
-265.267	157.702	0.196	-0.270
-264.253	-116.825	-0.217	0.040
-263.238	-34.040	0.286	0.157
-262.224	135.351	0.117	0.152
-261.209	-200.000	0.020	-0.269
-260.195	-107.307	-0.320	0.070
-259.180	800.000	-0.044	0.181
-258.165	-200.000	-0.011	0.241
-257.151	160.588	0.217	0.303
-256.136	262.050	-0.141	0.244
-255.122	800.000	-0.036	0.150
-254.107	3.542	-0.131	0.095
-253.092	-17.350	-0.093	0.058
-252.078	-106.821	-0.139	0.031
-251.063	-20.638	-0.299	-0.183
-250.049	100.757	0.115	0.134
-249.034	-49.416	-0.270	-0.128
-248.019	697.195	-0.053	-0.138
-247.005	-17.628	0.145	-0.091
-245.990	415.802	-0.060	0.128
-244.976	707.534	0.111	0.293
-243.961	-92.029	0.161	-0.046
-242.946	-200.000	-0.334	0.001
-241.932	-67.550	-0.010	0.004
-240.917	-43.897	-0.287	0.144
-239.903	358.659	-0.069	-0.139
-238.888	800.000	0.046	0.187
-237.873	485.988	0.077	-0.175
-236.859	-12.422	0.100	0.065
-235.844	-88.163	-0.068	-0.020
-234.830	-200.000	0.013	-0.308
-233.815	-5.100	0.105	-0.072
-232.800	-121.100	0.099	0.017
-231.786	584.517	-0.039	-0.096
-230.771	-14.242	0.155	0.099
-229.757	-68.938	-0.165	0.064
-228.742	587.259	0.127	0.313
-227.727	-200.000	0.004	-0.305
-226.713	-71.428	0.224	-0.083
-225.698	69.627	-0.058	-0.059
-224.684	-41.213	0.195	-0.100
-223.669	-40.825	0.164	-0.085
-222.655	-135.277	0.124	-0.015
-221.640	466.302	0.094	-0.209
-220.625	-200.000	-0.020	0.104
-219.611	110.034	0.272	0.325
-218.596	-200.000	0.034	0.267
-217.582	-1.826	-0.273	0.192
-216.567	-59.980	0.499	0.212
-215.552	194.220	0.200	-0.302
-214.538	-95.860	0.410	0.109
-213.523	800.000	0.073	0.305
-212.509	-54.133	0.275	-0.124
-211.494	-200.000	0.002	-0.151
-210.479	148.350	-0.112	-0.150
-209.465	364.325	-0.183	0.367
-208.450	97.671	-0.198	-0.227
-207.436	-42.025	0.152	-0.078
-206.421	228.527	-0.081	-0.131
-205.406	94.100	-0.027	0.031
-204.392	63.079	0.105	-0.104
-203.377	-106.913	0.047	0.010
-202.363	-200.000	-0.055	0.515
-201.348	49.398	0.276	0.259
-200.333	98.741	0.187	-0.215
-199.319	346.838	0.131	-0.257
-198.304	-200.000	-0.033	0.166
-197.290	-200.000	0.054	-0.296
-196.275	0.267	-0.119	-0.085
-195.260	-80.432	0.199	-0.066
-194.246	397.861	0.072	-0.149
-193.231	-108.844	0.055	-0.012
-192.217	800.000	0.113	-0.357
-191.202	43.614	0.250	0.227
-190.187	76.990	-0.288	-0.304
-189.173	-153.620	0.289	-0.020
-188.158	800.000	0.114	0.339
-187.144	-57.614	0.066	0.029
-186.129	115.003	-0.094	0.114
-185.114	-40.085	-0.237	-0.123
-184.100	-129.408	0.345	-0.048
-183.085	-3.429	-0.141	-0.098
-182.071	-105.403	0.318	0.072
-181.056	717.632	-0.062	-0.163
-180.042	288.766	0.119	0.214
-179.027	-122.709	-0.038	0.006
-178.012	800.000	0.109	0.377
-176.998	-74.024	0.048	0.017
-175.983	800.000	-0.120	-0.440
-174.969	-45.986	0.555	0.272
-173.954	-55.214	0.121	-0.054
-172.939	514.579	-0.028	0.064
-171.925	-200.000	-0.002	-0.054
-170.910	800.000	0.084	-0.296
-169.896	-200.000	-0.057	0.255
-168.881	-200.000	0.022	-0.123
-167.866	-200.000	0.023	0.208
-166.852	306.105	0.133	0.247
-165.837	-62.609	-0.274	0.113
-164.823	-200.000	-0.050	-0.302
-163.808	90.711	-0.155	-0.173
-162.793	-35.803	0.212	-0.114
-161.779	-109.877	-0.021	0.004
-160.764	-200.000	0.011	0.139
-159.750	-59.797	0.223	-0.095
-158.735	-32.101	-0.019	0.010
-157.720	-200.000	0.004	0.091
-156.706	-49.775	0.209	-0.099
-155.691	37.249	0.072	-0.063
-154.677	-200.000	0.016	0.159
-153.662	800.000	-0.097	-0.274
-152.647	-200.000	0.010	-0.077
-151.633	530.878	-0.130	0.306
-150.618	4.595	0.093	-0.068
-149.604	170.149	-0.135	-0.192
-148.589	386.374	-0.084	0.173
-147.574	-85.146	0.288	0.090
-146.560	-28.495	-0.026	-0.015
-145.545	512.857	-0.079	0.183
-144.531	137.587	-0.098	-0.128
-143.516	800.000	-0.079	-0.237
-142.502	-99.735	-0.387	-0.096
-141.487	624.870	-0.067	0.168
-140.472	800.000	-0.014	-0.043
-139.458	800.000	-0.042	0.173
-138.443	149.224	0.123	0.166
-137.429	120.737	-0.058	-0.072
-136.414	39.933	0.223	0.199
-135.399	-200.000	-0.021	-0.206
-134.385	66.342	0.037	0.038
-133.370	365.523	0.159	0.318
-132.356	260.401	0.211	0.362
-131.341	485.551	-0.087	0.198
-130.326	-70.886	0.008	0.003
-129.312	304.375	-0.100	0.184
-128.297	-105.760	-0.146	-0.033
-127.283	91.234	0.325	-0.362
-126.268	-186.802	0.102	0.001
-125.253	683.881	-0.044	-0.113
-124.239	425.210	-0.029	-0.062
-123.224	99.423	0.244	-0.280
-122.210	-46.970	0.091	-0.044
-121.195	-20.337	-0.194	0.119
-120.180	-129.217	0.150	-0.021
-119.166	-128.277	-0.253	-0.036
-118.151	-152.225	-0.117	-0.008
-117.137	84.218	0.097	-0.105
-116.122	474.146	-0.100	0.225
-115.107	224.875	0.050	0.080
-114.093	-200.000	0.014	0.264
-113.078	258.655	-0.060	-0.103
-112.064	774.523	-0.121	-0.327
-111.049	395.363	-0.185	-0.384
-110.034	-159.976	0.155	-0.008
-109.020	334.408	0.120	0.231
-108.005	-126.001	-0.341	-0.051
-106.991	161.258	-0.208	-0.288
-105.976	-200.000	0.021	0.114
-104.962	53.167	0.170	0.161
-103.947	-200.000	0.208	0.001
-102.932	-129.466	0.084	-0.012
-101.918	-136.971	0.165	-0.019
-100.903	-20.497	0.297	-0.181
-99.889	-200.000	-0.043	-0.195
-98.874	116.491	0.167	0.203
-97.859	-200.000	0.027	0.524
-96.845	299.218	-0.014	-0.026
-95.830	67.445	-0.054	-0.055
-94.816	10.205	-0.132	-0.100
-93.801	-45.613	-0.081	-0.040
-92.786	39.125	0.076	-0.067
-91.772	-76.691	0.277	0.096
-90.757	69.841	-0.264	-0.270
-89.743	19.385	-0.035	0.028
-88.728	-56.183	-0.088	-0.039
-87.713	800.000	-0.087	0.296
-86.699	231.484	0.094	0.152
-85.684	77.737	0.072	-0.076
-84.670	-45.279	-0.142	0.070
-83.655	-39.241	-0.237	0.123
-82.640	-153.952	-0.068	-0.005
-81.626	76.657	-0.154	-0.162
-80.611	63.872	-0.147	-0.146
-79.597	-179.674	0.156	0.003
-78.582	-200.000	0.125	0.000
-77.567	205.581	-0.329	0.507
-76.553	191.002	0.021	-0.031
-75.538	-54.896	0.135	0.060
-74.524	223.634	0.053	0.085
-73.509	461.579	-0.120	0.265
-72.494	-95.387	0.038	-0.010
-71.480	800.000	0.118	0.410
-70.465	-115.213	0.200	-0.037
-69.451	-78.492	-0.138	0.047
-68.436	800.000	-0.102	0.312
-67.422	-147.970	0.538	0.044
-66.407	-77.423	-0.100	-0.034
-65.392	-68.340	0.090	0.035
-64.378	-200.000	-0.005	-0.026
-63.363	800.000	-0.113	0.319
-62.349	283.576	0.067	0.119
-61.334	23.832	-1.020	-0.833
-60.319	214.761	0.230	0.362
-59.305	-200.000	-0.134	-0.783
-58.290	175.373	0.756	1.085
-57.276	800.000	0.370	1.519
-56.261	-200.000	93.651	545.055
-55.246	488.818	1415.109	3202.373
-54.232	147.274	2630.911	3507.584
-53.217	99.812	2369.453	2718.327
-52.203	38.739	2123.877	1877.667
-51.188	33.951	2037.078	1756.740
-50.173	32.529	2018.466	1727.585
-49.159	46.763	2067.728	1902.225
-48.144	47.989	2084.896	1929.330
-47.130	34.694	2047.138	1772.028
-46.115	32.302	2037.406	1741.414
-45.100	32.236	2034.248	1738.032
-44.086	32.129	2032.006	1735.068
-43.071	32.116	2029.251	1732.518
-42.057	32.057	2026.951	1729.947
-41.042	32.151	2024.468	1728.623
-40.027	32.189	2022.537	1727.260
-39.013	32.181	2020.330	1725.230
-37.998	32.129	2019.098	1723.634
-36.984	32.203	2017.165	1722.595
-35.969	32.206	2015.365	1721.014
-34.954	32.296	2013.252	1719.962
-33.940	32.276	2012.194	1718.808
-32.925	32.336	2010.294	1717.663
-31.911	32.334	2008.695	1716.216
-30.896	32.244	2006.818	1713.722
-29.881	32.377	2005.218	1713.502
-28.867	32.364	2003.812	1712.107
-27.852	32.296	2002.431	1710.240
-26.838	32.399	1999.469	1708.580
-25.823	32.336	1997.643	1706.379
-24.809	32.266	1996.331	1704.554
-23.794	32.272	1994.230	1702.756
-22.779	32.326	1992.670	1701.841
-21.765	32.278	1990.882	1699.816
-20.750	32.286	1989.100	1698.298
-19.736	32.315	1987.541	1697.156
-18.721	32.418	1985.505	1696.283
-17.706	32.342	1984.507	1694.677
-16.692	32.414	1981.994	1693.114
-15.677	32.332	1980.758	1691.247
-14.663	32.292	1979.646	1689.872
-13.648	32.331	1978.198	1688.921
-12.633	32.341	1977.374	1688.237
-11.619	32.275	1976.511	1686.847
-10.604	32.314	1974.347	1685.282
-9.590	32.268	1972.804	1683.482
-8.575	32.332	1971.450	1682.831
-7.560	32.329	1970.318	1681.771
-6.546	32.320	1968.792	1680.328
-5.531	32.307	1968.366	1679.775
-4.517	32.320	1966.608	1678.326
-3.502	32.354	1965.351	1677.488
-2.487	32.300	1963.971	1675.767
-1.473	32.311	1962.993	1674.964
-0.458	32.502	1958.679	1672.918
0.556	31.782	1939.137	1648.909
1.571	27.729	1919.967	1597.064
2.586	23.139	1941.149	1573.812
3.600	21.333	1974.800	1584.593
4.615	20.154	1968.859	1569.030
5.629	15.502	1866.033	1446.957
6.644	6.597	1743.567	1279.885
7.659	1.623	1703.891	1211.130
8.673	1.123	1700.946	1204.951
9.688	1.113	1699.992	1204.091
10.702	1.050	1698.525	1202.444
11.717	0.995	1694.146	1198.801
12.731	1.422	1693.293	1201.473
13.746	7.160	1706.528	1256.388
14.761	14.384	1721.131	1324.645
15.775	17.323	1724.887	1350.806
16.790	17.392	1724.084	1350.606
17.804	16.557	1720.849	1341.331
18.819	15.665	1717.380	1331.449
19.834	14.923	1715.402	1323.921
20.848	14.657	1713.771	1320.443
21.863	14.388	1711.750	1316.645
22.877	14.174	1709.722	1313.283
23.892	13.881	1708.767	1310.115
24.907	13.719	1707.958	1308.099
25.921	13.759	1706.217	1306.966
26.936	13.780	1705.404	1306.395
27.950	13.729	1704.575	1305.245
28.965	13.804	1704.353	1305.550
29.980	13.916	1703.190	1305.420
30.994	13.822	1702.581	1304.099
32.009	13.939	1701.490	1304.066
33.023	13.971	1700.188	1303.207
34.038	14.012	1699.477	1302.867
35.053	14.007	1698.221	1301.749
36.067	13.961	1697.320	1300.587
37.082	13.947	1696.386	1299.647
38.096	13.825	1695.880	1298.184
39.111	13.939	1694.716	1298.071
40.126	13.979	1693.749	1297.531
41.140	13.997	1692.618	1296.690
42.155	13.869	1691.401	1294.645
43.169	13.809	1690.039	1293.018
44.184	13.824	1688.552	1291.886
45.199	13.804	1687.759	1291.003
46.213	13.847	1686.447	1290.227
47.228	13.780	1685.372	1288.769
48.242	13.715	1684.170	1287.226
49.257	13.852	1682.430	1286.848
50.271	13.886	1681.313	1286.145
51.286	13.852	1680.267	1284.966
52.301	13.772	1679.097	1283.336
53.315	13.820	1677.102	1282.074
54.330	13.899	1675.646	1281.454
55.344	13.878	1674.095	1279.990
56.359	13.812	1672.615	1278.241
57.374	13.881	1671.418	1277.745
58.388	13.899	1670.253	1276.878
59.403	13.828	1668.626	1274.978
60.417	13.821	1667.629	1274.048
61.432	13.750	1666.596	1272.602
62.447	13.851	1664.694	1271.813
63.461	13.793	1663.746	1270.531
64.476	13.757	1662.356	1269.082
65.490	13.748	1661.110	1267.949
66.505	13.782	1659.907	1267.177
67.520	13.697	1659.610	1266.188
68.534	13.729	1658.433	1265.420
69.549	13.728	1656.976	1264.193
70.563	13.755	1655.665	1263.285
71.578	13.785	1654.136	1262.236
72.593	13.735	1653.244	1261.058
73.607	13.580	1652.536	1259.232
74.622	13.677	1651.198	1258.838
75.636	13.711	1650.206	1258.230
76.651	13.690	1649.236	1257.215
77.666	13.660	1648.277	1256.149
78.680	13.665	1647.498	1255.480
79.695	13.668	1646.428	1254.579
80.709	13.741	1645.317	1254.173
81.724	13.698	1644.471	1253.089
82.739	13.759	1643.544	1252.734
83.753	13.819	1642.468	1252.259
84.768	13.768	1641.646	1251.132
85.782	13.926	1640.247	1251.149
86.797	13.993	1639.728	1251.148
87.812	13.807	1638.839	1248.957
88.826	13.853	1637.204	1247.946
89.841	13.790	1636.406	1246.757
90.855	13.788	1635.213	1245.722
91.870	13.892	1633.867	1245.365
92.884	13.887	1633.116	1244.647
93.899	13.868	1632.569	1243.974
94.914	13.943	1630.496	1242.848
95.928	13.936	1629.518	1241.942
96.943	13.932	1628.234	1240.820
97.957	13.917	1626.560	1239.321
98.972	13.865	1625.572	1238.074
99.987	13.931	1623.561	1236.923
101.001	13.917	1622.024	1235.536
102.016	13.917	1620.411	1234.201
103.030	13.873	1619.030	1232.712
104.045	13.774	1618.181	1231.222
105.060	13.863	1616.620	1230.585
106.074	13.962	1614.954	1229.940
107.089	13.796	1613.665	1227.620
108.103	13.793	1612.237	1226.403
109.118	13.739	1610.799	1224.807
110.133	13.826	1608.974	1223.954
111.147	13.812	1607.726	1222.788
112.162	13.743	1606.873	1221.525
113.176	13.736	1605.253	1220.134
114.191	13.766	1604.087	1219.360
115.206	13.939	1602.419	1219.254
116.220	13.805	1601.818	1217.707
117.235	13.761	1600.249	1216.084
118.249	13.868	1598.616	1215.517
119.264	13.851	1597.239	1214.241
120.279	13.763	1596.163	1212.666
121.293	13.839	1594.624	1211.950
122.308	13.797	1592.934	1210.251
123.322	13.837	1591.044	1208.998
124.337	13.748	1589.843	1207.332
125.352	13.785	1588.761	1206.675
126.366	13.798	1587.788	1205.919
127.381	13.755	1586.268	1204.346
128.395	13.773	1585.676	1203.921
129.410	13.791	1583.964	1202.649
130.424	13.749	1582.505	1201.126
131.439	13.874	1581.189	1200.927
132.454	13.891	1579.831	1199.912
133.468	13.921	1578.448	1198.971
134.483	13.927	1577.138	1197.912
135.497	13.915	1575.154	1196.217
136.512	13.855	1574.040	1194.833
137.527	13.868	1573.146	1194.137
138.541	13.935	1571.407	1193.194
139.556	13.953	1569.772	1191.982
140.570	13.962	1568.220	1190.762
141.585	13.985	1566.621	1189.606
142.600	13.965	1565.492	1188.502
143.614	14.063	1564.243	1188.145
144.629	13.959	1563.473	1186.712
145.643	14.080	1561.808	1186.204
146.658	14.142	1560.516	1185.560
147.673	14.036	1558.588	1183.238
148.687	14.041	1557.572	1182.400
149.702	14.025	1555.871	1180.886
150.716	14.036	1554.060	1179.491
151.731	13.996	1552.757	1178.111
152.746	14.068	1551.443	1177.520
153.760	13.980	1549.690	1175.459
154.775	14.094	1548.546	1175.300
155.789	14.028	1547.452	1173.897
156.804	14.039	1546.173	1172.898
157.819	14.085	1544.973	1172.210
158.833	14.082	1543.269	1170.793
159.848	14.197	1542.586	1170.977
160.862	14.308	1541.072	1170.506
161.877	14.242	1540.022	1169.139
162.892	14.212	1538.538	1167.702
163.906	14.116	1537.626	1166.234
164.921	14.116	1536.615	1165.361
165.935	14.109	1535.368	1164.268
166.950	14.115	1534.371	1163.448
167.964	14.149	1533.157	1162.663
168.979	14.144	1532.332	1161.899
169.994	14.169	1531.183	1161.099
171.008	14.152	1529.920	1159.919
172.023	14.143	1529.311	1159.296
173.037	14.225	1527.734	1158.567
174.052	14.274	1526.503	1157.871
175.067	14.351	1525.421	1157.484
176.081	14.164	1524.686	1155.527
177.096	14.237	1523.037	1154.677
178.110	14.171	1521.874	1153.236
179.125	14.220	1520.621	1152.527
180.140	14.228	1519.145	1151.363
181.154	14.233	1518.178	1150.558
182.169	14.297	1517.101	1150.085
183.183	14.333	1516.006	1149.404
184.198	14.393	1514.498	1148.570
185.213	14.443	1513.568	1148.109
186.227	14.366	1512.471	1146.640
187.242	14.423	1511.560	1146.240
188.256	14.530	1510.087	1145.758
189.271	14.500	1509.300	1144.854
190.286	14.573	1507.839	1144.143
191.300	14.545	1506.797	1143.059
192.315	14.393	1506.097	1141.387
193.329	14.393	1504.714	1140.241
194.344	14.397	1503.363	1139.144
195.359	14.456	1502.230	1138.584
196.373	14.505	1501.413	1138.201
197.388	14.428	1500.519	1136.899
198.402	14.506	1499.312	1136.417
199.417	14.599	1497.970	1135.932
200.432	14.591	1497.129	1135.134
201.446	14.633	1496.356	1134.736
202.461	14.656	1495.232	1133.939
203.475	14.645	1494.165	1132.958
204.490	14.670	1492.965	1132.117
205.504	14.779	1491.790	1131.859
206.519	14.673	1490.913	1130.377
207.534	14.668	1489.707	1129.328
208.548	14.689	1488.384	1128.368
209.563	14.665	1487.330	1127.309
210.577	14.765	1486.169	1127.004
211.592	14.780	1485.410	1126.430
212.607	14.816	1484.510	1125.887
213.621	14.761	1483.798	1124.880
214.636	14.847	1483.253	1124.947
215.650	14.880	1481.793	1123.959
216.665	14.853	1480.810	1122.934
217.680	14.788	1480.365	1122.063
218.694	14.827	1479.326	1121.435
219.709	14.923	1478.254	1121.170
220.723	14.939	1477.351	1120.494
221.738	14.887	1476.511	1119.405
222.753	15.006	1475.328	1119.209
223.767	14.963	1474.673	1118.323
224.782	14.882	1473.451	1116.755
225.796	14.990	1472.686	1116.797
226.811	15.006	1471.871	1116.191
227.826	15.048	1470.558	1115.371
228.840	15.055	1470.214	1115.058
229.855	14.962	1469.415	1113.737
230.869	15.080	1468.117	1113.440
231.884	15.076	1467.269	1112.670
232.899	15.017	1465.961	1111.190
233.913	15.035	1464.410	1110.034
234.928	14.999	1463.526	1109.027
235.942	14.992	1462.668	1108.235
236.957	14.942	1461.745	1107.103
237.972	15.024	1459.977	1106.209
238.986	15.068	1458.966	1105.634
240.001	15.107	1458.097	1105.136
241.015	15.087	1456.968	1104.050
242.030	15.131	1455.625	1103.227
243.045	15.068	1455.017	1102.253
244.059	15.109	1453.828	1101.526
245.074	15.159	1452.676	1100.883
246.088	15.204	1451.928	1100.514
247.103	15.235	1451.145	1100.024
248.117	15.254	1450.721	1099.736
249.132	15.187	1449.736	1098.453
250.147	15.305	1449.269	1098.773
251.161	15.418	1448.092	1098.524
252.176	15.419	1447.695	1098.131
253.190	15.455	1446.619	1097.452
254.205	15.410	1445.760	1096.409
255.220	15.545	1444.500	1096.240
256.234	15.387	1444.366	1095.011
257.249	15.438	1443.668	1094.717
258.263	15.589	1442.260	1094.532
259.278	15.591	1441.527	1093.893
260.293	15.561	1440.524	1092.844
261.307	15.606	1439.870	1092.543
262.322	15.625	1438.954	1091.873
263.336	15.569	1438.311	1090.925
264.351	15.628	1437.186	1090.355
265.366	15.672	1435.982	1089.633
266.380	15.752	1434.583	1088.991
267.395	15.789	1433.694	1088.459
268.409	15.631	1433.176	1086.950
269.424	15.801	1431.925	1087.002
270.439	15.677	1431.169	1085.530
271.453	15.661	1430.481	1084.811
272.468	15.737	1429.386	1084.373
273.482	15.751	1428.749	1083.883
274.497	15.707	1428.098	1083.012
275.512	15.756	1427.128	1082.498
276.526	15.727	1425.994	1081.355
277.541	15.758	1424.851	1080.592
278.555	15.853	1423.662	1080.206
279.570	15.816	1423.119	1079.460
280.585	15.793	1422.855	1079.016
281.599	15.942	1421.622	1078.938
282.614	15.914	1420.397	1077.734
283.628	15.832	1419.828	1076.681
284.643	15.946	1418.211	1076.092
285.657	15.865	1417.385	1074.850
286.672	15.840	1416.543	1073.955
287.687	15.911	1415.664	1073.647
288.701	16.008	1414.397	1073.208
289.716	16.002	1413.546	1072.429
290.730	15.917	1413.093	1071.450
291.745	16.018	1412.051	1071.207
292.760	15.977	1410.984	1070.047
293.774	16.038	1410.003	1069.597
294.789	16.025	1408.905	1068.587
295.803	16.133	1407.882	1068.398
296.818	16.014	1407.664	1067.384
297.833	16.035	1406.210	1066.319
298.847	16.031	1405.479	1065.645
299.862	16.063	1404.553	1065.053
300.876	16.069	1403.539	1064.223
301.891	16.125	1401.974	1063.298
302.906	16.262	1400.910	1063.262
303.920	16.230	1400.630	1062.755
304.935	16.218	1399.901	1062.033
305.949	16.296	1399.323	1061.988
306.964	16.258	1398.523	1061.047
307.979	16.268	1397.610	1060.321
308.993	16.365	1396.231	1059.793
310.008	16.258	1395.444	1058.434
311.022	16.395	1394.253	1058.290
312.037	16.339	1393.133	1056.998
313.052	16.422	1392.332	1056.816
314.066	16.328	1391.716	1055.666
315.081	16.293	1390.426	1054.375
316.095	16.346	1389.198	1053.684
317.110	16.332	1388.448	1052.930
318.125	16.367	1387.446	1052.301
319.139	16.443	1386.090	1051.647
320.154	16.334	1385.255	1050.249
321.168	16.429	1384.311	1050.025
322.183	16.220	1383.721	1048.187
323.197	16.335	1382.383	1047.795
324.212	16.472	1381.411	1047.812
325.227	16.457	1380.882	1047.230
326.241	16.497	1379.677	1046.470
327.256	16.553	1378.530	1045.855
328.270	16.472	1378.381	1045.148
329.285	16.460	1377.466	1044.287
330.300	16.447	1376.557	1043.425
331.314	16.556	1375.492	1043.198
332.329	16.602	1374.494	1042.634
333.343	16.585	1373.460	1041.653
334.358	16.634	1372.903	1041.438
335.373	16.571	1372.237	1040.455
336.387	16.698	1371.051	1040.244
337.402	16.599	1370.198	1038.894
338.416	16.626	1369.647	1038.552
339.431	16.638	1369.287	1038.258
340.446	16.687	1368.732	1038.049
341.460	16.710	1367.387	1037.075
342.475	16.751	1366.124	1036.276
343.489	16.829	1365.339	1036.069
344.504	16.815	1364.562	1035.303
345.519	16.896	1363.161	1034.638
346.533	16.831	1362.276	1033.480
347.548	16.911	1361.385	1033.203
348.562	16.849	1361.115	1032.524
349.577	16.982	1359.783	1032.236
350.592	16.858	1359.460	1031.142
351.606	16.868	1358.369	1030.282
352.621	16.922	1357.183	1029.621
353.635	16.844	1356.250	1028.349
354.650	16.841	1355.260	1027.492
355.665	16.885	1354.211	1026.870
356.679	16.895	1353.492	1026.292
357.694	16.896	1352.488	1025.450
358.708	16.911	1351.266	1024.525
359.723	16.897	1350.413	1023.698
360.738	16.910	1349.136	1022.719
361.752	17.018	1347.976	1022.402
362.767	17.035	1346.750	1021.483
363.781	16.965	1346.220	1020.568
364.796	17.027	1345.474	1020.284
365.810	17.121	1344.545	1020.055
366.825	17.099	1343.909	1019.352
367.840	17.046	1343.306	1018.488
368.854	17.069	1342.436	1017.874
369.869	17.201	1341.613	1017.954
370.883	17.274	1340.919	1017.774
371.898	17.201	1340.515	1016.936
372.913	17.309	1339.374	1016.629
373.927	17.144	1338.649	1015.000
374.942	17.256	1337.583	1014.770
375.956	17.243	1337.050	1014.201
376.971	17.282	1336.350	1013.816
377.986	17.241	1335.428	1012.778
379.000	17.321	1334.288	1012.302
380.015	17.317	1333.516	1011.604
381.029	17.402	1332.658	1011.369
382.044	17.463	1332.111	1011.225
383.059	17.414	1331.627	1010.477
384.073	17.358	1331.244	1009.766
385.088	17.398	1330.510	1009.359
386.102	17.459	1329.539	1008.894
387.117	17.517	1328.532	1008.381
388.132	17.497	1327.828	1007.641
389.146	17.502	1327.285	1007.171
390.161	17.476	1326.382	1006.241
391.175	17.538	1325.515	1005.862
392.190	17.521	1324.629	1005.000
393.205	17.497	1323.665	1004.035
394.219	17.531	1322.591	1003.332
395.234	17.720	1321.240	1003.332
396.248	17.486	1320.590	1001.371
397.263	17.562	1319.035	1000.553
398.278	17.677	1317.377	999.883
399.292	17.559	1316.522	998.453
400.307	17.613	1315.232	997.702
401.321	17.570	1314.606	996.889
402.336	17.561	1313.674	996.039
403.350	17.601	1312.597	995.365
404.365	17.688	1311.645	995.064
405.380	17.752	1310.757	994.678
406.394	17.620	1310.279	993.457
407.409	17.737	1309.262	993.278
408.423	17.720	1308.834	992.766
409.438	17.707	1308.246	992.158
410.453	17.815	1307.021	991.769
411.467	17.760	1306.542	990.998
412.482	17.727	1305.936	990.261
413.496	17.840	1305.033	990.145
414.511	17.747	1304.615	989.197
415.526	17.817	1303.764	988.868
416.540	17.909	1303.154	988.853
417.555	18.001	1301.885	988.338
418.569	17.960	1301.246	987.524
419.584	18.007	1301.278	987.734
420.599	18.126	1300.445	987.703
421.613	93.727	1352.941	1459.607
422.628	92.253	1360.563	1459.717
