DTS Sentinel unit serial number:	SN413079Multiplexer serial number:	ORYXHardware model number:	OX4-SRSoftware version number:	ORYX F/W v4.00 Oryx Data Collector v3.7.2.0data status	okinstallation	princeton_trtdifferential loss correction	single-endedforward channel	channel 4reverse channel	N/Adate	2019/09/19time	05:29:34forward acquisition time	60.00reverse acquisition time	0.00gamma	496.2192k internal	0.2340k external	0.2340temperature offset calibration	1.0029default loss term (dB/km)	0.3790temperature slope calibration	1.0000multiplexer offset coefficient	1.0000multiplexer slope coefficient	1.0000fibre end	0.00T internal ref (°C)	19.39T ext. ref 1 (°C)	0.59T ext. ref 2 (°C)	13.02length (m)	temperature (°C)	Stokes	anti-Stokes-747.200	46.077	0.084	0.078
-746.185	362.471	0.079	0.158
-745.171	-24.000	0.132	-0.079
-744.156	-200.000	-0.050	0.263
-743.142	308.111	-0.138	0.259
-742.127	-73.404	0.259	-0.095
-741.112	129.913	0.137	0.176
-740.098	80.225	-0.301	0.325
-739.083	447.718	-0.092	-0.204
-738.069	-200.000	-0.011	0.387
-737.054	40.651	-0.052	0.047
-736.039	95.814	-0.163	0.186
-735.025	800.000	0.113	-0.389
-734.010	114.215	-0.105	0.129
-732.996	800.000	-0.132	-0.373
-731.981	437.291	-0.050	0.109
-730.966	-200.000	0.004	-0.299
-729.952	-101.099	-0.177	0.044
-728.937	-200.000	0.004	-0.175
-727.923	-200.000	0.045	0.217
-726.908	338.265	-0.069	-0.134
-725.894	321.682	-0.100	-0.191
-724.879	800.000	-0.091	-0.276
-723.864	-200.000	0.021	-0.196
-722.850	7.286	-0.201	-0.150
-721.835	800.000	-0.075	-0.263
-720.821	227.222	0.147	-0.240
-719.806	-17.170	0.190	0.120
-718.791	224.167	0.030	0.049
-717.777	-183.941	-0.472	0.008
-716.762	800.000	0.048	0.144
-715.748	-58.853	0.336	0.146
-714.733	-33.316	-0.276	-0.153
-713.718	781.083	-0.184	0.504
-712.704	71.885	0.075	-0.078
-711.689	-97.002	0.166	-0.044
-710.675	800.000	0.089	-0.249
-709.660	725.107	-0.009	0.025
-708.645	-11.112	-0.220	-0.145
-707.631	613.153	-0.125	-0.313
-706.616	-164.672	-0.422	-0.019
-705.602	729.656	-0.064	0.171
-704.587	-87.007	-0.343	0.105
-703.572	115.666	-0.075	-0.092
-702.558	5.492	0.036	0.027
-701.543	-140.538	-0.196	-0.020
-700.529	227.880	-0.200	0.326
-699.514	-6.589	0.149	0.101
-698.499	-121.827	-0.287	0.047
-697.485	249.780	-0.079	-0.133
-696.470	-66.472	-0.172	0.069
-695.456	-72.707	0.067	0.025
-694.441	-38.136	-0.145	0.077
-693.426	-137.663	0.093	0.010
-692.412	800.000	-0.109	-0.421
-691.397	-126.761	0.398	0.059
-690.383	-137.378	-0.258	0.029
-689.368	-78.713	-0.286	0.098
-688.354	-200.000	-0.016	-0.318
-687.339	132.474	-0.054	-0.069
-686.324	34.407	-0.032	-0.028
-685.310	-33.647	0.115	0.064
-684.295	-200.000	-0.031	-0.408
-683.281	306.206	-0.064	-0.120
-682.266	211.899	-0.056	-0.089
-681.251	-200.000	0.007	0.156
-680.237	-55.035	-0.361	0.163
-679.222	397.255	0.022	-0.046
-678.208	101.171	-0.303	-0.353
-677.193	3.905	-0.118	-0.086
-676.178	-103.920	0.361	-0.084
-675.164	60.721	0.117	-0.116
-674.149	-200.000	-0.061	-0.316
-673.135	-200.000	0.007	0.154
-672.120	-184.584	-0.103	0.002
-671.105	78.152	0.118	0.126
-670.091	782.466	-0.107	-0.293
-669.076	-47.193	-0.117	0.057
-668.062	-200.000	-0.008	0.274
-667.047	-128.116	0.080	0.012
-666.032	-200.000	-0.003	-0.170
-665.018	96.480	0.291	0.333
-664.003	207.754	0.124	0.193
-662.989	-30.534	-0.083	-0.047
-661.974	308.277	-0.224	-0.418
-660.959	-130.716	-0.167	0.022
-659.945	-6.273	-0.185	0.126
-658.930	-58.733	0.119	-0.051
-657.916	34.906	0.118	-0.103
-656.901	-200.000	-0.013	-0.447
-655.886	340.267	0.007	0.014
-654.872	-27.421	0.177	0.103
-653.857	358.363	-0.089	0.178
-652.843	-3.713	0.227	-0.157
-651.828	509.131	0.022	-0.051
-650.814	-200.000	0.018	-0.181
-649.799	-200.000	-0.011	-0.235
-648.784	131.589	-0.099	-0.127
-647.770	-200.000	-0.009	0.393
-646.755	92.922	-0.241	-0.271
-645.741	-200.000	0.015	0.175
-644.726	-57.485	-0.049	-0.021
-643.711	-73.763	-0.295	-0.107
-642.697	800.000	-0.042	0.123
-641.682	-82.434	-0.239	-0.078
-640.668	157.636	-0.082	-0.113
-639.653	-58.497	-0.378	-0.164
-638.638	-132.429	0.291	-0.037
-637.624	-3.394	0.210	-0.146
-636.609	-124.417	-0.470	-0.073
-635.595	388.285	-0.043	0.088
-634.580	-200.000	0.027	0.135
-633.565	-99.077	-0.073	0.019
-632.551	-47.362	-0.099	0.048
-631.536	800.000	0.148	-0.485
-630.522	-200.000	-0.001	-0.225
-629.507	800.000	-0.082	-0.272
-628.492	-141.428	0.406	0.041
-627.478	51.933	0.124	0.118
-626.463	127.258	-0.115	0.146
-625.449	-121.155	-0.060	0.010
-624.434	-5.001	-0.182	0.125
-623.419	70.230	0.118	0.122
-622.405	-122.141	0.124	0.020
-621.390	153.369	-0.139	-0.190
-620.376	800.000	-0.054	-0.197
-619.361	-200.000	0.071	-0.490
-618.346	-64.316	0.263	0.107
-617.332	501.779	0.036	0.083
-616.317	-105.604	0.104	-0.023
-615.303	-116.432	-0.137	-0.025
-614.288	-30.789	-0.322	0.181
-613.273	120.293	0.138	0.171
-612.259	446.804	-0.076	-0.167
-611.244	406.300	0.094	0.197
-610.230	-147.647	0.151	0.013
-609.215	-152.331	-0.053	-0.004
-608.201	-9.900	-0.225	0.149
-607.186	277.881	0.115	-0.204
-606.171	57.416	0.052	-0.050
-605.157	-47.001	0.294	-0.143
-604.142	-105.212	0.289	-0.066
-603.128	78.496	0.114	-0.121
-602.113	-24.785	0.313	-0.185
-601.098	800.000	0.077	0.267
-600.084	-101.878	-0.242	-0.058
-599.069	-73.044	0.478	-0.175
-598.055	53.605	-0.122	0.117
-597.040	-200.000	-0.010	0.260
-596.025	-81.932	0.117	-0.038
-595.011	75.989	-0.125	-0.132
-593.996	-200.000	0.001	-0.051
-592.982	1.961	0.319	-0.230
-591.967	-200.000	-0.027	-0.641
-590.952	-61.065	-0.275	0.115
-589.938	-175.801	-0.263	-0.007
-588.923	-170.158	0.184	-0.006
-587.909	-50.335	-0.395	-0.186
-586.894	800.000	-0.023	-0.074
-585.879	-146.414	-0.236	-0.021
-584.865	-13.197	0.139	0.090
-583.850	191.260	-0.145	0.218
-582.836	181.946	0.173	0.254
-581.821	145.165	0.125	0.167
-580.806	800.000	0.088	-0.264
-579.792	-200.000	0.021	0.236
-578.777	-200.000	-0.000	0.139
-577.763	18.989	0.077	-0.061
-576.748	-143.280	-0.077	-0.007
-575.733	451.053	-0.068	-0.150
-574.719	-7.473	0.201	-0.135
-573.704	-154.133	-0.091	-0.006
-572.690	70.659	0.168	0.173
-571.675	-200.000	-0.033	0.190
-570.661	-200.000	-0.007	-0.276
-569.646	-200.000	0.026	-0.331
-568.631	-100.720	-0.055	-0.014
-567.617	104.879	0.116	0.136
-566.602	111.910	-0.236	-0.283
-565.588	186.906	0.137	-0.203
-564.573	-105.315	0.237	-0.054
-563.558	-83.731	-0.247	0.079
-562.544	-200.000	-0.029	0.213
-561.529	-200.000	0.004	0.211
-560.515	-200.000	0.018	0.157
-559.500	-200.000	0.036	-0.159
-558.485	94.330	0.238	-0.269
-557.471	-107.352	-0.305	-0.067
-556.456	147.007	-0.087	0.117
-555.442	674.621	0.108	0.278
-554.427	-52.105	-0.160	-0.074
-553.412	139.895	0.144	-0.188
-552.398	-115.100	-0.248	-0.047
-551.383	-106.414	0.314	-0.070
-550.369	-200.000	0.090	-0.445
-549.354	11.622	0.078	0.060
-548.339	137.725	0.108	-0.141
-547.325	10.845	-0.294	0.223
-546.310	-125.250	-0.240	0.036
-545.296	-200.000	-0.017	0.390
-544.281	800.000	-0.005	-0.015
-543.266	106.602	-0.082	-0.096
-542.252	800.000	-0.036	0.141
-541.237	259.269	0.225	0.386
-540.223	-200.000	-0.045	-0.275
-539.208	-135.460	0.299	-0.035
-538.193	259.195	-0.140	0.240
-537.179	86.858	0.115	-0.126
-536.164	-71.761	-0.265	-0.098
-535.150	42.505	0.305	-0.275
-534.135	145.842	0.201	-0.268
-533.121	-147.524	-0.383	0.032
-532.106	-45.377	-0.296	-0.146
-531.091	-145.916	0.281	-0.025
-530.077	-46.884	-0.151	-0.073
-529.062	-200.000	-0.040	-0.259
-528.048	-185.694	-0.127	-0.002
-527.033	800.000	-0.065	-0.200
-526.018	-9.041	0.153	-0.102
-525.004	-0.179	0.140	0.099
-523.989	262.546	0.088	-0.152
-522.975	76.133	-0.091	-0.096
-521.960	272.418	0.071	0.125
-520.945	-200.000	0.027	0.186
-519.931	-142.456	-0.097	-0.009
-518.916	73.586	0.163	-0.170
-517.902	-119.978	0.007	-0.001
-516.887	74.355	-0.142	0.148
-515.872	12.283	0.174	-0.133
-514.858	-10.710	-0.324	-0.213
-513.843	800.000	-0.084	0.324
-512.829	-200.000	0.011	0.205
-511.814	46.034	-0.140	0.129
-510.799	-200.000	-0.044	-0.271
-509.785	125.532	0.174	-0.218
-508.770	-43.167	-0.115	0.058
-507.756	588.922	-0.145	0.356
-506.741	800.000	0.028	-0.108
-505.726	334.893	0.097	-0.187
-504.712	-200.000	0.029	0.181
-503.697	-106.396	-0.235	-0.052
-502.683	331.929	0.076	-0.145
-501.668	169.021	0.068	0.097
-500.653	46.163	0.274	-0.252
-499.639	185.516	-0.110	-0.163
-498.624	-11.423	0.166	-0.109
-497.610	21.638	0.160	0.129
-496.595	-150.943	0.222	-0.017
-495.581	-200.000	-0.004	0.108
-494.566	-124.582	-0.161	0.025
-493.551	-155.457	0.072	0.005
-492.537	-200.000	0.066	-0.357
-491.522	800.000	0.010	0.045
-490.508	-91.934	-0.240	-0.068
-489.493	800.000	0.067	0.194
-488.478	-117.042	-0.175	-0.032
-487.464	-91.504	0.396	-0.112
-486.449	196.319	0.182	-0.275
-485.435	-12.274	0.182	-0.118
-484.420	800.000	-0.102	-0.298
-483.405	159.171	-0.075	0.103
-482.391	17.093	0.091	0.072
-481.376	521.008	0.227	0.528
-480.362	-200.000	-0.008	0.327
-479.347	-77.618	-0.276	-0.095
-478.332	32.077	0.042	-0.036
-477.318	-200.000	-0.006	0.271
-476.303	-200.000	-0.027	-0.136
-475.289	-45.668	-0.218	-0.107
-474.274	-85.771	0.036	0.011
-473.259	254.416	-0.097	0.164
-472.245	668.072	0.053	0.136
-471.230	22.872	0.371	-0.301
-470.216	-48.230	-0.302	-0.145
-469.201	159.679	-0.019	0.026
-468.186	-200.000	-0.000	0.140
-467.172	-200.000	-0.031	0.220
-466.157	-92.504	0.308	-0.086
-465.143	-153.387	-0.336	0.023
-464.128	-200.000	-0.018	0.187
-463.113	800.000	0.045	0.170
-462.099	-200.000	-0.021	0.245
-461.084	324.531	0.191	-0.362
-460.070	-200.000	0.019	-0.208
-459.055	-91.468	-0.179	-0.051
-458.040	800.000	-0.126	-0.456
-457.026	-120.969	-0.097	-0.016
-456.011	57.320	-0.168	0.163
-454.997	800.000	0.057	0.225
-453.982	800.000	-0.137	-0.405
-452.968	120.769	0.030	0.037
-451.953	800.000	0.058	0.224
-450.938	235.672	0.081	0.132
-449.924	-66.331	-0.142	0.056
-448.909	141.781	0.014	0.019
-447.895	-200.000	-0.016	-0.174
-446.880	261.825	-0.152	0.260
-445.865	-136.204	0.391	-0.045
-444.851	-200.000	-0.013	-0.099
-443.836	5.896	-0.084	-0.062
-442.822	-58.876	-0.345	0.148
-441.807	-121.679	0.196	-0.032
-440.792	-200.000	-0.006	-0.106
-439.778	800.000	0.048	0.136
-438.763	-200.000	0.000	-0.050
-437.749	-187.472	-0.105	-0.001
-436.734	-125.826	0.108	-0.016
-435.719	102.337	-0.155	0.179
-434.705	207.473	-0.201	0.310
-433.690	-134.430	-0.349	0.042
-432.676	75.594	0.084	-0.088
-431.661	-96.444	0.462	0.121
-430.646	220.598	0.147	-0.234
-429.632	408.925	0.070	-0.147
-428.617	-117.890	-0.354	0.063
-427.603	-109.310	-0.392	-0.082
-426.588	-200.000	-0.028	0.324
-425.573	-113.927	-0.398	0.076
-424.559	-200.000	-0.054	0.356
-423.544	-167.951	0.427	0.017
-422.530	-72.984	-0.118	-0.043
-421.515	-82.430	0.091	0.029
-420.500	57.102	-0.098	0.095
-419.486	-200.000	-0.062	-0.541
-418.471	-6.413	-0.157	-0.106
-417.457	23.967	0.301	0.246
-416.442	-94.750	-0.257	-0.069
-415.428	74.631	0.148	0.155
-414.413	96.661	-0.047	-0.054
-413.398	126.789	0.114	0.143
-412.384	2.435	0.129	0.093
-411.369	-200.000	-0.018	0.308
-410.355	-200.000	-0.004	-0.047
-409.340	-69.618	-0.277	-0.105
-408.325	-81.238	0.297	0.097
-407.311	25.732	-0.336	-0.277
-406.296	476.231	-0.105	-0.234
-405.282	-71.302	-0.183	0.068
-404.267	-90.353	0.087	0.025
-403.252	253.778	-0.113	0.191
-402.238	52.827	-0.112	0.106
-401.223	800.000	-0.106	-0.342
-400.209	800.000	0.168	0.476
-399.194	-48.135	-0.120	0.057
-398.179	556.390	-0.047	-0.111
-397.165	-127.360	0.106	-0.015
-396.150	24.371	-0.147	0.120
-395.136	671.026	-0.052	-0.134
-394.121	0.757	0.112	0.080
-393.106	-189.969	0.248	0.003
-392.092	-200.000	0.022	0.263
-391.077	800.000	-0.142	0.438
-390.063	151.476	0.103	-0.138
-389.048	663.322	-0.158	-0.403
-388.033	156.653	0.090	-0.122
-387.019	225.108	-0.342	-0.547
-386.004	-199.032	0.199	0.001
-384.990	800.000	0.065	-0.179
-383.975	800.000	-0.122	0.348
-382.960	-140.853	-0.180	-0.018
-381.946	-62.400	-0.463	-0.190
-380.931	-110.119	0.240	0.049
-379.917	800.000	0.119	-0.443
-378.902	-157.597	-0.269	-0.016
-377.888	-138.332	-0.240	-0.026
-376.873	-8.682	0.152	-0.101
-375.858	105.447	0.067	-0.079
-374.844	626.417	0.078	0.194
-373.829	54.256	0.129	0.123
-372.815	-111.064	-0.018	0.004
-371.800	-200.000	-0.027	0.144
-370.785	-121.862	-0.312	0.051
-369.771	591.894	0.088	-0.215
-368.756	-13.392	0.077	0.049
-367.742	62.296	-0.105	0.104
-366.727	-12.922	0.169	0.109
-365.712	800.000	-0.064	-0.234
-364.698	-200.000	0.056	-0.295
-363.683	-200.000	-0.044	-0.621
-362.669	-188.112	0.180	-0.002
-361.654	288.024	-0.035	-0.063
-360.639	-80.611	0.170	0.056
-359.625	-197.159	-0.137	-0.001
-358.610	-200.000	-0.002	-0.220
-357.596	800.000	0.036	-0.125
-356.581	-116.171	-0.140	0.026
-355.566	-36.177	0.181	0.097
-354.552	315.380	0.106	-0.197
-353.537	131.723	-0.048	0.061
-352.523	468.583	0.089	-0.197
-351.508	-105.430	-0.090	-0.020
-350.493	29.128	0.211	0.177
-349.479	42.550	-0.077	0.069
-348.464	-200.000	0.009	-0.054
-347.450	95.720	0.198	0.224
-346.435	-125.683	-0.140	0.021
-345.420	29.761	0.139	-0.117
-344.406	401.962	0.023	-0.047
-343.391	34.532	0.209	0.180
-342.377	-200.000	0.038	0.247
-341.362	72.857	0.044	-0.045
-340.348	-162.510	0.424	0.021
-339.333	156.934	0.255	0.348
-338.318	-171.985	0.159	-0.005
-337.304	800.000	0.115	-0.454
-336.289	-134.142	-0.287	-0.035
-335.275	-85.813	-0.059	-0.018
-334.260	800.000	0.028	-0.103
-333.245	114.828	-0.152	-0.183
-332.231	58.465	0.171	0.165
-331.216	548.926	0.149	0.352
-330.202	340.262	0.099	0.191
-329.187	103.018	-0.202	0.234
-328.172	-200.000	0.031	0.141
-327.158	91.499	-0.180	-0.200
-326.143	593.736	0.039	0.095
-325.129	530.278	0.094	-0.219
-324.114	5.052	0.162	0.118
-323.099	66.830	0.206	0.207
-322.085	668.786	0.112	0.286
-321.070	58.883	-0.084	-0.081
-320.056	-122.464	-0.074	0.012
-319.041	346.146	0.075	-0.144
-318.026	202.481	-0.068	0.103
-317.012	-135.855	-0.117	-0.014
-315.997	-18.131	-0.188	0.116
-314.983	-200.000	0.202	0.001
-313.968	278.458	0.181	-0.318
-312.953	14.996	-0.271	-0.209
-311.939	800.000	0.131	0.385
-310.924	-149.783	0.235	-0.018
-309.910	29.964	-0.215	-0.181
-308.895	800.000	0.137	-0.378
-307.880	416.011	0.047	0.100
-306.866	539.915	0.138	0.324
-305.851	-200.000	-0.023	0.114
-304.837	800.000	-0.069	0.289
-303.822	51.678	0.045	-0.042
-302.807	51.177	-0.055	-0.052
-301.793	-200.000	0.053	0.293
-300.778	83.842	-0.150	0.161
-299.764	-107.409	-0.506	-0.109
-298.749	321.566	-0.066	0.124
-297.735	-200.000	-0.009	0.252
-296.720	-76.786	0.269	-0.093
-295.705	-200.000	0.004	-0.165
-294.691	800.000	-0.052	-0.217
-293.676	19.177	0.142	0.112
-292.662	-46.971	-0.148	0.071
-291.647	-200.000	0.000	0.061
-290.632	-24.916	0.089	-0.052
-289.618	-128.505	0.598	0.084
-288.603	-92.781	-0.360	-0.099
-287.589	187.029	-0.154	0.226
-286.574	-149.445	-0.219	0.017
-285.559	-60.768	0.146	0.061
-284.545	-200.000	-0.001	-0.023
-283.530	747.926	0.047	0.125
-282.516	-187.307	-0.065	-0.001
-281.501	0.629	0.093	0.066
-280.486	-10.480	0.209	0.136
-279.472	-171.703	0.084	-0.003
-278.457	-200.000	-0.043	-0.000
-277.443	-200.000	-0.054	-0.248
-276.428	2.412	-0.103	0.073
-275.413	-4.210	0.332	-0.226
-274.399	-65.734	0.086	0.034
-273.384	694.953	-0.096	0.247
-272.370	-162.959	-0.173	-0.008
-271.355	709.117	0.152	0.395
-270.340	734.566	0.058	0.153
-269.326	-200.000	0.026	0.162
-268.311	39.188	-0.145	-0.128
-267.297	-124.526	0.130	-0.020
-266.282	-200.000	-0.034	0.197
-265.267	211.667	-0.047	0.072
-264.253	11.543	0.164	0.124
-263.238	-59.787	-0.063	0.027
-262.224	219.260	0.120	-0.189
-261.209	50.840	-0.291	0.271
-260.195	-62.731	0.191	-0.078
-259.180	178.778	0.112	-0.162
-258.165	136.873	-0.060	-0.077
-257.151	408.907	0.120	-0.250
-256.136	91.497	0.312	0.345
-255.122	56.068	-0.188	0.180
-254.107	46.849	-0.074	0.068
-253.092	-135.831	0.495	0.057
-252.078	242.020	0.128	-0.211
-251.063	82.574	0.064	0.068
-250.049	13.672	-0.249	0.190
-249.034	252.386	-0.063	0.106
-248.019	458.368	0.062	-0.136
-247.005	600.304	-0.129	0.314
-245.990	-69.320	-0.110	0.042
-244.976	-200.000	-0.011	-0.298
-243.961	193.930	0.183	-0.272
-242.946	178.845	0.190	0.274
-241.932	621.540	-0.123	-0.303
-240.917	282.168	0.075	-0.132
-239.903	230.608	0.266	0.427
-238.888	-56.828	-0.158	-0.069
-237.873	-133.861	-0.088	-0.011
-236.859	-200.000	-0.008	-0.071
-235.844	502.841	0.114	-0.259
-234.830	-136.539	-0.190	0.022
-233.815	1.290	0.134	0.095
-232.800	62.409	-0.253	-0.248
-231.786	-62.065	0.212	0.087
-230.771	800.000	0.078	0.213
-229.757	800.000	0.079	-0.315
-228.742	-47.242	-0.297	-0.142
-227.727	800.000	-0.047	0.171
-226.713	300.485	0.174	-0.316
-225.698	-200.000	0.231	-0.000
-224.684	-200.000	0.018	0.248
-223.669	82.083	0.076	0.081
-222.655	-86.042	-0.339	-0.103
-221.640	800.000	-0.017	-0.069
-220.625	593.172	0.146	0.355
-219.611	-93.121	0.052	0.014
-218.596	-134.771	0.233	-0.028
-217.582	179.484	0.066	-0.095
-216.567	800.000	-0.027	0.100
-215.552	-37.348	0.309	0.162
-214.538	-200.000	-0.002	-0.090
-213.523	-106.081	0.174	-0.038
-212.509	-48.460	-0.267	-0.126
-211.494	-82.304	-0.209	0.067
-210.479	-200.000	0.029	0.146
-209.465	800.000	0.069	0.189
-208.450	800.000	0.028	-0.082
-207.436	-4.650	0.163	0.110
-206.421	119.370	0.077	0.094
-205.406	35.957	0.329	-0.285
-204.392	-139.617	-0.129	-0.014
-203.377	61.202	-0.183	0.178
-202.363	800.000	-0.007	-0.023
-201.348	529.116	-0.069	0.160
-200.333	251.909	0.093	-0.155
-199.319	800.000	0.088	0.263
-198.304	188.946	-0.091	0.134
-197.290	94.403	-0.118	0.131
-196.275	25.724	-0.105	-0.086
-195.260	800.000	0.039	0.157
-194.246	-152.627	0.143	0.010
-193.231	800.000	-0.103	0.313
-192.217	36.265	0.187	0.162
-191.202	-200.000	0.041	-0.189
-190.187	63.334	-0.026	0.025
-189.173	269.058	-0.089	0.153
-188.158	-19.299	0.133	-0.081
-187.144	49.158	-0.268	-0.247
-186.129	-200.000	-0.006	-0.187
-185.114	-101.285	-0.084	-0.020
-184.100	189.156	-0.085	-0.125
-183.085	-45.297	0.272	0.133
-182.071	-28.254	-0.106	-0.060
-181.056	2.042	-0.139	0.098
-180.042	-53.117	0.118	-0.053
-179.027	12.608	-0.355	0.268
-178.012	-86.963	-0.204	-0.061
-176.998	59.641	-0.186	-0.180
-175.983	158.547	-0.138	0.188
-174.969	198.109	0.169	-0.254
-173.954	-200.000	0.006	0.245
-172.939	-140.473	0.369	-0.038
-171.925	800.000	0.107	0.425
-170.910	9.031	-0.297	-0.220
-169.896	-141.717	-0.331	0.033
-168.881	19.966	0.164	0.129
-167.866	-29.789	0.062	-0.035
-166.852	67.286	-0.142	-0.142
-165.837	232.179	-0.104	-0.167
-164.823	-150.226	-0.151	0.011
-163.808	-200.000	0.019	-0.294
-162.793	-41.523	-0.377	0.190
-161.779	266.858	0.102	-0.175
-160.764	-169.084	-0.251	-0.009
-159.750	62.752	0.155	0.151
-158.735	679.787	-0.050	0.126
-157.720	103.922	0.174	0.201
-156.706	-200.000	-0.044	0.389
-155.691	-68.248	-0.039	0.015
-154.677	211.401	-0.169	-0.260
-153.662	247.022	0.189	0.312
-152.647	80.836	0.221	-0.233
-151.633	-9.965	-0.264	0.172
-150.618	-169.200	0.379	-0.014
-149.604	79.714	-0.078	0.082
-148.589	750.526	-0.136	-0.358
-147.574	-13.649	-0.222	-0.141
-146.560	34.486	-0.224	0.192
-145.545	-12.899	-0.156	0.099
-144.531	800.000	-0.059	0.215
-143.516	163.537	-0.164	0.225
-142.502	72.160	-0.114	0.117
-141.487	629.651	-0.057	-0.141
-140.472	67.904	-0.121	0.121
-139.458	29.025	-0.227	-0.189
-138.443	176.869	-0.122	0.174
-137.429	-141.645	-0.267	0.026
-136.414	-200.000	-0.011	0.082
-135.399	153.846	0.045	0.061
-134.385	130.576	-0.087	0.109
-133.370	97.393	-0.179	-0.202
-132.356	257.191	-0.071	-0.120
-131.341	800.000	0.039	-0.146
-130.326	47.806	0.153	-0.140
-129.312	690.916	0.038	0.098
-128.297	-161.583	0.538	0.027
-127.283	481.123	0.128	-0.285
-126.268	180.354	-0.278	-0.399
-125.253	80.309	-0.196	0.206
-124.239	-139.834	0.291	0.030
-123.224	113.443	-0.198	0.236
-122.210	-80.522	-0.182	0.059
-121.195	18.733	0.309	0.242
-120.180	-129.812	0.119	-0.016
-119.166	-71.161	0.368	-0.135
-118.151	668.799	-0.053	-0.133
-117.137	-32.504	0.174	-0.095
-116.122	800.000	0.160	-0.450
-115.107	-12.493	-0.128	-0.082
-114.093	-132.193	-0.199	0.025
-113.078	55.232	0.076	0.072
-112.064	133.127	-0.208	-0.262
-111.049	-172.806	-0.227	0.007
-110.034	162.379	0.175	-0.240
-109.020	91.753	-0.229	-0.251
-108.005	-98.711	0.286	-0.071
-106.991	61.159	-0.113	-0.110
-105.976	-200.000	0.019	0.139
-104.962	-113.682	0.245	-0.047
-103.947	-59.194	0.336	-0.142
-102.932	117.627	0.185	-0.223
-101.918	280.215	0.108	0.188
-100.903	115.765	-0.130	0.155
-99.889	-40.419	-0.155	-0.079
-98.874	-200.000	0.007	-0.210
-97.859	114.821	-0.194	0.231
-96.845	9.755	0.115	0.085
-95.830	-200.000	0.018	0.313
-94.816	-35.595	0.152	-0.081
-93.801	-57.974	-0.086	-0.037
-92.786	-41.909	-0.214	-0.107
-91.772	-28.997	0.156	0.088
-90.757	-200.000	0.008	0.126
-89.743	146.910	-0.127	-0.167
-88.728	46.216	0.213	0.192
-87.713	-177.814	-0.440	-0.010
-86.699	167.501	0.206	0.286
-85.684	781.068	0.055	-0.148
-84.670	70.885	-0.428	-0.433
-83.655	111.204	-0.053	0.062
-82.640	-160.930	0.462	-0.024
-81.626	-200.000	-0.000	-0.212
-80.611	-119.554	-0.264	-0.045
-79.597	77.142	-0.254	0.264
-78.582	1.059	0.251	-0.176
-77.567	-15.149	-0.314	0.196
-76.553	-110.919	0.482	0.097
-75.538	-118.730	-0.186	-0.032
-74.524	800.000	0.052	0.208
-73.509	-200.000	-0.002	0.190
-72.494	-144.129	-0.567	-0.052
-71.480	-200.000	0.049	0.662
-70.465	800.000	0.038	0.140
-69.451	341.580	-0.199	0.380
-68.436	800.000	-0.077	0.220
-67.422	54.718	-0.226	0.213
-66.407	-86.368	0.196	0.059
-65.392	-99.283	0.095	0.023
-64.378	-136.262	0.229	-0.026
-63.363	-45.901	0.362	-0.174
-62.349	-200.000	0.060	0.324
-61.334	35.535	-1.424	-1.220
-60.319	37.109	1.147	0.991
-59.305	147.042	-0.845	-1.109
-58.290	248.991	1.057	1.747
-57.276	800.000	0.522	1.416
-56.261	-200.000	136.116	627.862
-55.246	340.710	1641.421	3127.070
-54.232	135.650	2784.530	3536.326
-53.217	74.290	2337.796	2396.017
-52.203	25.295	2087.780	1692.478
-51.188	20.966	2007.615	1588.085
-50.173	20.217	1993.736	1570.259
-49.159	38.053	2071.343	1797.384
-48.144	34.955	2081.509	1777.404
-47.130	21.213	2035.106	1611.855
-46.115	19.393	2024.703	1586.821
-45.100	19.377	2021.373	1584.002
-44.086	19.278	2019.077	1581.226
-43.071	19.284	2015.982	1578.802
-42.057	19.257	2014.170	1577.067
-41.042	19.267	2012.072	1575.453
-40.027	19.306	2010.513	1574.529
-39.013	19.303	2008.793	1573.090
-37.998	19.338	2006.618	1571.648
-36.984	19.292	2005.571	1570.344
-35.969	19.313	2003.351	1568.731
-34.954	19.316	2001.770	1567.461
-33.940	19.416	1999.790	1566.759
-32.925	19.433	1998.433	1565.790
-31.911	19.351	1997.500	1564.250
-30.896	19.273	1995.678	1562.050
-29.881	19.421	1994.230	1562.196
-28.867	19.344	1992.869	1560.373
-27.852	19.450	1990.561	1559.460
-26.838	19.433	1988.583	1557.694
-25.823	19.414	1986.953	1556.186
-24.809	19.358	1985.310	1554.332
-23.794	19.410	1983.905	1553.642
-22.779	19.375	1982.199	1551.925
-21.765	19.443	1979.856	1550.647
-20.750	19.487	1978.707	1550.079
-19.736	19.462	1976.815	1548.307
-18.721	19.518	1975.394	1547.638
-17.706	19.436	1974.167	1545.878
-16.692	19.501	1971.952	1544.668
-15.677	19.438	1970.832	1543.165
-14.663	19.444	1969.690	1542.258
-13.648	19.344	1968.513	1540.388
-12.633	19.435	1966.908	1539.880
-11.619	19.358	1966.060	1538.463
-10.604	19.360	1964.215	1536.980
-9.590	19.371	1962.869	1535.962
-8.575	19.445	1961.315	1535.346
-7.560	19.420	1960.116	1534.126
-6.546	19.446	1958.106	1532.717
-5.531	19.359	1957.870	1531.704
-4.517	19.381	1956.136	1530.479
-3.502	19.297	1955.429	1529.121
-2.487	19.392	1953.724	1528.568
-1.473	19.356	1953.491	1528.010
-0.458	19.442	1947.385	1523.935
0.556	18.072	1927.174	1494.105
1.571	13.736	1907.635	1441.230
2.586	9.848	1930.759	1424.320
3.600	8.949	1965.255	1441.561
4.615	9.169	1955.970	1436.591
5.629	7.304	1856.912	1347.869
6.644	3.075	1748.544	1235.178
7.659	0.757	1718.993	1195.875
8.673	0.596	1716.557	1192.805
9.688	0.588	1715.532	1191.919
10.702	0.647	1713.760	1191.052
11.717	0.519	1709.606	1187.050
12.731	0.763	1707.775	1187.594
13.746	4.337	1714.367	1220.215
14.761	10.944	1728.432	1282.351
15.775	15.939	1737.717	1328.627
16.790	17.074	1739.054	1338.482
17.804	16.231	1735.854	1329.265
18.819	15.275	1732.446	1319.021
19.834	14.687	1730.135	1312.525
20.848	14.492	1728.576	1309.691
21.863	14.235	1726.890	1306.283
22.877	14.018	1725.891	1303.706
23.892	13.767	1724.666	1300.704
24.907	13.587	1723.308	1298.153
25.921	13.663	1721.683	1297.410
26.936	13.690	1720.639	1296.716
27.950	13.692	1719.985	1296.128
28.965	13.763	1719.632	1296.300
29.980	13.750	1718.796	1295.449
30.994	13.754	1717.417	1294.333
32.009	13.827	1716.503	1294.092
33.023	13.882	1715.214	1293.440
34.038	13.883	1714.768	1292.992
35.053	13.813	1713.472	1291.356
36.067	13.868	1712.394	1290.863
37.082	13.803	1711.586	1289.628
38.096	13.871	1710.293	1289.073
39.111	13.779	1710.163	1288.142
40.126	13.833	1709.299	1287.799
41.140	13.783	1708.161	1286.436
42.155	13.743	1706.273	1284.592
43.169	13.681	1705.257	1283.234
44.184	13.652	1704.257	1282.143
45.199	13.710	1702.680	1281.291
46.213	13.642	1701.951	1280.108
47.228	13.606	1700.561	1278.670
48.242	13.642	1698.891	1277.576
49.257	13.694	1697.944	1277.153
50.271	13.778	1696.558	1276.645
51.286	13.736	1695.246	1275.221
52.301	13.709	1694.130	1274.062
53.315	13.805	1692.145	1273.195
54.330	13.783	1690.823	1271.918
55.344	13.749	1689.032	1270.194
56.359	13.690	1687.813	1268.717
57.374	13.666	1687.078	1267.871
58.388	13.733	1684.821	1266.574
59.403	13.613	1684.131	1265.022
60.417	13.610	1682.717	1263.831
61.432	13.558	1681.375	1262.310
62.447	13.584	1680.188	1261.505
63.461	13.596	1678.858	1260.486
64.476	13.583	1677.543	1259.291
65.490	13.611	1676.569	1258.659
66.505	13.549	1675.310	1257.133
67.520	13.529	1674.726	1256.431
68.534	13.628	1673.174	1255.907
69.549	13.639	1672.053	1255.035
70.563	13.687	1670.426	1254.069
71.578	13.607	1670.011	1253.038
72.593	13.544	1668.887	1251.608
73.607	13.592	1667.570	1250.876
74.622	13.568	1666.281	1249.614
75.636	13.551	1664.633	1248.145
76.651	13.499	1664.251	1247.355
77.666	13.551	1662.694	1246.463
78.680	13.590	1661.989	1246.120
79.695	13.526	1660.946	1244.748
80.709	13.560	1660.029	1244.205
81.724	13.551	1659.188	1243.398
82.739	13.645	1658.045	1243.138
83.753	13.697	1656.814	1242.495
84.768	13.649	1656.049	1241.451
85.782	13.710	1655.412	1241.322
86.797	13.714	1654.568	1240.603
87.812	13.731	1653.327	1239.690
88.826	13.771	1651.582	1238.574
89.841	13.698	1650.320	1236.977
90.855	13.759	1650.043	1237.110
91.870	13.746	1648.706	1235.904
92.884	13.779	1647.485	1235.126
93.899	13.756	1646.754	1234.296
94.914	13.805	1645.304	1233.464
95.928	13.825	1643.704	1232.302
96.943	13.817	1642.388	1231.146
97.957	13.764	1641.202	1229.759
98.972	13.770	1639.822	1228.660
99.987	13.820	1638.080	1227.614
101.001	13.749	1636.409	1225.727
102.016	13.753	1634.847	1224.483
103.030	13.799	1633.241	1223.505
104.045	13.799	1631.713	1222.253
105.060	13.821	1630.584	1221.464
106.074	13.848	1628.753	1220.181
107.089	13.793	1627.159	1218.476
108.103	13.685	1626.388	1216.997
109.118	13.669	1624.459	1215.331
110.133	13.618	1622.971	1213.738
111.147	13.684	1621.844	1213.271
112.162	13.703	1620.414	1212.230
113.176	13.665	1618.610	1210.497
114.191	13.675	1617.472	1209.610
115.206	13.718	1616.002	1208.721
116.220	13.733	1615.062	1208.017
117.235	13.638	1613.858	1206.321
118.249	13.591	1612.545	1204.885
119.264	13.711	1611.110	1204.582
120.279	13.650	1609.562	1202.873
121.293	13.645	1608.109	1201.649
122.308	13.644	1606.654	1200.446
123.322	13.679	1604.611	1199.069
124.337	13.615	1603.847	1197.924
125.352	13.635	1602.341	1196.839
126.366	13.601	1601.127	1195.583
127.381	13.625	1599.433	1194.388
128.395	13.678	1598.281	1193.804
129.410	13.657	1596.708	1192.371
130.424	13.654	1595.191	1191.107
131.439	13.610	1594.252	1189.985
132.454	13.713	1592.823	1189.552
133.468	13.683	1591.431	1188.195
134.483	13.781	1589.200	1187.121
135.497	13.714	1588.098	1185.716
136.512	13.745	1586.725	1184.812
137.527	13.697	1586.024	1183.838
138.541	13.695	1584.583	1182.646
139.556	13.723	1583.073	1181.614
140.570	13.817	1581.741	1181.183
141.585	13.823	1579.938	1179.773
142.600	13.928	1578.924	1179.660
143.614	13.847	1577.828	1178.162
144.629	13.957	1577.048	1178.255
145.643	13.925	1575.298	1176.615
146.658	13.995	1573.838	1175.914
147.673	13.951	1572.418	1174.439
148.687	13.917	1570.926	1172.979
149.702	14.039	1568.918	1172.237
150.716	13.926	1567.483	1170.264
151.731	13.930	1566.573	1169.511
152.746	13.922	1565.073	1168.228
153.760	13.896	1563.193	1166.544
154.775	13.959	1562.128	1166.083
155.789	14.024	1560.465	1165.194
156.804	14.015	1559.614	1164.397
157.819	14.061	1558.029	1163.432
158.833	13.948	1557.167	1161.896
159.848	14.166	1555.676	1162.205
160.862	14.104	1554.514	1160.796
161.877	14.181	1552.646	1159.837
162.892	14.122	1551.658	1158.586
163.906	14.056	1550.649	1157.269
164.921	14.075	1549.213	1156.227
165.935	14.043	1548.155	1155.113
166.950	14.145	1546.823	1154.729
167.964	14.086	1545.670	1153.354
168.979	14.052	1544.744	1152.323
169.994	14.080	1543.853	1151.755
171.008	14.028	1542.913	1150.588
172.023	14.080	1541.840	1150.049
173.037	14.148	1540.633	1149.519
174.052	14.235	1538.842	1148.676
175.067	14.169	1537.965	1147.465
176.081	14.137	1537.282	1146.634
177.096	14.175	1535.442	1145.421
178.110	14.079	1534.358	1143.851
179.125	14.121	1533.428	1143.349
180.140	14.235	1532.001	1142.964
181.154	14.238	1530.382	1141.679
182.169	14.257	1529.646	1141.157
183.183	14.233	1528.521	1140.052
184.198	14.346	1527.043	1139.621
185.213	14.310	1526.276	1138.704
186.227	14.233	1525.180	1137.258
187.242	14.296	1524.350	1136.968
188.256	14.459	1522.946	1136.931
189.271	14.374	1522.401	1135.847
190.286	14.448	1521.008	1135.208
191.300	14.393	1519.730	1133.780
192.315	14.192	1518.980	1131.751
193.329	14.230	1517.054	1130.477
194.344	14.295	1516.239	1130.208
195.359	14.287	1514.852	1129.021
196.373	14.289	1514.108	1128.382
197.388	14.389	1512.935	1128.084
198.402	14.345	1512.128	1127.088
199.417	14.467	1510.308	1126.455
200.432	14.432	1509.657	1125.636
201.446	14.585	1508.220	1125.496
202.461	14.528	1507.393	1124.390
203.475	14.521	1506.254	1123.399
204.490	14.586	1505.629	1123.265
205.504	14.677	1503.962	1122.536
206.519	14.551	1503.132	1120.969
207.534	14.527	1501.764	1119.690
208.548	14.608	1500.776	1119.401
209.563	14.573	1499.719	1118.276
210.577	14.627	1498.344	1117.515
211.592	14.597	1497.683	1116.721
212.607	14.606	1496.735	1115.974
213.621	14.735	1495.752	1116.006
214.636	14.753	1495.268	1115.666
215.650	14.733	1493.933	1114.438
216.665	14.676	1493.302	1113.491
217.680	14.704	1492.450	1112.939
218.694	14.768	1491.544	1112.593
219.709	14.832	1489.949	1111.730
220.723	14.798	1489.639	1111.178
221.738	14.746	1489.147	1110.362
222.753	14.713	1487.776	1109.027
223.767	14.715	1487.148	1108.470
224.782	14.776	1485.385	1107.466
225.796	14.907	1484.274	1107.407
226.811	14.865	1484.119	1106.916
227.826	14.968	1482.725	1106.455
228.840	14.944	1481.796	1105.509
229.855	14.990	1480.837	1104.996
230.869	14.957	1479.927	1104.001
231.884	14.993	1478.826	1103.319
232.899	14.928	1477.719	1101.969
233.913	14.852	1476.689	1100.606
234.928	14.911	1475.753	1100.200
235.942	14.973	1474.139	1099.307
236.957	14.918	1472.939	1097.952
237.972	14.876	1471.803	1096.735
238.986	14.892	1470.830	1096.012
240.001	14.902	1470.397	1095.661
241.015	14.919	1468.686	1094.398
242.030	15.064	1467.338	1094.245
243.045	14.971	1467.061	1093.337
244.059	14.927	1466.181	1092.294
245.074	15.007	1465.050	1091.881
246.088	15.056	1464.023	1091.334
247.103	15.127	1463.373	1091.218
248.117	15.055	1462.961	1090.345
249.132	15.254	1461.328	1090.325
250.147	15.262	1460.686	1089.804
251.161	15.156	1460.294	1088.723
252.176	15.206	1459.708	1088.518
253.190	15.328	1458.511	1088.318
254.205	15.304	1458.002	1087.683
255.220	15.326	1457.084	1087.048
256.234	15.313	1456.826	1086.679
257.249	15.496	1455.614	1086.858
258.263	15.391	1454.473	1085.232
259.278	15.355	1453.891	1084.469
260.293	15.456	1452.531	1084.010
261.307	15.454	1451.760	1083.330
262.322	15.506	1451.173	1083.125
263.336	15.519	1450.386	1082.532
264.351	15.503	1449.385	1081.584
265.366	15.548	1448.475	1081.097
266.380	15.501	1447.803	1080.196
267.395	15.562	1446.402	1079.447
268.409	15.509	1445.579	1078.401
269.424	15.636	1444.029	1077.964
270.439	15.571	1443.298	1076.908
271.453	15.530	1442.518	1075.968
272.468	15.561	1441.596	1075.380
273.482	15.659	1440.676	1075.227
274.497	15.465	1440.457	1073.723
275.512	15.700	1438.966	1074.019
276.526	15.610	1438.300	1072.853
277.541	15.634	1436.923	1071.885
278.555	15.694	1435.978	1071.468
279.570	15.609	1435.238	1070.282
280.585	15.661	1434.302	1069.819
281.599	15.748	1433.288	1069.523
282.614	15.629	1433.064	1068.505
283.628	15.767	1431.653	1068.232
284.643	15.725	1430.640	1067.117
285.657	15.679	1429.389	1065.797
286.672	15.762	1428.348	1065.449
287.687	15.794	1427.185	1064.690
288.701	15.882	1426.111	1064.353
289.716	15.924	1425.050	1063.731
290.730	15.910	1424.697	1063.288
291.745	15.860	1423.637	1062.087
292.760	15.847	1422.652	1061.172
293.774	15.966	1421.582	1061.034
294.789	15.894	1420.631	1059.777
295.803	15.887	1420.122	1059.255
296.818	15.975	1419.059	1058.927
297.833	15.946	1417.754	1057.673
298.847	15.886	1416.857	1056.536
299.862	15.852	1416.249	1055.774
300.876	15.976	1414.748	1055.342
301.891	16.046	1413.595	1054.823
302.906	16.078	1413.412	1054.794
303.920	16.032	1412.120	1053.448
304.935	16.124	1411.628	1053.563
305.949	16.159	1410.911	1053.153
306.964	16.144	1409.946	1052.245
307.979	16.284	1408.940	1052.278
308.993	16.179	1408.153	1050.943
310.008	16.214	1406.955	1050.173
311.022	16.174	1406.009	1049.121
312.037	16.203	1404.683	1048.223
313.052	16.190	1403.682	1047.299
314.066	16.357	1402.736	1047.538
315.081	16.227	1401.717	1045.882
316.095	16.214	1400.946	1045.129
317.110	16.196	1400.308	1044.452
318.125	16.184	1399.628	1043.780
319.139	16.210	1398.007	1042.635
320.154	16.156	1397.113	1041.544
321.168	16.150	1396.404	1040.889
322.183	16.298	1395.110	1040.743
323.197	16.370	1393.600	1039.967
324.212	16.302	1393.248	1039.193
325.227	16.265	1392.451	1038.283
326.241	16.334	1391.516	1037.916
327.256	16.403	1390.066	1037.167
328.270	16.329	1390.044	1036.602
329.285	16.297	1388.828	1035.407
330.300	16.303	1387.930	1034.682
331.314	16.346	1387.023	1034.182
332.329	16.334	1386.213	1033.412
333.343	16.366	1385.028	1032.632
334.358	16.461	1384.197	1032.499
335.373	16.465	1382.835	1031.417
336.387	16.469	1382.428	1031.047
337.402	16.432	1382.174	1030.543
338.416	16.544	1381.409	1030.560
339.431	16.509	1380.860	1029.847
340.446	16.512	1379.802	1028.987
341.460	16.622	1378.558	1028.637
342.475	16.564	1378.142	1027.883
343.489	16.701	1377.174	1027.904
344.504	16.653	1375.990	1026.635
345.519	16.661	1374.898	1025.777
346.533	16.725	1373.797	1025.254
347.548	16.757	1373.037	1024.791
348.562	16.784	1372.126	1024.180
349.577	16.818	1371.363	1023.729
350.592	16.767	1370.674	1022.816
351.606	16.775	1369.712	1022.051
352.621	16.730	1368.884	1021.076
353.635	16.738	1368.047	1020.410
354.650	16.679	1367.114	1019.269
355.665	16.746	1366.063	1018.795
356.679	16.793	1364.761	1018.017
357.694	16.801	1363.550	1017.069
358.708	16.839	1362.461	1016.396
359.723	16.868	1361.600	1015.839
360.738	16.881	1360.355	1014.896
361.752	17.007	1358.969	1014.530
362.767	16.956	1358.037	1013.436
363.781	16.823	1357.690	1012.294
364.796	16.832	1356.755	1011.561
365.810	16.940	1356.043	1011.588
366.825	16.981	1355.188	1011.102
367.840	17.002	1354.707	1010.781
368.854	17.098	1353.880	1010.645
369.869	17.062	1353.393	1009.977
370.883	17.064	1352.235	1009.038
371.898	17.134	1351.699	1008.961
372.913	17.090	1351.091	1008.158
373.927	17.038	1350.294	1007.163
374.942	17.046	1349.403	1006.460
375.956	17.108	1348.615	1006.150
376.971	17.115	1347.665	1005.395
377.986	17.207	1346.637	1005.083
379.000	17.112	1345.477	1003.565
380.015	17.222	1344.722	1003.566
381.029	17.162	1344.076	1002.639
382.044	17.262	1343.564	1002.760
383.059	17.294	1343.036	1002.465
384.073	17.314	1342.353	1001.982
385.088	17.420	1341.303	1001.732
386.102	17.430	1340.800	1001.329
387.117	17.466	1339.995	1000.850
388.132	17.320	1339.091	999.230
389.146	17.311	1338.429	998.596
390.161	17.356	1337.233	997.875
391.175	17.450	1336.543	997.827
392.190	17.449	1335.753	997.141
393.205	17.363	1334.911	995.923
394.219	17.469	1333.672	995.531
395.234	17.524	1332.174	994.641
396.248	17.542	1330.856	993.677
397.263	17.522	1329.934	992.783
398.278	17.442	1328.870	991.433
399.292	17.444	1327.729	990.506
400.307	17.526	1326.541	990.013
401.321	17.431	1325.758	988.786
402.336	17.481	1324.349	987.942
403.350	17.582	1322.995	987.427
404.365	17.558	1322.380	986.744
405.380	17.527	1321.838	986.072
406.394	17.565	1321.116	985.666
407.409	17.509	1320.304	984.650
408.423	17.546	1319.473	984.157
409.438	17.585	1319.197	984.087
410.453	17.736	1317.555	983.647
411.467	17.698	1317.290	983.139
412.482	17.658	1316.838	982.488
413.496	17.723	1316.192	982.291
414.511	17.799	1314.806	981.608
415.526	17.707	1314.129	980.488
416.540	17.769	1313.683	980.423
417.555	17.763	1313.039	979.820
418.569	17.784	1312.799	979.675
419.584	17.936	1311.805	979.722
420.599	17.890	1311.076	978.827
421.613	101.887	1365.013	1492.856
422.628	100.323	1372.775	1492.917
