DTS Sentinel unit serial number:	SN413079Multiplexer serial number:	ORYXHardware model number:	OX4-SRSoftware version number:	ORYX F/W v4.00 Oryx Data Collector v3.7.2.0data status	okinstallation	princeton_trtdifferential loss correction	single-endedforward channel	channel 4reverse channel	N/Adate	2019/09/16time	22:09:35forward acquisition time	60.00reverse acquisition time	0.00gamma	496.2192k internal	0.2312k external	0.2312temperature offset calibration	0.9970default loss term (dB/km)	0.3790temperature slope calibration	1.0000multiplexer offset coefficient	1.0000multiplexer slope coefficient	1.0000fibre end	0.00T internal ref (°C)	31.06T ext. ref 1 (°C)	0.08T ext. ref 2 (°C)	24.83length (m)	temperature (°C)	Stokes	anti-Stokes-747.200	374.507	-0.021	-0.043
-746.185	-48.584	0.093	-0.045
-745.171	350.030	0.137	0.274
-744.156	36.950	0.185	-0.166
-743.142	-70.775	-0.101	-0.039
-742.127	-111.656	-0.059	-0.012
-741.112	113.321	0.158	0.195
-740.098	-29.985	0.291	-0.168
-739.083	-55.038	-0.179	-0.082
-738.069	423.407	-0.107	0.234
-737.054	79.129	-0.083	-0.090
-736.039	-82.046	-0.338	0.112
-735.025	-47.168	-0.314	0.155
-734.010	-200.000	0.012	-0.176
-732.996	-147.694	0.310	0.026
-731.981	69.535	0.114	0.119
-730.966	346.933	0.051	0.103
-729.952	-158.524	-0.187	-0.011
-728.937	-98.331	0.224	-0.058
-727.923	227.541	-0.101	-0.166
-726.908	-116.090	0.160	-0.030
-725.894	175.354	-0.340	-0.500
-724.879	-16.322	0.045	0.029
-723.864	-191.847	-0.225	0.002
-722.850	47.625	0.102	0.096
-721.835	-105.509	-0.133	-0.031
-720.821	88.327	0.164	0.184
-719.806	-149.262	0.259	0.021
-718.791	-3.755	0.109	-0.076
-717.777	-50.079	-0.197	0.095
-716.762	-56.157	-0.076	-0.034
-715.748	-90.093	0.181	-0.053
-714.733	-121.718	-0.086	0.014
-713.718	800.000	-0.084	-0.312
-712.704	156.287	0.139	0.195
-711.689	-200.000	-0.045	-0.304
-710.675	-105.137	0.327	-0.076
-709.660	-200.000	0.033	-0.169
-708.645	228.592	0.186	-0.307
-707.631	630.544	-0.115	0.295
-706.616	-47.906	0.249	-0.122
-705.602	138.314	0.099	0.131
-704.587	-200.000	-0.014	-0.195
-703.572	-59.638	0.181	0.078
-702.558	-50.787	0.093	-0.044
-701.543	173.392	0.070	-0.103
-700.529	-97.095	0.295	0.078
-699.514	83.293	-0.255	0.281
-698.499	-200.000	-0.032	0.185
-697.485	-100.944	0.246	0.061
-696.470	800.000	-0.060	-0.212
-695.456	-200.000	-0.031	-0.633
-694.441	21.719	-0.199	-0.164
-693.426	142.232	0.054	0.073
-692.412	82.820	0.059	-0.065
-691.397	21.884	0.276	0.227
-690.383	-200.000	0.025	-0.355
-689.368	20.961	0.388	-0.319
-688.354	-200.000	-0.013	0.110
-687.339	-200.000	-0.008	-0.305
-686.324	-200.000	0.005	0.242
-685.310	-200.000	0.004	-0.085
-684.295	800.000	0.032	0.097
-683.281	-129.735	0.437	-0.061
-682.266	-103.444	-0.540	-0.129
-681.251	294.203	0.129	-0.238
-680.237	-67.917	0.053	0.021
-679.222	800.000	-0.056	0.166
-678.208	97.221	0.142	0.165
-677.193	-46.910	0.188	0.093
-676.178	344.744	-0.065	0.130
-675.164	-70.239	-0.197	0.076
-674.149	-200.000	-0.037	-0.214
-673.135	151.868	-0.076	-0.105
-672.120	-106.006	-0.206	0.047
-671.105	-68.096	0.227	-0.090
-670.091	196.091	0.194	0.298
-669.076	267.810	0.113	-0.200
-668.062	48.082	-0.192	0.181
-667.047	-43.693	-0.294	-0.150
-666.032	307.962	0.149	0.280
-665.018	766.573	0.102	-0.280
-664.003	-200.000	-0.028	-0.366
-662.989	267.167	0.105	-0.186
-661.974	113.292	-0.139	-0.171
-660.959	-55.636	-0.319	0.144
-659.945	35.192	0.367	-0.325
-658.930	15.079	0.148	-0.118
-657.916	-39.898	-0.296	0.156
-656.901	179.379	-0.092	-0.136
-655.886	-36.860	-0.090	0.049
-654.872	70.195	-0.383	-0.400
-653.857	800.000	-0.089	-0.383
-652.843	-200.000	0.005	0.108
-651.828	255.914	-0.206	0.356
-650.814	-53.622	-0.071	-0.033
-649.799	125.720	0.246	-0.314
-648.784	800.000	0.065	-0.266
-647.770	85.811	0.047	-0.052
-646.755	800.000	0.052	-0.155
-645.741	-84.704	-0.270	-0.086
-644.726	800.000	-0.053	0.227
-643.711	151.404	-0.145	0.200
-642.697	800.000	-0.008	-0.023
-641.682	-186.758	0.321	0.005
-640.668	-200.000	0.025	0.297
-639.653	140.035	-0.121	-0.161
-638.638	534.606	-0.085	-0.203
-637.624	261.754	0.181	0.317
-636.609	659.994	0.034	0.088
-635.595	-53.775	0.218	0.100
-634.580	800.000	-0.087	-0.282
-633.565	-41.369	0.097	-0.050
-632.551	110.512	-0.176	-0.214
-631.536	800.000	-0.086	-0.281
-630.522	-163.549	-0.140	0.007
-629.507	56.882	-0.126	-0.124
-628.492	123.397	0.136	-0.173
-627.478	-42.265	-0.114	0.059
-626.463	-59.738	0.174	-0.075
-625.449	-86.588	-0.299	-0.093
-624.434	131.377	0.064	-0.083
-623.419	70.010	-0.176	0.183
-622.405	-18.566	-0.027	-0.017
-621.390	-200.000	0.023	0.356
-620.376	110.352	-0.008	0.010
-619.361	-73.218	-0.117	0.043
-618.346	-19.422	-0.265	0.166
-617.332	17.651	0.023	0.018
-616.317	-95.895	-0.156	0.042
-615.303	88.555	0.122	-0.137
-614.288	-136.962	-0.464	0.054
-613.273	31.820	-0.264	0.229
-612.259	800.000	0.173	0.511
-611.244	-200.000	0.008	0.412
-610.230	-89.873	0.286	-0.084
-609.215	-69.432	0.235	0.091
-608.201	70.475	0.096	0.100
-607.186	-129.799	-0.056	-0.008
-606.171	-53.990	0.321	0.148
-605.157	-4.580	-0.362	0.253
-604.142	-72.020	0.083	-0.031
-603.128	-116.805	-0.178	0.033
-602.113	-128.449	-0.318	-0.045
-601.098	-50.602	0.110	-0.052
-600.084	-61.148	0.219	0.093
-599.069	-108.258	0.336	0.073
-598.055	-110.088	-0.293	0.062
-597.040	-82.181	0.206	0.068
-596.025	448.213	-0.163	0.362
-595.011	-120.511	0.110	0.019
-593.996	-46.058	0.255	-0.127
-592.982	566.814	-0.030	-0.073
-591.967	-104.047	-0.291	-0.068
-590.952	-55.190	0.190	-0.086
-589.938	4.691	-0.221	0.164
-588.923	-200.000	-0.008	0.243
-587.909	63.354	0.333	0.336
-586.894	65.740	-0.115	0.117
-585.879	516.042	-0.165	-0.388
-584.865	-182.186	0.167	-0.003
-583.850	-105.073	0.093	0.022
-582.836	-27.037	0.198	0.116
-581.821	800.000	-0.095	0.393
-580.806	-68.099	0.265	0.104
-579.792	642.652	0.078	-0.200
-578.777	-123.941	0.182	-0.029
-577.763	-120.686	-0.166	-0.028
-576.748	800.000	0.056	-0.164
-575.733	126.405	0.114	-0.145
-574.719	4.074	0.257	-0.190
-573.704	160.760	-0.156	-0.219
-572.690	-41.759	-0.210	-0.109
-571.675	-200.000	-0.050	-0.248
-570.661	800.000	-0.073	-0.249
-569.646	800.000	-0.092	-0.265
-568.631	-121.461	-0.170	0.028
-567.617	800.000	-0.100	-0.313
-566.602	800.000	0.046	0.196
-565.588	48.176	-0.144	-0.136
-564.573	-7.358	-0.085	-0.058
-563.558	-35.938	0.106	0.058
-562.544	59.435	0.151	0.150
-561.529	-3.839	0.132	-0.092
-560.515	800.000	0.041	-0.152
-559.500	621.278	-0.023	0.057
-558.485	-15.463	-0.029	0.019
-557.471	0.868	-0.157	0.113
-556.456	-100.082	-0.216	-0.054
-555.442	-85.521	0.073	-0.023
-554.427	14.869	0.136	-0.107
-553.412	-42.192	-0.147	0.076
-552.398	80.328	-0.074	0.080
-551.383	-82.288	-0.302	-0.099
-550.369	-54.875	-0.093	0.042
-549.354	-58.996	-0.329	0.143
-548.339	152.300	0.118	-0.162
-547.325	-200.000	-0.033	-0.191
-546.310	-53.356	-0.333	-0.153
-545.296	-141.575	-0.029	0.003
-544.281	-129.629	-0.190	-0.026
-543.266	64.725	-0.049	0.050
-542.252	-132.741	0.196	-0.025
-541.237	-200.000	0.014	0.239
-540.223	-162.886	0.189	-0.009
-539.208	171.621	-0.039	-0.057
-538.193	248.570	0.272	0.464
-537.179	-19.464	-0.074	-0.046
-536.164	332.939	-0.132	-0.257
-535.150	-200.000	0.007	-0.116
-534.135	-90.618	0.159	0.046
-533.121	147.009	0.145	-0.196
-532.106	-200.000	0.020	-0.094
-531.091	-5.347	0.176	0.122
-530.077	-47.536	-0.239	-0.117
-529.062	800.000	-0.037	-0.127
-528.048	-53.953	0.368	0.169
-527.033	60.057	-0.276	0.274
-526.018	39.094	0.144	0.129
-525.004	162.612	0.022	0.031
-523.989	-29.675	0.153	-0.088
-522.975	109.810	-0.042	0.050
-521.960	-200.000	0.069	-0.000
-520.945	246.982	0.111	0.189
-519.931	-43.317	-0.132	0.067
-518.916	255.406	-0.049	-0.084
-517.902	153.162	-0.196	0.270
-516.887	-1.140	0.227	-0.161
-515.872	152.728	0.140	-0.193
-514.858	-117.200	0.049	-0.009
-513.843	103.925	-0.223	0.263
-512.829	-3.084	-0.216	-0.151
-511.814	-22.846	0.470	0.285
-510.799	147.150	-0.154	0.209
-509.785	-200.000	0.048	-0.232
-508.770	448.236	0.049	0.109
-507.756	24.358	-0.267	-0.222
-506.741	-96.430	0.027	-0.007
-505.726	45.031	0.038	-0.035
-504.712	90.621	0.079	-0.089
-503.697	94.213	-0.145	-0.165
-502.683	-87.836	0.198	-0.060
-501.668	-200.000	0.020	0.190
-500.653	-53.592	-0.117	0.054
-499.639	-178.588	-0.220	-0.005
-498.624	-200.000	-0.012	0.134
-497.610	26.977	-0.218	0.184
-496.595	-200.000	-0.006	-0.167
-495.581	502.544	-0.081	-0.189
-494.566	67.013	-0.144	-0.147
-493.551	83.187	-0.161	0.176
-492.537	-57.032	0.169	0.075
-491.522	-43.085	0.244	0.124
-490.508	-200.000	-0.002	-0.040
-489.493	-200.000	-0.063	-0.315
-488.478	-200.000	-0.031	0.183
-487.464	-106.181	-0.231	-0.052
-486.449	-48.415	-0.146	-0.071
-485.435	-200.000	0.013	0.275
-484.420	-56.489	0.207	-0.092
-483.405	386.708	0.056	-0.117
-482.391	224.770	0.219	-0.356
-481.376	-12.419	0.047	-0.031
-480.362	179.220	-0.106	-0.155
-479.347	82.893	-0.224	-0.244
-478.332	55.294	0.169	0.164
-477.318	-64.723	-0.116	-0.047
-476.303	-200.000	-0.004	-0.137
-475.289	54.552	-0.415	-0.402
-474.274	604.264	0.052	0.131
-473.259	-65.806	-0.216	-0.087
-472.245	107.444	-0.153	0.182
-471.230	800.000	0.080	0.290
-470.216	800.000	0.124	-0.353
-469.201	-122.359	0.266	0.044
-468.186	42.751	0.119	0.109
-467.172	-163.644	-0.192	-0.009
-466.157	-45.603	0.118	-0.059
-465.143	-8.376	0.179	-0.121
-464.128	338.301	-0.145	-0.283
-463.113	-7.004	0.282	0.192
-462.099	-200.000	0.018	0.164
-461.084	-60.428	-0.243	-0.104
-460.070	-200.000	0.000	-0.342
-459.055	561.829	0.019	-0.046
-458.040	-200.000	-0.028	-0.137
-457.026	-69.258	0.245	0.095
-456.011	442.750	0.091	0.199
-454.997	567.793	0.099	0.241
-453.982	-200.000	0.070	-0.331
-452.968	32.858	0.212	0.184
-451.953	326.772	0.152	0.291
-450.938	-200.000	-0.049	0.216
-449.924	-129.605	0.198	0.027
-448.909	164.531	0.107	-0.151
-447.895	80.791	-0.076	-0.083
-446.880	76.672	0.164	-0.174
-445.865	-200.000	-0.007	-0.222
-444.851	-31.090	-0.291	0.164
-443.836	694.149	0.078	-0.206
-442.822	-73.759	-0.304	-0.111
-441.807	18.847	-0.193	-0.155
-440.792	-118.781	-0.156	-0.027
-439.778	-108.162	-0.213	0.046
-438.763	-140.025	-0.076	-0.008
-437.749	86.943	0.166	0.184
-436.734	800.000	-0.166	0.560
-435.719	147.270	0.097	0.131
-434.705	800.000	0.062	0.208
-433.690	369.673	-0.075	-0.153
-432.676	104.051	0.145	0.171
-431.661	-110.995	0.205	0.042
-430.646	800.000	-0.094	-0.393
-429.632	-22.056	-0.182	0.111
-428.617	800.000	-0.040	0.118
-427.603	-200.000	-0.054	0.358
-426.588	-200.000	-0.055	-0.374
-425.573	157.146	0.109	-0.151
-424.559	47.164	-0.060	0.056
-423.544	-93.550	0.181	0.050
-422.530	800.000	-0.099	-0.337
-421.515	-200.000	0.001	-0.075
-420.500	478.035	-0.038	-0.086
-419.486	800.000	-0.067	-0.216
-418.471	79.672	0.176	0.190
-417.457	-108.271	-0.156	0.034
-416.442	-80.055	0.242	-0.081
-415.428	-200.000	0.032	-0.366
-414.413	-200.000	0.023	-0.121
-413.398	520.613	0.099	-0.234
-412.384	-200.000	0.036	-0.171
-411.369	-56.221	-0.181	-0.081
-410.355	-128.489	-0.055	0.008
-409.340	800.000	-0.027	-0.096
-408.325	800.000	0.049	0.139
-407.311	-200.000	-0.024	-0.260
-406.296	238.527	0.186	-0.309
-405.282	-12.089	0.167	-0.110
-404.267	759.031	0.014	0.037
-403.252	-129.349	-0.484	-0.067
-402.238	800.000	0.057	0.197
-401.223	-164.554	0.388	0.018
-400.209	-106.392	0.213	-0.048
-399.194	4.453	-0.120	0.088
-398.179	-200.000	-0.020	0.150
-397.165	-41.123	0.245	0.127
-396.150	-200.000	0.029	-0.198
-395.136	-140.119	-0.240	0.025
-394.121	-137.626	-0.163	0.018
-393.106	-143.527	0.157	-0.015
-392.092	147.289	0.188	0.254
-391.077	-200.000	-0.027	0.205
-390.063	800.000	-0.068	-0.234
-389.048	-200.000	-0.048	0.250
-388.033	-9.618	0.170	0.113
-387.019	324.782	-0.139	0.266
-386.004	-200.000	-0.036	-0.191
-384.990	-128.361	0.288	-0.041
-383.975	-35.590	-0.392	0.213
-382.960	-124.556	0.411	0.064
-381.946	3.532	-0.043	0.031
-380.931	-67.636	-0.234	0.092
-379.917	25.930	-0.135	0.113
-378.902	800.000	0.043	-0.160
-377.888	-147.507	0.344	0.029
-376.873	25.844	0.038	-0.032
-375.858	800.000	-0.086	-0.297
-374.844	391.333	0.068	-0.140
-373.829	35.830	-0.086	0.076
-372.815	358.843	-0.078	-0.155
-371.800	-107.033	0.331	0.073
-370.785	-75.767	0.403	-0.143
-369.771	358.427	-0.163	-0.326
-368.756	-130.971	0.168	0.022
-367.742	480.109	0.036	0.081
-366.727	327.114	-0.018	-0.034
-365.712	213.696	-0.168	0.265
-364.698	-116.929	0.218	-0.040
-363.683	-200.000	0.027	-0.223
-362.669	15.653	-0.028	0.022
-361.654	-200.000	-0.029	-0.292
-360.639	-46.909	0.246	-0.120
-359.625	37.532	0.180	0.159
-358.610	-119.976	0.043	0.007
-357.596	-200.000	0.048	-0.476
-356.581	100.237	0.099	-0.114
-355.566	-6.488	-0.063	0.043
-354.552	29.849	0.391	0.333
-353.537	164.150	0.071	0.100
-352.523	800.000	0.059	0.187
-351.508	-200.000	0.045	0.243
-350.493	-50.037	0.210	-0.100
-349.479	-87.092	0.131	0.040
-348.464	-200.000	-0.011	0.060
-347.450	-186.783	-0.151	-0.002
-346.435	800.000	-0.053	0.150
-345.420	-200.000	-0.006	0.234
-344.406	-169.230	0.337	-0.012
-343.391	85.639	-0.256	-0.281
-342.377	135.692	-0.342	0.445
-341.362	-137.335	0.191	-0.022
-340.348	32.128	-0.174	-0.150
-339.333	-172.793	0.089	0.003
-338.318	-37.276	-0.084	0.045
-337.304	31.702	-0.110	-0.095
-336.289	167.348	-0.102	0.145
-335.275	-200.000	-0.024	-0.129
-334.260	800.000	0.069	0.299
-333.245	62.419	0.118	0.118
-332.231	-80.565	-0.279	-0.093
-331.216	-19.482	-0.211	-0.131
-330.202	242.050	-0.086	-0.144
-329.187	167.916	0.275	0.390
-328.172	-200.000	0.054	-0.466
-327.158	-200.000	-0.025	-0.448
-326.143	-52.379	0.125	0.058
-325.129	-200.000	0.002	-0.057
-324.114	-172.494	-0.206	-0.007
-323.099	-135.492	0.315	0.037
-322.085	800.000	0.120	0.385
-321.070	800.000	-0.082	-0.327
-320.056	-79.738	-0.167	0.056
-319.041	203.722	-0.151	-0.234
-318.026	53.119	-0.139	0.133
-317.012	-22.229	-0.233	0.141
-315.997	-200.000	0.027	0.290
-314.983	-1.104	0.385	-0.271
-313.968	113.672	0.113	0.137
-312.953	405.001	-0.060	0.127
-311.939	-23.816	0.231	-0.138
-310.924	-72.704	0.130	0.048
-309.910	233.040	0.125	0.204
-308.895	-46.088	0.194	0.096
-307.880	53.135	0.283	0.270
-306.866	-49.158	0.008	-0.004
-305.851	-63.220	0.165	0.068
-304.837	-200.000	0.002	0.038
-303.822	64.103	-0.187	0.188
-302.807	19.176	-0.115	0.092
-301.793	64.804	-0.188	-0.189
-300.778	-155.276	0.490	-0.032
-299.764	-97.852	-0.227	-0.058
-298.749	-86.334	0.350	-0.107
-297.735	80.601	-0.167	-0.180
-296.720	-200.000	0.009	-0.324
-295.705	34.322	-0.148	0.129
-294.691	125.675	0.134	0.169
-293.676	138.473	-0.083	-0.109
-292.662	-200.000	0.024	-0.139
-291.647	-80.687	0.307	-0.102
-290.632	-14.424	-0.047	0.030
-289.618	268.599	-0.115	-0.201
-288.603	-39.563	-0.216	-0.113
-287.589	-19.659	-0.053	0.033
-286.574	49.390	0.202	0.190
-285.559	73.469	-0.121	0.126
-284.545	329.182	-0.120	0.229
-283.530	187.858	-0.063	-0.093
-282.516	-45.895	-0.057	-0.028
-281.501	-200.000	0.028	0.323
-280.486	345.726	-0.048	-0.094
-279.472	-133.518	-0.406	-0.051
-278.457	-64.705	0.153	0.062
-277.443	-19.128	-0.147	-0.091
-276.428	-36.412	0.173	0.093
-275.413	-200.000	-0.059	0.343
-274.399	-134.122	-0.143	-0.018
-273.384	800.000	-0.075	0.248
-272.370	-200.000	0.037	0.301
-271.355	-55.797	-0.153	-0.068
-270.340	226.222	0.086	-0.139
-269.326	-2.917	0.122	0.085
-268.311	800.000	-0.144	0.426
-267.297	94.404	-0.056	0.063
-266.282	380.660	0.081	-0.165
-265.267	125.668	0.074	-0.093
-264.253	800.000	-0.013	-0.043
-263.238	-171.349	0.066	-0.002
-262.224	680.160	-0.089	0.231
-261.209	3.965	-0.059	0.043
-260.195	-157.367	0.071	0.004
-259.180	-60.171	-0.169	0.072
-258.165	230.231	0.138	0.224
-257.151	-126.736	-0.249	-0.037
-256.136	-200.000	0.094	-0.639
-255.122	-193.672	0.089	0.001
-254.107	800.000	0.058	0.236
-253.092	-119.489	-0.052	0.009
-252.078	-82.090	-0.208	-0.068
-251.063	-52.570	-0.078	-0.036
-250.049	111.244	0.098	-0.118
-249.034	-200.000	-0.000	0.070
-248.019	21.745	-0.039	0.032
-247.005	-81.371	-0.212	-0.069
-245.990	-110.924	-0.169	0.035
-244.976	800.000	-0.019	-0.069
-243.961	-99.590	-0.221	-0.055
-242.946	-37.710	0.027	-0.014
-241.932	-33.359	-0.179	0.098
-240.917	-200.000	-0.002	-0.109
-239.903	-45.236	-0.179	-0.088
-238.888	9.335	-0.196	0.148
-237.873	-30.778	-0.097	-0.054
-236.859	-157.061	0.188	0.011
-235.844	-82.391	-0.102	0.033
-234.830	342.620	0.070	-0.136
-233.815	-108.551	0.498	-0.106
-232.800	499.040	0.019	0.043
-231.786	45.116	-0.082	0.075
-230.771	800.000	0.129	0.422
-229.757	212.122	0.075	0.118
-228.742	-200.000	0.042	0.491
-227.727	-47.738	-0.249	-0.120
-226.713	-101.782	-0.142	-0.034
-225.698	782.289	-0.047	-0.127
-224.684	800.000	0.132	-0.430
-223.669	-2.946	-0.130	0.090
-222.655	-200.000	0.007	-0.291
-221.640	-64.425	-0.190	-0.077
-220.625	215.925	0.178	0.282
-219.611	800.000	-0.077	0.260
-218.596	-31.120	-0.171	0.096
-217.582	72.961	-0.273	-0.283
-216.567	-47.013	0.079	0.039
-215.552	-170.113	-0.301	0.011
-214.538	-128.498	0.253	-0.036
-213.523	-18.690	-0.209	0.129
-212.509	800.000	-0.076	-0.254
-211.494	-200.000	0.041	0.228
-210.479	-154.707	0.092	0.006
-209.465	-29.303	-0.293	0.167
-208.450	-200.000	-0.020	0.212
-207.436	-120.827	0.322	-0.054
-206.421	800.000	0.061	-0.231
-205.406	256.847	-0.243	-0.414
-204.392	8.944	-0.177	-0.133
-203.377	-86.580	0.281	0.086
-202.363	800.000	0.055	0.166
-201.348	-200.000	0.007	-0.089
-200.333	-176.270	0.388	-0.010
-199.319	-129.756	-0.399	0.055
-198.304	480.191	-0.074	-0.166
-197.290	547.542	-0.036	0.085
-196.275	-200.000	-0.001	0.181
-195.260	-173.142	-0.266	0.008
-194.246	238.524	0.058	0.095
-193.231	-176.485	0.522	-0.013
-192.217	283.175	-0.150	-0.268
-191.202	-49.628	0.114	-0.054
-190.187	353.227	-0.063	0.124
-189.173	-99.602	0.329	0.082
-188.158	-126.940	0.164	0.024
-187.144	334.658	-0.097	-0.186
-186.129	53.628	0.169	0.161
-185.114	-5.981	0.158	0.107
-184.100	-180.159	0.183	-0.004
-183.085	800.000	0.015	-0.063
-182.071	65.650	-0.111	-0.112
-181.056	21.908	0.100	0.081
-180.042	-86.582	-0.144	0.044
-179.027	6.987	-0.118	0.087
-178.012	227.689	0.112	0.181
-176.998	81.199	-0.157	0.168
-175.983	24.691	0.073	0.060
-174.969	-97.676	0.103	0.026
-173.954	-152.103	0.087	0.006
-172.939	-136.690	-0.165	0.019
-171.925	-38.388	-0.122	0.064
-170.910	757.431	-0.053	-0.142
-169.896	35.354	0.210	-0.183
-168.881	-95.687	-0.177	-0.047
-167.866	-45.359	0.120	0.059
-166.852	-200.000	0.004	-0.102
-165.837	-46.692	0.251	-0.122
-164.823	-0.462	-0.150	-0.105
-163.808	800.000	0.046	-0.186
-162.793	247.662	-0.083	0.139
-161.779	-163.658	-0.210	0.010
-160.764	-200.000	-0.009	0.118
-159.750	-161.773	-0.127	0.006
-158.735	-94.030	0.281	-0.077
-157.720	-129.975	-0.366	-0.050
-156.706	-44.128	-0.239	0.119
-155.691	-177.075	0.329	0.008
-154.677	68.888	-0.047	0.048
-153.662	-37.557	-0.124	-0.066
-152.647	77.959	0.222	-0.234
-151.633	-200.000	0.050	0.234
-150.618	-28.664	0.162	-0.093
-149.604	-38.999	0.246	0.129
-148.589	93.771	-0.323	0.363
-147.574	563.565	-0.065	0.156
-146.560	52.608	-0.162	0.153
-145.545	170.555	0.223	-0.317
-144.531	25.805	0.079	0.065
-143.516	-61.273	0.191	-0.080
-142.502	800.000	0.115	0.346
-141.487	800.000	-0.034	-0.103
-140.472	53.774	0.250	-0.238
-139.458	-122.960	-0.366	0.058
-138.443	-1.288	0.214	0.150
-137.429	43.152	0.119	0.108
-136.414	-127.495	0.058	0.008
-135.399	210.707	-0.137	0.213
-134.385	-68.595	0.256	0.098
-133.370	-115.605	0.118	0.022
-132.356	26.497	0.321	-0.266
-131.341	800.000	-0.068	0.249
-130.326	10.068	0.109	0.082
-129.312	800.000	-0.064	0.232
-128.297	800.000	0.030	-0.129
-127.283	-110.964	-0.038	-0.008
-126.268	-83.531	-0.135	0.043
-125.253	746.915	-0.084	0.225
-124.239	-20.477	0.359	-0.218
-123.224	14.568	-0.324	-0.251
-122.210	135.508	0.081	-0.105
-121.195	512.054	-0.032	0.073
-120.180	-200.000	0.020	-0.181
-119.166	16.032	0.274	-0.214
-118.151	-98.115	-0.199	-0.051
-117.137	308.452	-0.195	0.360
-116.122	266.672	-0.142	-0.246
-115.107	19.263	0.414	0.329
-114.093	800.000	-0.006	-0.018
-113.078	309.519	0.188	0.347
-112.064	124.893	-0.110	0.137
-111.049	265.869	-0.060	-0.104
-110.034	-24.646	0.115	-0.068
-109.020	-27.454	-0.201	0.115
-108.005	-200.000	-0.015	0.091
-106.991	-200.000	-0.077	-0.459
-105.976	485.963	-0.107	-0.242
-104.962	-88.283	0.097	-0.029
-103.947	286.978	0.031	-0.056
-102.932	-200.000	0.017	-0.116
-101.918	-8.035	0.122	-0.082
-100.903	-58.655	0.145	0.062
-99.889	187.301	-0.080	0.118
-98.874	-160.353	0.200	-0.011
-97.859	-139.396	0.216	0.023
-96.845	-59.657	0.194	-0.082
-95.830	707.919	-0.119	0.312
-94.816	-11.093	0.275	-0.179
-93.801	-200.000	0.007	0.345
-92.786	180.997	0.128	0.186
-91.772	513.305	-0.051	0.117
-90.757	-70.470	-0.214	0.080
-89.743	-200.000	-0.008	-0.128
-88.728	557.072	0.165	-0.394
-87.713	463.508	0.062	-0.137
-86.699	359.840	0.088	0.174
-85.684	30.555	0.298	0.252
-84.670	108.151	0.127	-0.149
-83.655	-41.251	0.071	0.036
-82.640	-200.000	0.202	0.000
-81.626	-200.000	-0.003	0.182
-80.611	-200.000	-0.007	-0.233
-79.597	-61.198	0.020	0.008
-78.582	-101.117	-0.048	-0.012
-77.567	-131.056	0.295	0.039
-76.553	158.905	0.176	-0.242
-75.538	-169.844	-0.091	0.003
-74.524	-200.000	-0.010	0.287
-73.509	72.670	0.236	0.243
-72.494	800.000	0.092	-0.320
-71.480	-102.280	-0.129	0.030
-70.465	-153.731	0.358	-0.024
-69.451	-200.000	0.007	0.045
-68.436	353.379	-0.061	-0.119
-67.422	-9.948	0.202	-0.133
-66.407	-95.733	-0.089	-0.023
-65.392	-47.074	0.247	0.119
-64.378	-200.000	0.041	0.209
-63.363	30.686	0.082	0.069
-62.349	180.595	-0.075	0.109
-61.334	35.600	-0.846	-0.734
-60.319	-45.189	1.080	0.530
-59.305	800.000	-0.171	-0.735
-58.290	482.482	0.485	1.089
-57.276	800.000	0.587	1.695
-56.261	-200.000	100.701	582.247
-55.246	498.871	1413.481	3216.180
-54.232	154.012	2592.822	3511.118
-53.217	100.903	2303.076	2644.429
-52.203	37.567	2059.947	1804.783
-51.188	32.780	1974.953	1687.545
-50.173	31.233	1957.409	1658.759
-49.159	46.354	2009.897	1839.779
-48.144	47.671	2028.896	1868.969
-47.130	33.393	1988.690	1704.531
-46.115	31.115	1977.737	1674.655
-45.100	31.006	1975.180	1671.450
-44.086	30.937	1973.401	1669.264
-43.071	30.837	1970.801	1666.104
-42.057	30.857	1968.709	1664.443
-41.042	30.948	1965.964	1662.872
-40.027	30.942	1964.463	1661.480
-39.013	30.960	1962.592	1659.990
-37.998	30.992	1960.640	1658.556
-36.984	30.990	1958.890	1656.993
-35.969	31.058	1956.428	1655.452
-34.954	31.024	1955.300	1654.130
-33.940	31.001	1954.001	1652.761
-32.925	31.096	1951.683	1651.572
-31.911	31.080	1950.333	1650.229
-30.896	31.046	1948.973	1648.713
-29.881	31.052	1947.430	1647.392
-28.867	31.140	1946.188	1647.049
-27.852	31.076	1944.208	1644.745
-26.838	31.219	1941.681	1643.805
-25.823	31.125	1940.598	1641.991
-24.809	31.054	1939.069	1640.014
-23.794	31.081	1937.061	1638.484
-22.779	31.073	1935.315	1636.870
-21.765	31.087	1934.129	1635.930
-20.750	31.061	1932.176	1633.984
-19.736	31.051	1930.363	1632.294
-18.721	31.139	1929.016	1631.867
-17.706	31.136	1926.951	1630.021
-16.692	31.130	1925.214	1628.442
-15.677	31.063	1924.194	1626.926
-14.663	31.069	1921.792	1624.884
-13.648	31.107	1921.058	1624.529
-12.633	31.069	1919.997	1623.238
-11.619	30.985	1919.445	1621.972
-10.604	31.081	1917.500	1621.099
-9.590	31.118	1916.001	1620.091
-8.575	31.070	1914.507	1618.348
-7.560	30.994	1913.974	1617.175
-6.546	31.067	1912.554	1616.539
-5.531	31.064	1911.036	1615.164
-4.517	31.042	1910.088	1614.116
-3.502	31.069	1908.794	1613.192
-2.487	31.037	1907.382	1611.657
-1.473	31.071	1906.646	1611.261
-0.458	31.114	1901.897	1607.555
0.556	28.996	1882.059	1579.754
1.571	24.672	1862.580	1526.433
2.586	20.646	1885.248	1510.000
3.600	19.666	1920.075	1529.088
4.615	19.345	1915.147	1522.194
5.629	14.914	1815.245	1405.498
6.644	5.927	1695.065	1241.520
7.659	0.644	1656.029	1171.917
8.673	0.202	1652.744	1166.066
9.688	0.096	1651.801	1164.473
10.702	0.089	1650.622	1163.483
11.717	-0.086	1647.078	1159.534
12.731	0.505	1646.354	1163.483
13.746	7.123	1660.771	1224.906
14.761	15.417	1676.955	1301.292
15.775	17.774	1679.585	1321.501
16.790	16.929	1676.168	1312.164
17.804	15.799	1673.302	1301.072
18.819	14.913	1669.673	1291.296
19.834	14.364	1667.467	1285.242
20.848	14.016	1666.467	1281.670
21.863	13.826	1664.276	1278.407
22.877	13.537	1662.607	1274.787
23.892	13.319	1661.620	1272.242
24.907	13.239	1660.608	1270.743
25.921	13.202	1659.388	1269.408
26.936	13.209	1658.663	1268.799
27.950	13.221	1657.787	1268.109
28.965	13.256	1657.123	1267.758
29.980	13.326	1656.553	1267.744
30.994	13.361	1655.069	1266.767
32.009	13.410	1654.233	1266.391
33.023	13.498	1653.292	1266.229
34.038	13.513	1652.567	1265.679
35.053	13.387	1651.616	1263.871
36.067	13.457	1650.212	1263.219
37.082	13.349	1649.493	1261.732
38.096	13.399	1648.620	1261.335
39.111	13.335	1647.920	1260.198
40.126	13.419	1647.108	1260.112
41.140	13.406	1645.756	1258.866
42.155	13.243	1645.004	1256.940
43.169	13.176	1643.805	1255.403
44.184	13.211	1641.514	1253.803
45.199	13.098	1641.152	1252.561
46.213	13.130	1639.877	1251.720
47.228	13.242	1638.176	1251.162
48.242	13.188	1637.618	1250.213
49.257	13.281	1636.367	1249.848
50.271	13.284	1635.153	1248.838
51.286	13.245	1634.046	1247.584
52.301	13.389	1632.143	1247.104
53.315	13.222	1631.452	1245.209
54.330	13.264	1629.198	1243.696
55.344	13.201	1627.880	1242.111
56.359	13.141	1626.606	1240.573
57.374	13.185	1625.840	1240.208
58.388	13.192	1624.482	1239.119
59.403	13.224	1623.078	1238.178
60.417	13.141	1621.899	1236.543
61.432	13.136	1620.515	1235.344
62.447	13.116	1619.457	1234.276
63.461	13.045	1618.414	1232.848
64.476	13.101	1617.108	1232.160
65.490	13.015	1616.193	1230.708
66.505	13.080	1614.448	1229.756
67.520	13.120	1613.414	1229.157
68.534	13.106	1612.550	1228.288
69.549	13.123	1611.625	1227.599
70.563	13.174	1609.854	1226.524
71.578	13.190	1608.763	1225.699
72.593	13.047	1608.092	1224.020
73.607	13.052	1607.083	1223.181
74.622	13.037	1605.748	1221.949
75.636	13.011	1605.277	1221.288
76.651	12.987	1604.147	1220.142
77.666	12.934	1603.510	1219.156
78.680	13.072	1601.804	1218.774
79.695	13.054	1601.196	1218.070
80.709	13.018	1600.416	1217.104
81.724	13.109	1599.325	1216.833
82.739	13.182	1598.623	1216.732
83.753	13.163	1597.840	1215.888
84.768	13.182	1596.882	1215.188
85.782	13.235	1595.808	1214.652
86.797	13.317	1594.773	1214.360
87.812	13.359	1593.645	1213.705
88.826	13.268	1592.332	1211.932
89.841	13.249	1591.450	1211.016
90.855	13.224	1590.437	1209.949
91.870	13.286	1589.230	1209.380
92.884	13.300	1588.932	1209.146
93.899	13.257	1588.012	1208.027
94.914	13.351	1586.386	1207.372
95.928	13.438	1584.912	1206.771
96.943	13.404	1583.670	1205.474
97.957	13.336	1582.411	1203.917
98.972	13.367	1580.859	1202.853
99.987	13.416	1579.293	1201.907
101.001	13.343	1577.617	1199.995
102.016	13.317	1576.618	1198.943
103.030	13.383	1574.835	1197.958
104.045	13.354	1574.051	1197.049
105.060	13.341	1572.645	1195.779
106.074	13.339	1570.822	1194.274
107.089	13.238	1569.748	1192.618
108.103	13.223	1567.812	1190.938
109.118	13.064	1567.262	1189.267
110.133	13.210	1564.885	1188.408
111.147	13.147	1564.072	1187.235
112.162	13.102	1562.573	1185.671
113.176	13.192	1561.435	1185.347
114.191	13.250	1559.766	1184.390
115.206	13.252	1558.749	1183.525
116.220	13.116	1557.941	1181.837
117.235	13.145	1556.744	1181.029
118.249	13.200	1554.596	1179.688
119.264	13.153	1553.479	1178.399
120.279	13.203	1551.808	1177.385
121.293	13.214	1550.848	1176.631
122.308	13.179	1549.167	1175.001
123.322	13.214	1547.324	1173.752
124.337	13.210	1545.845	1172.495
125.352	13.157	1544.423	1170.938
126.366	13.177	1543.482	1170.266
127.381	13.077	1542.605	1168.785
128.395	13.044	1541.466	1167.589
129.410	13.134	1540.148	1167.123
130.424	13.170	1538.994	1166.399
131.439	13.150	1537.774	1165.230
132.454	13.187	1536.002	1164.046
133.468	13.220	1534.896	1163.333
134.483	13.189	1534.195	1162.482
135.497	13.261	1532.223	1161.394
136.512	13.211	1530.965	1159.982
137.527	13.288	1529.523	1159.329
138.541	13.299	1527.905	1158.075
139.556	13.281	1526.553	1156.825
140.570	13.285	1525.732	1156.130
141.585	13.299	1524.198	1154.963
142.600	13.337	1522.955	1154.182
143.614	13.360	1521.877	1153.420
144.629	13.470	1520.743	1153.226
145.643	13.529	1519.285	1152.432
146.658	13.528	1518.063	1151.397
147.673	13.514	1516.252	1149.825
148.687	13.483	1514.689	1148.319
149.702	13.538	1513.023	1147.336
150.716	13.433	1511.443	1145.308
151.731	13.332	1510.557	1143.837
152.746	13.430	1509.007	1143.242
153.760	13.427	1507.527	1141.996
154.775	13.376	1507.050	1141.182
155.789	13.532	1505.044	1140.636
156.804	13.496	1503.838	1139.375
157.819	13.524	1502.792	1138.674
158.833	13.556	1501.524	1137.832
159.848	13.501	1500.841	1136.838
160.862	13.600	1499.467	1136.372
161.877	13.629	1498.088	1135.426
162.892	13.590	1496.855	1134.127
163.906	13.509	1495.486	1132.437
164.921	13.481	1494.265	1131.221
165.935	13.510	1493.042	1130.391
166.950	13.507	1492.105	1129.564
167.964	13.545	1490.906	1128.810
168.979	13.529	1489.967	1127.893
169.994	13.513	1489.072	1127.006
171.008	13.578	1487.769	1126.359
172.023	13.585	1486.606	1125.427
173.037	13.683	1485.130	1124.875
174.052	13.753	1483.992	1124.388
175.067	13.655	1482.700	1122.646
176.081	13.661	1481.924	1122.005
177.096	13.616	1480.596	1120.592
178.110	13.619	1479.313	1119.541
179.125	13.612	1478.056	1118.447
180.140	13.660	1477.032	1117.894
181.154	13.707	1476.062	1117.380
182.169	13.679	1474.970	1116.268
183.183	13.691	1474.270	1115.719
184.198	13.759	1472.741	1114.917
185.213	13.834	1471.592	1114.452
186.227	13.749	1470.804	1113.186
187.242	13.742	1469.968	1112.408
188.256	13.884	1468.538	1112.180
189.271	13.818	1468.123	1111.322
190.286	14.002	1465.927	1110.797
191.300	13.831	1465.234	1109.032
192.315	13.763	1463.840	1107.423
193.329	13.631	1463.049	1105.844
194.344	13.739	1461.410	1105.229
195.359	13.658	1460.875	1104.186
196.373	13.747	1459.654	1103.759
197.388	13.741	1458.410	1102.681
198.402	13.863	1457.705	1102.857
199.417	13.932	1455.873	1101.835
200.432	14.047	1455.128	1101.938
201.446	14.034	1454.019	1100.912
202.461	14.117	1453.226	1100.766
203.475	14.170	1451.849	1099.970
204.490	14.134	1450.983	1098.979
205.504	14.119	1449.977	1098.021
206.519	14.057	1448.389	1096.316
207.534	14.052	1447.508	1095.517
208.548	14.018	1446.462	1094.408
209.563	14.005	1445.810	1093.727
210.577	14.068	1444.762	1093.254
211.592	14.033	1444.084	1092.417
212.607	14.063	1443.123	1091.791
213.621	14.180	1442.268	1091.812
214.636	14.237	1441.527	1091.532
215.650	14.208	1440.549	1090.503
216.665	14.189	1439.414	1089.421
217.680	14.156	1439.159	1088.919
218.694	14.249	1438.024	1088.568
219.709	14.224	1437.425	1087.859
220.723	14.314	1436.129	1087.369
221.738	14.320	1435.194	1086.601
222.753	14.250	1434.445	1085.484
223.767	14.333	1433.454	1085.176
224.782	14.310	1432.538	1084.238
225.796	14.301	1431.946	1083.637
226.811	14.359	1431.339	1083.456
227.826	14.426	1430.233	1082.959
228.840	14.444	1429.321	1082.288
229.855	14.357	1428.294	1080.855
230.869	14.363	1427.437	1080.147
231.884	14.351	1426.363	1079.160
232.899	14.405	1424.858	1078.276
233.913	14.291	1423.790	1076.635
234.928	14.329	1423.007	1076.196
235.942	14.244	1422.118	1074.879
236.957	14.309	1420.845	1074.237
237.972	14.215	1420.038	1072.928
238.986	14.321	1418.678	1072.488
240.001	14.393	1417.081	1071.648
241.015	14.281	1416.508	1070.399
242.030	14.427	1415.277	1070.315
243.045	14.391	1414.398	1069.321
244.059	14.418	1413.876	1069.006
245.074	14.519	1412.824	1068.763
246.088	14.504	1412.080	1068.009
247.103	14.454	1411.595	1067.228
248.117	14.547	1410.658	1067.019
249.132	14.492	1410.048	1066.117
250.147	14.664	1408.988	1066.317
251.161	14.787	1408.364	1066.536
252.176	14.690	1407.849	1065.435
253.190	14.711	1407.236	1065.009
254.205	14.795	1406.067	1064.563
255.220	14.885	1405.147	1064.349
256.234	14.928	1404.199	1063.806
257.249	14.903	1403.722	1063.195
258.263	14.939	1402.705	1062.558
259.278	14.916	1401.462	1061.375
260.293	14.889	1400.844	1060.645
261.307	14.862	1400.505	1060.122
262.322	14.949	1399.505	1059.822
263.336	15.053	1398.711	1059.786
264.351	15.013	1397.867	1058.801
265.366	15.136	1396.426	1058.389
266.380	15.129	1395.243	1057.356
267.395	15.062	1394.798	1056.506
268.409	15.085	1393.978	1055.936
269.424	15.079	1392.766	1054.887
270.439	15.110	1391.852	1054.292
271.453	15.072	1391.020	1053.329
272.468	15.096	1390.202	1052.769
273.482	15.092	1389.467	1052.093
274.497	15.139	1388.508	1051.568
275.512	15.032	1388.130	1050.520
276.526	15.137	1386.932	1050.175
277.541	15.242	1385.353	1049.547
278.555	15.088	1385.116	1048.309
279.570	15.175	1384.094	1047.991
280.585	15.212	1383.186	1047.439
281.599	15.301	1382.462	1047.356
282.614	15.353	1381.461	1046.829
283.628	15.277	1380.575	1045.590
284.643	15.208	1379.545	1044.289
285.657	15.260	1378.457	1043.696
286.672	15.213	1377.658	1042.705
287.687	15.276	1376.551	1042.166
288.701	15.258	1375.347	1041.052
289.716	15.276	1374.456	1040.398
290.730	15.366	1374.051	1040.558
291.745	15.356	1373.120	1039.697
292.760	15.332	1372.423	1038.929
293.774	15.338	1370.891	1037.716
294.789	15.398	1370.008	1037.326
295.803	15.515	1368.935	1037.144
296.818	15.440	1368.798	1036.488
297.833	15.501	1367.168	1035.536
298.847	15.530	1365.925	1034.681
299.862	15.441	1365.497	1033.717
300.876	15.457	1364.096	1032.663
301.891	15.427	1363.507	1031.940
302.906	15.571	1362.614	1032.057
303.920	15.602	1362.187	1031.835
304.935	15.533	1361.787	1031.015
305.949	15.646	1360.509	1030.653
306.964	15.687	1359.639	1030.150
307.979	15.631	1359.267	1029.439
308.993	15.631	1357.911	1028.317
310.008	15.684	1356.883	1027.770
311.022	15.704	1355.747	1026.944
312.037	15.779	1354.997	1026.741
313.052	15.654	1354.568	1025.565
314.066	15.645	1353.368	1024.510
315.081	15.711	1351.965	1023.758
316.095	15.699	1351.248	1023.050
317.110	15.697	1349.752	1021.814
318.125	15.665	1349.107	1021.041
319.139	15.743	1348.008	1020.593
320.154	15.730	1347.330	1019.913
321.168	15.726	1346.056	1018.832
322.183	15.759	1345.162	1018.266
323.197	15.779	1344.183	1017.560
324.212	15.782	1343.615	1017.053
325.227	15.756	1342.995	1016.339
326.241	15.720	1341.941	1015.232
327.256	15.781	1340.921	1014.738
328.270	15.873	1339.989	1014.499
329.285	15.796	1339.304	1013.427
330.300	15.795	1338.442	1012.679
331.314	15.761	1337.873	1011.955
332.329	15.822	1336.752	1011.384
333.343	15.806	1336.062	1010.678
334.358	15.844	1335.292	1010.234
335.373	15.823	1334.450	1009.382
336.387	15.857	1333.350	1008.665
337.402	15.934	1332.722	1008.560
338.416	15.838	1332.191	1007.492
339.431	15.947	1331.948	1007.869
340.446	16.075	1330.723	1007.620
341.460	16.099	1329.058	1006.414
342.475	16.072	1328.551	1005.782
343.489	16.147	1328.045	1005.755
344.504	16.135	1327.179	1004.938
345.519	16.138	1326.398	1004.274
346.533	16.139	1325.196	1003.282
347.548	16.202	1324.177	1002.796
348.562	16.306	1323.380	1002.722
349.577	16.326	1322.522	1002.102
350.592	16.349	1321.991	1001.746
351.606	16.220	1321.081	1000.204
352.621	16.177	1320.291	999.262
353.635	16.134	1319.046	997.978
354.650	16.243	1318.199	997.896
355.665	16.166	1317.071	996.496
356.679	16.193	1316.262	995.954
357.694	16.141	1315.202	994.762
358.708	16.255	1314.183	994.572
359.723	16.297	1312.376	993.363
360.738	16.328	1311.812	993.033
361.752	16.273	1311.113	992.089
362.767	16.361	1310.003	991.684
363.781	16.330	1309.353	990.919
364.796	16.250	1308.633	989.816
365.810	16.272	1307.881	989.291
366.825	16.446	1307.141	989.664
367.840	16.395	1306.411	988.724
368.854	16.457	1305.488	988.299
369.869	16.496	1304.982	988.059
370.883	16.439	1304.529	987.295
371.898	16.564	1303.548	987.195
372.913	16.549	1303.139	986.709
373.927	16.652	1301.738	986.162
374.942	16.552	1300.930	984.880
375.956	16.620	1300.752	985.054
376.971	16.643	1299.294	983.993
377.986	16.616	1298.658	983.268
379.000	16.537	1298.027	982.244
380.015	16.730	1297.162	982.626
381.029	16.761	1296.333	982.090
382.044	16.749	1295.567	981.356
383.059	16.735	1294.858	980.648
384.073	16.763	1293.981	980.057
385.088	16.792	1293.797	980.002
386.102	16.731	1293.246	979.141
387.117	16.758	1292.212	978.428
388.132	16.855	1291.310	978.221
389.146	16.788	1290.907	977.443
390.161	16.794	1289.689	976.469
391.175	16.747	1289.446	975.927
392.190	16.761	1288.520	975.220
393.205	16.767	1287.425	974.338
394.219	16.947	1286.365	974.484
395.234	16.966	1284.958	973.440
396.248	16.873	1283.942	972.056
397.263	16.862	1282.483	970.799
398.278	16.941	1280.962	970.013
399.292	16.985	1279.692	969.221
400.307	16.826	1279.253	967.894
401.321	16.801	1278.273	966.923
402.336	16.816	1277.270	966.162
403.350	16.864	1276.347	965.656
404.365	16.954	1275.123	965.155
405.380	16.895	1274.677	964.394
406.394	16.982	1273.511	963.925
407.409	16.976	1273.101	963.493
408.423	16.936	1272.638	962.829
409.438	17.065	1272.022	963.013
410.453	16.985	1271.286	961.915
411.467	17.190	1270.251	962.210
412.482	17.067	1270.096	961.310
413.496	17.111	1269.505	961.024
414.511	17.243	1268.341	960.805
415.526	17.241	1267.556	960.113
416.540	17.220	1267.181	959.625
417.555	17.316	1266.248	959.376
418.569	17.247	1265.684	958.477
419.584	17.210	1265.336	957.919
420.599	17.302	1264.533	957.747
421.613	94.427	1349.998	1463.168
422.628	91.994	1362.404	1463.258
