DTS Sentinel unit serial number:	SN413079Multiplexer serial number:	ORYXHardware model number:	OX4-SRSoftware version number:	ORYX F/W v4.00 Oryx Data Collector v3.7.2.0data status	okinstallation	princeton_trtdifferential loss correction	single-endedforward channel	channel 4reverse channel	N/Adate	2019/09/18time	10:37:35forward acquisition time	60.00reverse acquisition time	0.00gamma	496.2192k internal	0.2316k external	0.2316temperature offset calibration	0.9982default loss term (dB/km)	0.3790temperature slope calibration	1.0000multiplexer offset coefficient	1.0000multiplexer slope coefficient	1.0000fibre end	0.00T internal ref (°C)	28.61T ext. ref 1 (°C)	0.36T ext. ref 2 (°C)	25.25length (m)	temperature (°C)	Stokes	anti-Stokes-747.200	-200.000	-0.009	-0.240
-746.185	-200.000	-0.408	0.001
-745.171	40.042	-0.219	-0.199
-744.156	-36.599	-0.197	-0.107
-743.142	-12.853	0.353	-0.233
-742.127	749.307	-0.124	0.338
-741.112	800.000	-0.092	-0.328
-740.098	-98.145	-0.173	-0.045
-739.083	-112.462	-0.353	0.071
-738.069	17.719	-0.131	-0.106
-737.054	-14.745	-0.242	-0.157
-736.039	229.742	0.185	-0.306
-735.025	-168.099	0.206	0.008
-734.010	109.457	0.123	0.149
-732.996	-63.293	-0.300	-0.125
-731.981	161.599	0.165	-0.234
-730.966	108.033	-0.010	0.012
-729.952	-123.729	0.211	0.034
-728.937	-11.761	-0.157	-0.105
-727.923	800.000	-0.065	0.288
-726.908	-22.052	-0.203	-0.125
-725.894	32.843	-0.098	-0.086
-724.879	-37.481	0.302	-0.163
-723.864	9.254	0.107	0.082
-722.850	-95.689	0.402	0.109
-721.835	-36.307	-0.212	-0.116
-720.821	-200.000	-0.002	-0.139
-719.806	2.892	0.075	0.055
-718.791	-62.713	0.114	0.048
-717.777	57.655	0.174	-0.173
-716.762	157.168	-0.187	0.262
-715.748	-200.000	0.001	-0.031
-714.733	-200.000	-0.022	0.130
-713.718	-200.000	-0.031	-0.181
-712.704	-105.894	-0.161	-0.037
-711.689	-200.000	-0.003	-0.159
-710.675	800.000	-0.067	-0.238
-709.660	-20.267	0.148	0.092
-708.645	800.000	0.053	0.150
-707.631	185.050	0.356	0.534
-706.616	800.000	-0.033	-0.137
-705.602	-103.380	-0.185	0.044
-704.587	800.000	0.071	-0.267
-703.572	-106.857	-0.060	-0.014
-702.558	197.615	0.245	0.378
-701.543	-37.543	0.424	0.228
-700.529	-200.000	-0.035	0.276
-699.514	-26.499	-0.153	0.090
-698.499	-200.000	-0.043	0.337
-697.485	10.753	-0.191	-0.148
-696.470	-200.000	-0.026	0.138
-695.456	800.000	-0.027	0.103
-694.441	-136.728	0.242	-0.028
-693.426	800.000	-0.081	0.248
-692.412	-9.296	-0.142	-0.096
-691.397	-200.000	0.037	0.169
-690.383	-41.698	-0.260	0.135
-689.368	-1.159	-0.158	-0.113
-688.354	782.467	-0.043	0.120
-687.339	212.822	0.149	0.237
-686.324	74.451	-0.168	-0.178
-685.310	800.000	-0.062	0.240
-684.295	33.014	-0.132	0.116
-683.281	296.638	-0.146	0.270
-682.266	-200.000	-0.019	0.121
-681.251	-107.807	0.315	0.069
-680.237	493.576	0.183	0.423
-679.222	-48.799	0.196	0.095
-678.208	800.000	-0.018	0.060
-677.193	-72.480	-0.122	-0.046
-676.178	-161.429	0.091	-0.005
-675.164	-100.664	0.312	0.078
-674.149	578.143	0.032	-0.079
-673.135	-135.397	0.240	-0.029
-672.120	9.108	-0.159	0.121
-671.105	-58.458	0.339	0.149
-670.091	-82.025	0.251	-0.083
-669.076	800.000	-0.072	0.218
-668.062	-200.000	0.004	-0.162
-667.047	-114.479	-0.403	-0.078
-666.032	366.297	-0.072	0.147
-665.018	45.616	-0.178	-0.166
-664.003	-200.000	-0.038	-0.172
-662.989	800.000	-0.026	0.109
-661.974	-82.310	0.198	0.065
-660.959	477.465	-0.096	-0.219
-659.945	-126.360	-0.125	0.019
-658.930	708.266	0.031	0.084
-657.916	-200.000	0.040	-0.336
-656.901	94.651	-0.038	0.043
-655.886	-101.058	-0.162	0.040
-654.872	-66.096	-0.225	0.090
-653.857	-12.830	-0.418	0.275
-652.843	-200.000	-0.019	0.129
-651.828	223.724	-0.279	-0.455
-650.814	-171.388	0.064	0.002
-649.799	800.000	0.021	0.078
-648.784	264.806	0.097	-0.171
-647.770	-107.108	-0.243	-0.054
-646.755	302.855	-0.159	0.296
-645.741	-200.000	0.036	0.329
-644.726	394.935	-0.076	-0.160
-643.711	449.002	-0.041	-0.091
-642.697	-200.000	0.007	-0.140
-641.682	-200.000	0.007	0.046
-640.668	-23.375	-0.155	0.094
-639.653	-3.651	-0.181	-0.127
-638.638	800.000	-0.048	-0.163
-637.624	-200.000	0.068	-0.322
-636.609	-18.637	-0.236	-0.149
-635.595	800.000	-0.036	0.110
-634.580	105.882	-0.223	-0.266
-633.565	-200.000	0.001	0.202
-632.551	800.000	0.090	0.396
-631.536	414.458	0.114	0.245
-630.522	-82.133	0.130	-0.043
-629.507	-25.382	-0.109	0.065
-628.492	676.700	-0.215	-0.563
-627.478	239.507	-0.183	0.307
-626.463	-130.003	-0.124	0.017
-625.449	-200.000	0.001	-0.384
-624.434	-22.035	0.147	0.090
-623.419	-200.000	-0.020	0.134
-622.405	-53.998	0.212	0.097
-621.390	144.560	-0.238	-0.320
-620.376	307.442	-0.050	-0.094
-619.361	-200.000	0.006	0.083
-618.346	445.835	-0.093	-0.205
-617.332	-200.000	0.023	-0.389
-616.317	-110.720	-0.143	0.030
-615.303	-200.000	0.026	0.121
-614.288	149.399	-0.127	0.174
-613.273	-143.808	-0.385	-0.037
-612.259	292.734	0.023	-0.042
-611.244	156.009	-0.091	0.127
-610.230	-200.000	-0.041	-0.193
-609.215	118.764	-0.071	-0.088
-608.201	-200.000	-0.006	-0.150
-607.186	-71.949	0.380	0.142
-606.171	-200.000	0.008	0.121
-605.157	-100.534	-0.127	-0.032
-604.142	-154.399	0.201	0.014
-603.128	-200.000	-0.003	-0.304
-602.113	641.823	0.035	0.090
-601.098	-200.000	-0.005	-0.264
-600.084	-195.375	0.248	0.002
-599.069	21.600	-0.319	-0.262
-598.055	113.547	0.070	0.086
-597.040	25.761	0.121	0.102
-596.025	-157.032	-0.102	0.006
-595.011	0.367	-0.175	0.126
-593.996	46.488	0.062	0.058
-592.982	-200.000	0.047	-0.247
-591.967	94.009	-0.211	-0.241
-590.952	356.830	0.077	0.155
-589.938	284.025	0.218	0.395
-588.923	284.583	0.106	0.192
-587.909	-121.082	0.308	0.052
-586.894	49.533	0.047	-0.044
-585.879	-17.671	-0.228	-0.144
-584.865	125.291	0.227	0.288
-583.850	-200.000	-0.026	-0.147
-582.836	-200.000	0.005	-0.134
-581.821	-200.000	0.048	-0.251
-580.806	227.503	-0.150	-0.246
-579.792	-57.039	0.100	-0.045
-578.777	-137.164	0.137	0.016
-577.763	-200.000	0.016	-0.126
-576.748	-27.467	0.182	-0.106
-575.733	-200.000	-0.055	-0.244
-574.719	-42.518	-0.189	-0.097
-573.704	404.188	-0.082	0.174
-572.690	183.431	-0.117	-0.174
-571.675	800.000	-0.070	0.228
-570.661	-131.799	0.068	-0.009
-569.646	-200.000	0.045	-0.226
-568.631	-190.944	0.448	0.005
-567.617	800.000	-0.048	0.185
-566.602	383.764	0.206	0.426
-565.588	-48.122	-0.211	0.103
-564.573	-14.586	0.185	0.120
-563.558	-200.000	-0.011	-0.088
-562.544	-63.487	0.161	-0.067
-561.529	292.785	-0.078	-0.144
-560.515	-61.057	0.102	-0.043
-559.500	9.695	0.271	0.206
-558.485	-200.000	-0.026	0.227
-557.471	91.256	0.143	0.161
-556.456	60.642	-0.056	-0.056
-555.442	-122.792	-0.113	-0.018
-554.427	-75.940	0.022	-0.008
-553.412	-11.203	-0.147	-0.097
-552.398	-99.879	0.270	0.068
-551.383	148.293	0.268	-0.364
-550.369	-24.171	-0.061	0.037
-549.354	174.902	0.186	0.271
-548.339	-7.112	0.240	0.164
-547.325	800.000	-0.049	0.195
-546.310	53.316	-0.103	-0.099
-545.296	-2.683	0.220	0.154
-544.281	221.135	-0.108	-0.174
-543.266	-158.930	0.134	0.008
-542.252	-187.671	-0.244	0.003
-541.237	213.227	0.101	-0.160
-540.223	800.000	0.110	0.377
-539.208	-130.380	-0.387	0.053
-538.193	-200.000	-0.051	0.457
-537.179	586.622	-0.052	-0.129
-536.164	-200.000	0.037	-0.190
-535.150	-200.000	-0.045	-0.235
-534.135	800.000	-0.111	0.422
-533.121	-169.491	0.155	0.006
-532.106	641.290	-0.046	0.117
-531.091	-200.000	0.014	-0.112
-530.077	-98.730	-0.144	0.037
-529.062	18.557	0.242	0.195
-528.048	-40.503	0.245	0.128
-527.033	224.316	0.065	0.106
-526.018	53.092	0.029	-0.027
-525.004	731.569	-0.064	0.172
-523.989	47.685	-0.198	0.185
-522.975	-48.978	0.137	0.066
-521.960	730.487	0.074	-0.200
-520.945	73.876	0.060	0.063
-519.931	-200.000	-0.014	0.176
-518.916	1.721	-0.280	-0.203
-517.902	-94.806	0.133	-0.036
-516.887	-200.000	0.001	-0.226
-515.872	-112.210	-0.139	-0.028
-514.858	168.364	0.071	-0.101
-513.843	-145.345	0.142	0.013
-512.829	-200.000	0.010	0.150
-511.814	-18.405	-0.354	0.222
-510.799	-127.291	-0.159	0.023
-509.785	-185.677	-0.295	-0.004
-508.770	224.496	-0.229	-0.372
-507.756	-200.000	0.042	0.253
-506.741	-166.507	-0.118	0.005
-505.726	-38.792	-0.185	0.098
-504.712	50.006	-0.127	0.121
-503.697	-0.401	0.256	-0.183
-502.683	-200.000	-0.013	-0.129
-501.668	98.217	0.106	-0.123
-500.653	15.361	0.205	-0.162
-499.639	-200.000	-0.008	0.037
-498.624	-115.033	-0.154	-0.029
-497.610	-128.011	0.312	0.045
-496.595	-200.000	-0.079	0.398
-495.581	146.102	-0.053	0.072
-494.566	332.501	-0.101	0.196
-493.551	370.747	0.108	0.220
-492.537	-78.659	-0.322	-0.111
-491.522	790.671	-0.162	-0.448
-490.508	-16.939	-0.110	-0.070
-489.493	-13.584	0.170	0.111
-488.478	58.478	-0.147	0.144
-487.464	-200.000	-0.026	-0.248
-486.449	160.073	-0.197	0.275
-485.435	-93.037	0.151	0.042
-484.420	188.065	0.035	-0.052
-483.405	103.559	-0.262	0.308
-482.391	-4.724	-0.173	-0.120
-481.376	-200.000	-0.039	0.212
-480.362	28.694	-0.069	-0.059
-479.347	795.499	-0.082	0.226
-478.332	303.026	-0.030	-0.055
-477.318	29.679	0.062	-0.053
-476.303	-200.000	0.005	0.064
-475.289	-114.862	0.294	0.056
-474.274	-200.000	0.062	-0.324
-473.259	-22.788	-0.263	-0.159
-472.245	800.000	0.086	-0.239
-471.230	-73.604	-0.267	0.098
-470.216	-106.237	0.153	-0.034
-469.201	-160.679	-0.130	0.007
-468.186	-101.408	-0.334	-0.082
-467.172	-200.000	-0.036	-0.162
-466.157	-142.037	-0.182	-0.018
-465.143	379.791	0.066	0.135
-464.128	-131.619	0.290	0.038
-463.113	-34.966	0.355	-0.194
-462.099	122.752	0.086	-0.108
-461.084	-51.338	0.257	-0.120
-460.070	-160.703	-0.400	0.021
-459.055	-110.238	0.087	0.018
-458.040	-122.333	0.093	-0.015
-457.026	30.098	-0.206	-0.176
-456.011	-110.000	0.082	0.017
-454.997	24.019	0.028	-0.023
-453.982	-57.904	-0.270	-0.118
-452.968	-200.000	-0.034	-0.331
-451.953	160.346	0.257	-0.359
-450.938	-200.000	-0.004	-0.284
-449.924	-26.826	0.243	-0.142
-448.909	100.198	0.023	-0.027
-447.895	800.000	-0.124	-0.349
-446.880	-101.251	0.098	0.024
-445.865	107.888	-0.145	-0.173
-444.851	-200.000	-0.010	-0.058
-443.836	110.942	-0.127	0.153
-442.822	-200.000	-0.031	0.333
-441.807	800.000	-0.048	-0.186
-440.792	-200.000	-0.017	-0.161
-439.778	-100.245	0.379	-0.094
-438.763	54.936	0.077	-0.075
-437.749	-26.412	-0.171	0.100
-436.734	14.657	-0.096	0.075
-435.719	-138.621	0.339	0.037
-434.705	-38.864	-0.250	-0.132
-433.690	80.337	0.118	-0.127
-432.676	-43.260	0.230	0.117
-431.661	-200.000	-0.017	0.143
-430.646	69.004	0.045	-0.046
-429.632	-16.122	0.269	0.171
-428.617	-126.630	-0.357	0.053
-427.603	306.646	-0.073	0.136
-426.588	-42.369	0.064	0.033
-425.573	-200.000	-0.078	0.399
-424.559	-200.000	-0.003	-0.115
-423.544	-45.764	0.318	-0.157
-422.530	25.520	0.132	0.110
-421.515	-111.024	0.267	-0.055
-420.500	50.009	0.055	0.052
-419.486	-129.438	0.275	0.038
-418.471	-105.543	-0.254	-0.058
-417.457	-39.534	-0.223	0.117
-416.442	-26.583	-0.074	-0.043
-415.428	-200.000	0.043	0.340
-414.413	-19.923	0.148	0.092
-413.398	110.453	0.015	0.018
-412.384	-19.362	-0.234	-0.145
-411.369	-139.061	-0.246	-0.027
-410.355	-27.014	0.274	0.160
-409.340	-200.000	0.049	0.308
-408.325	655.552	0.048	-0.123
-407.311	92.203	-0.105	-0.118
-406.296	145.836	-0.153	0.206
-405.282	302.471	-0.081	-0.149
-404.267	272.258	0.141	0.249
-403.252	-130.904	-0.359	-0.048
-402.238	149.110	-0.278	0.376
-401.223	-200.000	0.002	0.064
-400.209	800.000	-0.121	-0.433
-399.194	20.376	0.123	-0.099
-398.179	800.000	0.074	0.264
-397.165	-75.600	-0.324	0.115
-396.150	165.885	0.158	-0.224
-395.136	-115.022	-0.204	0.039
-394.121	-171.436	0.226	0.008
-393.106	-108.728	0.169	0.036
-392.092	-200.000	0.000	0.276
-391.077	6.186	-0.231	0.171
-390.063	800.000	-0.083	-0.312
-389.048	800.000	-0.015	-0.054
-388.033	-29.662	0.144	-0.082
-387.019	-70.719	0.395	0.149
-386.004	-91.618	-0.258	0.073
-384.990	36.554	-0.259	-0.228
-383.975	205.816	0.041	0.063
-382.960	74.896	-0.150	0.157
-381.946	478.476	-0.102	0.232
-380.931	-46.298	-0.225	0.110
-379.917	0.796	-0.265	0.190
-378.902	-155.854	-0.546	-0.035
-377.888	-29.874	0.196	-0.111
-376.873	6.004	0.212	0.156
-375.858	93.894	-0.148	-0.167
-374.844	-25.521	-0.160	-0.094
-373.829	-41.630	0.033	-0.017
-372.815	89.545	-0.041	-0.046
-371.800	-52.370	-0.116	-0.054
-370.785	164.657	-0.124	-0.175
-369.771	-200.000	0.033	-0.177
-368.756	-200.000	0.003	0.338
-367.742	-70.765	0.080	-0.030
-366.727	-200.000	0.031	0.270
-365.712	-133.599	-0.257	-0.032
-364.698	-106.326	0.181	0.040
-363.683	800.000	0.028	0.091
-362.669	-78.489	0.232	0.079
-361.654	800.000	0.021	0.070
-360.639	800.000	-0.045	0.133
-359.625	-200.000	-0.036	-0.177
-358.610	47.182	-0.055	0.052
-357.596	-119.979	-0.302	0.052
-356.581	-57.046	-0.134	-0.059
-355.566	237.625	0.215	-0.356
-354.552	70.091	-0.160	0.165
-353.537	68.757	0.180	0.185
-352.523	256.569	0.050	0.085
-351.508	-174.088	-0.260	-0.008
-350.493	337.619	-0.085	-0.166
-349.479	42.555	0.230	-0.209
-348.464	189.950	-0.129	0.193
-347.450	-200.000	-0.050	-0.230
-346.435	-83.266	0.180	0.058
-345.420	-148.498	0.023	0.002
-344.406	-190.303	-0.210	0.002
-343.391	-105.141	0.406	0.093
-342.377	-200.000	0.029	-0.162
-341.362	-200.000	0.003	0.070
-340.348	-102.206	0.282	-0.068
-339.333	-37.864	0.059	0.031
-338.318	-51.467	0.458	0.213
-337.304	-92.121	-0.324	0.091
-336.289	150.466	-0.036	-0.049
-335.275	-200.000	0.010	0.166
-334.260	-142.052	-0.295	-0.029
-333.245	800.000	-0.059	0.209
-332.231	-152.997	0.244	0.017
-331.216	-200.000	0.017	0.189
-330.202	-60.790	0.225	0.095
-329.187	-58.327	-0.168	-0.073
-328.172	47.399	-0.176	-0.164
-327.158	-194.044	0.452	-0.004
-326.143	55.216	0.014	0.013
-325.129	-186.887	-0.180	0.002
-324.114	-36.562	0.181	0.097
-323.099	-156.381	-0.105	-0.007
-322.085	800.000	0.045	-0.149
-321.070	146.998	-0.105	0.141
-320.056	-158.073	-0.166	0.010
-319.041	-153.233	0.242	0.017
-318.026	-200.000	-0.056	0.270
-317.012	-145.334	0.460	-0.041
-315.997	-107.945	-0.083	-0.018
-314.983	-124.028	-0.062	0.010
-313.968	-200.000	0.042	-0.615
-312.953	18.525	-0.144	0.115
-311.939	-66.483	0.128	-0.051
-310.924	-84.130	0.180	0.057
-309.910	439.877	-0.170	-0.371
-308.895	482.849	0.110	-0.248
-307.880	80.674	-0.126	0.135
-306.866	213.179	0.081	0.128
-305.851	-200.000	-0.074	0.340
-304.837	336.585	-0.139	0.268
-303.822	272.403	0.097	0.171
-302.807	124.546	-0.283	0.355
-301.793	-27.454	0.137	-0.079
-300.778	310.986	0.107	0.200
-299.764	-54.034	0.153	-0.069
-298.749	364.423	-0.103	-0.207
-297.735	-61.743	0.276	-0.115
-296.720	-18.946	-0.237	0.147
-295.705	-60.442	-0.121	-0.051
-294.691	-200.000	-0.052	-0.284
-293.676	249.058	0.107	0.181
-292.662	-200.000	0.028	0.145
-291.647	-28.811	-0.177	-0.101
-290.632	35.573	0.243	-0.212
-289.618	-149.333	0.252	-0.020
-288.603	245.641	0.188	-0.315
-287.589	-200.000	-0.081	0.355
-286.574	15.967	0.056	0.044
-285.559	-200.000	0.037	0.315
-284.545	496.564	-0.037	0.085
-283.530	-200.000	-0.006	-0.154
-282.516	118.983	-0.144	-0.177
-281.501	218.066	0.123	0.195
-280.486	-135.408	-0.469	0.056
-279.472	-90.509	0.197	-0.057
-278.457	-81.660	-0.139	-0.045
-277.443	-200.000	-0.000	-0.072
-276.428	-200.000	0.047	-0.229
-275.413	-111.396	0.081	-0.016
-274.399	23.641	0.267	-0.219
-273.384	9.171	0.173	0.130
-272.370	-94.935	0.050	0.013
-271.355	-200.000	0.077	0.378
-270.340	-52.720	0.141	-0.065
-269.326	-79.729	0.254	-0.085
-268.311	734.759	-0.047	-0.125
-267.297	-12.242	0.135	-0.088
-266.282	-113.938	0.114	-0.022
-265.267	91.533	0.076	0.085
-264.253	-116.363	0.337	-0.062
-263.238	-200.000	-0.013	0.239
-262.224	-119.031	-0.334	0.058
-261.209	0.691	0.214	0.152
-260.195	800.000	0.032	-0.125
-259.180	145.981	0.050	-0.066
-258.165	133.762	-0.173	-0.222
-257.151	333.921	0.045	0.087
-256.136	-132.084	-0.280	-0.036
-255.122	-10.028	-0.169	-0.112
-254.107	-85.032	-0.156	0.048
-253.092	76.648	-0.251	-0.264
-252.078	-184.341	0.510	-0.008
-251.063	96.179	0.096	-0.110
-250.049	-33.731	0.255	0.140
-249.034	-200.000	0.052	0.237
-248.019	-158.849	0.313	0.018
-247.005	-200.000	-0.020	-0.171
-245.990	22.120	0.071	0.058
-244.976	-200.000	0.065	-0.296
-243.961	70.190	-0.134	0.137
-242.946	102.696	0.157	-0.182
-241.932	-200.000	-0.057	-0.299
-240.917	-29.710	0.238	0.135
-239.903	191.113	-0.134	0.201
-238.888	199.894	-0.271	0.413
-237.873	502.199	-0.078	0.179
-236.859	800.000	0.068	-0.246
-235.844	-63.757	-0.126	0.051
-234.830	800.000	-0.019	-0.056
-233.815	800.000	-0.066	-0.268
-232.800	-174.674	-0.255	0.007
-231.786	-200.000	0.006	0.162
-230.771	800.000	0.040	0.146
-229.757	-62.756	-0.232	0.096
-228.742	218.587	0.179	0.283
-227.727	-90.350	0.156	0.045
-226.713	217.391	0.272	0.430
-225.698	-115.626	0.240	0.045
-224.684	-37.855	-0.095	0.050
-223.669	-173.421	-0.272	-0.008
-222.655	-200.000	0.019	0.190
-221.640	-2.605	0.006	0.004
-220.625	-155.617	-0.192	0.012
-219.611	257.403	-0.090	-0.153
-218.596	-18.779	0.013	-0.008
-217.582	800.000	-0.030	0.115
-216.567	-25.817	0.223	-0.130
-215.552	-200.000	0.043	-0.365
-214.538	-162.692	-0.190	0.009
-213.523	12.858	0.133	0.102
-212.509	15.496	0.335	-0.261
-211.494	-150.779	-0.171	0.013
-210.479	125.774	0.262	-0.328
-209.465	312.613	-0.084	-0.157
-208.450	-34.406	0.193	0.105
-207.436	78.398	-0.086	-0.091
-206.421	301.306	0.180	-0.329
-205.406	656.856	0.069	0.177
-204.392	-159.013	-0.510	0.029
-203.377	800.000	-0.006	-0.018
-202.363	-43.710	-0.035	0.017
-201.348	800.000	0.091	-0.272
-200.333	-58.835	0.303	-0.130
-199.319	-130.573	0.236	0.032
-198.304	-60.482	-0.043	0.018
-197.290	-39.069	-0.224	0.117
-196.275	-111.126	-0.181	-0.037
-195.260	800.000	0.015	0.062
-194.246	16.679	-0.093	0.073
-193.231	-113.950	0.355	-0.068
-192.217	96.190	-0.277	-0.314
-191.202	-135.495	0.044	-0.005
-190.187	74.254	-0.188	0.196
-189.173	-4.534	-0.222	-0.152
-188.158	6.742	0.060	0.044
-187.144	800.000	0.025	0.088
-186.129	102.595	-0.188	-0.218
-185.114	-200.000	0.000	0.190
-184.100	-47.162	-0.036	-0.017
-183.085	-145.319	0.202	-0.018
-182.071	170.984	-0.326	0.463
-181.056	94.947	0.092	-0.104
-180.042	-200.000	-0.032	0.305
-179.027	-200.000	-0.028	-0.138
-178.012	-40.522	0.093	-0.048
-176.998	145.429	-0.238	-0.316
-175.983	-154.553	0.236	0.016
-174.969	-92.496	0.166	-0.046
-173.954	202.746	-0.056	0.085
-172.939	239.111	-0.204	-0.335
-171.925	800.000	0.138	-0.402
-170.910	-76.063	-0.234	0.082
-169.896	800.000	0.085	0.235
-168.881	-99.451	-0.285	-0.071
-167.866	10.772	0.233	-0.176
-166.852	165.576	0.159	0.222
-165.837	603.976	0.157	-0.387
-164.823	-71.817	0.451	-0.166
-163.808	-200.000	-0.075	0.422
-162.793	55.148	0.051	0.049
-161.779	321.455	-0.122	-0.229
-160.764	-200.000	0.039	0.291
-159.750	-69.201	-0.101	-0.039
-158.735	74.693	0.342	-0.357
-157.720	105.096	-0.108	-0.126
-156.706	800.000	-0.041	0.161
-155.691	-98.010	0.374	0.095
-154.677	-170.249	0.050	0.002
-153.662	-126.312	0.033	-0.005
-152.647	-115.152	-0.239	-0.045
-151.633	332.420	-0.138	0.264
-150.618	800.000	0.105	-0.350
-149.604	-200.000	-0.048	-0.310
-148.589	-200.000	0.056	0.277
-147.574	310.685	0.211	0.391
-146.560	-19.477	0.089	0.055
-145.545	-78.175	0.353	-0.120
-144.531	-200.000	0.019	-0.170
-143.516	-168.949	-0.330	-0.012
-142.502	127.616	0.163	0.205
-141.487	502.318	-0.164	0.376
-140.472	24.171	0.046	-0.038
-139.458	-39.746	0.323	-0.167
-138.443	0.145	-0.257	-0.181
-137.429	800.000	0.078	-0.286
-136.414	61.311	0.138	0.136
-135.399	-45.435	-0.109	-0.053
-134.385	79.812	-0.245	0.260
-133.370	-72.774	-0.090	-0.033
-132.356	-200.000	0.045	-0.271
-131.341	95.486	-0.122	-0.138
-130.326	-117.585	-0.162	-0.029
-129.312	133.509	-0.119	-0.152
-128.297	196.772	0.171	0.258
-127.283	-43.880	0.119	-0.059
-126.268	-200.000	0.021	-0.196
-125.253	-2.422	-0.137	-0.095
-124.239	204.907	0.099	0.152
-123.224	416.238	0.063	0.133
-122.210	-171.463	0.109	-0.004
-121.195	5.058	0.147	-0.107
-120.180	-200.000	-0.007	-0.172
-119.166	578.469	-0.147	0.355
-118.151	153.911	0.109	0.148
-117.137	-129.286	0.131	0.018
-116.122	-106.004	0.103	0.023
-115.107	-200.000	0.003	-0.186
-114.093	-163.835	-0.157	-0.007
-113.078	-34.052	0.383	0.208
-112.064	563.855	-0.078	0.186
-111.049	-200.000	0.102	0.483
-110.034	26.058	-0.070	-0.057
-109.020	-200.000	0.024	-0.129
-108.005	-17.347	0.156	-0.097
-106.991	800.000	0.046	-0.181
-105.976	-200.000	0.027	0.274
-104.962	373.964	-0.167	0.335
-103.947	-23.417	-0.058	-0.035
-102.932	-154.013	-0.043	-0.003
-101.918	135.556	-0.171	-0.220
-100.903	800.000	0.099	-0.316
-99.889	128.965	-0.081	-0.102
-98.874	249.679	0.089	0.149
-97.859	47.508	-0.164	0.151
-96.845	96.871	-0.150	-0.170
-95.830	256.271	-0.038	0.065
-94.816	-200.000	-0.017	-0.215
-93.801	-137.111	0.190	-0.021
-92.786	289.761	0.029	-0.053
-91.772	-93.394	0.198	0.054
-90.757	-141.840	0.271	-0.027
-89.743	60.818	0.055	0.054
-88.728	54.356	-0.168	0.160
-87.713	-200.000	0.038	-0.185
-86.699	-94.538	-0.157	0.042
-85.684	-200.000	0.022	-0.108
-84.670	129.970	-0.116	0.147
-83.655	-200.000	0.167	0.000
-82.640	58.975	0.191	0.185
-81.626	-200.000	-0.039	-0.190
-80.611	142.862	0.122	-0.160
-79.597	-200.000	-0.015	-0.106
-78.582	-123.890	-0.065	-0.010
-77.567	134.714	0.013	0.016
-76.553	-200.000	0.013	-0.100
-75.538	-150.767	0.304	0.023
-74.524	-200.000	-0.003	0.191
-73.509	14.592	0.157	-0.121
-72.494	-10.514	-0.116	0.076
-71.480	9.383	0.241	-0.180
-70.465	221.735	0.157	-0.250
-69.451	102.976	-0.143	0.165
-68.436	26.846	-0.159	-0.131
-67.422	800.000	0.069	0.210
-66.407	202.919	-0.118	0.179
-65.392	-200.000	0.049	-0.273
-64.378	-56.829	-0.180	-0.078
-63.363	4.271	-0.220	-0.159
-62.349	-48.444	0.296	-0.140
-61.334	41.903	-0.902	-0.807
-60.319	215.402	0.557	0.873
-59.305	-200.000	0.036	-1.006
-58.290	195.504	0.865	1.297
-57.276	-200.000	0.466	2.021
-56.261	-200.000	108.476	575.521
-55.246	404.390	1525.105	3168.228
-54.232	136.977	2733.508	3522.333
-53.217	92.520	2365.393	2630.950
-52.203	34.682	2109.860	1818.505
-51.188	30.290	2025.171	1705.185
-50.173	28.907	2008.695	1678.629
-49.159	44.148	2065.635	1867.877
-48.144	44.273	2083.181	1884.827
-47.130	30.845	2040.939	1723.329
-46.115	28.610	2030.012	1693.441
-45.100	28.547	2027.540	1690.729
-44.086	28.506	2024.596	1687.827
-43.071	28.451	2022.702	1685.673
-42.057	28.454	2020.312	1683.644
-41.042	28.529	2018.250	1682.549
-40.027	28.481	2016.957	1680.962
-39.013	28.533	2014.767	1679.552
-37.998	28.571	2012.067	1677.579
-36.984	28.509	2010.844	1675.927
-35.969	28.512	2008.710	1674.110
-34.954	28.532	2007.240	1673.000
-33.940	28.537	2005.966	1671.911
-32.925	28.721	2003.754	1671.681
-31.911	28.598	2002.140	1669.152
-30.896	28.572	2000.583	1667.545
-29.881	28.615	1999.207	1666.723
-28.867	28.655	1997.418	1665.533
-27.852	28.701	1995.123	1663.968
-26.838	28.593	1994.277	1662.221
-25.823	28.646	1992.268	1660.961
-24.809	28.618	1990.413	1659.093
-23.794	28.698	1988.413	1658.078
-22.779	28.619	1987.335	1656.404
-21.765	28.647	1985.357	1654.942
-20.750	28.635	1983.407	1653.141
-19.736	28.684	1982.054	1652.394
-18.721	28.617	1980.275	1650.241
-17.706	28.669	1978.681	1649.314
-16.692	28.559	1976.980	1646.843
-15.677	28.667	1975.000	1646.096
-14.663	28.631	1973.814	1644.715
-13.648	28.566	1972.744	1643.181
-12.633	28.629	1971.315	1642.487
-11.619	28.629	1969.968	1641.301
-10.604	28.646	1969.116	1640.678
-9.590	28.591	1967.514	1638.785
-8.575	28.589	1966.492	1637.849
-7.560	28.713	1964.927	1637.592
-6.546	28.666	1963.107	1635.589
-5.531	28.589	1962.187	1634.071
-4.517	28.608	1960.699	1632.933
-3.502	28.557	1959.637	1631.534
-2.487	28.672	1958.254	1631.336
-1.473	28.660	1957.309	1630.379
-0.458	28.771	1952.460	1627.263
0.556	27.181	1933.479	1602.741
1.571	23.467	1915.251	1554.985
2.586	19.808	1940.073	1542.426
3.600	18.833	1976.005	1561.993
4.615	18.463	1970.419	1554.086
5.629	14.239	1866.956	1435.987
6.644	5.626	1745.156	1272.461
7.659	0.839	1707.868	1207.036
8.673	0.490	1704.370	1201.679
9.688	0.309	1702.988	1199.157
10.702	0.386	1701.782	1198.813
11.717	0.255	1697.930	1194.956
12.731	0.752	1697.440	1198.446
13.746	6.910	1710.507	1256.640
14.761	14.498	1726.359	1328.853
15.775	17.012	1729.233	1350.993
16.790	16.738	1728.064	1347.777
17.804	15.944	1724.790	1338.799
18.819	14.925	1721.349	1327.920
19.834	14.389	1719.441	1322.074
20.848	14.103	1717.497	1318.197
21.863	13.854	1715.674	1314.709
22.877	13.599	1713.832	1311.163
23.892	13.404	1712.810	1308.726
24.907	13.252	1711.677	1306.540
25.921	13.259	1710.348	1305.466
26.936	13.272	1709.273	1304.632
27.950	13.255	1708.632	1303.894
28.965	13.304	1707.924	1303.627
29.980	13.278	1708.064	1303.412
30.994	13.356	1706.095	1302.407
32.009	13.497	1705.227	1302.738
33.023	13.477	1704.193	1301.679
34.038	13.447	1703.612	1300.883
35.053	13.419	1702.660	1299.823
36.067	13.421	1701.254	1298.645
37.082	13.429	1700.267	1297.844
38.096	13.455	1699.462	1297.314
39.111	13.374	1699.146	1296.326
40.126	13.367	1698.369	1295.563
41.140	13.429	1696.834	1294.765
42.155	13.302	1695.759	1292.836
43.169	13.158	1694.461	1290.609
44.184	13.205	1693.674	1290.258
45.199	13.169	1692.031	1288.611
46.213	13.174	1691.264	1287.958
47.228	13.265	1689.379	1287.112
48.242	13.277	1688.467	1286.402
49.257	13.294	1686.999	1285.301
50.271	13.339	1685.654	1284.514
51.286	13.367	1684.171	1283.480
52.301	13.361	1683.350	1282.701
53.315	13.380	1681.332	1281.196
54.330	13.264	1680.516	1279.562
55.344	13.245	1678.359	1277.661
56.359	13.313	1676.643	1276.761
57.374	13.211	1675.885	1275.286
58.388	13.257	1674.676	1274.605
59.403	13.166	1672.953	1272.481
60.417	13.220	1671.803	1271.911
61.432	13.178	1670.230	1270.282
62.447	13.112	1669.225	1268.895
63.461	13.176	1667.789	1268.186
64.476	13.112	1667.100	1267.055
65.490	13.122	1665.818	1266.048
66.505	13.153	1664.701	1265.325
67.520	13.273	1663.063	1264.887
68.534	13.233	1662.384	1263.951
69.549	13.155	1661.954	1262.918
70.563	13.165	1660.230	1261.570
71.578	13.185	1658.838	1260.552
72.593	13.177	1657.460	1259.333
73.607	13.049	1657.285	1258.114
74.622	13.142	1655.255	1257.168
75.636	13.091	1655.226	1256.649
76.651	13.124	1654.024	1255.871
77.666	13.181	1652.831	1255.290
78.680	13.114	1651.946	1254.000
79.695	13.176	1651.169	1253.768
80.709	13.091	1650.023	1252.142
81.724	13.162	1649.128	1251.893
82.739	13.160	1648.080	1250.968
83.753	13.236	1646.985	1250.604
84.768	13.262	1645.554	1249.603
85.782	13.316	1645.264	1249.675
86.797	13.335	1644.103	1248.833
87.812	13.240	1643.342	1247.426
88.826	13.331	1641.833	1246.851
89.841	13.263	1641.011	1245.609
90.855	13.244	1639.749	1244.399
91.870	13.343	1638.214	1243.864
92.884	13.235	1637.731	1242.578
93.899	13.265	1636.810	1241.992
94.914	13.305	1635.136	1240.912
95.928	13.290	1634.003	1239.833
96.943	13.478	1632.326	1239.861
97.957	13.392	1631.137	1238.201
98.972	13.313	1629.789	1236.477
99.987	13.431	1627.807	1235.748
101.001	13.295	1626.655	1233.747
102.016	13.336	1624.730	1232.484
103.030	13.337	1623.499	1231.450
104.045	13.302	1622.272	1230.151
105.060	13.369	1620.886	1229.486
106.074	13.348	1618.825	1227.658
107.089	13.309	1617.195	1226.024
108.103	13.219	1616.211	1224.504
109.118	13.164	1614.911	1223.004
110.133	13.235	1613.551	1222.390
111.147	13.258	1611.659	1221.015
112.162	13.299	1610.937	1220.670
113.176	13.224	1609.493	1218.914
114.191	13.244	1608.415	1218.132
115.206	13.322	1607.019	1217.540
116.220	13.270	1605.409	1215.832
117.235	13.295	1604.040	1214.873
118.249	13.287	1602.639	1213.642
119.264	13.244	1601.304	1212.209
120.279	13.215	1600.112	1210.986
121.293	13.247	1598.585	1209.963
122.308	13.307	1596.625	1208.810
123.322	13.238	1595.165	1207.091
124.337	13.224	1593.735	1205.803
125.352	13.258	1592.166	1204.754
126.366	13.169	1591.908	1203.807
127.381	13.247	1589.766	1202.645
128.395	13.164	1589.529	1201.761
129.410	13.256	1587.666	1200.910
130.424	13.240	1585.906	1199.356
131.439	13.300	1584.864	1198.897
132.454	13.303	1583.508	1197.790
133.468	13.261	1582.022	1196.255
134.483	13.344	1580.434	1195.546
135.497	13.340	1578.806	1194.185
136.512	13.347	1577.587	1193.201
137.527	13.308	1576.428	1191.941
138.541	13.339	1574.719	1190.767
139.556	13.387	1573.344	1189.966
140.570	13.391	1571.623	1188.589
141.585	13.351	1570.837	1187.603
142.600	13.409	1569.573	1186.959
143.614	13.499	1567.966	1186.279
144.629	13.475	1567.250	1185.461
145.643	13.504	1565.763	1184.441
146.658	13.512	1564.148	1183.172
147.673	13.424	1562.782	1181.409
148.687	13.491	1561.166	1180.554
149.702	13.461	1559.441	1178.934
150.716	13.419	1558.145	1177.553
151.731	13.411	1557.116	1176.616
152.746	13.407	1555.322	1175.123
153.760	13.497	1553.959	1174.628
154.775	13.394	1553.017	1173.085
155.789	13.569	1551.115	1172.782
156.804	13.576	1549.879	1171.793
157.819	13.581	1548.845	1170.943
158.833	13.606	1547.420	1169.941
159.848	13.589	1546.629	1169.119
160.862	13.652	1545.096	1168.302
161.877	13.742	1543.931	1167.951
162.892	13.637	1542.958	1166.370
163.906	13.546	1541.420	1164.463
164.921	13.637	1539.944	1163.885
165.935	13.573	1539.107	1162.703
166.950	13.552	1538.172	1161.748
167.964	13.594	1537.241	1161.235
168.979	13.591	1536.531	1160.570
169.994	13.625	1535.181	1159.688
171.008	13.668	1533.842	1158.872
172.023	13.595	1532.843	1157.507
173.037	13.686	1531.554	1157.069
174.052	13.707	1530.463	1156.286
175.067	13.785	1529.208	1155.782
176.081	13.788	1527.834	1154.657
177.096	13.744	1526.655	1153.357
178.110	13.672	1525.358	1151.777
179.125	13.636	1524.502	1150.779
180.140	13.728	1522.774	1150.011
181.154	13.728	1521.868	1149.225
182.169	13.781	1520.487	1148.452
183.183	13.795	1519.562	1147.747
184.198	13.807	1518.840	1147.184
185.213	13.885	1517.409	1146.537
186.227	13.818	1516.058	1144.955
187.242	13.816	1515.250	1144.227
188.256	13.867	1513.924	1143.479
189.271	13.902	1513.119	1143.011
190.286	13.923	1512.031	1142.230
191.300	13.834	1510.821	1140.603
192.315	13.827	1509.494	1139.449
193.329	13.773	1508.150	1137.970
194.344	13.750	1507.199	1136.988
195.359	13.804	1506.040	1136.384
196.373	13.810	1504.990	1135.534
197.388	13.836	1504.497	1135.238
198.402	13.854	1503.293	1134.351
199.417	14.004	1501.888	1134.220
200.432	13.981	1500.866	1133.186
201.446	14.074	1499.804	1132.917
202.461	14.004	1498.826	1131.607
203.475	14.096	1497.550	1131.170
204.490	14.152	1496.259	1130.472
205.504	14.184	1494.690	1129.402
206.519	14.148	1494.002	1128.540
207.534	14.064	1493.523	1127.507
208.548	14.119	1491.805	1126.485
209.563	14.047	1491.069	1125.339
210.577	14.119	1489.904	1124.847
211.592	14.064	1489.004	1123.697
212.607	14.156	1488.040	1123.491
213.621	14.171	1487.391	1123.004
214.636	14.200	1486.585	1122.490
215.650	14.244	1485.489	1121.859
216.665	14.313	1484.032	1121.126
217.680	14.270	1483.672	1120.467
218.694	14.280	1482.777	1119.756
219.709	14.322	1482.028	1119.374
220.723	14.360	1481.027	1118.779
221.738	14.371	1479.494	1117.594
222.753	14.290	1479.074	1116.630
223.767	14.304	1478.585	1116.260
224.782	14.349	1477.179	1115.398
225.796	14.339	1476.201	1114.496
226.811	14.449	1475.413	1114.538
227.826	14.381	1474.946	1113.630
228.840	14.475	1473.589	1113.138
229.855	14.388	1472.711	1111.796
230.869	14.434	1471.349	1110.973
231.884	14.455	1470.666	1110.497
232.899	14.398	1469.703	1109.294
233.913	14.387	1468.301	1108.070
234.928	14.385	1466.877	1106.883
235.942	14.460	1465.677	1106.373
236.957	14.465	1464.683	1105.558
237.972	14.334	1463.772	1103.905
238.986	14.396	1462.294	1103.102
240.001	14.422	1461.881	1102.865
241.015	14.380	1460.823	1101.693
242.030	14.444	1459.678	1101.156
243.045	14.491	1458.484	1100.465
244.059	14.599	1457.221	1100.129
245.074	14.582	1456.390	1099.290
246.088	14.620	1455.648	1098.888
247.103	14.596	1454.778	1097.972
248.117	14.683	1454.041	1097.895
249.132	14.684	1453.386	1097.306
250.147	14.647	1452.510	1096.305
251.161	14.798	1451.943	1096.774
252.176	14.802	1451.119	1096.078
253.190	14.865	1450.509	1095.937
254.205	14.819	1449.649	1094.887
255.220	14.943	1448.618	1094.824
256.234	14.879	1447.882	1093.751
257.249	14.819	1447.036	1092.625
258.263	14.979	1445.761	1092.605
259.278	14.943	1445.070	1091.752
260.293	14.958	1444.051	1090.987
261.307	14.960	1443.725	1090.653
262.322	15.005	1442.968	1090.280
263.336	15.037	1442.304	1089.894
264.351	15.054	1440.805	1088.774
265.366	15.093	1439.676	1088.077
266.380	15.133	1438.553	1087.388
267.395	15.096	1437.665	1086.385
268.409	15.113	1437.017	1085.910
269.424	15.069	1436.127	1084.852
270.439	15.133	1434.840	1084.197
271.453	15.156	1433.808	1083.474
272.468	15.121	1433.108	1082.623
273.482	15.184	1432.053	1082.139
274.497	15.109	1431.312	1080.997
275.512	15.114	1430.294	1080.162
276.526	15.079	1429.892	1079.536
277.541	15.111	1428.577	1078.659
278.555	15.178	1427.385	1078.093
279.570	15.249	1426.966	1078.137
280.585	15.290	1425.736	1077.375
281.599	15.362	1424.412	1076.742
282.614	15.398	1423.902	1076.492
283.628	15.318	1423.078	1075.263
284.643	15.335	1422.073	1074.519
285.657	15.313	1420.403	1073.021
286.672	15.322	1420.157	1072.795
287.687	15.349	1418.963	1071.972
288.701	15.321	1418.007	1070.972
289.716	15.352	1417.584	1070.756
290.730	15.367	1416.423	1069.885
291.745	15.305	1415.182	1068.452
292.760	15.397	1414.478	1068.413
293.774	15.447	1413.064	1067.570
294.789	15.363	1412.144	1066.248
295.803	15.394	1411.817	1066.104
296.818	15.500	1410.674	1065.819
297.833	15.608	1409.181	1065.280
298.847	15.571	1407.936	1064.008
299.862	15.527	1407.347	1063.196
300.876	15.515	1406.365	1062.283
301.891	15.478	1406.033	1061.701
302.906	15.519	1404.910	1061.021
303.920	15.553	1404.029	1060.477
304.935	15.608	1403.405	1060.258
305.949	15.656	1402.483	1059.767
306.964	15.712	1401.659	1059.409
307.979	15.715	1400.667	1058.581
308.993	15.672	1399.750	1057.521
310.008	15.680	1399.035	1056.939
311.022	15.795	1397.543	1056.439
312.037	15.703	1396.891	1055.276
313.052	15.818	1395.445	1054.816
314.066	15.770	1395.072	1054.140
315.081	15.746	1394.205	1053.241
316.095	15.794	1392.831	1052.408
317.110	15.671	1391.845	1050.800
318.125	15.698	1391.243	1050.420
319.139	15.766	1389.691	1049.581
320.154	15.728	1388.744	1048.535
321.168	15.765	1387.852	1048.000
322.183	15.824	1386.862	1047.527
323.197	15.811	1385.808	1046.561
324.212	15.814	1385.159	1045.993
325.227	15.725	1384.738	1045.032
326.241	15.843	1383.463	1044.711
327.256	15.829	1382.695	1043.947
328.270	16.004	1381.248	1043.846
329.285	15.904	1380.372	1042.476
330.300	15.831	1379.931	1041.597
331.314	15.942	1378.839	1041.368
332.329	15.932	1377.996	1040.575
333.343	15.900	1377.304	1039.762
334.358	15.861	1376.687	1038.965
335.373	15.956	1375.569	1038.619
336.387	16.019	1374.635	1038.205
337.402	16.112	1373.543	1037.862
338.416	16.026	1373.659	1037.328
339.431	16.103	1372.274	1036.667
340.446	16.073	1372.003	1036.182
341.460	16.121	1370.963	1035.602
342.475	16.126	1369.893	1034.734
343.489	16.144	1369.216	1034.238
344.504	16.182	1368.322	1033.705
345.519	16.203	1367.230	1032.919
346.533	16.209	1366.394	1032.234
347.548	16.192	1365.441	1031.319
348.562	16.327	1364.525	1031.362
349.577	16.237	1363.850	1030.208
350.592	16.316	1362.970	1029.934
351.606	16.300	1362.224	1029.183
352.621	16.300	1360.825	1028.032
353.635	16.275	1359.733	1026.966
354.650	16.230	1359.078	1026.107
355.665	16.281	1357.914	1025.444
356.679	16.274	1356.642	1024.356
357.694	16.256	1355.690	1023.437
358.708	16.251	1354.797	1022.638
359.723	16.395	1353.498	1022.438
360.738	16.462	1352.619	1022.089
361.752	16.388	1351.624	1020.799
362.767	16.404	1350.295	1019.805
363.781	16.454	1349.604	1019.491
364.796	16.430	1348.511	1018.433
365.810	16.487	1347.864	1018.195
366.825	16.434	1347.503	1017.514
367.840	16.557	1346.399	1017.333
368.854	16.540	1345.755	1016.655
369.869	16.585	1345.135	1016.368
370.883	16.602	1344.192	1015.667
371.898	16.693	1343.569	1015.648
372.913	16.693	1342.534	1014.776
373.927	16.608	1341.840	1013.655
374.942	16.567	1341.054	1012.727
375.956	16.652	1340.412	1012.662
376.971	16.745	1339.538	1012.465
377.986	16.725	1338.569	1011.522
379.000	16.692	1337.987	1010.796
380.015	16.699	1337.125	1010.099
381.029	16.745	1336.248	1009.622
382.044	16.760	1335.532	1009.081
383.059	16.820	1334.578	1008.630
384.073	16.873	1333.952	1008.381
385.088	16.781	1333.560	1007.450
386.102	16.881	1332.834	1007.406
387.117	16.854	1331.840	1006.403
388.132	16.869	1331.247	1005.953
389.146	16.897	1329.979	1005.071
390.161	16.809	1329.622	1004.192
391.175	16.817	1328.792	1003.524
392.190	16.862	1328.052	1003.142
393.205	16.895	1326.902	1002.383
394.219	17.011	1325.552	1001.960
395.234	17.021	1324.491	1001.127
396.248	17.000	1323.536	1000.194
397.263	16.997	1322.116	999.014
398.278	17.004	1320.679	997.882
399.292	16.956	1319.748	996.806
400.307	16.986	1318.693	996.098
401.321	16.954	1317.739	995.103
402.336	16.993	1316.611	994.389
403.350	16.936	1315.656	993.244
404.365	17.001	1314.826	992.911
405.380	16.966	1314.110	992.081
406.394	17.031	1313.035	991.557
407.409	17.047	1312.329	991.033
408.423	17.085	1311.642	990.650
409.438	17.130	1311.254	990.531
410.453	17.159	1310.111	989.745
411.467	17.120	1309.346	988.854
412.482	17.244	1308.943	989.184
413.496	17.209	1307.901	988.107
414.511	17.235	1307.255	987.682
415.526	17.312	1306.180	987.230
416.540	17.365	1305.656	987.052
417.555	17.400	1305.230	986.846
418.569	17.475	1304.549	986.680
419.584	17.321	1304.231	985.459
420.599	17.320	1303.058	984.480
421.613	95.710	1357.637	1474.553
422.628	94.166	1365.542	1474.648
