DTS Sentinel unit serial number:	SN413079Multiplexer serial number:	ORYXHardware model number:	OX4-SRSoftware version number:	ORYX F/W v4.00 Oryx Data Collector v3.7.2.0data status	okinstallation	princeton_trtdifferential loss correction	single-endedforward channel	channel 4reverse channel	N/Adate	2019/09/17time	08:25:35forward acquisition time	60.00reverse acquisition time	0.00gamma	496.2192k internal	0.2318k external	0.2318temperature offset calibration	0.9979default loss term (dB/km)	0.3790temperature slope calibration	1.0000multiplexer offset coefficient	1.0000multiplexer slope coefficient	1.0000fibre end	0.00T internal ref (°C)	27.50T ext. ref 1 (°C)	0.12T ext. ref 2 (°C)	22.89length (m)	temperature (°C)	Stokes	anti-Stokes-747.200	323.477	-0.123	-0.237
-746.185	-169.457	-0.465	0.017
-745.171	-157.276	0.466	0.029
-744.156	166.813	-0.118	-0.170
-743.142	677.129	0.050	0.132
-742.127	24.190	-0.151	0.126
-741.112	-200.000	0.030	0.254
-740.098	-97.949	-0.206	0.054
-739.083	-67.877	0.439	0.173
-738.069	35.568	0.079	0.070
-737.054	-200.000	-0.050	0.486
-736.039	-150.237	-0.432	-0.034
-735.025	21.610	0.101	-0.083
-734.010	-200.000	0.006	-0.213
-732.996	-50.306	-0.239	-0.114
-731.981	-143.312	-0.263	0.026
-730.966	-40.852	-0.286	-0.150
-729.952	-32.089	-0.164	-0.093
-728.937	-200.000	-0.000	0.324
-727.923	800.000	-0.072	0.299
-726.908	800.000	-0.144	0.406
-725.894	107.615	-0.241	0.290
-724.879	-148.059	-0.381	0.032
-723.864	-74.153	-0.105	0.038
-722.850	-194.668	-0.120	0.001
-721.835	226.434	-0.207	-0.340
-720.821	667.517	0.080	0.210
-719.806	-27.764	0.106	-0.062
-718.791	-200.000	-0.005	0.024
-717.777	-200.000	0.033	-0.266
-716.762	-33.960	-0.253	-0.141
-715.748	743.576	0.084	0.228
-714.733	514.015	-0.109	0.257
-713.718	359.058	-0.069	0.139
-712.704	-58.136	0.403	-0.177
-711.689	-81.866	0.122	0.040
-710.675	211.699	0.095	0.151
-709.660	-167.594	0.103	-0.004
-708.645	295.807	-0.080	0.149
-707.631	11.276	-0.245	0.190
-706.616	800.000	0.075	-0.256
-705.602	-200.000	-0.013	-0.135
-704.587	14.986	-0.121	-0.095
-703.572	170.649	-0.137	0.198
-702.558	-200.000	-0.010	-0.146
-701.543	209.987	0.191	-0.303
-700.529	-119.187	0.152	0.027
-699.514	-200.000	0.002	-0.065
-698.499	251.975	0.097	-0.168
-697.485	800.000	-0.041	0.130
-696.470	-113.362	-0.521	0.103
-695.456	-70.950	-0.422	0.161
-694.441	18.235	-0.121	0.097
-693.426	-200.000	0.050	-0.324
-692.412	154.053	0.031	-0.043
-691.397	-34.069	-0.175	-0.097
-690.383	219.877	0.083	-0.134
-689.368	314.503	-0.048	-0.091
-688.354	-9.955	0.154	-0.104
-687.339	-200.000	-0.001	-0.131
-686.324	172.538	-0.315	-0.458
-685.310	-200.000	0.012	-0.099
-684.295	800.000	-0.066	0.195
-683.281	-200.000	0.018	0.113
-682.266	-13.982	-0.262	-0.171
-681.251	-13.741	-0.445	-0.290
-680.237	-95.932	0.048	-0.013
-679.222	120.923	0.275	0.345
-678.208	169.682	0.029	-0.042
-677.193	-200.000	-0.071	0.324
-676.178	385.938	0.080	0.168
-675.164	-164.119	-0.400	-0.019
-674.149	-200.000	0.011	-0.079
-673.135	190.117	-0.153	-0.232
-672.120	-126.226	0.332	0.050
-671.105	-39.729	-0.136	-0.072
-670.091	-200.000	0.035	-0.163
-669.076	-20.121	0.402	-0.250
-668.062	-46.526	0.051	-0.025
-667.047	-200.000	-0.060	-0.324
-666.032	800.000	0.032	-0.140
-665.018	-200.000	0.050	0.379
-664.003	-200.000	0.052	0.373
-662.989	318.431	-0.124	-0.237
-661.974	96.364	0.301	-0.347
-660.959	800.000	-0.069	-0.236
-659.945	-12.872	-0.190	0.125
-658.930	-80.125	-0.372	0.126
-657.916	-200.000	0.024	0.202
-656.901	234.880	0.175	-0.291
-655.886	-200.000	0.011	-0.309
-654.872	-200.000	0.001	-0.131
-653.857	-178.165	-0.277	0.007
-652.843	800.000	-0.086	-0.257
-651.828	-35.582	-0.239	0.131
-650.814	-200.000	-0.009	0.156
-649.799	665.930	0.097	0.254
-648.784	-17.812	0.113	0.071
-647.770	-117.575	0.179	-0.033
-646.755	-200.000	0.022	-0.128
-645.741	800.000	-0.087	-0.265
-644.726	749.417	-0.066	0.180
-643.711	-124.428	0.134	0.021
-642.697	-58.367	-0.234	-0.103
-641.682	-200.000	0.044	-0.359
-640.668	800.000	-0.078	-0.281
-639.653	124.046	-0.157	-0.199
-638.638	67.318	0.071	-0.073
-637.624	-200.000	0.020	-0.183
-636.609	146.475	-0.204	-0.276
-635.595	19.872	0.136	-0.111
-634.580	98.682	-0.098	-0.114
-633.565	301.852	-0.128	-0.238
-632.551	-119.195	-0.190	-0.033
-631.536	306.989	0.172	0.324
-630.522	-36.017	0.067	-0.037
-629.507	609.396	0.033	-0.083
-628.492	26.718	-0.086	-0.073
-627.478	-131.283	0.127	-0.017
-626.463	-200.000	-0.001	-0.035
-625.449	-153.525	-0.237	-0.017
-624.434	-200.000	-0.042	0.251
-623.419	13.705	0.102	-0.080
-622.405	-27.850	-0.124	0.073
-621.390	242.176	0.238	-0.402
-620.376	101.504	0.016	-0.019
-619.361	-43.541	0.067	-0.034
-618.346	600.382	0.057	-0.142
-617.332	-5.189	-0.209	-0.145
-616.317	105.574	-0.133	0.158
-615.303	-143.520	-0.186	0.018
-614.288	-126.302	0.167	-0.025
-613.273	-84.241	-0.182	-0.058
-612.259	170.386	-0.190	-0.274
-611.244	237.128	0.064	0.107
-610.230	250.210	0.176	0.300
-609.215	65.606	0.165	0.168
-608.201	-131.232	0.114	0.015
-607.186	349.273	-0.125	0.248
-606.171	-132.826	-0.150	0.019
-605.157	-154.328	-0.191	0.013
-604.142	45.275	0.056	0.052
-603.128	-200.000	0.044	0.198
-602.113	480.131	-0.065	0.148
-601.098	800.000	-0.150	-0.433
-600.084	426.769	-0.144	0.313
-599.069	264.596	0.046	-0.081
-598.055	-200.000	0.002	0.063
-597.040	354.337	-0.173	0.345
-596.025	711.163	-0.079	-0.212
-595.011	800.000	0.083	-0.295
-593.996	685.873	-0.075	0.197
-592.982	-136.934	-0.128	0.015
-591.967	-23.271	0.148	-0.089
-590.952	42.307	0.128	0.117
-589.938	95.836	0.245	-0.281
-588.923	-93.959	0.224	0.062
-587.909	43.665	0.166	0.153
-586.894	184.532	0.118	0.176
-585.879	167.286	0.156	0.223
-584.865	-200.000	0.040	0.250
-583.850	145.330	0.126	-0.170
-582.836	164.915	0.113	0.160
-581.821	101.397	0.201	0.236
-580.806	242.969	-0.239	0.403
-579.792	800.000	-0.018	-0.075
-578.777	-200.000	-0.015	-0.280
-577.763	-31.189	0.167	-0.095
-576.748	-105.117	-0.116	0.027
-575.733	-200.000	0.016	-0.165
-574.719	-186.399	-0.138	0.002
-573.704	485.223	0.102	0.234
-572.690	-200.000	0.026	-0.182
-571.675	138.356	0.051	0.067
-570.661	168.246	0.191	0.273
-569.646	58.018	-0.225	0.222
-568.631	387.435	-0.115	-0.239
-567.617	66.152	-0.241	-0.246
-566.602	237.461	-0.158	-0.264
-565.588	190.370	-0.178	-0.268
-564.573	-93.592	-0.141	0.039
-563.558	-65.670	-0.302	0.122
-562.544	800.000	0.005	-0.020
-561.529	159.292	-0.144	0.202
-560.515	-100.897	-0.108	0.027
-559.500	-118.126	0.240	-0.043
-558.485	4.701	-0.245	0.181
-557.471	-16.221	-0.086	-0.055
-556.456	34.510	0.265	-0.233
-555.442	-117.399	0.273	-0.050
-554.427	50.410	0.124	-0.118
-553.412	-76.754	-0.240	-0.084
-552.398	609.675	0.056	0.140
-551.383	-200.000	-0.028	-0.328
-550.369	-200.000	-0.006	-0.203
-549.354	-200.000	-0.054	-0.247
-548.339	315.174	0.051	-0.096
-547.325	800.000	-0.033	-0.125
-546.310	-115.448	-0.241	-0.046
-545.296	-15.244	0.211	-0.135
-544.281	-116.946	-0.241	0.044
-543.266	800.000	-0.060	0.201
-542.252	800.000	-0.039	-0.142
-541.237	-184.863	0.215	0.003
-540.223	-200.000	-0.033	-0.343
-539.208	-200.000	-0.103	0.000
-538.193	64.160	-0.173	-0.175
-537.179	180.014	0.084	-0.123
-536.164	-65.757	-0.046	-0.018
-535.150	37.283	-0.228	-0.203
-534.135	53.478	0.108	0.104
-533.121	38.728	0.217	-0.195
-532.106	129.524	-0.142	-0.182
-531.091	800.000	0.051	0.176
-530.077	800.000	-0.074	-0.276
-529.062	-200.000	-0.047	-0.303
-528.048	-80.989	0.047	-0.016
-527.033	-56.963	-0.065	-0.029
-526.018	-169.301	-0.126	0.005
-525.004	200.148	0.108	-0.167
-523.989	-200.000	0.006	-0.077
-522.975	112.475	-0.146	0.178
-521.960	-123.098	-0.166	-0.027
-520.945	-200.000	-0.026	0.377
-519.931	-139.046	0.396	0.043
-518.916	-200.000	-0.009	0.440
-517.902	-72.373	-0.049	0.018
-516.887	393.819	0.096	-0.200
-515.872	1.388	-0.227	-0.164
-514.858	-89.269	0.293	-0.087
-513.843	-200.000	-0.027	-0.201
-512.829	46.362	0.045	0.042
-511.814	-101.399	0.073	0.018
-510.799	-200.000	-0.017	-0.162
-509.785	-200.000	-0.001	-0.068
-508.770	-136.932	-0.178	-0.020
-507.756	272.540	-0.150	-0.265
-506.741	-85.733	0.185	0.058
-505.726	78.968	0.187	-0.201
-504.712	-44.579	-0.193	-0.097
-503.697	-69.359	-0.278	-0.107
-502.683	29.368	-0.085	0.072
-501.668	-200.000	-0.016	0.140
-500.653	-102.101	0.303	0.073
-499.639	30.830	0.398	-0.342
-498.624	131.910	0.233	0.300
-497.610	-87.014	-0.293	-0.090
-496.595	38.865	-0.178	0.159
-495.581	-112.171	0.208	0.042
-494.566	-200.000	-0.006	-0.063
-493.551	-200.000	0.052	0.387
-492.537	103.222	0.094	-0.110
-491.522	-155.161	-0.218	0.014
-490.508	62.620	-0.115	0.115
-489.493	-125.136	-0.220	0.034
-488.478	67.398	-0.042	0.043
-487.464	-107.051	-0.229	0.051
-486.449	-113.296	0.193	0.038
-485.435	15.749	-0.202	0.159
-484.420	39.618	0.122	-0.109
-483.405	-200.000	0.010	0.414
-482.391	-60.227	-0.214	-0.091
-481.376	102.534	-0.092	0.108
-480.362	432.787	-0.065	-0.142
-479.347	-62.138	0.099	-0.041
-478.332	-200.000	0.022	-0.117
-477.318	-100.313	-0.424	-0.105
-476.303	800.000	0.026	-0.083
-475.289	297.543	-0.132	0.242
-474.274	-45.947	-0.182	0.090
-473.259	63.487	0.121	-0.122
-472.245	-43.959	-0.286	0.144
-471.230	74.407	0.198	-0.208
-470.216	77.622	0.116	-0.123
-469.201	-200.000	-0.065	0.296
-468.186	800.000	-0.045	-0.184
-467.172	-151.990	0.378	0.028
-466.157	-8.790	-0.107	-0.072
-465.143	-193.155	-0.244	-0.002
-464.128	800.000	-0.084	0.240
-463.113	800.000	0.054	-0.205
-462.099	131.458	-0.230	-0.296
-461.084	465.848	-0.035	-0.078
-460.070	-200.000	-0.053	0.271
-459.055	-41.884	-0.246	0.126
-458.040	-200.000	-0.042	-0.213
-457.026	193.510	0.073	0.110
-456.011	800.000	-0.060	0.243
-454.997	-117.897	-0.194	-0.035
-453.982	800.000	-0.073	-0.213
-452.968	692.424	0.025	0.066
-451.953	611.625	-0.064	-0.161
-450.938	-121.026	-0.283	-0.048
-449.924	800.000	0.033	-0.102
-448.909	-49.682	0.487	-0.232
-447.895	-164.291	-0.410	0.019
-446.880	-60.618	0.040	-0.017
-445.865	-157.549	0.423	0.025
-444.851	-184.234	-0.147	0.002
-443.836	-21.277	-0.067	0.041
-442.822	330.675	-0.094	0.181
-441.807	1.305	0.110	-0.079
-440.792	84.690	-0.052	-0.057
-439.778	-72.549	-0.126	0.046
-438.763	-88.789	0.476	-0.141
-437.749	356.280	-0.082	0.163
-436.734	-17.853	-0.181	0.113
-435.719	13.395	0.315	0.244
-434.705	-77.319	-0.118	-0.041
-433.690	-118.929	0.177	0.031
-432.676	705.511	-0.060	0.159
-431.661	-69.004	0.315	-0.122
-430.646	800.000	-0.026	0.080
-429.632	800.000	-0.009	0.028
-428.617	107.530	-0.110	0.131
-427.603	-200.000	0.050	0.258
-426.588	57.775	0.054	-0.052
-425.573	695.843	0.079	-0.208
-424.559	-26.818	0.092	-0.054
-423.544	800.000	-0.059	-0.181
-422.530	800.000	0.003	-0.010
-421.515	-154.159	0.072	-0.005
-420.500	-187.102	0.178	0.002
-419.486	48.126	0.154	0.144
-418.471	142.145	-0.096	-0.127
-417.457	-101.485	-0.132	-0.032
-416.442	-65.427	-0.323	-0.130
-415.428	192.076	-0.097	0.146
-414.413	-94.809	0.261	-0.071
-413.398	-50.996	0.153	0.072
-412.384	-82.546	0.154	-0.050
-411.369	-103.844	-0.253	-0.059
-410.355	390.823	-0.089	-0.184
-409.340	-200.000	-0.029	-0.248
-408.325	-150.366	0.450	0.035
-407.311	147.206	0.138	-0.186
-406.296	800.000	-0.081	0.250
-405.282	-200.000	0.012	-0.372
-404.267	656.809	-0.060	-0.154
-403.252	-200.000	-0.001	0.081
-402.238	800.000	0.076	0.254
-401.223	-11.087	0.111	-0.073
-400.209	82.055	0.138	0.150
-399.194	110.932	-0.071	-0.086
-398.179	55.239	-0.223	-0.215
-397.165	-99.572	0.057	-0.014
-396.150	307.931	0.115	-0.214
-395.136	-43.258	0.329	-0.166
-394.121	-200.000	0.021	0.215
-393.106	-63.888	-0.176	-0.072
-392.092	-145.539	0.253	-0.023
-391.077	21.183	-0.036	0.029
-390.063	-120.113	0.046	0.008
-389.048	676.890	0.088	0.228
-388.033	-200.000	0.007	0.086
-387.019	-137.739	-0.239	-0.027
-386.004	-134.666	-0.399	0.049
-384.990	-173.533	-0.241	-0.007
-383.975	-165.284	0.123	-0.005
-382.960	-89.509	0.197	0.058
-381.946	-200.000	-0.002	0.091
-380.931	800.000	-0.105	0.308
-379.917	719.745	0.068	0.180
-378.902	545.472	-0.051	0.122
-377.888	106.250	-0.107	0.126
-376.873	30.177	0.241	-0.205
-375.858	800.000	0.021	-0.087
-374.844	110.278	-0.174	0.209
-373.829	800.000	-0.035	-0.109
-372.815	-125.223	-0.147	0.022
-371.800	11.579	-0.143	-0.109
-370.785	-200.000	0.041	0.206
-369.771	79.510	0.167	0.178
-368.756	800.000	-0.066	0.220
-367.742	197.887	-0.057	0.088
-366.727	-200.000	-0.004	0.219
-365.712	22.066	0.069	0.056
-364.698	619.664	0.090	0.226
-363.683	356.248	0.094	0.187
-362.669	-108.120	-0.151	0.033
-361.654	-6.989	0.176	-0.119
-360.639	-130.203	-0.248	0.034
-359.625	-11.639	0.383	0.251
-358.610	574.387	-0.209	-0.508
-357.596	-121.588	0.077	0.013
-356.581	31.733	0.135	0.116
-355.566	225.398	0.208	0.336
-354.552	-11.586	0.042	-0.028
-353.537	-125.961	-0.055	0.008
-352.523	-58.506	-0.122	-0.053
-351.508	562.051	0.046	0.111
-350.493	38.475	-0.239	-0.212
-349.479	-169.374	0.112	-0.004
-348.464	-200.000	0.026	-0.251
-347.450	800.000	-0.083	0.270
-346.435	-39.627	0.384	-0.200
-345.420	-79.556	0.326	0.110
-344.406	-36.941	0.047	0.025
-343.391	-33.367	0.149	0.082
-342.377	-200.000	0.004	0.096
-341.362	-83.713	0.128	-0.041
-340.348	-138.864	0.330	0.036
-339.333	98.945	-0.072	0.083
-338.318	-200.000	-0.074	0.463
-337.304	-200.000	0.006	0.121
-336.289	1.361	0.476	0.341
-335.275	-200.000	0.022	-0.371
-334.260	65.228	0.055	-0.056
-333.245	496.055	0.036	0.082
-332.231	-42.941	-0.188	-0.095
-331.216	-146.422	0.277	0.024
-330.202	-200.000	-0.022	0.228
-329.187	14.199	0.273	0.212
-328.172	-108.692	-0.160	-0.034
-327.158	-200.000	-0.038	0.231
-326.143	800.000	-0.055	0.207
-325.129	-71.830	-0.149	-0.055
-324.114	29.303	-0.209	0.177
-323.099	-44.964	0.243	0.121
-322.085	-200.000	0.012	-0.080
-321.070	800.000	0.015	-0.063
-320.056	-67.623	-0.116	0.045
-319.041	178.412	-0.080	0.117
-318.026	-200.000	-0.062	0.347
-317.012	-125.836	-0.332	0.050
-315.997	-200.000	0.008	0.323
-314.983	-93.230	0.202	-0.056
-313.968	-58.039	-0.210	0.091
-312.953	-38.563	-0.057	-0.030
-311.939	22.213	0.214	0.174
-310.924	2.289	-0.382	0.275
-309.910	800.000	-0.139	-0.410
-308.895	-200.000	0.042	-0.212
-307.880	-62.123	-0.421	-0.175
-306.866	-52.381	-0.141	-0.065
-305.851	-79.257	0.201	0.068
-304.837	388.315	-0.130	0.267
-303.822	166.977	0.014	-0.020
-302.807	82.102	-0.021	0.022
-301.793	796.262	0.101	-0.276
-300.778	-149.474	-0.294	0.023
-299.764	-123.004	0.324	-0.052
-298.749	-200.000	0.004	-0.034
-297.735	236.520	0.079	-0.129
-296.720	-111.619	-0.119	0.024
-295.705	-30.121	-0.107	0.060
-294.691	-27.143	-0.093	-0.054
-293.676	-158.804	-0.389	0.022
-292.662	-69.665	0.150	-0.057
-291.647	800.000	-0.002	0.007
-290.632	303.616	-0.223	-0.411
-289.618	-200.000	0.030	-0.219
-288.603	1.821	0.043	-0.031
-287.589	126.640	-0.326	0.410
-286.574	-164.797	0.127	0.006
-285.559	-200.000	0.051	0.427
-284.545	241.377	-0.227	-0.377
-283.530	96.646	0.166	-0.189
-282.516	-200.000	-0.001	0.107
-281.501	-145.973	0.214	0.019
-280.486	155.265	-0.125	0.170
-279.472	252.976	0.202	-0.343
-278.457	-156.553	-0.483	0.030
-277.443	31.254	0.180	-0.154
-276.428	440.477	-0.068	0.149
-275.413	-181.170	0.209	-0.004
-274.399	122.821	-0.094	0.117
-273.384	-100.758	0.035	0.008
-272.370	-67.904	0.184	0.071
-271.355	-111.722	-0.130	-0.026
-270.340	-200.000	0.021	-0.191
-269.326	431.808	-0.114	0.245
-268.311	18.189	-0.116	-0.092
-267.297	800.000	-0.057	0.247
-266.282	-113.972	0.145	-0.028
-265.267	-155.030	0.161	-0.011
-264.253	162.101	0.231	-0.322
-263.238	359.864	0.078	-0.154
-262.224	-200.000	-0.010	0.062
-261.209	210.933	0.066	-0.104
-260.195	-200.000	0.035	-0.166
-259.180	-50.867	-0.091	0.042
-258.165	-51.922	0.211	0.098
-257.151	-161.402	0.107	-0.005
-256.136	-182.107	-0.052	-0.001
-255.122	-153.016	0.255	0.018
-254.107	346.849	-0.147	-0.286
-253.092	-5.390	-0.079	-0.054
-252.078	800.000	-0.130	0.362
-251.063	-144.764	0.090	0.008
-250.049	26.311	0.226	0.188
-249.034	-200.000	-0.032	-0.185
-248.019	567.983	-0.113	0.273
-247.005	800.000	0.026	0.093
-245.990	-53.905	-0.245	-0.111
-244.976	-1.785	0.141	-0.098
-243.961	-80.636	0.295	-0.097
-242.946	173.421	-0.117	0.167
-241.932	98.031	-0.363	-0.414
-240.917	-54.292	0.074	-0.033
-239.903	-18.114	-0.052	-0.033
-238.888	-57.753	0.164	-0.071
-237.873	-200.000	0.014	0.189
-236.859	-100.164	-0.028	0.007
-235.844	257.496	-0.118	-0.202
-234.830	-158.464	-0.207	0.012
-233.815	-139.290	0.285	0.030
-232.800	800.000	0.052	0.144
-231.786	-200.000	-0.043	-0.316
-230.771	800.000	-0.167	-0.501
-229.757	282.492	-0.030	0.053
-228.742	-19.221	0.376	0.232
-227.727	281.273	0.120	0.212
-226.713	-200.000	-0.020	0.168
-225.698	-64.904	0.104	-0.042
-224.684	-183.896	0.107	0.002
-223.669	-92.096	0.144	-0.040
-222.655	-95.953	0.124	0.033
-221.640	-49.287	-0.298	0.141
-220.625	-200.000	0.008	-0.074
-219.611	51.689	-0.156	0.147
-218.596	-200.000	0.000	-0.028
-217.582	187.492	0.198	0.294
-216.567	-6.646	0.209	-0.141
-215.552	45.860	-0.284	-0.260
-214.538	193.447	0.331	-0.496
-213.523	-200.000	-0.109	0.000
-212.509	-200.000	0.016	0.371
-211.494	186.903	0.129	0.191
-210.479	800.000	-0.047	0.164
-209.465	386.206	0.046	0.093
-208.450	28.185	0.108	-0.090
-207.436	58.169	0.057	-0.055
-206.421	173.040	0.062	-0.088
-205.406	-66.151	-0.077	-0.030
-204.392	413.085	-0.127	-0.267
-203.377	-200.000	-0.055	-0.286
-202.363	800.000	-0.119	0.356
-201.348	-200.000	-0.021	0.464
-200.333	800.000	0.046	0.169
-199.319	-155.502	0.458	-0.029
-198.304	-111.721	0.130	-0.026
-197.290	-200.000	0.003	0.090
-196.275	-48.219	0.183	0.087
-195.260	-16.482	0.314	0.197
-194.246	-200.000	-0.001	0.227
-193.231	-126.429	-0.365	-0.054
-192.217	-200.000	-0.056	0.249
-191.202	-90.851	0.223	-0.064
-190.187	-108.371	-0.235	0.050
-189.173	-21.022	0.142	0.086
-188.158	-200.000	0.036	0.276
-187.144	800.000	0.056	-0.212
-186.129	85.206	-0.175	-0.190
-185.114	-3.277	0.285	-0.197
-184.100	131.591	0.158	0.201
-183.085	-166.705	0.117	0.005
-182.071	-104.185	-0.300	0.069
-181.056	-200.000	-0.018	-0.187
-180.042	-44.634	0.247	0.122
-179.027	1.630	-0.089	-0.063
-178.012	-131.548	0.082	-0.011
-176.998	23.804	-0.099	0.081
-175.983	-200.000	0.023	-0.185
-174.969	451.825	-0.130	-0.285
-173.954	-116.949	-0.256	-0.046
-172.939	50.137	-0.110	-0.103
-171.925	-90.392	0.043	-0.012
-170.910	9.291	0.150	-0.112
-169.896	481.292	0.082	0.183
-168.881	136.249	0.084	0.109
-167.866	38.998	0.132	0.117
-166.852	161.930	0.083	-0.115
-165.837	95.854	-0.061	0.069
-164.823	786.495	0.133	0.361
-163.808	-88.663	-0.309	0.091
-162.793	492.612	0.030	0.068
-161.779	656.232	-0.283	-0.720
-160.764	-200.000	0.036	0.205
-159.750	274.131	-0.148	-0.260
-158.735	-132.078	0.193	0.025
-157.720	-62.400	0.178	-0.073
-156.706	-93.017	0.199	0.055
-155.691	-200.000	-0.039	-0.281
-154.677	12.959	0.173	0.132
-153.662	5.809	-0.315	0.231
-152.647	-200.000	-0.045	0.380
-151.633	239.600	0.065	-0.107
-150.618	-87.780	-0.239	0.071
-149.604	-50.223	0.468	0.219
-148.589	12.985	0.220	-0.168
-147.574	-200.000	0.003	0.158
-146.560	701.237	0.044	-0.114
-145.545	230.968	0.112	0.181
-144.531	800.000	-0.064	0.229
-143.516	41.895	0.275	-0.246
-142.502	-110.421	-0.138	-0.028
-141.487	-96.391	-0.138	-0.036
-140.472	-114.473	-0.192	0.036
-139.458	-200.000	0.047	0.233
-138.443	217.295	-0.017	-0.026
-137.429	24.496	-0.109	0.089
-136.414	-200.000	-0.015	0.319
-135.399	9.844	0.126	-0.094
-134.385	95.039	-0.104	-0.117
-133.370	-42.168	-0.367	-0.185
-132.356	-106.235	0.182	-0.040
-131.341	-169.957	0.302	-0.011
-130.326	-200.000	0.041	0.307
-129.312	345.919	-0.068	0.132
-128.297	-35.524	0.386	-0.207
-127.283	-34.511	-0.301	0.163
-126.268	354.042	0.090	0.176
-125.253	-200.000	-0.040	-0.191
-124.239	420.064	0.121	0.255
-123.224	-200.000	-0.006	-0.057
-122.210	225.292	0.093	-0.150
-121.195	-200.000	-0.033	0.170
-120.180	-200.000	0.065	-0.303
-119.166	-13.238	0.253	0.162
-118.151	-200.000	0.011	0.355
-117.137	-200.000	0.012	-0.380
-116.122	-200.000	-0.038	0.350
-115.107	86.739	-0.241	0.263
-114.093	-149.264	-0.228	0.018
-113.078	145.430	0.136	-0.179
-112.064	241.705	0.060	0.098
-111.049	800.000	0.009	-0.036
-110.034	-151.009	0.220	0.016
-109.020	415.328	-0.034	0.071
-108.005	83.482	0.167	0.180
-106.991	800.000	-0.031	-0.105
-105.976	292.869	-0.073	0.131
-104.962	74.382	0.162	0.168
-103.947	-200.000	-0.013	0.160
-102.932	800.000	-0.092	0.280
-101.918	-123.008	0.255	0.041
-100.903	-37.887	-0.205	0.108
-99.889	-200.000	-0.029	-0.175
-98.874	-31.248	0.065	0.036
-97.859	134.381	0.060	-0.077
-96.845	-9.120	0.315	0.208
-95.830	-52.771	0.358	-0.163
-94.816	-54.353	-0.337	0.151
-93.801	-78.835	-0.071	-0.024
-92.786	-3.437	-0.132	0.091
-91.772	295.522	-0.074	-0.133
-90.757	477.452	0.106	0.238
-89.743	392.178	0.045	0.092
-88.728	-10.646	-0.122	0.080
-87.713	-200.000	0.002	-0.044
-86.699	800.000	0.048	0.198
-85.684	12.547	-0.105	-0.080
-84.670	-99.631	0.258	0.064
-83.655	77.060	0.188	0.197
-82.640	-14.927	0.252	0.160
-81.626	-200.000	0.016	0.219
-80.611	-200.000	0.004	0.061
-79.597	3.532	0.253	0.182
-78.582	411.659	-0.100	-0.210
-77.567	60.260	0.157	-0.153
-76.553	-200.000	-0.027	-0.241
-75.538	423.403	0.054	-0.115
-74.524	212.779	0.043	0.067
-73.509	107.535	0.125	-0.147
-72.494	-42.648	0.063	-0.032
-71.480	-181.183	0.117	0.002
-70.465	-6.412	0.153	-0.103
-69.451	800.000	-0.080	-0.235
-68.436	135.867	-0.131	-0.168
-67.422	129.198	0.073	-0.092
-66.407	116.942	-0.066	0.080
-65.392	-59.651	0.416	0.176
-64.378	6.074	-0.232	0.169
-63.363	-68.327	0.079	-0.030
-62.349	143.598	0.069	0.091
-61.334	38.241	-1.125	-0.987
-60.319	24.631	0.493	0.402
-59.305	-200.000	-0.117	-1.031
-58.290	224.409	0.669	1.066
-57.276	240.644	1.008	1.657
-56.261	-200.000	112.073	633.696
-55.246	461.866	1503.800	3305.048
-54.232	144.583	2679.048	3525.791
-53.217	94.115	2325.378	2599.328
-52.203	33.870	2072.963	1777.463
-51.188	29.217	1986.973	1661.806
-50.173	27.835	1969.492	1634.757
-49.159	46.297	2027.137	1850.739
-48.144	45.356	2043.127	1856.721
-47.130	29.829	2003.110	1680.605
-46.115	27.574	1992.291	1651.053
-45.100	27.457	1989.416	1647.548
-44.086	27.384	1987.534	1645.263
-43.071	27.370	1984.963	1642.943
-42.057	27.335	1982.855	1640.817
-41.042	27.356	1981.097	1639.486
-40.027	27.325	1978.903	1637.326
-39.013	27.404	1976.656	1636.119
-37.998	27.444	1975.248	1635.241
-36.984	27.422	1973.363	1633.424
-35.969	27.476	1971.018	1631.902
-34.954	27.406	1969.997	1630.366
-33.940	27.380	1968.775	1629.057
-32.925	27.483	1966.641	1628.145
-31.911	27.477	1965.296	1626.913
-30.896	27.433	1963.833	1625.244
-29.881	27.523	1961.837	1624.332
-28.867	27.468	1960.329	1622.526
-27.852	27.509	1958.598	1621.394
-26.838	27.579	1956.696	1620.381
-25.823	27.526	1955.613	1618.947
-24.809	27.571	1952.848	1616.990
-23.794	27.549	1951.115	1615.300
-22.779	27.564	1949.356	1613.910
-21.765	27.567	1947.529	1612.359
-20.750	27.572	1945.942	1611.028
-19.736	27.552	1944.817	1609.854
-18.721	27.569	1943.155	1608.569
-17.706	27.482	1942.060	1606.824
-16.692	27.444	1940.118	1604.824
-15.677	27.578	1938.202	1604.356
-14.663	27.551	1936.962	1603.029
-13.648	27.586	1935.698	1602.223
-12.633	27.614	1934.251	1601.209
-11.619	27.529	1933.565	1599.830
-10.604	27.566	1931.803	1598.634
-9.590	27.474	1930.551	1596.727
-8.575	27.438	1929.198	1595.232
-7.560	27.488	1927.978	1594.594
-6.546	27.497	1926.489	1593.383
-5.531	27.522	1925.060	1592.356
-4.517	27.500	1924.122	1591.318
-3.502	27.464	1923.355	1590.313
-2.487	27.545	1921.692	1589.581
-1.473	27.537	1920.709	1588.629
-0.458	27.645	1916.025	1585.635
0.556	25.799	1896.003	1558.743
1.571	21.726	1877.991	1508.804
2.586	17.982	1899.888	1493.583
3.600	16.974	1935.043	1512.110
4.615	16.848	1929.749	1506.713
5.629	13.174	1828.797	1396.764
6.644	5.244	1711.287	1243.946
7.659	0.629	1675.705	1181.923
8.673	0.270	1671.882	1176.320
9.688	0.148	1670.657	1174.405
10.702	0.077	1669.470	1172.912
11.717	0.005	1665.965	1169.780
12.731	0.532	1665.792	1173.654
13.746	6.546	1677.613	1228.870
14.761	14.382	1693.666	1301.967
15.775	17.297	1697.502	1327.600
16.790	16.878	1695.549	1322.689
17.804	15.848	1692.306	1312.012
18.819	14.897	1688.812	1301.791
19.834	14.312	1686.703	1295.496
20.848	13.995	1685.336	1291.869
21.863	13.888	1683.104	1289.210
22.877	13.597	1681.678	1285.748
23.892	13.316	1680.767	1282.762
24.907	13.348	1678.944	1281.507
25.921	13.262	1678.111	1280.086
26.936	13.279	1676.994	1279.251
27.950	13.247	1676.199	1278.286
28.965	13.251	1676.608	1278.519
29.980	13.427	1675.053	1278.573
30.994	13.418	1674.195	1277.743
32.009	13.388	1673.504	1276.867
33.023	13.513	1671.965	1276.546
34.038	13.482	1671.773	1276.046
35.053	13.524	1670.041	1274.932
36.067	13.403	1669.416	1273.416
37.082	13.313	1668.687	1272.056
38.096	13.370	1667.264	1271.291
39.111	13.414	1666.957	1271.282
40.126	13.415	1665.725	1270.240
41.140	13.381	1664.989	1269.307
42.155	13.350	1663.178	1267.575
43.169	13.276	1662.366	1266.281
44.184	13.181	1660.871	1264.300
45.199	13.212	1659.343	1263.262
46.213	13.202	1658.589	1262.501
47.228	13.218	1657.249	1261.490
48.242	13.252	1655.962	1260.659
49.257	13.363	1654.706	1260.438
50.271	13.380	1653.277	1259.367
51.286	13.388	1652.344	1258.607
52.301	13.284	1650.980	1256.664
53.315	13.392	1649.169	1255.990
54.330	13.305	1648.021	1254.344
55.344	13.239	1646.761	1252.774
56.359	13.253	1645.009	1251.438
57.374	13.190	1643.936	1250.035
58.388	13.229	1642.765	1249.329
59.403	13.202	1641.247	1247.864
60.417	13.241	1639.591	1246.787
61.432	13.232	1638.507	1245.782
62.447	13.194	1637.427	1244.568
63.461	13.140	1636.198	1243.112
64.476	13.136	1635.224	1242.237
65.490	13.143	1633.780	1241.079
66.505	13.119	1632.556	1239.861
67.520	13.160	1631.599	1239.333
68.534	13.139	1631.038	1238.636
69.549	13.124	1629.943	1237.583
70.563	13.184	1628.210	1236.611
71.578	13.210	1626.795	1235.618
72.593	13.099	1626.106	1234.158
73.607	13.174	1624.688	1233.531
74.622	13.105	1623.684	1232.146
75.636	12.984	1623.438	1230.950
76.651	13.025	1622.091	1230.123
77.666	13.144	1620.516	1229.703
78.680	13.099	1620.031	1228.897
79.695	13.164	1619.111	1228.568
80.709	13.086	1618.616	1227.504
81.724	13.149	1617.337	1226.892
82.739	13.185	1616.420	1226.358
83.753	13.259	1615.294	1225.947
84.768	13.348	1614.529	1225.914
85.782	13.235	1613.938	1224.520
86.797	13.330	1612.851	1224.293
87.812	13.356	1611.726	1223.524
88.826	13.225	1610.661	1221.638
89.841	13.165	1609.697	1220.351
90.855	13.327	1607.891	1220.069
91.870	13.282	1607.408	1219.262
92.884	13.257	1606.599	1218.362
93.899	13.425	1604.931	1218.222
94.914	13.371	1604.049	1217.050
95.928	13.417	1603.215	1216.649
96.943	13.482	1601.005	1215.340
97.957	13.488	1599.779	1214.348
98.972	13.395	1598.709	1212.743
99.987	13.342	1597.144	1211.058
101.001	13.266	1595.805	1209.385
102.016	13.379	1593.818	1208.595
103.030	13.362	1592.686	1207.507
104.045	13.334	1591.387	1206.210
105.060	13.378	1589.796	1205.217
106.074	13.340	1588.460	1203.819
107.089	13.288	1587.089	1202.296
108.103	13.157	1585.887	1200.330
109.118	13.175	1584.201	1199.078
110.133	13.112	1582.841	1197.487
111.147	13.163	1581.120	1196.444
112.162	13.195	1580.144	1195.835
113.176	13.212	1578.482	1194.597
114.191	13.324	1577.003	1194.181
115.206	13.248	1576.198	1192.912
116.220	13.237	1575.221	1191.991
117.235	13.256	1573.645	1190.832
118.249	13.206	1572.730	1189.673
119.264	13.233	1570.972	1188.429
120.279	13.237	1569.637	1187.342
121.293	13.204	1568.328	1186.013
122.308	13.184	1566.658	1184.500
123.322	13.149	1564.876	1182.798
124.337	13.200	1563.796	1182.242
125.352	13.184	1562.470	1181.023
126.366	13.224	1561.299	1180.314
127.381	13.239	1559.966	1179.309
128.395	13.178	1559.169	1178.171
129.410	13.097	1557.770	1176.431
130.424	13.238	1556.466	1176.342
131.439	13.228	1554.844	1174.944
132.454	13.290	1553.360	1174.158
133.468	13.317	1551.887	1173.133
134.483	13.279	1551.087	1172.155
135.497	13.289	1549.571	1170.981
136.512	13.255	1547.892	1169.362
137.527	13.272	1546.485	1168.321
138.541	13.264	1545.438	1167.364
139.556	13.253	1543.778	1165.930
140.570	13.310	1542.603	1165.345
141.585	13.363	1541.032	1164.424
142.600	13.501	1539.553	1164.179
143.614	13.380	1538.730	1162.598
144.629	13.433	1537.781	1162.156
145.643	13.471	1535.968	1160.949
146.658	13.477	1534.797	1159.998
147.673	13.490	1533.168	1158.762
148.687	13.501	1531.883	1157.761
149.702	13.539	1530.237	1156.682
150.716	13.424	1528.814	1154.698
151.731	13.331	1527.775	1153.168
152.746	13.392	1525.953	1152.115
153.760	13.419	1524.492	1151.098
154.775	13.572	1523.048	1150.964
155.789	13.422	1522.310	1149.264
156.804	13.496	1520.308	1148.168
157.819	13.525	1519.299	1147.504
158.833	13.656	1517.993	1147.324
159.848	13.622	1516.501	1145.860
160.862	13.689	1515.580	1145.525
161.877	13.655	1514.159	1144.113
162.892	13.664	1513.262	1143.393
163.906	13.565	1511.707	1141.441
164.921	13.479	1511.088	1140.278
165.935	13.500	1509.974	1139.482
166.950	13.563	1508.638	1138.801
167.964	13.613	1507.594	1138.258
168.979	13.566	1506.834	1137.265
169.994	13.654	1505.549	1136.792
171.008	13.623	1504.481	1135.677
172.023	13.677	1503.267	1135.030
173.037	13.723	1501.850	1134.175
174.052	13.775	1500.605	1133.487
175.067	13.651	1500.520	1132.475
176.081	13.721	1498.812	1131.563
177.096	13.650	1497.676	1130.124
178.110	13.685	1496.060	1129.042
179.125	13.619	1495.252	1127.885
180.140	13.691	1493.961	1127.300
181.154	13.650	1493.308	1126.426
182.169	13.783	1491.269	1125.690
183.183	13.744	1490.440	1124.703
184.198	13.794	1489.540	1124.259
185.213	13.905	1488.282	1123.962
186.227	13.834	1487.203	1122.572
187.242	13.962	1485.812	1122.287
188.256	13.821	1485.269	1120.825
189.271	13.902	1484.133	1120.416
190.286	13.879	1483.210	1119.465
191.300	13.948	1481.662	1118.662
192.315	13.781	1480.514	1116.574
193.329	13.782	1479.261	1115.530
194.344	13.735	1477.975	1114.152
195.359	13.796	1477.553	1114.140
196.373	13.814	1475.862	1112.890
197.388	13.868	1474.844	1112.383
198.402	13.927	1474.293	1112.266
199.417	13.955	1473.119	1111.469
200.432	13.946	1472.044	1110.499
201.446	14.115	1470.811	1110.601
202.461	14.111	1470.010	1109.868
203.475	14.139	1468.721	1108.986
204.490	14.217	1467.353	1108.374
205.504	14.115	1466.575	1107.011
206.519	14.066	1465.529	1105.798
207.534	14.177	1463.872	1105.185
208.548	14.071	1462.957	1103.691
209.563	14.084	1461.868	1102.858
210.577	14.149	1460.867	1102.439
211.592	14.076	1459.925	1101.144
212.607	14.121	1459.635	1101.131
213.621	14.206	1458.729	1100.912
214.636	14.226	1457.802	1100.242
215.650	14.213	1456.819	1099.319
216.665	14.253	1455.798	1098.717
217.680	14.223	1455.164	1097.940
218.694	14.293	1454.177	1097.564
219.709	14.278	1453.692	1097.003
220.723	14.330	1452.511	1096.357
221.738	14.319	1451.528	1095.443
222.753	14.291	1450.785	1094.598
223.767	14.294	1449.829	1093.805
224.782	14.432	1448.666	1093.732
225.796	14.356	1447.741	1092.439
226.811	14.392	1446.795	1091.863
227.826	14.530	1445.935	1092.022
228.840	14.446	1445.177	1090.807
229.855	14.304	1444.826	1089.515
230.869	14.371	1443.378	1088.765
231.884	14.448	1442.388	1088.423
232.899	14.384	1441.065	1086.913
233.913	14.467	1439.035	1085.824
234.928	14.403	1438.346	1084.791
235.942	14.345	1437.451	1083.646
236.957	14.385	1436.254	1082.908
237.972	14.360	1435.348	1081.964
238.986	14.390	1433.953	1081.012
240.001	14.368	1433.278	1080.264
241.015	14.430	1432.136	1079.712
242.030	14.477	1431.038	1079.089
243.045	14.466	1430.265	1078.344
244.059	14.529	1429.342	1077.958
245.074	14.568	1428.576	1077.539
246.088	14.526	1427.915	1076.671
247.103	14.552	1426.704	1075.832
248.117	14.528	1426.320	1075.289
249.132	14.567	1425.240	1074.636
250.147	14.597	1424.603	1074.251
251.161	14.672	1424.250	1074.369
252.176	14.812	1422.837	1074.110
253.190	14.813	1422.684	1073.909
254.205	14.833	1421.613	1073.132
255.220	14.901	1420.685	1072.773
256.234	14.951	1419.781	1072.319
257.249	14.880	1419.088	1071.244
258.263	14.976	1418.231	1071.118
259.278	14.854	1417.601	1069.767
260.293	14.846	1416.557	1068.829
261.307	14.931	1415.595	1068.553
262.322	14.980	1415.035	1068.346
263.336	15.067	1414.131	1068.127
264.351	15.153	1413.064	1067.776
265.366	15.050	1412.149	1066.330
266.380	15.075	1410.991	1065.525
267.395	15.174	1410.159	1065.429
268.409	15.075	1409.497	1064.207
269.424	15.160	1408.161	1063.643
270.439	15.035	1407.446	1062.219
271.453	15.042	1406.530	1061.474
272.468	15.067	1405.881	1061.048
273.482	15.137	1405.054	1060.777
274.497	15.158	1403.977	1060.001
275.512	15.119	1402.586	1058.609
276.526	15.122	1402.218	1058.258
277.541	15.081	1401.298	1057.212
278.555	15.088	1400.383	1056.474
279.570	15.092	1399.469	1055.710
280.585	15.095	1398.620	1054.998
281.599	15.281	1397.391	1055.148
282.614	15.272	1396.759	1054.524
283.628	15.265	1395.429	1053.378
284.643	15.235	1394.745	1052.584
285.657	15.263	1393.541	1051.754
286.672	15.276	1392.405	1050.887
287.687	15.292	1391.725	1050.381
288.701	15.370	1390.318	1049.717
289.716	15.325	1390.016	1049.113
290.730	15.256	1389.501	1048.199
291.745	15.293	1388.028	1047.226
292.760	15.370	1387.183	1046.974
293.774	15.338	1386.017	1045.804
294.789	15.355	1385.385	1045.344
295.803	15.504	1384.054	1045.170
296.818	15.591	1383.452	1045.165
297.833	15.495	1382.331	1043.632
298.847	15.485	1381.332	1042.722
299.862	15.555	1380.138	1042.159
300.876	15.503	1379.085	1040.952
301.891	15.514	1378.364	1040.387
302.906	15.456	1377.857	1039.552
303.920	15.504	1377.505	1039.492
304.935	15.549	1376.402	1038.843
305.949	15.649	1375.474	1038.670
306.964	15.715	1374.824	1038.496
307.979	15.690	1373.645	1037.356
308.993	15.714	1372.497	1036.544
310.008	15.707	1371.869	1035.935
311.022	15.723	1370.755	1035.103
312.037	15.735	1369.892	1034.433
313.052	15.628	1369.196	1033.159
314.066	15.688	1368.242	1032.716
315.081	15.765	1366.604	1031.863
316.095	15.643	1365.790	1030.406
317.110	15.611	1365.388	1029.816
318.125	15.654	1364.165	1029.063
319.139	15.649	1363.197	1028.212
320.154	15.774	1361.785	1027.821
321.168	15.782	1360.684	1026.950
322.183	15.712	1360.304	1026.142
323.197	15.702	1359.258	1025.201
324.212	15.712	1358.812	1024.838
325.227	15.830	1357.547	1024.509
326.241	15.794	1356.574	1023.467
327.256	15.811	1355.466	1022.645
328.270	15.794	1355.127	1022.196
329.285	15.761	1354.139	1021.160
330.300	15.842	1353.238	1020.880
331.314	15.858	1351.841	1019.830
332.329	15.917	1351.080	1019.526
333.343	15.792	1350.644	1018.353
334.358	15.893	1349.727	1018.181
335.373	15.840	1349.317	1017.460
336.387	15.965	1348.390	1017.427
337.402	15.877	1347.614	1016.218
338.416	16.006	1346.783	1016.280
339.431	15.945	1346.036	1015.259
340.446	16.121	1345.082	1015.508
341.460	16.112	1344.001	1014.549
342.475	16.209	1342.764	1014.108
343.489	16.174	1342.498	1013.609
344.504	16.162	1341.834	1012.943
345.519	16.250	1340.731	1012.549
346.533	16.323	1339.556	1012.010
347.548	16.178	1338.588	1010.324
348.562	16.276	1337.924	1010.320
349.577	16.322	1337.373	1010.090
350.592	16.300	1336.336	1009.086
351.606	16.262	1335.311	1007.991
352.621	16.312	1334.388	1007.505
353.635	16.280	1333.329	1006.428
354.650	16.264	1332.507	1005.623
355.665	16.256	1331.492	1004.720
356.679	16.209	1330.527	1003.621
357.694	16.229	1329.585	1002.939
358.708	16.275	1328.719	1002.473
359.723	16.334	1327.290	1001.657
360.738	16.354	1326.627	1001.185
361.752	16.380	1325.382	1000.311
362.767	16.423	1324.057	999.475
363.781	16.333	1323.429	998.380
364.796	16.359	1322.910	998.056
365.810	16.378	1322.468	997.745
366.825	16.417	1321.421	997.099
367.840	16.444	1320.886	996.764
368.854	16.478	1320.213	996.370
369.869	16.569	1319.588	996.346
370.883	16.634	1318.896	996.120
371.898	16.527	1318.160	994.846
372.913	16.666	1317.018	994.710
373.927	16.537	1316.611	993.558
374.942	16.600	1315.214	992.785
375.956	16.596	1314.553	992.177
376.971	16.579	1314.036	991.599
377.986	16.680	1312.865	991.219
379.000	16.682	1312.105	990.567
380.015	16.679	1311.548	990.042
381.029	16.798	1310.879	990.145
382.044	16.746	1310.030	989.112
383.059	16.768	1309.346	988.639
384.073	16.793	1308.658	988.179
385.088	16.850	1308.179	988.057
386.102	16.833	1307.608	987.440
387.117	16.899	1306.544	986.938
388.132	16.860	1305.766	986.032
389.146	16.832	1304.830	985.079
390.161	16.814	1304.240	984.438
391.175	16.806	1303.310	983.607
392.190	16.970	1302.235	983.656
393.205	16.823	1301.476	982.147
394.219	16.846	1300.661	981.574
395.234	16.956	1299.504	981.254
396.248	16.951	1298.475	980.359
397.263	16.929	1296.822	978.898
398.278	16.855	1295.548	977.425
399.292	16.924	1294.140	976.670
400.307	16.851	1293.467	975.658
401.321	16.799	1292.719	974.706
402.336	16.919	1291.245	974.201
403.350	16.915	1290.588	973.597
404.365	16.834	1289.609	972.304
405.380	16.865	1288.714	971.724
406.394	17.022	1287.611	971.701
407.409	16.983	1287.271	971.137
408.423	17.134	1286.180	971.090
409.438	17.046	1286.097	970.443
410.453	17.167	1284.968	970.194
411.467	17.166	1284.316	969.610
412.482	17.110	1284.396	969.266
413.496	17.201	1283.174	968.773
414.511	17.262	1282.392	968.448
415.526	17.248	1281.972	967.966
416.540	17.382	1280.669	967.656
417.555	17.365	1280.115	967.056
418.569	17.356	1279.653	966.572
419.584	17.364	1279.620	966.508
420.599	17.344	1278.934	965.788
421.613	97.008	1355.260	1478.010
422.628	94.814	1366.337	1478.099
