DTS Sentinel unit serial number:	SN413079Multiplexer serial number:	ORYXHardware model number:	OX4-SRSoftware version number:	ORYX F/W v4.00 Oryx Data Collector v3.7.2.0data status	okinstallation	princeton_trtdifferential loss correction	single-endedforward channel	channel 4reverse channel	N/Adate	2019/09/18time	03:25:35forward acquisition time	60.00reverse acquisition time	0.00gamma	496.2192k internal	0.2334k external	0.2334temperature offset calibration	0.9994default loss term (dB/km)	0.3790temperature slope calibration	1.0000multiplexer offset coefficient	1.0000multiplexer slope coefficient	1.0000fibre end	0.00T internal ref (°C)	22.77T ext. ref 1 (°C)	0.17T ext. ref 2 (°C)	17.25length (m)	temperature (°C)	Stokes	anti-Stokes-747.200	-167.222	0.097	-0.004
-746.185	268.924	0.042	-0.075
-745.171	-132.604	-0.071	-0.009
-744.156	-96.899	-0.325	0.086
-743.142	-30.789	0.532	0.303
-742.127	620.000	0.126	0.319
-741.112	-101.600	0.415	0.101
-740.098	-106.517	-0.406	-0.091
-739.083	42.958	0.143	0.131
-738.069	-74.472	-0.192	0.070
-737.054	-65.857	0.353	-0.142
-736.039	-50.253	-0.628	0.298
-735.025	270.430	0.072	-0.127
-734.010	-28.147	-0.240	0.140
-732.996	-123.420	-0.136	-0.022
-731.981	21.470	0.126	-0.103
-730.966	3.349	-0.150	0.110
-729.952	-103.623	-0.216	-0.051
-728.937	28.023	0.236	-0.200
-727.923	-200.000	-0.025	0.347
-726.908	-180.528	0.126	-0.003
-725.894	-200.000	-0.068	-0.312
-724.879	4.039	0.150	0.110
-723.864	-100.633	-0.166	-0.041
-722.850	-200.000	-0.014	-0.296
-721.835	-200.000	0.010	0.079
-720.821	800.000	-0.084	-0.273
-719.806	-146.802	-0.244	-0.021
-718.791	-16.958	-0.058	0.037
-717.777	-180.710	-0.297	0.006
-716.762	-200.000	-0.010	-0.290
-715.748	565.088	-0.055	-0.133
-714.733	-67.841	-0.393	-0.154
-713.718	-200.000	0.002	-0.501
-712.704	722.430	0.082	-0.219
-711.689	-138.078	-0.069	-0.008
-710.675	550.105	-0.173	-0.418
-709.660	103.444	0.106	0.125
-708.645	7.431	-0.219	-0.164
-707.631	-126.626	-0.375	-0.056
-706.616	-64.224	0.287	0.117
-705.602	-6.976	-0.516	-0.352
-704.587	29.304	0.054	-0.046
-703.572	-34.626	0.218	0.120
-702.558	147.885	-0.120	-0.162
-701.543	800.000	-0.071	-0.256
-700.529	-27.193	0.179	-0.104
-699.514	30.067	-0.051	-0.044
-698.499	29.967	0.057	-0.049
-697.485	-143.049	0.419	-0.041
-696.470	619.276	-0.031	0.078
-695.456	-151.003	-0.117	-0.009
-694.441	-10.601	0.138	-0.092
-693.426	-61.360	0.224	-0.095
-692.412	-104.041	-0.395	0.092
-691.397	252.591	0.059	0.100
-690.383	-20.364	0.274	0.169
-689.368	800.000	-0.012	-0.043
-688.354	800.000	0.010	-0.033
-687.339	-144.963	0.294	-0.027
-686.324	-200.000	0.020	0.093
-685.310	-106.368	-0.182	0.041
-684.295	192.949	0.234	0.354
-683.281	800.000	-0.103	-0.359
-682.266	-200.000	-0.043	-0.191
-681.251	-47.087	-0.358	-0.175
-680.237	-10.177	-0.217	-0.145
-679.222	-72.091	0.244	0.091
-678.208	-108.419	0.088	0.019
-677.193	-94.567	0.177	0.048
-676.178	232.089	-0.133	0.218
-675.164	800.000	-0.115	-0.505
-674.149	81.027	0.062	0.067
-673.135	-200.000	-0.022	-0.107
-672.120	666.819	0.033	-0.085
-671.105	-200.000	-0.009	0.232
-670.091	800.000	-0.060	0.228
-669.076	-81.772	0.150	-0.049
-668.062	-136.515	0.211	-0.025
-667.047	-66.110	0.288	-0.115
-666.032	-200.000	0.041	-0.278
-665.018	-120.296	0.090	0.015
-664.003	243.255	-0.050	-0.084
-662.989	31.022	-0.153	-0.132
-661.974	-52.539	0.209	0.097
-660.959	122.323	0.160	-0.200
-659.945	-200.000	-0.015	-0.073
-658.930	-169.874	0.042	0.001
-657.916	225.937	-0.144	-0.234
-656.901	69.429	0.004	0.004
-655.886	278.839	0.131	-0.235
-654.872	399.689	0.032	-0.067
-653.857	-103.229	0.437	-0.103
-652.843	284.604	0.131	-0.236
-651.828	35.123	-0.169	0.148
-650.814	-200.000	0.042	0.323
-649.799	-47.909	-0.142	0.069
-648.784	-200.000	-0.045	0.255
-647.770	690.817	-0.100	-0.263
-646.755	-125.044	-0.379	0.058
-645.741	3.964	0.084	-0.061
-644.726	226.277	-0.114	0.185
-643.711	81.762	-0.211	0.229
-642.697	-134.284	0.227	-0.028
-641.682	-100.786	0.295	0.073
-640.668	319.415	0.110	0.210
-639.653	243.067	0.246	0.412
-638.638	-151.737	0.121	0.009
-637.624	183.846	-0.140	0.208
-636.609	28.288	0.192	0.162
-635.595	150.119	0.152	0.206
-634.580	543.964	0.104	0.249
-633.565	380.793	0.067	0.138
-632.551	-68.828	-0.137	0.053
-631.536	-34.558	0.107	-0.059
-630.522	198.700	-0.200	0.306
-629.507	-126.703	0.137	-0.020
-628.492	-200.000	-0.025	0.347
-627.478	-62.630	-0.391	-0.162
-626.463	-48.347	0.305	0.147
-625.449	-5.047	0.161	0.111
-624.434	-200.000	0.040	-0.208
-623.419	-200.000	0.027	0.202
-622.405	800.000	0.141	-0.550
-621.390	0.407	-0.474	-0.339
-620.376	-200.000	0.034	0.247
-619.361	-43.803	-0.055	0.028
-618.346	-111.625	-0.282	0.057
-617.332	38.016	0.018	0.016
-616.317	-84.326	-0.228	0.072
-615.303	-200.000	-0.083	0.555
-614.288	732.756	0.059	0.159
-613.273	-115.907	-0.238	-0.044
-612.259	-200.000	0.056	0.325
-611.244	84.952	-0.262	-0.287
-610.230	-129.597	-0.214	-0.030
-609.215	312.471	0.080	-0.151
-608.201	22.141	0.171	0.140
-607.186	-200.000	0.057	-0.552
-606.171	-170.665	-0.111	-0.004
-605.157	-200.000	-0.015	-0.132
-604.142	458.459	-0.164	0.364
-603.128	-108.609	-0.274	0.059
-602.113	67.398	-0.135	0.138
-601.098	320.976	0.197	0.374
-600.084	160.153	-0.106	0.148
-599.069	-9.300	0.207	-0.138
-598.055	-95.790	-0.357	-0.095
-597.040	800.000	0.091	0.307
-596.025	685.853	-0.196	-0.511
-595.011	-200.000	-0.047	-0.232
-593.996	-58.383	0.244	-0.106
-592.982	-116.304	-0.120	0.022
-591.967	800.000	0.052	-0.174
-590.952	-200.000	0.010	0.149
-589.938	307.389	0.196	-0.364
-588.923	-126.014	-0.135	-0.020
-587.909	242.803	-0.218	-0.365
-586.894	-190.043	0.164	0.002
-585.879	-200.000	0.023	0.261
-584.865	-200.000	-0.027	0.145
-583.850	156.470	0.129	-0.178
-582.836	-4.515	0.242	-0.167
-581.821	379.387	0.063	0.129
-580.806	-146.090	-0.163	-0.014
-579.792	97.214	-0.046	0.053
-578.777	452.278	-0.037	0.082
-577.763	800.000	0.175	-0.736
-576.748	-200.000	-0.008	0.084
-575.733	800.000	-0.142	0.439
-574.719	800.000	-0.049	0.143
-573.704	-1.162	0.236	0.166
-572.690	-200.000	0.075	0.000
-571.675	228.423	-0.138	-0.225
-570.661	359.205	0.090	-0.180
-569.646	284.739	0.129	-0.232
-568.631	-200.000	-0.043	-0.202
-567.617	124.063	0.230	0.289
-566.602	800.000	0.164	-0.514
-565.588	-200.000	0.037	-0.361
-564.573	16.626	0.147	-0.116
-563.558	800.000	-0.061	-0.175
-562.544	-52.738	0.160	0.073
-561.529	-80.766	0.170	0.056
-560.515	-200.000	0.004	0.068
-559.500	-200.000	0.029	0.302
-558.485	384.890	0.094	0.194
-557.471	139.148	-0.053	0.069
-556.456	-169.991	-0.234	0.008
-555.442	-51.645	-0.216	-0.100
-554.427	800.000	-0.010	0.037
-553.412	-200.000	0.009	-0.150
-552.398	410.058	0.097	-0.204
-551.383	800.000	-0.104	-0.443
-550.369	-58.767	0.264	-0.114
-549.354	99.727	0.192	0.222
-548.339	-117.257	-0.180	0.033
-547.325	14.195	-0.256	0.199
-546.310	112.448	-0.316	0.381
-545.296	406.573	0.071	0.149
-544.281	505.929	-0.036	-0.082
-543.266	-20.814	0.299	-0.183
-542.252	-39.280	0.074	0.039
-541.237	-31.892	0.288	-0.161
-540.223	-200.000	0.001	0.330
-539.208	259.063	-0.112	-0.193
-538.193	-50.044	-0.176	0.083
-537.179	-20.308	0.250	0.153
-536.164	-102.798	-0.139	0.033
-535.150	-0.962	-0.105	0.074
-534.135	111.315	-0.009	-0.011
-533.121	364.726	0.007	-0.013
-532.106	176.821	-0.257	0.372
-531.091	-197.082	-0.187	0.001
-530.077	-101.228	-0.305	-0.074
-529.062	42.314	0.247	-0.223
-528.048	-52.481	-0.360	-0.166
-527.033	157.765	-0.270	0.372
-526.018	91.994	-0.099	0.111
-525.004	588.369	-0.138	-0.338
-523.989	800.000	-0.042	0.123
-522.975	316.098	0.023	-0.044
-521.960	-200.000	0.013	-0.418
-520.945	-29.601	0.193	0.110
-519.931	71.287	-0.322	0.333
-518.916	-200.000	-0.003	-0.014
-517.902	522.853	0.113	-0.265
-516.887	85.546	-0.114	0.124
-515.872	141.799	0.137	-0.181
-514.858	-74.010	-0.128	0.046
-513.843	800.000	-0.036	0.107
-512.829	-46.176	0.250	-0.122
-511.814	800.000	0.077	0.231
-510.799	337.915	-0.155	0.301
-509.785	800.000	0.054	-0.217
-508.770	-200.000	-0.016	0.113
-507.756	-90.314	-0.271	-0.078
-506.741	-128.121	0.401	-0.057
-505.726	-146.143	0.170	0.015
-504.712	546.070	0.111	-0.265
-503.697	-115.121	-0.403	-0.076
-502.683	-142.325	0.203	-0.020
-501.668	-71.976	0.218	0.081
-500.653	-24.204	-0.041	-0.024
-499.639	-20.883	0.138	0.084
-498.624	694.832	-0.089	-0.232
-497.610	255.574	0.115	-0.196
-496.595	-111.199	-0.159	0.032
-495.581	-200.000	0.033	-0.171
-494.566	18.417	-0.110	-0.087
-493.551	-200.000	-0.011	0.280
-492.537	383.763	0.028	-0.057
-491.522	-53.700	-0.046	0.021
-490.508	20.685	-0.311	0.251
-489.493	-200.000	-0.201	0.001
-488.478	284.883	0.061	-0.110
-487.464	-2.803	0.262	-0.182
-486.449	422.959	-0.022	-0.047
-485.435	40.157	-0.090	0.080
-484.420	-200.000	0.006	-0.131
-483.405	19.916	0.141	-0.113
-482.391	-80.557	-0.226	0.075
-481.376	-9.552	0.320	0.212
-480.362	-165.503	0.071	-0.003
-479.347	-114.405	-0.263	-0.050
-478.332	-200.000	0.023	0.109
-477.318	199.001	-0.064	-0.097
-476.303	800.000	0.013	0.036
-475.289	-200.000	0.000	0.051
-474.274	800.000	0.081	-0.244
-473.259	-65.185	-0.045	-0.018
-472.245	-124.854	-0.314	-0.048
-471.230	-146.266	-0.340	0.030
-470.216	800.000	0.113	0.378
-469.201	-200.000	-0.024	-0.118
-468.186	-200.000	0.011	-0.110
-467.172	722.704	-0.053	-0.139
-466.157	-105.880	-0.292	0.065
-465.143	149.071	-0.127	-0.170
-464.128	168.846	0.055	0.077
-463.113	-135.997	0.071	-0.008
-462.099	665.917	0.010	0.024
-461.084	-3.435	0.195	-0.135
-460.070	20.119	0.200	-0.160
-459.055	-59.599	-0.228	0.097
-458.040	54.817	0.175	0.168
-457.026	-127.400	-0.413	-0.060
-456.011	246.040	0.057	-0.095
-454.997	28.418	-0.235	-0.197
-453.982	44.468	-0.163	0.149
-452.968	-46.433	-0.356	-0.174
-451.953	800.000	0.094	-0.356
-450.938	800.000	0.055	-0.183
-449.924	-70.529	0.204	-0.077
-448.909	284.356	0.063	0.112
-447.895	-19.468	-0.108	-0.067
-446.880	662.605	-0.134	0.344
-445.865	-200.000	-0.022	-0.133
-444.851	43.644	-0.256	-0.233
-443.836	33.781	0.139	0.120
-442.822	-200.000	0.029	-0.187
-441.807	11.801	-0.133	0.101
-440.792	-121.786	0.312	0.051
-439.778	-200.000	0.029	0.187
-438.763	-170.347	0.252	0.009
-437.749	-161.171	-0.152	0.008
-436.734	182.908	-0.197	0.288
-435.719	-1.049	0.193	-0.136
-434.705	187.425	0.181	-0.268
-433.690	800.000	0.066	-0.199
-432.676	-69.390	-0.135	0.051
-431.661	-200.000	0.023	0.223
-430.646	-200.000	0.011	-0.056
-429.632	141.042	-0.144	-0.189
-428.617	-144.311	-0.368	0.034
-427.603	-104.924	-0.124	0.028
-426.588	-43.044	-0.308	-0.155
-425.573	470.738	0.093	-0.208
-424.559	-94.212	0.132	-0.036
-423.544	-188.848	0.232	-0.003
-422.530	-0.728	0.163	-0.115
-421.515	141.342	0.168	0.221
-420.500	-55.294	-0.085	0.038
-419.486	-200.000	-0.004	0.290
-418.471	-200.000	-0.011	0.205
-417.457	92.900	-0.128	-0.143
-416.442	199.836	-0.093	0.141
-415.428	-200.000	-0.011	0.070
-414.413	124.836	-0.151	-0.188
-413.398	800.000	-0.024	0.081
-412.384	-23.545	0.279	0.166
-411.369	74.688	-0.159	-0.166
-410.355	-200.000	0.031	-0.258
-409.340	-34.515	-0.169	-0.092
-408.325	495.823	0.083	-0.189
-407.311	-94.279	-0.113	-0.031
-406.296	-123.921	0.043	-0.007
-405.282	114.816	0.100	-0.121
-404.267	-195.911	-0.203	-0.001
-403.252	4.000	0.215	0.156
-402.238	-25.519	-0.171	0.100
-401.223	-178.841	0.223	-0.005
-400.209	214.999	0.160	0.252
-399.194	30.532	-0.207	0.176
-398.179	-46.479	0.220	0.107
-397.165	-200.000	-0.021	-0.242
-396.150	337.041	-0.150	-0.289
-395.136	-200.000	0.044	0.210
-394.121	-78.752	0.255	-0.086
-393.106	-116.329	-0.379	-0.070
-392.092	-63.975	-0.085	0.034
-391.077	306.565	-0.061	-0.113
-390.063	89.462	0.134	0.148
-389.048	652.600	0.095	-0.242
-388.033	-141.723	0.294	0.029
-387.019	-200.000	0.011	-0.075
-386.004	800.000	-0.066	-0.242
-384.990	18.469	-0.288	0.228
-383.975	-32.525	0.143	-0.079
-382.960	437.727	0.086	-0.186
-381.946	-78.922	-0.108	-0.037
-380.931	-118.196	0.078	0.014
-379.917	-49.569	-0.412	0.194
-378.902	800.000	-0.044	-0.175
-377.888	70.914	0.086	0.088
-376.873	332.971	0.085	-0.162
-375.858	800.000	-0.089	0.315
-374.844	54.296	0.145	0.138
-373.829	57.122	-0.089	-0.086
-372.815	50.445	-0.095	0.089
-371.800	66.991	0.026	-0.026
-370.785	791.360	-0.085	-0.232
-369.771	-155.110	0.077	-0.005
-368.756	-116.018	0.021	-0.004
-367.742	-167.557	0.186	-0.007
-366.727	-200.000	0.002	-0.057
-365.712	-78.436	0.048	-0.016
-364.698	181.418	-0.066	-0.096
-363.683	93.682	0.094	0.105
-362.669	37.563	-0.061	-0.053
-361.654	-200.000	0.004	0.040
-360.639	346.658	0.096	0.188
-359.625	-200.000	0.010	-0.083
-358.610	-108.148	-0.248	-0.053
-357.596	114.120	0.092	0.111
-356.581	-200.000	0.004	0.165
-355.566	78.149	0.101	-0.107
-354.552	18.323	-0.242	0.191
-353.537	-66.257	0.067	0.027
-352.523	116.447	0.227	0.276
-351.508	800.000	0.076	-0.232
-350.493	-200.000	-0.051	0.233
-349.479	-182.960	0.181	-0.003
-348.464	236.192	0.092	0.151
-347.450	-43.202	0.106	0.053
-346.435	296.773	-0.111	-0.201
-345.420	48.931	0.391	-0.364
-344.406	406.443	-0.134	0.280
-343.391	800.000	0.072	0.207
-342.377	-200.000	-0.029	-0.238
-341.362	646.370	0.140	-0.355
-340.348	-162.396	0.265	-0.013
-339.333	748.876	-0.058	0.154
-338.318	-21.216	-0.120	-0.072
-337.304	535.010	0.026	-0.061
-336.289	-170.791	-0.349	0.012
-335.275	-100.526	0.081	0.020
-334.260	350.286	0.075	0.146
-333.245	280.699	-0.047	0.084
-332.231	334.472	0.019	-0.036
-331.216	117.720	0.231	-0.282
-330.202	-100.266	-0.301	0.074
-329.187	-97.163	0.315	0.081
-328.172	-200.000	-0.024	-0.149
-327.158	187.990	0.132	0.196
-326.143	395.018	0.116	-0.238
-325.129	146.818	-0.147	-0.195
-324.114	-126.150	-0.080	0.012
-323.099	422.000	0.131	-0.277
-322.085	3.647	-0.255	0.184
-321.070	-15.902	-0.174	0.109
-320.056	68.458	0.291	-0.295
-319.041	94.713	0.239	-0.269
-318.026	95.162	0.209	-0.235
-317.012	44.013	-0.263	0.238
-315.997	53.688	-0.310	0.294
-314.983	-200.000	0.009	0.052
-313.968	106.720	0.176	0.206
-312.953	20.023	-0.097	-0.077
-311.939	-109.939	0.026	-0.005
-310.924	-141.890	0.265	0.026
-309.910	-110.410	-0.241	-0.049
-308.895	-148.457	0.284	0.023
-307.880	-43.386	0.231	-0.115
-306.866	-200.000	0.005	0.090
-305.851	800.000	0.044	0.136
-304.837	800.000	-0.016	-0.059
-303.822	800.000	0.061	-0.211
-302.807	-200.000	0.064	-0.322
-301.793	114.879	0.092	-0.111
-300.778	-200.000	0.029	0.185
-299.764	800.000	-0.022	0.090
-298.749	-145.005	-0.180	0.016
-297.735	-42.565	0.268	-0.135
-296.720	181.745	0.158	0.230
-295.705	-105.046	0.184	0.042
-294.691	-200.000	-0.045	0.262
-293.676	112.027	-0.052	0.062
-292.662	56.518	0.129	-0.124
-291.647	800.000	0.051	-0.153
-290.632	13.993	0.256	0.197
-289.618	436.651	-0.093	0.200
-288.603	555.807	0.022	-0.052
-287.589	466.892	0.082	-0.181
-286.574	302.393	-0.081	0.148
-285.559	-150.852	-0.093	-0.007
-284.545	800.000	-0.010	-0.044
-283.530	-30.271	-0.204	-0.114
-282.516	-5.192	0.008	-0.005
-281.501	370.498	-0.079	-0.158
-280.486	-7.742	0.220	0.147
-279.472	800.000	0.055	0.232
-278.457	-56.973	-0.387	-0.169
-277.443	-159.141	0.303	-0.017
-276.428	-41.796	-0.067	0.034
-275.413	57.709	-0.126	0.121
-274.399	110.608	0.199	-0.236
-273.384	67.875	-0.181	-0.182
-272.370	800.000	0.106	-0.330
-271.355	69.141	-0.177	0.180
-270.340	-92.531	-0.221	-0.061
-269.326	-90.030	0.360	0.103
-268.311	-200.000	0.012	-0.116
-267.297	237.752	0.033	0.054
-266.282	800.000	0.032	0.112
-265.267	800.000	0.087	0.333
-264.253	546.508	-0.140	-0.331
-263.238	-200.000	-0.001	0.043
-262.224	-200.000	0.002	0.040
-261.209	-21.436	-0.130	0.078
-260.195	-62.419	0.144	0.059
-259.180	800.000	0.115	0.363
-258.165	-200.000	-0.005	0.122
-257.151	100.778	-0.249	-0.286
-256.136	54.000	0.219	0.208
-255.122	49.762	-0.178	-0.166
-254.107	-143.408	-0.309	0.029
-253.092	-108.126	0.181	0.039
-252.078	-80.832	0.189	0.062
-251.063	120.748	0.128	-0.157
-250.049	383.353	-0.090	0.182
-249.034	-200.000	0.007	0.051
-248.019	800.000	-0.018	-0.054
-247.005	64.601	0.307	-0.306
-245.990	173.676	-0.099	0.141
-244.976	169.137	0.061	0.086
-243.961	516.613	-0.037	-0.085
-242.946	34.010	0.266	0.229
-241.932	-53.462	-0.187	0.085
-240.917	354.572	-0.077	0.151
-239.903	-36.826	0.030	0.016
-238.888	-31.078	0.328	-0.182
-237.873	164.244	-0.147	-0.205
-236.859	-200.000	0.024	-0.486
-235.844	-144.587	0.453	0.041
-234.830	800.000	-0.047	-0.143
-233.815	-136.298	0.274	-0.032
-232.800	-194.848	-0.095	-0.001
-231.786	-83.226	-0.065	-0.021
-230.771	59.377	-0.090	-0.088
-229.757	121.481	-0.068	-0.084
-228.742	-98.717	-0.175	0.044
-227.727	-24.995	0.304	0.178
-226.713	180.676	-0.089	-0.128
-225.698	-108.040	-0.167	-0.036
-224.684	-200.000	-0.009	-0.193
-223.669	-177.516	-0.256	-0.006
-222.655	-141.002	0.370	-0.037
-221.640	-128.191	-0.085	0.012
-220.625	41.332	0.114	-0.102
-219.611	-122.625	-0.471	0.075
-218.596	-22.622	-0.291	-0.173
-217.582	-200.000	0.029	0.367
-216.567	138.062	-0.226	0.292
-215.552	-160.074	0.671	-0.036
-214.538	-131.168	-0.172	0.023
-213.523	-98.813	-0.133	-0.033
-212.509	-200.000	0.004	0.077
-211.494	498.159	-0.115	0.261
-210.479	359.104	0.140	0.276
-209.465	-151.644	-0.220	-0.016
-208.450	-84.233	0.297	-0.093
-207.436	17.743	-0.043	0.034
-206.421	2.196	0.045	-0.032
-205.406	-142.653	-0.329	0.032
-204.392	24.749	-0.269	-0.219
-203.377	-50.341	0.336	0.156
-202.363	-146.394	0.333	0.029
-201.348	280.578	-0.141	0.248
-200.333	341.792	-0.058	-0.111
-199.319	35.378	0.101	-0.087
-198.304	-93.595	-0.120	-0.033
-197.290	1.774	0.106	-0.075
-196.275	84.476	-0.128	-0.138
-195.260	-131.758	0.377	-0.049
-194.246	53.798	0.063	-0.060
-193.231	36.900	-0.204	0.177
-192.217	66.032	-0.367	-0.367
-191.202	-36.551	-0.130	-0.069
-190.187	103.743	-0.282	-0.325
-189.173	-157.794	0.123	0.007
-188.158	-58.225	0.134	-0.057
-187.144	-15.895	-0.144	-0.090
-186.129	-200.000	-0.022	-0.451
-185.114	184.613	-0.056	0.082
-184.100	-70.524	0.247	-0.092
-183.085	155.625	0.262	-0.354
-182.071	41.869	-0.094	0.084
-181.056	-106.471	0.138	0.030
-180.042	121.518	0.098	0.120
-179.027	-38.189	0.390	-0.203
-178.012	-200.000	0.006	0.427
-176.998	22.135	-0.213	0.171
-175.983	-34.812	0.338	0.181
-174.969	306.716	-0.076	-0.140
-173.954	-49.992	0.282	0.132
-172.939	-71.632	-0.184	-0.068
-171.925	26.285	0.073	0.060
-170.910	10.297	0.139	0.104
-169.896	-88.123	0.221	0.065
-168.881	15.302	0.148	-0.114
-167.866	182.307	-0.317	0.459
-166.852	800.000	-0.065	0.247
-165.837	187.193	-0.256	0.375
-164.823	-68.435	0.252	0.096
-163.808	-71.633	-0.127	0.047
-162.793	252.688	0.021	0.035
-161.779	-200.000	0.007	-0.065
-160.764	-200.000	-0.045	-0.211
-159.750	-101.048	0.242	-0.058
-158.735	52.917	0.299	-0.281
-157.720	-200.000	0.011	0.062
-156.706	-24.964	-0.245	0.143
-155.691	16.216	-0.129	0.100
-154.677	528.324	-0.086	0.199
-153.662	800.000	0.049	0.176
-152.647	800.000	0.051	0.202
-151.633	-200.000	-0.010	0.172
-150.618	800.000	0.064	-0.216
-149.604	-50.387	-0.115	-0.053
-148.589	41.946	0.181	-0.162
-147.574	36.618	-0.176	0.152
-146.560	0.088	0.430	0.301
-145.545	-109.755	-0.271	0.056
-144.531	79.155	0.187	-0.197
-143.516	-200.000	0.041	0.390
-142.502	183.993	0.211	-0.306
-141.487	-200.000	-0.014	-0.119
-140.472	800.000	0.090	0.278
-139.458	-126.844	0.295	0.043
-138.443	-102.959	0.498	-0.116
-137.429	103.973	-0.186	-0.215
-136.414	-200.000	0.052	0.240
-135.399	193.595	-0.073	-0.108
-134.385	-144.746	0.024	0.002
-133.370	43.974	0.121	-0.109
-132.356	109.717	0.245	0.289
-131.341	-83.871	0.563	0.176
-130.326	41.019	-0.312	0.276
-129.312	237.322	-0.068	-0.110
-128.297	241.436	0.244	0.399
-127.283	-96.054	0.160	-0.042
-126.268	102.402	0.250	0.287
-125.253	-2.401	0.190	-0.131
-124.239	102.431	0.245	-0.281
-123.224	-62.039	-0.131	0.054
-122.210	-122.179	-0.456	-0.073
-121.195	154.794	0.048	-0.065
-120.180	326.332	0.177	-0.333
-119.166	11.242	0.076	0.057
-118.151	252.573	0.093	0.156
-117.137	152.330	-0.209	0.280
-116.122	0.006	0.302	-0.211
-115.107	642.422	0.029	0.072
-114.093	15.359	0.113	-0.087
-113.078	800.000	0.090	-0.357
-112.064	-61.664	0.171	-0.070
-111.049	-51.206	-0.072	0.033
-110.034	-200.000	-0.041	0.218
-109.020	93.109	-0.155	-0.171
-108.005	800.000	-0.083	0.281
-106.991	-200.000	-0.036	0.466
-105.976	136.434	0.077	0.098
-104.962	-200.000	-0.002	0.279
-103.947	19.117	0.196	0.154
-102.932	542.790	0.134	0.314
-101.918	-174.503	0.405	-0.011
-100.903	-92.891	-0.221	-0.060
-99.889	545.508	0.036	0.083
-98.874	-200.000	0.027	0.399
-97.859	-200.000	-0.001	0.284
-96.845	56.178	0.170	-0.162
-95.830	-200.000	-0.021	0.178
-94.816	-141.694	0.211	0.021
-93.801	-43.986	-0.092	0.045
-92.786	-29.477	-0.234	-0.131
-91.772	-68.404	0.200	0.076
-90.757	-115.349	0.359	-0.066
-89.743	-145.010	0.152	-0.014
-88.728	-8.621	0.152	0.100
-87.713	-58.540	0.123	0.052
-86.699	119.804	-0.107	0.130
-85.684	280.397	0.208	0.364
-84.670	563.900	0.020	-0.047
-83.655	185.023	-0.054	0.079
-82.640	17.468	-0.036	-0.028
-81.626	-200.000	-0.035	0.230
-80.611	-157.376	0.148	-0.009
-79.597	-200.000	0.005	-0.246
-78.582	-15.951	0.180	0.112
-77.567	800.000	-0.042	-0.121
-76.553	-4.877	0.108	-0.073
-75.538	-114.230	0.211	0.040
-74.524	284.065	-0.029	-0.051
-73.509	800.000	0.025	0.072
-72.494	18.648	-0.077	-0.060
-71.480	-200.000	0.019	-0.254
-70.465	800.000	-0.026	0.081
-69.451	-66.287	0.160	-0.062
-68.436	181.024	-0.251	-0.361
-67.422	-57.920	0.207	0.089
-66.407	-168.143	0.148	-0.006
-65.392	-102.555	0.116	-0.027
-64.378	-200.000	0.030	0.269
-63.363	67.790	-0.104	0.104
-62.349	732.965	-0.063	-0.165
-61.334	154.121	-1.038	-1.394
-60.319	-31.358	0.878	0.484
-59.305	800.000	-0.346	-1.256
-58.290	302.340	0.861	1.559
-57.276	512.357	0.543	1.237
-56.261	-200.000	127.457	666.693
-55.246	403.215	1606.634	3307.413
-54.232	135.800	2776.931	3538.094
-53.217	86.638	2345.543	2531.774
-52.203	29.373	2083.896	1732.440
-51.188	24.469	1998.899	1617.399
-50.173	23.364	1982.886	1594.441
-49.159	41.811	2055.976	1823.390
-48.144	39.668	2068.690	1814.898
-47.130	24.895	2020.516	1638.536
-46.115	22.773	2009.735	1610.389
-45.100	22.640	2006.734	1606.703
-44.086	22.620	2004.237	1604.465
-43.071	22.600	2001.372	1601.922
-42.057	22.617	1999.455	1600.474
-41.042	22.544	1998.474	1598.963
-40.027	22.636	1995.523	1597.371
-39.013	22.639	1993.649	1595.839
-37.998	22.744	1991.375	1594.908
-36.984	22.777	1990.366	1594.335
-35.969	22.742	1988.304	1592.301
-34.954	22.727	1986.927	1591.004
-33.940	22.662	1985.620	1589.307
-32.925	22.738	1983.606	1588.310
-31.911	22.785	1982.237	1587.573
-30.896	22.752	1980.682	1585.971
-29.881	22.834	1979.232	1585.483
-28.867	22.886	1977.208	1584.269
-27.852	22.851	1975.366	1582.416
-26.838	22.789	1973.570	1580.354
-25.823	22.768	1972.345	1579.123
-24.809	22.759	1970.533	1577.528
-23.794	22.816	1968.126	1576.054
-22.779	22.722	1966.480	1573.830
-21.765	22.829	1965.211	1573.704
-20.750	22.762	1964.050	1572.116
-19.736	22.807	1962.119	1570.907
-18.721	22.759	1960.876	1569.427
-17.706	22.732	1959.399	1567.939
-16.692	22.804	1957.113	1566.690
-15.677	22.721	1955.400	1564.525
-14.663	22.812	1954.083	1564.211
-13.648	22.802	1952.572	1562.853
-12.633	22.828	1951.330	1562.022
-11.619	22.684	1950.459	1559.990
-10.604	22.786	1948.575	1559.327
-9.590	22.775	1947.700	1558.467
-8.575	22.886	1945.946	1557.978
-7.560	22.748	1945.110	1556.030
-6.546	22.818	1943.664	1555.432
-5.531	22.719	1942.534	1553.589
-4.517	22.756	1941.940	1553.380
-3.502	22.741	1940.081	1551.697
-2.487	22.737	1939.037	1550.772
-1.473	22.821	1937.827	1550.474
-0.458	22.778	1932.682	1545.918
0.556	21.067	1912.745	1518.345
1.571	17.044	1895.023	1469.387
2.586	13.416	1919.255	1456.178
3.600	12.725	1954.736	1476.773
4.615	12.754	1948.840	1472.444
5.629	9.951	1847.960	1372.317
6.644	3.754	1734.442	1238.356
7.659	0.424	1702.284	1189.067
8.673	0.220	1698.818	1184.936
9.688	0.234	1697.717	1184.176
10.702	0.193	1696.307	1182.762
11.717	0.014	1692.798	1178.810
12.731	0.406	1691.547	1180.905
13.746	5.161	1701.039	1224.805
14.761	12.389	1715.164	1291.879
15.775	16.174	1722.278	1326.943
16.790	16.677	1722.120	1330.659
17.804	15.854	1719.034	1321.695
18.819	14.888	1715.788	1311.515
19.834	14.230	1713.472	1304.475
20.848	14.099	1711.172	1301.580
21.863	13.789	1710.994	1298.901
22.877	13.561	1708.442	1295.069
23.892	13.302	1707.608	1292.297
24.907	13.256	1706.100	1290.680
25.921	13.172	1704.989	1289.071
26.936	13.232	1703.694	1288.446
27.950	13.288	1702.873	1288.148
28.965	13.310	1702.335	1287.799
29.980	13.401	1701.915	1288.075
30.994	13.314	1700.963	1286.565
32.009	13.365	1700.190	1286.266
33.023	13.434	1699.150	1285.901
34.038	13.467	1698.038	1285.196
35.053	13.433	1696.978	1284.017
36.067	13.441	1695.579	1282.908
37.082	13.446	1694.458	1281.985
38.096	13.406	1694.048	1281.250
39.111	13.422	1693.278	1280.683
40.126	13.398	1691.958	1279.379
41.140	13.321	1691.846	1278.590
42.155	13.300	1690.138	1277.023
43.169	13.236	1688.752	1275.371
44.184	13.256	1687.540	1274.496
45.199	13.187	1686.536	1273.092
46.213	13.280	1685.095	1272.607
47.228	13.252	1683.928	1271.400
48.242	13.272	1682.360	1270.259
49.257	13.258	1681.699	1269.539
50.271	13.311	1680.216	1268.716
51.286	13.319	1678.986	1267.731
52.301	13.388	1677.143	1266.759
53.315	13.333	1676.209	1265.518
54.330	13.374	1674.357	1264.326
55.344	13.233	1673.336	1262.366
56.359	13.245	1671.567	1261.007
57.374	13.317	1670.323	1260.506
58.388	13.249	1669.764	1259.457
59.403	13.194	1668.244	1257.780
60.417	13.134	1667.306	1256.502
61.432	13.211	1665.192	1255.386
62.447	13.155	1664.370	1254.225
63.461	13.134	1663.281	1253.134
64.476	13.199	1661.481	1252.167
65.490	13.091	1660.885	1250.789
66.505	13.139	1659.324	1249.864
67.520	13.203	1658.305	1249.466
68.534	13.218	1657.620	1248.952
69.549	13.287	1655.882	1248.056
70.563	13.223	1654.857	1246.690
71.578	13.192	1653.632	1245.423
72.593	13.127	1652.287	1243.812
73.607	13.093	1651.253	1242.668
74.622	13.075	1649.957	1241.447
75.636	13.069	1649.417	1240.886
76.651	13.039	1648.463	1239.830
77.666	13.156	1647.322	1239.740
78.680	13.106	1646.822	1238.883
79.695	13.073	1646.106	1237.981
80.709	13.166	1644.248	1237.176
81.724	13.114	1644.338	1236.742
82.739	13.108	1643.165	1235.707
83.753	13.212	1641.499	1235.125
84.768	13.195	1640.870	1234.410
85.782	13.405	1639.985	1235.203
86.797	13.376	1638.912	1234.069
87.812	13.387	1638.053	1233.400
88.826	13.233	1637.077	1231.408
89.841	13.215	1635.732	1230.148
90.855	13.272	1634.512	1229.545
91.870	13.335	1633.625	1229.239
92.884	13.277	1632.745	1228.040
93.899	13.330	1631.523	1227.405
94.914	13.525	1630.035	1227.618
95.928	13.377	1628.929	1225.583
96.943	13.414	1627.160	1224.418
97.957	13.371	1626.644	1223.605
98.972	13.387	1624.698	1222.148
99.987	13.382	1623.377	1221.014
101.001	13.380	1621.806	1219.705
102.016	13.349	1620.010	1218.022
103.030	13.345	1618.426	1216.690
104.045	13.390	1617.480	1216.202
105.060	13.421	1616.178	1215.342
106.074	13.357	1614.682	1213.644
107.089	13.337	1613.012	1212.134
108.103	13.248	1612.096	1210.687
109.118	13.213	1610.363	1209.020
110.133	13.205	1608.689	1207.603
111.147	13.258	1607.641	1207.096
112.162	13.090	1606.598	1204.975
113.176	13.147	1604.785	1203.923
114.191	13.261	1603.078	1203.372
115.206	13.307	1601.807	1202.644
116.220	13.321	1601.179	1202.170
117.235	13.294	1599.590	1200.669
118.249	13.264	1598.155	1199.273
119.264	13.347	1596.601	1198.599
120.279	13.248	1595.547	1196.983
121.293	13.245	1593.754	1195.511
122.308	13.209	1592.529	1194.227
123.322	13.299	1591.017	1193.638
124.337	13.138	1589.565	1191.285
125.352	13.199	1588.510	1190.825
126.366	13.234	1587.394	1190.136
127.381	13.170	1585.806	1188.376
128.395	13.140	1584.922	1187.395
129.410	13.150	1583.621	1186.390
130.424	13.203	1582.051	1185.489
131.439	13.196	1580.555	1184.211
132.454	13.212	1579.164	1183.177
133.468	13.265	1577.674	1182.335
134.483	13.225	1576.497	1181.062
135.497	13.377	1574.374	1180.453
136.512	13.306	1573.239	1178.995
137.527	13.327	1572.106	1178.190
138.541	13.265	1571.290	1177.035
139.556	13.306	1569.424	1175.820
140.570	13.401	1568.037	1175.351
141.585	13.419	1566.852	1174.488
142.600	13.406	1565.772	1173.482
143.614	13.467	1563.944	1172.441
144.629	13.479	1563.423	1172.031
145.643	13.528	1561.567	1170.882
146.658	13.560	1560.240	1170.014
147.673	13.415	1559.148	1168.063
148.687	13.439	1557.429	1166.844
149.702	13.415	1556.133	1165.599
150.716	13.465	1553.718	1164.038
151.731	13.501	1552.494	1163.270
152.746	13.405	1551.288	1161.593
153.760	13.421	1549.725	1160.431
154.775	13.476	1548.845	1160.055
155.789	13.596	1547.386	1159.698
156.804	13.544	1545.758	1158.013
157.819	13.475	1544.989	1156.853
158.833	13.548	1543.573	1156.202
159.848	13.558	1542.362	1155.261
160.862	13.610	1540.954	1154.464
161.877	13.679	1539.898	1154.051
162.892	13.682	1538.411	1152.856
163.906	13.582	1537.152	1151.114
164.921	13.570	1535.903	1149.994
165.935	13.484	1535.351	1148.884
166.950	13.629	1533.914	1148.714
167.964	13.634	1532.749	1147.774
168.979	13.703	1531.380	1147.123
169.994	13.595	1530.638	1145.719
171.008	13.673	1529.252	1145.121
172.023	13.730	1528.261	1144.667
173.037	13.750	1527.245	1143.947
174.052	13.746	1525.796	1142.730
175.067	13.762	1524.456	1141.739
176.081	13.731	1523.636	1140.808
177.096	13.621	1522.281	1138.935
178.110	13.689	1520.472	1137.946
179.125	13.622	1520.008	1137.039
180.140	13.816	1518.487	1137.133
181.154	13.730	1517.760	1135.897
182.169	13.885	1516.345	1135.797
183.183	13.839	1515.106	1134.459
184.198	13.725	1514.426	1133.070
185.213	13.898	1513.039	1133.114
186.227	13.875	1511.888	1131.988
187.242	13.881	1510.736	1131.070
188.256	13.922	1509.580	1130.387
189.271	13.993	1508.279	1129.791
190.286	13.953	1507.132	1128.559
191.300	13.928	1506.315	1127.680
192.315	13.740	1505.394	1125.615
193.329	13.712	1503.900	1124.209
194.344	13.753	1502.667	1123.464
195.359	13.723	1502.392	1122.956
196.373	13.849	1500.579	1122.353
197.388	13.823	1499.975	1121.626
198.402	13.891	1498.858	1121.154
199.417	13.980	1497.148	1120.378
200.432	14.018	1496.286	1119.888
201.446	14.060	1495.300	1119.329
202.461	14.127	1494.473	1119.064
203.475	14.104	1493.136	1117.810
204.490	14.021	1492.333	1116.553
205.504	14.179	1490.977	1116.498
206.519	14.113	1490.095	1115.294
207.534	14.063	1488.707	1113.824
208.548	14.108	1487.337	1113.001
209.563	14.130	1486.689	1112.566
210.577	14.126	1485.154	1111.293
211.592	14.149	1484.507	1110.867
212.607	14.073	1484.010	1109.889
213.621	14.148	1483.064	1109.581
214.636	14.324	1482.073	1109.914
215.650	14.257	1481.030	1108.590
216.665	14.244	1479.926	1107.577
217.680	14.311	1479.203	1107.385
218.694	14.337	1478.466	1106.906
219.709	14.324	1477.412	1105.934
220.723	14.362	1476.283	1105.241
221.738	14.443	1474.962	1104.693
222.753	14.328	1474.415	1103.426
223.767	14.272	1473.902	1102.572
224.782	14.448	1472.513	1102.598
225.796	14.390	1471.556	1101.400
226.811	14.389	1470.885	1100.792
227.826	14.510	1470.350	1101.094
228.840	14.424	1469.440	1099.747
229.855	14.366	1468.274	1098.399
230.869	14.436	1467.592	1098.251
231.884	14.517	1465.865	1097.394
232.899	14.408	1465.133	1096.030
233.913	14.352	1464.190	1094.860
234.928	14.380	1463.177	1094.195
235.942	14.405	1461.376	1092.913
236.957	14.358	1460.399	1091.779
237.972	14.402	1459.237	1091.101
238.986	14.380	1458.349	1090.194
240.001	14.447	1457.339	1089.778
241.015	14.443	1455.867	1088.562
242.030	14.536	1454.965	1088.397
243.045	14.586	1454.396	1088.201
244.059	14.630	1452.833	1087.220
245.074	14.619	1452.029	1086.449
246.088	14.634	1451.141	1085.786
247.103	14.597	1450.750	1085.155
248.117	14.557	1450.578	1084.673
249.132	14.627	1449.138	1083.953
250.147	14.742	1448.047	1083.791
251.161	14.790	1447.855	1083.859
252.176	14.872	1447.238	1083.832
253.190	14.793	1446.484	1082.661
254.205	14.920	1444.973	1082.257
255.220	14.913	1444.314	1081.621
256.234	14.923	1443.557	1081.026
257.249	14.985	1442.348	1080.426
258.263	15.018	1441.526	1079.923
259.278	14.990	1440.700	1079.030
260.293	15.004	1439.824	1078.373
261.307	15.045	1438.669	1077.673
262.322	15.076	1438.184	1077.414
263.336	15.091	1437.302	1076.755
264.351	15.023	1436.919	1075.937
265.366	15.097	1435.634	1075.352
266.380	15.162	1434.332	1074.703
267.395	15.090	1433.188	1073.286
268.409	15.269	1432.338	1073.703
269.424	15.202	1431.694	1072.691
270.439	15.157	1430.850	1071.682
271.453	15.114	1429.489	1070.289
272.468	15.164	1428.802	1069.999
273.482	15.094	1428.098	1068.933
274.497	15.262	1427.021	1069.100
275.512	15.154	1425.954	1067.524
276.526	15.184	1425.414	1067.214
277.541	15.169	1424.363	1066.233
278.555	15.149	1423.762	1065.562
279.570	15.171	1422.760	1064.857
280.585	15.151	1421.913	1064.005
281.599	15.303	1421.413	1064.503
282.614	15.294	1420.173	1063.421
283.628	15.245	1418.914	1062.075
284.643	15.325	1417.750	1061.613
285.657	15.373	1416.488	1060.879
286.672	15.363	1415.688	1060.122
287.687	15.323	1414.955	1059.230
288.701	15.358	1413.937	1058.597
289.716	15.371	1413.230	1058.051
290.730	15.266	1412.437	1056.705
291.745	15.313	1411.211	1055.987
292.760	15.426	1410.422	1056.015
293.774	15.400	1409.314	1054.932
294.789	15.420	1408.532	1054.376
295.803	15.457	1407.659	1053.864
296.818	15.514	1406.669	1053.387
297.833	15.478	1405.600	1052.269
298.847	15.530	1404.345	1051.562
299.862	15.498	1403.591	1050.699
300.876	15.496	1402.590	1049.847
301.891	15.615	1401.880	1049.963
302.906	15.629	1400.945	1049.259
303.920	15.561	1400.711	1048.566
304.935	15.638	1399.190	1047.815
305.949	15.763	1398.688	1048.129
306.964	15.775	1397.882	1047.501
307.979	15.727	1397.535	1046.854
308.993	15.706	1396.101	1045.557
310.008	15.624	1394.921	1044.072
311.022	15.827	1393.585	1044.237
312.037	15.694	1393.039	1042.908
313.052	15.806	1392.260	1042.929
314.066	15.757	1391.200	1041.740
315.081	15.751	1390.173	1040.844
316.095	15.689	1389.184	1039.628
317.110	15.753	1387.906	1038.970
318.125	15.690	1387.327	1038.059
319.139	15.759	1386.221	1037.566
320.154	15.802	1385.279	1037.031
321.168	15.836	1384.110	1036.272
322.183	15.833	1383.070	1035.385
323.197	15.862	1382.405	1034.973
324.212	15.748	1381.533	1033.527
325.227	15.847	1380.853	1033.535
326.241	15.931	1379.871	1033.229
327.256	15.895	1378.849	1032.147
328.270	15.836	1378.229	1031.234
329.285	16.002	1376.723	1031.033
330.300	15.913	1375.984	1029.843
331.314	15.964	1375.222	1029.491
332.329	15.888	1373.984	1028.010
333.343	15.892	1373.558	1027.624
334.358	15.984	1372.316	1027.163
335.373	16.004	1371.876	1026.865
336.387	15.998	1370.932	1026.032
337.402	16.039	1370.027	1025.512
338.416	16.110	1369.183	1025.225
339.431	16.128	1369.025	1025.124
340.446	16.075	1368.545	1024.354
341.460	16.144	1366.855	1023.413
342.475	16.133	1366.161	1022.739
343.489	16.175	1365.439	1022.360
344.504	16.265	1364.543	1022.145
345.519	16.265	1363.426	1021.218
346.533	16.379	1362.216	1020.912
347.548	16.360	1361.331	1020.044
348.562	16.363	1360.298	1019.196
349.577	16.356	1360.022	1018.857
350.592	16.375	1359.223	1018.282
351.606	16.310	1358.431	1017.208
352.621	16.222	1357.239	1015.696
353.635	16.260	1356.128	1015.001
354.650	16.332	1355.077	1014.556
355.665	16.193	1354.518	1013.214
356.679	16.256	1352.953	1012.333
357.694	16.398	1351.947	1012.341
358.708	16.387	1350.826	1011.346
359.723	16.369	1349.812	1010.389
360.738	16.399	1348.732	1009.674
361.752	16.508	1347.804	1009.537
362.767	16.410	1346.609	1007.967
363.781	16.336	1345.881	1006.896
364.796	16.403	1345.221	1006.712
365.810	16.502	1343.782	1006.134
366.825	16.392	1344.244	1005.736
367.840	16.480	1342.936	1005.190
368.854	16.690	1341.901	1005.577
369.869	16.598	1341.404	1004.566
370.883	16.625	1340.581	1004.025
371.898	16.609	1340.232	1003.577
372.913	16.683	1339.024	1003.024
373.927	16.654	1338.294	1002.217
374.942	16.660	1337.615	1001.652
375.956	16.746	1336.639	1001.343
376.971	16.694	1335.762	1000.288
377.986	16.665	1335.229	999.630
379.000	16.683	1334.452	999.069
380.015	16.765	1333.352	998.640
381.029	16.826	1332.638	998.376
382.044	16.839	1331.939	997.842
383.059	16.857	1331.444	997.488
384.073	16.871	1330.830	997.021
385.088	16.904	1329.986	996.492
386.102	16.924	1329.204	995.938
387.117	16.820	1328.850	994.972
388.132	16.884	1327.363	994.146
389.146	16.856	1326.912	993.557
390.161	16.889	1325.853	992.869
391.175	16.807	1325.218	991.824
392.190	16.883	1324.396	991.566
393.205	16.935	1323.214	990.897
394.219	17.011	1322.679	990.854
395.234	17.049	1321.361	989.999
396.248	16.976	1319.971	988.445
397.263	17.031	1318.535	987.603
398.278	16.930	1317.424	986.096
399.292	16.931	1316.319	985.187
400.307	16.914	1315.443	984.350
401.321	17.020	1314.101	983.873
402.336	16.977	1313.050	982.748
403.350	17.002	1312.105	982.098
404.365	17.015	1311.141	981.368
405.380	17.053	1309.994	980.637
406.394	16.984	1309.500	979.782
407.409	17.131	1308.867	980.074
408.423	17.147	1308.033	979.453
409.438	17.186	1307.302	979.047
410.453	17.191	1306.274	978.217
411.467	17.183	1305.878	977.785
412.482	17.348	1305.403	978.294
413.496	17.216	1305.135	977.245
414.511	17.349	1303.768	976.899
415.526	17.332	1302.967	976.116
416.540	17.390	1302.031	975.663
417.555	17.455	1301.586	975.618
418.569	17.407	1301.257	975.010
419.584	17.305	1301.073	974.197
420.599	17.383	1300.137	973.856
421.613	100.375	1361.809	1490.707
422.628	98.593	1370.699	1490.785
