DTS Sentinel unit serial number:	SN413079Multiplexer serial number:	ORYXHardware model number:	OX4-SRSoftware version number:	ORYX F/W v4.00 Oryx Data Collector v3.7.2.0data status	okinstallation	princeton_trtdifferential loss correction	single-endedforward channel	channel 4reverse channel	N/Adate	2019/09/19time	09:29:35forward acquisition time	60.00reverse acquisition time	0.00gamma	496.2192k internal	0.2335k external	0.2335temperature offset calibration	1.0014default loss term (dB/km)	0.3790temperature slope calibration	1.0000multiplexer offset coefficient	1.0000multiplexer slope coefficient	1.0000fibre end	0.00T internal ref (°C)	22.75T ext. ref 1 (°C)	0.62T ext. ref 2 (°C)	19.31length (m)	temperature (°C)	Stokes	anti-Stokes-747.200	419.412	-0.192	-0.413
-746.185	-200.000	0.007	-0.041
-745.171	-15.819	0.300	0.192
-744.156	-134.399	-0.373	0.046
-743.142	-200.000	0.006	0.096
-742.127	-104.409	-0.425	0.099
-741.112	6.276	0.366	-0.273
-740.098	454.961	-0.109	0.242
-739.083	-116.913	-0.404	0.074
-738.069	-83.561	0.119	-0.038
-737.054	51.950	-0.239	-0.228
-736.039	-104.337	-0.369	0.086
-735.025	66.488	0.167	0.170
-734.010	-122.466	-0.302	-0.049
-732.996	-89.011	-0.469	-0.139
-731.981	800.000	0.036	0.150
-730.966	-48.252	-0.268	-0.130
-729.952	-200.000	0.020	-0.125
-728.937	-75.838	-0.238	-0.085
-727.923	-54.353	0.222	0.101
-726.908	-91.539	-0.380	-0.109
-725.894	52.488	-0.211	-0.202
-724.879	-47.673	-0.231	-0.113
-723.864	85.249	0.074	0.081
-722.850	-200.000	-0.030	-0.277
-721.835	-73.366	-0.171	0.063
-720.821	-103.825	-0.260	-0.061
-719.806	800.000	0.151	-0.461
-718.791	-200.000	0.013	0.081
-717.777	-87.631	-0.026	0.008
-716.762	-200.000	0.028	0.133
-715.748	595.954	-0.077	-0.191
-714.733	100.219	0.103	0.119
-713.718	41.158	0.244	-0.222
-712.704	800.000	-0.047	0.177
-711.689	26.612	-0.192	0.161
-710.675	61.111	-0.243	-0.242
-709.660	-200.000	0.036	0.160
-708.645	800.000	0.105	0.415
-707.631	800.000	0.098	-0.284
-706.616	411.950	0.041	-0.087
-705.602	-101.123	-0.275	-0.067
-704.587	446.583	0.117	0.257
-703.572	-152.362	-0.304	-0.022
-702.558	-200.000	-0.004	-0.066
-701.543	-200.000	-0.029	0.340
-700.529	774.331	0.083	-0.226
-699.514	-0.283	0.125	0.089
-698.499	-83.008	-0.507	0.164
-697.485	-135.224	-0.318	0.038
-696.470	-125.716	-0.148	0.022
-695.456	-200.000	-0.019	0.404
-694.441	57.971	0.093	0.092
-693.426	800.000	-0.051	-0.180
-692.412	-60.841	-0.185	-0.078
-691.397	32.350	-0.158	-0.137
-690.383	109.908	-0.105	0.126
-689.368	800.000	0.122	-0.391
-688.354	-2.960	0.068	0.048
-687.339	-37.858	-0.318	-0.169
-686.324	-64.781	0.095	-0.039
-685.310	195.785	-0.061	-0.093
-684.295	-106.557	-0.530	-0.118
-683.281	-200.000	0.058	-0.321
-682.266	235.062	-0.188	0.310
-681.251	800.000	-0.069	0.262
-680.237	81.687	-0.183	0.199
-679.222	-158.138	-0.182	0.011
-678.208	-200.000	0.014	-0.166
-677.193	-200.000	0.009	0.287
-676.178	-66.309	-0.249	-0.099
-675.164	-1.117	0.180	0.128
-674.149	398.766	0.056	-0.118
-673.135	-129.612	-0.462	-0.064
-672.120	338.241	0.154	0.300
-671.105	166.007	-0.093	0.131
-670.091	84.457	0.296	-0.324
-669.076	-130.130	0.061	0.008
-668.062	-97.000	0.243	-0.064
-667.047	318.663	-0.183	0.346
-666.032	-1.039	0.110	0.078
-665.018	-117.983	0.180	-0.032
-664.003	123.872	-0.277	-0.348
-662.989	-127.476	-0.642	-0.093
-661.974	192.275	0.117	0.177
-660.959	-11.279	0.013	-0.008
-659.945	800.000	0.073	0.272
-658.930	-200.000	0.051	-0.409
-657.916	94.195	0.129	-0.147
-656.901	245.417	-0.121	-0.204
-655.886	-20.275	0.160	0.099
-654.872	-200.000	-0.046	-0.456
-653.857	523.714	0.128	-0.300
-652.843	-133.318	0.135	-0.017
-651.828	94.160	0.272	0.309
-650.814	166.878	-0.218	-0.310
-649.799	5.572	0.061	0.045
-648.784	-131.639	0.049	0.006
-647.770	211.021	-0.103	-0.162
-646.755	395.895	-0.158	-0.330
-645.741	417.590	-0.107	-0.229
-644.726	175.031	0.234	0.339
-643.711	800.000	0.016	-0.068
-642.697	644.639	0.099	-0.254
-641.682	-23.059	-0.389	-0.235
-640.668	-131.797	0.477	0.062
-639.653	-131.487	-0.301	-0.040
-638.638	-23.955	-0.119	-0.071
-637.624	-61.475	0.283	0.119
-636.609	-165.304	-0.176	0.008
-635.595	-123.924	0.088	0.014
-634.580	-200.000	0.085	-0.381
-633.565	-105.677	-0.221	-0.050
-632.551	-200.000	-0.038	-0.409
-631.536	-95.460	-0.338	0.091
-630.522	-48.498	-0.285	0.137
-629.507	-200.000	-0.060	0.317
-628.492	175.252	-0.028	0.041
-627.478	-64.278	-0.132	-0.054
-626.463	-18.960	-0.051	-0.032
-625.449	450.636	0.089	0.197
-624.434	-200.000	-0.012	0.114
-623.419	-90.228	0.197	-0.057
-622.405	131.686	-0.106	-0.136
-621.390	-200.000	0.035	0.164
-620.376	800.000	0.014	-0.050
-619.361	-72.991	-0.486	-0.178
-618.346	45.726	-0.031	0.029
-617.332	-200.000	0.009	-0.102
-616.317	-200.000	0.045	0.405
-615.303	72.834	-0.140	0.146
-614.288	637.327	0.050	0.128
-613.273	-117.099	-0.175	0.032
-612.259	800.000	-0.121	-0.335
-611.244	-200.000	0.018	0.112
-610.230	-78.670	0.209	-0.071
-609.215	237.464	-0.141	-0.234
-608.201	-200.000	-0.012	0.183
-607.186	300.210	0.055	-0.101
-606.171	668.310	-0.068	-0.176
-605.157	800.000	-0.046	-0.136
-604.142	-115.116	-0.258	0.049
-603.128	-200.000	0.001	-0.066
-602.113	-104.281	-0.335	0.078
-601.098	209.650	0.259	-0.406
-600.084	-96.481	-0.041	-0.011
-599.069	-85.148	-0.154	-0.048
-598.055	-200.000	-0.005	0.245
-597.040	-96.486	-0.543	-0.143
-596.025	-200.000	-0.044	-0.273
-595.011	432.798	0.248	0.537
-593.996	-26.566	-0.059	0.035
-592.982	800.000	-0.115	-0.465
-591.967	-33.078	0.072	-0.040
-590.952	-200.000	0.019	-0.098
-589.938	-150.673	0.269	-0.020
-588.923	-124.311	-0.081	-0.013
-587.909	118.660	0.113	-0.139
-586.894	800.000	-0.034	-0.094
-585.879	-200.000	0.027	0.142
-584.865	-91.285	-0.325	0.093
-583.850	406.300	-0.100	-0.211
-582.836	-50.447	-0.109	0.052
-581.821	16.832	-0.256	-0.202
-580.806	245.084	0.163	-0.273
-579.792	-200.000	-0.024	-0.154
-578.777	224.856	-0.016	0.025
-577.763	-61.097	-0.109	0.046
-576.748	-200.000	-0.039	0.235
-575.733	-7.777	0.344	0.232
-574.719	-200.000	-0.000	-0.247
-573.704	-65.931	0.022	0.009
-572.690	618.846	0.010	-0.025
-571.675	-112.015	-0.208	-0.042
-570.661	98.738	-0.059	0.068
-569.646	-200.000	-0.003	0.021
-568.631	-189.885	0.254	0.003
-567.617	-200.000	-0.041	0.209
-566.602	688.512	-0.103	-0.268
-565.588	25.946	0.099	0.083
-564.573	328.957	0.093	-0.178
-563.558	-200.000	-0.038	-0.369
-562.544	12.271	-0.270	-0.208
-561.529	800.000	-0.067	-0.259
-560.515	-200.000	0.027	-0.175
-559.500	-40.947	-0.267	-0.138
-558.485	107.187	0.214	-0.253
-557.471	-96.985	-0.123	-0.032
-556.456	-200.000	-0.061	-0.268
-555.442	-78.254	0.340	-0.116
-554.427	-59.604	-0.372	-0.159
-553.412	-59.243	0.200	-0.086
-552.398	-200.000	0.007	-0.045
-551.383	557.993	0.082	-0.198
-550.369	-90.500	0.194	-0.056
-549.354	195.881	0.201	-0.305
-548.339	-32.971	0.044	0.024
-547.325	800.000	-0.021	-0.060
-546.310	-44.890	-0.083	-0.041
-545.296	67.850	-0.299	-0.305
-544.281	-200.000	-0.000	-0.010
-543.266	99.530	-0.259	-0.299
-542.252	525.284	-0.053	0.125
-541.237	800.000	-0.017	-0.063
-540.223	201.442	-0.058	-0.089
-539.208	-200.000	0.033	0.218
-538.193	800.000	-0.068	0.245
-537.179	353.116	-0.150	0.296
-536.164	497.745	-0.088	-0.201
-535.150	226.058	0.166	0.268
-534.135	-97.916	0.103	-0.027
-533.121	-26.962	0.285	-0.166
-532.106	-7.595	0.282	0.190
-531.091	-139.181	0.185	0.020
-530.077	-85.142	0.178	0.056
-529.062	-58.532	-0.273	-0.118
-528.048	2.812	-0.263	-0.190
-527.033	-46.300	-0.316	0.155
-526.018	195.494	0.064	0.097
-525.004	-94.902	0.137	0.037
-523.989	-94.232	-0.204	-0.056
-522.975	2.494	-0.102	-0.073
-521.960	-40.458	0.325	-0.168
-520.945	246.939	0.127	0.214
-519.931	189.087	0.103	0.154
-518.916	11.072	0.225	-0.171
-517.902	800.000	0.079	0.228
-516.887	245.205	-0.074	-0.124
-515.872	20.375	0.389	-0.313
-514.858	800.000	-0.047	-0.179
-513.843	146.462	0.132	-0.176
-512.829	-56.549	-0.225	0.099
-511.814	195.231	-0.137	-0.207
-510.799	330.515	0.045	0.087
-509.785	800.000	-0.049	0.156
-508.770	-200.000	-0.028	-0.241
-507.756	59.185	0.038	-0.037
-506.741	800.000	-0.085	-0.282
-505.726	-176.644	-0.196	-0.005
-504.712	-200.000	-0.033	-0.254
-503.697	248.898	0.030	0.050
-502.683	233.926	0.151	0.247
-501.668	168.487	0.160	-0.227
-500.653	-73.424	-0.250	-0.091
-499.639	343.698	-0.211	0.412
-498.624	-99.869	-0.315	-0.078
-497.610	561.124	0.156	0.375
-496.595	-16.186	-0.374	0.236
-495.581	188.459	-0.126	-0.187
-494.566	-127.077	0.178	-0.026
-493.551	-200.000	-0.027	-0.281
-492.537	-200.000	-0.051	0.288
-491.522	-16.694	-0.237	-0.149
-490.508	800.000	-0.129	0.381
-489.493	-200.000	-0.070	0.383
-488.478	-200.000	-0.013	0.066
-487.464	-92.582	-0.346	-0.097
-486.449	-200.000	0.017	-0.153
-485.435	800.000	-0.022	0.071
-484.420	800.000	0.070	-0.212
-483.405	-200.000	-0.027	-0.152
-482.391	-200.000	-0.018	0.161
-481.376	-200.000	-0.008	-0.095
-480.362	2.240	-0.204	-0.147
-479.347	-200.000	0.019	0.197
-478.332	-65.324	0.046	0.019
-477.318	200.195	0.218	0.333
-476.303	-162.118	0.151	-0.008
-475.289	-200.000	0.000	0.073
-474.274	28.456	0.191	-0.161
-473.259	223.372	0.070	-0.111
-472.245	-179.977	-0.134	0.003
-471.230	-109.520	-0.164	-0.034
-470.216	200.389	-0.171	0.262
-469.201	-116.114	0.133	-0.025
-468.186	22.084	-0.047	-0.038
-467.172	33.080	0.120	0.104
-466.157	-10.959	-0.354	0.233
-465.143	147.028	-0.337	0.451
-464.128	173.581	0.208	0.298
-463.113	-147.632	-0.205	0.017
-462.099	374.722	-0.077	-0.156
-461.084	-140.071	0.049	-0.005
-460.070	-200.000	0.067	0.461
-459.055	-53.239	0.152	-0.069
-458.040	34.500	-0.162	-0.140
-457.026	31.746	0.078	0.067
-456.011	-200.000	-0.014	-0.152
-454.997	-88.398	0.220	0.065
-453.982	234.627	-0.029	-0.047
-452.968	-33.082	0.515	0.284
-451.953	229.076	-0.103	-0.166
-450.938	-34.124	-0.219	-0.120
-449.924	-132.123	0.248	0.032
-448.909	-200.000	0.029	0.476
-447.895	25.741	0.199	-0.164
-446.880	-31.850	-0.448	-0.249
-445.865	-199.577	0.061	0.000
-444.851	-175.574	-0.112	0.003
-443.836	-62.617	0.161	-0.066
-442.822	-200.000	0.043	-0.280
-441.807	448.301	0.100	0.218
-440.792	78.942	-0.192	0.204
-439.778	-200.000	0.013	-0.080
-438.763	-126.503	0.127	-0.019
-437.749	-129.480	-0.085	0.012
-436.734	-200.000	0.003	-0.048
-435.719	-200.000	0.008	-0.305
-434.705	27.853	0.171	-0.143
-433.690	800.000	0.078	-0.295
-432.676	-200.000	-0.021	0.267
-431.661	46.529	-0.128	0.117
-430.646	12.093	0.173	0.132
-429.632	-67.683	-0.253	-0.098
-428.617	239.409	0.123	0.203
-427.603	-111.008	0.377	-0.077
-426.588	210.995	-0.140	0.219
-425.573	-24.025	0.141	-0.084
-424.559	2.191	-0.293	0.210
-423.544	-39.570	-0.128	-0.066
-422.530	-13.882	0.104	-0.067
-421.515	-200.000	-0.278	0.001
-420.500	139.501	0.223	0.292
-419.486	316.060	-0.069	-0.129
-418.471	-20.395	0.324	0.197
-417.457	124.651	-0.101	-0.126
-416.442	155.394	-0.204	-0.278
-415.428	308.480	-0.158	-0.293
-414.413	449.681	0.065	-0.142
-413.398	21.562	0.249	0.201
-412.384	221.322	0.072	-0.114
-411.369	-72.074	0.130	-0.048
-410.355	800.000	0.067	-0.273
-409.340	-92.431	-0.439	0.123
-408.325	290.947	0.091	-0.164
-407.311	83.321	-0.137	-0.148
-406.296	-56.900	0.230	-0.100
-405.282	107.981	0.110	0.130
-404.267	517.829	-0.137	0.318
-403.252	-62.776	-0.148	0.061
-402.238	-200.000	-0.016	0.070
-401.223	399.159	-0.044	0.092
-400.209	-147.534	0.173	0.014
-399.194	-102.689	-0.111	0.026
-398.179	800.000	0.085	0.247
-397.165	-116.273	-0.201	-0.037
-396.150	12.251	-0.045	0.034
-395.136	283.431	-0.135	0.240
-394.121	-10.337	0.029	-0.019
-393.106	590.126	0.175	0.427
-392.092	-99.211	0.176	-0.044
-391.077	-200.000	-0.020	-0.104
-390.063	17.186	0.107	-0.084
-389.048	800.000	-0.088	0.259
-388.033	-150.025	0.210	0.016
-387.019	-12.906	0.296	-0.191
-386.004	216.005	-0.117	-0.184
-384.990	-200.000	0.000	-0.205
-383.975	-59.325	0.437	-0.186
-382.960	800.000	0.097	0.403
-381.946	-74.684	-0.150	-0.053
-380.931	-175.830	0.219	0.006
-379.917	201.773	-0.079	-0.121
-378.902	-74.122	-0.140	-0.050
-377.888	65.600	0.075	0.075
-376.873	-97.333	-0.260	0.067
-375.858	158.249	0.094	-0.130
-374.844	-106.643	0.540	0.119
-373.829	-68.144	0.093	-0.036
-372.815	-200.000	-0.007	0.045
-371.800	-29.550	0.084	-0.048
-370.785	-179.527	0.158	0.003
-369.771	-165.535	0.209	-0.009
-368.756	-75.600	0.379	0.133
-367.742	-200.000	0.018	-0.200
-366.727	-152.643	0.105	0.007
-365.712	800.000	-0.067	-0.185
-364.698	402.436	-0.134	0.278
-363.683	368.628	-0.011	0.022
-362.669	-90.314	-0.055	0.016
-361.654	-51.070	-0.177	0.082
-360.639	800.000	-0.077	0.245
-359.625	352.097	0.198	0.388
-358.610	137.102	-0.200	-0.259
-357.596	800.000	0.071	-0.196
-356.581	-200.000	-0.030	-0.198
-355.566	-49.328	0.047	-0.022
-354.552	-28.839	0.161	-0.091
-353.537	93.411	-0.280	-0.313
-352.523	-37.976	-0.389	0.205
-351.508	238.152	0.191	-0.314
-350.493	454.213	-0.021	0.045
-349.479	30.993	0.113	0.096
-348.464	-133.562	0.591	-0.073
-347.450	-200.000	0.013	-0.291
-346.435	129.299	0.147	-0.185
-345.420	130.408	-0.185	-0.235
-344.406	-93.052	-0.427	0.118
-343.391	800.000	0.058	0.224
-342.377	60.701	-0.211	-0.207
-341.362	-12.825	-0.258	-0.166
-340.348	-76.817	0.175	-0.061
-339.333	-80.041	0.235	-0.078
-338.318	113.607	-0.065	-0.078
-337.304	553.654	0.047	0.112
-336.289	311.820	-0.163	-0.302
-335.275	280.221	-0.162	0.285
-334.260	-98.743	0.542	0.136
-333.245	444.910	-0.153	0.331
-332.231	252.915	0.102	0.172
-331.216	-137.961	-0.231	-0.025
-330.202	-64.631	-0.195	0.078
-329.187	-200.000	-0.028	0.157
-328.172	-106.243	0.280	0.062
-327.158	800.000	0.023	-0.096
-326.143	-173.249	-0.045	0.001
-325.129	51.047	0.091	0.085
-324.114	510.307	0.099	-0.228
-323.099	164.476	0.051	0.072
-322.085	30.760	-0.105	0.089
-321.070	55.491	-0.265	0.253
-320.056	94.434	0.170	0.191
-319.041	40.895	-0.165	-0.147
-318.026	144.566	-0.071	0.094
-317.012	-200.000	-0.024	-0.259
-315.997	92.038	0.097	-0.107
-314.983	-86.111	0.080	0.024
-313.968	245.757	-0.118	0.197
-312.953	145.458	-0.216	0.285
-311.939	509.084	-0.106	0.243
-310.924	800.000	-0.052	0.170
-309.910	60.365	0.142	0.138
-308.895	800.000	0.021	0.089
-307.880	-124.796	0.100	0.015
-306.866	367.299	0.060	0.119
-305.851	-154.666	-0.339	0.022
-304.837	168.443	-0.064	0.090
-303.822	-135.729	-0.393	0.046
-302.807	-200.000	0.009	-0.067
-301.793	137.980	0.084	-0.109
-300.778	519.013	-0.029	-0.068
-299.764	309.663	-0.060	-0.111
-298.749	-200.000	-0.022	-0.130
-297.735	699.799	0.086	0.223
-296.720	-106.960	-0.162	0.035
-295.705	8.470	-0.206	-0.153
-294.691	129.473	0.133	-0.168
-293.676	132.483	0.092	-0.117
-292.662	223.087	0.178	-0.284
-291.647	-101.833	0.239	0.057
-290.632	-200.000	0.026	0.227
-289.618	188.869	-0.185	-0.273
-288.603	126.394	-0.068	0.085
-287.589	23.524	-0.066	-0.054
-286.574	-32.513	0.215	-0.118
-285.559	117.226	-0.208	0.252
-284.545	-86.898	-0.413	-0.124
-283.530	-96.828	0.198	-0.051
-282.516	263.519	-0.144	-0.246
-281.501	-126.187	0.237	0.035
-280.486	800.000	0.074	0.223
-279.472	40.027	0.151	0.134
-278.457	-117.527	0.361	-0.064
-277.443	-200.000	-0.001	0.039
-276.428	-35.507	-0.347	-0.186
-275.413	-190.840	0.173	0.002
-274.399	-50.004	0.296	-0.138
-273.384	-40.729	-0.338	0.173
-272.370	-200.000	-0.016	-0.283
-271.355	6.465	-0.147	-0.108
-270.340	-200.000	0.047	-0.265
-269.326	800.000	-0.043	-0.161
-268.311	-30.360	-0.139	0.078
-267.297	-91.932	0.364	0.102
-266.282	45.339	0.450	0.409
-265.267	-151.697	0.194	0.014
-264.253	120.689	-0.142	0.174
-263.238	73.168	0.238	0.246
-262.224	-36.120	-0.127	0.068
-261.209	48.509	0.021	0.019
-260.195	-71.488	-0.335	0.123
-259.180	-200.000	0.040	0.310
-258.165	-200.000	-0.009	0.171
-257.151	615.467	0.084	0.208
-256.136	-48.362	0.267	0.127
-255.122	-91.192	-0.235	-0.066
-254.107	-19.346	0.289	0.176
-253.092	-135.783	0.059	0.007
-252.078	-101.043	0.470	0.114
-251.063	39.095	0.220	0.194
-250.049	-13.653	0.301	-0.192
-249.034	-94.632	0.165	0.044
-248.019	44.654	-0.223	0.202
-247.005	-200.000	0.009	0.072
-245.990	29.571	0.076	0.063
-244.976	602.196	-0.056	0.138
-243.961	209.344	-0.216	-0.333
-242.946	-43.203	0.057	-0.028
-241.932	800.000	-0.055	0.218
-240.917	-6.756	-0.314	-0.210
-239.903	-103.850	0.171	-0.039
-238.888	90.799	0.050	-0.055
-237.873	339.959	-0.054	0.104
-236.859	-100.497	0.054	0.013
-235.844	49.974	-0.268	-0.249
-234.830	428.371	0.144	-0.307
-233.815	3.141	0.152	0.109
-232.800	-0.453	0.242	-0.169
-231.786	266.613	0.101	-0.173
-230.771	-72.259	-0.184	-0.067
-229.757	-120.030	0.222	-0.037
-228.742	20.409	-0.065	0.051
-227.727	800.000	0.088	0.306
-226.713	441.418	0.169	0.365
-225.698	-54.628	-0.104	-0.046
-224.684	-63.828	0.253	-0.102
-223.669	-24.268	-0.315	-0.185
-222.655	-200.000	0.017	-0.208
-221.640	-38.982	-0.173	-0.090
-220.625	-200.000	-0.008	-0.132
-219.611	0.024	0.210	-0.147
-218.596	-200.000	-0.021	-0.105
-217.582	-118.429	0.140	-0.024
-216.567	800.000	0.074	0.221
-215.552	800.000	0.065	0.195
-214.538	48.112	0.079	0.073
-213.523	338.978	-0.161	-0.308
-212.509	-26.959	0.153	-0.088
-211.494	-143.437	-0.166	0.016
-210.479	-105.611	0.235	-0.052
-209.465	82.848	-0.150	0.160
-208.450	95.695	-0.064	-0.071
-207.436	41.932	-0.256	0.228
-206.421	-73.843	0.147	0.053
-205.406	318.438	0.182	0.339
-204.392	-107.337	0.110	-0.024
-203.377	-11.298	0.078	-0.050
-202.363	-134.496	-0.138	0.017
-201.348	70.330	0.210	-0.213
-200.333	-145.220	-0.222	0.020
-199.319	226.556	0.105	-0.168
-198.304	613.291	0.036	-0.090
-197.290	576.321	-0.141	-0.339
-196.275	800.000	-0.122	0.410
-195.260	800.000	0.080	0.282
-194.246	122.806	0.068	-0.083
-193.231	-146.688	0.216	0.018
-192.217	362.510	0.053	-0.105
-191.202	-150.203	0.291	0.022
-190.187	-61.370	0.212	0.088
-189.173	356.376	0.143	0.281
-188.158	42.441	-0.270	0.241
-187.144	-96.626	0.158	0.041
-186.129	60.026	0.204	0.198
-185.114	-36.293	0.110	-0.058
-184.100	-90.742	-0.111	-0.031
-183.085	62.431	-0.115	-0.113
-182.071	-157.228	-0.267	0.016
-181.056	44.815	0.038	0.034
-180.042	14.960	0.124	0.096
-179.027	800.000	0.096	0.263
-178.012	-200.000	0.084	0.390
-176.998	-56.692	0.384	-0.167
-175.983	-0.098	0.097	-0.068
-174.969	-149.476	-0.332	0.026
-173.954	642.340	0.035	0.088
-172.939	346.233	0.212	0.409
-171.925	242.228	-0.031	-0.051
-170.910	232.521	0.052	0.084
-169.896	-176.346	0.064	0.002
-168.881	-200.000	0.002	0.088
-167.866	527.923	0.141	0.327
-166.852	-200.000	0.000	0.233
-165.837	275.032	-0.209	-0.363
-164.823	-200.000	0.024	0.210
-163.808	135.334	0.226	0.288
-162.793	26.272	-0.288	0.236
-161.779	155.935	-0.062	0.084
-160.764	800.000	0.038	0.161
-159.750	-83.134	-0.109	-0.035
-158.735	651.701	-0.090	-0.228
-157.720	-116.132	0.156	-0.028
-156.706	61.634	0.114	0.111
-155.691	-60.094	-0.380	-0.159
-154.677	-65.898	-0.339	0.133
-153.662	-75.741	-0.206	0.072
-152.647	800.000	0.008	-0.025
-151.633	13.955	0.258	-0.197
-150.618	776.893	0.076	-0.204
-149.604	-200.000	0.013	-0.096
-148.589	429.537	0.031	-0.067
-147.574	-200.000	0.082	0.371
-146.560	295.146	0.148	0.267
-145.545	391.209	0.069	-0.141
-144.531	-61.377	0.216	-0.089
-143.516	-35.650	0.251	0.133
-142.502	-55.973	-0.422	0.185
-141.487	309.458	0.071	0.130
-140.472	395.493	0.192	0.394
-139.458	-200.000	-0.029	-0.152
-138.443	479.374	0.130	0.289
-137.429	-59.915	0.432	-0.181
-136.414	-200.000	-0.018	-0.136
-135.399	349.238	-0.109	-0.211
-134.385	233.805	-0.081	-0.131
-133.370	-115.550	-0.201	0.037
-132.356	-162.909	0.144	0.007
-131.341	187.773	-0.292	0.427
-130.326	23.239	-0.254	0.205
-129.312	-142.106	0.137	-0.013
-128.297	-109.676	-0.190	-0.039
-127.283	-67.010	-0.025	0.010
-126.268	-10.041	-0.214	-0.140
-125.253	66.159	-0.256	0.255
-124.239	-200.000	0.038	0.179
-123.224	-36.518	0.310	0.164
-122.210	19.966	0.239	0.189
-121.195	-183.091	0.180	0.003
-120.180	-200.000	-0.030	0.185
-119.166	800.000	-0.052	-0.186
-118.151	708.300	0.079	0.204
-117.137	-115.224	-0.153	0.028
-116.122	-152.407	0.110	0.008
-115.107	214.962	-0.280	-0.435
-114.093	-63.679	0.361	0.145
-113.078	102.410	-0.184	-0.211
-112.064	-200.000	-0.018	0.220
-111.049	-41.396	0.218	0.110
-110.034	800.000	-0.014	-0.046
-109.020	-172.062	-0.201	-0.006
-108.005	-61.396	0.167	0.069
-106.991	-29.499	-0.403	0.226
-105.976	-51.404	0.181	0.083
-104.962	-39.617	0.099	-0.051
-103.947	-7.334	-0.085	-0.056
-102.932	-98.611	-0.279	0.070
-101.918	-38.097	-0.233	-0.121
-100.903	207.067	0.131	0.200
-99.889	8.969	0.340	-0.251
-98.874	308.756	-0.065	-0.119
-97.859	-65.207	-0.165	-0.065
-96.845	486.982	-0.222	-0.496
-95.830	480.832	-0.142	-0.315
-94.816	9.138	0.072	-0.053
-93.801	123.288	-0.058	0.071
-92.786	-200.000	0.049	-0.317
-91.772	124.771	-0.095	-0.117
-90.757	104.898	-0.299	-0.345
-89.743	67.827	-0.231	-0.231
-88.728	-200.000	0.037	-0.259
-87.713	-148.979	0.269	0.021
-86.699	-101.166	-0.226	0.054
-85.684	9.791	-0.200	0.149
-84.670	377.545	-0.070	-0.141
-83.655	-118.645	0.285	0.049
-82.640	-200.000	-0.037	-0.224
-81.626	-146.562	-0.241	0.021
-80.611	-200.000	0.020	-0.243
-79.597	430.871	-0.182	-0.386
-78.582	389.954	0.090	0.183
-77.567	29.956	0.175	0.146
-76.553	358.063	-0.091	0.177
-75.538	-200.000	-0.020	-0.250
-74.524	-30.280	0.105	-0.058
-73.509	-43.110	-0.207	0.103
-72.494	192.238	0.085	-0.126
-71.480	-120.325	0.126	-0.021
-70.465	-200.000	0.024	0.141
-69.451	240.600	0.067	0.110
-68.436	307.605	0.123	0.225
-67.422	97.982	-0.066	0.075
-66.407	214.150	0.109	-0.168
-65.392	382.395	-0.100	0.201
-64.378	-16.789	0.208	0.129
-63.363	104.516	-0.283	-0.326
-62.349	136.413	-0.222	0.283
-61.334	-15.017	-1.384	-0.867
-60.319	61.207	0.622	0.604
-59.305	416.302	-0.597	-1.246
-58.290	800.000	0.302	1.233
-57.276	506.949	0.608	1.378
-56.261	-200.000	123.731	633.767
-55.246	385.634	1581.480	3190.246
-54.232	136.919	2767.598	3535.394
-53.217	84.932	2365.295	2534.568
-52.203	29.517	2106.346	1751.234
-51.188	24.438	2020.703	1633.603
-50.173	23.270	2004.164	1609.560
-49.159	41.233	2076.658	1835.106
-48.144	39.535	2088.883	1830.081
-47.130	24.888	2042.149	1654.835
-46.115	22.702	2030.542	1625.248
-45.100	22.612	2027.726	1622.104
-44.086	22.601	2025.386	1620.070
-43.071	22.541	2023.201	1617.708
-42.057	22.558	2021.270	1616.252
-41.042	22.572	2019.214	1614.674
-40.027	22.622	2017.237	1613.482
-39.013	22.655	2015.284	1612.156
-37.998	22.633	2013.841	1610.741
-36.984	22.664	2012.021	1609.501
-35.969	22.625	2009.819	1607.322
-34.954	22.633	2007.839	1605.749
-33.940	22.674	2006.867	1605.282
-32.925	22.736	2004.881	1604.191
-31.911	22.790	2003.376	1603.417
-30.896	22.719	2002.006	1601.608
-29.881	22.770	2000.296	1600.642
-28.867	22.751	1998.823	1599.224
-27.852	22.786	1996.861	1597.914
-26.838	22.822	1994.283	1596.110
-25.823	22.812	1992.393	1594.443
-24.809	22.813	1990.620	1592.967
-23.794	22.749	1989.439	1591.387
-22.779	22.781	1987.809	1590.302
-21.765	22.795	1986.048	1588.964
-20.750	22.784	1984.785	1587.786
-19.736	22.703	1983.749	1586.169
-18.721	22.898	1980.938	1585.607
-17.706	22.744	1979.737	1583.202
-16.692	22.769	1977.791	1581.806
-15.677	22.746	1976.477	1580.483
-14.663	22.805	1974.872	1579.666
-13.648	22.762	1974.322	1578.777
-12.633	22.770	1972.709	1577.499
-11.619	22.743	1971.583	1576.299
-10.604	22.792	1969.823	1575.267
-9.590	22.762	1968.720	1574.051
-8.575	22.828	1967.142	1573.316
-7.560	22.758	1965.941	1571.674
-6.546	22.858	1964.284	1571.174
-5.531	22.811	1963.308	1569.910
-4.517	22.750	1962.635	1568.770
-3.502	22.830	1960.831	1567.977
-2.487	22.771	1959.756	1566.526
-1.473	22.796	1958.698	1565.839
-0.458	22.919	1953.869	1563.010
0.556	21.828	1933.831	1537.569
1.571	18.020	1916.770	1490.707
2.586	14.558	1942.192	1479.687
3.600	13.894	1979.179	1501.724
4.615	13.969	1971.868	1496.720
5.629	10.935	1869.671	1393.072
6.644	4.448	1754.116	1254.587
7.659	0.975	1721.270	1203.426
8.673	0.619	1719.310	1199.121
9.688	0.667	1717.939	1198.439
10.702	0.699	1716.130	1197.323
11.717	0.516	1712.336	1193.124
12.731	0.932	1711.069	1195.421
13.746	5.642	1720.645	1239.340
14.761	12.449	1734.205	1303.121
15.775	16.253	1741.420	1338.650
16.790	17.025	1741.715	1344.884
17.804	16.231	1738.580	1336.055
18.819	15.268	1735.119	1325.669
19.834	14.712	1732.923	1319.486
20.848	14.371	1731.182	1315.350
21.863	14.176	1729.761	1312.616
22.877	13.876	1728.806	1309.407
23.892	13.746	1726.345	1306.404
24.907	13.591	1725.180	1304.185
25.921	13.563	1724.096	1303.029
26.936	13.550	1723.480	1302.349
27.950	13.624	1722.394	1301.994
28.965	13.688	1721.964	1302.055
29.980	13.649	1721.828	1301.533
30.994	13.772	1720.197	1301.151
32.009	13.752	1719.158	1300.093
33.023	13.815	1717.811	1299.448
34.038	13.816	1717.601	1299.182
35.053	13.766	1716.417	1297.781
36.067	13.729	1715.303	1296.538
37.082	13.686	1714.224	1295.273
38.096	13.744	1713.077	1294.743
39.111	13.743	1712.581	1294.243
40.126	13.739	1712.013	1293.673
41.140	13.748	1710.802	1292.711
42.155	13.675	1709.274	1290.870
43.169	13.667	1707.841	1289.616
44.184	13.633	1706.725	1288.389
45.199	13.515	1705.708	1286.597
46.213	13.521	1704.558	1285.660
47.228	13.574	1702.742	1284.587
48.242	13.643	1701.510	1284.078
49.257	13.645	1700.310	1283.077
50.271	13.592	1699.497	1281.938
51.286	13.687	1697.582	1281.115
52.301	13.677	1696.515	1280.119
53.315	13.664	1694.931	1278.711
54.330	13.626	1693.706	1277.377
55.344	13.632	1691.951	1275.992
56.359	13.659	1690.201	1274.763
57.374	13.538	1689.497	1273.189
58.388	13.616	1688.088	1272.615
59.403	13.596	1686.752	1271.343
60.417	13.474	1685.801	1269.578
61.432	13.518	1684.918	1269.134
62.447	13.497	1683.741	1267.977
63.461	13.462	1682.129	1266.386
64.476	13.461	1681.020	1265.425
65.490	13.460	1679.732	1264.337
66.505	13.464	1678.532	1263.354
67.520	13.499	1677.423	1262.674
68.534	13.507	1676.326	1261.795
69.549	13.570	1674.648	1260.905
70.563	13.594	1673.469	1260.085
71.578	13.572	1672.528	1259.098
72.593	13.544	1671.437	1257.957
73.607	13.479	1670.725	1256.811
74.622	13.440	1669.523	1255.499
75.636	13.472	1668.244	1254.675
76.651	13.481	1667.812	1254.305
77.666	13.468	1666.768	1253.312
78.680	13.451	1665.568	1252.168
79.695	13.430	1664.740	1251.279
80.709	13.490	1663.428	1250.634
81.724	13.423	1662.424	1249.262
82.739	13.517	1661.772	1249.369
83.753	13.554	1660.360	1248.479
84.768	13.655	1659.239	1248.286
85.782	13.627	1658.690	1247.551
86.797	13.628	1658.237	1247.103
87.812	13.800	1656.875	1247.263
88.826	13.624	1655.697	1244.945
89.841	13.669	1654.075	1243.950
90.855	13.627	1653.539	1243.124
91.870	13.711	1651.911	1242.419
92.884	13.677	1651.325	1241.615
93.899	13.671	1650.374	1240.745
94.914	13.734	1648.946	1240.030
95.928	13.716	1647.304	1238.554
96.943	13.746	1645.715	1237.475
97.957	13.746	1644.962	1236.801
98.972	13.661	1643.610	1235.041
99.987	13.712	1641.782	1233.931
101.001	13.694	1639.809	1232.206
102.016	13.673	1638.604	1231.037
103.030	13.662	1637.198	1229.794
104.045	13.640	1635.903	1228.547
105.060	13.672	1633.890	1227.161
106.074	13.628	1632.862	1225.960
107.089	13.658	1631.139	1224.775
108.103	13.572	1629.855	1223.069
109.118	13.487	1628.699	1221.467
110.133	13.537	1626.785	1220.291
111.147	13.539	1625.553	1219.278
112.162	13.584	1624.497	1218.703
113.176	13.600	1622.899	1217.516
114.191	13.550	1621.054	1215.658
115.206	13.638	1620.184	1215.541
116.220	13.663	1618.591	1214.427
117.235	13.609	1617.357	1212.993
118.249	13.588	1616.286	1211.929
119.264	13.669	1614.509	1211.080
120.279	13.652	1613.440	1210.051
121.293	13.643	1611.757	1208.617
122.308	13.618	1610.611	1207.470
123.322	13.609	1608.877	1205.993
124.337	13.631	1607.187	1204.781
125.352	13.576	1606.042	1203.420
126.366	13.594	1605.174	1202.791
127.381	13.643	1603.327	1201.656
128.395	13.590	1602.539	1200.573
129.410	13.535	1601.491	1199.282
130.424	13.525	1600.136	1198.092
131.439	13.603	1598.585	1197.385
132.454	13.773	1596.489	1196.938
133.468	13.604	1595.338	1194.749
134.483	13.608	1593.954	1193.638
135.497	13.653	1592.438	1192.724
136.512	13.559	1591.199	1191.013
137.527	13.657	1589.741	1190.517
138.541	13.552	1588.927	1189.053
139.556	13.681	1586.908	1188.360
140.570	13.742	1585.562	1187.683
141.585	13.717	1584.217	1186.388
142.600	13.741	1583.044	1185.582
143.614	13.817	1581.550	1184.900
144.629	13.805	1580.335	1183.796
145.643	13.879	1579.286	1183.435
146.658	13.745	1578.394	1181.709
147.673	13.907	1576.224	1181.130
148.687	13.906	1575.090	1180.170
149.702	13.788	1573.703	1178.187
150.716	13.777	1571.804	1176.585
151.731	13.748	1570.665	1175.421
152.746	13.849	1569.065	1174.837
153.760	13.767	1567.762	1173.178
154.775	13.855	1566.307	1172.604
155.789	13.903	1564.832	1171.732
156.804	13.896	1563.715	1170.743
157.819	14.034	1561.898	1170.250
158.833	13.975	1561.251	1169.250
159.848	13.935	1559.719	1167.720
160.862	14.049	1558.358	1167.397
161.877	13.983	1557.510	1166.196
162.892	13.970	1556.551	1165.280
163.906	13.960	1555.364	1164.220
164.921	13.929	1553.761	1162.702
165.935	13.970	1552.750	1162.126
166.950	13.955	1551.613	1161.068
167.964	14.012	1550.179	1160.293
168.979	13.985	1549.004	1159.124
169.994	14.021	1548.224	1158.688
171.008	14.046	1546.787	1157.683
172.023	13.978	1546.048	1156.554
173.037	14.069	1544.482	1155.912
174.052	14.144	1543.278	1155.430
175.067	14.119	1542.842	1154.829
176.081	13.983	1541.791	1152.996
177.096	14.144	1539.169	1152.045
178.110	14.050	1538.558	1150.840
179.125	14.075	1537.408	1150.048
180.140	14.041	1536.443	1148.993
181.154	14.082	1535.475	1148.446
182.169	14.140	1534.408	1147.949
183.183	14.056	1533.056	1146.254
184.198	14.152	1531.832	1145.899
185.213	14.178	1530.693	1145.126
186.227	14.147	1529.860	1144.186
187.242	14.266	1528.474	1143.865
188.256	14.226	1527.725	1142.930
189.271	14.323	1526.220	1142.367
190.286	14.389	1525.148	1141.916
191.300	14.242	1524.396	1140.250
192.315	14.179	1522.834	1138.548
193.329	14.180	1521.764	1137.650
194.344	14.109	1520.893	1136.415
195.359	14.128	1519.483	1135.394
196.373	14.164	1518.616	1134.891
197.388	14.310	1517.229	1134.747
198.402	14.261	1516.083	1133.459
199.417	14.281	1515.115	1132.768
200.432	14.410	1513.816	1132.576
201.446	14.481	1512.843	1132.231
202.461	14.512	1511.746	1131.514
203.475	14.493	1510.666	1130.479
204.490	14.520	1509.461	1129.658
205.504	14.457	1508.552	1128.455
206.519	14.480	1507.552	1127.761
207.534	14.461	1505.763	1126.193
208.548	14.529	1504.988	1125.977
209.563	14.376	1504.552	1124.520
210.577	14.392	1503.248	1123.550
211.592	14.458	1502.210	1123.117
212.607	14.494	1501.571	1122.787
213.621	14.538	1500.653	1122.297
214.636	14.611	1499.489	1121.818
215.650	14.540	1498.495	1120.498
216.665	14.571	1497.585	1119.925
217.680	14.617	1496.632	1119.424
218.694	14.628	1495.796	1118.770
219.709	14.643	1495.098	1118.249
220.723	14.715	1493.716	1117.601
221.738	14.780	1492.628	1117.120
222.753	14.676	1491.718	1115.646
223.767	14.553	1491.264	1114.389
224.782	14.754	1489.901	1114.614
225.796	14.751	1488.612	1113.526
226.811	14.820	1487.891	1113.352
227.826	14.833	1487.164	1112.794
228.840	14.845	1486.271	1112.108
229.855	14.839	1485.452	1111.356
230.869	14.863	1484.540	1110.734
231.884	14.832	1483.583	1109.718
232.899	14.817	1482.289	1108.549
233.913	14.782	1481.023	1107.269
234.928	14.748	1479.616	1105.899
235.942	14.767	1478.670	1105.220
236.957	14.829	1477.437	1104.605
237.972	14.761	1476.781	1103.568
238.986	14.849	1475.205	1102.878
240.001	14.812	1474.433	1101.957
241.015	14.887	1473.193	1101.427
242.030	14.884	1472.064	1100.466
243.045	14.996	1470.827	1100.181
244.059	14.858	1470.655	1099.050
245.074	14.883	1469.458	1098.218
246.088	14.947	1468.679	1097.960
247.103	14.971	1467.695	1097.288
248.117	14.974	1466.913	1096.621
249.132	15.059	1466.370	1096.679
250.147	15.075	1465.501	1096.037
251.161	15.199	1464.415	1095.939
252.176	15.166	1464.010	1095.319
253.190	15.161	1463.310	1094.668
254.205	15.112	1462.336	1093.525
255.220	15.246	1461.254	1093.488
256.234	15.320	1460.726	1093.478
257.249	15.257	1460.053	1092.469
258.263	15.382	1458.671	1092.156
259.278	15.335	1458.100	1091.324
260.293	15.395	1456.546	1090.452
261.307	15.404	1455.875	1089.913
262.322	15.442	1455.237	1089.585
263.336	15.480	1454.582	1089.248
264.351	15.460	1453.473	1088.189
265.366	15.448	1452.219	1087.074
266.380	15.428	1451.618	1086.403
267.395	15.362	1450.977	1085.395
268.409	15.499	1449.804	1085.309
269.424	15.531	1448.452	1084.411
270.439	15.512	1447.364	1083.373
271.453	15.457	1446.857	1082.546
272.468	15.453	1445.803	1081.637
273.482	15.454	1445.061	1080.992
274.497	15.585	1444.320	1081.182
275.512	15.527	1443.230	1079.899
276.526	15.538	1442.328	1079.197
277.541	15.540	1441.431	1078.447
278.555	15.645	1440.147	1078.063
279.570	15.558	1439.599	1077.002
280.585	15.622	1438.314	1076.353
281.599	15.670	1437.635	1076.054
282.614	15.622	1437.175	1075.308
283.628	15.705	1435.475	1074.474
284.643	15.619	1434.448	1073.059
285.657	15.723	1433.220	1072.711
286.672	15.661	1432.757	1071.875
287.687	15.691	1431.773	1071.235
288.701	15.727	1430.672	1070.543
289.716	15.694	1429.717	1069.526
290.730	15.866	1428.469	1069.591
291.745	15.841	1427.293	1068.459
292.760	15.862	1426.416	1067.836
293.774	15.875	1425.645	1067.248
294.789	15.852	1424.434	1066.101
295.803	15.876	1424.043	1065.866
296.818	15.865	1423.089	1064.990
297.833	15.854	1422.105	1064.090
298.847	15.946	1421.325	1063.992
299.862	15.894	1420.354	1062.842
300.876	15.948	1419.399	1062.378
301.891	15.967	1418.213	1061.514
302.906	15.940	1417.689	1060.854
303.920	16.003	1416.853	1060.534
304.935	16.017	1415.922	1059.829
305.949	16.019	1415.211	1059.221
306.964	15.982	1414.143	1058.093
307.979	16.052	1413.265	1057.779
308.993	15.996	1412.773	1056.968
310.008	16.073	1411.684	1056.540
311.022	16.125	1410.524	1055.909
312.037	16.190	1409.093	1055.150
313.052	16.209	1408.315	1054.593
314.066	16.164	1407.786	1053.823
315.081	16.184	1406.701	1053.040
316.095	16.148	1405.445	1051.781
317.110	16.136	1404.391	1050.823
318.125	16.016	1403.514	1049.329
319.139	16.107	1402.588	1049.114
320.154	16.146	1401.694	1048.591
321.168	16.109	1400.635	1047.477
322.183	16.082	1399.602	1046.441
323.197	16.156	1398.363	1045.885
324.212	16.282	1397.468	1045.901
325.227	16.204	1396.848	1044.863
326.241	16.189	1396.236	1044.218
327.256	16.327	1394.808	1043.910
328.270	16.306	1394.093	1043.153
329.285	16.258	1393.094	1042.020
330.300	16.273	1392.007	1041.209
331.314	16.269	1391.349	1040.596
332.329	16.316	1390.368	1040.058
333.343	16.306	1389.259	1039.079
334.358	16.338	1388.458	1038.585
335.373	16.295	1387.882	1037.795
336.387	16.382	1386.674	1037.337
337.402	16.461	1385.722	1037.018
338.416	16.435	1385.347	1036.485
339.431	16.407	1385.008	1035.970
340.446	16.440	1384.421	1035.641
341.460	16.513	1382.890	1034.850
342.475	16.408	1382.199	1033.599
343.489	16.493	1381.237	1033.308
344.504	16.568	1380.024	1032.764
345.519	16.573	1378.633	1031.664
346.533	16.574	1378.358	1031.371
347.548	16.626	1377.443	1030.914
348.562	16.615	1376.680	1030.185
349.577	16.762	1375.427	1030.051
350.592	16.733	1374.903	1029.391
351.606	16.635	1374.122	1028.119
352.621	16.657	1372.796	1027.171
353.635	16.677	1371.729	1026.399
354.650	16.627	1371.281	1025.672
355.665	16.568	1369.903	1024.196
356.679	16.668	1368.892	1023.953
357.694	16.676	1367.711	1023.025
358.708	16.715	1366.629	1022.361
359.723	16.635	1366.097	1021.388
360.738	16.750	1364.872	1021.080
361.752	16.844	1363.573	1020.584
362.767	16.760	1362.556	1019.226
363.781	16.797	1361.324	1018.434
364.796	16.826	1361.068	1018.328
365.810	16.817	1360.411	1017.694
366.825	16.944	1359.515	1017.697
367.840	16.868	1358.875	1016.668
368.854	16.870	1358.264	1016.131
369.869	16.972	1357.723	1016.250
370.883	17.033	1356.578	1015.670
371.898	17.090	1355.871	1015.394
372.913	17.008	1355.353	1014.423
373.927	16.974	1354.455	1013.459
374.942	17.130	1353.003	1013.210
375.956	17.077	1352.357	1012.320
376.971	17.085	1352.062	1012.063
377.986	17.047	1350.967	1010.926
379.000	17.095	1350.151	1010.510
380.015	17.115	1349.436	1010.004
381.029	17.136	1348.572	1009.394
382.044	17.135	1347.939	1008.824
383.059	17.228	1346.838	1008.464
384.073	17.214	1346.351	1007.927
385.088	17.317	1345.817	1008.050
386.102	17.286	1344.825	1007.034
387.117	17.243	1344.385	1006.361
388.132	17.251	1343.658	1005.772
389.146	17.309	1342.235	1004.964
390.161	17.156	1342.217	1003.958
391.175	17.353	1340.658	1003.863
392.190	17.329	1340.324	1003.385
393.205	17.345	1339.262	1002.590
394.219	17.320	1338.237	1001.589
395.234	17.388	1336.898	1000.898
396.248	17.484	1335.233	1000.126
397.263	17.506	1333.775	999.075
398.278	17.431	1333.082	998.032
399.292	17.332	1332.289	996.765
400.307	17.341	1331.133	995.868
401.321	17.401	1329.800	995.132
402.336	17.338	1329.199	994.226
403.350	17.430	1328.013	993.788
404.365	17.442	1326.994	993.011
405.380	17.504	1326.089	992.604
406.394	17.441	1325.808	991.937
407.409	17.417	1324.923	991.049
408.423	17.509	1323.977	990.790
409.438	17.629	1323.417	990.979
410.453	17.619	1322.614	990.233
411.467	17.553	1321.877	989.211
412.482	17.503	1321.363	988.446
413.496	17.600	1320.465	988.253
414.511	17.599	1319.493	987.432
415.526	17.654	1319.072	987.347
416.540	17.700	1318.106	986.804
417.555	17.817	1317.118	986.652
418.569	17.739	1317.140	986.132
419.584	17.789	1316.493	985.849
420.599	17.762	1316.060	985.283
421.613	100.390	1363.173	1488.203
422.628	99.041	1369.944	1488.277
