DTS Sentinel unit serial number:	SN413079Multiplexer serial number:	ORYXHardware model number:	OX4-SRSoftware version number:	ORYX F/W v4.00 Oryx Data Collector v3.7.2.0data status	okinstallation	princeton_trtdifferential loss correction	single-endedforward channel	channel 4reverse channel	N/Adate	2019/09/18time	10:49:34forward acquisition time	60.00reverse acquisition time	0.00gamma	496.2192k internal	0.2314k external	0.2314temperature offset calibration	0.9985default loss term (dB/km)	0.3790temperature slope calibration	1.0000multiplexer offset coefficient	1.0000multiplexer slope coefficient	1.0000fibre end	0.00T internal ref (°C)	28.98T ext. ref 1 (°C)	0.38T ext. ref 2 (°C)	25.39length (m)	temperature (°C)	Stokes	anti-Stokes-747.200	-8.335	0.364	0.249
-746.185	121.017	-0.099	0.125
-745.171	-29.735	-0.204	-0.118
-744.156	-97.075	-0.253	0.067
-743.142	-56.939	0.104	-0.047
-742.127	705.564	0.033	-0.088
-741.112	112.261	-0.126	-0.154
-740.098	-123.230	0.294	-0.048
-739.083	160.674	-0.099	0.140
-738.069	-51.259	-0.071	0.034
-737.054	-67.979	0.153	-0.061
-736.039	-200.000	-0.004	0.100
-735.025	-18.802	0.211	-0.133
-734.010	-74.555	-0.209	-0.076
-732.996	-12.288	-0.121	-0.080
-731.981	-169.397	-0.290	-0.011
-730.966	-80.002	-0.179	-0.061
-729.952	62.892	-0.159	-0.161
-728.937	69.067	-0.276	-0.288
-727.923	-200.000	0.007	-0.136
-726.908	-146.950	-0.098	0.009
-725.894	-200.000	-0.024	-0.141
-724.879	-55.129	-0.107	0.049
-723.864	76.633	0.055	-0.059
-722.850	-114.483	-0.271	-0.053
-721.835	12.269	-0.241	0.188
-720.821	491.590	0.061	0.142
-719.806	-39.074	-0.242	-0.129
-718.791	288.235	0.062	-0.114
-717.777	78.541	-0.113	-0.123
-716.762	800.000	0.084	-0.253
-715.748	-43.122	-0.412	-0.211
-714.733	13.314	-0.203	-0.160
-713.718	112.866	0.195	0.239
-712.704	-48.836	0.144	0.070
-711.689	-6.610	-0.187	0.129
-710.675	115.902	0.085	-0.106
-709.660	595.720	-0.133	-0.333
-708.645	800.000	0.086	0.323
-707.631	-185.083	-0.213	-0.003
-706.616	800.000	-0.048	-0.160
-705.602	-122.676	0.470	0.077
-704.587	-117.333	0.169	0.031
-703.572	-200.000	0.015	-0.203
-702.558	199.476	0.240	-0.373
-701.543	487.230	-0.092	0.212
-700.529	800.000	-0.120	0.364
-699.514	777.217	-0.135	-0.372
-698.499	-200.000	-0.012	0.408
-697.485	46.243	0.260	-0.243
-696.470	30.188	-0.107	0.093
-695.456	58.572	0.160	-0.159
-694.441	-114.292	-0.029	0.006
-693.426	-120.941	-0.316	0.054
-692.412	98.842	0.260	0.304
-691.397	-176.153	-0.328	-0.009
-690.383	-200.000	-0.033	0.185
-689.368	31.682	-0.078	-0.068
-688.354	-146.589	-0.307	-0.027
-687.339	104.128	0.134	0.159
-686.324	-183.499	0.311	0.005
-685.310	-57.349	-0.087	-0.039
-684.295	-169.877	-0.166	0.006
-683.281	23.915	0.269	0.224
-682.266	-89.224	0.232	0.069
-681.251	-54.966	0.132	0.060
-680.237	37.529	-0.160	-0.144
-679.222	800.000	-0.039	-0.122
-678.208	-32.528	-0.262	0.148
-677.193	-200.000	0.071	-0.380
-676.178	102.275	-0.172	-0.203
-675.164	8.554	0.054	-0.041
-674.149	-27.176	-0.281	-0.166
-673.135	-200.000	-0.009	-0.297
-672.120	-118.693	0.175	-0.031
-671.105	-130.629	-0.418	0.057
-670.091	-200.000	-0.033	-0.166
-669.076	-107.136	0.067	-0.015
-668.062	-200.000	0.039	-0.507
-667.047	-200.000	-0.046	0.246
-666.032	-183.704	0.217	-0.004
-665.018	-49.378	-0.238	0.115
-664.003	178.876	-0.175	0.258
-662.989	81.740	0.264	0.289
-661.974	-115.919	0.309	0.058
-660.959	800.000	-0.053	0.166
-659.945	6.361	-0.372	0.279
-658.930	-51.602	0.128	-0.060
-657.916	32.364	-0.197	0.172
-656.901	-56.843	0.046	-0.021
-655.886	788.362	-0.054	-0.149
-654.872	222.386	-0.058	0.094
-653.857	0.645	-0.129	-0.093
-652.843	-200.000	0.012	-0.144
-651.828	250.479	-0.123	-0.211
-650.814	640.487	0.082	-0.210
-649.799	111.484	0.079	-0.097
-648.784	-78.860	0.172	0.059
-647.770	-111.063	0.038	0.008
-646.755	-69.644	-0.466	0.180
-645.741	5.247	0.155	0.115
-644.726	63.957	-0.169	0.171
-643.711	-104.172	-0.134	0.032
-642.697	523.302	0.060	-0.142
-641.682	135.196	0.092	-0.121
-640.668	385.582	0.098	-0.204
-639.653	-17.559	-0.258	0.164
-638.638	-98.648	-0.209	-0.054
-637.624	-185.134	0.106	-0.002
-636.609	112.156	-0.200	0.244
-635.595	-55.192	0.215	-0.098
-634.580	560.575	-0.067	0.163
-633.565	-200.000	0.011	-0.066
-632.551	-200.000	-0.017	-0.102
-631.536	-111.065	-0.227	-0.047
-630.522	103.343	0.247	-0.292
-629.507	292.822	-0.046	0.084
-628.492	38.241	0.131	0.118
-627.478	108.682	-0.101	-0.122
-626.463	-200.000	-0.020	0.169
-625.449	-28.073	0.302	-0.176
-624.434	55.347	0.379	-0.370
-623.419	-76.381	0.140	-0.050
-622.405	85.142	0.142	0.157
-621.390	-200.000	-0.039	-0.295
-620.376	543.585	-0.053	0.127
-619.361	65.731	0.156	0.159
-618.346	-47.633	-0.378	-0.185
-617.332	29.670	-0.196	-0.168
-616.317	418.552	-0.142	-0.306
-615.303	-114.312	-0.419	0.081
-614.288	-200.000	0.046	0.228
-613.273	-200.000	-0.686	-0.000
-612.259	800.000	-0.049	0.140
-611.244	-147.125	-0.381	-0.033
-610.230	-143.587	0.197	-0.019
-609.215	-200.000	-0.003	0.126
-608.201	669.104	-0.069	0.181
-607.186	31.601	0.253	-0.220
-606.171	-42.021	0.245	-0.127
-605.157	-200.000	0.043	-0.238
-604.142	-36.045	-0.037	-0.020
-603.128	-83.100	-0.309	0.100
-602.113	-179.544	0.214	-0.005
-601.098	22.484	0.170	0.140
-600.084	-14.118	-0.019	0.012
-599.069	68.810	0.029	-0.030
-598.055	-173.376	-0.033	-0.001
-597.040	71.726	0.062	-0.065
-596.025	-200.000	0.042	-0.198
-595.011	-95.579	-0.309	-0.083
-593.996	220.533	-0.105	0.170
-592.982	-40.474	0.063	0.033
-591.967	585.410	0.081	-0.200
-590.952	-65.709	0.206	0.083
-589.938	571.188	-0.198	0.486
-588.923	800.000	0.026	0.104
-587.909	132.857	0.136	0.177
-586.894	-83.164	0.258	-0.083
-585.879	-14.217	-0.184	0.120
-584.865	-72.389	0.055	0.020
-583.850	227.122	0.156	0.255
-582.836	-61.415	0.012	-0.005
-581.821	-146.840	-0.315	0.027
-580.806	-200.000	-0.009	0.517
-579.792	137.415	-0.124	-0.164
-578.777	321.087	-0.202	0.386
-577.763	449.843	-0.098	-0.219
-576.748	-3.912	-0.207	0.145
-575.733	-153.551	-0.175	0.012
-574.719	152.412	0.217	0.298
-573.704	-200.000	-0.032	-0.183
-572.690	5.360	0.330	0.245
-571.675	-107.399	-0.216	0.048
-570.661	185.252	0.132	-0.198
-569.646	113.097	0.035	0.043
-568.631	-29.870	0.403	0.231
-567.617	162.021	0.177	0.249
-566.602	460.566	0.050	-0.113
-565.588	132.242	-0.265	-0.343
-564.573	-106.336	0.328	0.074
-563.558	323.658	-0.119	-0.229
-562.544	-9.223	-0.170	0.115
-561.529	-38.680	-0.338	0.180
-560.515	-200.000	0.017	0.080
-559.500	800.000	0.051	0.208
-558.485	231.233	-0.025	0.041
-557.471	-79.478	-0.229	-0.078
-556.456	-200.000	-0.017	0.159
-555.442	800.000	-0.068	-0.292
-554.427	-56.959	-0.117	-0.052
-553.412	365.403	-0.041	0.083
-552.398	43.010	0.143	-0.131
-551.383	307.900	-0.134	0.251
-550.369	-105.297	-0.144	-0.033
-549.354	-25.173	0.342	-0.204
-548.339	431.942	-0.065	-0.142
-547.325	-45.217	-0.082	-0.041
-546.310	7.336	0.064	0.048
-545.296	-200.000	-0.004	-0.172
-544.281	-128.632	0.406	0.058
-543.266	39.559	-0.270	0.244
-542.252	-200.000	0.015	-0.146
-541.237	-56.684	-0.124	0.055
-540.223	-48.330	-0.306	0.148
-539.208	-200.000	-0.006	0.099
-538.193	-36.903	-0.236	0.127
-537.179	-138.923	-0.285	-0.031
-536.164	335.391	-0.053	0.104
-535.150	85.447	0.101	0.112
-534.135	196.177	-0.081	-0.124
-533.121	464.617	0.064	0.144
-532.106	-114.174	-0.315	-0.061
-531.091	-42.966	-0.122	-0.062
-530.077	-200.000	0.091	0.519
-529.062	-200.000	0.000	-0.108
-528.048	65.459	0.092	-0.094
-527.033	-77.683	-0.258	-0.090
-526.018	-3.852	-0.233	-0.163
-525.004	703.875	-0.070	-0.186
-523.989	741.487	-0.060	0.161
-522.975	-72.664	0.144	0.053
-521.960	4.149	-0.081	0.059
-520.945	-91.827	0.215	-0.061
-519.931	-80.407	0.170	-0.057
-518.916	189.806	-0.200	0.302
-517.902	-31.746	-0.262	-0.148
-516.887	-200.000	0.318	0.000
-515.872	13.771	0.150	-0.117
-514.858	168.579	0.182	0.261
-513.843	-167.805	0.199	-0.008
-512.829	-76.921	-0.102	-0.036
-511.814	27.641	-0.118	0.100
-510.799	800.000	-0.066	0.238
-509.785	-200.000	-0.057	0.363
-508.770	800.000	0.020	-0.084
-507.756	45.220	-0.082	0.076
-506.741	-114.902	0.116	0.022
-505.726	-200.000	0.013	-0.148
-504.712	800.000	0.108	-0.302
-503.697	-139.001	0.133	0.014
-502.683	101.055	-0.102	-0.119
-501.668	800.000	0.081	0.302
-500.653	-200.000	-0.012	0.179
-499.639	-106.059	-0.372	0.084
-498.624	194.774	0.089	0.136
-497.610	416.337	-0.119	0.255
-496.595	-15.369	0.144	0.092
-495.581	-200.000	-0.030	0.211
-494.566	-144.476	-0.411	-0.038
-493.551	37.804	0.082	-0.074
-492.537	211.496	0.133	-0.210
-491.522	-182.754	-0.194	0.004
-490.508	5.083	0.275	0.204
-489.493	-200.000	0.020	0.157
-488.478	-200.000	0.011	0.065
-487.464	-39.056	0.154	-0.081
-486.449	106.523	0.218	0.259
-485.435	-96.157	0.157	0.042
-484.420	-183.331	0.306	0.005
-483.405	160.453	-0.138	0.194
-482.391	207.808	0.021	-0.033
-481.376	175.481	-0.081	-0.118
-480.362	218.171	-0.073	-0.117
-479.347	-60.061	-0.162	-0.069
-478.332	-200.000	0.000	0.041
-477.318	800.000	-0.069	-0.192
-476.303	-30.018	-0.182	0.104
-475.289	116.591	-0.074	0.091
-474.274	-22.766	0.123	-0.075
-473.259	-89.014	0.139	0.041
-472.245	93.005	-0.152	-0.173
-471.230	-148.711	-0.322	-0.026
-470.216	-65.393	0.143	-0.058
-469.201	-99.798	0.203	-0.051
-468.186	17.895	-0.245	-0.195
-467.172	122.694	-0.084	-0.105
-466.157	-200.000	-0.055	-0.244
-465.143	-200.000	-0.002	0.058
-464.128	-200.000	-0.046	0.246
-463.113	60.578	0.340	0.338
-462.099	-200.000	0.003	-0.136
-461.084	-28.301	-0.175	0.101
-460.070	-45.221	0.093	-0.046
-459.055	90.250	0.229	-0.256
-458.040	58.123	0.271	0.267
-457.026	46.086	-0.082	0.076
-456.011	-144.674	-0.304	0.028
-454.997	10.848	0.093	0.071
-453.982	-41.958	0.196	0.100
-452.968	333.965	-0.035	0.067
-451.953	-107.119	-0.260	-0.057
-450.938	76.410	-0.220	-0.234
-449.924	11.708	-0.082	-0.063
-448.909	-113.973	-0.153	-0.030
-447.895	359.709	0.137	0.275
-446.880	444.506	0.104	0.229
-445.865	-134.902	0.351	0.043
-444.851	800.000	-0.108	-0.316
-443.836	-109.297	0.348	-0.074
-442.822	19.124	-0.128	0.103
-441.807	31.375	0.212	0.183
-440.792	-36.040	-0.260	-0.141
-439.778	-14.483	-0.259	0.167
-438.763	-147.801	-0.207	0.017
-437.749	297.420	-0.061	0.113
-436.734	-18.800	0.355	-0.221
-435.719	-125.851	0.184	0.028
-434.705	-137.639	-0.020	-0.002
-433.690	-200.000	-0.005	0.243
-432.676	31.010	-0.054	0.047
-431.661	-200.000	-0.011	0.280
-430.646	-142.194	0.186	-0.018
-429.632	-200.000	-0.017	-0.140
-428.617	-139.628	-0.130	0.014
-427.603	-200.000	-0.028	-0.215
-426.588	-200.000	-0.009	0.102
-425.573	8.979	0.218	0.164
-424.559	161.055	-0.094	0.132
-423.544	-58.991	-0.174	-0.075
-422.530	398.784	-0.042	-0.089
-421.515	389.727	0.060	0.124
-420.500	-91.922	0.095	0.027
-419.486	-200.000	-0.002	0.233
-418.471	800.000	0.167	-0.493
-417.457	-11.020	-0.216	0.143
-416.442	38.043	-0.213	0.189
-415.428	800.000	-0.052	-0.214
-414.413	800.000	0.119	-0.372
-413.398	-54.810	0.245	-0.111
-412.384	-31.581	0.096	-0.054
-411.369	40.392	-0.050	0.045
-410.355	60.439	0.308	0.305
-409.340	280.672	0.078	0.140
-408.325	-36.710	-0.241	-0.130
-407.311	-91.662	0.303	0.086
-406.296	800.000	0.059	-0.164
-405.282	534.933	-0.150	-0.356
-404.267	800.000	0.067	-0.185
-403.252	-49.756	0.366	-0.174
-402.238	-47.113	0.165	-0.081
-401.223	-0.788	0.148	0.105
-400.209	-47.324	0.096	0.047
-399.194	150.506	-0.048	0.065
-398.179	15.207	-0.174	0.136
-397.165	-156.157	-0.149	0.009
-396.150	-121.564	0.446	0.074
-395.136	54.469	-0.149	0.143
-394.121	30.690	-0.082	0.070
-393.106	-85.190	0.391	-0.122
-392.092	-200.000	0.025	-0.270
-391.077	-200.000	0.003	-0.198
-390.063	-89.520	0.265	0.078
-389.048	-84.214	-0.404	-0.128
-388.033	-200.000	-0.012	-0.220
-387.019	800.000	-0.046	-0.131
-386.004	-200.000	0.009	-0.077
-384.990	-36.019	-0.237	-0.128
-383.975	-200.000	0.003	-0.128
-382.960	59.846	0.133	0.132
-381.946	74.537	0.149	0.157
-380.931	-200.000	-0.020	-0.331
-379.917	-26.355	-0.168	0.099
-378.902	-91.309	0.164	0.047
-377.888	-200.000	0.329	0.001
-376.873	15.675	-0.426	-0.335
-375.858	310.336	-0.189	0.353
-374.844	800.000	0.038	0.134
-373.829	105.926	0.055	-0.065
-372.815	-35.776	-0.145	0.078
-371.800	800.000	0.060	0.188
-370.785	-174.013	0.092	0.003
-369.771	-140.723	-0.391	-0.040
-368.756	387.367	0.128	0.264
-367.742	-200.000	-0.011	-0.081
-366.727	290.646	0.243	-0.441
-365.712	800.000	0.164	-0.475
-364.698	-200.000	0.002	-0.048
-363.683	-18.165	0.167	0.104
-362.669	-62.437	-0.111	0.046
-361.654	-200.000	-0.054	-0.373
-360.639	679.207	-0.050	0.131
-359.625	172.006	-0.251	0.360
-358.610	21.073	-0.263	-0.213
-357.596	-89.355	0.286	-0.084
-356.581	185.379	0.125	0.186
-355.566	800.000	0.032	-0.122
-354.552	86.030	-0.184	-0.203
-353.537	475.361	-0.114	0.257
-352.523	415.239	0.165	0.352
-351.508	800.000	0.106	0.317
-350.493	81.861	0.150	-0.162
-349.479	-95.393	0.315	-0.084
-348.464	482.500	0.102	-0.232
-347.450	-200.000	0.014	0.270
-346.435	-81.700	-0.356	-0.117
-345.420	800.000	0.045	-0.134
-344.406	142.244	0.146	-0.193
-343.391	5.057	-0.146	0.107
-342.377	488.511	0.074	-0.169
-341.362	-54.005	0.118	0.054
-340.348	-12.032	0.075	-0.049
-339.333	248.036	0.103	0.173
-338.318	97.357	0.346	-0.396
-337.304	-200.000	0.034	0.357
-336.289	-122.948	-0.451	-0.072
-335.275	-66.054	-0.241	-0.096
-334.260	-200.000	-0.081	-0.449
-333.245	-200.000	-0.012	-0.151
-332.231	120.330	-0.100	0.124
-331.216	-17.547	-0.090	0.056
-330.202	-141.333	-0.174	0.018
-329.187	-145.959	0.144	0.013
-328.172	-37.575	-0.179	0.095
-327.158	-62.534	-0.225	0.093
-326.143	17.446	-0.128	-0.101
-325.129	-112.056	0.204	0.041
-324.114	-126.433	0.146	-0.022
-323.099	569.749	0.124	-0.300
-322.085	-158.156	-0.152	-0.009
-321.070	-200.000	-0.003	-0.085
-320.056	184.051	0.370	-0.545
-319.041	800.000	0.121	-0.489
-318.026	272.163	0.136	-0.239
-317.012	446.063	-0.106	0.233
-315.997	-200.000	0.016	0.271
-314.983	-200.000	-0.048	-0.413
-313.968	193.484	-0.027	-0.040
-312.953	-96.052	-0.176	-0.047
-311.939	-136.164	-0.320	-0.037
-310.924	128.575	-0.228	0.290
-309.910	170.320	0.042	-0.060
-308.895	-45.064	-0.369	0.183
-307.880	-127.473	0.103	0.015
-306.866	-200.000	0.038	0.315
-305.851	-38.785	0.138	0.072
-304.837	-105.431	0.281	0.064
-303.822	-86.518	0.164	-0.050
-302.807	81.584	0.070	-0.075
-301.793	-200.000	-0.000	0.114
-300.778	-200.000	-0.009	-0.330
-299.764	-61.746	-0.226	-0.095
-298.749	136.226	-0.223	-0.290
-297.735	-11.751	0.095	0.062
-296.720	312.512	-0.165	0.309
-295.705	-99.507	0.129	0.032
-294.691	179.972	-0.120	-0.175
-293.676	279.528	-0.043	-0.077
-292.662	-110.093	-0.133	0.028
-291.647	-98.558	-0.304	0.077
-290.632	158.153	-0.223	-0.308
-289.618	6.432	-0.095	0.071
-288.603	800.000	0.059	0.179
-287.589	514.683	0.032	0.074
-286.574	201.553	0.241	0.369
-285.559	84.435	0.043	0.047
-284.545	-200.000	-0.010	-0.166
-283.530	-200.000	-0.058	-0.310
-282.516	-8.007	0.277	-0.186
-281.501	-78.929	0.259	-0.088
-280.486	-200.000	-0.012	-0.167
-279.472	60.922	-0.281	0.278
-278.457	-68.436	0.170	-0.066
-277.443	-12.654	-0.057	-0.037
-276.428	-85.330	-0.251	-0.078
-275.413	-180.450	0.368	0.008
-274.399	569.018	0.094	0.226
-273.384	132.997	-0.080	0.102
-272.370	273.481	0.132	0.233
-271.355	-150.983	0.098	-0.007
-270.340	64.265	-0.066	-0.066
-269.326	-34.158	0.296	-0.162
-268.311	-200.000	0.033	-0.171
-267.297	117.436	-0.057	0.070
-266.282	-64.740	0.210	0.084
-265.267	-146.673	-0.141	0.012
-264.253	-103.933	-0.348	0.081
-263.238	99.569	-0.072	0.083
-262.224	-200.000	-0.002	-0.092
-261.209	63.993	0.067	0.067
-260.195	-45.323	-0.046	0.023
-259.180	-200.000	0.013	0.327
-258.165	40.122	0.132	-0.118
-257.151	-100.923	-0.026	0.006
-256.136	-21.551	0.155	0.094
-255.122	-200.000	0.033	-0.200
-254.107	61.222	-0.082	0.081
-253.092	-93.506	0.252	0.069
-252.078	274.303	-0.084	-0.149
-251.063	800.000	-0.029	-0.103
-250.049	178.805	-0.175	-0.255
-249.034	255.004	0.111	0.188
-248.019	-108.514	-0.150	0.032
-247.005	253.848	0.050	-0.086
-245.990	80.360	-0.214	0.229
-244.976	-31.376	-0.205	0.115
-243.961	185.819	0.128	-0.189
-242.946	40.923	-0.092	0.082
-241.932	-200.000	0.006	-0.307
-240.917	-87.220	0.341	-0.103
-239.903	800.000	-0.044	0.131
-238.888	794.639	0.040	0.111
-237.873	360.095	0.031	0.062
-236.859	-200.000	-0.019	0.126
-235.844	219.382	-0.099	0.158
-234.830	189.537	0.035	0.052
-233.815	38.547	-0.136	-0.120
-232.800	148.105	0.200	-0.268
-231.786	-45.446	0.394	-0.194
-230.771	70.736	-0.258	0.266
-229.757	-47.246	0.310	-0.150
-228.742	-76.032	0.301	0.106
-227.727	-64.495	-0.227	-0.092
-226.713	-129.552	-0.153	-0.021
-225.698	-89.246	0.151	0.044
-224.684	-60.233	0.401	0.170
-223.669	275.716	0.046	0.082
-222.655	162.240	-0.202	-0.281
-221.640	-133.255	0.273	0.034
-220.625	-91.533	-0.351	0.099
-219.611	-151.707	0.210	0.015
-218.596	232.090	-0.056	-0.091
-217.582	-70.635	0.228	0.085
-216.567	-7.880	0.120	0.081
-215.552	-126.058	-0.324	-0.048
-214.538	-200.000	-0.001	0.127
-213.523	800.000	0.068	-0.192
-212.509	-82.604	0.224	0.072
-211.494	-87.653	-0.159	0.048
-210.479	800.000	-0.040	0.160
-209.465	19.022	0.171	-0.136
-208.450	-41.487	0.265	0.136
-207.436	446.096	-0.088	-0.193
-206.421	-200.000	0.004	0.095
-205.406	276.379	0.145	-0.256
-204.392	-122.810	0.249	-0.040
-203.377	-200.000	-0.007	-0.086
-202.363	364.558	0.099	0.198
-201.348	800.000	-0.009	0.036
-200.333	-200.000	-0.015	-0.518
-199.319	800.000	-0.021	-0.072
-198.304	5.070	-0.242	0.177
-197.290	-143.626	-0.466	-0.044
-196.275	-110.423	-0.079	-0.016
-195.260	198.170	0.162	0.245
-194.246	-85.001	0.301	-0.094
-193.231	-200.000	0.087	0.398
-192.217	57.891	-0.082	-0.080
-191.202	-200.000	-0.007	-0.120
-190.187	42.281	-0.153	0.138
-189.173	380.578	0.212	-0.431
-188.158	-36.380	-0.113	-0.061
-187.144	-96.237	-0.053	-0.014
-186.129	-84.577	-0.172	-0.054
-185.114	126.153	0.157	0.197
-184.100	-146.891	0.132	0.011
-183.085	139.182	-0.220	0.287
-182.071	37.403	0.025	-0.022
-181.056	-200.000	-0.081	-0.445
-180.042	-64.486	-0.281	-0.113
-179.027	187.904	0.093	-0.138
-178.012	80.404	0.239	-0.255
-176.998	-40.062	-0.044	0.023
-175.983	-200.000	-0.001	0.098
-174.969	-200.000	-0.014	0.159
-173.954	29.319	-0.128	-0.108
-172.939	19.764	-0.234	-0.187
-171.925	297.127	-0.187	-0.340
-170.910	-63.787	0.076	-0.031
-169.896	-126.621	-0.223	-0.033
-168.881	-111.586	-0.042	-0.008
-167.866	357.938	0.034	0.067
-166.852	-150.627	0.287	0.022
-165.837	215.531	0.047	-0.074
-164.823	150.741	-0.123	0.165
-163.808	-15.304	-0.215	-0.136
-162.793	-89.913	0.062	-0.018
-161.779	-200.000	0.055	0.330
-160.764	-135.140	0.264	-0.031
-159.750	306.020	0.122	0.224
-158.735	-79.233	0.336	0.113
-157.720	44.235	0.345	0.314
-156.706	-41.837	-0.222	-0.113
-155.691	800.000	0.058	0.215
-154.677	-61.627	0.052	-0.022
-153.662	-40.560	0.257	-0.132
-152.647	-73.073	-0.102	-0.037
-151.633	27.320	-0.083	-0.069
-150.618	22.024	0.117	-0.095
-149.604	-180.466	0.095	0.002
-148.589	-200.000	0.016	-0.349
-147.574	172.980	0.063	0.089
-146.560	570.024	0.089	0.215
-145.545	800.000	0.042	-0.147
-144.531	-70.150	0.129	0.049
-143.516	-200.000	0.042	-0.246
-142.502	-50.933	0.183	0.085
-141.487	-200.000	-0.013	0.105
-140.472	-112.812	-0.330	0.065
-139.458	-200.000	0.000	0.174
-138.443	-200.000	0.020	0.247
-137.429	293.462	-0.063	0.113
-136.414	-127.348	-0.237	0.034
-135.399	227.332	0.124	-0.199
-134.385	34.044	-0.448	0.387
-133.370	-200.000	-0.038	-0.190
-132.356	-27.106	0.228	0.131
-131.341	-9.556	-0.253	0.167
-130.326	-149.463	-0.088	0.007
-129.312	126.827	0.080	-0.101
-128.297	-200.000	0.031	-0.364
-127.283	-114.427	-0.334	-0.064
-126.268	135.601	0.351	-0.452
-125.253	188.924	-0.190	-0.281
-124.239	183.374	0.037	-0.054
-123.224	15.164	-0.371	0.288
-122.210	-96.639	0.364	-0.095
-121.195	-36.380	-0.242	-0.129
-120.180	-93.807	0.220	0.060
-119.166	-200.000	-0.038	-0.303
-118.151	-200.000	0.024	0.239
-117.137	147.510	-0.127	0.169
-116.122	-200.000	-0.060	0.371
-115.107	436.859	-0.043	0.092
-114.093	385.399	-0.156	0.318
-113.078	-82.177	0.308	0.099
-112.064	800.000	0.059	-0.163
-111.049	-200.000	-0.011	-0.322
-110.034	800.000	-0.014	0.050
-109.020	800.000	0.102	-0.368
-108.005	245.860	-0.186	0.310
-106.991	-121.405	-0.221	-0.036
-105.976	-200.000	0.004	0.092
-104.962	62.574	0.221	0.218
-103.947	-5.351	0.182	-0.124
-102.932	180.100	0.178	-0.258
-101.918	260.777	-0.249	-0.426
-100.903	57.461	0.330	0.319
-99.889	103.450	0.171	0.198
-98.874	-70.231	0.082	-0.031
-97.859	-134.991	0.034	-0.004
-96.845	-118.032	-0.100	-0.018
-95.830	-200.000	-0.402	0.001
-94.816	800.000	-0.058	0.169
-93.801	800.000	0.096	-0.388
-92.786	800.000	0.006	0.024
-91.772	-177.207	0.472	-0.012
-90.757	-40.114	-0.053	0.027
-89.743	85.399	0.260	-0.282
-88.728	-70.951	0.247	0.092
-87.713	69.432	0.133	0.135
-86.699	11.612	0.322	-0.244
-85.684	110.333	-0.046	-0.054
-84.670	45.081	0.169	-0.154
-83.655	-200.000	-0.005	0.189
-82.640	92.861	-0.226	0.252
-81.626	-200.000	-0.018	0.108
-80.611	-200.000	0.003	0.040
-79.597	-23.923	-0.219	-0.130
-78.582	-33.105	-0.203	0.111
-77.567	-121.940	-0.329	-0.054
-76.553	-49.683	0.185	0.087
-75.538	-71.764	0.178	-0.065
-74.524	-27.055	-0.340	-0.196
-73.509	-77.070	-0.381	-0.131
-72.494	658.068	0.044	-0.111
-71.480	-105.040	-0.435	0.098
-70.465	65.907	0.362	-0.362
-69.451	519.422	0.120	0.277
-68.436	229.038	-0.123	-0.198
-67.422	150.127	-0.197	-0.264
-66.407	-27.378	0.147	0.084
-65.392	15.625	0.116	-0.090
-64.378	-25.485	0.140	-0.082
-63.363	262.031	-0.038	-0.066
-62.349	678.775	0.066	-0.169
-61.334	84.404	-1.125	-1.214
-60.319	43.140	0.489	0.441
-59.305	693.606	-0.374	-0.968
-58.290	87.002	0.643	0.701
-57.276	800.000	0.567	1.691
-56.261	-200.000	107.650	575.768
-55.246	408.194	1513.162	3157.988
-54.232	137.215	2729.001	3520.874
-53.217	92.951	2369.150	2640.753
-52.203	35.055	2113.753	1826.393
-51.188	30.595	2028.969	1712.111
-50.173	29.209	2012.601	1685.560
-49.159	44.563	2069.090	1875.830
-48.144	44.770	2085.622	1892.662
-47.130	31.222	2044.230	1730.532
-46.115	29.021	2033.750	1701.260
-45.100	28.858	2030.843	1697.265
-44.086	28.970	2027.223	1695.202
-43.071	28.836	2024.957	1692.005
-42.057	28.740	2023.496	1689.831
-41.042	28.805	2021.418	1688.624
-40.027	28.917	2019.712	1688.161
-39.013	28.921	2017.562	1686.341
-37.998	28.880	2015.269	1683.975
-36.984	28.929	2013.380	1682.783
-35.969	28.900	2011.667	1681.021
-34.954	28.878	2010.135	1679.469
-33.940	28.886	2008.525	1678.135
-32.925	29.036	2006.487	1677.728
-31.911	28.956	2004.769	1675.494
-30.896	28.986	2002.928	1674.161
-29.881	29.047	2001.240	1673.242
-28.867	29.042	1999.279	1671.495
-27.852	29.010	1998.881	1670.799
-26.838	29.080	1996.126	1669.068
-25.823	29.091	1994.312	1667.583
-24.809	28.960	1993.039	1665.266
-23.794	29.012	1991.155	1664.094
-22.779	28.995	1989.752	1662.704
-21.765	28.996	1987.882	1661.086
-20.750	28.899	1986.227	1658.760
-19.736	29.041	1984.479	1658.518
-18.721	29.063	1982.507	1657.002
-17.706	28.993	1981.203	1655.217
-16.692	28.977	1979.522	1653.604
-15.677	29.007	1977.604	1652.203
-14.663	29.020	1976.148	1651.039
-13.648	29.003	1974.863	1649.748
-12.633	29.020	1973.781	1648.931
-11.619	28.993	1972.281	1647.364
-10.604	28.998	1971.089	1646.351
-9.590	28.970	1970.111	1645.216
-8.575	29.026	1968.324	1644.158
-7.560	29.040	1966.810	1642.953
-6.546	28.989	1966.017	1641.773
-5.531	29.067	1964.267	1640.943
-4.517	29.066	1963.006	1639.811
-3.502	28.993	1962.021	1638.275
-2.487	29.018	1960.448	1637.121
-1.473	29.042	1959.796	1636.723
-0.458	29.114	1954.791	1633.116
0.556	27.538	1935.455	1607.925
1.571	23.697	1917.216	1558.983
2.586	19.887	1941.387	1544.559
3.600	18.882	1977.630	1564.117
4.615	18.483	1971.160	1555.239
5.629	14.301	1868.371	1437.973
6.644	5.666	1746.830	1274.324
7.659	0.859	1708.627	1208.030
8.673	0.452	1705.088	1202.184
9.688	0.470	1703.755	1201.279
10.702	0.337	1702.794	1199.436
11.717	0.261	1699.378	1196.319
12.731	0.862	1697.905	1199.941
13.746	6.817	1711.994	1257.303
14.761	14.487	1727.154	1329.707
15.775	17.010	1730.474	1352.279
16.790	16.920	1728.699	1350.053
17.804	15.979	1725.929	1340.291
18.819	14.984	1722.388	1329.518
19.834	14.389	1719.991	1322.830
20.848	14.112	1718.367	1319.267
21.863	13.861	1716.657	1315.846
22.877	13.577	1715.438	1312.549
23.892	13.392	1713.660	1309.603
24.907	13.199	1712.559	1307.124
25.921	13.260	1711.441	1306.634
26.936	13.171	1710.735	1305.276
27.950	13.186	1709.737	1304.518
28.965	13.317	1709.002	1304.877
29.980	13.308	1708.321	1304.170
30.994	13.328	1707.341	1303.464
32.009	13.442	1705.959	1303.189
33.023	13.458	1705.202	1302.621
34.038	13.447	1704.678	1302.022
35.053	13.524	1703.309	1301.469
36.067	13.414	1702.323	1299.731
37.082	13.398	1700.977	1298.462
38.096	13.380	1699.758	1297.281
39.111	13.369	1699.551	1296.922
40.126	13.455	1698.584	1296.739
41.140	13.402	1697.579	1295.446
42.155	13.309	1696.220	1293.567
43.169	13.207	1695.014	1291.737
44.184	13.236	1693.755	1290.883
45.199	13.265	1692.020	1289.672
46.213	13.255	1691.202	1288.862
47.228	13.175	1690.293	1287.434
48.242	13.303	1688.169	1286.693
49.257	13.319	1687.557	1286.236
50.271	13.315	1686.051	1284.949
51.286	13.351	1684.561	1283.975
52.301	13.265	1683.781	1282.603
53.315	13.340	1682.504	1282.097
54.330	13.325	1680.486	1280.331
55.344	13.286	1679.292	1279.005
56.359	13.278	1677.690	1277.609
57.374	13.248	1676.974	1276.722
58.388	13.305	1675.370	1275.828
59.403	13.266	1673.792	1274.214
60.417	13.277	1672.961	1273.547
61.432	13.145	1671.732	1271.487
62.447	13.256	1670.173	1271.043
63.461	13.139	1669.143	1269.243
64.476	13.123	1668.139	1268.244
65.490	13.137	1667.047	1267.411
66.505	13.091	1666.069	1266.202
67.520	13.226	1664.614	1266.022
68.534	13.192	1664.301	1265.409
69.549	13.255	1662.573	1264.468
70.563	13.266	1660.889	1263.160
71.578	13.274	1660.152	1262.548
72.593	13.183	1659.121	1260.952
73.607	13.143	1657.927	1259.629
74.622	13.120	1656.908	1258.570
75.636	13.101	1656.027	1257.642
76.651	13.065	1655.226	1256.650
77.666	13.178	1654.112	1256.554
78.680	13.106	1652.982	1255.036
79.695	13.079	1652.565	1254.403
80.709	13.148	1651.160	1253.749
81.724	13.178	1650.118	1253.076
82.739	13.213	1649.141	1252.487
83.753	13.212	1647.904	1251.428
84.768	13.221	1647.119	1250.795
85.782	13.294	1646.477	1250.749
86.797	13.340	1645.253	1250.052
87.812	13.330	1643.938	1248.864
88.826	13.278	1643.211	1247.811
89.841	13.266	1641.517	1246.321
90.855	13.230	1640.743	1245.359
91.870	13.306	1639.951	1245.216
92.884	13.352	1638.518	1244.364
93.899	13.353	1637.596	1243.565
94.914	13.417	1635.769	1242.548
95.928	13.356	1634.827	1241.263
96.943	13.389	1633.736	1240.572
97.957	13.428	1632.130	1239.533
98.972	13.397	1630.762	1238.151
99.987	13.368	1628.642	1236.216
101.001	13.358	1627.238	1234.967
102.016	13.218	1626.164	1233.000
103.030	13.270	1625.210	1232.552
104.045	13.372	1623.396	1231.829
105.060	13.380	1622.157	1230.840
106.074	13.392	1620.515	1229.571
107.089	13.314	1619.000	1227.740
108.103	13.204	1617.601	1225.748
109.118	13.209	1616.347	1224.728
110.133	13.253	1614.653	1223.664
111.147	13.234	1612.899	1222.085
112.162	13.240	1611.942	1221.296
113.176	13.299	1609.988	1220.141
114.191	13.227	1608.840	1218.636
115.206	13.349	1608.041	1218.817
116.220	13.323	1606.545	1217.388
117.235	13.241	1605.287	1215.721
118.249	13.216	1604.087	1214.522
119.264	13.288	1602.545	1213.779
120.279	13.318	1600.790	1212.558
121.293	13.300	1599.382	1211.253
122.308	13.309	1597.237	1209.592
123.322	13.252	1596.554	1208.546
124.337	13.177	1595.124	1206.810
125.352	13.251	1593.455	1205.978
126.366	13.255	1592.249	1204.989
127.381	13.264	1591.323	1204.248
128.395	13.231	1590.248	1203.088
129.410	13.278	1588.686	1202.143
130.424	13.196	1587.180	1200.302
131.439	13.232	1585.855	1199.451
132.454	13.205	1585.062	1198.551
133.468	13.322	1582.954	1197.700
134.483	13.361	1581.407	1196.708
135.497	13.413	1580.311	1196.147
136.512	13.402	1578.891	1194.889
137.527	13.356	1577.392	1193.314
138.541	13.321	1576.279	1192.115
139.556	13.422	1574.422	1191.331
140.570	13.324	1573.297	1189.671
141.585	13.465	1571.601	1189.298
142.600	13.460	1570.587	1188.389
143.614	13.509	1569.663	1187.936
144.629	13.498	1567.759	1186.306
145.643	13.552	1566.440	1185.594
146.658	13.645	1565.237	1185.242
147.673	13.605	1563.556	1183.577
148.687	13.523	1562.185	1181.853
149.702	13.528	1560.506	1180.512
150.716	13.465	1559.225	1178.991
151.731	13.418	1557.532	1177.270
152.746	13.431	1556.718	1176.641
153.760	13.443	1554.745	1175.132
154.775	13.487	1553.719	1174.568
155.789	13.574	1552.317	1174.019
156.804	13.599	1550.746	1172.901
157.819	13.517	1549.612	1171.360
158.833	13.546	1548.357	1170.514
159.848	13.676	1546.781	1170.139
160.862	13.640	1545.989	1169.182
161.877	13.561	1544.973	1167.753
162.892	13.673	1543.151	1167.063
163.906	13.551	1542.777	1165.818
164.921	13.577	1541.150	1164.666
165.935	13.509	1540.094	1163.287
166.950	13.601	1538.979	1162.985
167.964	13.688	1538.028	1162.773
168.979	13.702	1536.845	1161.880
169.994	13.617	1535.774	1160.367
171.008	13.626	1534.725	1159.534
172.023	13.626	1533.730	1158.686
173.037	13.701	1531.609	1157.505
174.052	13.752	1531.154	1157.414
175.067	13.812	1530.106	1156.937
176.081	13.706	1528.897	1155.178
177.096	13.715	1527.557	1154.131
178.110	13.795	1525.870	1153.310
179.125	13.676	1525.280	1151.936
180.140	13.726	1523.619	1150.921
181.154	13.750	1522.945	1150.481
182.169	13.723	1522.045	1149.507
183.183	13.762	1520.806	1148.745
184.198	13.839	1519.434	1148.141
185.213	13.848	1518.451	1147.359
186.227	13.887	1517.624	1146.899
187.242	13.923	1516.673	1146.327
188.256	13.905	1515.434	1145.165
189.271	13.873	1514.562	1144.186
190.286	13.873	1513.188	1143.047
191.300	13.970	1512.037	1142.742
192.315	13.830	1510.752	1140.704
193.329	13.805	1509.407	1139.422
194.344	13.805	1508.612	1138.717
195.359	13.831	1507.425	1137.900
196.373	13.804	1507.049	1137.329
197.388	13.921	1505.235	1136.663
198.402	13.988	1503.803	1135.936
199.417	14.073	1502.667	1135.557
200.432	13.976	1501.581	1133.973
201.446	14.052	1501.206	1134.110
202.461	14.150	1499.980	1133.751
203.475	14.137	1498.475	1132.427
204.490	14.194	1497.221	1131.763
205.504	14.074	1496.795	1130.528
206.519	14.063	1495.787	1129.592
207.534	14.145	1494.269	1128.902
208.548	14.134	1493.271	1127.975
209.563	14.194	1492.071	1127.375
210.577	14.118	1491.095	1126.022
211.592	14.154	1490.445	1125.675
212.607	14.200	1489.295	1125.019
213.621	14.206	1488.772	1124.565
214.636	14.281	1487.789	1124.232
215.650	14.297	1486.372	1123.166
216.665	14.288	1485.616	1122.434
217.680	14.253	1485.180	1121.773
218.694	14.278	1483.996	1120.943
219.709	14.410	1483.329	1121.229
220.723	14.375	1482.291	1120.111
221.738	14.450	1481.180	1119.677
222.753	14.283	1480.467	1117.914
223.767	14.393	1479.113	1117.534
224.782	14.347	1478.174	1116.417
225.796	14.372	1477.380	1115.889
226.811	14.376	1476.903	1115.453
227.826	14.434	1476.333	1115.311
228.840	14.507	1474.463	1114.287
229.855	14.521	1474.140	1114.040
230.869	14.443	1472.694	1112.326
231.884	14.520	1471.488	1111.830
232.899	14.416	1470.998	1110.669
233.913	14.492	1469.446	1109.904
234.928	14.426	1468.258	1108.473
235.942	14.506	1467.132	1108.054
236.957	14.300	1465.867	1105.635
237.972	14.369	1464.963	1105.312
238.986	14.499	1463.733	1105.149
240.001	14.501	1462.709	1104.288
241.015	14.486	1461.761	1103.379
242.030	14.569	1460.100	1102.575
243.045	14.440	1459.889	1101.465
244.059	14.572	1458.483	1101.176
245.074	14.665	1457.791	1101.171
246.088	14.673	1457.078	1100.591
247.103	14.671	1456.108	1099.746
248.117	14.672	1455.579	1099.257
249.132	14.730	1454.707	1098.878
250.147	14.676	1453.933	1097.841
251.161	14.739	1453.345	1097.718
252.176	14.827	1452.304	1097.412
253.190	14.926	1451.263	1097.179
254.205	14.921	1450.527	1096.491
255.220	14.938	1449.908	1096.035
256.234	14.934	1449.261	1095.425
257.249	14.885	1448.512	1094.438
258.263	14.956	1447.373	1093.946
259.278	15.009	1446.146	1093.269
260.293	14.935	1445.443	1092.158
261.307	15.019	1444.730	1092.073
262.322	15.115	1443.973	1092.026
263.336	15.020	1443.264	1090.777
264.351	15.005	1442.139	1089.729
265.366	15.062	1440.872	1089.048
266.380	15.184	1439.864	1088.981
267.395	15.151	1439.273	1088.229
268.409	15.173	1438.410	1087.622
269.424	15.188	1437.130	1086.653
270.439	15.077	1436.752	1085.555
271.453	15.136	1435.508	1084.901
272.468	15.110	1434.474	1083.856
273.482	15.171	1433.606	1083.497
274.497	15.132	1432.930	1082.637
275.512	15.075	1432.296	1081.692
276.526	15.171	1431.338	1081.492
277.541	15.223	1429.980	1080.707
278.555	15.232	1429.111	1080.012
279.570	15.234	1428.330	1079.340
280.585	15.242	1427.451	1078.635
281.599	15.337	1426.401	1078.356
282.614	15.347	1425.152	1077.381
283.628	15.268	1424.613	1076.368
284.643	15.298	1423.493	1075.618
285.657	15.290	1422.222	1074.514
286.672	15.385	1421.539	1074.512
287.687	15.352	1420.792	1073.637
288.701	15.393	1419.159	1072.570
289.716	15.423	1418.757	1072.368
290.730	15.438	1418.237	1071.972
291.745	15.461	1416.696	1070.859
292.760	15.457	1416.037	1070.244
293.774	15.482	1414.522	1069.163
294.789	15.462	1414.218	1068.708
295.803	15.556	1412.931	1068.239
296.818	15.567	1412.044	1067.548
297.833	15.535	1411.000	1066.455
298.847	15.472	1410.447	1065.549
299.862	15.538	1409.240	1064.958
300.876	15.568	1408.107	1064.198
301.891	15.540	1406.960	1063.059
302.906	15.561	1406.640	1062.859
303.920	15.590	1406.046	1062.495
304.935	15.600	1405.018	1061.691
305.949	15.756	1403.947	1061.769
306.964	15.704	1403.475	1060.992
307.979	15.810	1402.629	1060.926
308.993	15.730	1401.350	1059.362
310.008	15.782	1400.493	1058.946
311.022	15.771	1399.117	1057.744
312.037	15.798	1398.326	1057.222
313.052	15.806	1397.595	1056.625
314.066	15.682	1396.722	1055.092
315.081	15.777	1395.402	1054.600
316.095	15.677	1394.222	1052.986
317.110	15.670	1393.430	1052.256
318.125	15.723	1392.741	1051.973
319.139	15.780	1391.652	1051.413
320.154	15.792	1390.952	1050.865
321.168	15.756	1389.878	1049.735
322.183	15.797	1388.644	1048.967
323.197	15.913	1387.268	1048.557
324.212	15.935	1386.771	1048.225
325.227	15.938	1385.331	1047.063
326.241	15.882	1384.878	1046.279
327.256	15.974	1383.541	1045.746
328.270	15.896	1383.324	1045.010
329.285	15.914	1382.255	1044.220
330.300	15.950	1381.251	1043.591
331.314	15.979	1380.610	1043.194
332.329	15.900	1379.758	1041.969
333.343	15.929	1378.636	1041.212
334.358	15.908	1377.837	1040.385
335.373	15.937	1377.448	1040.177
336.387	16.072	1376.141	1039.929
337.402	16.007	1375.540	1038.985
338.416	16.044	1374.631	1038.433
339.431	16.168	1374.188	1038.772
340.446	16.039	1373.490	1037.359
341.460	16.171	1372.218	1037.116
342.475	16.197	1371.051	1036.305
343.489	16.094	1370.722	1035.332
344.504	16.197	1369.398	1034.871
345.519	16.194	1368.665	1034.208
346.533	16.227	1367.990	1033.808
347.548	16.312	1366.632	1033.207
348.562	16.410	1365.511	1032.869
349.577	16.364	1364.982	1032.096
350.592	16.413	1364.268	1031.762
351.606	16.276	1363.598	1030.332
352.621	16.272	1362.667	1029.512
353.635	16.236	1361.350	1028.207
354.650	16.278	1360.404	1027.656
355.665	16.358	1359.342	1027.247
356.679	16.322	1358.550	1026.339
357.694	16.335	1357.201	1025.310
358.708	16.309	1356.518	1024.543
359.723	16.304	1355.424	1023.599
360.738	16.435	1354.095	1023.301
361.752	16.448	1353.148	1022.569
362.767	16.440	1351.865	1021.461
363.781	16.439	1350.894	1020.633
364.796	16.417	1350.454	1020.078
365.810	16.513	1349.678	1019.977
366.825	16.557	1348.739	1019.441
367.840	16.602	1347.858	1018.958
368.854	16.602	1347.321	1018.460
369.869	16.543	1347.084	1017.837
370.883	16.600	1346.490	1017.643
371.898	16.610	1345.574	1016.920
372.913	16.654	1344.833	1016.532
373.927	16.593	1343.677	1015.202
374.942	16.714	1342.901	1015.257
375.956	16.719	1342.005	1014.518
376.971	16.803	1341.275	1014.379
377.986	16.768	1340.449	1013.454
379.000	16.713	1340.048	1012.730
380.015	16.775	1338.711	1012.005
381.029	16.804	1337.868	1011.447
382.044	16.751	1337.239	1010.568
383.059	16.856	1336.693	1010.695
384.073	16.868	1335.881	1010.062
385.088	16.939	1335.151	1009.839
386.102	16.859	1334.570	1008.836
387.117	16.870	1333.968	1008.355
388.132	16.929	1332.725	1007.679
389.146	16.858	1331.685	1006.386
390.161	16.900	1331.093	1006.093
391.175	16.911	1330.369	1005.524
392.190	16.849	1330.085	1004.853
393.205	16.918	1329.009	1004.358
394.219	16.993	1327.535	1003.600
395.234	17.046	1326.088	1002.731
396.248	17.105	1325.062	1002.215
397.263	16.898	1323.764	999.927
398.278	16.961	1322.517	999.267
399.292	17.001	1321.304	998.496
400.307	16.934	1320.609	997.485
401.321	16.978	1319.078	996.502
402.336	17.018	1318.272	996.041
403.350	17.049	1317.424	995.493
404.365	17.057	1316.239	994.555
405.380	17.033	1315.612	993.851
406.394	16.995	1314.980	993.068
407.409	17.040	1313.978	992.484
408.423	17.115	1313.549	992.513
409.438	17.172	1312.652	992.077
410.453	17.212	1311.753	991.546
411.467	17.171	1311.154	990.762
412.482	17.238	1310.796	990.797
413.496	17.297	1309.784	990.287
414.511	17.294	1308.997	989.587
415.526	17.341	1308.184	989.159
416.540	17.328	1307.526	988.496
417.555	17.517	1306.199	988.504
418.569	17.486	1305.957	988.054
419.584	17.443	1305.777	987.582
420.599	17.403	1305.097	986.750
421.613	95.299	1357.972	1473.074
422.628	93.805	1365.632	1473.154
