DTS Sentinel unit serial number:	SN413079Multiplexer serial number:	ORYXHardware model number:	OX4-SRSoftware version number:	ORYX F/W v4.00 Oryx Data Collector v3.7.2.0data status	okinstallation	princeton_trtdifferential loss correction	single-endedforward channel	channel 4reverse channel	N/Adate	2019/09/17time	09:49:34forward acquisition time	60.00reverse acquisition time	0.00gamma	496.2192k internal	0.2312k external	0.2312temperature offset calibration	0.9975default loss term (dB/km)	0.3790temperature slope calibration	1.0000multiplexer offset coefficient	1.0000multiplexer slope coefficient	1.0000fibre end	0.00T internal ref (°C)	29.44T ext. ref 1 (°C)	0.15T ext. ref 2 (°C)	25.30length (m)	temperature (°C)	Stokes	anti-Stokes-747.200	-200.000	-0.038	0.280
-746.185	-58.808	-0.578	0.254
-745.171	-74.223	0.268	-0.098
-744.156	101.115	-0.292	0.345
-743.142	70.871	-0.186	-0.196
-742.127	-119.798	-0.287	0.050
-741.112	602.998	0.055	0.138
-740.098	232.953	-0.153	0.255
-739.083	-83.713	0.237	-0.077
-738.069	-44.192	-0.320	0.163
-737.054	-60.431	-0.235	0.101
-736.039	-162.499	-0.281	-0.014
-735.025	800.000	0.068	0.231
-734.010	-60.590	-0.285	-0.123
-732.996	352.239	-0.127	-0.255
-731.981	168.796	-0.248	-0.358
-730.966	126.043	0.076	-0.097
-729.952	-134.087	0.037	-0.005
-728.937	769.667	-0.038	-0.104
-727.923	-98.077	0.218	0.057
-726.908	-144.300	0.145	0.014
-725.894	144.952	-0.236	0.319
-724.879	-200.000	0.007	0.053
-723.864	800.000	0.072	-0.235
-722.850	-200.000	-0.031	0.157
-721.835	-200.000	-0.013	-0.082
-720.821	-41.884	-0.220	0.115
-719.806	800.000	-0.030	-0.104
-718.791	97.657	-0.080	-0.093
-717.777	-62.128	-0.383	-0.162
-716.762	234.120	-0.143	0.239
-715.748	-45.884	-0.220	-0.110
-714.733	-9.678	0.380	-0.257
-713.718	-14.747	-0.364	-0.237
-712.704	-90.670	0.199	0.058
-711.689	124.890	-0.158	-0.201
-710.675	800.000	0.053	-0.183
-709.660	96.460	-0.161	0.187
-708.645	-200.000	-0.012	0.085
-707.631	39.623	0.128	-0.117
-706.616	800.000	0.025	-0.097
-705.602	-184.137	-0.194	-0.003
-704.587	-87.415	0.109	0.033
-703.572	800.000	-0.037	-0.118
-702.558	231.254	0.076	-0.126
-701.543	768.017	0.091	0.252
-700.529	-106.198	-0.119	0.027
-699.514	252.025	0.152	0.262
-698.499	-200.000	-0.043	0.293
-697.485	545.811	-0.086	0.209
-696.470	-200.000	-0.024	0.161
-695.456	800.000	0.044	0.149
-694.441	800.000	-0.062	-0.251
-693.426	-114.676	0.236	0.046
-692.412	-89.858	-0.184	0.054
-691.397	-116.426	-0.249	0.047
-690.383	-103.370	-0.131	0.031
-689.368	-94.664	-0.027	0.008
-688.354	-200.000	0.051	0.328
-687.339	-200.000	0.026	0.287
-686.324	-200.000	0.022	0.265
-685.310	-200.000	-0.039	0.173
-684.295	-84.720	-0.120	0.038
-683.281	-200.000	-0.036	-0.254
-682.266	-89.438	-0.328	-0.098
-681.251	265.681	-0.091	0.161
-680.237	30.538	-0.055	0.048
-679.222	144.955	0.236	0.320
-678.208	153.341	-0.144	-0.199
-677.193	178.010	0.184	-0.271
-676.178	-200.000	-0.030	0.313
-675.164	-174.865	-0.161	0.005
-674.149	800.000	-0.108	-0.433
-673.135	800.000	0.060	0.201
-672.120	108.044	0.203	-0.245
-671.105	-103.789	0.142	-0.034
-670.091	-70.943	-0.570	-0.217
-669.076	262.738	-0.090	-0.158
-668.062	28.763	0.148	-0.127
-667.047	66.472	-0.063	-0.065
-666.032	727.342	0.183	0.494
-665.018	590.548	-0.034	0.084
-664.003	-64.038	-0.141	-0.058
-662.989	800.000	0.023	-0.066
-661.974	-28.045	-0.209	0.122
-660.959	17.432	-0.106	-0.085
-659.945	-200.000	-0.033	0.237
-658.930	299.983	-0.194	0.362
-657.916	800.000	-0.050	0.193
-656.901	10.786	0.112	-0.086
-655.886	331.551	-0.042	0.082
-654.872	-103.767	-0.319	0.076
-653.857	-46.887	-0.270	-0.133
-652.843	-5.575	-0.256	0.178
-651.828	-3.342	0.143	-0.101
-650.814	-110.053	-0.222	0.047
-649.799	800.000	-0.118	0.372
-648.784	-200.000	0.036	-0.179
-647.770	281.312	-0.023	0.042
-646.755	122.063	-0.111	-0.141
-645.741	-200.000	0.013	0.077
-644.726	-200.000	0.050	-0.280
-643.711	491.687	0.149	-0.345
-642.697	-200.000	-0.014	-0.273
-641.682	800.000	0.113	0.338
-640.668	800.000	0.071	-0.288
-639.653	-170.850	-0.139	0.005
-638.638	-0.372	0.198	-0.142
-637.624	-5.965	-0.132	0.092
-636.609	800.000	-0.021	-0.088
-635.595	-59.773	0.066	-0.029
-634.580	127.655	-0.152	0.195
-633.565	115.723	0.183	0.227
-632.551	-139.377	-0.165	0.018
-631.536	-60.053	0.402	-0.173
-630.522	120.561	0.044	0.055
-629.507	-200.000	-0.112	-0.541
-628.492	16.873	-0.101	-0.081
-627.478	800.000	-0.073	-0.239
-626.463	36.672	0.041	-0.037
-625.449	30.010	0.150	-0.129
-624.434	551.497	-0.008	-0.020
-623.419	800.000	-0.101	-0.397
-622.405	767.212	-0.013	-0.035
-621.390	-55.613	-0.408	-0.185
-620.376	-200.000	-0.005	-0.098
-619.361	-116.886	-0.286	-0.053
-618.346	56.298	-0.118	-0.115
-617.332	53.551	-0.127	0.123
-616.317	-14.678	0.049	-0.032
-615.303	-13.242	-0.528	0.346
-614.288	-91.353	-0.190	-0.055
-613.273	-200.000	-0.025	0.176
-612.259	100.379	-0.090	-0.105
-611.244	-200.000	0.002	0.279
-610.230	64.245	-0.117	0.119
-609.215	-48.492	-0.122	0.059
-608.201	-200.000	0.024	0.188
-607.186	734.132	-0.027	0.072
-606.171	-162.213	0.244	-0.012
-605.157	800.000	-0.040	-0.113
-604.142	694.816	-0.019	0.050
-603.128	58.765	-0.139	0.137
-602.113	800.000	0.048	0.194
-601.098	-100.244	-0.237	0.060
-600.084	-133.289	-0.185	-0.024
-599.069	-200.000	-0.029	-0.476
-598.055	-98.528	-0.377	-0.097
-597.040	-115.535	0.199	-0.038
-596.025	-29.572	-0.279	-0.161
-595.011	164.726	0.094	0.134
-593.996	106.448	0.060	0.072
-592.982	-1.540	-0.415	-0.295
-591.967	244.190	-0.134	0.226
-590.952	-200.000	0.012	0.373
-589.938	35.125	-0.165	0.146
-588.923	-160.255	-0.167	-0.009
-587.909	276.027	0.129	0.231
-586.894	-200.000	-0.010	-0.149
-585.879	-200.000	-0.021	0.169
-584.865	-85.388	-0.211	0.066
-583.850	800.000	-0.045	0.141
-582.836	800.000	0.080	-0.344
-581.821	-41.568	-0.097	-0.050
-580.806	239.112	-0.046	-0.078
-579.792	68.941	0.189	0.196
-578.777	17.137	-0.030	0.024
-577.763	-200.000	0.010	0.249
-576.748	-200.000	-0.090	0.475
-575.733	143.983	0.183	0.246
-574.719	41.820	0.211	0.193
-573.704	158.164	0.119	0.166
-572.690	-20.532	-0.070	-0.044
-571.675	152.290	0.065	-0.090
-570.661	-2.999	-0.533	-0.375
-569.646	-77.869	0.066	0.023
-568.631	267.274	-0.011	-0.019
-567.617	549.928	-0.044	0.107
-566.602	571.665	0.052	-0.127
-565.588	70.507	-0.186	0.194
-564.573	-200.000	-0.049	-0.455
-563.558	143.182	0.043	0.058
-562.544	-200.000	-0.011	-0.107
-561.529	64.990	-0.085	-0.086
-560.515	-200.000	0.009	-0.041
-559.500	60.350	0.202	-0.201
-558.485	64.408	-0.337	-0.342
-557.471	127.019	0.111	0.142
-556.456	-32.187	0.146	0.082
-555.442	-31.897	-0.059	0.033
-554.427	-126.378	-0.391	-0.059
-553.412	69.081	-0.037	0.039
-552.398	17.141	0.125	0.100
-551.383	-116.452	-0.107	0.020
-550.369	239.016	-0.085	0.142
-549.354	210.277	-0.163	0.258
-548.339	401.956	-0.102	0.216
-547.325	-38.070	-0.341	0.182
-546.310	-200.000	0.055	0.423
-545.296	-128.383	-0.263	-0.038
-544.281	27.667	0.172	0.146
-543.266	-200.000	0.048	0.317
-542.252	88.112	-0.102	0.113
-541.237	-102.975	-0.192	0.046
-540.223	-70.277	-0.314	-0.120
-539.208	-42.670	0.301	-0.154
-538.193	4.003	-0.179	0.132
-537.179	-42.442	-0.394	-0.202
-536.164	-82.196	-0.271	-0.089
-535.150	-130.512	0.250	-0.034
-534.135	108.995	-0.199	-0.239
-533.121	-145.639	-0.336	-0.030
-532.106	-21.856	0.241	-0.148
-531.091	591.343	0.242	-0.601
-530.077	800.000	0.107	-0.353
-529.062	800.000	-0.183	0.532
-528.048	6.237	-0.213	-0.159
-527.033	-200.000	-0.056	0.298
-526.018	800.000	-0.052	-0.227
-525.004	202.031	0.125	-0.193
-523.989	-27.896	0.330	-0.192
-522.975	800.000	-0.097	0.301
-521.960	94.890	0.087	0.099
-520.945	148.147	-0.066	-0.090
-519.931	-65.129	-0.232	0.094
-518.916	-39.161	-0.228	-0.120
-517.902	9.052	-0.160	0.122
-516.887	-200.000	-0.011	-0.174
-515.872	-129.380	-0.176	-0.025
-514.858	14.454	0.276	-0.216
-513.843	552.714	0.045	0.108
-512.829	-115.350	0.142	-0.027
-511.814	205.894	-0.275	-0.431
-510.799	215.058	-0.213	-0.340
-509.785	73.539	0.203	-0.214
-508.770	211.111	-0.091	0.144
-507.756	-200.000	0.019	-0.321
-506.741	206.087	0.118	0.185
-505.726	-114.711	-0.266	0.051
-504.712	3.718	-0.182	0.134
-503.697	278.375	0.124	-0.222
-502.683	344.401	0.086	-0.170
-501.668	259.308	-0.127	0.221
-500.653	-94.179	-0.017	-0.005
-499.639	-200.000	-0.005	0.314
-498.624	-49.768	0.180	0.086
-497.610	205.897	-0.082	-0.128
-496.595	705.908	-0.070	-0.186
-495.581	16.136	0.262	0.208
-494.566	-22.505	0.226	-0.138
-493.551	538.659	-0.077	0.184
-492.537	-168.333	-0.038	0.001
-491.522	360.542	0.146	0.294
-490.508	32.029	0.040	0.035
-489.493	153.044	-0.130	0.178
-488.478	-98.116	0.424	0.110
-487.464	464.231	0.084	-0.188
-486.449	-136.956	0.019	-0.002
-485.435	225.849	0.142	0.232
-484.420	27.284	-0.104	0.087
-483.405	800.000	0.056	0.165
-482.391	270.125	0.071	0.125
-481.376	-200.000	-0.007	0.296
-480.362	-126.347	-0.159	0.024
-479.347	169.817	0.070	0.101
-478.332	-200.000	0.086	-0.425
-477.318	182.561	0.108	-0.160
-476.303	-53.914	-0.240	0.110
-475.289	-35.860	0.260	-0.141
-474.274	800.000	-0.041	0.150
-473.259	573.068	-0.113	0.276
-472.245	-73.498	0.260	0.095
-471.230	-63.573	0.379	0.156
-470.216	23.112	0.158	-0.130
-469.201	-128.814	-0.452	-0.064
-468.186	210.873	0.054	-0.085
-467.172	72.295	0.309	-0.323
-466.157	-32.238	0.027	-0.015
-465.143	-71.233	-0.123	0.046
-464.128	800.000	0.035	0.126
-463.113	74.676	0.097	-0.102
-462.099	-79.469	-0.097	0.033
-461.084	323.601	-0.007	-0.014
-460.070	86.350	-0.194	-0.215
-459.055	688.946	-0.109	0.286
-458.040	800.000	-0.071	0.265
-457.026	111.601	0.056	0.068
-456.011	311.447	-0.222	0.417
-454.997	44.754	0.133	0.123
-453.982	-71.765	0.253	0.095
-452.968	800.000	0.065	0.269
-451.953	-79.208	0.160	0.054
-450.938	-200.000	-0.055	0.290
-449.924	54.051	-0.030	0.029
-448.909	605.273	-0.029	-0.073
-447.895	242.339	0.129	0.217
-446.880	96.328	-0.172	0.198
-445.865	800.000	0.073	-0.267
-444.851	159.837	0.045	0.064
-443.836	-4.473	0.105	0.073
-442.822	97.136	0.164	-0.189
-441.807	462.975	0.054	-0.121
-440.792	23.674	-0.086	0.071
-439.778	218.476	0.077	-0.124
-438.763	-200.000	0.058	-0.293
-437.749	616.703	-0.071	0.178
-436.734	800.000	0.031	0.101
-435.719	67.772	0.183	0.188
-434.705	-200.000	-0.120	0.529
-433.690	13.335	-0.054	-0.042
-432.676	-200.000	0.008	-0.115
-431.661	119.028	0.134	-0.166
-430.646	800.000	-0.016	0.066
-429.632	78.950	0.107	-0.115
-428.617	-200.000	0.002	-0.122
-427.603	-155.654	-0.249	0.016
-426.588	-200.000	0.004	0.271
-425.573	47.567	-0.243	-0.227
-424.559	-35.641	-0.129	-0.070
-423.544	-142.711	-0.123	-0.012
-422.530	-173.656	0.537	-0.016
-421.515	-200.000	-0.049	0.222
-420.500	-14.053	-0.471	0.305
-419.486	800.000	-0.009	-0.028
-418.471	800.000	0.087	0.243
-417.457	800.000	-0.099	0.375
-416.442	90.979	0.200	-0.224
-415.428	59.166	-0.117	-0.115
-414.413	377.672	-0.077	-0.157
-413.398	-39.621	-0.150	-0.079
-412.384	-200.000	0.032	-0.183
-411.369	-106.874	0.091	-0.020
-410.355	-120.786	0.100	0.017
-409.340	-10.457	-0.180	-0.119
-408.325	367.173	-0.208	0.420
-407.311	-200.000	0.015	-0.258
-406.296	19.553	-0.136	-0.109
-405.282	-9.504	-0.221	0.147
-404.267	-92.846	-0.228	-0.064
-403.252	17.271	-0.120	0.095
-402.238	6.635	0.192	-0.143
-401.223	155.723	0.120	0.166
-400.209	-86.381	-0.331	0.102
-399.194	800.000	0.008	0.022
-398.179	371.682	-0.073	-0.148
-397.165	117.107	0.164	0.201
-396.150	442.340	-0.022	0.047
-395.136	792.422	0.082	-0.225
-394.121	-200.000	0.022	0.225
-393.106	-150.675	-0.068	-0.005
-392.092	-91.658	0.144	0.041
-391.077	625.921	-0.058	0.147
-390.063	30.958	0.307	-0.263
-389.048	454.258	0.042	-0.092
-388.033	408.181	0.089	-0.188
-387.019	-73.369	-0.081	-0.030
-386.004	-200.000	-0.021	-0.098
-384.990	-31.383	-0.108	0.061
-383.975	5.582	0.149	-0.110
-382.960	-21.995	0.266	-0.162
-381.946	195.857	0.084	0.128
-380.931	337.184	-0.123	0.239
-379.917	-73.669	0.369	-0.134
-378.902	-200.000	-0.051	-0.279
-377.888	800.000	0.021	0.065
-376.873	68.674	0.027	0.028
-375.858	-102.027	0.561	0.135
-374.844	168.599	0.055	0.078
-373.829	800.000	-0.066	-0.216
-372.815	-101.721	0.056	0.014
-371.800	800.000	-0.036	0.128
-370.785	-117.229	0.068	0.012
-369.771	50.686	0.296	-0.280
-368.756	164.144	0.047	-0.066
-367.742	-78.643	0.504	0.172
-366.727	-199.612	0.349	-0.002
-365.712	-54.329	0.107	-0.049
-364.698	-200.000	0.015	0.133
-363.683	-18.140	-0.506	0.316
-362.669	-200.000	0.052	-0.313
-361.654	-76.978	0.164	-0.057
-360.639	47.104	-0.098	-0.091
-359.625	6.066	0.159	-0.117
-358.610	112.543	-0.274	0.331
-357.596	-78.308	-0.320	0.110
-356.581	569.575	-0.134	0.325
-355.566	800.000	0.085	0.361
-354.552	800.000	-0.117	-0.424
-353.537	-151.331	0.075	0.006
-352.523	32.840	0.150	0.130
-351.508	-138.520	-0.206	-0.023
-350.493	-138.953	0.160	-0.017
-349.479	144.877	0.045	-0.061
-348.464	-200.000	0.002	-0.245
-347.450	-98.254	0.216	-0.056
-346.435	114.026	0.155	-0.188
-345.420	362.277	-0.142	-0.284
-344.406	-118.528	0.388	0.069
-343.391	483.037	0.163	-0.370
-342.377	-76.121	0.086	0.030
-341.362	-47.049	0.333	0.162
-340.348	424.025	-0.067	0.144
-339.333	545.133	-0.130	0.310
-338.318	-10.108	-0.226	0.150
-337.304	44.588	0.098	-0.090
-336.289	-200.000	0.019	-0.294
-335.275	-200.000	-0.052	-0.258
-334.260	42.529	0.020	0.018
-333.245	315.195	0.076	0.143
-332.231	-105.702	0.043	-0.010
-331.216	237.195	0.060	-0.099
-330.202	-122.559	0.123	-0.020
-329.187	26.412	0.214	-0.179
-328.172	56.385	-0.111	0.108
-327.158	70.914	0.137	-0.142
-326.143	800.000	-0.083	-0.309
-325.129	800.000	0.023	-0.065
-324.114	251.699	-0.094	-0.160
-323.099	-65.872	-0.088	-0.035
-322.085	-6.517	-0.231	-0.157
-321.070	-120.741	0.140	-0.024
-320.056	1.432	-0.078	-0.056
-319.041	172.988	-0.018	0.025
-318.026	79.436	0.151	-0.162
-317.012	-46.856	-0.381	-0.186
-315.997	-151.140	-0.249	0.019
-314.983	-200.000	-0.033	0.247
-313.968	800.000	0.086	0.279
-312.953	-200.000	-0.007	-0.128
-311.939	-141.548	-0.165	0.017
-310.924	-25.564	-0.114	-0.067
-309.910	131.487	0.169	-0.217
-308.895	800.000	0.085	-0.331
-307.880	-63.641	0.119	0.049
-306.866	-190.961	-0.347	-0.004
-305.851	-151.560	0.170	0.013
-304.837	-139.061	0.137	0.015
-303.822	105.376	-0.108	-0.127
-302.807	-155.408	0.137	0.009
-301.793	-39.430	0.241	0.126
-300.778	283.007	-0.133	-0.237
-299.764	19.421	-0.072	0.058
-298.749	91.505	-0.162	0.182
-297.735	56.323	0.230	-0.223
-296.720	-6.087	0.133	0.091
-295.705	-200.000	0.024	-0.118
-294.691	214.091	0.106	-0.167
-293.676	793.897	-0.040	-0.109
-292.662	5.850	0.190	-0.140
-291.647	33.877	0.038	-0.033
-290.632	86.787	0.115	0.126
-289.618	46.223	-0.293	-0.271
-288.603	100.239	0.330	-0.382
-287.589	-70.039	-0.059	0.022
-286.574	-120.160	0.321	0.055
-285.559	-200.000	-0.038	0.240
-284.545	800.000	-0.070	-0.246
-283.530	-41.676	0.129	0.066
-282.516	367.793	-0.096	-0.194
-281.501	-155.629	0.352	-0.023
-280.486	773.140	0.123	0.333
-279.472	-200.000	0.025	0.202
-278.457	-111.762	0.195	-0.039
-277.443	-174.706	0.215	0.006
-276.428	1.716	0.112	0.080
-275.413	68.909	-0.038	0.039
-274.399	122.432	-0.154	0.192
-273.384	5.025	-0.222	-0.163
-272.370	-200.000	0.029	0.132
-271.355	-125.628	-0.200	-0.030
-270.340	800.000	-0.083	0.305
-269.326	150.698	0.109	-0.148
-268.311	-200.000	0.070	0.314
-267.297	-200.000	-0.042	0.342
-266.282	21.601	-0.203	0.165
-265.267	-18.708	0.199	0.123
-264.253	125.924	0.182	-0.228
-263.238	26.452	0.204	-0.170
-262.224	-200.000	-0.013	-0.182
-261.209	-200.000	0.044	0.409
-260.195	-87.594	-0.256	-0.077
-259.180	146.961	0.177	-0.237
-258.165	-86.788	-0.245	0.075
-257.151	135.830	0.094	0.122
-256.136	-200.000	0.018	0.200
-255.122	671.150	0.051	0.131
-254.107	-189.452	0.326	0.004
-253.092	-200.000	0.000	0.175
-252.078	800.000	0.022	-0.075
-251.063	411.430	0.119	0.252
-250.049	-20.179	-0.112	0.069
-249.034	640.792	0.110	-0.279
-248.019	171.650	0.241	0.345
-247.005	24.063	0.177	-0.145
-245.990	-128.865	-0.259	0.036
-244.976	654.696	-0.044	0.111
-243.961	-135.150	0.164	0.020
-242.946	-125.174	0.219	0.033
-241.932	181.588	-0.187	-0.273
-240.917	-168.563	0.403	-0.015
-239.903	179.295	-0.092	0.135
-238.888	480.321	0.206	-0.465
-237.873	800.000	0.053	-0.151
-236.859	17.388	0.143	-0.113
-235.844	38.492	0.256	0.227
-234.830	47.640	0.172	0.159
-233.815	156.408	0.177	-0.243
-232.800	-78.072	-0.209	0.072
-231.786	329.468	-0.171	-0.327
-230.771	178.726	-0.162	-0.236
-229.757	-200.000	-0.012	-0.353
-228.742	-42.215	-0.297	-0.151
-227.727	-81.916	0.230	0.075
-226.713	800.000	0.060	0.225
-225.698	20.938	-0.226	0.182
-224.684	105.424	-0.314	0.368
-223.669	263.650	-0.185	0.320
-222.655	-200.000	0.007	-0.124
-221.640	6.541	-0.256	0.189
-220.625	2.575	-0.054	0.039
-219.611	368.220	0.137	-0.276
-218.596	156.999	-0.244	0.335
-217.582	-41.536	-0.240	-0.123
-216.567	515.727	-0.035	0.082
-215.552	-182.906	0.104	-0.002
-214.538	-200.000	-0.062	-0.399
-213.523	-169.707	-0.167	-0.006
-212.509	-30.342	-0.137	0.077
-211.494	178.251	0.091	-0.132
-210.479	350.815	-0.187	-0.368
-209.465	800.000	-0.121	-0.368
-208.450	-154.469	-0.354	0.024
-207.436	-44.981	0.412	-0.204
-206.421	-112.243	0.297	0.059
-205.406	-11.977	0.253	0.165
-204.392	4.452	0.197	-0.143
-203.377	-117.059	0.102	-0.018
-202.363	-76.492	-0.127	0.044
-201.348	-95.928	-0.246	0.065
-200.333	133.488	0.069	-0.089
-199.319	-36.603	-0.073	0.039
-198.304	-83.177	-0.179	0.057
-197.290	-120.430	-0.198	0.033
-196.275	-113.626	-0.250	-0.048
-195.260	-32.434	-0.054	-0.030
-194.246	-58.251	-0.302	-0.131
-193.231	152.451	0.257	-0.349
-192.217	-142.806	-0.196	-0.019
-191.202	-57.742	0.178	0.077
-190.187	800.000	-0.031	-0.120
-189.173	83.593	0.197	0.213
-188.158	-14.477	-0.115	0.073
-187.144	163.880	0.111	-0.155
-186.129	618.088	-0.010	0.025
-185.114	-23.969	-0.161	0.096
-184.100	-150.860	0.209	0.016
-183.085	-36.011	0.065	0.035
-182.071	-57.607	-0.150	-0.065
-181.056	35.326	-0.293	0.255
-180.042	-115.099	0.157	0.029
-179.027	267.328	0.078	0.135
-178.012	-110.173	-0.308	-0.064
-176.998	367.007	-0.213	0.427
-175.983	-35.794	0.021	0.011
-174.969	21.548	0.193	-0.156
-173.954	39.305	0.109	-0.097
-172.939	-3.829	0.407	0.280
-171.925	-28.176	0.184	0.106
-170.910	67.146	-0.078	-0.079
-169.896	800.000	0.017	0.069
-168.881	-200.000	0.086	0.421
-167.866	62.848	0.189	0.188
-166.852	-90.252	0.162	0.047
-165.837	138.222	0.227	0.296
-164.823	-27.324	0.198	0.115
-163.808	-95.411	0.248	-0.066
-162.793	74.047	-0.181	-0.188
-161.779	-131.731	0.155	-0.020
-160.764	-87.677	-0.486	-0.145
-159.750	60.724	0.247	-0.243
-158.735	-56.237	0.100	0.044
-157.720	594.133	0.110	0.270
-156.706	20.736	-0.043	0.035
-155.691	-71.307	0.214	-0.080
-154.677	-108.038	0.238	0.051
-153.662	-168.982	-0.176	-0.007
-152.647	89.572	0.213	-0.236
-151.633	800.000	0.070	-0.252
-150.618	-200.000	-0.325	0.001
-149.604	800.000	-0.133	-0.384
-148.589	32.620	-0.125	0.108
-147.574	-114.566	0.496	-0.094
-146.560	-200.000	0.014	-0.095
-145.545	197.054	0.037	-0.056
-144.531	135.046	-0.112	0.144
-143.516	-84.673	-0.266	-0.083
-142.502	76.473	0.178	0.187
-141.487	-116.504	-0.277	0.051
-140.472	-200.000	-0.045	-0.345
-139.458	28.760	-0.198	0.166
-138.443	-200.000	-0.040	0.206
-137.429	800.000	0.036	0.153
-136.414	-75.549	0.159	-0.056
-135.399	-200.000	-0.016	0.333
-134.385	800.000	-0.063	0.241
-133.370	113.729	0.097	0.116
-132.356	-71.509	0.130	0.048
-131.341	31.277	-0.128	0.109
-130.326	137.136	-0.102	0.132
-129.312	800.000	0.034	-0.148
-128.297	75.488	0.187	0.196
-127.283	-200.000	-0.015	0.170
-126.268	648.572	-0.171	0.433
-125.253	328.604	-0.250	0.476
-124.239	752.314	-0.099	0.265
-123.224	-19.237	-0.332	-0.204
-122.210	-39.577	-0.126	-0.065
-121.195	-99.666	-0.447	-0.111
-120.180	-129.590	0.145	0.020
-119.166	364.557	-0.080	-0.160
-118.151	-200.000	0.039	-0.311
-117.137	800.000	-0.097	0.321
-116.122	65.247	-0.383	0.383
-115.107	800.000	-0.030	-0.088
-114.093	43.387	0.122	-0.110
-113.078	-41.672	0.084	0.043
-112.064	161.223	-0.132	0.182
-111.049	-200.000	-0.064	0.316
-110.034	65.965	-0.224	0.225
-109.020	-85.001	-0.049	-0.015
-108.005	800.000	-0.048	0.199
-106.991	-145.111	0.231	-0.021
-105.976	119.161	0.220	0.269
-104.962	635.730	-0.056	-0.142
-103.947	27.734	0.383	0.319
-102.932	-59.927	0.558	0.236
-101.918	-200.000	-0.011	0.308
-100.903	95.457	0.278	0.314
-99.889	-200.000	-0.078	0.384
-98.874	20.017	-0.108	-0.087
-97.859	-110.751	0.479	0.098
-96.845	-200.000	-0.046	-0.251
-95.830	-29.747	-0.091	-0.052
-94.816	-200.000	-0.070	0.508
-93.801	800.000	-0.091	0.322
-92.786	-81.150	0.358	-0.117
-91.772	243.265	0.118	0.196
-90.757	747.024	-0.123	0.327
-89.743	-101.393	-0.486	-0.117
-88.728	75.971	0.253	0.264
-87.713	-200.000	0.056	-0.499
-86.699	-155.335	0.131	0.008
-85.684	58.803	0.356	-0.346
-84.670	146.519	0.040	-0.053
-83.655	-200.000	0.014	-0.094
-82.640	185.653	-0.089	0.131
-81.626	-7.195	-0.320	-0.215
-80.611	800.000	0.062	0.182
-79.597	-134.419	0.079	0.010
-78.582	121.997	0.035	-0.043
-77.567	61.700	-0.216	-0.213
-76.553	-32.400	0.181	0.100
-75.538	-97.399	-0.245	-0.063
-74.524	-200.000	0.034	-0.373
-73.509	-52.357	-0.095	-0.044
-72.494	717.740	0.107	0.281
-71.480	-1.938	0.254	0.177
-70.465	-200.000	-0.005	0.398
-69.451	-55.621	0.292	-0.129
-68.436	93.191	-0.140	0.156
-67.422	91.940	0.303	0.337
-66.407	217.607	-0.057	0.090
-65.392	-120.857	0.241	0.040
-64.378	-200.000	0.017	-0.082
-63.363	-200.000	-0.031	0.354
-62.349	-141.555	0.173	-0.017
-61.334	73.344	-1.001	-1.035
-60.319	59.645	0.423	0.412
-59.305	800.000	-0.343	-1.079
-58.290	307.142	0.638	1.175
-57.276	-200.000	0.301	1.528
-56.261	-200.000	105.135	574.473
-55.246	441.406	1468.695	3174.634
-54.232	143.760	2671.310	3516.831
-53.217	96.523	2338.136	2643.798
-52.203	35.679	2087.628	1811.936
-51.188	31.150	2002.458	1696.870
-50.173	29.648	1985.783	1669.118
-49.159	45.293	2040.968	1859.266
-48.144	45.655	2058.330	1878.327
-47.130	31.699	2017.027	1713.973
-46.115	29.516	2005.900	1684.558
-45.100	29.454	2002.507	1681.075
-44.086	29.333	2000.800	1678.479
-43.071	29.330	1998.262	1676.250
-42.057	29.245	1996.321	1673.790
-41.042	29.312	1994.466	1672.776
-40.027	29.355	1992.294	1671.272
-39.013	29.345	1990.158	1669.329
-37.998	29.337	1987.927	1667.314
-36.984	29.405	1986.298	1666.496
-35.969	29.351	1984.339	1664.304
-34.954	29.359	1983.133	1663.292
-33.940	29.354	1981.670	1661.960
-32.925	29.410	1979.686	1660.728
-31.911	29.420	1977.905	1659.262
-30.896	29.409	1976.227	1657.689
-29.881	29.368	1975.203	1656.397
-28.867	29.504	1972.508	1655.287
-27.852	29.517	1971.786	1654.738
-26.838	29.390	1969.697	1651.779
-25.823	29.443	1967.691	1650.506
-24.809	29.534	1965.410	1649.342
-23.794	29.477	1964.232	1647.773
-22.779	29.501	1962.109	1646.146
-21.765	29.462	1960.681	1644.531
-20.750	29.512	1958.809	1643.347
-19.736	29.444	1957.658	1641.711
-18.721	29.538	1955.355	1640.549
-17.706	29.504	1953.631	1638.731
-16.692	29.530	1951.940	1637.477
-15.677	29.480	1951.136	1636.297
-14.663	29.383	1949.638	1634.112
-13.648	29.452	1947.722	1633.056
-12.633	29.464	1946.763	1632.293
-11.619	29.431	1945.328	1630.730
-10.604	29.417	1944.088	1629.510
-9.590	29.426	1942.609	1628.283
-8.575	29.441	1941.605	1627.503
-7.560	29.538	1939.792	1626.778
-6.546	29.536	1938.179	1625.339
-5.531	29.424	1938.019	1624.162
-4.517	29.472	1936.424	1623.183
-3.502	29.400	1935.316	1621.550
-2.487	29.413	1934.016	1620.513
-1.473	29.445	1932.730	1619.656
-0.458	29.548	1928.271	1616.758
0.556	27.692	1908.572	1590.456
1.571	23.692	1889.913	1540.157
2.586	19.910	1913.383	1525.868
3.600	18.980	1948.918	1545.715
4.615	18.803	1944.404	1540.407
5.629	14.807	1842.127	1425.243
6.644	5.832	1721.052	1259.641
7.659	0.658	1682.539	1190.646
8.673	0.255	1679.102	1184.941
9.688	0.160	1678.531	1183.682
10.702	0.125	1676.774	1182.064
11.717	0.071	1673.179	1179.003
12.731	0.618	1672.555	1182.742
13.746	7.267	1687.057	1245.276
14.761	15.221	1703.218	1319.980
15.775	17.503	1705.812	1339.851
16.790	16.910	1703.061	1332.913
17.804	15.943	1699.524	1322.437
18.819	14.901	1696.720	1311.963
19.834	14.396	1694.085	1305.855
20.848	14.089	1692.541	1302.144
21.863	13.847	1690.838	1298.831
22.877	13.623	1689.757	1296.134
23.892	13.353	1687.834	1292.429
24.907	13.238	1686.829	1290.649
25.921	13.164	1685.896	1289.245
26.936	13.184	1685.011	1288.610
27.950	13.338	1683.923	1288.868
28.965	13.243	1683.657	1287.803
29.980	13.336	1682.956	1287.877
30.994	13.390	1681.761	1287.273
32.009	13.501	1680.582	1287.115
33.023	13.474	1680.071	1286.401
34.038	13.456	1679.590	1285.784
35.053	13.492	1677.849	1284.616
36.067	13.443	1676.569	1283.136
37.082	13.312	1676.381	1281.870
38.096	13.407	1674.710	1281.208
39.111	13.378	1674.342	1280.590
40.126	13.477	1673.252	1280.413
41.140	13.454	1672.174	1279.292
42.155	13.322	1670.882	1277.174
43.169	13.245	1669.449	1275.375
44.184	13.267	1668.205	1274.476
45.199	13.188	1667.219	1273.005
46.213	13.195	1666.340	1272.274
47.228	13.208	1664.416	1270.791
48.242	13.293	1663.407	1270.560
49.257	13.306	1662.260	1269.672
50.271	13.379	1661.223	1269.326
51.286	13.325	1660.048	1267.903
52.301	13.362	1658.112	1266.602
53.315	13.365	1656.750	1265.467
54.330	13.364	1655.326	1264.262
55.344	13.293	1653.579	1262.274
56.359	13.263	1652.177	1260.866
57.374	13.197	1651.310	1259.585
58.388	13.227	1650.400	1259.010
59.403	13.159	1648.970	1257.289
60.417	13.146	1647.606	1256.036
61.432	13.227	1646.107	1255.397
62.447	13.170	1645.243	1254.196
63.461	13.184	1643.772	1253.069
64.476	13.135	1643.129	1252.099
65.490	13.096	1641.794	1250.672
66.505	13.193	1640.286	1250.153
67.520	13.164	1639.537	1249.252
68.534	13.171	1638.840	1248.661
69.549	13.178	1637.220	1247.366
70.563	13.242	1635.730	1246.609
71.578	13.185	1634.943	1245.467
72.593	13.130	1634.217	1244.388
73.607	13.101	1632.633	1242.856
74.622	13.137	1631.610	1242.237
75.636	13.050	1630.234	1240.426
76.651	13.113	1629.571	1240.286
77.666	13.056	1628.694	1239.075
78.680	13.096	1627.878	1238.649
79.695	13.095	1626.701	1237.635
80.709	13.124	1625.985	1237.201
81.724	13.133	1624.594	1236.100
82.739	13.121	1624.074	1235.503
83.753	13.176	1623.222	1235.155
84.768	13.299	1621.840	1234.912
85.782	13.251	1621.598	1234.263
86.797	13.345	1620.335	1233.893
87.812	13.400	1619.354	1233.443
88.826	13.240	1618.141	1231.225
89.841	13.372	1616.413	1230.777
90.855	13.295	1615.972	1229.762
91.870	13.294	1614.516	1228.536
92.884	13.365	1613.532	1228.207
93.899	13.341	1612.856	1227.409
94.914	13.359	1611.545	1226.434
95.928	13.434	1610.375	1225.989
96.943	13.457	1608.601	1224.701
97.957	13.475	1607.044	1223.543
98.972	13.444	1605.759	1222.225
99.987	13.373	1604.705	1220.789
101.001	13.365	1602.976	1219.308
102.016	13.286	1601.358	1217.390
103.030	13.289	1600.042	1216.304
104.045	13.297	1599.081	1215.527
105.060	13.400	1596.956	1214.558
106.074	13.408	1595.471	1213.376
107.089	13.369	1594.191	1212.009
108.103	13.232	1592.863	1209.889
109.118	13.147	1591.474	1208.113
110.133	13.231	1590.153	1207.611
111.147	13.225	1588.709	1206.369
112.162	13.254	1587.442	1205.506
113.176	13.082	1586.818	1203.673
114.191	13.208	1584.896	1203.025
115.206	13.315	1583.382	1202.551
116.220	13.348	1582.290	1201.850
117.235	13.321	1580.922	1200.513
118.249	13.171	1579.973	1198.597
119.264	13.280	1578.640	1198.268
120.279	13.290	1576.994	1196.990
121.293	13.228	1575.385	1195.214
122.308	13.269	1573.844	1194.231
123.322	13.202	1572.523	1192.640
124.337	13.168	1571.077	1191.193
125.352	13.242	1569.697	1190.576
126.366	13.207	1568.684	1189.452
127.381	13.198	1567.607	1188.462
128.395	13.214	1566.155	1187.371
129.410	13.183	1564.972	1186.148
130.424	13.250	1563.844	1185.666
131.439	13.281	1562.296	1184.614
132.454	13.284	1561.046	1183.582
133.468	13.257	1559.799	1182.340
134.483	13.213	1557.923	1180.494
135.497	13.279	1556.292	1179.629
136.512	13.422	1554.664	1179.310
137.527	13.258	1553.978	1177.516
138.541	13.372	1552.438	1177.058
139.556	13.424	1550.861	1176.123
140.570	13.338	1549.404	1174.303
141.585	13.362	1548.152	1173.426
142.600	13.429	1547.200	1173.075
143.614	13.502	1545.944	1172.534
144.629	13.510	1544.577	1171.447
145.643	13.478	1542.945	1169.881
146.658	13.450	1541.954	1168.827
147.673	13.548	1540.296	1168.157
148.687	13.463	1538.821	1166.337
149.702	13.433	1537.243	1164.826
150.716	13.432	1535.614	1163.484
151.731	13.344	1534.629	1162.020
152.746	13.429	1532.725	1161.071
153.760	13.450	1531.399	1160.112
154.775	13.519	1530.306	1159.663
155.789	13.440	1529.130	1158.112
156.804	13.511	1527.485	1157.265
157.819	13.469	1526.426	1156.067
158.833	13.543	1525.079	1155.460
159.848	13.608	1523.939	1154.947
160.862	13.642	1522.853	1154.256
161.877	13.667	1521.948	1153.640
162.892	13.662	1520.431	1152.357
163.906	13.523	1519.349	1150.466
164.921	13.568	1517.923	1149.598
165.935	13.610	1516.930	1149.035
166.950	13.576	1515.903	1147.920
167.964	13.657	1514.601	1147.396
168.979	13.643	1513.780	1146.577
169.994	13.647	1512.575	1145.592
171.008	13.592	1511.552	1144.334
172.023	13.652	1510.079	1143.527
173.037	13.741	1509.008	1143.235
174.052	13.746	1507.832	1142.272
175.067	13.773	1506.783	1141.563
176.081	13.715	1506.128	1140.569
177.096	13.704	1504.061	1138.829
178.110	13.680	1503.023	1137.773
179.125	13.726	1501.922	1137.159
180.140	13.723	1501.312	1136.575
181.154	13.738	1499.776	1135.411
182.169	13.740	1498.967	1134.713
183.183	13.729	1497.835	1133.681
184.198	13.825	1496.978	1133.585
185.213	13.827	1495.703	1132.536
186.227	13.872	1494.121	1131.541
187.242	13.874	1493.032	1130.629
188.256	13.911	1492.156	1130.123
189.271	13.949	1491.144	1129.513
190.286	13.902	1490.091	1128.299
191.300	13.945	1488.686	1127.427
192.315	13.786	1487.734	1125.523
193.329	13.663	1486.332	1123.534
194.344	13.682	1485.659	1123.049
195.359	13.830	1484.318	1122.941
196.373	13.783	1483.416	1121.840
197.388	13.821	1482.725	1121.475
198.402	13.955	1481.133	1121.074
199.417	13.961	1480.226	1120.334
200.432	14.100	1478.487	1119.849
201.446	14.118	1478.083	1119.565
202.461	14.094	1476.824	1118.354
203.475	14.135	1475.601	1117.602
204.490	14.100	1474.957	1116.780
205.504	14.187	1473.551	1116.204
206.519	14.140	1472.284	1114.832
207.534	14.071	1471.072	1113.348
208.548	14.068	1469.766	1112.247
209.563	14.194	1468.573	1112.085
210.577	14.112	1467.986	1110.994
211.592	14.114	1467.307	1110.393
212.607	14.096	1466.400	1109.491
213.621	14.139	1466.014	1109.386
214.636	14.232	1464.590	1108.830
215.650	14.123	1463.828	1107.429
216.665	14.170	1462.652	1106.757
217.680	14.289	1461.983	1106.945
218.694	14.271	1461.316	1106.219
219.709	14.304	1460.455	1105.692
220.723	14.304	1459.357	1104.761
221.738	14.311	1458.741	1104.244
222.753	14.331	1457.491	1103.330
223.767	14.312	1456.790	1102.576
224.782	14.257	1455.733	1101.315
225.796	14.405	1454.245	1101.073
226.811	14.426	1453.707	1100.702
227.826	14.425	1452.995	1100.059
228.840	14.445	1452.008	1099.346
229.855	14.431	1451.182	1098.534
230.869	14.491	1449.901	1097.860
231.884	14.440	1449.012	1096.755
232.899	14.434	1448.031	1095.875
233.913	14.371	1447.602	1095.042
234.928	14.453	1445.260	1093.712
235.942	14.343	1444.595	1092.388
236.957	14.358	1443.236	1091.365
237.972	14.346	1442.272	1090.456
238.986	14.378	1441.068	1089.663
240.001	14.408	1440.309	1089.189
241.015	14.441	1439.387	1088.611
242.030	14.443	1437.798	1087.323
243.045	14.485	1437.111	1086.983
244.059	14.470	1436.392	1086.246
245.074	14.523	1435.350	1085.702
246.088	14.502	1434.400	1084.758
247.103	14.626	1433.817	1085.025
248.117	14.530	1432.846	1083.571
249.132	14.615	1432.300	1083.615
250.147	14.623	1431.887	1083.257
251.161	14.711	1431.029	1083.079
252.176	14.803	1430.273	1083.010
253.190	14.851	1429.538	1082.669
254.205	14.798	1428.524	1081.463
255.220	14.956	1427.592	1081.683
256.234	14.940	1426.785	1080.870
257.249	14.984	1426.365	1080.740
258.263	14.961	1425.310	1079.699
259.278	14.972	1424.088	1078.750
260.293	14.945	1423.077	1077.714
261.307	15.061	1422.416	1077.865
262.322	15.025	1421.769	1077.050
263.336	15.091	1420.615	1076.505
264.351	15.018	1419.734	1075.267
265.366	15.080	1419.042	1075.052
266.380	15.075	1418.332	1074.386
267.395	15.145	1416.752	1073.540
268.409	15.151	1416.065	1072.964
269.424	15.124	1414.814	1071.748
270.439	15.116	1414.114	1071.073
271.453	15.054	1413.170	1069.863
272.468	15.157	1412.118	1069.631
273.482	15.160	1411.251	1068.902
274.497	15.189	1410.282	1068.256
275.512	15.183	1409.671	1067.664
276.526	15.133	1408.839	1066.616
277.541	15.199	1407.902	1066.236
278.555	15.201	1406.799	1065.315
279.570	15.178	1406.072	1064.525
280.585	15.267	1404.802	1064.033
281.599	15.268	1404.146	1063.454
282.614	15.385	1403.400	1063.531
283.628	15.350	1402.096	1062.231
284.643	15.369	1401.264	1061.623
285.657	15.302	1400.164	1060.276
286.672	15.282	1399.289	1059.393
287.687	15.323	1398.225	1058.748
288.701	15.366	1397.211	1058.158
289.716	15.355	1396.443	1057.415
290.730	15.370	1395.257	1056.519
291.745	15.399	1394.543	1056.070
292.760	15.360	1393.707	1055.093
293.774	15.438	1392.606	1054.660
294.789	15.397	1391.970	1053.824
295.803	15.499	1390.755	1053.454
296.818	15.439	1390.309	1052.645
297.833	15.452	1389.064	1051.689
298.847	15.419	1388.140	1050.691
299.862	15.477	1386.465	1049.698
300.876	15.481	1386.063	1049.321
301.891	15.481	1385.289	1048.643
302.906	15.573	1384.823	1048.775
303.920	15.634	1383.575	1048.113
304.935	15.666	1383.140	1047.889
305.949	15.677	1382.363	1047.281
306.964	15.641	1381.645	1046.420
307.979	15.672	1380.607	1045.734
308.993	15.716	1379.869	1045.355
310.008	15.757	1378.700	1044.632
311.022	15.723	1377.696	1043.567
312.037	15.676	1376.729	1042.453
313.052	15.753	1375.705	1042.063
314.066	15.724	1374.320	1040.737
315.081	15.666	1373.823	1039.912
316.095	15.736	1372.384	1039.162
317.110	15.726	1371.493	1038.335
318.125	15.735	1370.741	1037.727
319.139	15.606	1370.110	1036.362
320.154	15.765	1368.671	1036.164
321.168	15.810	1367.603	1035.537
322.183	15.714	1366.776	1034.229
323.197	15.741	1366.111	1033.801
324.212	15.708	1365.555	1033.090
325.227	15.792	1364.596	1032.784
326.241	15.824	1363.445	1032.024
327.256	15.808	1362.633	1031.217
328.270	15.859	1361.477	1030.565
329.285	15.821	1360.890	1029.794
330.300	15.907	1359.918	1029.493
331.314	15.920	1358.735	1028.590
332.329	15.944	1357.589	1027.773
333.343	15.901	1356.817	1026.836
334.358	15.930	1356.316	1026.544
335.373	15.951	1355.503	1025.963
336.387	15.965	1354.802	1025.432
337.402	16.031	1353.692	1024.900
338.416	15.942	1353.108	1023.829
339.431	16.040	1352.340	1023.752
340.446	16.129	1351.961	1023.912
341.460	15.947	1351.432	1022.316
342.475	16.126	1350.223	1022.396
343.489	16.118	1349.395	1021.633
344.504	16.081	1348.155	1020.378
345.519	16.158	1347.443	1020.213
346.533	16.311	1346.200	1020.110
347.548	16.413	1344.999	1019.725
348.562	16.327	1344.340	1018.615
349.577	16.367	1343.554	1018.172
350.592	16.216	1343.321	1016.994
351.606	16.265	1342.587	1016.640
352.621	16.185	1340.982	1014.855
353.635	16.221	1339.829	1014.109
354.650	16.235	1338.997	1013.472
355.665	16.233	1337.999	1012.617
356.679	16.220	1337.295	1011.916
357.694	16.291	1335.878	1011.179
358.708	16.294	1335.155	1010.564
359.723	16.247	1334.182	1009.457
360.738	16.381	1332.699	1009.042
361.752	16.313	1332.055	1008.059
362.767	16.345	1330.896	1007.283
363.781	16.367	1329.661	1006.395
364.796	16.386	1329.278	1006.130
365.810	16.387	1328.565	1005.502
366.825	16.482	1328.060	1005.598
367.840	16.491	1326.962	1004.732
368.854	16.537	1326.219	1004.355
369.869	16.532	1325.936	1004.019
370.883	16.619	1325.226	1003.910
371.898	16.631	1324.236	1003.143
372.913	16.528	1323.518	1001.900
373.927	16.688	1322.201	1001.761
374.942	16.714	1321.148	1001.026
375.956	16.534	1321.192	999.908
376.971	16.688	1320.355	1000.100
377.986	16.645	1319.526	999.125
379.000	16.743	1318.525	998.857
380.015	16.689	1317.583	997.740
381.029	16.835	1316.879	997.979
382.044	16.827	1315.939	997.126
383.059	16.855	1315.224	996.665
384.073	16.900	1314.726	996.461
385.088	16.758	1314.401	995.296
386.102	16.832	1313.542	994.990
387.117	16.893	1312.959	994.815
388.132	16.845	1312.199	993.873
389.146	16.821	1310.964	992.710
390.161	16.822	1310.053	991.935
391.175	16.894	1309.412	991.782
392.190	16.926	1308.324	991.062
393.205	16.822	1307.452	989.705
394.219	17.015	1306.229	989.819
395.234	16.923	1305.128	988.356
396.248	16.943	1303.802	987.384
397.263	16.990	1302.611	986.668
398.278	16.894	1301.973	985.540
399.292	16.880	1300.767	984.460
400.307	16.930	1299.849	983.966
401.321	16.943	1298.464	982.907
402.336	16.982	1297.515	982.324
403.350	16.852	1296.498	980.719
404.365	16.948	1295.756	980.622
405.380	16.987	1294.801	980.041
406.394	17.011	1293.965	979.459
407.409	17.019	1293.623	979.161
408.423	17.064	1292.815	978.724
409.438	17.203	1291.788	978.660
410.453	17.066	1291.414	977.496
411.467	17.275	1290.350	977.807
412.482	17.199	1290.192	977.167
413.496	17.254	1289.371	976.772
414.511	17.315	1288.563	976.427
415.526	17.382	1287.525	975.937
416.540	17.408	1286.682	975.362
417.555	17.368	1286.233	974.704
418.569	17.432	1285.458	974.399
419.584	17.384	1285.291	973.910
420.599	17.361	1284.675	973.228
421.613	94.831	1353.444	1468.907
422.628	92.881	1363.402	1468.993
