DTS Sentinel unit serial number:	SN413079Multiplexer serial number:	ORYXHardware model number:	OX4-SRSoftware version number:	ORYX F/W v4.00 Oryx Data Collector v3.7.2.0data status	okinstallation	princeton_trtdifferential loss correction	single-endedforward channel	channel 4reverse channel	N/Adate	2019/09/16time	14:37:35forward acquisition time	60.00reverse acquisition time	0.00gamma	496.2192k internal	0.2287k external	0.2287temperature offset calibration	0.9937default loss term (dB/km)	0.3790temperature slope calibration	1.0000multiplexer offset coefficient	1.0000multiplexer slope coefficient	1.0000fibre end	0.00T internal ref (°C)	41.75T ext. ref 1 (°C)	14.30T ext. ref 2 (°C)	36.24length (m)	temperature (°C)	Stokes	anti-Stokes-747.200	-89.802	0.091	-0.027
-746.185	79.092	0.200	-0.219
-745.171	25.524	0.175	0.150
-744.156	189.148	-0.183	0.281
-743.142	-137.790	-0.398	-0.046
-742.127	624.023	-0.182	0.471
-741.112	-200.000	0.002	-0.181
-740.098	800.000	-0.109	0.346
-739.083	-200.000	-0.003	-0.130
-738.069	-58.070	-0.235	0.105
-737.054	-93.086	-0.368	0.105
-736.039	-161.120	0.108	0.006
-735.025	-127.365	0.413	0.062
-734.010	-68.827	-0.105	0.042
-732.996	800.000	0.055	-0.200
-731.981	183.508	-0.086	-0.130
-730.966	-105.708	-0.400	-0.093
-729.952	-180.186	0.384	0.008
-728.937	-200.000	0.024	-0.123
-727.923	800.000	-0.135	0.393
-726.908	800.000	-0.083	0.236
-725.894	-200.000	-0.039	0.256
-724.879	189.994	0.181	0.279
-723.864	240.414	-0.195	-0.332
-722.850	282.430	0.118	-0.216
-721.835	191.186	0.028	-0.043
-720.821	-116.485	-0.381	-0.072
-719.806	-111.036	0.205	0.043
-718.791	167.169	0.063	0.092
-717.777	-77.844	-0.245	-0.087
-716.762	2.608	-0.174	-0.129
-715.748	56.534	-0.156	-0.155
-714.733	8.018	0.098	-0.075
-713.718	178.642	0.093	-0.139
-712.704	800.000	-0.041	-0.126
-711.689	-116.518	0.146	0.028
-710.675	-77.293	0.170	-0.060
-709.660	800.000	0.099	-0.317
-708.645	-158.565	-0.268	-0.016
-707.631	-16.886	0.362	0.234
-706.616	-8.293	-0.033	-0.022
-705.602	472.574	-0.105	0.243
-704.587	800.000	-0.033	0.103
-703.572	-173.980	-0.324	0.010
-702.558	95.338	-0.143	-0.167
-701.543	-200.000	0.027	0.139
-700.529	30.551	0.106	-0.093
-699.514	-19.435	0.047	0.030
-698.499	-51.824	0.235	-0.112
-697.485	-128.470	-0.275	-0.040
-696.470	504.218	-0.041	0.098
-695.456	-45.426	-0.414	0.210
-694.441	-138.978	-0.058	-0.006
-693.426	800.000	0.077	-0.270
-692.412	-81.834	0.077	0.026
-691.397	187.914	0.043	-0.066
-690.383	112.199	-0.265	-0.327
-689.368	-40.381	-0.429	0.228
-688.354	-61.926	-0.420	-0.180
-687.339	-149.123	0.221	-0.018
-686.324	-200.000	-0.072	-0.342
-685.310	298.339	0.221	-0.415
-684.295	800.000	-0.122	0.351
-683.281	-26.719	0.199	-0.119
-682.266	-200.000	0.061	-0.306
-681.251	-200.000	0.045	0.353
-680.237	-129.235	-0.214	-0.030
-679.222	-105.919	0.204	-0.047
-678.208	58.520	0.017	0.017
-677.193	-200.000	-0.003	0.150
-676.178	377.158	-0.175	0.365
-675.164	-79.261	-0.218	0.075
-674.149	25.159	0.181	-0.153
-673.135	-143.166	0.141	0.014
-672.120	51.685	0.203	0.198
-671.105	46.839	-0.200	0.190
-670.091	800.000	-0.078	0.246
-669.076	800.000	0.085	-0.291
-668.062	660.126	0.079	0.208
-667.047	-200.000	0.021	-0.202
-666.032	-133.145	-0.019	0.002
-665.018	63.953	-0.117	0.120
-664.003	-0.138	-0.261	0.190
-662.989	642.447	-0.015	0.040
-661.974	-109.615	-0.258	-0.056
-660.959	-9.620	0.055	0.037
-659.945	12.431	0.040	0.031
-658.930	57.197	-0.255	-0.254
-657.916	-27.404	-0.337	0.200
-656.901	-42.919	0.038	0.020
-655.886	-200.000	-0.026	0.165
-654.872	-145.201	0.145	0.013
-653.857	800.000	-0.103	0.350
-652.843	800.000	0.095	-0.312
-651.828	-52.026	-0.419	0.199
-650.814	29.286	0.261	-0.227
-649.799	41.799	0.125	-0.115
-648.784	646.393	-0.148	-0.387
-647.770	-200.000	0.021	0.108
-646.755	173.759	0.061	0.090
-645.741	-200.000	-0.030	-0.169
-644.726	379.119	-0.102	-0.214
-643.711	-48.154	-0.417	0.206
-642.697	143.474	-0.057	-0.077
-641.682	-19.603	-0.289	0.182
-640.668	-160.129	0.128	-0.007
-639.653	-54.292	-0.106	0.049
-638.638	-200.000	-0.058	0.342
-637.624	-0.395	0.406	-0.294
-636.609	82.826	-0.039	0.043
-635.595	-200.000	-0.004	-0.021
-634.580	-200.000	-0.003	-0.144
-633.565	253.168	-0.139	-0.243
-632.551	800.000	0.149	-0.646
-631.536	473.819	-0.084	-0.193
-630.522	-17.056	-0.216	-0.139
-629.507	460.856	0.024	0.054
-628.492	-124.267	0.069	-0.011
-627.478	800.000	-0.028	0.122
-626.463	20.610	-0.198	-0.164
-625.449	-1.028	0.136	-0.098
-624.434	171.791	0.188	-0.275
-623.419	107.544	-0.114	-0.138
-622.405	-28.155	0.236	-0.139
-621.390	95.212	-0.206	0.239
-620.376	54.419	0.238	-0.234
-619.361	-91.297	0.127	-0.037
-618.346	800.000	0.018	-0.064
-617.332	-200.000	0.024	-0.137
-616.317	-77.862	-0.174	0.061
-615.303	85.930	0.116	-0.130
-614.288	107.291	-0.086	-0.105
-613.273	-96.236	0.105	0.028
-612.259	20.761	0.272	0.225
-611.244	-67.693	-0.076	0.031
-610.230	405.335	0.079	0.170
-609.215	-37.250	-0.087	-0.047
-608.201	167.718	-0.023	-0.033
-607.186	-167.635	-0.110	0.004
-606.171	-200.000	0.011	0.472
-605.157	-200.000	0.016	-0.410
-604.142	38.781	-0.167	0.152
-603.128	3.358	0.026	-0.019
-602.113	31.182	-0.052	0.046
-601.098	-132.279	-0.159	0.021
-600.084	361.859	-0.106	-0.216
-599.069	541.808	0.104	-0.252
-598.055	164.663	-0.093	-0.134
-597.040	800.000	0.039	-0.129
-596.025	-200.000	0.003	-0.063
-595.011	290.537	-0.064	0.118
-593.996	-55.705	0.369	-0.168
-592.982	-148.157	0.223	-0.019
-591.967	-94.074	0.142	-0.040
-590.952	-200.000	0.036	0.357
-589.938	-200.000	0.116	0.525
-588.923	800.000	-0.039	0.120
-587.909	108.525	0.261	-0.317
-586.894	-37.631	-0.402	-0.219
-585.879	84.510	0.096	0.107
-584.865	-200.000	-0.016	0.161
-583.850	-29.308	-0.247	0.144
-582.836	34.797	-0.179	-0.160
-581.821	800.000	-0.062	-0.233
-580.806	-200.000	0.032	-0.146
-579.792	800.000	-0.005	0.024
-578.777	-141.117	-0.390	0.041
-577.763	-72.176	0.159	0.060
-576.748	78.364	-0.126	0.137
-575.733	146.226	0.194	-0.265
-574.719	306.350	0.095	-0.180
-573.704	-200.000	-0.013	-0.221
-572.690	-31.620	-0.281	-0.161
-571.675	34.496	0.159	0.141
-570.661	-126.135	-0.233	0.036
-569.646	-2.213	0.170	-0.122
-568.631	22.327	-0.182	-0.151
-567.617	183.976	-0.013	0.020
-566.602	22.080	0.027	0.022
-565.588	-154.814	-0.459	0.031
-564.573	-25.573	0.086	0.052
-563.558	-12.833	-0.014	0.009
-562.544	-56.542	-0.160	-0.072
-561.529	-161.207	-0.168	-0.009
-560.515	-83.438	0.523	0.171
-559.500	-118.383	0.064	-0.012
-558.485	-200.000	-0.012	0.111
-557.471	-200.000	0.015	-0.190
-556.456	271.857	-0.058	0.104
-555.442	-200.000	0.008	-0.254
-554.427	-190.811	0.209	0.002
-553.412	-110.834	-0.261	-0.055
-552.398	35.969	-0.134	0.120
-551.383	62.582	-0.148	-0.151
-550.369	800.000	0.035	-0.114
-549.354	-63.758	-0.104	0.044
-548.339	-7.123	0.195	0.134
-547.325	-200.000	-0.011	-0.099
-546.310	-51.316	-0.167	-0.080
-545.296	-96.929	0.185	-0.049
-544.281	44.713	0.133	0.125
-543.266	-200.000	0.026	-0.141
-542.252	800.000	0.046	-0.143
-541.237	433.764	0.095	-0.209
-540.223	-136.604	0.115	0.014
-539.208	-200.000	0.020	0.211
-538.193	-33.607	0.358	-0.201
-537.179	-118.846	-0.450	-0.080
-536.164	23.705	-0.086	-0.072
-535.150	-98.072	0.331	0.087
-534.135	800.000	0.050	0.219
-533.121	65.064	-0.161	0.166
-532.106	384.095	-0.060	-0.125
-531.091	673.373	-0.057	0.151
-530.077	166.170	0.100	-0.144
-529.062	187.241	-0.073	0.111
-528.048	-55.915	0.058	-0.026
-527.033	800.000	0.087	-0.379
-526.018	450.011	0.104	-0.233
-525.004	-40.107	-0.218	0.116
-523.989	-200.000	0.002	0.240
-522.975	515.209	-0.037	-0.088
-521.960	-200.000	-0.036	0.168
-520.945	395.584	0.115	-0.243
-519.931	-3.791	-0.352	-0.249
-518.916	11.739	0.179	0.140
-517.902	-68.294	-0.280	-0.111
-516.887	-79.869	0.205	-0.070
-515.872	131.334	0.107	0.140
-514.858	-84.367	0.127	0.041
-513.843	-200.000	-0.001	0.054
-512.829	345.124	-0.126	-0.251
-511.814	646.370	-0.112	0.291
-510.799	-89.484	0.253	-0.075
-509.785	-185.983	-0.422	-0.006
-508.770	594.043	-0.069	0.174
-507.756	-4.977	0.287	-0.201
-506.741	-119.589	0.098	-0.017
-505.726	800.000	-0.050	-0.191
-504.712	557.256	-0.041	-0.100
-503.697	-94.258	-0.151	-0.042
-502.683	136.405	0.144	-0.191
-501.668	162.573	-0.264	-0.376
-500.653	-82.239	-0.143	0.047
-499.639	-109.792	0.089	0.019
-498.624	12.972	0.149	-0.117
-497.610	-97.606	-0.312	0.082
-496.595	-141.295	-0.222	0.023
-495.581	-127.740	-0.112	0.016
-494.566	-140.659	0.163	0.017
-493.551	-200.000	-0.009	-0.115
-492.537	-76.864	-0.270	-0.096
-491.522	-13.902	0.132	0.086
-490.508	410.268	0.227	0.488
-489.493	-84.727	-0.092	0.029
-488.478	239.633	0.118	0.199
-487.464	-117.835	-0.233	0.042
-486.449	-200.000	0.028	-0.149
-485.435	-102.484	-0.343	0.083
-484.420	-14.935	0.221	-0.144
-483.405	438.281	-0.074	-0.164
-482.391	800.000	0.036	0.146
-481.376	800.000	-0.032	-0.127
-480.362	-200.000	-0.032	0.217
-479.347	244.891	-0.094	-0.161
-478.332	-46.906	0.102	0.051
-477.318	-183.866	0.059	-0.001
-476.303	-200.000	0.002	-0.177
-475.289	227.610	0.006	0.011
-474.274	-200.000	0.006	0.297
-473.259	-200.000	-0.049	0.263
-472.245	-121.497	0.031	-0.005
-471.230	-200.000	-0.023	0.290
-470.216	800.000	0.072	0.239
-469.201	-117.302	0.355	-0.065
-468.186	333.074	-0.116	0.228
-467.172	6.042	0.328	0.246
-466.157	-125.050	-0.190	-0.030
-465.143	-38.351	-0.398	0.214
-464.128	241.234	-0.017	0.029
-463.113	-200.000	0.009	-0.059
-462.099	450.080	-0.159	0.356
-461.084	199.710	-0.068	-0.106
-460.070	-161.540	0.137	-0.007
-459.055	109.744	-0.140	-0.170
-458.040	-77.168	-0.071	-0.025
-457.026	-200.000	-0.013	0.070
-456.011	64.199	0.284	0.290
-454.997	563.720	-0.164	-0.402
-453.982	-111.189	-0.266	-0.055
-452.968	-94.185	-0.191	-0.053
-451.953	-200.000	-0.001	-0.138
-450.938	-66.357	-0.181	-0.073
-449.924	-51.224	-0.227	0.108
-448.909	237.866	-0.051	-0.086
-447.895	-137.847	0.083	0.009
-446.880	417.414	0.089	0.192
-445.865	800.000	-0.191	-0.600
-444.851	526.311	-0.070	-0.166
-443.836	219.813	-0.045	0.073
-442.822	-177.413	0.322	0.008
-441.807	-196.213	-0.192	-0.001
-440.792	23.168	0.130	0.108
-439.778	-200.000	0.019	-0.365
-438.763	418.131	0.102	0.222
-437.749	-134.148	-0.171	0.021
-436.734	-25.513	-0.079	0.047
-435.719	-200.000	0.016	0.345
-434.705	99.276	0.236	0.276
-433.690	-200.000	0.004	-0.089
-432.676	-200.000	-0.016	0.072
-431.661	-36.746	0.166	0.090
-430.646	-200.000	0.021	0.230
-429.632	-19.830	-0.155	0.097
-428.617	800.000	-0.086	-0.343
-427.603	-200.000	0.022	-0.220
-426.588	800.000	-0.017	0.076
-425.573	-43.660	0.091	-0.046
-424.559	103.403	-0.179	0.212
-423.544	800.000	0.123	-0.394
-422.530	800.000	-0.026	-0.086
-421.515	267.614	-0.150	-0.266
-420.500	-133.342	0.043	0.006
-419.486	-56.205	-0.186	0.084
-418.471	58.194	-0.165	-0.164
-417.457	-200.000	-0.040	-0.000
-416.442	163.215	0.108	0.154
-415.428	-113.331	-0.300	-0.060
-414.413	529.995	-0.165	0.395
-413.398	244.502	-0.116	-0.197
-412.384	-67.707	0.425	0.169
-411.369	-200.000	-0.008	-0.163
-410.355	268.967	-0.202	0.358
-409.340	98.160	-0.098	0.114
-408.325	-178.840	0.188	0.004
-407.311	-140.198	0.380	0.040
-406.296	197.560	-0.169	-0.262
-405.282	-200.000	0.023	0.173
-404.267	-200.000	0.026	0.327
-403.252	-9.315	-0.129	-0.087
-402.238	-32.614	-0.272	-0.153
-401.223	-71.980	0.252	0.095
-400.209	800.000	-0.115	-0.388
-399.194	410.692	0.160	-0.344
-398.179	-200.000	-0.006	-0.054
-397.165	492.886	-0.143	0.332
-396.150	290.980	0.158	0.291
-395.136	-17.342	-0.053	0.034
-394.121	117.781	0.196	0.244
-393.106	-137.005	0.097	-0.011
-392.092	107.879	-0.032	0.038
-391.077	-23.278	-0.132	-0.080
-390.063	-91.561	0.387	-0.112
-389.048	98.845	-0.166	0.194
-388.033	-143.398	-0.070	-0.007
-387.019	-115.819	0.283	-0.054
-386.004	150.935	0.113	-0.155
-384.990	125.590	-0.062	-0.079
-383.975	-24.954	0.281	-0.169
-382.960	-34.628	0.138	0.077
-381.946	800.000	-0.086	0.339
-380.931	800.000	0.112	0.376
-379.917	160.690	-0.122	0.172
-378.902	737.502	0.095	-0.258
-377.888	800.000	0.029	-0.106
-376.873	-87.702	-0.316	-0.096
-375.858	-200.000	-0.062	-0.331
-374.844	218.349	-0.066	0.106
-373.829	-98.343	0.139	0.036
-372.815	800.000	0.085	-0.308
-371.800	-62.588	0.216	0.091
-370.785	800.000	0.063	-0.265
-369.771	782.001	0.028	-0.078
-368.756	212.609	-0.169	-0.269
-367.742	-41.030	-0.205	-0.107
-366.727	800.000	-0.055	0.201
-365.712	676.850	-0.089	-0.233
-364.698	273.955	-0.119	-0.213
-363.683	99.620	-0.084	-0.099
-362.669	-148.530	-0.018	0.001
-361.654	40.127	0.237	-0.216
-360.639	-200.000	0.034	0.207
-359.625	50.736	0.245	-0.235
-358.610	-200.000	-0.010	-0.059
-357.596	428.861	-0.090	0.197
-356.581	19.475	0.226	-0.184
-355.566	-81.350	0.053	-0.018
-354.552	136.538	0.147	0.193
-353.537	-77.968	-0.277	0.096
-352.523	-200.000	-0.075	-0.396
-351.508	800.000	0.020	-0.063
-350.493	-71.249	-0.181	-0.069
-349.479	-31.911	0.098	0.055
-348.464	280.649	-0.184	0.332
-347.450	-200.000	-0.000	0.049
-346.435	541.626	-0.092	-0.221
-345.420	158.226	0.051	-0.072
-344.406	-200.000	-0.021	0.130
-343.391	104.652	0.078	0.092
-342.377	747.183	0.138	-0.375
-341.362	50.409	0.161	0.154
-340.348	-87.308	0.293	0.090
-339.333	148.119	0.072	0.098
-338.318	-200.000	0.020	-0.269
-337.304	150.549	0.118	-0.162
-336.289	150.780	-0.168	0.231
-335.275	-40.826	0.062	0.032
-334.260	800.000	0.085	0.251
-333.245	800.000	-0.062	0.218
-332.231	-40.333	0.175	0.092
-331.216	102.559	0.099	-0.116
-330.202	348.828	-0.109	-0.217
-329.187	108.874	0.059	-0.071
-328.172	-200.000	-0.020	0.297
-327.158	-200.000	0.039	-0.268
-326.143	39.161	0.216	0.195
-325.129	28.599	0.240	0.205
-324.114	189.925	0.108	0.164
-323.099	-133.561	0.081	0.010
-322.085	-80.395	0.200	-0.067
-321.070	216.355	0.108	0.173
-320.056	186.924	0.112	-0.168
-319.041	430.504	0.048	0.105
-318.026	-112.259	-0.048	-0.010
-317.012	800.000	0.056	0.224
-315.997	-200.000	-0.042	0.237
-314.983	-200.000	0.022	0.175
-313.968	488.827	-0.023	-0.052
-312.953	800.000	-0.038	0.141
-311.939	557.838	-0.138	0.337
-310.924	-158.241	0.163	-0.010
-309.910	-102.347	0.189	0.046
-308.895	-200.000	0.000	0.187
-307.880	195.686	0.131	0.201
-306.866	-200.000	0.020	-0.100
-305.851	800.000	0.014	0.060
-304.837	203.325	0.008	-0.012
-303.822	-23.152	0.060	-0.037
-302.807	-66.470	0.318	-0.127
-301.793	800.000	0.046	0.148
-300.778	-93.682	-0.078	0.022
-299.764	-200.000	-0.019	0.353
-298.749	360.433	-0.118	-0.238
-297.735	-200.000	0.001	0.051
-296.720	-200.000	0.057	0.294
-295.705	800.000	-0.051	-0.203
-294.691	148.323	0.085	-0.115
-293.676	-132.576	0.218	-0.028
-292.662	-131.144	0.181	0.024
-291.647	-69.277	-0.314	0.121
-290.632	-119.919	0.288	-0.050
-289.618	-200.000	-0.036	0.190
-288.603	-23.341	-0.159	-0.097
-287.589	-37.564	0.109	0.059
-286.574	800.000	0.048	0.137
-285.559	-200.000	-0.049	0.340
-284.545	-60.324	-0.200	-0.086
-283.530	-95.232	0.101	-0.027
-282.516	-81.892	-0.326	0.107
-281.501	-7.906	0.164	-0.111
-280.486	208.320	0.190	-0.300
-279.472	-46.372	-0.123	-0.061
-278.457	-200.000	0.020	-0.320
-277.443	-110.445	-0.022	-0.005
-276.428	-74.437	0.147	0.053
-275.413	800.000	-0.005	-0.019
-274.399	-200.000	-0.030	0.225
-273.384	7.284	-0.118	-0.089
-272.370	19.402	0.237	-0.191
-271.355	697.937	-0.018	-0.047
-270.340	-44.551	-0.141	-0.071
-269.326	38.255	-0.150	0.135
-268.311	248.906	0.051	-0.087
-267.297	-9.888	0.037	0.025
-266.282	146.826	0.198	-0.267
-265.267	89.633	-0.053	0.060
-264.253	800.000	-0.101	-0.286
-263.238	800.000	-0.100	0.441
-262.224	-1.599	-0.109	-0.077
-261.209	-200.000	-0.011	0.060
-260.195	800.000	-0.035	0.124
-259.180	800.000	-0.080	0.267
-258.165	105.119	0.146	0.173
-257.151	153.960	-0.104	0.143
-256.136	161.358	-0.067	0.095
-255.122	-64.730	-0.022	0.009
-254.107	-81.975	-0.250	0.082
-253.092	20.077	0.105	-0.085
-252.078	-62.770	-0.162	0.067
-251.063	-200.000	-0.304	0.000
-250.049	88.825	-0.016	-0.017
-249.034	-74.048	-0.167	-0.061
-248.019	-200.000	0.038	-0.287
-247.005	800.000	-0.063	0.222
-245.990	-30.694	-0.034	0.020
-244.976	359.527	0.150	0.301
-243.961	-200.000	-0.006	0.180
-242.946	-200.000	0.212	0.001
-241.932	-137.933	-0.206	0.023
-240.917	192.244	-0.010	0.015
-239.903	95.911	0.218	-0.250
-238.888	80.897	0.164	-0.178
-237.873	-18.815	0.322	0.201
-236.859	800.000	-0.059	0.167
-235.844	484.850	0.029	0.065
-234.830	-149.073	0.266	-0.022
-233.815	-10.688	0.026	0.017
-232.800	46.626	0.118	0.110
-231.786	800.000	-0.074	0.263
-230.771	-95.380	0.102	-0.027
-229.757	3.938	-0.350	-0.258
-228.742	104.859	-0.376	0.446
-227.727	-200.000	-0.006	0.097
-226.713	2.623	-0.019	-0.014
-225.698	-115.523	-0.163	0.031
-224.684	12.958	-0.238	-0.185
-223.669	324.868	0.040	-0.078
-222.655	299.460	-0.075	-0.139
-221.640	321.264	0.075	0.143
-220.625	-29.356	-0.077	-0.044
-219.611	220.087	-0.078	-0.126
-218.596	-107.134	-0.256	0.057
-217.582	-46.270	0.202	-0.100
-216.567	-120.198	-0.197	-0.034
-215.552	57.933	-0.013	-0.013
-214.538	-189.150	-0.137	-0.002
-213.523	-200.000	0.036	-0.211
-212.509	114.684	0.146	0.179
-211.494	18.741	0.260	0.209
-210.479	151.025	0.083	0.113
-209.465	-200.000	0.033	0.194
-208.450	-200.000	0.016	0.414
-207.436	619.975	0.086	0.218
-206.421	28.038	-0.384	-0.325
-205.406	800.000	-0.009	0.031
-204.392	-31.264	0.161	0.091
-203.377	-200.000	-0.007	-0.433
-202.363	778.463	-0.174	0.479
-201.348	98.380	-0.059	-0.068
-200.333	-32.349	-0.201	-0.112
-199.319	-98.635	0.363	0.093
-198.304	78.979	-0.107	0.115
-197.290	-49.794	-0.131	-0.062
-196.275	-200.000	-0.029	-0.262
-195.260	329.694	-0.047	-0.090
-194.246	149.327	-0.099	-0.134
-193.231	-161.621	-0.167	-0.009
-192.217	-200.000	-0.017	0.207
-191.202	-33.610	0.261	0.145
-190.187	-23.385	-0.165	-0.099
-189.173	-200.000	-0.014	0.308
-188.158	-15.997	0.194	-0.124
-187.144	800.000	0.049	0.143
-186.129	-113.104	0.171	0.034
-185.114	-200.000	-0.013	-0.420
-184.100	-104.788	0.251	-0.058
-183.085	167.378	0.088	0.125
-182.071	222.376	-0.174	0.281
-181.056	800.000	0.071	0.215
-180.042	-53.256	0.102	-0.047
-179.027	-52.796	0.077	-0.036
-178.012	-31.717	0.075	0.042
-176.998	36.312	0.211	0.186
-175.983	-161.741	-0.200	-0.010
-174.969	14.455	-0.136	0.106
-173.954	-84.415	0.229	0.072
-172.939	-93.808	-0.366	-0.101
-171.925	-1.254	0.354	-0.251
-170.910	218.223	-0.140	0.225
-169.896	-200.000	0.014	-0.133
-168.881	148.442	0.074	-0.101
-167.866	-52.150	0.407	-0.189
-166.852	53.433	-0.052	-0.050
-165.837	-200.000	0.001	-0.414
-164.823	-200.000	0.008	-0.083
-163.808	-200.000	-0.000	-0.220
-162.793	-17.754	-0.272	0.171
-161.779	577.786	-0.080	-0.195
-160.764	11.799	0.108	-0.083
-159.750	387.048	0.082	0.170
-158.735	90.226	0.364	0.408
-157.720	601.617	-0.128	0.318
-156.706	-178.863	0.223	0.005
-155.691	-75.491	0.208	0.074
-154.677	51.449	0.060	0.058
-153.662	-97.401	-0.074	0.019
-152.647	-122.799	-0.122	-0.020
-151.633	428.964	-0.036	0.078
-150.618	-158.546	-0.136	0.008
-149.604	80.084	-0.220	0.237
-148.589	207.440	0.031	-0.048
-147.574	554.886	0.210	-0.506
-146.560	2.022	0.049	0.035
-145.545	-113.724	-0.335	-0.066
-144.531	324.288	-0.031	0.060
-143.516	-200.000	0.021	0.201
-142.502	-79.956	0.269	0.091
-141.487	-52.320	0.378	-0.175
-140.472	221.848	-0.148	-0.238
-139.458	-68.443	-0.367	0.143
-138.443	-71.096	0.168	0.063
-137.429	-33.602	-0.314	-0.174
-136.414	-200.000	0.000	-0.017
-135.399	-200.000	-0.004	0.201
-134.385	110.322	-0.113	-0.136
-133.370	528.083	0.081	-0.192
-132.356	-62.873	-0.105	0.043
-131.341	122.901	-0.293	-0.368
-130.326	-200.000	-0.025	-0.128
-129.312	-200.000	0.059	0.323
-128.297	-200.000	0.016	0.559
-127.283	800.000	-0.050	0.150
-126.268	-150.495	0.307	-0.024
-125.253	-132.035	0.240	-0.031
-124.239	-200.000	0.007	0.192
-123.224	-85.170	-0.320	-0.100
-122.210	800.000	-0.037	0.106
-121.195	-180.259	0.289	0.006
-120.180	-93.497	0.184	0.051
-119.166	465.563	-0.142	-0.317
-118.151	-149.350	-0.117	-0.009
-117.137	22.613	-0.192	0.157
-116.122	-93.635	0.020	-0.006
-115.107	-98.938	0.324	-0.082
-114.093	100.545	-0.184	0.214
-113.078	-200.000	0.004	0.042
-112.064	29.920	0.281	-0.239
-111.049	-58.925	0.173	-0.075
-110.034	39.649	0.129	0.116
-109.020	137.751	0.120	0.157
-108.005	63.225	0.140	0.141
-106.991	-148.701	0.100	0.008
-105.976	90.410	-0.169	0.189
-104.962	482.374	0.036	0.082
-103.947	-3.531	0.267	0.186
-102.932	-200.000	0.002	0.135
-101.918	-26.023	0.251	-0.147
-100.903	800.000	-0.110	-0.452
-99.889	-3.307	0.094	0.066
-98.874	128.032	-0.220	0.280
-97.859	303.826	-0.115	0.213
-96.845	139.889	0.106	-0.140
-95.830	-71.749	-0.053	0.020
-94.816	-102.892	-0.308	0.073
-93.801	325.696	0.126	0.242
-92.786	6.833	-0.147	-0.110
-91.772	-200.000	-0.018	-0.433
-90.757	-200.000	-0.015	0.135
-89.743	-104.478	0.099	-0.023
-88.728	800.000	0.058	0.170
-87.713	-60.391	0.141	-0.060
-86.699	45.065	0.337	-0.311
-85.684	412.504	0.052	-0.110
-84.670	238.739	0.112	-0.186
-83.655	-58.285	-0.303	0.132
-82.640	-147.130	0.271	0.023
-81.626	66.420	-0.095	0.096
-80.611	-48.404	0.246	-0.118
-79.597	-122.785	0.071	-0.012
-78.582	-113.713	0.284	0.055
-77.567	-200.000	0.030	-0.220
-76.553	800.000	-0.109	0.301
-75.538	144.264	0.267	-0.356
-74.524	-147.191	0.242	-0.021
-73.509	160.918	-0.092	-0.128
-72.494	-200.000	0.026	-0.415
-71.480	-36.336	0.073	-0.039
-70.465	-28.043	0.206	-0.119
-69.451	-185.038	0.074	-0.001
-68.436	-83.697	0.187	-0.060
-67.422	-165.936	-0.202	0.009
-66.407	48.855	-0.238	-0.223
-65.392	637.502	-0.091	0.231
-64.378	-200.000	-0.001	-0.092
-63.363	475.531	0.130	-0.294
-62.349	-36.359	0.139	0.075
-61.334	-19.906	-0.775	-0.478
-60.319	-51.711	0.503	-0.234
-59.305	-200.000	-0.006	-0.348
-58.290	800.000	0.303	0.948
-57.276	323.658	0.895	1.705
-56.261	-200.000	76.043	528.558
-55.246	533.840	1325.105	3134.048
-54.232	143.664	2561.826	3407.263
-53.217	110.306	2383.624	2858.239
-52.203	48.904	2122.336	1988.413
-51.188	43.571	2028.735	1851.965
-50.173	41.842	2009.933	1819.019
-49.159	54.642	2047.316	1970.334
-48.144	59.183	2067.560	2031.326
-47.130	44.575	2032.256	1864.099
-46.115	41.876	2020.906	1828.975
-45.100	41.701	2017.445	1824.171
-44.086	41.627	2015.676	1821.827
-43.071	41.592	2012.979	1818.999
-42.057	41.548	2011.021	1816.755
-41.042	41.597	2009.272	1815.547
-40.027	41.713	2006.712	1814.213
-39.013	41.642	2004.860	1811.820
-37.998	41.617	2003.393	1810.200
-36.984	41.636	2001.521	1808.609
-35.969	41.652	1999.776	1807.108
-34.954	41.747	1997.375	1805.725
-33.940	41.740	1995.848	1804.210
-32.925	41.753	1994.398	1802.937
-31.911	41.783	1992.535	1801.459
-30.896	41.762	1990.882	1799.705
-29.881	41.764	1990.010	1798.862
-28.867	41.732	1988.272	1796.925
-27.852	41.789	1986.566	1795.828
-26.838	41.736	1984.700	1793.598
-25.823	41.905	1981.757	1792.379
-24.809	41.835	1980.702	1790.724
-23.794	41.827	1978.618	1788.700
-22.779	41.815	1976.944	1787.011
-21.765	41.770	1976.001	1785.684
-20.750	41.754	1974.133	1783.784
-19.736	41.749	1972.240	1781.950
-18.721	41.788	1970.395	1780.566
-17.706	41.761	1968.633	1778.664
-16.692	41.804	1967.113	1777.596
-15.677	41.754	1965.572	1775.690
-14.663	41.750	1964.240	1774.381
-13.648	41.802	1962.741	1773.420
-12.633	41.786	1961.591	1772.172
-11.619	41.720	1960.677	1770.692
-10.604	41.789	1959.249	1769.937
-9.590	41.719	1957.915	1768.040
-8.575	41.738	1956.308	1766.691
-7.560	41.786	1954.833	1765.711
-6.546	41.755	1953.585	1764.237
-5.531	41.805	1952.284	1763.436
-4.517	41.799	1950.654	1761.843
-3.502	41.757	1949.853	1760.675
-2.487	41.792	1948.501	1759.693
-1.473	41.683	1947.710	1757.954
-0.458	41.846	1942.696	1754.787
0.556	39.036	1922.386	1725.493
1.571	34.100	1899.641	1661.937
2.586	29.127	1919.680	1635.296
3.600	27.516	1956.010	1651.504
4.615	26.496	1953.337	1639.858
5.629	23.235	1858.704	1532.103
6.644	17.904	1744.745	1394.611
7.659	14.671	1706.868	1338.336
8.673	14.356	1703.296	1332.900
9.688	14.326	1701.386	1331.047
10.702	14.375	1700.006	1330.238
11.717	14.124	1697.409	1326.087
12.731	14.527	1696.533	1328.498
13.746	18.024	1704.297	1362.393
14.761	20.821	1709.570	1388.824
15.775	19.202	1702.616	1370.184
16.790	17.137	1696.998	1349.158
17.804	15.859	1693.599	1336.194
18.819	14.823	1690.381	1325.327
19.834	14.169	1687.476	1317.753
20.848	13.722	1686.277	1313.161
21.863	13.360	1684.274	1308.622
22.877	13.196	1682.455	1305.795
23.892	12.968	1680.922	1302.692
24.907	12.834	1679.607	1300.503
25.921	12.775	1678.981	1299.433
26.936	12.774	1678.053	1298.592
27.950	12.830	1677.165	1298.237
28.965	12.919	1676.058	1297.963
29.980	12.951	1675.475	1297.646
30.994	12.949	1674.729	1296.939
32.009	13.049	1673.345	1296.537
33.023	13.075	1672.216	1295.750
34.038	13.099	1671.640	1295.381
35.053	13.099	1670.195	1294.143
36.067	12.960	1669.261	1292.221
37.082	13.023	1667.910	1291.554
38.096	13.096	1666.508	1290.926
39.111	12.998	1666.611	1290.119
40.126	13.045	1665.332	1289.382
41.140	13.002	1664.083	1287.968
42.155	12.946	1662.592	1286.263
43.169	12.838	1661.662	1284.585
44.184	12.801	1660.038	1282.931
45.199	12.805	1658.862	1281.939
46.213	12.771	1657.627	1280.609
47.228	12.899	1656.581	1280.685
48.242	12.855	1655.394	1279.304
49.257	13.040	1654.080	1279.616
50.271	12.890	1653.464	1277.862
51.286	12.964	1651.926	1277.134
52.301	12.987	1650.796	1276.322
53.315	12.938	1649.117	1274.536
54.330	12.921	1647.620	1273.131
55.344	12.883	1646.198	1271.627
56.359	12.796	1645.014	1269.933
57.374	12.854	1643.702	1269.250
58.388	12.887	1642.491	1268.459
59.403	12.855	1640.874	1266.855
60.417	12.768	1639.644	1265.126
61.432	12.800	1638.679	1264.511
62.447	12.788	1637.199	1263.169
63.461	12.719	1636.258	1261.798
64.476	12.752	1635.081	1261.033
65.490	12.685	1634.223	1259.744
66.505	12.817	1632.479	1259.302
67.520	12.788	1631.928	1258.543
68.534	12.750	1631.273	1257.638
69.549	12.812	1629.776	1256.845
70.563	12.794	1628.769	1255.820
71.578	12.739	1627.370	1254.208
72.593	12.738	1626.308	1253.272
73.607	12.749	1625.641	1252.729
74.622	12.691	1624.080	1250.973
75.636	12.663	1623.347	1250.086
76.651	12.707	1622.262	1249.477
77.666	12.694	1621.804	1248.917
78.680	12.636	1621.133	1247.844
79.695	12.649	1620.175	1247.099
80.709	12.705	1619.185	1246.647
81.724	12.740	1618.141	1246.003
82.739	12.776	1617.724	1245.843
83.753	12.843	1616.967	1245.650
84.768	12.859	1615.578	1244.592
85.782	12.869	1615.428	1244.444
86.797	13.044	1613.963	1244.526
87.812	12.991	1613.279	1243.488
88.826	12.923	1611.584	1241.559
89.841	12.933	1610.374	1240.591
90.855	13.005	1609.318	1240.208
91.870	12.959	1608.697	1239.276
92.884	12.962	1607.907	1238.580
93.899	13.043	1606.489	1237.988
94.914	13.007	1605.327	1236.711
95.928	12.948	1604.425	1235.465
96.943	13.075	1602.959	1235.180
97.957	13.059	1601.817	1234.070
98.972	13.018	1600.215	1232.420
99.987	13.082	1598.306	1231.317
101.001	13.045	1597.009	1229.930
102.016	12.941	1595.731	1228.066
103.030	12.999	1594.419	1227.383
104.045	12.950	1592.980	1225.800
105.060	13.003	1591.373	1224.847
106.074	12.958	1589.509	1222.970
107.089	12.906	1588.254	1221.510
108.103	12.832	1587.292	1220.116
109.118	12.787	1585.358	1218.189
110.133	12.754	1583.707	1216.568
111.147	12.829	1582.642	1216.196
112.162	12.776	1581.481	1214.805
113.176	12.847	1579.669	1213.832
114.191	12.834	1578.627	1212.824
115.206	12.878	1577.472	1212.151
116.220	12.882	1575.893	1210.864
117.235	12.866	1574.441	1209.527
118.249	12.892	1573.667	1209.016
119.264	12.827	1572.551	1207.569
120.279	12.812	1570.889	1206.081
121.293	12.835	1569.453	1205.035
122.308	12.775	1568.441	1203.717
123.322	12.799	1566.802	1202.529
124.337	12.855	1565.259	1201.644
125.352	12.776	1564.645	1200.491
126.366	12.763	1563.396	1199.330
127.381	12.809	1561.536	1198.132
128.395	12.793	1560.917	1197.434
129.410	12.738	1559.658	1195.963
130.424	12.793	1558.751	1195.565
131.439	12.953	1556.491	1194.882
132.454	12.900	1555.187	1193.393
133.468	12.906	1554.442	1192.756
134.483	12.830	1553.344	1191.264
135.497	12.941	1551.725	1190.717
136.512	12.986	1550.369	1189.898
137.527	12.968	1548.768	1188.432
138.541	13.013	1547.410	1187.606
139.556	13.008	1546.213	1186.551
140.570	12.955	1544.643	1184.859
141.585	13.140	1542.837	1184.692
142.600	13.147	1542.353	1184.271
143.614	13.058	1540.837	1182.362
144.629	13.129	1539.871	1182.021
145.643	13.169	1538.079	1180.832
146.658	13.194	1536.875	1179.977
147.673	13.240	1535.286	1178.980
148.687	13.065	1534.088	1176.712
149.702	13.195	1532.272	1176.143
150.716	13.098	1530.829	1174.239
151.731	13.042	1529.689	1172.865
152.746	13.039	1528.260	1171.643
153.760	13.033	1526.644	1170.258
154.775	13.024	1526.024	1169.614
155.789	13.145	1524.111	1168.899
156.804	13.116	1523.023	1167.755
157.819	13.196	1521.705	1167.206
158.833	13.189	1520.795	1166.356
159.848	13.252	1519.501	1165.708
160.862	13.294	1518.473	1165.112
161.877	13.336	1517.231	1164.352
162.892	13.243	1516.164	1162.776
163.906	13.175	1514.458	1160.886
164.921	13.076	1513.590	1159.422
165.935	13.137	1512.601	1158.993
166.950	13.172	1511.211	1158.068
167.964	13.236	1509.742	1157.289
168.979	13.209	1509.094	1156.499
169.994	13.254	1507.947	1155.832
171.008	13.199	1507.334	1154.877
172.023	13.327	1505.606	1154.341
173.037	13.297	1504.584	1153.246
174.052	13.345	1503.281	1152.483
175.067	13.344	1502.795	1152.000
176.081	13.288	1501.533	1150.541
177.096	13.206	1499.789	1148.535
178.110	13.259	1498.434	1147.762
179.125	13.237	1497.794	1147.022
180.140	13.369	1496.469	1146.820
181.154	13.318	1495.308	1145.475
182.169	13.333	1494.402	1144.783
183.183	13.371	1493.261	1144.071
184.198	13.443	1491.852	1143.385
185.213	13.397	1491.305	1142.551
186.227	13.431	1490.231	1141.860
187.242	13.563	1488.831	1141.593
188.256	13.527	1488.032	1140.632
189.271	13.478	1486.838	1139.282
190.286	13.542	1485.659	1138.716
191.300	13.479	1484.906	1137.602
192.315	13.404	1483.358	1135.805
193.329	13.348	1481.776	1134.107
194.344	13.391	1481.152	1133.822
195.359	13.286	1480.331	1132.377
196.373	13.376	1479.129	1131.975
197.388	13.418	1478.071	1131.347
198.402	13.498	1477.136	1131.078
199.417	13.541	1475.793	1130.244
200.432	13.703	1474.749	1130.448
201.446	13.734	1474.375	1130.276
202.461	13.735	1472.800	1128.977
203.475	13.773	1471.488	1128.129
204.490	13.813	1470.379	1127.452
205.504	13.787	1469.612	1126.584
206.519	13.732	1467.723	1124.663
207.534	13.739	1466.904	1123.985
208.548	13.774	1465.973	1123.407
209.563	13.694	1465.431	1122.348
210.577	13.640	1464.114	1120.879
211.592	13.738	1462.998	1120.585
212.607	13.764	1462.375	1120.188
213.621	13.861	1461.716	1120.237
214.636	13.960	1460.641	1119.982
215.650	13.841	1460.003	1118.593
216.665	13.812	1459.045	1117.562
217.680	13.891	1458.319	1117.439
218.694	14.001	1457.268	1117.279
219.709	13.978	1456.427	1116.378
220.723	13.927	1455.686	1115.369
221.738	13.900	1454.789	1114.398
222.753	13.920	1453.779	1113.664
223.767	14.006	1452.657	1113.282
224.782	13.970	1451.502	1112.055
225.796	14.022	1450.659	1111.660
226.811	13.927	1450.042	1110.451
227.826	14.169	1449.102	1111.252
228.840	14.056	1448.484	1109.928
229.855	14.056	1447.395	1108.996
230.869	13.941	1446.340	1107.322
231.884	14.005	1445.357	1106.893
232.899	13.999	1444.213	1105.882
233.913	14.004	1443.324	1105.136
234.928	14.007	1441.979	1104.031
235.942	14.044	1440.426	1102.988
236.957	13.910	1439.845	1101.554
237.972	13.919	1438.552	1100.528
238.986	14.079	1436.845	1100.181
240.001	14.051	1436.176	1099.391
241.015	14.168	1434.881	1099.072
242.030	14.107	1433.705	1097.673
243.045	14.091	1432.850	1096.816
244.059	14.091	1432.341	1096.331
245.074	14.042	1431.526	1095.287
246.088	14.179	1430.505	1095.312
247.103	14.237	1429.510	1094.832
248.117	14.162	1429.306	1094.087
249.132	14.268	1428.234	1093.868
250.147	14.377	1427.384	1093.832
251.161	14.399	1427.198	1093.736
252.176	14.389	1426.546	1093.077
253.190	14.427	1425.545	1092.463
254.205	14.439	1424.444	1091.602
255.220	14.613	1423.462	1091.891
256.234	14.589	1423.006	1091.286
257.249	14.529	1422.434	1090.361
258.263	14.606	1421.129	1089.763
259.278	14.489	1420.958	1088.774
260.293	14.610	1419.019	1087.980
261.307	14.642	1418.283	1087.530
262.322	14.600	1417.955	1086.904
263.336	14.671	1417.141	1086.648
264.351	14.703	1415.834	1085.757
265.366	14.713	1414.979	1085.070
266.380	14.731	1413.711	1084.119
267.395	14.752	1413.181	1083.751
268.409	14.779	1412.352	1083.199
269.424	14.748	1411.627	1082.343
270.439	14.758	1409.921	1081.005
271.453	14.689	1409.409	1080.069
272.468	14.685	1408.710	1079.415
273.482	14.767	1407.672	1079.054
274.497	14.771	1406.506	1078.088
275.512	14.789	1405.829	1077.591
276.526	14.798	1405.055	1076.961
277.541	14.750	1403.776	1075.578
278.555	14.706	1403.376	1074.891
279.570	14.728	1402.600	1074.344
280.585	14.779	1401.549	1073.770
281.599	14.879	1400.418	1073.453
282.614	14.932	1400.042	1073.411
283.628	14.877	1398.470	1071.753
284.643	14.896	1397.273	1070.866
285.657	14.923	1396.083	1070.031
286.672	14.848	1395.699	1069.158
287.687	14.915	1394.392	1068.495
288.701	14.899	1393.265	1067.435
289.716	14.929	1392.753	1067.139
290.730	14.987	1391.767	1066.661
291.745	14.999	1390.838	1065.926
292.760	14.979	1390.165	1065.192
293.774	14.938	1389.124	1064.037
294.789	14.886	1388.467	1063.110
295.803	15.096	1386.984	1063.217
296.818	15.171	1385.971	1062.820
297.833	15.122	1385.178	1061.809
298.847	15.013	1384.599	1060.576
299.862	14.967	1383.876	1059.638
300.876	15.049	1382.973	1059.374
301.891	15.152	1381.490	1058.794
302.906	15.124	1380.860	1058.043
303.920	15.240	1380.023	1058.041
304.935	15.243	1379.490	1057.557
305.949	15.235	1378.552	1056.693
306.964	15.298	1377.948	1056.531
307.979	15.340	1377.221	1056.149
308.993	15.281	1376.156	1054.866
310.008	15.320	1375.061	1054.179
311.022	15.362	1374.013	1053.545
312.037	15.334	1372.980	1052.484
313.052	15.327	1372.483	1051.966
314.066	15.276	1371.515	1050.812
315.081	15.411	1370.081	1050.463
316.095	15.241	1369.242	1048.663
317.110	15.253	1368.239	1047.879
318.125	15.276	1366.837	1046.855
319.139	15.390	1365.851	1046.717
320.154	15.304	1364.924	1045.377
321.168	15.370	1364.338	1045.252
322.183	15.312	1363.207	1043.932
323.197	15.209	1362.587	1042.723
324.212	15.359	1361.715	1042.895
325.227	15.441	1360.663	1042.504
326.241	15.471	1359.686	1041.849
327.256	15.423	1359.071	1040.992
328.270	15.526	1357.609	1040.418
329.285	15.429	1356.866	1039.156
330.300	15.335	1356.526	1038.220
331.314	15.424	1355.308	1037.748
332.329	15.464	1354.165	1037.027
333.343	15.416	1353.539	1036.159
334.358	15.550	1352.488	1036.090
335.373	15.551	1351.950	1035.592
336.387	15.472	1351.582	1034.734
337.402	15.578	1350.111	1034.165
338.416	15.584	1350.002	1034.029
339.431	15.538	1349.323	1033.134
340.446	15.631	1348.682	1033.121
341.460	15.591	1347.654	1031.997
342.475	15.697	1346.188	1031.437
343.489	15.694	1345.560	1030.843
344.504	15.782	1344.650	1030.595
345.519	15.828	1343.615	1029.991
346.533	15.892	1342.686	1029.577
347.548	15.863	1341.928	1028.731
348.562	15.873	1340.692	1027.751
349.577	15.911	1340.102	1027.445
350.592	15.911	1339.799	1027.120
351.606	15.943	1338.513	1026.236
352.621	15.820	1337.279	1024.450
353.635	15.847	1337.008	1024.315
354.650	15.798	1335.459	1022.744
355.665	15.920	1334.201	1022.429
356.679	15.876	1333.523	1021.551
357.694	15.961	1332.391	1021.108
358.708	15.864	1331.453	1019.712
359.723	15.953	1330.389	1019.345
360.738	16.024	1329.322	1018.866
361.752	15.899	1328.252	1017.200
362.767	15.922	1327.429	1016.623
363.781	15.898	1326.723	1015.843
364.796	15.983	1325.829	1015.581
365.810	16.034	1325.398	1015.472
366.825	16.133	1324.483	1015.279
367.840	16.085	1323.379	1014.050
368.854	16.087	1322.972	1013.665
369.869	16.179	1322.354	1013.649
370.883	16.286	1321.406	1013.477
371.898	16.307	1320.723	1012.988
372.913	16.230	1320.544	1012.304
373.927	16.116	1319.726	1010.904
374.942	16.280	1317.983	1010.460
375.956	16.335	1317.224	1010.118
376.971	16.289	1317.267	1009.784
377.986	16.278	1316.362	1008.937
379.000	16.297	1315.216	1008.079
380.015	16.259	1314.945	1007.560
381.029	16.377	1314.026	1007.470
382.044	16.410	1313.428	1007.119
383.059	16.411	1312.550	1006.363
384.073	16.370	1311.970	1005.582
385.088	16.460	1310.953	1005.248
386.102	16.456	1310.284	1004.621
387.117	16.469	1309.898	1004.318
388.132	16.544	1308.837	1003.860
389.146	16.501	1307.793	1002.716
390.161	16.480	1307.367	1002.175
391.175	16.355	1306.851	1000.948
392.190	16.507	1305.303	1000.575
393.205	16.505	1304.794	1000.087
394.219	16.473	1303.394	998.734
395.234	16.519	1302.727	998.404
396.248	16.549	1301.100	997.246
397.263	16.503	1299.917	995.984
398.278	16.524	1298.879	995.220
399.292	16.604	1297.130	994.265
400.307	16.490	1296.337	992.901
401.321	16.489	1295.328	992.032
402.336	16.530	1294.291	991.393
403.350	16.463	1293.674	990.435
404.365	16.479	1292.890	989.845
405.380	16.469	1291.803	988.866
406.394	16.657	1290.738	989.063
407.409	16.518	1290.840	988.240
408.423	16.649	1289.691	988.036
409.438	16.595	1289.074	987.164
410.453	16.716	1288.050	986.997
411.467	16.820	1287.073	986.768
412.482	16.860	1286.768	986.679
413.496	16.916	1286.173	986.460
414.511	16.774	1285.907	985.340
415.526	16.934	1284.683	985.245
416.540	16.904	1284.130	984.562
417.555	16.906	1283.205	983.779
418.569	16.951	1282.633	983.513
419.584	16.969	1281.984	983.033
420.599	16.938	1281.714	982.556
421.613	77.038	1322.066	1359.189
422.628	75.986	1327.945	1359.295
