DTS Sentinel unit serial number:	SN413079Multiplexer serial number:	ORYXHardware model number:	OX4-SRSoftware version number:	ORYX F/W v4.00 Oryx Data Collector v3.7.2.0data status	okinstallation	princeton_trtdifferential loss correction	single-endedforward channel	channel 4reverse channel	N/Adate	2019/09/13time	18:57:34forward acquisition time	60.00reverse acquisition time	0.00gamma	496.2192k internal	0.2310k external	0.2310temperature offset calibration	1.0175default loss term (dB/km)	0.3790temperature slope calibration	1.0000multiplexer offset coefficient	1.0000multiplexer slope coefficient	1.0000fibre end	0.00T internal ref (°C)	32.06T ext. ref 1 (°C)	3.96T ext. ref 2 (°C)	25.31length (m)	temperature (°C)	Stokes	anti-Stokes-747.200	800.000	0.076	0.308
-746.185	60.580	0.315	0.317
-745.171	800.000	0.117	0.399
-744.156	800.000	0.120	0.451
-743.142	-149.568	0.131	-0.010
-742.127	115.731	0.129	0.161
-741.112	178.223	-0.104	0.154
-740.098	-12.941	-0.210	-0.139
-739.083	-76.713	0.114	-0.041
-738.069	-3.472	0.189	0.134
-737.054	-7.133	-0.471	-0.325
-736.039	-200.000	0.025	-0.210
-735.025	-200.000	-0.019	0.215
-734.010	261.689	-0.177	-0.311
-732.996	-136.335	-0.280	0.033
-731.981	800.000	-0.016	-0.051
-730.966	24.053	-0.133	-0.112
-729.952	203.127	0.264	-0.415
-728.937	-54.622	-0.244	-0.112
-727.923	-200.000	-0.002	0.094
-726.908	-114.323	-0.314	-0.061
-725.894	-177.988	-0.113	-0.003
-724.879	-200.000	0.003	0.169
-723.864	-124.584	-0.074	-0.012
-722.850	-60.229	-0.092	-0.040
-721.835	-19.587	0.115	0.073
-720.821	262.281	-0.170	-0.300
-719.806	12.028	-0.263	0.205
-718.791	-123.798	0.108	0.017
-717.777	84.769	-0.103	-0.115
-716.762	-27.915	0.205	0.120
-715.748	106.324	-0.154	-0.185
-714.733	-200.000	-0.044	-0.345
-713.718	-28.529	-0.060	-0.035
-712.704	-171.440	0.371	-0.013
-711.689	-82.652	0.050	-0.017
-710.675	-72.253	-0.013	-0.005
-709.660	-70.285	-0.280	0.108
-708.645	-83.450	0.244	0.079
-707.631	-112.106	0.311	-0.064
-706.616	800.000	-0.041	-0.128
-705.602	-18.116	-0.116	-0.074
-704.587	-137.721	0.160	0.018
-703.572	144.206	-0.030	-0.041
-702.558	-200.000	0.060	0.292
-701.543	109.311	0.103	-0.125
-700.529	-21.578	0.154	-0.095
-699.514	-200.000	0.041	-0.208
-698.499	-23.355	-0.176	0.107
-697.485	681.409	0.064	-0.168
-696.470	67.096	-0.167	0.172
-695.456	149.484	-0.081	0.112
-694.441	53.534	0.043	0.042
-693.426	-200.000	0.034	0.219
-692.412	386.630	0.182	-0.382
-691.397	800.000	-0.033	-0.127
-690.383	-200.000	0.002	0.032
-689.368	800.000	0.059	0.168
-688.354	-200.000	0.013	-0.250
-687.339	273.138	0.124	-0.222
-686.324	439.645	-0.033	-0.074
-685.310	-62.455	-0.480	0.202
-684.295	109.832	0.241	-0.293
-683.281	767.780	-0.143	0.394
-682.266	-87.474	-0.190	-0.058
-681.251	62.291	-0.191	-0.193
-680.237	800.000	-0.084	-0.284
-679.222	107.345	-0.087	-0.105
-678.208	-113.136	-0.318	0.063
-677.193	-83.100	0.402	-0.131
-676.178	105.996	0.116	0.139
-675.164	-190.502	-0.508	0.006
-674.149	800.000	-0.050	-0.208
-673.135	154.344	0.057	0.079
-672.120	-112.129	-0.155	-0.032
-671.105	800.000	-0.058	0.176
-670.091	-200.000	-0.000	0.052
-669.076	-51.589	0.490	-0.232
-668.062	161.236	0.020	-0.029
-667.047	97.502	-0.355	-0.413
-666.032	265.368	0.125	0.221
-665.018	800.000	-0.059	0.226
-664.003	-96.443	0.321	0.086
-662.989	739.879	0.098	-0.266
-661.974	-200.000	-0.002	0.096
-660.959	265.747	0.074	0.130
-659.945	-104.344	0.133	-0.031
-658.930	83.897	0.038	-0.042
-657.916	139.221	0.107	-0.142
-656.901	-161.202	0.125	-0.007
-655.886	800.000	0.075	0.286
-654.872	800.000	-0.041	-0.120
-653.857	264.700	0.075	-0.133
-652.843	800.000	0.080	-0.227
-651.828	-79.863	-0.514	0.175
-650.814	78.217	-0.167	-0.181
-649.799	-49.484	-0.391	-0.188
-648.784	-156.589	-0.280	0.018
-647.770	541.896	0.071	-0.170
-646.755	-200.000	-0.037	-0.218
-645.741	-200.000	-0.035	0.185
-644.726	-24.855	0.137	0.082
-643.711	156.024	-0.105	-0.147
-642.697	0.451	0.084	-0.061
-641.682	-151.813	-0.150	0.011
-640.668	-49.506	0.054	0.026
-639.653	122.205	-0.221	-0.279
-638.638	800.000	-0.088	0.376
-637.624	-59.195	0.177	0.077
-636.609	224.832	0.084	-0.137
-635.595	-43.905	0.103	-0.053
-634.580	-200.000	-0.036	0.237
-633.565	131.303	0.269	-0.349
-632.551	152.324	-0.181	-0.250
-631.536	800.000	-0.013	-0.039
-630.522	800.000	0.030	-0.119
-629.507	-54.395	-0.245	0.112
-628.492	-1.493	0.204	0.146
-627.478	417.573	0.069	0.150
-626.463	94.876	-0.225	-0.259
-625.449	151.672	-0.124	-0.171
-624.434	513.443	-0.060	0.141
-623.419	221.390	-0.057	0.092
-622.405	-80.803	0.362	0.122
-621.390	-110.425	0.321	0.067
-620.376	-118.756	0.365	0.065
-619.361	-119.402	-0.327	0.057
-618.346	-28.820	-0.242	-0.141
-617.332	800.000	0.048	0.191
-616.317	800.000	0.034	0.143
-615.303	-19.616	0.171	0.107
-614.288	-60.371	0.054	-0.023
-613.273	-33.721	-0.265	-0.147
-612.259	-200.000	-0.015	-0.108
-611.244	-54.075	-0.247	-0.114
-610.230	624.820	-0.054	-0.138
-609.215	-200.000	-0.054	-0.378
-608.201	-154.796	0.260	-0.017
-607.186	25.323	-0.176	-0.147
-606.171	-200.000	-0.024	-0.166
-605.157	211.847	0.122	-0.195
-604.142	-102.679	0.441	0.106
-603.128	-200.000	-0.026	-0.316
-602.113	800.000	-0.092	0.290
-601.098	329.078	0.218	-0.423
-600.084	114.031	-0.120	0.148
-599.069	173.381	-0.070	0.101
-598.055	-143.423	0.093	0.009
-597.040	34.767	-0.108	-0.095
-596.025	-118.731	-0.030	-0.005
-595.011	800.000	0.154	-0.580
-593.996	139.038	0.115	-0.153
-592.982	33.613	-0.168	-0.148
-591.967	83.878	-0.073	-0.081
-590.952	-7.866	-0.081	0.055
-589.938	115.464	0.187	-0.230
-588.923	-18.555	0.240	-0.151
-587.909	800.000	0.028	0.114
-586.894	237.437	0.164	0.275
-585.879	-13.390	0.096	-0.063
-584.865	105.785	0.205	0.244
-583.850	139.009	0.270	0.359
-582.836	-200.000	0.057	-0.280
-581.821	800.000	0.054	0.177
-580.806	194.088	-0.133	0.204
-579.792	-200.000	-0.000	0.209
-578.777	495.694	0.068	-0.158
-577.763	442.786	-0.119	-0.264
-576.748	800.000	0.047	0.144
-575.733	190.470	-0.118	0.179
-574.719	-25.133	-0.478	-0.286
-573.704	-95.898	-0.301	-0.081
-572.690	800.000	-0.061	0.206
-571.675	272.831	-0.111	-0.197
-570.661	459.992	-0.120	-0.270
-569.646	-121.047	0.372	-0.063
-568.631	-123.794	0.313	-0.050
-567.617	69.740	0.105	-0.109
-566.602	440.989	0.086	-0.189
-565.588	-200.000	0.029	0.387
-564.573	-200.000	-0.002	-0.107
-563.558	-122.653	-0.088	0.014
-562.544	178.855	0.125	-0.184
-561.529	-200.000	0.040	-0.215
-560.515	201.849	0.141	0.219
-559.500	800.000	-0.054	0.236
-558.485	13.372	0.293	-0.229
-557.471	597.832	-0.137	-0.342
-556.456	25.520	-0.070	0.059
-555.442	-146.062	-0.142	-0.013
-554.427	-200.000	-0.005	0.207
-553.412	-117.493	0.165	-0.030
-552.398	-200.000	0.078	-0.507
-551.383	541.863	-0.072	0.174
-550.369	94.525	-0.108	0.124
-549.354	-89.280	0.235	-0.070
-548.339	-46.116	-0.152	0.075
-547.325	422.453	0.067	-0.145
-546.310	-200.000	-0.048	-0.292
-545.296	25.724	-0.422	-0.354
-544.281	-200.000	0.041	-0.205
-543.266	175.679	0.112	-0.163
-542.252	110.497	0.039	0.047
-541.237	377.164	0.038	-0.078
-540.223	-200.000	0.004	0.246
-539.208	42.418	0.097	-0.089
-538.193	-86.082	0.141	0.044
-537.179	-200.000	0.048	-0.280
-536.164	-64.813	-0.033	0.014
-535.150	207.642	-0.249	-0.392
-534.135	800.000	-0.095	-0.290
-533.121	-98.435	0.088	-0.023
-532.106	800.000	0.033	-0.124
-531.091	195.796	-0.043	-0.066
-530.077	-138.940	0.281	0.031
-529.062	-200.000	-0.012	0.167
-528.048	236.459	-0.198	-0.330
-527.033	-200.000	-0.005	-0.384
-526.018	38.788	-0.371	-0.333
-525.004	-77.360	0.236	0.083
-523.989	61.119	-0.047	-0.047
-522.975	132.574	-0.242	-0.315
-521.960	147.251	0.134	0.182
-520.945	108.842	-0.152	-0.183
-519.931	-119.628	-0.237	-0.041
-518.916	800.000	-0.049	-0.138
-517.902	6.868	-0.074	-0.056
-516.887	36.836	0.085	-0.075
-515.872	-145.605	0.025	0.002
-514.858	21.798	0.319	0.262
-513.843	545.857	0.044	-0.106
-512.829	-108.349	-0.211	-0.046
-511.814	-38.367	0.122	0.065
-510.799	94.402	0.068	0.077
-509.785	125.848	0.223	-0.284
-508.770	40.020	0.020	-0.018
-507.756	-97.128	0.251	-0.066
-506.741	-200.000	-0.044	0.334
-505.726	97.672	-0.029	-0.034
-504.712	132.191	0.040	0.052
-503.697	-6.571	0.210	-0.144
-502.683	800.000	-0.051	0.145
-501.668	-87.408	0.057	-0.017
-500.653	-200.000	-0.032	0.161
-499.639	63.392	0.082	0.082
-498.624	352.145	-0.118	-0.235
-497.610	727.246	-0.104	-0.280
-496.595	269.805	0.118	-0.209
-495.581	-97.798	0.039	-0.010
-494.566	284.659	0.170	-0.308
-493.551	-47.955	-0.157	0.076
-492.537	273.320	0.061	-0.109
-491.522	44.928	0.169	-0.157
-490.508	466.619	0.187	0.421
-489.493	-200.000	-0.010	0.098
-488.478	-5.053	-0.176	0.122
-487.464	-200.000	0.003	-0.020
-486.449	-52.509	0.116	0.054
-485.435	-80.479	-0.351	-0.118
-484.420	-200.000	-0.052	0.255
-483.405	133.756	0.227	-0.295
-482.391	-200.000	-0.044	-0.301
-481.376	380.498	0.053	-0.110
-480.362	-200.000	-0.016	-0.229
-479.347	8.662	-0.030	0.022
-478.332	-161.020	-0.232	0.012
-477.318	72.465	0.134	-0.141
-476.303	800.000	-0.075	0.329
-475.289	411.277	0.189	-0.402
-474.274	-76.454	0.215	-0.076
-473.259	-200.000	0.003	-0.125
-472.245	-200.000	0.003	-0.179
-471.230	-200.000	-0.023	0.375
-470.216	-72.448	0.195	0.072
-469.201	-200.000	0.017	0.189
-468.186	-200.000	-0.008	0.104
-467.172	-96.414	-0.334	0.089
-466.157	-90.056	-0.293	0.086
-465.143	-51.666	-0.069	0.032
-464.128	-114.750	-0.300	-0.058
-463.113	-131.705	0.162	-0.021
-462.099	732.884	0.116	0.312
-461.084	414.428	0.057	-0.122
-460.070	76.340	-0.083	0.088
-459.055	-19.546	-0.305	0.190
-458.040	-124.840	-0.283	-0.044
-457.026	-34.027	-0.083	0.046
-456.011	703.315	0.106	-0.282
-454.997	800.000	0.046	-0.140
-453.982	-168.890	-0.171	0.006
-452.968	-35.615	-0.157	0.085
-451.953	11.728	0.199	-0.153
-450.938	-113.079	-0.200	-0.040
-449.924	-46.910	0.388	-0.191
-448.909	124.959	0.135	-0.171
-447.895	800.000	-0.069	-0.240
-446.880	-47.960	-0.090	-0.044
-445.865	-200.000	-0.063	-0.434
-444.851	229.541	0.165	0.270
-443.836	-101.041	0.250	0.061
-442.822	26.407	0.055	0.046
-441.807	-144.559	-0.154	0.014
-440.792	800.000	0.048	0.143
-439.778	8.876	-0.081	-0.061
-438.763	-43.148	0.439	0.223
-437.749	800.000	0.052	-0.206
-436.734	658.083	-0.088	-0.226
-435.719	800.000	-0.114	0.404
-434.705	333.026	-0.128	0.248
-433.690	72.375	0.308	0.323
-432.676	146.918	0.039	0.053
-431.661	-200.000	-0.006	0.180
-430.646	187.809	-0.119	-0.179
-429.632	46.230	-0.365	-0.340
-428.617	-66.030	0.170	0.068
-427.603	77.384	0.173	0.184
-426.588	800.000	0.048	0.142
-425.573	130.437	0.140	0.180
-424.559	-46.697	0.304	0.150
-423.544	12.262	-0.087	0.067
-422.530	-12.113	-0.088	0.058
-421.515	800.000	0.087	0.301
-420.500	217.327	0.032	-0.052
-419.486	-200.000	0.049	-0.426
-418.471	424.474	0.222	-0.479
-417.457	-41.448	-0.194	0.100
-416.442	-200.000	-0.004	-0.321
-415.428	47.802	-0.268	0.251
-414.413	-166.705	-0.279	0.012
-413.398	-200.000	0.023	-0.262
-412.384	-148.443	-0.104	-0.009
-411.369	-47.691	0.229	-0.112
-410.355	-18.313	0.093	0.058
-409.340	220.309	-0.196	0.315
-408.325	-48.319	0.367	-0.177
-407.311	-58.763	0.235	0.102
-406.296	-200.000	0.023	0.176
-405.282	160.102	-0.174	-0.243
-404.267	-129.394	0.232	0.032
-403.252	135.206	0.082	-0.107
-402.238	-200.000	0.023	0.264
-401.223	-156.308	0.110	-0.007
-400.209	-9.353	-0.069	-0.046
-399.194	621.650	0.098	-0.246
-398.179	731.798	0.083	-0.223
-397.165	-200.000	0.034	-0.160
-396.150	191.631	0.060	0.091
-395.136	-43.365	0.247	0.125
-394.121	-151.519	-0.138	0.010
-393.106	432.829	-0.161	-0.350
-392.092	-54.678	0.477	-0.216
-391.077	-56.671	-0.094	-0.042
-390.063	218.582	0.059	0.094
-389.048	800.000	-0.069	0.298
-388.033	-200.000	-0.056	0.266
-387.019	455.943	-0.096	0.213
-386.004	6.957	0.162	0.121
-384.990	-200.000	0.007	0.116
-383.975	37.801	0.200	0.178
-382.960	-135.450	0.344	0.041
-381.946	-200.000	-0.030	-0.217
-380.931	56.826	0.124	0.121
-379.917	671.926	-0.066	-0.171
-378.902	-39.003	0.189	0.100
-377.888	-63.365	-0.200	-0.082
-376.873	-93.250	0.066	0.018
-375.858	-93.607	0.125	0.035
-374.844	-125.773	0.492	0.074
-373.829	31.444	0.179	0.154
-372.815	29.349	0.139	-0.118
-371.800	-182.594	-0.415	0.008
-370.785	-128.310	0.099	-0.014
-369.771	-93.266	0.374	-0.104
-368.756	21.495	0.159	-0.130
-367.742	117.547	0.115	-0.142
-366.727	-112.463	-0.015	0.003
-365.712	151.850	-0.065	0.089
-364.698	72.628	-0.285	-0.297
-363.683	-136.048	-0.215	0.025
-362.669	29.583	-0.167	0.142
-361.654	205.572	0.200	0.311
-360.639	800.000	-0.062	-0.203
-359.625	229.830	-0.077	-0.125
-358.610	-200.000	0.048	-0.213
-357.596	-200.000	-0.045	0.203
-356.581	-79.378	0.220	0.074
-355.566	388.031	0.121	0.250
-354.552	-63.454	-0.330	0.136
-353.537	41.642	0.232	0.210
-352.523	-9.560	0.247	0.165
-351.508	270.981	-0.257	0.452
-350.493	266.732	0.111	-0.194
-349.479	43.524	-0.251	0.229
-348.464	-165.474	0.130	-0.006
-347.450	218.959	-0.099	-0.159
-346.435	800.000	-0.035	0.122
-345.420	800.000	-0.082	0.229
-344.406	208.254	0.125	0.196
-343.391	-124.043	-0.141	0.022
-342.377	-53.054	0.126	-0.058
-341.362	-136.129	0.166	0.019
-340.348	800.000	0.006	-0.021
-339.333	202.161	0.122	-0.189
-338.318	-200.000	-0.003	0.105
-337.304	117.812	-0.137	0.169
-336.289	-67.488	0.057	0.022
-335.275	134.182	-0.203	-0.263
-334.260	-50.949	0.180	0.084
-333.245	-130.979	-0.155	0.021
-332.231	233.724	-0.187	-0.308
-331.216	-27.313	-0.167	-0.097
-330.202	741.632	0.089	0.239
-329.187	54.571	-0.154	-0.148
-328.172	800.000	-0.105	-0.341
-327.158	739.554	-0.058	0.157
-326.143	235.822	-0.120	0.198
-325.129	354.270	0.134	0.266
-324.114	283.468	-0.150	-0.269
-323.099	-200.000	-0.001	0.058
-322.085	-200.000	0.074	0.429
-321.070	-55.886	0.225	0.100
-320.056	-200.000	0.059	0.310
-319.041	-133.477	-0.289	-0.036
-318.026	365.422	-0.083	0.167
-317.012	309.918	-0.013	0.024
-315.997	-117.679	-0.299	-0.054
-314.983	-109.961	0.335	0.070
-313.968	92.708	0.020	0.023
-312.953	63.490	0.170	-0.171
-311.939	-67.243	0.155	-0.061
-310.924	-76.761	-0.115	0.040
-309.910	-60.554	-0.312	-0.132
-308.895	-117.790	-0.154	-0.028
-307.880	800.000	0.146	0.425
-306.866	656.898	-0.096	0.246
-305.851	-200.000	0.034	-0.273
-304.837	34.393	-0.048	-0.042
-303.822	-111.114	-0.128	0.026
-302.807	-121.781	0.123	-0.020
-301.793	-200.000	-0.023	0.190
-300.778	-200.000	-0.004	0.092
-299.764	103.175	-0.149	0.174
-298.749	-101.703	-0.181	-0.044
-297.735	-26.116	0.147	-0.086
-296.720	453.212	0.097	0.215
-295.705	-200.000	0.046	-0.220
-294.691	-58.790	0.177	-0.077
-293.676	45.690	-0.190	-0.175
-292.662	410.372	-0.054	-0.114
-291.647	-7.652	0.087	-0.059
-290.632	61.307	0.125	0.124
-289.618	-112.458	0.314	-0.063
-288.603	-65.346	-0.036	0.015
-287.589	53.961	-0.153	0.147
-286.574	135.950	-0.173	0.225
-285.559	-32.943	0.144	-0.080
-284.545	-200.000	-0.041	0.290
-283.530	-200.000	-0.030	0.138
-282.516	130.070	0.232	0.296
-281.501	47.718	-0.151	0.140
-280.486	-200.000	0.045	0.480
-279.472	-10.131	-0.118	0.078
-278.457	320.795	-0.104	0.197
-277.443	-40.789	0.264	-0.136
-276.428	306.536	0.245	-0.454
-275.413	-47.226	-0.094	-0.046
-274.399	133.602	-0.173	0.223
-273.384	302.248	0.158	0.292
-272.370	287.811	-0.048	0.086
-271.355	247.618	0.224	0.377
-270.340	-200.000	-0.059	0.286
-269.326	-51.400	0.128	-0.060
-268.311	-200.000	-0.012	-0.206
-267.297	-200.000	0.023	0.103
-266.282	-200.000	-0.017	0.148
-265.267	-13.366	-0.186	0.120
-264.253	-70.252	-0.363	0.137
-263.238	-161.113	0.326	0.017
-262.224	352.633	0.183	0.362
-261.209	16.416	-0.072	0.057
-260.195	95.955	-0.156	-0.178
-259.180	213.408	-0.097	-0.153
-258.165	-46.234	0.051	0.025
-257.151	-47.062	-0.172	0.084
-256.136	718.363	-0.147	-0.389
-255.122	-118.227	-0.233	-0.041
-254.107	234.748	-0.103	0.169
-253.092	800.000	-0.073	0.202
-252.078	-200.000	0.027	-0.453
-251.063	70.844	-0.082	-0.085
-250.049	-178.052	0.102	0.002
-249.034	-94.915	0.236	-0.064
-248.019	-162.744	0.174	0.008
-247.005	-164.764	-0.194	0.009
-245.990	800.000	-0.072	0.241
-244.976	127.471	-0.215	-0.272
-243.961	-200.000	0.009	0.062
-242.946	500.364	-0.060	-0.138
-241.932	-200.000	0.048	0.273
-240.917	-200.000	-0.005	0.208
-239.903	-52.426	-0.182	-0.084
-238.888	101.106	-0.180	-0.208
-237.873	-32.225	-0.033	0.018
-236.859	-200.000	-0.548	0.003
-235.844	322.127	-0.186	-0.352
-234.830	-200.000	0.027	0.309
-233.815	800.000	0.116	0.356
-232.800	18.258	-0.157	-0.125
-231.786	398.372	0.047	0.099
-230.771	290.475	0.161	0.291
-229.757	-81.706	0.451	0.147
-228.742	-200.000	-0.060	0.529
-227.727	400.843	-0.076	0.159
-226.713	7.729	-0.102	-0.076
-225.698	-42.444	-0.076	-0.038
-224.684	301.678	0.040	0.074
-223.669	800.000	-0.112	-0.418
-222.655	-68.461	0.293	-0.113
-221.640	-200.000	-0.000	0.057
-220.625	-52.006	-0.147	0.068
-219.611	-200.000	0.032	0.144
-218.596	-200.000	0.042	-0.275
-217.582	-94.953	0.111	0.030
-216.567	133.448	-0.139	-0.179
-215.552	800.000	0.028	0.105
-214.538	800.000	0.169	0.497
-213.523	-156.022	-0.427	-0.027
-212.509	-200.000	-0.033	0.235
-211.494	-90.664	-0.278	-0.080
-210.479	92.536	0.196	-0.220
-209.465	-116.029	-0.095	0.018
-208.450	-84.707	-0.253	-0.079
-207.436	-62.060	0.142	-0.059
-206.421	-28.899	0.053	0.030
-205.406	800.000	-0.088	0.254
-204.392	516.053	0.202	-0.469
-203.377	-42.225	-0.233	0.119
-202.363	493.959	0.052	0.118
-201.348	800.000	-0.040	0.110
-200.333	-200.000	0.049	-0.219
-199.319	800.000	0.115	0.398
-198.304	400.101	-0.073	0.153
-197.290	58.411	-0.232	0.226
-196.275	-200.000	-0.016	-0.098
-195.260	-132.595	-0.194	0.025
-194.246	-200.000	0.027	0.319
-193.231	-200.000	0.016	0.364
-192.217	-35.091	-0.188	-0.102
-191.202	293.171	-0.051	-0.092
-190.187	-128.031	0.290	-0.041
-189.173	-79.025	-0.165	-0.056
-188.158	-80.905	-0.347	0.114
-187.144	-166.768	0.326	0.013
-186.129	-128.129	-0.259	0.037
-185.114	800.000	-0.019	0.061
-184.100	616.676	-0.054	-0.136
-183.085	-183.644	-0.067	-0.001
-182.071	800.000	0.070	0.255
-181.056	76.066	0.227	-0.238
-180.042	-200.000	0.072	-0.329
-179.027	-200.000	0.053	0.304
-178.012	385.711	-0.098	0.201
-176.998	-91.233	0.377	0.107
-175.983	800.000	0.054	0.162
-174.969	-30.062	-0.129	-0.073
-173.954	-56.025	-0.072	0.032
-172.939	-50.763	-0.105	0.049
-171.925	37.703	-0.051	-0.045
-170.910	-171.051	0.153	-0.005
-169.896	392.434	-0.077	-0.160
-168.881	54.273	0.096	-0.092
-167.866	-81.291	-0.438	-0.143
-166.852	800.000	0.006	-0.019
-165.837	800.000	-0.085	0.308
-164.823	56.752	0.170	0.164
-163.808	63.977	0.159	0.158
-162.793	-117.816	-0.205	-0.037
-161.779	-100.177	-0.502	-0.124
-160.764	608.720	0.054	-0.133
-159.750	-200.000	-0.052	-0.262
-158.735	800.000	0.015	-0.063
-157.720	-79.162	0.153	-0.052
-156.706	-94.422	-0.102	0.028
-155.691	137.966	-0.085	-0.111
-154.677	165.159	0.128	0.179
-153.662	-120.078	0.184	0.031
-152.647	299.661	-0.085	0.156
-151.633	606.914	-0.093	0.230
-150.618	-200.000	0.019	0.197
-149.604	-53.041	0.039	0.018
-148.589	386.727	-0.044	0.090
-147.574	-45.328	0.109	0.054
-146.560	433.937	-0.094	-0.202
-145.545	371.373	-0.099	-0.199
-144.531	-37.030	0.285	0.151
-143.516	-200.000	0.021	-0.544
-142.502	27.937	-0.155	-0.130
-141.487	-200.000	0.001	-0.230
-140.472	-122.004	-0.208	-0.034
-139.458	800.000	0.079	-0.250
-138.443	328.453	0.153	-0.291
-137.429	120.706	0.096	-0.119
-136.414	157.486	0.183	-0.252
-135.399	-200.000	0.053	-0.254
-134.385	-200.000	0.040	0.190
-133.370	-200.000	-0.010	-0.258
-132.356	-200.000	-0.037	0.341
-131.341	-85.580	-0.193	-0.060
-130.326	208.933	-0.115	-0.179
-129.312	800.000	-0.039	-0.148
-128.297	478.659	0.159	0.358
-127.283	178.588	0.213	0.309
-126.268	-140.872	-0.093	0.010
-125.253	-13.857	-0.311	0.199
-124.239	45.506	0.085	-0.078
-123.224	-200.000	-0.033	-0.214
-122.210	800.000	0.028	-0.117
-121.195	-41.204	0.371	0.190
-120.180	3.474	0.198	-0.143
-119.166	-171.012	0.095	0.003
-118.151	-200.000	0.017	-0.498
-117.137	-96.874	0.090	-0.023
-116.122	-42.422	0.218	-0.110
-115.107	101.844	-0.058	0.067
-114.093	-200.000	0.009	0.239
-113.078	-200.000	0.027	0.454
-112.064	-110.393	0.199	-0.041
-111.049	139.692	0.060	0.078
-110.034	38.882	-0.045	-0.040
-109.020	697.553	0.099	0.258
-108.005	30.612	0.119	0.101
-106.991	-82.757	0.355	-0.114
-105.976	154.641	0.251	0.341
-104.962	379.690	-0.009	-0.019
-103.947	800.000	0.039	0.152
-102.932	-200.000	0.047	-0.269
-101.918	392.810	-0.143	-0.295
-100.903	800.000	0.057	0.245
-99.889	-200.000	0.009	-0.078
-98.874	253.540	-0.094	-0.159
-97.859	135.054	0.250	-0.322
-96.845	-200.000	0.067	0.470
-95.830	19.548	-0.467	-0.372
-94.816	-96.469	-0.426	0.111
-93.801	-200.000	0.015	0.081
-92.786	-175.680	-0.075	-0.002
-91.772	-118.551	-0.148	-0.026
-90.757	-118.723	0.200	-0.035
-89.743	368.756	-0.072	-0.144
-88.728	290.250	-0.036	0.065
-87.713	-200.000	-0.061	0.322
-86.699	-81.285	0.249	-0.081
-85.684	-7.451	0.311	-0.208
-84.670	-200.000	0.032	-0.343
-83.655	-200.000	0.021	0.176
-82.640	36.366	0.110	0.096
-81.626	556.954	0.043	-0.103
-80.611	-107.455	-0.336	0.073
-79.597	72.982	0.242	-0.250
-78.582	599.539	0.089	0.217
-77.567	-200.000	-0.019	0.112
-76.553	-200.000	0.060	-0.271
-75.538	-104.230	-0.234	-0.054
-74.524	-92.635	-0.161	-0.045
-73.509	395.503	0.061	-0.125
-72.494	-171.257	0.118	0.004
-71.480	-131.603	0.279	-0.036
-70.465	800.000	-0.073	-0.270
-69.451	-52.726	0.366	0.167
-68.436	-41.057	-0.103	0.053
-67.422	-130.332	-0.302	-0.041
-66.407	800.000	0.043	-0.140
-65.392	-97.619	-0.097	-0.025
-64.378	2.090	0.312	0.223
-63.363	-84.607	0.054	0.017
-62.349	24.696	0.179	0.147
-61.334	77.468	-1.027	-1.080
-60.319	-41.951	0.737	0.373
-59.305	796.892	-0.377	-1.027
-58.290	638.580	0.448	1.126
-57.276	634.379	0.609	1.528
-56.261	-200.000	98.137	616.434
-55.246	627.111	1384.143	3455.618
-54.232	193.516	2568.373	3842.099
-53.217	110.350	2297.748	2729.292
-52.203	38.901	2061.303	1820.570
-51.188	33.940	1977.139	1701.874
-50.173	32.405	1959.041	1672.596
-49.159	47.500	2010.178	1852.542
-48.144	48.816	2027.899	1880.657
-47.130	34.403	1989.577	1716.482
-46.115	32.061	1979.133	1686.392
-45.100	32.002	1976.280	1683.367
-44.086	31.944	1974.165	1680.981
-43.071	31.937	1971.089	1678.230
-42.057	31.848	1969.445	1675.974
-41.042	31.857	1967.104	1673.988
-40.027	31.997	1964.474	1672.932
-39.013	32.079	1962.373	1671.808
-37.998	31.938	1961.801	1669.999
-36.984	31.980	1959.886	1668.675
-35.969	32.063	1957.442	1667.271
-34.954	32.109	1956.075	1666.448
-33.940	32.012	1954.948	1664.559
-32.925	32.050	1952.807	1663.002
-31.911	32.038	1951.463	1661.692
-30.896	32.127	1948.805	1660.144
-29.881	32.023	1948.279	1658.714
-28.867	32.080	1946.519	1657.655
-27.852	32.108	1944.242	1655.896
-26.838	32.106	1942.630	1654.437
-25.823	32.098	1940.604	1652.575
-24.809	32.087	1939.031	1651.078
-23.794	32.104	1937.386	1649.760
-22.779	32.106	1935.764	1648.332
-21.765	32.039	1934.287	1646.415
-20.750	32.064	1932.475	1645.028
-19.736	32.075	1930.482	1643.366
-18.721	32.068	1929.198	1642.146
-17.706	32.080	1927.403	1640.660
-16.692	32.089	1926.493	1639.895
-15.677	32.058	1925.050	1638.334
-14.663	32.019	1923.663	1636.750
-13.648	32.112	1921.809	1635.914
-12.633	32.073	1921.081	1634.888
-11.619	32.125	1919.206	1633.682
-10.604	32.066	1918.079	1632.142
-9.590	32.058	1916.825	1630.945
-8.575	32.099	1914.939	1629.633
-7.560	32.078	1914.366	1628.899
-6.546	32.064	1913.014	1627.559
-5.531	32.083	1911.047	1625.983
-4.517	32.109	1909.910	1625.181
-3.502	32.106	1908.697	1624.059
-2.487	32.044	1907.713	1622.623
-1.473	32.029	1906.897	1621.732
-0.458	32.061	1901.959	1617.743
0.556	33.352	1881.469	1585.981
1.571	28.242	1860.160	1525.430
2.586	23.486	1880.634	1501.906
3.600	22.065	1915.547	1517.383
4.615	21.186	1908.825	1504.354
5.629	16.053	1808.422	1383.095
6.644	7.969	1693.023	1232.390
7.659	4.195	1658.388	1178.422
8.673	3.970	1654.742	1174.016
9.688	3.933	1653.484	1172.746
10.702	3.947	1652.905	1172.333
11.717	4.010	1649.288	1170.140
12.731	4.413	1648.674	1172.648
13.746	9.652	1660.556	1220.761
14.761	17.737	1678.533	1295.532
15.775	21.618	1683.776	1328.980
16.790	21.469	1683.039	1327.153
17.804	20.584	1679.347	1317.423
18.819	19.561	1676.500	1307.332
19.834	18.898	1674.590	1300.708
20.848	18.717	1672.668	1297.731
21.863	18.554	1671.797	1295.709
22.877	18.369	1669.955	1292.773
23.892	18.204	1668.431	1290.232
24.907	18.115	1668.232	1289.292
25.921	18.079	1666.622	1287.666
26.936	18.059	1666.198	1287.071
27.950	18.074	1665.060	1286.194
28.965	18.115	1664.062	1285.615
29.980	18.168	1663.604	1285.546
30.994	18.331	1662.766	1286.008
32.009	18.398	1661.493	1285.413
33.023	18.427	1660.630	1284.848
34.038	18.508	1659.551	1284.513
35.053	18.461	1658.276	1283.054
36.067	18.308	1657.381	1281.108
37.082	18.254	1655.704	1279.291
38.096	18.247	1654.679	1278.339
39.111	18.288	1654.460	1278.357
40.126	18.351	1653.653	1278.091
41.140	18.389	1652.665	1277.502
42.155	18.174	1650.825	1274.361
43.169	17.999	1649.000	1271.537
44.184	17.979	1647.827	1270.375
45.199	17.904	1647.000	1269.062
46.213	17.910	1645.985	1268.219
47.228	17.921	1644.704	1267.201
48.242	18.017	1644.118	1267.348
49.257	18.222	1642.960	1267.863
50.271	18.207	1641.732	1266.692
51.286	18.264	1640.093	1265.733
52.301	18.273	1639.079	1264.908
53.315	18.201	1637.920	1263.368
54.330	18.185	1635.849	1261.545
55.344	18.073	1634.044	1259.213
56.359	17.969	1632.689	1257.295
57.374	17.989	1632.119	1256.888
58.388	18.032	1630.716	1256.016
59.403	17.937	1628.886	1253.797
60.417	17.824	1627.673	1251.919
61.432	17.771	1626.843	1250.783
62.447	17.890	1625.123	1250.224
63.461	17.759	1624.649	1248.788
64.476	17.711	1623.253	1247.250
65.490	17.640	1622.487	1246.038
66.505	17.709	1620.491	1244.898
67.520	17.760	1620.448	1245.122
68.534	17.724	1619.112	1243.723
69.549	17.759	1618.065	1243.066
70.563	17.763	1616.679	1241.919
71.578	17.746	1615.480	1240.765
72.593	17.674	1614.307	1239.234
73.607	17.571	1613.130	1237.473
74.622	17.516	1612.353	1236.369
75.636	17.514	1611.573	1235.647
76.651	17.559	1610.553	1235.075
77.666	17.612	1610.006	1234.936
78.680	17.671	1608.691	1234.246
79.695	17.694	1607.920	1233.707
80.709	17.683	1607.285	1233.035
81.724	17.728	1606.725	1232.821
82.739	17.902	1605.855	1233.300
83.753	17.959	1604.723	1232.737
84.768	18.056	1604.312	1233.011
85.782	18.233	1603.263	1233.372
86.797	18.270	1602.895	1233.246
87.812	18.323	1602.358	1233.105
88.826	18.256	1600.883	1231.379
89.841	18.195	1599.878	1230.056
90.855	18.221	1598.209	1228.854
91.870	18.255	1597.758	1228.636
92.884	18.364	1596.287	1228.181
93.899	18.375	1595.585	1227.608
94.914	18.444	1594.194	1226.923
95.928	18.395	1593.720	1226.106
96.943	18.470	1592.110	1225.293
97.957	18.382	1590.754	1223.511
98.972	18.260	1589.463	1221.539
99.987	18.367	1587.990	1221.063
101.001	18.348	1586.229	1219.468
102.016	18.367	1584.746	1218.351
103.030	18.355	1583.702	1217.357
104.045	18.345	1582.418	1216.191
105.060	18.314	1581.309	1215.009
106.074	18.325	1579.372	1213.495
107.089	18.163	1577.784	1211.021
108.103	17.909	1575.582	1207.422
109.118	17.665	1574.464	1204.738
110.133	17.762	1572.747	1204.003
111.147	17.748	1571.639	1202.944
112.162	17.714	1570.880	1202.024
113.176	17.758	1568.892	1200.705
114.191	17.844	1567.704	1200.293
115.206	17.943	1566.618	1200.048
116.220	17.907	1565.263	1198.653
117.235	17.885	1563.816	1197.287
118.249	17.961	1562.247	1196.508
119.264	17.908	1561.317	1195.317
120.279	17.886	1559.755	1193.868
121.293	17.696	1558.748	1191.661
122.308	17.795	1556.592	1190.596
123.322	17.662	1555.264	1188.551
124.337	17.582	1553.438	1186.495
125.352	17.487	1552.902	1185.319
126.366	17.556	1551.421	1184.560
127.381	17.554	1550.228	1183.532
128.395	17.565	1549.126	1182.664
129.410	17.516	1548.065	1181.406
130.424	17.641	1546.789	1181.196
131.439	17.638	1545.402	1180.014
132.454	17.774	1544.415	1180.092
133.468	17.870	1542.688	1179.335
134.483	17.826	1541.307	1177.872
135.497	17.860	1540.332	1177.257
136.512	17.894	1538.490	1175.974
137.527	18.024	1536.966	1175.599
138.541	17.971	1536.271	1174.604
139.556	18.003	1534.576	1173.424
140.570	18.006	1533.679	1172.651
141.585	18.081	1532.356	1172.053
142.600	18.249	1531.400	1172.372
143.614	18.241	1530.391	1171.435
144.629	18.377	1529.007	1171.202
145.643	18.417	1527.918	1170.538
146.658	18.449	1526.491	1169.561
147.673	18.278	1525.263	1167.349
148.687	18.226	1523.412	1165.479
149.702	18.239	1521.577	1164.056
150.716	18.049	1520.092	1161.531
151.731	18.091	1518.646	1160.603
152.746	18.049	1517.464	1159.313
153.760	18.054	1516.121	1158.223
154.775	18.053	1515.482	1157.621
155.789	18.206	1514.152	1157.538
156.804	18.183	1513.297	1156.625
157.819	18.294	1511.354	1155.789
158.833	18.258	1511.119	1155.267
159.848	18.251	1510.206	1154.419
160.862	18.481	1509.358	1155.221
161.877	18.511	1507.639	1154.005
162.892	18.352	1506.118	1151.667
163.906	18.261	1504.210	1149.493
164.921	18.067	1502.844	1147.045
165.935	18.057	1501.767	1146.056
166.950	18.129	1500.350	1145.356
167.964	18.210	1499.812	1145.389
168.979	18.291	1498.921	1145.146
169.994	18.232	1497.600	1143.642
171.008	18.128	1496.660	1142.131
172.023	18.189	1495.222	1141.336
173.037	18.205	1494.517	1140.804
174.052	18.328	1493.856	1141.021
175.067	18.446	1492.547	1140.703
176.081	18.309	1491.411	1138.821
177.096	18.131	1489.764	1136.283
178.110	18.188	1488.229	1135.389
179.125	18.154	1487.122	1134.217
180.140	18.212	1486.085	1133.711
181.154	18.176	1485.621	1133.017
182.169	18.195	1484.753	1132.381
183.183	18.396	1482.872	1132.173
184.198	18.534	1482.396	1132.623
185.213	18.475	1481.253	1131.263
186.227	18.468	1479.970	1130.135
187.242	18.525	1479.523	1130.069
188.256	18.577	1478.378	1129.441
189.271	18.629	1477.395	1128.929
190.286	18.702	1476.394	1128.546
191.300	18.603	1475.155	1126.849
192.315	18.292	1473.896	1123.746
193.329	18.112	1471.986	1121.009
194.344	18.003	1471.346	1119.709
195.359	18.102	1470.168	1119.362
196.373	18.262	1468.994	1119.414
197.388	18.363	1468.211	1119.376
198.402	18.450	1467.275	1119.132
199.417	18.561	1466.289	1119.004
200.432	18.689	1466.053	1119.564
201.446	18.769	1465.436	1119.515
202.461	18.939	1464.094	1119.497
203.475	19.007	1462.924	1118.946
204.490	19.017	1461.827	1118.075
205.504	18.902	1461.213	1116.759
206.519	18.717	1460.061	1114.574
207.534	18.632	1458.358	1112.626
208.548	18.644	1457.265	1111.772
209.563	18.621	1456.238	1110.742
210.577	18.599	1455.445	1109.894
211.592	18.688	1454.402	1109.576
212.607	18.718	1453.484	1108.975
213.621	18.800	1453.118	1109.125
214.636	18.848	1452.866	1109.142
215.650	18.840	1451.075	1107.624
216.665	18.850	1450.581	1107.219
217.680	18.879	1450.033	1106.890
218.694	19.076	1448.751	1107.081
219.709	19.103	1447.875	1106.485
220.723	19.090	1446.866	1105.534
221.738	19.064	1446.015	1104.614
222.753	19.018	1445.303	1103.677
223.767	18.951	1443.931	1102.105
224.782	18.944	1443.293	1101.476
225.796	19.005	1442.662	1101.289
226.811	19.067	1442.116	1101.168
227.826	19.233	1441.291	1101.504
228.840	19.129	1439.793	1099.599
229.855	18.972	1438.770	1097.716
230.869	18.971	1438.021	1097.039
231.884	18.902	1436.979	1095.709
232.899	19.006	1435.411	1095.083
233.913	18.827	1434.530	1093.175
234.928	18.777	1433.261	1091.787
235.942	18.733	1431.895	1090.376
236.957	18.683	1430.756	1089.090
237.972	18.684	1429.559	1088.091
238.986	18.721	1428.411	1087.353
240.001	18.753	1427.353	1086.656
241.015	18.738	1426.789	1086.036
242.030	18.865	1425.124	1085.474
243.045	18.926	1424.346	1085.170
244.059	19.097	1423.411	1085.442
245.074	19.052	1422.825	1084.617
246.088	19.013	1422.128	1083.743
247.103	19.004	1421.967	1083.466
248.117	19.186	1420.824	1083.645
249.132	19.254	1420.488	1083.719
250.147	19.276	1419.867	1083.291
251.161	19.579	1419.294	1084.662
252.176	19.746	1418.929	1085.330
253.190	19.670	1418.597	1084.503
254.205	19.750	1417.128	1083.789
255.220	19.866	1416.101	1083.632
256.234	19.916	1415.504	1083.397
257.249	19.871	1415.045	1082.667
258.263	19.829	1413.840	1081.384
259.278	19.813	1412.809	1080.399
260.293	19.841	1411.996	1079.856
261.307	19.779	1411.209	1078.777
262.322	19.817	1410.926	1078.701
263.336	19.875	1409.828	1078.126
264.351	19.936	1408.945	1077.733
265.366	19.938	1407.760	1076.743
266.380	20.032	1406.762	1076.473
267.395	20.030	1406.085	1075.846
268.409	19.892	1405.172	1074.195
269.424	19.852	1404.011	1072.963
270.439	19.904	1402.593	1072.108
271.453	19.893	1401.688	1071.254
272.468	19.831	1401.106	1070.330
273.482	19.779	1400.230	1069.246
274.497	19.753	1399.341	1068.310
275.512	19.719	1398.493	1067.360
276.526	19.775	1397.495	1066.850
277.541	19.773	1396.254	1065.796
278.555	19.721	1395.580	1064.867
279.570	19.769	1394.677	1064.380
280.585	19.867	1394.230	1064.542
281.599	20.009	1393.542	1064.798
282.614	20.055	1392.608	1064.275
283.628	20.002	1391.235	1062.805
284.643	19.876	1390.025	1061.014
285.657	19.859	1388.689	1059.798
286.672	19.846	1388.167	1059.223
287.687	19.851	1387.290	1058.491
288.701	19.807	1386.131	1057.245
289.716	19.942	1385.445	1057.452
290.730	19.910	1384.921	1056.761
291.745	19.854	1383.769	1055.452
292.760	19.907	1382.902	1055.019
293.774	20.003	1381.738	1054.621
294.789	19.995	1380.993	1053.909
295.803	20.018	1380.615	1053.669
296.818	20.128	1379.811	1053.631
297.833	20.079	1378.554	1052.282
298.847	20.016	1377.369	1050.902
299.862	19.937	1376.329	1049.535
300.876	20.054	1375.445	1049.475
301.891	19.979	1374.557	1048.253
302.906	19.966	1374.281	1047.868
303.920	20.151	1373.670	1048.431
304.935	20.258	1372.820	1048.335
305.949	20.343	1371.770	1047.952
306.964	20.393	1371.594	1048.031
307.979	20.606	1370.216	1048.168
308.993	20.351	1369.766	1046.191
310.008	20.236	1368.404	1044.368
311.022	20.252	1367.570	1043.735
312.037	20.456	1366.357	1043.944
313.052	20.423	1365.430	1042.943
314.066	20.304	1364.486	1041.417
315.081	20.324	1363.264	1040.513
316.095	20.152	1362.070	1038.480
317.110	20.072	1360.965	1037.066
318.125	20.112	1359.942	1036.433
319.139	20.055	1358.981	1035.269
320.154	20.051	1358.165	1034.535
321.168	20.092	1357.511	1034.189
322.183	20.199	1356.148	1033.694
323.197	20.117	1355.475	1032.604
324.212	20.119	1354.508	1031.784
325.227	20.164	1354.250	1031.767
326.241	20.183	1352.874	1030.738
327.256	20.271	1352.237	1030.687
328.270	20.221	1351.490	1029.726
329.285	20.173	1350.408	1028.529
330.300	20.299	1349.333	1028.364
331.314	20.162	1348.981	1027.197
332.329	20.196	1347.561	1026.221
333.343	20.218	1346.581	1025.516
334.358	20.376	1345.717	1025.703
335.373	20.320	1345.424	1025.055
336.387	20.519	1343.912	1024.986
337.402	20.519	1343.616	1024.671
338.416	20.487	1343.082	1023.986
339.431	20.597	1342.712	1024.259
340.446	20.655	1341.416	1023.519
341.460	20.705	1340.664	1023.149
342.475	20.861	1339.966	1023.447
343.489	20.924	1339.563	1023.414
344.504	20.829	1338.796	1022.183
345.519	20.903	1337.624	1021.633
346.533	20.929	1336.791	1021.055
347.548	20.968	1336.267	1020.794
348.562	21.122	1334.832	1020.507
349.577	21.232	1333.930	1020.368
350.592	21.101	1332.917	1018.741
351.606	20.893	1332.274	1016.945
352.621	20.707	1330.928	1014.746
353.635	20.602	1330.173	1013.465
354.650	20.518	1329.295	1012.217
355.665	20.658	1327.894	1011.874
356.679	20.568	1327.409	1010.895
357.694	20.720	1326.102	1010.692
358.708	20.742	1325.627	1010.369
359.723	20.840	1324.226	1009.782
360.738	20.920	1323.084	1009.281
361.752	20.862	1322.092	1008.101
362.767	20.801	1321.350	1007.092
363.781	20.889	1320.425	1006.805
364.796	20.931	1319.738	1006.437
365.810	20.932	1319.268	1005.997
366.825	21.079	1318.116	1005.877
367.840	21.160	1318.122	1006.258
368.854	21.192	1317.504	1005.879
369.869	21.290	1317.033	1006.000
370.883	21.258	1316.259	1005.134
371.898	21.299	1315.501	1004.699
372.913	21.168	1314.467	1003.070
373.927	21.129	1313.221	1001.808
374.942	21.148	1312.745	1001.462
375.956	21.172	1312.372	1001.227
376.971	21.325	1311.224	1001.141
377.986	21.163	1310.050	999.226
379.000	21.215	1309.303	998.866
380.015	21.467	1308.831	999.862
381.029	21.377	1308.210	998.784
382.044	21.587	1307.591	999.423
383.059	21.510	1306.989	998.433
384.073	21.463	1306.498	997.699
385.088	21.450	1305.712	996.936
386.102	21.477	1304.784	996.293
387.117	21.586	1303.637	995.954
388.132	21.477	1303.173	994.889
389.146	21.204	1302.348	992.617
390.161	21.150	1301.752	991.771
391.175	21.304	1299.943	991.180
392.190	21.315	1299.727	990.987
393.205	21.289	1298.938	990.151
394.219	21.431	1297.700	989.926
395.234	21.536	1296.907	989.828
396.248	21.528	1295.374	988.521
397.263	21.404	1294.307	986.922
398.278	21.234	1293.232	985.054
399.292	21.324	1291.659	984.280
400.307	21.214	1290.720	982.854
401.321	21.207	1289.613	981.885
402.336	21.104	1288.430	980.322
403.350	21.085	1287.710	979.580
404.365	21.153	1286.754	979.145
405.380	21.154	1285.784	978.328
406.394	21.279	1285.214	978.508
407.409	21.303	1284.497	978.011
408.423	21.460	1283.914	978.359
409.438	21.597	1283.195	978.488
410.453	21.643	1282.845	978.392
411.467	21.657	1282.209	977.897
412.482	21.717	1281.670	977.738
413.496	21.808	1281.067	977.694
414.511	21.873	1280.511	977.547
415.526	21.934	1279.401	976.953
416.540	22.016	1278.511	976.645
417.555	22.018	1278.373	976.466
418.569	22.035	1277.340	975.684
419.584	22.033	1277.142	975.430
420.599	21.881	1276.453	973.979
421.613	145.277	1432.365	1794.618
422.628	139.850	1455.073	1794.719
