DTS Sentinel unit serial number:	SN413079Multiplexer serial number:	ORYXHardware model number:	OX4-SRSoftware version number:	ORYX F/W v4.00 Oryx Data Collector v3.7.2.0data status	okinstallation	princeton_trtdifferential loss correction	single-endedforward channel	channel 4reverse channel	N/Adate	2019/09/12time	18:48:19forward acquisition time	15.00reverse acquisition time	0.00gamma	496.2192k internal	0.2307k external	0.2307temperature offset calibration	1.0139default loss term (dB/km)	0.3790temperature slope calibration	1.0000multiplexer offset coefficient	1.0000multiplexer slope coefficient	1.0000fibre end	0.00T internal ref (°C)	32.94T ext. ref 1 (°C)	3.01T ext. ref 2 (°C)	27.45length (m)	temperature (°C)	Stokes	anti-Stokes-747.200	-178.579	0.632	0.015
-746.185	-200.000	0.064	0.462
-745.171	74.134	0.194	0.207
-744.156	77.244	0.439	0.474
-743.142	212.091	0.316	-0.506
-742.127	5.966	0.581	-0.437
-741.112	-92.042	-0.199	-0.057
-740.098	-48.076	0.399	0.196
-739.083	-116.986	-0.863	-0.160
-738.069	35.442	0.435	0.388
-737.054	-26.361	0.232	-0.138
-736.039	-200.000	-0.055	0.275
-735.025	-35.577	0.357	0.197
-734.010	-170.428	0.644	0.023
-732.996	-129.106	-0.191	-0.027
-731.981	-114.910	-0.600	0.116
-730.966	12.932	-0.093	0.073
-729.952	-200.000	0.027	-0.538
-728.937	-200.000	0.087	-0.585
-727.923	-135.376	-0.394	0.048
-726.908	-116.409	0.761	0.143
-725.894	284.808	0.451	0.826
-724.879	-200.000	-0.014	-0.338
-723.864	-6.958	-0.691	-0.477
-722.850	-2.169	-0.111	-0.079
-721.835	153.920	0.675	-0.940
-720.821	-122.997	1.458	-0.238
-719.806	221.540	-0.287	-0.468
-718.791	498.600	0.117	0.273
-717.777	152.903	0.517	-0.718
-716.762	259.526	-0.336	-0.588
-715.748	-200.000	0.010	-0.313
-714.733	-200.000	-0.058	0.503
-713.718	-14.315	0.396	0.259
-712.704	25.925	0.423	0.358
-711.689	-23.730	0.264	0.160
-710.675	11.262	0.215	0.167
-709.660	46.425	0.919	0.865
-708.645	62.504	-0.280	-0.284
-707.631	70.623	-0.305	0.321
-706.616	326.543	0.207	0.402
-705.602	375.276	-0.060	-0.124
-704.587	-191.265	-0.316	-0.003
-703.572	-97.385	0.532	-0.141
-702.558	131.256	-0.463	0.604
-701.543	29.480	-0.354	-0.306
-700.529	-200.000	0.078	0.482
-699.514	-46.279	-0.631	-0.315
-698.499	-97.479	-0.839	-0.221
-697.485	-101.442	-0.506	-0.125
-696.470	-9.460	0.273	-0.185
-695.456	-75.359	0.422	0.153
-694.441	180.780	0.491	0.731
-693.426	-97.602	0.194	-0.051
-692.412	-63.782	0.236	-0.098
-691.397	37.600	-0.247	0.222
-690.383	11.013	0.795	-0.617
-689.368	-200.000	-0.052	0.230
-688.354	299.184	0.193	0.361
-687.339	362.227	0.117	0.238
-686.324	-200.000	0.154	-0.919
-685.310	-42.608	0.280	0.144
-684.295	-117.346	0.926	-0.170
-683.281	800.000	-0.432	1.525
-682.266	-200.000	-0.007	-0.080
-681.251	190.517	0.073	-0.111
-680.237	-12.822	0.420	-0.277
-679.222	-27.252	0.346	-0.204
-678.208	179.001	-0.802	-1.189
-677.193	-200.000	-0.035	-0.313
-676.178	-96.078	0.251	-0.068
-675.164	366.364	-0.023	-0.047
-674.149	-60.212	0.754	-0.326
-673.135	186.290	0.209	0.315
-672.120	560.711	0.334	-0.819
-671.105	-76.851	-0.497	-0.176
-670.091	-200.000	-0.014	-0.685
-669.076	197.802	-0.301	0.466
-668.062	463.738	0.214	0.486
-667.047	-200.000	-0.056	-0.716
-666.032	-105.142	-0.779	-0.180
-665.018	-30.922	-0.272	-0.156
-664.003	97.143	0.409	0.476
-662.989	-162.495	-0.386	0.019
-661.974	-28.848	-0.167	0.097
-660.959	-109.890	-0.752	0.160
-659.945	-12.356	-0.555	-0.368
-658.930	-101.383	-0.139	0.034
-657.916	341.235	-0.430	0.852
-656.901	-61.628	0.169	-0.072
-655.886	132.127	0.298	-0.389
-654.872	445.915	-0.188	0.418
-653.857	-200.000	0.114	-0.561
-652.843	-3.708	-0.701	0.493
-651.828	71.140	-0.498	0.524
-650.814	-188.830	0.988	-0.012
-649.799	-200.000	0.036	-0.184
-648.784	800.000	-0.181	0.742
-647.770	-123.689	0.066	-0.011
-646.755	-99.684	-0.703	-0.178
-645.741	4.168	-0.184	-0.136
-644.726	-22.119	-0.127	0.078
-643.711	13.486	-0.382	-0.300
-642.697	-200.000	-0.196	0.968
-641.682	800.000	0.327	1.195
-640.668	-51.170	-0.273	-0.129
-639.653	207.561	0.112	-0.177
-638.638	-116.731	-1.104	-0.205
-637.624	-136.991	1.170	-0.136
-636.609	-200.000	0.060	1.022
-635.595	-25.849	0.516	-0.308
-634.580	-135.174	0.480	-0.058
-633.565	-102.435	0.290	0.070
-632.551	800.000	0.085	0.265
-631.536	152.090	0.135	-0.186
-630.522	316.936	-0.160	-0.307
-629.507	-162.860	-1.139	-0.056
-628.492	104.717	-0.429	0.512
-627.478	27.276	-0.498	-0.424
-626.463	-200.000	-0.072	-1.420
-625.449	-103.029	-0.405	-0.097
-624.434	74.173	0.200	0.213
-623.419	-178.751	-0.458	0.011
-622.405	224.284	0.566	-0.926
-621.390	81.932	-0.638	-0.700
-620.376	-76.530	-0.829	-0.295
-619.361	-139.139	1.265	0.138
-618.346	413.588	-0.153	-0.329
-617.332	-40.704	0.455	0.239
-616.317	-45.875	0.567	0.283
-615.303	355.178	-0.036	-0.072
-614.288	264.887	0.259	0.456
-613.273	-86.783	-0.746	-0.231
-612.259	-15.811	-0.427	0.275
-611.244	-200.000	0.040	0.703
-610.230	-9.907	0.705	0.475
-609.215	-69.288	0.280	0.109
-608.201	-107.093	-0.456	0.102
-607.186	-67.687	-1.081	0.428
-606.171	-200.000	0.107	0.484
-605.157	-14.401	0.228	0.148
-604.142	-200.000	0.094	-0.792
-603.128	81.086	0.357	-0.390
-602.113	-200.000	0.016	0.466
-601.098	-34.053	-0.465	-0.258
-600.084	-200.000	-0.006	-0.086
-599.069	228.852	0.285	-0.470
-598.055	-84.177	-0.439	0.141
-597.040	492.345	0.345	-0.800
-596.025	-104.901	0.512	-0.119
-595.011	370.724	0.129	-0.264
-593.996	-200.000	-0.041	0.289
-592.982	-200.000	0.023	0.337
-591.967	-191.996	-0.383	-0.004
-590.952	47.470	0.497	-0.468
-589.938	-132.805	0.138	-0.018
-588.923	-124.451	-0.396	-0.062
-587.909	27.596	-0.318	-0.270
-586.894	800.000	-0.094	-0.380
-585.879	187.962	-0.126	0.190
-584.865	423.871	-0.225	0.489
-583.850	62.973	-0.381	0.385
-582.836	-200.000	0.105	0.665
-581.821	-10.954	-0.390	0.260
-580.806	667.261	0.221	-0.576
-579.792	457.093	-0.305	-0.684
-578.777	-185.408	0.521	-0.008
-577.763	316.449	0.193	0.368
-576.748	-3.143	-0.206	0.145
-575.733	276.037	0.270	0.483
-574.719	345.529	0.229	0.454
-573.704	-32.523	-0.324	-0.183
-572.690	-74.414	0.524	0.191
-571.675	-200.000	0.042	-0.452
-570.661	-9.877	0.356	0.239
-569.646	800.000	-0.017	-0.053
-568.631	141.993	-0.531	-0.711
-567.617	51.422	0.371	-0.356
-566.602	433.141	-0.086	0.188
-565.588	-11.927	-0.455	0.301
-564.573	84.463	0.150	-0.165
-563.558	-20.307	0.467	0.290
-562.544	-96.415	-0.535	0.143
-561.529	-138.461	0.542	-0.060
-560.515	-86.602	0.451	-0.140
-559.500	-140.279	0.402	0.042
-558.485	-144.886	-0.971	0.090
-557.471	800.000	0.044	-0.142
-556.456	664.290	-0.194	0.504
-555.442	62.537	0.077	0.078
-554.427	19.146	0.639	0.518
-553.412	-200.000	-0.044	0.279
-552.398	339.187	-0.390	0.767
-551.383	390.469	0.211	-0.441
-550.369	800.000	0.163	-0.528
-549.354	414.826	-0.367	0.788
-548.339	-142.298	0.358	0.036
-547.325	-127.577	-0.330	-0.048
-546.310	342.639	-0.207	-0.410
-545.296	9.251	0.260	-0.199
-544.281	632.417	0.261	-0.666
-543.266	-20.909	-0.257	-0.159
-542.252	15.381	-0.303	0.240
-541.237	-45.987	0.622	0.309
-540.223	242.451	0.068	-0.114
-539.208	-200.000	0.044	-0.484
-538.193	-101.716	-0.563	0.138
-537.179	552.343	0.182	0.440
-536.164	-45.439	0.539	-0.269
-535.150	-181.478	0.106	-0.002
-534.135	220.167	0.030	-0.048
-533.121	-107.549	-0.441	-0.097
-532.106	211.961	0.412	0.654
-531.091	-10.976	-0.244	0.162
-530.077	-59.928	-0.316	0.136
-529.062	-122.083	-0.353	0.058
-528.048	173.848	0.412	-0.600
-527.033	-78.889	0.368	-0.126
-526.018	-9.158	-0.174	0.117
-525.004	603.677	-0.082	0.205
-523.989	-155.832	-0.787	0.051
-522.975	14.610	-0.990	-0.779
-521.960	-45.378	0.732	-0.366
-520.945	-140.723	0.560	0.058
-519.931	120.499	-0.167	-0.209
-518.916	89.047	0.319	-0.358
-517.902	-1.776	0.746	-0.529
-516.887	-9.625	-0.654	-0.439
-515.872	540.655	-0.225	0.539
-514.858	334.169	0.406	0.791
-513.843	-1.127	0.602	0.429
-512.829	-143.321	-0.476	0.046
-511.814	78.217	0.372	-0.401
-510.799	493.661	-0.465	1.074
-509.785	107.432	0.377	-0.451
-508.770	748.312	-0.255	-0.693
-507.756	591.009	0.337	0.838
-506.741	-119.193	0.743	0.131
-505.726	367.502	-0.087	-0.177
-504.712	174.949	-0.191	-0.279
-503.697	42.021	0.154	-0.141
-502.683	-119.108	-0.031	-0.006
-501.668	800.000	-0.085	0.287
-500.653	-200.000	0.094	-0.863
-499.639	-111.102	0.549	0.113
-498.624	27.654	-0.887	-0.752
-497.610	-175.783	-0.311	-0.008
-496.595	-97.868	1.168	0.304
-495.581	800.000	0.177	0.735
-494.566	127.563	0.148	-0.189
-493.551	-29.688	0.650	0.374
-492.537	-200.000	0.044	-0.551
-491.522	-36.983	-0.079	0.043
-490.508	-40.153	-0.326	0.171
-489.493	-200.000	0.066	-0.712
-488.478	-200.000	-0.921	-0.001
-487.464	-200.000	-0.079	-0.363
-486.449	61.329	0.251	0.251
-485.435	-29.730	0.256	0.147
-484.420	341.151	0.139	0.274
-483.405	-200.000	0.029	0.292
-482.391	-90.414	0.075	0.022
-481.376	9.361	-0.906	-0.690
-480.362	117.171	0.296	-0.366
-479.347	705.702	-0.038	0.102
-478.332	251.572	-0.105	0.180
-477.318	336.298	-0.350	-0.684
-476.303	800.000	-0.197	-0.745
-475.289	-174.079	-0.323	-0.010
-474.274	-159.617	0.339	0.019
-473.259	800.000	-0.237	0.674
-472.245	-200.000	-0.048	0.805
-471.230	-200.000	0.020	-0.318
-470.216	800.000	0.118	0.464
-469.201	-55.046	0.775	0.351
-468.186	595.088	0.175	-0.436
-467.172	69.330	-0.195	-0.202
-466.157	24.364	0.258	-0.215
-465.143	-157.592	0.273	-0.016
-464.128	-200.000	0.230	0.000
-463.113	800.000	0.138	-0.408
-462.099	136.484	0.423	0.555
-461.084	76.102	-0.932	0.992
-460.070	-81.118	-0.224	0.074
-459.055	-136.416	-0.662	-0.077
-458.040	20.485	0.233	0.189
-457.026	344.188	-0.253	-0.499
-456.011	-200.000	0.056	-0.795
-454.997	96.795	0.238	0.274
-453.982	-138.123	-0.723	0.081
-452.968	372.478	-0.317	0.648
-451.953	-120.209	0.634	0.109
-450.938	68.165	0.583	-0.600
-449.924	-144.726	-0.246	-0.023
-448.909	22.704	0.435	-0.358
-447.895	-200.000	0.025	-0.136
-446.880	800.000	-0.329	1.170
-445.865	800.000	0.189	0.788
-444.851	-200.000	0.093	-0.669
-443.836	89.868	-0.263	0.295
-442.822	266.292	-0.261	0.458
-441.807	85.146	0.292	0.322
-440.792	-103.138	-0.131	0.031
-439.778	-200.000	0.008	-0.407
-438.763	-88.231	0.052	-0.016
-437.749	602.975	-0.176	-0.441
-436.734	163.621	0.310	-0.438
-435.719	69.628	0.353	0.365
-434.705	-48.754	-0.410	0.198
-433.690	-28.179	0.479	0.278
-432.676	-115.802	-0.291	-0.055
-431.661	-200.000	0.128	-0.603
-430.646	67.682	-0.404	-0.414
-429.632	35.354	-0.387	-0.341
-428.617	-14.863	-0.118	-0.076
-427.603	-112.974	0.312	0.062
-426.588	38.549	0.593	0.531
-425.573	779.159	0.298	0.819
-424.559	-74.987	0.158	0.057
-423.544	4.268	0.584	0.430
-422.530	-200.000	0.040	0.413
-421.515	13.438	-0.519	-0.404
-420.500	345.717	0.267	-0.526
-419.486	233.222	0.227	-0.376
-418.471	190.177	-0.284	-0.428
-417.457	-97.477	-0.518	0.135
-416.442	-24.189	-0.834	-0.500
-415.428	800.000	-0.240	1.010
-414.413	51.160	-0.356	0.339
-413.398	-35.885	-0.380	0.207
-412.384	553.362	0.222	-0.537
-411.369	-47.085	-0.178	-0.087
-410.355	-169.432	-0.714	0.026
-409.340	800.000	-0.078	0.325
-408.325	1.941	0.136	0.099
-407.311	338.036	-0.227	-0.443
-406.296	-129.290	0.451	0.063
-405.282	-97.451	-0.476	-0.124
-404.267	-200.000	0.140	1.048
-403.252	680.140	-0.123	0.321
-402.238	-42.486	-0.460	0.235
-401.223	-200.000	0.704	0.002
-400.209	-78.923	0.268	0.092
-399.194	-55.610	-0.748	-0.336
-398.179	800.000	-0.048	-0.145
-397.165	-101.046	0.295	0.073
-396.150	341.116	0.245	-0.480
-395.136	800.000	-0.033	0.108
-394.121	346.446	0.167	-0.329
-393.106	38.296	-0.085	0.076
-392.092	264.043	-0.369	0.644
-391.077	-85.533	0.137	0.043
-390.063	-200.000	-0.081	0.776
-389.048	353.555	0.016	0.032
-388.033	-44.989	0.472	0.236
-387.019	800.000	-0.079	0.299
-386.004	-167.717	0.105	0.004
-384.990	3.795	-0.524	-0.384
-383.975	26.870	-0.394	0.331
-382.960	-113.459	-0.370	0.073
-381.946	-23.038	0.330	0.200
-380.931	29.547	-0.165	0.141
-379.917	-126.742	0.750	-0.111
-378.902	11.993	-0.541	-0.417
-377.888	-124.479	0.184	-0.029
-376.873	232.789	0.540	0.890
-375.858	196.767	0.397	0.606
-374.844	-8.740	0.395	-0.266
-373.829	-179.772	0.173	-0.004
-372.815	-23.570	-0.402	0.242
-371.800	522.037	0.196	-0.461
-370.785	-128.024	-0.811	0.117
-369.771	800.000	-0.232	0.672
-368.756	800.000	-0.028	0.102
-367.742	363.971	-0.332	-0.669
-366.727	-200.000	0.032	0.240
-365.712	90.888	-0.303	0.340
-364.698	-145.203	0.619	0.056
-363.683	-88.225	-0.697	-0.209
-362.669	9.078	-0.365	0.276
-361.654	-200.000	0.004	0.693
-360.639	-60.752	-0.313	0.133
-359.625	-74.022	-0.100	-0.036
-358.610	126.781	0.229	-0.291
-357.596	-106.639	0.379	-0.084
-356.581	800.000	0.073	-0.282
-355.566	1.054	0.564	0.405
-354.552	504.606	-0.360	-0.835
-353.537	-200.000	0.136	-0.753
-352.523	-200.000	-0.114	-1.063
-351.508	-139.552	0.543	0.058
-350.493	268.886	-0.156	0.275
-349.479	59.445	0.320	0.316
-348.464	-200.000	0.081	0.543
-347.450	-5.621	0.429	-0.294
-346.435	298.556	-0.205	-0.377
-345.420	139.385	-0.349	0.459
-344.406	56.318	-0.428	0.417
-343.391	-200.000	-0.014	-0.078
-342.377	116.828	-0.369	-0.454
-341.362	200.741	0.069	0.107
-340.348	-37.190	0.603	-0.323
-339.333	130.655	-0.526	0.674
-338.318	248.061	0.016	0.027
-337.304	3.758	0.237	0.173
-336.289	-0.424	0.412	-0.293
-335.275	-158.517	-0.426	-0.025
-334.260	800.000	-0.037	0.132
-333.245	69.409	0.368	0.379
-332.231	-200.000	0.190	1.156
-331.216	800.000	-0.063	-0.241
-330.202	53.421	-0.306	0.294
-329.187	-171.135	-0.379	-0.013
-328.172	-200.000	0.178	-1.029
-327.158	326.083	-0.260	-0.497
-326.143	777.663	0.283	0.773
-325.129	-139.794	-0.456	-0.048
-324.114	-76.012	-0.705	-0.249
-323.099	-68.344	0.477	-0.185
-322.085	135.554	0.320	-0.417
-321.070	-123.303	0.371	0.059
-320.056	-170.335	0.157	-0.006
-319.041	53.462	-0.284	-0.272
-318.026	800.000	-0.123	-0.361
-317.012	469.694	0.050	0.112
-315.997	-200.000	-0.081	0.858
-314.983	186.133	0.047	-0.070
-313.968	334.780	-0.577	1.118
-312.953	325.818	-0.315	0.602
-311.939	426.790	-0.083	0.179
-310.924	800.000	0.046	-0.179
-309.910	-84.478	-0.438	0.138
-308.895	-129.309	0.753	0.105
-307.880	-124.737	-0.529	0.082
-306.866	34.654	0.517	-0.451
-305.851	800.000	-0.055	0.157
-304.837	457.863	0.249	0.553
-303.822	46.401	0.471	-0.436
-302.807	438.013	0.292	-0.636
-301.793	-139.459	-1.013	0.108
-300.778	-152.220	0.253	-0.018
-299.764	800.000	0.234	0.915
-298.749	65.359	0.585	0.591
-297.735	-75.825	0.712	0.252
-296.720	74.921	-0.447	0.470
-295.705	800.000	0.087	-0.244
-294.691	-73.572	0.758	0.276
-293.676	-200.000	-0.101	-0.676
-292.662	-70.722	0.821	0.310
-291.647	61.319	-0.336	-0.333
-290.632	-59.655	0.385	-0.165
-289.618	-67.921	0.150	-0.059
-288.603	-79.237	0.748	0.253
-287.589	800.000	-0.205	0.640
-286.574	304.095	-0.330	-0.612
-285.559	509.101	-0.173	-0.402
-284.545	-64.478	-0.386	0.157
-283.530	112.154	0.503	-0.608
-282.516	46.079	0.652	-0.603
-281.501	44.585	-0.568	0.521
-280.486	-200.000	0.067	-0.649
-279.472	-200.000	-0.067	-0.989
-278.457	-136.003	0.530	-0.062
-277.443	167.902	0.361	-0.512
-276.428	800.000	0.198	-0.755
-275.413	-33.310	-0.270	0.149
-274.399	282.402	-0.343	0.614
-273.384	567.095	0.191	-0.464
-272.370	-46.051	-0.193	-0.095
-271.355	0.193	1.140	0.812
-270.340	-171.841	-0.267	-0.009
-269.326	-34.733	-0.471	-0.257
-268.311	-138.997	-0.379	0.041
-267.297	568.812	-0.261	-0.634
-266.282	348.486	0.428	-0.843
-265.267	800.000	-0.132	0.459
-264.253	16.924	-0.803	0.634
-263.238	800.000	0.140	-0.545
-262.224	-67.540	-0.545	-0.213
-261.209	-115.924	0.689	0.128
-260.195	486.629	0.242	-0.550
-259.180	-4.799	-0.196	0.135
-258.165	-200.000	-0.030	-0.796
-257.151	82.658	0.535	0.580
-256.136	800.000	-0.230	0.886
-255.122	800.000	-0.226	0.687
-254.107	-109.445	-0.468	0.099
-253.092	-200.000	0.109	-0.483
-252.078	-125.640	-0.645	-0.097
-251.063	-159.641	0.143	0.008
-250.049	-76.588	-0.571	-0.200
-249.034	-156.103	1.098	-0.069
-248.019	198.465	0.143	-0.218
-247.005	747.412	-0.118	0.316
-245.990	-200.000	0.034	-0.876
-244.976	18.366	0.833	0.663
-243.961	159.159	-0.172	-0.239
-242.946	-200.000	-0.022	0.258
-241.932	-200.000	-0.054	0.770
-240.917	-93.710	-0.846	0.233
-239.903	411.194	0.260	0.550
-238.888	35.003	-0.439	0.383
-237.873	-70.092	-0.726	0.275
-236.859	-200.000	0.192	-0.903
-235.844	-200.000	-0.019	-0.718
-234.830	-35.220	0.452	0.245
-233.815	273.418	-0.486	-0.857
-232.800	26.520	-0.248	-0.207
-231.786	9.693	0.665	-0.503
-230.771	315.404	-0.395	-0.742
-229.757	-70.471	-1.074	0.405
-228.742	-114.691	-0.080	-0.015
-227.727	-200.000	0.072	-0.342
-226.713	800.000	0.172	-0.509
-225.698	-200.000	0.074	-0.617
-224.684	268.099	0.072	0.126
-223.669	483.077	-0.346	0.784
-222.655	-167.995	-0.324	-0.013
-221.640	27.433	-0.543	0.455
-220.625	-200.000	0.023	-0.457
-219.611	271.167	-0.270	0.473
-218.596	-200.000	0.062	0.334
-217.582	-200.000	-0.032	-0.245
-216.567	-132.166	-0.198	0.026
-215.552	196.954	0.169	0.257
-214.538	-79.050	-0.391	-0.132
-213.523	-34.951	-0.559	-0.304
-212.509	-24.395	0.146	-0.086
-211.494	280.955	0.259	0.461
-210.479	-18.022	0.504	-0.315
-209.465	-43.848	-0.127	0.063
-208.450	20.202	-0.167	-0.134
-207.436	-29.298	0.157	0.089
-206.421	214.055	0.333	-0.525
-205.406	-31.020	-0.325	0.183
-204.392	-4.001	-0.242	-0.167
-203.377	438.423	0.232	-0.504
-202.363	-168.948	0.716	0.027
-201.348	-200.000	-0.032	-0.672
-200.333	-92.177	-0.204	-0.057
-199.319	-59.022	-0.367	-0.158
-198.304	-32.834	0.443	0.245
-197.290	89.243	-0.273	0.303
-196.275	-81.526	0.673	-0.220
-195.260	-180.191	0.602	-0.013
-194.246	-9.608	-0.713	0.473
-193.231	331.885	0.186	0.357
-192.217	-100.972	0.659	0.161
-191.202	12.428	0.147	-0.113
-190.187	-63.314	-0.636	0.261
-189.173	9.034	0.840	-0.631
-188.158	-58.938	-0.628	0.270
-187.144	-9.259	0.593	-0.394
-186.129	-200.000	-0.005	0.154
-185.114	-47.443	-0.610	0.295
-184.100	-123.729	0.446	-0.070
-183.085	800.000	-0.119	0.379
-182.071	-68.408	-0.617	0.238
-181.056	53.423	-0.091	0.087
-180.042	425.074	0.224	0.480
-179.027	-200.000	0.032	0.907
-178.012	6.104	0.823	-0.606
-176.998	-51.320	0.051	0.024
-175.983	278.743	-0.158	-0.281
-174.969	18.151	-0.559	-0.443
-173.954	273.000	0.210	-0.369
-172.939	183.128	-0.582	-0.855
-171.925	-100.152	0.249	-0.062
-170.910	-81.324	-0.479	0.157
-169.896	-98.343	0.905	-0.231
-168.881	-101.319	-0.694	0.168
-167.866	-42.717	0.504	-0.255
-166.852	230.232	-0.178	-0.289
-165.837	800.000	0.144	-0.613
-164.823	732.718	0.096	0.255
-163.808	-137.293	0.637	0.072
-162.793	-41.112	-0.958	0.492
-161.779	-200.000	-0.053	-0.572
-160.764	-148.174	0.511	-0.042
-159.750	-200.000	-0.076	-0.372
-158.735	13.117	0.490	0.377
-157.720	-73.182	1.581	0.575
-156.706	766.089	0.145	-0.393
-155.691	-158.757	-0.080	0.005
-154.677	317.855	0.299	0.563
-153.662	-200.000	0.120	-0.770
-152.647	443.701	-0.041	-0.089
-151.633	-5.112	-0.153	-0.105
-150.618	-200.000	0.026	-0.588
-149.604	-200.000	0.021	0.103
-148.589	-110.090	1.373	-0.285
-147.574	588.657	0.126	0.309
-146.560	194.107	-0.325	-0.489
-145.545	107.119	0.445	0.526
-144.531	204.567	0.364	-0.561
-143.516	-46.638	-0.151	-0.073
-142.502	589.770	-0.191	0.469
-141.487	-56.432	0.470	0.207
-140.472	0.638	-0.232	0.165
-139.458	-15.134	0.197	-0.125
-138.443	99.671	0.168	-0.193
-137.429	800.000	0.129	0.470
-136.414	56.300	-1.069	1.031
-135.399	800.000	-0.290	0.849
-134.385	-200.000	-0.011	0.763
-133.370	157.383	-0.346	-0.476
-132.356	-18.477	-0.470	0.291
-131.341	800.000	-0.115	0.334
-130.326	-42.798	0.424	-0.214
-129.312	-182.892	0.961	0.017
-128.297	35.179	-0.748	0.651
-127.283	-103.989	0.383	-0.089
-126.268	-14.309	0.159	0.102
-125.253	-178.801	0.507	0.011
-124.239	-78.545	0.476	-0.162
-123.224	201.957	0.210	0.321
-122.210	-120.440	-0.066	-0.011
-121.195	88.688	0.247	0.273
-120.180	343.629	-0.047	0.091
-119.166	-139.469	0.202	0.021
-118.151	262.308	0.605	1.041
-117.137	-50.103	0.490	-0.230
-116.122	-200.000	-0.069	-0.623
-115.107	800.000	-0.037	-0.149
-114.093	-200.000	-0.041	-0.394
-113.078	-56.552	-0.863	0.380
-112.064	800.000	-0.231	-0.935
-111.049	800.000	-0.205	0.643
-110.034	169.543	-0.468	-0.664
-109.020	-108.640	0.481	-0.102
-108.005	-39.488	0.269	-0.140
-106.991	779.900	0.158	0.427
-105.976	606.166	0.101	-0.250
-104.962	56.299	0.365	0.352
-103.947	54.857	0.176	-0.169
-102.932	-21.764	0.267	0.161
-101.918	-58.726	0.424	-0.182
-100.903	800.000	-0.079	-0.229
-99.889	63.181	0.392	-0.390
-98.874	-4.550	-0.687	0.470
-97.859	340.605	-0.436	-0.844
-96.845	-91.273	-1.155	-0.328
-95.830	-114.267	-0.452	-0.086
-94.816	-43.587	-0.417	0.208
-93.801	-200.000	-0.032	0.622
-92.786	-131.508	0.162	0.021
-91.772	-200.000	0.014	-0.312
-90.757	-200.000	-0.085	0.776
-89.743	-27.336	0.523	0.302
-88.728	5.935	0.141	-0.104
-87.713	-102.216	-1.237	0.295
-86.699	800.000	-0.283	0.788
-85.684	131.330	0.185	0.236
-84.670	8.259	-0.470	-0.350
-83.655	800.000	-0.092	0.389
-82.640	-76.793	-0.169	-0.059
-81.626	108.079	0.234	-0.276
-80.611	-200.000	-0.079	0.856
-79.597	-200.000	-0.007	-0.052
-78.582	125.570	0.371	0.464
-77.567	800.000	-0.257	-0.706
-76.553	-136.324	0.214	-0.025
-75.538	-134.910	0.170	0.020
-74.524	800.000	0.071	0.231
-73.509	781.382	0.313	0.848
-72.494	148.710	-0.150	-0.200
-71.480	-200.000	-0.072	-0.336
-70.465	166.729	-0.213	-0.300
-69.451	-29.862	0.493	0.278
-68.436	224.295	-0.137	0.220
-67.422	-200.000	0.029	0.476
-66.407	800.000	0.227	0.742
-65.392	658.709	-0.057	-0.146
-64.378	-200.000	0.042	-0.670
-63.363	267.052	-0.186	-0.322
-62.349	135.241	-0.367	0.472
-61.334	-1.553	-1.107	-0.773
-60.319	47.344	0.771	0.711
-59.305	800.000	-0.490	-1.733
-58.290	261.280	0.657	1.126
-57.276	176.680	1.209	1.740
-56.261	-200.000	96.505	582.923
-55.246	650.358	1362.064	3451.338
-54.232	198.760	2534.624	3840.389
-53.217	108.922	2285.215	2703.924
-52.203	39.519	2047.519	1815.842
-51.188	34.798	1963.505	1699.405
-50.173	33.122	1945.662	1669.114
-49.159	48.570	1998.015	1852.624
-48.144	49.354	2015.209	1875.509
-47.130	35.197	1977.621	1714.922
-46.115	32.954	1967.599	1686.168
-45.100	32.778	1964.490	1681.869
-44.086	32.665	1961.985	1678.643
-43.071	32.787	1958.473	1676.662
-42.057	32.848	1954.992	1674.151
-41.042	32.591	1955.677	1672.394
-40.027	32.827	1952.732	1671.901
-39.013	32.856	1950.317	1670.019
-37.998	32.829	1949.098	1668.677
-36.984	32.872	1946.561	1666.818
-35.969	32.875	1944.642	1665.136
-34.954	32.839	1942.244	1662.695
-33.940	32.937	1941.655	1662.989
-32.925	33.008	1939.331	1661.557
-31.911	32.785	1938.969	1659.222
-30.896	32.911	1937.549	1659.048
-29.881	32.929	1936.037	1657.849
-28.867	32.832	1934.304	1655.448
-27.852	32.932	1933.383	1655.467
-26.838	32.890	1930.703	1652.736
-25.823	32.992	1928.595	1651.760
-24.809	32.999	1927.270	1650.621
-23.794	32.725	1925.193	1646.385
-22.779	32.791	1922.406	1644.514
-21.765	32.906	1921.960	1645.067
-20.750	32.954	1919.966	1643.716
-19.736	32.942	1918.724	1642.479
-18.721	33.177	1915.966	1642.096
-17.706	33.020	1914.659	1639.550
-16.692	33.009	1913.972	1638.802
-15.677	32.938	1912.581	1636.923
-14.663	33.090	1909.929	1635.910
-13.648	33.065	1908.249	1634.184
-12.633	32.866	1909.087	1633.116
-11.619	32.896	1907.054	1631.577
-10.604	32.932	1904.761	1629.856
-9.590	33.088	1904.136	1630.606
-8.575	33.261	1902.458	1630.591
-7.560	33.039	1901.203	1627.538
-6.546	32.958	1900.133	1625.868
-5.531	32.973	1898.751	1624.741
-4.517	33.130	1897.025	1624.554
-3.502	32.854	1898.029	1622.975
-2.487	32.900	1894.836	1620.577
-1.473	32.903	1894.991	1620.669
-0.458	32.945	1889.425	1616.204
0.556	33.973	1869.800	1588.500
1.571	29.693	1850.402	1536.393
2.586	25.471	1871.819	1518.449
3.600	24.593	1905.001	1537.684
4.615	23.809	1900.765	1527.387
5.629	18.183	1801.298	1401.375
6.644	8.414	1682.073	1233.420
7.659	3.511	1644.162	1168.442
8.673	3.090	1640.679	1162.683
9.688	3.019	1640.342	1161.806
10.702	3.089	1638.113	1160.647
11.717	2.842	1635.347	1156.725
12.731	3.201	1635.083	1159.144
13.746	9.859	1651.122	1220.911
14.761	19.864	1670.434	1311.282
15.775	24.407	1679.331	1352.671
16.790	25.087	1679.321	1357.700
17.804	25.126	1678.537	1357.237
18.819	25.132	1677.028	1355.942
19.834	25.138	1677.042	1355.883
20.848	25.293	1677.236	1357.091
21.863	25.506	1674.863	1356.660
22.877	25.405	1674.675	1355.622
23.892	25.554	1672.795	1355.102
24.907	25.624	1672.909	1355.605
25.921	25.339	1672.489	1352.998
26.936	25.429	1671.089	1352.425
27.950	25.565	1670.521	1352.868
28.965	25.505	1670.337	1352.146
29.980	25.473	1668.441	1350.252
30.994	25.623	1666.676	1349.829
32.009	25.797	1664.944	1349.614
33.023	25.713	1665.310	1349.162
34.038	25.480	1664.559	1346.687
35.053	25.640	1663.836	1347.182
36.067	25.688	1662.178	1346.077
37.082	25.761	1661.314	1345.802
38.096	25.796	1660.441	1345.238
39.111	25.601	1659.664	1343.033
40.126	25.718	1659.239	1343.445
41.140	25.579	1658.665	1341.826
42.155	25.674	1656.513	1340.673
43.169	25.610	1656.066	1339.713
44.184	25.571	1654.369	1337.930
45.199	25.343	1655.457	1336.995
46.213	25.686	1653.947	1338.210
47.228	25.432	1652.994	1335.433
48.242	25.574	1651.988	1335.557
49.257	25.504	1649.651	1333.030
50.271	25.537	1648.510	1332.236
51.286	25.560	1648.047	1331.916
52.301	25.564	1646.989	1330.969
53.315	25.698	1643.969	1329.404
54.330	25.746	1642.898	1328.773
55.344	25.475	1642.004	1325.932
56.359	25.550	1640.962	1325.528
57.374	25.600	1640.530	1325.432
58.388	25.616	1640.141	1325.115
59.403	25.319	1639.091	1321.964
60.417	25.503	1636.418	1321.044
61.432	25.641	1635.829	1321.461
62.447	25.672	1635.195	1321.060
63.461	25.556	1634.438	1319.483
64.476	25.639	1633.423	1319.152
65.490	25.639	1633.077	1318.761
66.505	25.766	1630.384	1317.395
67.520	25.839	1629.926	1317.445
68.534	25.797	1629.459	1316.641
69.549	25.800	1627.859	1315.259
70.563	25.747	1626.524	1313.672
71.578	25.617	1625.786	1312.011
72.593	25.890	1624.056	1312.488
73.607	25.611	1624.470	1310.675
74.622	25.764	1622.140	1309.797
75.636	25.521	1622.988	1308.590
76.651	25.607	1621.882	1308.211
77.666	25.652	1621.437	1308.063
78.680	25.849	1619.725	1307.996
79.695	25.703	1619.125	1306.336
80.709	25.716	1617.878	1305.308
81.724	25.839	1616.969	1305.350
82.739	25.736	1616.613	1304.200
83.753	25.729	1616.202	1303.706
84.768	25.795	1614.484	1302.680
85.782	25.724	1613.807	1301.503
86.797	25.652	1613.490	1300.619
87.812	25.669	1612.910	1300.157
88.826	25.612	1612.116	1298.990
89.841	25.801	1609.798	1298.370
90.855	25.612	1610.370	1297.351
91.870	25.661	1608.078	1295.741
92.884	25.643	1608.496	1295.833
93.899	25.815	1606.913	1295.684
94.914	25.741	1606.034	1294.333
95.928	25.835	1604.290	1293.482
96.943	25.782	1603.222	1292.127
97.957	25.825	1601.128	1290.632
98.972	25.863	1599.715	1289.650
99.987	25.737	1599.296	1288.296
101.001	25.795	1597.884	1287.465
102.016	25.824	1595.721	1285.812
103.030	25.721	1594.515	1283.992
104.045	25.655	1593.797	1282.832
105.060	25.802	1592.419	1282.653
106.074	25.850	1590.659	1281.465
107.089	25.822	1590.152	1280.746
108.103	25.678	1589.496	1279.082
109.118	25.862	1587.013	1278.271
110.133	25.665	1587.136	1276.864
111.147	25.672	1585.315	1275.334
112.162	25.775	1585.756	1276.309
113.176	25.918	1583.003	1274.992
114.191	25.914	1581.685	1273.787
115.206	25.697	1582.058	1272.441
116.220	25.781	1579.486	1270.852
117.235	25.704	1578.888	1269.714
118.249	25.715	1576.994	1268.158
119.264	25.361	1577.345	1265.831
120.279	25.257	1576.382	1264.212
121.293	25.721	1574.889	1266.166
122.308	25.849	1573.637	1265.953
123.322	25.791	1572.457	1264.481
124.337	25.769	1571.198	1263.206
125.352	25.952	1569.466	1262.982
126.366	25.858	1568.741	1261.625
127.381	25.776	1568.504	1260.751
128.395	25.603	1567.579	1258.683
129.410	25.602	1566.608	1257.785
130.424	25.499	1565.428	1256.007
131.439	25.724	1564.176	1256.468
132.454	25.812	1562.522	1255.635
133.468	25.442	1561.330	1251.990
134.483	25.871	1560.604	1254.287
135.497	25.880	1559.618	1253.446
136.512	25.929	1558.294	1252.611
137.527	25.701	1557.597	1250.356
138.541	25.851	1555.643	1249.718
139.556	25.646	1555.084	1247.735
140.570	25.834	1552.072	1246.509
141.585	25.861	1552.594	1247.004
142.600	25.640	1551.037	1244.117
143.614	25.808	1550.085	1244.404
144.629	25.957	1549.287	1244.683
145.643	25.849	1548.479	1243.180
146.658	25.713	1546.568	1240.598
147.673	25.736	1544.270	1238.798
148.687	25.781	1543.812	1238.634
149.702	25.793	1543.485	1238.344
150.716	25.903	1541.713	1237.567
151.731	25.526	1540.076	1233.556
152.746	25.589	1538.952	1232.984
153.760	25.618	1537.320	1231.765
154.775	25.815	1536.861	1232.633
155.789	25.840	1535.919	1231.942
156.804	25.877	1535.464	1231.717
157.819	25.702	1534.223	1229.419
158.833	25.834	1532.247	1228.628
159.848	25.767	1530.841	1226.939
160.862	25.761	1531.306	1227.156
161.877	25.988	1529.893	1227.466
162.892	25.951	1528.430	1225.931
163.906	26.030	1527.422	1225.548
164.921	25.730	1527.835	1223.734
165.935	25.894	1526.058	1223.316
166.950	25.768	1525.239	1221.695
167.964	25.928	1523.687	1221.429
168.979	25.951	1522.829	1220.785
169.994	25.866	1522.586	1219.907
171.008	25.918	1521.177	1219.025
172.023	25.883	1519.881	1217.642
173.037	25.768	1519.288	1216.283
174.052	26.045	1518.079	1217.075
175.067	26.011	1517.648	1216.392
176.081	25.856	1517.164	1214.850
177.096	26.055	1515.725	1214.936
178.110	25.738	1514.550	1211.747
179.125	25.905	1512.326	1210.985
180.140	25.948	1511.776	1210.727
181.154	25.895	1511.862	1210.335
182.169	25.830	1510.186	1208.451
183.183	25.743	1509.113	1206.897
184.198	25.796	1508.197	1206.417
185.213	25.740	1507.846	1205.655
186.227	25.871	1506.638	1205.459
187.242	25.969	1506.791	1206.129
188.256	26.046	1505.289	1205.332
189.271	25.930	1504.875	1204.122
190.286	26.004	1502.815	1202.858
191.300	25.876	1503.055	1202.090
192.315	25.922	1501.293	1200.879
193.329	25.768	1500.969	1199.492
194.344	26.079	1500.352	1200.963
195.359	25.946	1499.015	1198.900
196.373	25.931	1498.334	1198.148
197.388	25.737	1497.343	1195.961
198.402	25.422	1495.846	1192.569
199.417	25.728	1493.647	1192.741
200.432	25.801	1493.625	1193.098
201.446	26.161	1493.129	1194.981
202.461	25.921	1492.656	1192.909
203.475	26.017	1490.722	1191.890
204.490	26.011	1490.705	1191.736
205.504	25.729	1489.791	1189.039
206.519	25.672	1488.579	1187.587
207.534	25.725	1488.149	1187.486
208.548	25.749	1486.726	1186.408
209.563	25.607	1485.673	1184.526
210.577	25.479	1485.482	1183.427
211.592	25.669	1483.097	1182.673
212.607	25.588	1482.553	1181.598
213.621	25.733	1483.541	1183.233
214.636	26.013	1482.354	1184.019
215.650	25.940	1481.169	1182.493
216.665	25.778	1480.739	1180.980
217.680	25.793	1479.892	1180.300
218.694	25.745	1479.872	1179.863
219.709	25.997	1478.120	1180.012
220.723	26.130	1476.232	1179.269
221.738	25.880	1476.162	1177.479
222.753	25.770	1476.112	1176.617
223.767	25.649	1475.031	1174.861
224.782	25.717	1473.199	1173.736
225.796	25.953	1472.418	1174.548
226.811	25.845	1472.754	1174.011
227.826	26.116	1471.112	1174.364
228.840	25.925	1470.411	1172.455
229.855	25.824	1469.610	1171.055
230.869	25.816	1468.927	1170.357
231.884	26.020	1466.753	1169.846
232.899	25.947	1466.502	1169.069
233.913	25.644	1465.528	1166.221
234.928	25.488	1464.273	1164.113
235.942	25.645	1463.677	1164.551
236.957	25.824	1463.034	1165.094
237.972	25.844	1461.506	1163.907
238.986	25.524	1460.635	1161.039
240.001	25.547	1458.621	1159.488
241.015	25.702	1457.551	1159.529
242.030	25.616	1457.635	1158.942
243.045	25.745	1456.149	1158.490
244.059	25.899	1455.431	1158.801
245.074	25.999	1454.937	1158.954
246.088	25.983	1454.026	1158.022
247.103	25.890	1454.319	1157.550
248.117	26.077	1454.775	1159.015
249.132	25.961	1452.520	1156.373
250.147	26.190	1450.829	1156.389
251.161	26.463	1449.968	1157.351
252.176	26.616	1449.681	1157.993
253.190	26.373	1449.830	1156.460
254.205	26.296	1448.803	1155.043
255.220	26.402	1446.936	1154.131
256.234	26.298	1447.991	1154.207
257.249	26.307	1446.493	1152.967
258.263	26.289	1446.491	1152.750
259.278	26.516	1443.871	1152.004
260.293	26.310	1443.272	1150.113
261.307	26.434	1442.940	1150.532
262.322	26.450	1441.938	1149.735
263.336	26.489	1441.307	1149.378
264.351	26.359	1441.391	1148.519
265.366	26.286	1439.615	1146.536
266.380	26.573	1438.097	1147.046
267.395	26.491	1438.079	1146.410
268.409	26.519	1436.968	1145.603
269.424	26.352	1436.346	1143.946
270.439	26.454	1434.805	1143.264
271.453	26.256	1434.341	1141.543
272.468	26.261	1433.881	1141.103
273.482	26.349	1431.733	1139.849
274.497	26.185	1431.466	1138.505
275.512	26.182	1430.515	1137.625
276.526	26.292	1430.602	1138.291
277.541	26.109	1429.779	1136.380
278.555	26.214	1428.332	1135.791
279.570	26.255	1427.182	1135.032
280.585	26.432	1427.303	1136.144
281.599	26.383	1426.652	1135.215
282.614	26.557	1425.921	1135.623
283.628	26.283	1424.853	1132.954
284.643	26.240	1423.747	1131.707
285.657	26.203	1421.650	1129.708
286.672	26.146	1421.824	1129.390
287.687	26.205	1420.477	1128.589
288.701	26.223	1420.351	1128.502
289.716	26.375	1419.026	1128.297
290.730	26.564	1417.746	1128.356
291.745	26.294	1416.676	1125.723
292.760	26.240	1416.717	1125.323
293.774	26.450	1414.488	1124.754
294.789	26.308	1414.372	1123.683
295.803	26.459	1413.936	1124.176
296.818	26.409	1413.720	1123.591
297.833	26.301	1412.118	1121.547
298.847	26.243	1411.215	1120.372
299.862	26.418	1410.437	1120.740
300.876	26.378	1410.181	1120.192
301.891	26.376	1409.099	1119.218
302.906	26.276	1407.509	1117.241
303.920	26.501	1406.841	1117.998
304.935	26.403	1407.307	1117.666
305.949	26.698	1405.679	1118.095
306.964	26.662	1405.174	1117.370
307.979	26.816	1404.142	1117.402
308.993	26.158	1404.507	1113.539
310.008	26.353	1403.083	1113.513
311.022	26.419	1402.557	1113.403
312.037	26.338	1400.054	1110.819
313.052	26.149	1400.575	1109.969
314.066	26.285	1399.377	1109.757
315.081	26.448	1397.963	1109.541
316.095	26.473	1396.321	1108.293
317.110	26.231	1396.539	1106.884
318.125	26.210	1395.552	1105.872
319.139	26.115	1394.410	1104.289
320.154	26.449	1393.164	1105.246
321.168	26.201	1391.202	1102.083
322.183	26.378	1390.994	1102.897
323.197	26.130	1390.452	1100.857
324.212	26.328	1388.772	1100.636
325.227	26.236	1388.962	1100.127
326.241	26.369	1388.264	1100.287
327.256	26.291	1387.520	1099.124
328.270	26.505	1387.077	1099.978
329.285	26.396	1385.576	1098.028
330.300	26.340	1384.867	1097.029
331.314	26.202	1384.367	1095.701
332.329	26.281	1383.692	1095.548
333.343	26.249	1382.277	1094.140
334.358	26.463	1382.261	1095.324
335.373	26.597	1381.084	1095.102
336.387	26.759	1380.244	1095.318
337.402	26.628	1379.521	1093.857
338.416	26.390	1379.087	1091.982
339.431	26.516	1379.156	1092.697
340.446	26.550	1378.386	1092.196
341.460	26.608	1377.314	1091.600
342.475	26.799	1376.262	1091.823
343.489	26.752	1374.377	1089.946
344.504	26.731	1374.554	1089.863
345.519	26.786	1374.041	1089.695
346.533	26.812	1372.584	1088.596
347.548	26.878	1371.788	1088.267
348.562	26.847	1370.968	1087.332
349.577	27.007	1370.326	1087.683
350.592	26.859	1369.815	1086.296
351.606	26.657	1368.875	1084.243
352.621	26.562	1367.067	1082.152
353.635	26.402	1367.070	1081.098
354.650	26.371	1366.138	1080.080
355.665	26.459	1364.500	1079.218
356.679	26.562	1363.335	1078.813
357.694	26.324	1363.393	1077.344
358.708	26.523	1361.389	1076.852
359.723	26.484	1360.256	1075.626
360.738	26.552	1359.172	1075.079
361.752	26.513	1359.186	1074.766
362.767	26.512	1357.260	1073.142
363.781	26.571	1355.703	1072.164
364.796	26.540	1356.661	1072.642
365.810	26.678	1354.616	1071.747
366.825	26.659	1354.937	1071.791
367.840	26.859	1353.930	1072.084
368.854	26.901	1353.297	1071.739
369.869	26.805	1353.042	1070.874
370.883	26.852	1351.788	1070.063
371.898	26.703	1351.506	1068.864
372.913	26.794	1350.201	1068.276
373.927	26.589	1349.728	1066.599
374.942	26.815	1348.416	1066.798
375.956	26.702	1348.200	1065.868
376.971	26.805	1346.501	1065.034
377.986	26.685	1347.139	1064.744
379.000	26.787	1345.914	1064.280
380.015	26.912	1345.207	1064.360
381.029	26.997	1343.955	1063.773
382.044	26.899	1343.842	1063.014
383.059	27.057	1342.814	1063.033
384.073	26.789	1343.062	1061.565
385.088	26.879	1341.234	1060.554
386.102	26.885	1341.042	1060.343
387.117	27.171	1339.953	1061.057
388.132	26.685	1339.707	1057.927
389.146	26.609	1338.909	1056.762
390.161	26.773	1337.656	1056.634
391.175	26.534	1337.621	1055.124
392.190	26.430	1336.086	1053.213
393.205	26.528	1335.566	1053.280
394.219	26.855	1335.196	1054.797
395.234	26.858	1334.828	1054.430
396.248	26.634	1332.862	1051.483
397.263	26.839	1331.617	1051.594
398.278	26.361	1331.229	1048.424
399.292	26.556	1329.278	1047.928
400.307	26.713	1328.076	1047.796
401.321	26.917	1327.093	1048.102
402.336	26.981	1326.077	1047.577
403.350	26.598	1325.570	1044.877
404.365	26.428	1324.752	1043.157
405.380	26.722	1322.965	1043.353
406.394	26.672	1322.592	1042.675
407.409	26.651	1322.096	1042.074
408.423	26.658	1321.468	1041.528
409.438	26.581	1320.979	1040.605
410.453	26.874	1320.182	1041.565
411.467	26.961	1320.114	1041.919
412.482	27.127	1319.276	1042.121
413.496	26.879	1318.419	1039.932
414.511	27.034	1317.073	1039.664
415.526	27.081	1315.531	1038.622
416.540	27.039	1316.744	1039.250
417.555	27.092	1315.563	1038.527
418.569	27.069	1315.187	1038.009
419.584	26.964	1314.244	1036.571
420.599	26.742	1314.524	1035.431
421.613	142.637	1436.105	1793.920
422.628	138.464	1453.812	1794.042
