DTS Sentinel unit serial number:	SN413079Multiplexer serial number:	ORYXHardware model number:	OX4-SRSoftware version number:	ORYX F/W v4.00 Oryx Data Collector v3.7.2.0data status	okinstallation	princeton_trtdifferential loss correction	single-endedforward channel	channel 4reverse channel	N/Adate	2019/09/13time	06:09:34forward acquisition time	60.00reverse acquisition time	0.00gamma	496.2192k internal	0.2324k external	0.2324temperature offset calibration	1.0197default loss term (dB/km)	0.3790temperature slope calibration	1.0000multiplexer offset coefficient	1.0000multiplexer slope coefficient	1.0000fibre end	0.00T internal ref (°C)	26.12T ext. ref 1 (°C)	4.08T ext. ref 2 (°C)	20.92length (m)	temperature (°C)	Stokes	anti-Stokes-747.200	800.000	-0.046	0.143
-746.185	-28.794	-0.093	0.054
-745.171	512.221	0.083	-0.196
-744.156	800.000	-0.098	0.362
-743.142	-146.024	0.332	-0.030
-742.127	-12.333	-0.257	0.169
-741.112	1.141	-0.051	-0.037
-740.098	-98.346	-0.129	-0.033
-739.083	800.000	0.031	-0.099
-738.069	520.218	-0.130	0.309
-737.054	-200.000	-0.004	0.223
-736.039	23.426	-0.381	-0.317
-735.025	-200.000	0.042	0.196
-734.010	-103.109	-0.433	0.103
-732.996	155.350	-0.107	-0.149
-731.981	-124.445	0.200	0.031
-730.966	100.641	-0.126	0.147
-729.952	329.617	-0.220	0.427
-728.937	-94.991	-0.222	-0.061
-727.923	513.285	-0.048	-0.113
-726.908	-200.000	-0.012	-0.200
-725.894	-77.310	-0.505	-0.177
-724.879	-29.469	-0.045	-0.026
-723.864	-140.273	-0.182	-0.019
-722.850	-200.000	-0.063	-0.317
-721.835	-200.000	0.022	-0.223
-720.821	-118.813	-0.286	0.051
-719.806	-162.733	0.376	0.019
-718.791	-91.588	0.394	-0.113
-717.777	232.501	-0.158	-0.262
-716.762	-108.135	0.271	-0.059
-715.748	98.196	0.126	0.147
-714.733	-112.883	-0.297	0.059
-713.718	445.158	0.093	-0.206
-712.704	-18.857	-0.399	-0.250
-711.689	-27.948	0.200	0.117
-710.675	-1.304	0.179	0.128
-709.660	-145.153	-0.291	-0.027
-708.645	54.303	0.097	-0.094
-707.631	-144.328	-0.397	0.037
-706.616	-126.541	0.275	-0.041
-705.602	525.192	-0.059	0.141
-704.587	451.794	-0.059	-0.132
-703.572	5.123	0.167	0.124
-702.558	-78.292	-0.228	0.079
-701.543	107.067	-0.168	0.201
-700.529	143.727	-0.080	-0.107
-699.514	19.462	0.125	0.101
-698.499	588.185	-0.059	-0.146
-697.485	-93.426	-0.377	-0.105
-696.470	-42.831	0.117	-0.060
-695.456	-80.545	0.428	-0.144
-694.441	-95.595	-0.359	-0.097
-693.426	-67.078	-0.160	0.064
-692.412	175.157	-0.058	0.084
-691.397	-4.653	0.343	-0.238
-690.383	-96.440	-0.449	0.120
-689.368	-72.956	-0.218	0.081
-688.354	599.129	-0.089	0.221
-687.339	-200.000	0.003	0.221
-686.324	-200.000	-0.023	-0.167
-685.310	-140.652	-0.256	0.027
-684.295	-37.634	0.172	0.092
-683.281	112.478	0.163	-0.199
-682.266	-61.897	0.042	0.018
-681.251	-149.044	0.261	-0.021
-680.237	318.014	-0.132	-0.251
-679.222	-22.337	-0.213	0.130
-678.208	-63.813	0.318	0.131
-677.193	161.980	-0.100	-0.141
-676.178	213.943	-0.079	-0.126
-675.164	336.406	-0.118	-0.231
-674.149	-200.000	-0.010	0.077
-673.135	148.461	-0.061	0.082
-672.120	-11.662	-0.483	-0.320
-671.105	25.908	0.388	-0.325
-670.091	800.000	0.087	-0.317
-669.076	-200.000	-0.029	0.158
-668.062	-200.000	-0.014	0.393
-667.047	-130.345	-0.191	-0.026
-666.032	243.340	-0.102	0.172
-665.018	-200.000	0.030	-0.278
-664.003	56.539	-0.293	-0.287
-662.989	-1.683	0.198	-0.140
-661.974	800.000	0.068	-0.230
-660.959	-144.429	-0.191	0.018
-659.945	800.000	-0.044	0.164
-658.930	0.846	-0.255	0.184
-657.916	-40.123	0.144	0.076
-656.901	-68.429	-0.101	-0.039
-655.886	800.000	-0.048	-0.135
-654.872	-200.000	-0.036	-0.203
-653.857	-200.000	0.011	0.183
-652.843	-99.939	0.076	0.019
-651.828	-65.084	0.245	0.099
-650.814	-200.000	-0.050	0.268
-649.799	22.200	0.069	-0.057
-648.784	38.645	0.045	-0.040
-647.770	767.704	-0.176	-0.481
-646.755	-58.016	-0.262	-0.115
-645.741	-200.000	-0.005	-0.097
-644.726	-98.975	-0.306	0.078
-643.711	81.157	-0.109	-0.119
-642.697	114.185	-0.171	0.209
-641.682	70.055	0.080	0.083
-640.668	-75.538	0.206	-0.074
-639.653	94.909	-0.089	-0.102
-638.638	-100.521	0.409	0.102
-637.624	604.005	-0.032	-0.080
-636.609	178.927	-0.095	0.140
-635.595	-200.000	0.013	-0.183
-634.580	453.866	-0.185	-0.412
-633.565	652.638	-0.065	-0.168
-632.551	-200.000	0.023	-0.104
-631.536	-200.000	-0.234	0.001
-630.522	-2.722	-0.075	-0.053
-629.507	277.045	0.093	0.165
-628.492	184.078	0.129	0.192
-627.478	-32.027	0.264	-0.148
-626.463	397.119	-0.044	0.092
-625.449	46.627	0.101	0.094
-624.434	141.760	0.048	0.063
-623.419	-154.599	-0.045	-0.003
-622.405	800.000	-0.070	0.232
-621.390	-200.000	0.054	0.335
-620.376	569.097	0.093	-0.226
-619.361	-130.042	0.314	-0.043
-618.346	37.540	-0.152	0.135
-617.332	9.352	0.367	0.279
-616.317	-176.410	-0.263	0.007
-615.303	199.213	0.117	-0.180
-614.288	-27.086	0.156	-0.091
-613.273	-76.394	0.047	-0.017
-612.259	800.000	0.072	0.266
-611.244	-200.000	0.048	0.259
-610.230	-161.886	-0.197	-0.010
-609.215	15.356	0.070	-0.055
-608.201	696.232	0.022	0.059
-607.186	57.772	-0.348	-0.342
-606.171	-70.411	-0.106	0.040
-605.157	525.856	0.118	0.278
-604.142	-200.000	-0.028	-0.148
-603.128	800.000	-0.126	0.406
-602.113	-1.274	-0.132	0.093
-601.098	19.703	-0.048	0.039
-600.084	46.772	0.170	0.159
-599.069	-200.000	-0.010	-0.269
-598.055	-200.000	0.011	0.184
-597.040	800.000	0.053	-0.191
-596.025	6.312	-0.385	0.287
-595.011	103.738	0.076	0.089
-593.996	743.279	-0.042	0.114
-592.982	-141.605	0.305	-0.031
-591.967	143.222	-0.037	-0.049
-590.952	35.723	-0.149	-0.131
-589.938	-99.606	0.299	-0.075
-588.923	-200.000	-0.018	-0.270
-587.909	206.796	0.052	-0.081
-586.894	-73.394	0.141	-0.052
-585.879	-120.376	0.162	0.028
-584.865	-193.103	-0.352	-0.003
-583.850	661.303	0.049	-0.127
-582.836	-171.259	-0.181	-0.006
-581.821	32.121	0.140	0.121
-580.806	161.710	0.190	0.267
-579.792	-15.243	0.082	-0.053
-578.777	-64.574	0.245	0.100
-577.763	504.011	-0.087	-0.201
-576.748	103.129	0.142	-0.167
-575.733	-85.440	0.070	-0.022
-574.719	-97.641	-0.227	0.059
-573.704	641.254	0.048	-0.123
-572.690	-113.344	-0.182	-0.036
-571.675	-200.000	-0.086	0.437
-570.661	616.518	0.185	0.467
-569.646	800.000	-0.061	0.234
-568.631	-200.000	0.030	0.131
-567.617	-102.353	0.360	0.086
-566.602	132.691	-0.028	-0.036
-565.588	-51.550	0.415	0.194
-564.573	75.739	-0.211	-0.223
-563.558	-200.000	-0.004	0.260
-562.544	-45.238	0.277	0.138
-561.529	-77.642	0.372	-0.129
-560.515	482.284	-0.123	-0.280
-559.500	-57.100	-0.104	0.046
-558.485	-62.009	-0.105	0.044
-557.471	188.989	-0.119	-0.178
-556.456	475.752	-0.089	-0.202
-555.442	-200.000	0.009	0.137
-554.427	4.743	-0.281	-0.207
-553.412	800.000	-0.043	-0.124
-552.398	34.604	0.219	0.191
-551.383	-31.297	-0.075	0.042
-550.369	800.000	-0.023	-0.086
-549.354	-200.000	0.036	-0.302
-548.339	18.241	0.207	-0.166
-547.325	-89.485	-0.198	0.058
-546.310	-200.000	0.006	0.041
-545.296	-200.000	0.012	-0.151
-544.281	132.331	0.066	-0.085
-543.266	-95.521	-0.041	-0.011
-542.252	-87.195	-0.342	-0.104
-541.237	195.157	-0.040	0.061
-540.223	-30.957	-0.407	0.230
-539.208	172.650	-0.201	-0.290
-538.193	-200.000	-0.000	0.027
-537.179	96.577	0.162	-0.186
-536.164	146.156	-0.127	-0.171
-535.150	116.949	-0.130	0.159
-534.135	800.000	-0.009	0.039
-533.121	136.372	-0.068	-0.089
-532.106	-56.564	-0.281	0.125
-531.091	-10.667	-0.114	-0.075
-530.077	-127.799	-0.149	-0.022
-529.062	-76.597	0.503	-0.177
-528.048	800.000	0.052	-0.179
-527.033	302.338	-0.087	0.160
-526.018	800.000	-0.085	-0.261
-525.004	733.382	0.039	0.105
-523.989	-88.996	0.085	-0.025
-522.975	-44.911	-0.103	0.051
-521.960	-118.516	-0.142	-0.025
-520.945	-200.000	0.022	0.229
-519.931	170.172	-0.185	0.265
-518.916	487.743	-0.124	0.283
-517.902	213.113	0.192	0.304
-516.887	-4.659	0.306	-0.211
-515.872	-58.839	0.347	-0.150
-514.858	-200.000	-0.032	-0.310
-513.843	182.575	-0.244	-0.360
-512.829	90.612	0.094	0.106
-511.814	-111.221	0.043	-0.009
-510.799	-200.000	0.034	0.219
-509.785	6.999	-0.173	0.129
-508.770	304.425	-0.131	-0.244
-507.756	216.628	0.179	-0.284
-506.741	-69.202	-0.049	-0.019
-505.726	-15.615	0.310	0.198
-504.712	-60.043	-0.213	-0.091
-503.697	-200.000	-0.017	0.097
-502.683	-200.000	0.002	0.118
-501.668	207.867	0.063	-0.098
-500.653	-14.387	-0.247	-0.159
-499.639	-88.416	-0.255	-0.076
-498.624	-139.049	-0.100	-0.011
-497.610	-200.000	-0.020	0.198
-496.595	-0.507	0.097	-0.069
-495.581	-50.066	0.200	0.095
-494.566	-19.695	0.192	0.119
-493.551	334.991	0.055	-0.107
-492.537	-24.458	-0.167	-0.100
-491.522	-134.929	-0.293	-0.035
-490.508	-95.444	0.063	-0.017
-489.493	-12.388	-0.172	-0.112
-488.478	119.888	0.164	-0.203
-487.464	-200.000	0.014	0.130
-486.449	339.881	-0.114	-0.223
-485.435	-46.391	-0.140	0.069
-484.420	-200.000	0.004	0.134
-483.405	114.777	0.373	0.455
-482.391	314.491	0.074	-0.139
-481.376	61.454	-0.131	-0.130
-480.362	499.214	0.022	-0.050
-479.347	-200.000	0.002	0.055
-478.332	-98.206	-0.159	0.041
-477.318	-42.819	-0.066	0.033
-476.303	-21.637	-0.354	0.215
-475.289	-122.862	-0.162	0.026
-474.274	-97.580	-0.122	-0.032
-473.259	-200.000	-0.051	-0.241
-472.245	-200.000	0.014	-0.175
-471.230	-200.000	-0.006	-0.060
-470.216	695.539	0.063	0.164
-469.201	185.801	-0.203	0.302
-468.186	-200.000	-0.046	0.405
-467.172	153.386	0.134	-0.184
-466.157	469.654	0.088	-0.197
-465.143	28.778	-0.144	0.122
-464.128	-124.761	0.202	0.031
-463.113	77.457	-0.140	0.149
-462.099	-112.597	-0.223	-0.044
-461.084	-200.000	0.002	-0.101
-460.070	-200.000	-0.018	0.171
-459.055	554.910	-0.144	-0.346
-458.040	-200.000	-0.067	-0.355
-457.026	41.877	0.071	0.065
-456.011	-200.000	0.025	0.248
-454.997	-162.610	0.206	-0.010
-453.982	-12.679	-0.163	0.106
-452.968	4.451	0.012	0.009
-451.953	-11.626	0.048	0.031
-450.938	-200.000	-0.007	0.199
-449.924	49.686	-0.259	0.243
-448.909	-157.401	-0.242	-0.015
-447.895	35.485	0.179	-0.157
-446.880	-111.404	0.119	-0.024
-445.865	800.000	0.049	0.170
-444.851	546.852	0.061	0.144
-443.836	-163.519	-0.421	0.020
-442.822	-157.352	0.234	-0.014
-441.807	53.689	-0.263	-0.252
-440.792	-79.606	-0.188	0.063
-439.778	-48.840	-0.255	-0.122
-438.763	168.121	0.009	0.012
-437.749	800.000	0.069	0.219
-436.734	317.490	0.167	0.316
-435.719	-63.235	0.439	-0.180
-434.705	99.704	0.061	-0.071
-433.690	-200.000	-0.025	-0.301
-432.676	114.546	-0.155	-0.189
-431.661	600.370	0.080	-0.199
-430.646	769.815	0.059	0.162
-429.632	-53.329	0.333	-0.152
-428.617	-134.087	-0.137	-0.017
-427.603	-142.861	-0.309	0.030
-426.588	-116.508	0.205	0.038
-425.573	-200.000	-0.017	-0.201
-424.559	-200.000	-0.027	0.198
-423.544	-187.088	-0.176	0.002
-422.530	395.820	0.086	-0.178
-421.515	108.544	0.070	0.083
-420.500	-152.321	-0.093	-0.007
-419.486	-200.000	-0.071	-0.394
-418.471	134.006	0.242	-0.313
-417.457	62.810	0.050	-0.050
-416.442	80.363	-0.207	0.222
-415.428	47.889	-0.165	-0.153
-414.413	-200.000	-0.002	0.481
-413.398	-200.000	0.012	-0.059
-412.384	-107.007	0.422	0.093
-411.369	464.111	0.039	0.087
-410.355	-46.249	-0.281	0.138
-409.340	267.136	0.048	0.083
-408.325	695.376	-0.143	-0.373
-407.311	119.912	-0.191	-0.236
-406.296	10.068	0.213	-0.161
-405.282	371.825	0.120	-0.244
-404.267	148.281	-0.148	0.199
-403.252	361.893	-0.093	-0.185
-402.238	-77.679	0.006	-0.002
-401.223	471.349	-0.105	0.235
-400.209	26.550	0.181	0.151
-399.194	1.307	0.115	0.083
-398.179	-169.288	-0.112	0.004
-397.165	7.274	-0.207	0.154
-396.150	-2.312	-0.101	-0.071
-395.136	-0.647	-0.094	-0.066
-394.121	-200.000	-0.033	0.151
-393.106	2.402	0.164	0.118
-392.092	32.852	0.316	-0.273
-391.077	98.878	0.100	-0.115
-390.063	-200.000	-0.049	0.225
-389.048	-40.344	-0.042	-0.022
-388.033	558.945	-0.044	0.106
-387.019	-97.937	0.137	0.035
-386.004	-0.865	-0.284	0.200
-384.990	192.709	-0.194	-0.292
-383.975	-27.894	0.227	0.131
-382.960	-27.788	0.467	0.270
-381.946	674.208	-0.036	-0.092
-380.931	97.542	0.109	0.125
-379.917	-200.000	-0.074	-0.367
-378.902	-120.914	-0.174	-0.029
-377.888	-86.414	-0.065	0.020
-376.873	-108.650	-0.263	0.056
-375.858	442.142	0.123	0.267
-374.844	800.000	0.053	-0.161
-373.829	-66.474	0.158	-0.062
-372.815	2.229	-0.236	0.169
-371.800	-200.000	-0.032	0.443
-370.785	-97.626	0.233	0.060
-369.771	116.568	0.145	-0.176
-368.756	-14.562	0.166	-0.106
-367.742	-87.833	0.250	0.075
-366.727	-132.460	-0.292	-0.037
-365.712	-200.000	-0.004	0.044
-364.698	-40.517	0.253	0.130
-363.683	153.997	0.150	-0.205
-362.669	71.664	-0.169	-0.175
-361.654	-80.281	-0.353	-0.118
-360.639	501.086	-0.071	-0.162
-359.625	-44.760	0.350	0.174
-358.610	44.771	-0.150	0.137
-357.596	-53.626	0.153	-0.070
-356.581	-200.000	-0.035	0.199
-355.566	-200.000	0.008	-0.306
-354.552	347.821	0.207	-0.406
-353.537	-40.171	-0.198	-0.103
-352.523	-70.701	-0.386	-0.145
-351.508	-200.000	-0.013	0.115
-350.493	-200.000	-0.036	-0.222
-349.479	-200.000	0.006	-0.056
-348.464	800.000	0.065	0.224
-347.450	-200.000	-0.021	-0.289
-346.435	282.206	0.147	0.262
-345.420	-75.883	0.244	-0.086
-344.406	243.257	0.025	0.042
-343.391	-200.000	0.054	0.317
-342.377	103.291	-0.134	-0.156
-341.362	-123.404	0.236	0.037
-340.348	800.000	0.039	0.159
-339.333	800.000	-0.064	0.211
-338.318	145.096	-0.147	0.195
-337.304	146.588	0.064	0.085
-336.289	-87.207	0.247	0.074
-335.275	-200.000	-0.019	0.100
-334.260	217.209	-0.059	0.093
-333.245	-27.728	0.214	0.123
-332.231	119.714	-0.098	-0.120
-331.216	75.572	-0.192	-0.201
-330.202	800.000	0.045	-0.148
-329.187	38.421	-0.201	-0.178
-328.172	-39.046	-0.265	-0.139
-327.158	626.143	-0.079	0.199
-326.143	125.558	0.175	-0.220
-325.129	-200.000	-0.037	-0.407
-324.114	800.000	0.085	0.249
-323.099	-26.628	0.113	0.066
-322.085	730.551	0.048	0.128
-321.070	-92.851	0.071	-0.020
-320.056	43.688	0.170	-0.155
-319.041	-74.686	0.163	0.058
-318.026	361.540	0.096	0.192
-317.012	-95.205	-0.141	-0.038
-315.997	-200.000	0.029	0.405
-314.983	76.531	-0.139	0.146
-313.968	-200.000	-0.015	-0.154
-312.953	-114.005	0.112	0.021
-311.939	-89.040	-0.244	-0.072
-310.924	39.419	-0.298	-0.265
-309.910	77.797	-0.085	0.089
-308.895	32.777	0.134	0.115
-307.880	158.403	0.174	-0.239
-306.866	-113.778	-0.325	-0.063
-305.851	31.725	0.256	-0.219
-304.837	800.000	0.024	-0.071
-303.822	800.000	-0.054	-0.168
-302.807	-2.805	0.177	0.123
-301.793	94.344	-0.208	-0.235
-300.778	-77.943	0.413	-0.141
-299.764	800.000	-0.031	-0.106
-298.749	-103.591	0.189	0.044
-297.735	-63.037	-0.087	0.036
-296.720	306.825	0.129	0.239
-295.705	446.283	0.164	-0.358
-294.691	800.000	-0.089	-0.280
-293.676	42.455	0.290	0.262
-292.662	800.000	-0.079	-0.219
-291.647	17.465	0.204	-0.161
-290.632	72.119	0.045	-0.046
-289.618	34.399	0.144	0.125
-288.603	-200.000	-0.010	-0.353
-287.589	-32.708	-0.046	-0.025
-286.574	-41.953	-0.091	0.046
-285.559	100.505	-0.076	-0.087
-284.545	161.292	0.069	-0.096
-283.530	156.113	-0.161	-0.220
-282.516	58.434	0.082	-0.080
-281.501	-200.000	0.007	0.079
-280.486	800.000	0.047	0.133
-279.472	-200.000	0.009	0.084
-278.457	800.000	0.058	-0.188
-277.443	-200.000	0.032	0.184
-276.428	-131.374	-0.243	-0.032
-275.413	-52.497	0.383	-0.175
-274.399	442.691	-0.081	-0.176
-273.384	-124.896	0.050	0.008
-272.370	-168.542	-0.266	0.010
-271.355	-78.805	0.154	-0.052
-270.340	-88.465	0.315	-0.093
-269.326	18.054	-0.129	-0.102
-268.311	-160.235	-0.227	-0.012
-267.297	136.208	0.132	0.171
-266.282	-17.313	-0.099	0.062
-265.267	-200.000	0.061	-0.284
-264.253	-17.478	-0.148	-0.092
-263.238	123.275	0.116	0.144
-262.224	-120.379	0.242	0.041
-261.209	24.201	0.062	-0.051
-260.195	-177.090	-0.348	-0.009
-259.180	-200.000	-0.009	0.196
-258.165	800.000	-0.025	-0.074
-257.151	-200.000	0.040	0.385
-256.136	-60.749	0.189	0.079
-255.122	-181.268	0.437	-0.009
-254.107	237.344	-0.128	0.210
-253.092	-200.000	0.013	-0.146
-252.078	-200.000	-0.026	-0.128
-251.063	-110.505	-0.051	-0.010
-250.049	-200.000	0.009	0.054
-249.034	188.513	-0.133	-0.196
-248.019	800.000	0.024	-0.069
-247.005	482.543	0.091	-0.205
-245.990	-142.734	0.262	0.025
-244.976	-35.979	-0.170	-0.091
-243.961	627.027	0.069	-0.172
-242.946	-121.084	-0.098	0.016
-241.932	272.249	-0.142	0.248
-240.917	-40.823	-0.107	-0.055
-239.903	2.344	0.160	0.114
-238.888	-200.000	0.011	0.146
-237.873	-90.957	-0.205	-0.058
-236.859	146.039	0.058	0.077
-235.844	-60.629	-0.279	0.117
-234.830	-57.006	0.308	0.134
-233.815	249.822	-0.071	0.120
-232.800	-93.700	0.263	-0.072
-231.786	-144.623	0.376	0.034
-230.771	-160.854	-0.079	-0.004
-229.757	78.039	-0.129	0.136
-228.742	113.281	-0.017	-0.021
-227.727	800.000	-0.027	0.094
-226.713	-126.904	0.278	-0.041
-225.698	-200.000	0.031	-0.241
-224.684	162.931	-0.075	0.105
-223.669	800.000	0.091	0.339
-222.655	75.255	-0.128	-0.133
-221.640	104.333	0.085	0.099
-220.625	285.848	-0.128	-0.228
-219.611	136.839	0.113	0.147
-218.596	193.960	-0.173	0.259
-217.582	333.378	-0.166	-0.317
-216.567	-64.768	0.172	-0.069
-215.552	-68.215	0.288	-0.111
-214.538	295.656	-0.080	0.146
-213.523	-50.064	-0.191	0.090
-212.509	-173.953	0.207	-0.006
-211.494	-69.674	0.398	0.151
-210.479	-200.000	0.042	0.272
-209.465	16.889	-0.190	0.149
-208.450	251.323	-0.220	0.370
-207.436	422.211	0.010	-0.022
-206.421	233.441	-0.205	0.333
-205.406	-89.623	-0.183	-0.053
-204.392	-62.028	-0.077	0.032
-203.377	-28.276	-0.133	-0.076
-202.363	148.847	-0.168	0.225
-201.348	-200.000	-0.015	-0.093
-200.333	-150.238	0.111	0.008
-199.319	-46.333	0.113	0.055
-198.304	-200.000	0.000	0.068
-197.290	800.000	0.090	-0.304
-196.275	-32.455	-0.291	0.160
-195.260	68.171	-0.094	-0.095
-194.246	1.342	0.249	-0.176
-193.231	53.456	-0.188	-0.178
-192.217	-200.000	-0.031	-0.295
-191.202	176.296	-0.147	-0.211
-190.187	-77.276	-0.155	0.053
-189.173	153.934	0.101	0.136
-188.158	-200.000	-0.048	-0.224
-187.144	-116.572	0.183	0.033
-186.129	-33.271	-0.190	0.104
-185.114	113.310	-0.132	0.158
-184.100	-42.892	0.036	-0.018
-183.085	152.381	-0.116	0.157
-182.071	30.882	-0.243	0.205
-181.056	-152.758	0.283	-0.020
-180.042	50.349	0.099	0.092
-179.027	308.386	-0.039	0.073
-178.012	-111.340	0.403	-0.081
-176.998	320.681	-0.036	-0.068
-175.983	217.509	-0.161	0.254
-174.969	800.000	-0.047	0.158
-173.954	43.718	-0.111	0.100
-172.939	800.000	0.092	0.305
-171.925	137.764	-0.151	0.195
-170.910	162.741	0.225	0.311
-169.896	284.676	0.155	-0.275
-168.881	-132.817	0.427	0.054
-167.866	-98.572	0.150	0.038
-166.852	-200.000	0.037	0.180
-165.837	-40.489	0.260	0.133
-164.823	57.628	-0.057	-0.055
-163.808	-96.872	-0.081	0.021
-162.793	-200.000	-0.013	-0.097
-161.779	-121.723	0.285	0.047
-160.764	800.000	0.049	-0.187
-159.750	-200.000	-0.060	-0.267
-158.735	25.951	0.084	-0.069
-157.720	-200.000	-0.011	0.109
-156.706	55.019	-0.095	0.090
-155.691	-29.286	0.112	0.063
-154.677	-127.045	-0.519	0.075
-153.662	438.738	-0.053	0.114
-152.647	-21.410	-0.207	-0.124
-151.633	375.260	0.088	-0.176
-150.618	4.167	-0.132	-0.095
-149.604	-116.791	0.360	-0.065
-148.589	800.000	0.102	0.328
-147.574	99.951	0.098	0.112
-146.560	150.421	0.026	0.035
-145.545	-89.123	-0.112	0.033
-144.531	-47.014	0.280	0.135
-143.516	227.166	-0.176	0.283
-142.502	477.058	0.170	-0.379
-141.487	-122.781	-0.214	-0.034
-140.472	77.020	0.137	-0.144
-139.458	55.824	-0.147	-0.141
-138.443	-173.588	0.227	-0.007
-137.429	203.840	-0.062	-0.095
-136.414	768.929	-0.041	0.110
-135.399	52.919	-0.091	0.086
-134.385	800.000	0.123	0.336
-133.370	-200.000	-0.022	-0.141
-132.356	33.916	0.267	-0.229
-131.341	460.371	0.154	-0.338
-130.326	5.767	0.099	-0.072
-129.312	174.268	-0.127	0.181
-128.297	539.647	-0.019	0.044
-127.283	44.866	-0.312	-0.283
-126.268	-154.329	-0.356	-0.024
-125.253	-200.000	-0.012	-0.210
-124.239	-146.918	0.319	-0.027
-123.224	-184.208	-0.148	0.002
-122.210	-33.987	0.171	0.093
-121.195	800.000	0.021	-0.071
-120.180	176.912	0.089	-0.127
-119.166	-38.702	-0.227	0.118
-118.151	-200.000	-0.011	-0.203
-117.137	-200.000	0.020	0.127
-116.122	-140.888	0.186	-0.019
-115.107	559.518	0.179	0.425
-114.093	334.990	0.045	-0.085
-113.078	24.392	0.021	-0.017
-112.064	-200.000	-0.030	-0.344
-111.049	712.676	-0.069	-0.180
-110.034	-1.269	-0.187	0.130
-109.020	-38.608	0.110	0.057
-108.005	-200.000	-0.043	-0.184
-106.991	414.734	-0.053	0.110
-105.976	-80.613	0.126	0.041
-104.962	800.000	-0.075	0.253
-103.947	-110.573	-0.292	0.060
-102.932	111.565	0.220	0.261
-101.918	52.669	-0.156	-0.147
-100.903	235.844	0.011	-0.018
-99.889	-89.375	-0.306	0.089
-98.874	378.196	-0.086	-0.174
-97.859	-75.951	-0.418	-0.146
-96.845	800.000	0.067	0.223
-95.830	-0.254	-0.135	0.094
-94.816	-57.158	0.370	-0.161
-93.801	-200.000	-0.000	-0.081
-92.786	-116.937	0.088	0.016
-91.772	-106.096	0.362	0.080
-90.757	-200.000	0.083	0.517
-89.743	133.912	0.121	0.155
-88.728	174.596	-0.083	-0.118
-87.713	-6.026	0.193	-0.130
-86.699	-200.000	0.001	0.210
-85.684	251.667	0.084	-0.141
-84.670	-121.288	-0.206	-0.034
-83.655	61.956	0.054	-0.053
-82.640	704.932	-0.049	-0.128
-81.626	116.700	0.170	0.205
-80.611	800.000	0.064	-0.245
-79.597	-10.032	0.131	-0.086
-78.582	42.892	0.122	-0.109
-77.567	482.988	-0.083	-0.186
-76.553	28.920	-0.278	0.232
-75.538	59.526	-0.056	-0.055
-74.524	24.897	-0.363	-0.296
-73.509	25.092	0.131	-0.107
-72.494	-36.080	0.147	0.078
-71.480	-148.647	0.359	0.029
-70.465	-200.000	-0.006	-0.145
-69.451	-125.006	0.359	0.054
-68.436	-99.572	0.257	0.063
-67.422	-200.000	0.018	-0.093
-66.407	-87.357	0.203	-0.060
-65.392	-17.355	0.118	0.073
-64.378	300.908	0.157	-0.284
-63.363	44.184	-0.038	0.034
-62.349	40.322	-0.176	-0.155
-61.334	60.115	-1.237	-1.202
-60.319	86.423	0.570	0.618
-59.305	317.034	-0.574	-1.066
-58.290	210.026	0.995	1.534
-57.276	221.050	0.774	1.222
-56.261	-200.000	117.671	645.168
-55.246	477.899	1553.968	3456.318
-54.232	170.396	2731.242	3842.241
-53.217	93.679	2329.383	2593.198
-52.203	32.514	2071.375	1759.049
-51.188	27.959	1987.196	1646.557
-50.173	26.576	1970.354	1620.176
-49.159	43.199	2032.173	1822.815
-48.144	42.328	2046.869	1827.981
-47.130	28.350	2004.259	1663.990
-46.115	26.199	1993.560	1635.582
-45.100	26.118	1990.594	1632.346
-44.086	26.039	1988.415	1629.787
-43.071	25.908	1986.493	1626.960
-42.057	25.959	1984.054	1625.358
-41.042	26.049	1981.830	1624.278
-40.027	26.013	1980.424	1622.741
-39.013	26.038	1978.189	1621.072
-37.998	25.963	1976.880	1619.263
-36.984	26.018	1974.921	1618.087
-35.969	26.074	1972.552	1616.583
-34.954	26.005	1971.333	1614.904
-33.940	26.061	1970.045	1614.282
-32.925	26.155	1968.120	1613.485
-31.911	26.176	1966.441	1612.224
-30.896	26.015	1965.185	1609.699
-29.881	26.171	1963.288	1609.471
-28.867	26.242	1961.420	1608.512
-27.852	26.156	1959.997	1606.507
-26.838	26.182	1958.284	1605.271
-25.823	26.230	1955.687	1603.509
-24.809	26.122	1954.694	1601.673
-23.794	26.129	1952.885	1600.186
-22.779	26.189	1950.758	1598.918
-21.765	26.121	1949.349	1597.092
-20.750	26.165	1947.549	1595.940
-19.736	26.135	1946.425	1594.691
-18.721	26.162	1944.795	1593.536
-17.706	26.152	1942.959	1591.878
-16.692	26.106	1941.578	1590.280
-15.677	26.153	1939.858	1589.219
-14.663	26.158	1937.923	1587.621
-13.648	26.187	1937.361	1587.349
-12.633	26.126	1936.165	1585.770
-11.619	26.153	1934.208	1584.343
-10.604	26.153	1932.968	1583.259
-9.590	26.183	1931.536	1582.292
-8.575	26.096	1930.682	1580.768
-7.560	26.171	1929.244	1580.178
-6.546	26.153	1927.751	1578.735
-5.531	26.192	1926.457	1577.954
-4.517	26.173	1925.225	1576.722
-3.502	26.153	1924.677	1576.032
-2.487	26.155	1923.095	1574.696
-1.473	26.133	1922.227	1573.727
-0.458	26.193	1916.785	1569.729
0.556	28.071	1897.262	1541.899
1.571	23.752	1878.774	1490.591
2.586	19.864	1901.708	1475.561
3.600	18.886	1936.332	1493.796
4.615	18.619	1929.737	1486.265
5.629	14.848	1830.294	1378.509
6.644	7.830	1717.168	1238.716
7.659	4.257	1684.467	1187.696
8.673	3.934	1681.016	1182.687
9.688	4.071	1680.051	1182.953
10.702	4.213	1678.631	1182.933
11.717	4.113	1675.067	1179.551
12.731	4.633	1674.040	1182.681
13.746	9.537	1685.990	1228.505
14.761	17.516	1702.809	1301.895
15.775	21.897	1711.487	1342.007
16.790	22.552	1711.614	1346.995
17.804	21.808	1708.161	1338.487
18.819	20.839	1705.236	1328.684
19.834	20.277	1703.095	1322.619
20.848	20.163	1702.141	1320.888
21.863	20.150	1700.787	1319.622
22.877	20.001	1699.577	1317.436
23.892	19.687	1698.688	1314.239
24.907	19.749	1697.103	1313.368
25.921	19.711	1696.574	1312.556
26.936	19.654	1695.049	1310.831
27.950	19.662	1693.884	1309.868
28.965	19.773	1692.972	1309.887
29.980	19.759	1693.157	1309.812
30.994	19.937	1692.071	1310.201
32.009	20.184	1690.542	1310.773
33.023	20.171	1690.353	1310.409
34.038	20.115	1689.782	1309.431
35.053	20.109	1688.175	1308.023
36.067	19.922	1687.001	1305.585
37.082	19.884	1685.421	1303.961
38.096	19.834	1684.963	1303.117
39.111	19.969	1683.944	1303.231
40.126	20.077	1682.767	1303.012
41.140	20.047	1682.035	1302.103
42.155	19.721	1680.664	1298.482
43.169	19.399	1679.180	1294.804
44.184	19.353	1677.561	1293.096
45.199	19.368	1676.481	1292.263
46.213	19.344	1675.093	1290.900
47.228	19.441	1674.118	1290.759
48.242	19.770	1672.954	1292.206
49.257	19.848	1672.304	1292.171
50.271	19.798	1671.198	1290.829
51.286	19.785	1670.027	1289.715
52.301	19.783	1668.675	1288.541
53.315	19.817	1667.244	1287.573
54.330	19.772	1665.578	1285.840
55.344	19.640	1664.123	1283.622
56.359	19.495	1662.075	1280.848
57.374	19.531	1661.554	1280.604
58.388	19.560	1660.249	1279.701
59.403	19.518	1658.890	1278.230
60.417	19.357	1657.805	1276.087
61.432	19.254	1656.888	1274.504
62.447	19.296	1655.718	1273.807
63.461	19.251	1654.404	1272.352
64.476	19.155	1653.091	1270.520
65.490	19.085	1651.867	1268.950
66.505	19.034	1651.164	1267.920
67.520	19.023	1650.044	1266.870
68.534	19.147	1649.046	1266.901
69.549	19.228	1647.989	1266.573
70.563	19.104	1646.931	1264.738
71.578	19.164	1644.917	1263.519
72.593	18.960	1644.381	1261.497
73.607	18.887	1643.321	1260.038
74.622	18.778	1642.353	1258.388
75.636	18.800	1641.344	1257.660
76.651	18.909	1640.560	1257.752
77.666	19.000	1639.431	1257.438
78.680	19.035	1638.923	1257.195
79.695	19.121	1637.926	1256.943
80.709	19.171	1637.042	1256.519
81.724	19.375	1636.078	1257.156
82.739	19.370	1636.169	1257.077
83.753	19.488	1635.346	1257.193
84.768	19.552	1634.398	1256.816
85.782	19.808	1634.256	1258.464
86.797	19.960	1633.522	1258.892
87.812	19.994	1632.604	1258.321
88.826	19.973	1631.465	1257.174
89.841	19.886	1630.170	1255.437
90.855	19.804	1629.255	1254.027
91.870	19.978	1627.759	1254.027
92.884	19.956	1627.381	1253.465
93.899	20.020	1626.585	1253.205
94.914	20.131	1625.443	1253.010
95.928	20.095	1624.169	1251.657
96.943	20.168	1623.024	1251.196
97.957	20.097	1621.469	1249.376
98.972	19.936	1619.974	1246.951
99.987	19.994	1618.098	1245.814
101.001	19.938	1616.830	1244.325
102.016	19.966	1615.412	1243.322
103.030	19.956	1614.314	1242.296
104.045	20.000	1613.224	1241.667
105.060	20.026	1611.177	1240.165
106.074	19.938	1610.139	1238.626
107.089	19.632	1608.441	1235.025
108.103	19.338	1606.396	1231.247
109.118	19.207	1604.528	1228.767
110.133	19.199	1603.197	1227.585
111.147	19.177	1601.949	1226.363
112.162	19.136	1600.418	1224.791
113.176	19.233	1599.501	1224.671
114.191	19.276	1598.178	1223.859
115.206	19.280	1597.164	1222.999
116.220	19.398	1595.908	1222.764
117.235	19.304	1594.964	1221.271
118.249	19.369	1593.073	1220.170
119.264	19.236	1591.822	1218.163
120.279	19.191	1590.199	1216.498
121.293	19.048	1589.036	1214.490
122.308	19.077	1586.911	1212.966
123.322	18.960	1585.324	1210.818
124.337	18.830	1584.069	1208.839
125.352	18.865	1582.575	1207.836
126.366	18.809	1581.547	1206.556
127.381	18.843	1580.612	1205.971
128.395	18.858	1579.014	1204.751
129.410	18.818	1577.555	1203.250
130.424	18.816	1576.409	1202.255
131.439	18.905	1574.893	1201.616
132.454	19.070	1574.574	1202.418
133.468	19.172	1572.806	1201.673
134.483	19.236	1571.528	1201.041
135.497	19.244	1570.398	1200.121
136.512	19.221	1569.092	1198.859
137.527	19.325	1567.592	1198.332
138.541	19.306	1567.034	1197.665
139.556	19.410	1565.454	1197.078
140.570	19.499	1564.065	1196.525
141.585	19.566	1562.907	1195.998
142.600	19.615	1561.542	1195.183
143.614	19.819	1560.922	1196.016
144.629	19.877	1559.752	1195.417
145.643	20.029	1558.619	1195.486
146.658	20.020	1557.315	1194.318
147.673	19.929	1555.962	1192.550
148.687	19.677	1554.986	1189.965
149.702	19.572	1552.832	1187.487
150.716	19.479	1551.065	1185.390
151.731	19.419	1549.570	1183.735
152.746	19.335	1547.691	1181.617
153.760	19.375	1546.634	1180.981
154.775	19.368	1545.846	1180.224
155.789	19.522	1544.747	1180.332
156.804	19.595	1543.450	1179.734
157.819	19.624	1542.371	1179.007
158.833	19.708	1541.403	1178.732
159.848	19.781	1540.296	1178.278
160.862	19.936	1539.724	1178.798
161.877	20.076	1538.229	1178.496
162.892	19.874	1537.156	1176.197
163.906	19.484	1535.203	1171.951
164.921	19.365	1533.638	1169.845
165.935	19.384	1532.367	1168.905
166.950	19.459	1531.289	1168.484
167.964	19.538	1530.452	1168.277
168.979	19.603	1529.262	1167.703
169.994	19.606	1528.388	1166.956
171.008	19.501	1526.982	1165.069
172.023	19.454	1526.591	1164.354
173.037	19.657	1524.744	1164.205
174.052	19.744	1524.480	1164.486
175.067	19.935	1523.430	1164.868
176.081	19.776	1521.670	1162.350
177.096	19.368	1520.337	1158.489
178.110	19.451	1518.372	1157.445
179.125	19.399	1517.502	1156.331
180.140	19.469	1516.824	1156.181
181.154	19.617	1515.824	1156.307
182.169	19.676	1515.207	1156.132
183.183	19.867	1513.690	1156.145
184.198	19.917	1512.918	1155.789
185.213	19.929	1512.570	1155.504
186.227	20.024	1510.848	1154.717
187.242	19.897	1510.350	1153.386
188.256	20.088	1508.913	1153.464
189.271	20.146	1507.992	1153.040
190.286	20.112	1507.766	1152.538
191.300	20.099	1506.426	1151.324
192.315	19.698	1504.737	1147.274
193.329	19.310	1503.137	1143.376
194.344	19.338	1501.966	1142.571
195.359	19.480	1500.934	1142.625
196.373	19.548	1499.940	1142.218
197.388	19.524	1499.265	1141.443
198.402	19.722	1498.218	1141.851
199.417	19.852	1497.288	1141.903
200.432	20.106	1496.752	1143.068
201.446	20.316	1496.107	1143.858
202.461	20.533	1495.016	1144.354
203.475	20.418	1494.593	1143.172
204.490	20.599	1493.702	1143.577
205.504	20.374	1491.880	1140.604
206.519	20.120	1490.368	1137.679
207.534	20.058	1488.983	1136.118
208.548	20.027	1487.738	1134.861
209.563	19.911	1487.051	1133.479
210.577	19.974	1486.132	1133.092
211.592	20.004	1485.080	1132.385
212.607	19.975	1484.966	1132.009
213.621	20.215	1484.095	1132.808
214.636	20.377	1483.430	1133.260
215.650	20.225	1482.177	1131.210
216.665	20.155	1481.632	1130.237
217.680	20.276	1480.810	1130.297
218.694	20.444	1480.228	1130.850
219.709	20.533	1479.635	1130.875
220.723	20.553	1478.315	1129.895
221.738	20.494	1477.206	1128.568
222.753	20.415	1476.456	1127.381
223.767	20.465	1475.137	1126.600
224.782	20.264	1474.599	1124.783
225.796	20.393	1473.859	1124.958
226.811	20.554	1473.238	1125.427
227.826	20.588	1472.826	1125.232
228.840	20.422	1471.440	1123.001
229.855	20.355	1469.757	1121.180
230.869	20.234	1469.006	1119.728
231.884	20.325	1467.935	1119.401
232.899	20.169	1466.833	1117.456
233.913	20.202	1465.382	1116.465
234.928	19.984	1464.048	1113.944
235.942	20.024	1462.553	1112.969
236.957	19.905	1461.515	1111.317
237.972	19.940	1460.003	1110.288
238.986	19.938	1459.154	1109.532
240.001	19.930	1458.509	1108.894
241.015	19.943	1457.708	1108.269
242.030	20.071	1456.300	1107.922
243.045	20.029	1455.522	1106.964
244.059	20.228	1454.691	1107.503
245.074	20.253	1454.203	1107.193
246.088	20.305	1453.612	1106.978
247.103	20.380	1452.406	1106.436
248.117	20.348	1452.169	1105.959
249.132	20.585	1451.473	1106.839
250.147	20.715	1450.865	1107.102
251.161	20.891	1450.835	1108.100
252.176	21.185	1450.573	1109.671
253.190	21.294	1449.538	1109.472
254.205	21.309	1449.049	1109.094
255.220	21.389	1447.829	1108.573
256.234	21.450	1447.567	1108.662
257.249	21.553	1446.012	1108.022
258.263	21.328	1445.680	1106.248
259.278	21.333	1444.627	1105.374
260.293	21.333	1443.659	1104.534
261.307	21.267	1443.115	1103.604
262.322	21.427	1442.502	1104.048
263.336	21.494	1441.426	1103.549
264.351	21.547	1440.351	1102.965
265.366	21.454	1439.656	1101.749
266.380	21.442	1438.717	1100.859
267.395	21.528	1437.388	1100.283
268.409	21.555	1436.291	1099.519
269.424	21.402	1435.366	1097.750
270.439	21.213	1434.211	1095.586
271.453	21.223	1433.674	1095.142
272.468	21.301	1432.496	1094.632
273.482	21.182	1431.590	1093.097
274.497	21.117	1430.391	1091.681
275.512	21.045	1429.616	1090.541
276.526	21.027	1428.764	1089.683
277.541	21.034	1428.248	1089.237
278.555	21.048	1427.018	1088.286
279.570	21.069	1426.539	1087.957
280.585	21.263	1425.645	1088.387
281.599	21.391	1425.090	1088.665
282.614	21.552	1424.176	1088.872
283.628	21.444	1422.817	1087.066
284.643	21.140	1421.758	1084.273
285.657	21.202	1420.430	1083.548
286.672	21.239	1419.415	1082.909
287.687	21.136	1418.683	1081.617
288.701	21.243	1417.537	1081.307
289.716	21.151	1416.851	1080.118
290.730	21.234	1415.880	1079.799
291.745	21.218	1414.791	1078.775
292.760	21.274	1413.845	1078.303
293.774	21.284	1413.081	1077.685
294.789	21.384	1411.957	1077.350
295.803	21.363	1411.648	1076.890
296.818	21.533	1410.634	1077.067
297.833	21.390	1409.892	1075.526
298.847	21.273	1408.210	1073.429
299.862	21.184	1407.379	1072.155
300.876	21.247	1406.220	1071.561
301.891	21.338	1405.219	1071.263
302.906	21.405	1404.654	1071.144
303.920	21.446	1404.350	1071.069
304.935	21.605	1403.777	1071.510
305.949	21.719	1403.103	1071.600
306.964	21.799	1402.911	1071.847
307.979	21.856	1401.907	1071.335
308.993	21.771	1400.745	1069.834
310.008	21.653	1399.463	1068.036
311.022	21.703	1398.218	1067.301
312.037	21.803	1397.467	1067.237
313.052	21.751	1396.700	1066.242
314.066	21.623	1395.379	1064.365
315.081	21.581	1393.919	1062.903
316.095	21.350	1392.383	1060.233
317.110	21.289	1391.232	1058.897
318.125	21.283	1390.517	1058.220
319.139	21.266	1389.675	1057.384
320.154	21.245	1388.720	1056.437
321.168	21.237	1387.780	1055.577
322.183	21.278	1386.537	1054.788
323.197	21.286	1385.810	1054.191
324.212	21.305	1384.987	1053.582
325.227	21.406	1384.467	1053.704
326.241	21.421	1383.827	1053.211
327.256	21.403	1383.078	1052.441
328.270	21.426	1381.857	1051.557
329.285	21.332	1381.140	1050.352
330.300	21.214	1380.262	1048.886
331.314	21.363	1378.854	1048.618
332.329	21.414	1377.717	1047.964
333.343	21.335	1377.122	1046.945
334.358	21.444	1376.331	1046.906
335.373	21.567	1375.886	1047.208
336.387	21.665	1374.808	1046.884
337.402	21.635	1374.767	1046.579
338.416	21.773	1373.992	1046.721
339.431	21.859	1373.624	1046.860
340.446	21.974	1372.786	1046.812
341.460	21.950	1371.542	1045.628
342.475	22.004	1371.195	1045.594
343.489	22.282	1370.339	1046.504
344.504	22.154	1370.016	1045.405
345.519	22.380	1368.381	1045.408
346.533	22.445	1366.969	1044.619
347.548	22.487	1366.377	1044.325
348.562	22.537	1365.952	1044.202
349.577	22.571	1364.794	1043.429
350.592	22.260	1364.275	1041.098
351.606	22.036	1362.859	1038.603
352.621	21.895	1361.638	1036.746
353.635	21.692	1360.160	1034.328
354.650	21.757	1359.248	1033.928
355.665	21.685	1358.299	1032.691
356.679	21.828	1356.991	1032.449
357.694	21.866	1356.369	1032.106
358.708	21.897	1355.472	1031.511
359.723	21.989	1354.506	1031.227
360.738	22.077	1353.427	1030.833
361.752	22.092	1352.362	1030.018
362.767	21.996	1351.430	1028.651
363.781	22.120	1350.436	1028.534
364.796	21.945	1350.056	1027.129
365.810	22.099	1349.375	1027.420
366.825	22.306	1348.898	1028.175
367.840	22.500	1348.136	1028.638
368.854	22.652	1347.488	1028.939
369.869	22.726	1347.109	1028.987
370.883	22.851	1346.315	1029.018
371.898	22.717	1345.862	1027.800
372.913	22.507	1344.524	1025.469
373.927	22.444	1343.284	1024.065
374.942	22.501	1342.545	1023.741
375.956	22.653	1341.854	1024.006
376.971	22.593	1341.874	1023.582
377.986	22.622	1340.356	1022.500
379.000	22.489	1339.540	1021.016
380.015	22.760	1338.920	1022.028
381.029	22.858	1338.326	1022.049
382.044	22.780	1338.297	1021.483
383.059	22.916	1337.133	1021.295
384.073	22.852	1336.542	1020.378
385.088	22.852	1335.601	1019.569
386.102	22.794	1335.464	1019.044
387.117	22.890	1334.227	1018.563
388.132	22.732	1333.280	1016.839
389.146	22.491	1332.246	1014.571
390.161	22.403	1331.057	1013.071
391.175	22.425	1330.327	1012.549
392.190	22.354	1329.680	1011.560
393.205	22.431	1329.036	1011.421
394.219	22.678	1327.800	1011.812
395.234	22.876	1326.888	1012.163
396.248	22.644	1325.504	1009.686
397.263	22.583	1323.893	1008.025
398.278	22.469	1322.648	1006.336
399.292	22.413	1321.542	1005.084
400.307	22.322	1320.341	1003.563
401.321	22.290	1319.259	1002.467
402.336	22.242	1317.971	1001.127
403.350	22.209	1317.069	1000.168
404.365	22.306	1316.103	999.894
405.380	22.224	1315.599	998.960
406.394	22.396	1314.704	999.167
407.409	22.381	1314.395	998.758
408.423	22.567	1313.821	999.287
409.438	22.837	1312.876	1000.012
410.453	22.935	1312.588	1000.256
411.467	22.988	1312.045	1000.058
412.482	23.114	1311.396	1000.183
413.496	23.176	1311.020	1000.159
414.511	23.182	1310.027	999.349
415.526	23.221	1309.539	999.106
416.540	23.284	1308.948	998.926
417.555	23.448	1308.396	999.339
418.569	23.482	1307.588	998.824
419.584	23.317	1306.962	997.330
420.599	23.152	1306.363	995.856
421.613	147.864	1436.031	1797.635
422.628	143.313	1454.855	1797.735
