DTS Sentinel unit serial number:	SN413079Multiplexer serial number:	ORYXHardware model number:	OX4-SRSoftware version number:	ORYX F/W v4.00 Oryx Data Collector v3.7.2.0data status	okinstallation	princeton_trtdifferential loss correction	single-endedforward channel	channel 4reverse channel	N/Adate	2019/09/15time	09:37:35forward acquisition time	60.00reverse acquisition time	0.00gamma	496.2192k internal	0.2299k external	0.2299temperature offset calibration	1.0014default loss term (dB/km)	0.3790temperature slope calibration	1.0000multiplexer offset coefficient	1.0000multiplexer slope coefficient	1.0000fibre end	0.00T internal ref (°C)	33.87T ext. ref 1 (°C)	4.91T ext. ref 2 (°C)	29.72length (m)	temperature (°C)	Stokes	anti-Stokes-747.200	-97.414	-0.208	-0.055
-746.185	-46.549	-0.307	-0.154
-745.171	-200.000	-0.055	0.259
-744.156	-21.457	-0.177	0.110
-743.142	-109.763	0.114	-0.024
-742.127	-78.851	0.186	0.065
-741.112	800.000	-0.019	0.064
-740.098	-200.000	0.028	0.167
-739.083	-76.786	-0.080	-0.029
-738.069	96.471	0.225	0.263
-737.054	72.326	-0.042	0.045
-736.039	59.504	-0.285	-0.287
-735.025	800.000	0.021	0.075
-734.010	-101.070	-0.085	-0.021
-732.996	-120.473	0.133	-0.023
-731.981	155.971	-0.176	-0.248
-730.966	-62.390	0.217	-0.092
-729.952	-66.850	-0.227	-0.091
-728.937	416.753	0.128	-0.279
-727.923	-84.066	0.021	-0.007
-726.908	-50.478	-0.261	0.126
-725.894	557.574	-0.051	-0.125
-724.879	-119.867	0.408	0.072
-723.864	-66.997	0.116	-0.047
-722.850	233.956	-0.189	0.317
-721.835	-47.061	0.133	-0.066
-720.821	21.428	0.190	0.157
-719.806	-200.000	-0.042	-0.365
-718.791	800.000	-0.085	-0.281
-717.777	0.535	-0.171	0.124
-716.762	31.630	-0.095	-0.084
-715.748	800.000	-0.033	-0.099
-714.733	30.391	-0.232	-0.202
-713.718	-200.000	0.049	-0.522
-712.704	800.000	-0.077	-0.276
-711.689	48.049	-0.099	0.094
-710.675	486.200	0.118	0.273
-709.660	-26.912	-0.062	0.037
-708.645	-200.000	-0.031	-0.167
-707.631	93.543	0.201	-0.232
-706.616	362.725	-0.160	-0.327
-705.602	-151.266	0.267	-0.020
-704.587	82.759	-0.154	-0.171
-703.572	-76.760	-0.124	-0.044
-702.558	447.590	0.023	0.051
-701.543	107.606	-0.195	-0.236
-700.529	-200.000	-0.006	0.179
-699.514	23.158	0.190	-0.159
-698.499	493.919	0.092	-0.215
-697.485	-200.000	0.021	-0.191
-696.470	123.105	-0.144	0.184
-695.456	-200.000	-0.011	0.206
-694.441	-200.000	0.050	-0.383
-693.426	-200.000	0.077	-0.353
-692.412	137.529	-0.234	0.311
-691.397	-200.000	0.012	-0.160
-690.383	-96.283	0.342	-0.092
-689.368	353.889	-0.049	0.099
-688.354	-60.567	-0.160	-0.069
-687.339	-12.598	-0.245	-0.163
-686.324	400.464	0.077	-0.164
-685.310	-200.000	-0.046	-0.210
-684.295	308.717	-0.050	0.095
-683.281	-200.000	-0.037	-0.246
-682.266	-20.658	0.077	-0.048
-681.251	-119.210	0.607	-0.108
-680.237	-8.595	-0.314	-0.215
-679.222	212.321	0.089	0.143
-678.208	-35.763	-0.086	-0.047
-677.193	-43.592	0.174	-0.089
-676.178	-15.254	-0.215	-0.140
-675.164	-200.000	-0.026	-0.237
-674.149	800.000	0.127	-0.492
-673.135	9.617	-0.203	-0.156
-672.120	-13.960	0.164	-0.108
-671.105	-157.953	0.151	-0.009
-670.091	-102.991	-0.305	0.074
-669.076	-200.000	0.002	-0.349
-668.062	-200.000	0.038	0.213
-667.047	-95.747	-0.164	-0.045
-666.032	627.067	-0.059	-0.152
-665.018	662.803	0.059	0.155
-664.003	-78.459	-0.108	0.038
-662.989	-49.045	0.206	-0.100
-661.974	-200.000	0.003	0.184
-660.959	-200.000	-0.047	-0.247
-659.945	-42.004	-0.096	0.050
-658.930	70.432	0.129	0.136
-657.916	-118.527	-0.427	0.077
-656.901	-200.000	-0.011	0.416
-655.886	115.567	-0.063	0.079
-654.872	354.159	-0.153	-0.309
-653.857	-115.818	-0.232	0.044
-652.843	-200.000	-0.003	-0.045
-651.828	-59.311	0.390	0.170
-650.814	-70.084	-0.399	-0.154
-649.799	63.307	0.168	-0.172
-648.784	-76.429	-0.130	-0.046
-647.770	261.952	-0.125	-0.220
-646.755	540.736	0.096	0.232
-645.741	-182.903	-0.171	0.003
-644.726	-18.742	0.104	-0.066
-643.711	108.147	-0.165	-0.200
-642.697	25.734	-0.107	-0.091
-641.682	-54.473	-0.218	-0.100
-640.668	-23.720	-0.230	-0.140
-639.653	-98.280	0.317	0.083
-638.638	-132.979	-0.329	0.042
-637.624	-200.000	0.006	0.077
-636.609	-71.523	0.501	-0.190
-635.595	160.330	-0.070	-0.099
-634.580	-100.631	-0.341	-0.086
-633.565	272.025	-0.086	-0.154
-632.551	-200.000	0.060	0.343
-631.536	-200.000	0.015	-0.313
-630.522	-200.000	-0.006	-0.176
-629.507	-2.412	0.046	-0.033
-628.492	-200.000	0.056	-0.289
-627.478	-12.550	0.239	0.158
-626.463	-80.647	-0.135	0.046
-625.449	-17.740	0.302	0.193
-624.434	6.057	0.066	-0.049
-623.419	-89.064	0.205	0.062
-622.405	173.267	0.152	0.223
-621.390	241.477	-0.046	-0.078
-620.376	94.697	-0.143	-0.165
-619.361	-23.815	0.258	-0.157
-618.346	-68.979	-0.383	0.150
-617.332	-22.615	-0.264	-0.162
-616.317	-200.000	-0.017	0.191
-615.303	396.625	-0.045	0.096
-614.288	131.494	-0.087	0.114
-613.273	-200.000	-0.011	0.063
-612.259	-108.776	0.177	0.038
-611.244	44.879	0.115	0.107
-610.230	-126.812	-0.018	0.003
-609.215	-152.247	-0.359	-0.026
-608.201	800.000	-0.033	0.095
-607.186	29.207	0.203	-0.175
-606.171	13.076	0.218	-0.171
-605.157	410.421	-0.061	-0.131
-604.142	-193.296	-0.221	-0.002
-603.128	-185.667	0.320	0.005
-602.113	79.250	-0.048	0.052
-601.098	-103.923	-0.202	-0.048
-600.084	85.484	0.105	-0.117
-599.069	800.000	0.031	-0.128
-598.055	-170.526	0.236	-0.008
-597.040	114.526	-0.185	-0.229
-596.025	-200.000	0.016	0.134
-595.011	-200.000	0.036	-0.541
-593.996	25.367	0.090	-0.076
-592.982	-33.909	0.007	0.004
-591.967	165.182	0.181	-0.260
-590.952	293.427	-0.124	0.229
-589.938	42.342	0.021	0.020
-588.923	710.107	0.166	-0.447
-587.909	-64.435	-0.127	-0.053
-586.894	-200.000	0.010	-0.063
-585.879	227.729	-0.012	-0.020
-584.865	541.568	0.074	-0.180
-583.850	800.000	0.112	-0.344
-582.836	-23.643	-0.194	-0.118
-581.821	-145.667	-0.068	0.006
-580.806	-105.023	0.280	-0.065
-579.792	571.136	0.091	-0.224
-578.777	19.420	-0.072	-0.059
-577.763	86.328	-0.072	-0.081
-576.748	111.786	-0.147	-0.180
-575.733	-200.000	-0.026	-0.143
-574.719	277.667	-0.034	0.060
-573.704	-200.000	0.023	-0.182
-572.690	563.153	-0.101	0.247
-571.675	-32.057	0.228	0.129
-570.661	-27.127	0.325	-0.192
-569.646	-200.000	-0.002	0.044
-568.631	-147.394	-0.247	0.021
-567.617	-63.418	-0.286	0.119
-566.602	-128.832	0.209	-0.030
-565.588	285.652	0.100	0.183
-564.573	89.910	-0.157	-0.178
-563.558	-200.000	0.077	0.542
-562.544	-1.951	0.170	-0.121
-561.529	-72.252	0.370	-0.139
-560.515	800.000	0.061	-0.206
-559.500	-56.158	0.326	0.147
-558.485	-116.338	-0.440	-0.083
-557.471	800.000	-0.022	-0.075
-556.456	-87.592	-0.184	-0.056
-555.442	-100.808	0.231	0.058
-554.427	189.498	-0.177	-0.269
-553.412	562.477	-0.103	-0.253
-552.398	27.629	0.174	-0.148
-551.383	282.623	0.080	0.146
-550.369	394.430	0.093	-0.196
-549.354	-50.499	-0.270	0.129
-548.339	173.689	-0.215	0.315
-547.325	-70.127	0.268	0.103
-546.310	549.692	-0.048	-0.117
-545.296	-27.292	-0.265	-0.156
-544.281	-62.002	0.028	0.012
-543.266	713.995	-0.103	0.277
-542.252	-146.761	-0.149	-0.013
-541.237	291.037	-0.122	-0.225
-540.223	-130.136	-0.127	-0.017
-539.208	100.023	0.091	0.107
-538.193	-200.000	0.017	0.212
-537.179	120.366	0.091	-0.114
-536.164	452.274	-0.094	-0.211
-535.150	-73.081	0.157	-0.058
-534.135	-102.015	0.152	-0.037
-533.121	413.320	-0.071	-0.153
-532.106	-200.000	0.026	0.160
-531.091	-2.401	-0.225	-0.160
-530.077	21.051	-0.126	-0.103
-529.062	316.629	-0.088	0.169
-528.048	-200.000	0.066	0.413
-527.033	-90.497	-0.120	0.035
-526.018	70.140	0.020	-0.021
-525.004	-45.824	-0.169	-0.084
-523.989	8.039	-0.287	0.218
-522.975	-200.000	-0.020	-0.243
-521.960	-93.706	0.055	0.015
-520.945	707.981	0.025	-0.066
-519.931	324.279	0.056	0.108
-518.916	-43.200	-0.244	0.125
-517.902	-200.000	-0.025	-0.161
-516.887	67.724	-0.178	0.184
-515.872	198.879	-0.076	-0.118
-514.858	321.023	-0.144	-0.276
-513.843	-94.424	-0.110	-0.030
-512.829	-84.314	-0.157	0.050
-511.814	264.264	0.078	0.138
-510.799	0.107	0.276	-0.199
-509.785	-189.966	0.195	-0.002
-508.770	650.418	-0.083	-0.215
-507.756	-200.000	0.059	-0.275
-506.741	-200.000	0.062	-0.607
-505.726	230.978	-0.109	0.180
-504.712	800.000	-0.107	0.364
-503.697	-175.249	0.240	0.007
-502.683	21.968	0.243	0.201
-501.668	-160.092	0.143	-0.008
-500.653	-200.000	-0.005	-0.159
-499.639	261.076	0.184	-0.322
-498.624	-47.947	-0.148	0.072
-497.610	-23.632	0.291	0.177
-496.595	-14.788	-0.229	-0.148
-495.581	563.638	-0.041	-0.099
-494.566	800.000	-0.069	0.285
-493.551	62.266	-0.050	0.051
-492.537	124.999	0.283	0.360
-491.522	20.414	-0.267	0.218
-490.508	-200.000	0.008	-0.195
-489.493	141.990	-0.263	-0.352
-488.478	800.000	-0.030	0.110
-487.464	35.434	-0.275	0.244
-486.449	23.171	0.216	-0.179
-485.435	-183.536	-0.060	0.001
-484.420	-49.627	0.244	-0.117
-483.405	304.828	-0.127	0.238
-482.391	-118.971	0.182	-0.032
-481.376	386.114	-0.087	0.181
-480.362	-130.686	-0.092	0.013
-479.347	-141.569	-0.246	0.025
-478.332	-72.946	0.048	-0.018
-477.318	-8.787	-0.175	-0.119
-476.303	-47.040	0.353	0.174
-475.289	80.970	-0.064	-0.070
-474.274	-37.016	-0.318	-0.172
-473.259	-153.177	-0.231	0.016
-472.245	-151.983	0.252	-0.019
-471.230	800.000	-0.046	-0.194
-470.216	102.521	0.246	0.290
-469.201	12.890	0.134	-0.104
-468.186	-200.000	0.017	0.238
-467.172	-110.329	-0.122	0.026
-466.157	389.630	-0.121	-0.252
-465.143	-138.913	0.053	-0.006
-464.128	800.000	0.057	-0.224
-463.113	-0.088	-0.210	0.151
-462.099	6.632	-0.316	0.237
-461.084	-76.410	-0.191	0.068
-460.070	-96.276	0.130	0.035
-459.055	290.891	0.053	0.098
-458.040	25.837	-0.078	0.065
-457.026	-144.206	-0.440	-0.041
-456.011	489.756	-0.090	-0.207
-454.997	-123.726	0.140	0.022
-453.982	-93.487	-0.281	-0.078
-452.968	161.622	-0.048	-0.068
-451.953	800.000	-0.137	-0.456
-450.938	60.675	-0.070	0.070
-449.924	556.819	0.119	0.290
-448.909	-120.266	-0.521	0.090
-447.895	10.053	0.231	-0.177
-446.880	-200.000	0.003	-0.136
-445.865	113.222	-0.081	-0.099
-444.851	21.066	0.276	-0.226
-443.836	-109.242	0.347	0.074
-442.822	-200.000	-0.065	0.000
-441.807	31.572	-0.191	0.166
-440.792	800.000	0.037	0.133
-439.778	19.807	0.194	0.158
-438.763	19.529	-0.097	0.079
-437.749	-64.727	-0.014	0.006
-436.734	353.858	-0.103	-0.207
-435.719	-109.802	-0.383	0.081
-434.705	559.104	-0.021	0.051
-433.690	48.913	0.114	0.108
-432.676	-79.358	-0.099	0.034
-431.661	71.666	0.001	-0.002
-430.646	47.460	0.184	0.173
-429.632	342.140	0.123	-0.243
-428.617	21.526	-0.087	0.072
-427.603	-200.000	0.046	-0.209
-426.588	673.904	0.101	0.264
-425.573	220.793	-0.085	0.137
-424.559	-71.519	0.427	0.161
-423.544	225.341	-0.107	-0.174
-422.530	-55.204	0.222	0.101
-421.515	184.853	-0.041	0.061
-420.500	258.974	-0.106	-0.185
-419.486	800.000	-0.023	-0.098
-418.471	-77.102	0.193	0.068
-417.457	279.918	-0.148	-0.267
-416.442	44.051	-0.101	0.093
-415.428	209.373	0.027	-0.042
-414.413	94.505	0.118	0.135
-413.398	800.000	0.024	-0.107
-412.384	35.395	-0.035	0.031
-411.369	-200.000	-0.264	0.000
-410.355	-14.738	-0.318	0.206
-409.340	-200.000	0.040	-0.271
-408.325	-200.000	0.003	-0.076
-407.311	-2.419	0.081	-0.057
-406.296	51.267	0.090	0.086
-405.282	-200.000	0.006	-0.613
-404.267	-200.000	-0.024	-0.339
-403.252	313.352	0.334	0.632
-402.238	99.714	-0.130	0.152
-401.223	495.911	-0.115	0.266
-400.209	15.698	0.227	-0.180
-399.194	142.751	-0.130	-0.174
-398.179	800.000	0.035	0.113
-397.165	101.231	0.137	-0.161
-396.150	76.382	0.176	0.188
-395.136	59.037	0.224	-0.222
-394.121	-104.175	0.154	0.036
-393.106	98.486	-0.048	0.055
-392.092	-103.811	0.037	0.009
-391.077	56.890	0.100	0.099
-390.063	-47.271	-0.070	-0.034
-389.048	144.834	-0.075	0.101
-388.033	263.442	-0.068	0.119
-387.019	-200.000	0.004	0.075
-386.004	-87.851	0.095	0.029
-384.990	-29.429	0.296	0.170
-383.975	167.540	-0.119	0.170
-382.960	-67.614	0.079	0.031
-381.946	200.668	0.130	0.201
-380.931	244.102	0.235	0.397
-379.917	-200.000	-0.039	0.287
-378.902	95.813	0.147	0.169
-377.888	282.327	0.147	-0.266
-376.873	-200.000	-0.005	-0.175
-375.858	-197.182	-0.160	-0.001
-374.844	-200.000	0.001	0.187
-373.829	-200.000	-0.003	0.172
-372.815	11.895	-0.175	0.135
-371.800	34.884	0.209	-0.184
-370.785	-6.609	-0.232	-0.159
-369.771	472.766	-0.109	0.246
-368.756	-200.000	0.014	0.075
-367.742	316.057	-0.040	0.075
-366.727	311.487	0.109	0.205
-365.712	-200.000	-0.019	0.268
-364.698	-138.939	-0.152	-0.017
-363.683	4.823	0.193	0.142
-362.669	-200.000	0.044	0.223
-361.654	-200.000	-0.006	0.036
-360.639	132.185	0.194	0.251
-359.625	-83.966	-0.324	0.103
-358.610	-65.925	0.216	-0.087
-357.596	-200.000	0.012	-0.185
-356.581	76.235	0.092	0.098
-355.566	482.977	0.083	0.191
-354.552	-180.172	0.131	0.003
-353.537	-157.946	-0.067	-0.004
-352.523	800.000	0.103	-0.350
-351.508	0.567	0.316	0.227
-350.493	179.687	0.100	-0.147
-349.479	-138.111	-0.102	0.011
-348.464	-41.364	-0.026	0.014
-347.450	168.197	0.045	0.065
-346.435	-38.548	-0.424	-0.225
-345.420	71.630	0.224	0.233
-344.406	-14.119	-0.274	-0.178
-343.391	800.000	-0.062	0.199
-342.377	83.155	-0.079	-0.087
-341.362	-64.430	0.076	0.031
-340.348	42.695	0.312	-0.286
-339.333	800.000	0.028	0.114
-338.318	-30.025	0.056	-0.032
-337.304	800.000	0.109	0.318
-336.289	153.961	0.082	0.113
-335.275	800.000	-0.067	0.223
-334.260	800.000	0.093	0.381
-333.245	-200.000	0.009	-0.089
-332.231	311.829	-0.078	-0.147
-331.216	-160.101	-0.277	-0.015
-330.202	742.433	0.067	-0.181
-329.187	25.121	-0.136	-0.114
-328.172	726.290	0.041	-0.110
-327.158	291.128	0.127	0.231
-326.143	-59.551	0.075	0.032
-325.129	-97.505	-0.391	-0.102
-324.114	-200.000	-0.039	-0.311
-323.099	175.801	-0.120	-0.175
-322.085	113.001	0.227	0.276
-321.070	378.405	0.122	-0.251
-320.056	-200.000	-0.028	-0.239
-319.041	-200.000	-0.042	-0.275
-318.026	-125.122	-0.055	-0.008
-317.012	-54.482	-0.079	-0.036
-315.997	256.481	-0.166	-0.287
-314.983	-36.677	-0.109	-0.059
-313.968	-151.306	0.156	0.012
-312.953	-182.648	0.155	0.003
-311.939	44.861	0.171	0.158
-310.924	-50.529	0.149	0.070
-309.910	335.603	0.053	-0.103
-308.895	-163.415	0.084	-0.004
-307.880	800.000	0.105	0.308
-306.866	633.600	-0.078	0.198
-305.851	-65.603	-0.234	-0.094
-304.837	77.342	0.115	-0.123
-303.822	73.957	0.109	-0.115
-302.807	1.659	-0.339	-0.245
-301.793	-125.749	0.183	-0.028
-300.778	800.000	0.046	0.159
-299.764	-200.000	0.015	0.355
-298.749	-190.807	0.462	0.005
-297.735	60.899	-0.215	0.214
-296.720	-200.000	0.002	-0.255
-295.705	-200.000	0.039	0.182
-294.691	-97.186	-0.320	-0.084
-293.676	135.793	-0.073	0.095
-292.662	6.526	-0.177	0.132
-291.647	-86.697	-0.008	0.002
-290.632	26.072	0.054	-0.045
-289.618	34.572	0.128	0.112
-288.603	-66.085	0.150	0.060
-287.589	-200.000	-0.070	0.352
-286.574	5.566	-0.206	0.153
-285.559	532.634	-0.092	0.217
-284.545	162.809	0.150	0.212
-283.530	-35.275	-0.198	0.108
-282.516	-90.519	0.166	0.048
-281.501	148.097	-0.229	-0.310
-280.486	-62.464	0.193	-0.080
-279.472	-200.000	-0.018	0.325
-278.457	-200.000	-0.003	-0.058
-277.443	-5.198	0.210	0.145
-276.428	406.731	0.101	-0.214
-275.413	331.005	-0.068	0.131
-274.399	-200.000	0.050	-0.275
-273.384	407.032	-0.060	0.127
-272.370	231.651	-0.069	0.113
-271.355	-128.625	-0.275	0.039
-270.340	-93.706	0.014	-0.004
-269.326	79.018	0.114	0.122
-268.311	45.668	0.185	0.171
-267.297	531.939	0.074	0.175
-266.282	-74.611	-0.184	0.066
-265.267	-200.000	-0.006	-0.273
-264.253	99.372	0.244	0.282
-263.238	99.177	0.015	0.017
-262.224	513.239	0.145	0.337
-261.209	-158.856	0.147	0.008
-260.195	-48.168	-0.220	0.106
-259.180	219.756	0.026	0.041
-258.165	-44.279	-0.420	-0.211
-257.151	15.439	0.284	0.223
-256.136	21.607	-0.166	0.135
-255.122	-200.000	0.028	-0.143
-254.107	800.000	-0.101	0.356
-253.092	-114.641	0.222	0.042
-252.078	-47.788	0.283	0.137
-251.063	30.193	-0.200	-0.171
-250.049	-200.000	-0.025	-0.175
-249.034	32.913	0.151	-0.131
-248.019	-94.368	0.120	0.033
-247.005	800.000	0.038	-0.113
-245.990	-4.298	-0.189	0.131
-244.976	800.000	0.065	0.234
-243.961	-200.000	-0.015	0.134
-242.946	528.712	0.100	-0.236
-241.932	277.147	0.141	-0.251
-240.917	-86.016	0.238	-0.074
-239.903	-28.880	0.191	-0.110
-238.888	-94.345	-0.217	0.059
-237.873	-200.000	-0.006	-0.027
-236.859	-114.515	0.150	-0.029
-235.844	-29.080	0.220	-0.126
-234.830	800.000	0.030	0.085
-233.815	-200.000	0.035	0.153
-232.800	50.587	0.184	-0.174
-231.786	46.228	-0.213	0.197
-230.771	126.839	-0.156	0.198
-229.757	-78.104	0.269	0.093
-228.742	-200.000	0.015	-0.112
-227.727	-148.383	0.184	0.015
-226.713	-200.000	0.006	-0.118
-225.698	-200.000	-0.051	-0.250
-224.684	800.000	-0.069	0.239
-223.669	-49.179	0.201	0.096
-222.655	-13.711	-0.087	-0.056
-221.640	-37.944	-0.177	0.094
-220.625	168.606	-0.103	-0.147
-219.611	257.284	0.027	0.047
-218.596	700.881	-0.082	0.215
-217.582	156.874	0.163	-0.225
-216.567	86.027	-0.057	0.063
-215.552	800.000	-0.092	0.334
-214.538	-184.998	0.069	-0.001
-213.523	-136.515	-0.144	-0.017
-212.509	22.685	0.073	0.060
-211.494	-84.569	0.302	0.095
-210.479	226.726	0.045	0.073
-209.465	-15.953	0.158	-0.100
-208.450	800.000	-0.115	0.340
-207.436	589.325	-0.176	0.433
-206.421	-149.379	0.180	-0.014
-205.406	187.774	-0.209	-0.311
-204.392	-103.082	-0.257	0.061
-203.377	800.000	0.138	-0.445
-202.363	-32.315	0.349	-0.195
-201.348	460.677	0.205	-0.455
-200.333	-19.440	-0.083	0.052
-199.319	-78.081	0.266	-0.091
-198.304	-200.000	0.006	0.061
-197.290	53.092	-0.194	-0.186
-196.275	259.498	0.125	0.215
-195.260	55.263	-0.148	0.143
-194.246	109.435	0.156	0.187
-193.231	-200.000	-0.029	-0.174
-192.217	-95.964	-0.469	-0.125
-191.202	-86.182	0.017	0.005
-190.187	239.857	-0.177	-0.294
-189.173	-45.366	0.145	-0.072
-188.158	336.247	0.036	0.069
-187.144	-163.526	0.432	0.020
-186.129	2.077	-0.306	0.221
-185.114	800.000	-0.011	-0.036
-184.100	-97.480	-0.294	0.076
-183.085	164.808	0.255	0.359
-182.071	315.052	-0.158	-0.297
-181.056	567.036	0.158	0.382
-180.042	61.336	-0.256	0.254
-179.027	800.000	-0.083	-0.357
-178.012	-200.000	0.010	-0.413
-176.998	-200.000	0.005	-0.062
-175.983	-61.428	-0.121	-0.051
-174.969	253.682	-0.021	0.036
-173.954	15.778	-0.244	0.192
-172.939	56.439	0.204	-0.198
-171.925	-13.304	0.117	-0.076
-170.910	567.216	0.172	-0.417
-169.896	-36.349	0.270	-0.145
-168.881	-200.000	-0.011	0.110
-167.866	-148.293	-0.250	0.021
-166.852	159.190	0.064	-0.089
-165.837	25.868	0.239	-0.199
-164.823	-200.000	-0.043	-0.200
-163.808	244.522	-0.137	0.229
-162.793	786.326	-0.027	-0.073
-161.779	-194.394	-0.327	0.003
-160.764	630.715	0.088	0.222
-159.750	57.924	0.227	0.221
-158.735	800.000	0.075	0.325
-157.720	-43.145	-0.174	-0.088
-156.706	-70.574	-0.358	0.135
-155.691	191.871	-0.047	-0.070
-154.677	-105.539	0.140	0.032
-153.662	292.223	-0.175	-0.317
-152.647	-53.862	-0.266	0.121
-151.633	-200.000	-0.018	0.221
-150.618	44.861	-0.307	-0.281
-149.604	584.159	-0.050	-0.122
-148.589	-89.806	-0.097	-0.028
-147.574	-69.177	0.224	-0.086
-146.560	-200.000	0.006	-0.028
-145.545	470.092	0.103	-0.230
-144.531	800.000	0.041	-0.157
-143.516	-200.000	0.003	-0.120
-142.502	145.516	0.078	0.103
-141.487	40.465	-0.217	-0.195
-140.472	-116.613	0.091	0.017
-139.458	-200.000	0.034	0.213
-138.443	800.000	-0.152	0.513
-137.429	-50.203	0.449	0.212
-136.414	-200.000	-0.009	-0.418
-135.399	-59.577	0.374	-0.160
-134.385	-106.162	0.113	0.025
-133.370	-113.037	-0.241	0.048
-132.356	800.000	0.022	-0.077
-131.341	800.000	-0.108	0.351
-130.326	110.733	-0.278	0.334
-129.312	-200.000	0.005	-0.043
-128.297	-62.708	0.312	0.129
-127.283	-32.223	0.042	-0.023
-126.268	181.774	-0.076	-0.112
-125.253	146.327	-0.053	-0.071
-124.239	-86.104	0.208	-0.064
-123.224	18.706	0.080	0.064
-122.210	-200.000	0.085	0.396
-121.195	-89.173	0.198	-0.058
-120.180	800.000	0.089	0.297
-119.166	-200.000	-0.012	0.178
-118.151	7.015	-0.298	0.221
-117.137	310.070	-0.195	-0.364
-116.122	62.803	0.151	-0.151
-115.107	699.914	0.022	0.057
-114.093	75.633	-0.155	0.163
-113.078	22.530	0.266	-0.216
-112.064	67.242	0.127	0.129
-111.049	-200.000	-0.027	0.174
-110.034	373.941	-0.180	-0.364
-109.020	-93.385	0.362	0.100
-108.005	-34.960	0.132	-0.072
-106.991	-62.371	-0.138	0.057
-105.976	53.078	0.248	0.236
-104.962	-59.464	0.079	-0.034
-103.947	800.000	0.073	0.218
-102.932	-200.000	-0.027	0.222
-101.918	-131.456	0.117	0.015
-100.903	144.068	0.230	-0.305
-99.889	-46.654	-0.251	0.122
-98.874	-200.000	0.005	0.185
-97.859	159.556	0.080	-0.110
-96.845	-36.044	0.031	-0.017
-95.830	-200.000	-0.024	0.166
-94.816	-52.418	0.365	-0.168
-93.801	-92.160	0.226	0.064
-92.786	159.519	-0.101	-0.140
-91.772	-200.000	0.044	0.213
-90.757	800.000	0.018	-0.059
-89.743	800.000	0.031	0.130
-88.728	-124.908	-0.091	0.014
-87.713	119.107	-0.070	0.086
-86.699	437.680	-0.044	0.096
-85.684	368.903	-0.084	0.168
-84.670	800.000	0.077	0.312
-83.655	647.913	-0.095	0.241
-82.640	-24.401	0.229	-0.136
-81.626	-119.977	0.371	-0.063
-80.611	-145.214	0.102	0.009
-79.597	109.762	0.161	0.191
-78.582	618.724	0.055	0.137
-77.567	111.561	0.198	0.237
-76.553	-27.111	0.032	0.019
-75.538	66.351	-0.132	0.133
-74.524	-150.963	0.170	-0.013
-73.509	-151.628	-0.081	-0.006
-72.494	30.172	0.217	-0.184
-71.480	16.076	0.165	0.130
-70.465	-176.428	0.211	0.005
-69.451	-71.661	-0.079	-0.029
-68.436	-37.209	0.116	0.062
-67.422	-171.385	-0.134	0.004
-66.407	-113.970	0.244	0.047
-65.392	-200.000	0.033	0.222
-64.378	476.185	-0.112	-0.251
-63.363	-142.912	0.172	-0.017
-62.349	-18.910	0.181	-0.112
-61.334	59.422	-0.757	-0.741
-60.319	44.469	0.267	0.244
-59.305	-200.000	-0.221	-1.051
-58.290	289.032	0.551	0.992
-57.276	597.109	0.761	1.873
-56.261	-200.000	97.571	573.356
-55.246	606.589	1412.994	3498.982
-54.232	181.178	2629.397	3839.426
-53.217	109.348	2346.366	2790.693
-52.203	40.342	2091.414	1869.481
-51.188	35.568	2003.110	1747.179
-50.173	33.998	1985.359	1717.456
-49.159	48.643	2038.031	1897.455
-48.144	51.115	2056.607	1937.317
-47.130	36.373	2014.471	1764.166
-46.115	33.870	2002.883	1731.176
-45.100	33.743	1999.806	1727.291
-44.086	33.836	1996.834	1725.503
-43.071	33.649	1995.067	1722.210
-42.057	33.545	1993.082	1719.478
-41.042	33.782	1990.831	1719.622
-40.027	33.700	1988.593	1716.876
-39.013	33.801	1986.301	1715.742
-37.998	33.705	1984.790	1713.504
-36.984	33.779	1982.911	1712.480
-35.969	33.818	1980.684	1710.841
-34.954	33.859	1979.147	1709.813
-33.940	33.785	1978.038	1708.125
-32.925	33.865	1975.859	1706.893
-31.911	33.859	1974.164	1705.300
-30.896	33.868	1971.984	1703.432
-29.881	33.890	1971.081	1702.788
-28.867	33.894	1969.218	1701.145
-27.852	33.891	1967.836	1699.858
-26.838	33.893	1965.463	1697.757
-25.823	33.929	1963.677	1696.468
-24.809	33.916	1961.947	1694.792
-23.794	33.926	1960.348	1693.430
-22.779	34.002	1958.515	1692.458
-21.765	33.898	1956.713	1689.902
-20.750	33.916	1955.431	1688.894
-19.736	33.940	1953.875	1687.693
-18.721	33.882	1952.652	1686.058
-17.706	33.864	1950.911	1684.323
-16.692	33.890	1949.011	1682.849
-15.677	33.840	1947.603	1681.124
-14.663	33.920	1946.049	1680.424
-13.648	33.946	1944.708	1679.431
-12.633	33.950	1943.738	1678.563
-11.619	33.923	1942.172	1676.901
-10.604	33.897	1940.829	1675.442
-9.590	33.812	1939.797	1673.739
-8.575	33.836	1938.202	1672.513
-7.560	33.909	1936.728	1671.811
-6.546	33.951	1935.464	1671.028
-5.531	33.949	1934.082	1669.747
-4.517	33.926	1933.149	1668.672
-3.502	33.884	1932.010	1667.257
-2.487	33.827	1931.021	1665.832
-1.473	33.859	1929.997	1665.164
-0.458	33.984	1925.377	1662.212
0.556	32.860	1905.162	1635.135
1.571	28.711	1885.456	1582.410
2.586	24.643	1907.778	1565.454
3.600	23.450	1944.271	1584.601
4.615	22.585	1939.024	1572.469
5.629	17.565	1837.546	1447.491
6.644	9.190	1719.280	1287.347
7.659	5.317	1682.817	1229.512
8.673	5.020	1679.347	1224.536
9.688	4.919	1678.037	1222.679
10.702	4.865	1676.537	1221.056
11.717	4.836	1673.154	1218.261
12.731	5.228	1672.815	1220.965
13.746	10.806	1686.205	1274.488
14.761	17.700	1700.911	1339.857
15.775	19.160	1701.919	1351.999
16.790	18.101	1697.957	1340.434
17.804	17.021	1694.693	1329.282
18.819	15.998	1691.560	1318.704
19.834	15.463	1688.361	1311.918
20.848	15.100	1687.400	1308.217
21.863	14.832	1685.944	1304.879
22.877	14.625	1684.128	1301.743
23.892	14.419	1682.892	1299.071
24.907	14.319	1681.453	1297.065
25.921	14.325	1680.342	1296.136
26.936	14.261	1679.401	1294.800
27.950	14.311	1678.941	1294.724
28.965	14.310	1678.635	1294.363
29.980	14.417	1677.312	1294.055
30.994	14.445	1676.735	1293.714
32.009	14.560	1675.596	1293.615
33.023	14.617	1674.147	1292.824
34.038	14.639	1673.655	1292.495
35.053	14.508	1672.926	1290.811
36.067	14.488	1671.020	1289.067
37.082	14.408	1670.188	1287.695
38.096	14.457	1669.201	1287.194
39.111	14.543	1667.978	1286.803
40.126	14.581	1666.909	1286.156
41.140	14.544	1666.090	1285.126
42.155	14.438	1664.771	1283.179
43.169	14.262	1663.687	1280.876
44.184	14.340	1661.973	1280.047
45.199	14.261	1661.227	1278.750
46.213	14.204	1660.257	1277.449
47.228	14.181	1659.236	1276.376
48.242	14.337	1657.741	1276.307
49.257	14.371	1656.734	1275.685
50.271	14.481	1655.126	1275.176
51.286	14.398	1654.207	1273.715
52.301	14.369	1652.843	1272.333
53.315	14.377	1651.740	1271.433
54.330	14.409	1649.856	1270.115
55.344	14.316	1648.171	1267.993
56.359	14.264	1647.048	1266.620
57.374	14.248	1646.036	1265.614
58.388	14.253	1644.706	1264.512
59.403	14.297	1643.017	1263.437
60.417	14.173	1642.035	1261.633
61.432	14.152	1641.009	1260.568
62.447	14.200	1639.686	1259.811
63.461	14.213	1638.315	1258.738
64.476	14.138	1637.482	1257.423
65.490	14.144	1636.264	1256.419
66.505	14.204	1634.703	1255.563
67.520	14.138	1633.940	1254.368
68.534	14.207	1632.852	1253.940
69.549	14.212	1632.089	1253.285
70.563	14.106	1630.976	1251.523
71.578	14.098	1629.616	1250.309
72.593	14.175	1628.267	1249.737
73.607	14.094	1627.363	1248.329
74.622	14.038	1626.150	1246.867
75.636	14.042	1625.511	1246.291
76.651	14.022	1624.572	1245.318
77.666	13.951	1624.321	1244.484
78.680	14.045	1623.107	1244.141
79.695	14.035	1622.001	1243.114
80.709	14.022	1621.396	1242.442
81.724	14.194	1619.976	1242.527
82.739	14.202	1619.398	1242.035
83.753	14.145	1618.868	1241.089
84.768	14.324	1617.771	1241.477
85.782	14.399	1617.317	1241.573
86.797	14.454	1616.229	1241.037
87.812	14.436	1615.225	1240.024
88.826	14.436	1613.729	1238.764
89.841	14.314	1613.397	1237.498
90.855	14.424	1611.629	1236.847
91.870	14.337	1611.189	1235.753
92.884	14.392	1610.012	1235.149
93.899	14.499	1608.735	1234.854
94.914	14.481	1607.652	1233.779
95.928	14.561	1606.518	1233.392
96.943	14.583	1604.688	1232.037
97.957	14.484	1603.910	1230.601
98.972	14.440	1602.312	1228.943
99.987	14.429	1600.913	1227.683
101.001	14.409	1599.096	1226.033
102.016	14.423	1597.971	1225.163
103.030	14.386	1596.578	1223.716
104.045	14.428	1595.464	1223.064
105.060	14.462	1593.648	1221.813
106.074	14.443	1592.662	1220.809
107.089	14.407	1591.072	1219.217
108.103	14.216	1589.146	1216.240
109.118	14.143	1588.347	1214.988
110.133	14.136	1586.333	1213.284
111.147	14.159	1584.894	1212.247
112.162	14.206	1583.300	1211.260
113.176	14.176	1582.268	1210.146
114.191	14.159	1581.294	1209.175
115.206	14.289	1579.600	1208.714
116.220	14.288	1578.200	1207.526
117.235	14.278	1576.958	1206.399
118.249	14.283	1575.322	1205.076
119.264	14.236	1574.453	1203.965
120.279	14.225	1573.277	1202.879
121.293	14.260	1571.641	1201.776
122.308	14.199	1570.146	1200.085
123.322	14.090	1568.706	1198.093
124.337	14.084	1567.036	1196.669
125.352	14.082	1566.188	1195.904
126.366	14.118	1565.030	1195.170
127.381	14.124	1563.560	1193.981
128.395	14.094	1562.687	1192.995
129.410	14.252	1560.905	1192.664
130.424	14.162	1559.540	1190.872
131.439	14.187	1558.296	1189.994
132.454	14.247	1557.269	1189.535
133.468	14.302	1555.916	1188.788
134.483	14.332	1553.944	1187.388
135.497	14.329	1552.926	1186.484
136.512	14.282	1551.774	1185.167
137.527	14.280	1550.338	1183.947
138.541	14.279	1549.386	1183.112
139.556	14.348	1547.882	1182.348
140.570	14.352	1546.592	1181.284
141.585	14.410	1545.078	1180.433
142.600	14.439	1544.001	1179.716
143.614	14.532	1542.739	1179.302
144.629	14.548	1541.618	1178.457
145.643	14.690	1539.818	1177.975
146.658	14.650	1538.643	1176.690
147.673	14.575	1537.832	1175.435
148.687	14.526	1536.111	1173.678
149.702	14.502	1534.366	1172.067
150.716	14.417	1532.993	1170.317
151.731	14.366	1531.460	1168.685
152.746	14.419	1530.551	1168.261
153.760	14.363	1529.105	1166.661
154.775	14.421	1527.636	1165.844
155.789	14.602	1526.107	1165.839
156.804	14.631	1524.983	1165.078
157.819	14.573	1524.074	1163.877
158.833	14.568	1522.930	1162.865
159.848	14.528	1521.926	1161.718
160.862	14.639	1520.651	1161.414
161.877	14.828	1519.297	1161.588
162.892	14.677	1518.455	1159.797
163.906	14.530	1516.704	1157.336
164.921	14.408	1515.711	1155.632
165.935	14.527	1515.175	1155.940
166.950	14.462	1513.770	1154.320
167.964	14.614	1512.246	1154.107
168.979	14.673	1511.789	1154.065
169.994	14.628	1510.530	1152.692
171.008	14.606	1509.172	1151.398
172.023	14.565	1508.463	1150.474
173.037	14.728	1507.033	1150.407
174.052	14.763	1505.955	1149.722
175.067	14.721	1505.701	1149.138
176.081	14.730	1503.728	1147.587
177.096	14.575	1502.638	1145.593
178.110	14.587	1501.243	1144.510
179.125	14.626	1499.995	1143.723
180.140	14.618	1498.881	1142.718
181.154	14.669	1498.142	1142.401
182.169	14.657	1497.045	1141.382
183.183	14.738	1495.681	1140.794
184.198	14.826	1494.278	1140.225
185.213	14.818	1493.690	1139.621
186.227	14.850	1492.532	1138.855
187.242	14.894	1491.730	1138.442
188.256	14.929	1490.213	1137.420
189.271	14.920	1489.520	1136.733
190.286	14.994	1488.360	1136.250
191.300	14.885	1487.506	1134.755
192.315	14.782	1485.956	1132.776
193.329	14.673	1484.609	1130.910
194.344	14.535	1483.428	1128.975
195.359	14.691	1482.575	1129.283
196.373	14.720	1481.741	1128.740
197.388	14.826	1480.395	1128.332
198.402	14.915	1479.479	1128.135
199.417	15.011	1478.318	1127.800
200.432	15.011	1477.926	1127.397
201.446	15.133	1476.722	1127.202
202.461	15.178	1475.577	1126.530
203.475	15.124	1474.395	1125.168
204.490	15.200	1473.152	1124.629
205.504	15.144	1472.420	1123.595
206.519	15.141	1470.842	1122.268
207.534	15.054	1469.659	1120.685
208.548	15.036	1468.491	1119.575
209.563	15.048	1467.764	1118.999
210.577	15.073	1466.179	1117.863
211.592	15.060	1465.819	1117.402
212.607	15.130	1465.013	1117.157
213.621	15.171	1464.842	1117.199
214.636	15.298	1463.498	1116.923
215.650	15.189	1462.324	1115.202
216.665	15.244	1461.414	1114.775
217.680	15.311	1460.538	1114.453
218.694	15.317	1459.557	1113.642
219.709	15.406	1458.714	1113.491
220.723	15.409	1457.770	1112.696
221.738	15.309	1457.142	1111.453
222.753	15.381	1455.907	1110.890
223.767	15.269	1455.318	1109.599
224.782	15.284	1454.268	1108.801
225.796	15.391	1453.076	1108.505
226.811	15.439	1452.353	1108.167
227.826	15.441	1451.777	1107.646
228.840	15.468	1450.819	1106.995
229.855	15.341	1449.792	1105.273
230.869	15.411	1448.705	1104.810
231.884	15.388	1447.648	1103.752
232.899	15.358	1446.629	1102.681
233.913	15.234	1445.681	1101.052
234.928	15.348	1444.231	1100.598
235.942	15.221	1443.101	1098.805
236.957	15.371	1441.571	1098.522
237.972	15.304	1440.706	1097.326
238.986	15.303	1439.363	1096.200
240.001	15.258	1438.840	1095.415
241.015	15.280	1437.701	1094.596
242.030	15.373	1436.384	1094.097
243.045	15.470	1435.454	1093.929
244.059	15.451	1434.782	1093.194
245.074	15.573	1433.619	1093.007
246.088	15.558	1433.084	1092.403
247.103	15.563	1431.980	1091.498
248.117	15.566	1431.601	1091.128
249.132	15.638	1430.479	1090.648
250.147	15.747	1430.174	1091.024
251.161	15.794	1429.586	1090.787
252.176	15.867	1428.745	1090.520
253.190	15.931	1428.261	1090.466
254.205	15.944	1427.291	1089.718
255.220	15.925	1426.320	1088.754
256.234	15.975	1425.586	1088.418
257.249	15.994	1424.809	1087.856
258.263	15.981	1423.705	1086.829
259.278	16.080	1422.519	1086.469
260.293	16.024	1421.983	1085.599
261.307	16.095	1420.962	1085.182
262.322	16.027	1420.493	1084.288
263.336	16.185	1419.467	1084.427
264.351	16.203	1418.469	1083.683
265.366	16.099	1417.370	1082.081
266.380	16.169	1416.531	1081.794
267.395	16.201	1415.654	1081.236
268.409	16.210	1415.061	1080.739
269.424	16.209	1413.710	1079.610
270.439	16.138	1412.672	1078.265
271.453	16.100	1411.739	1077.213
272.468	16.090	1410.950	1076.458
273.482	16.076	1410.234	1075.723
274.497	16.127	1409.088	1075.080
275.512	16.042	1408.673	1074.129
276.526	16.077	1407.731	1073.534
277.541	16.104	1406.671	1072.806
278.555	16.096	1405.685	1071.904
279.570	16.192	1404.809	1071.756
280.585	16.190	1404.369	1071.311
281.599	16.327	1403.181	1071.176
282.614	16.504	1401.873	1071.205
283.628	16.331	1400.694	1069.117
284.643	16.255	1400.112	1068.097
285.657	16.287	1399.081	1067.415
286.672	16.271	1397.808	1066.251
287.687	16.377	1396.774	1066.036
288.701	16.329	1396.119	1065.141
289.716	16.289	1395.615	1064.410
290.730	16.309	1394.774	1063.798
291.745	16.359	1393.061	1062.714
292.760	16.364	1392.564	1062.271
293.774	16.329	1391.928	1061.471
294.789	16.420	1390.379	1060.769
295.803	16.467	1389.936	1060.634
296.818	16.515	1388.811	1059.983
297.833	16.474	1387.855	1058.902
298.847	16.439	1387.039	1057.963
299.862	16.442	1386.122	1057.190
300.876	16.408	1385.300	1056.257
301.891	16.547	1384.217	1056.206
302.906	16.584	1383.405	1055.721
303.920	16.543	1382.625	1054.778
304.935	16.591	1381.818	1054.370
305.949	16.651	1381.374	1054.313
306.964	16.645	1380.880	1053.803
307.979	16.728	1379.528	1053.193
308.993	16.757	1378.515	1052.509
310.008	16.683	1377.336	1051.057
311.022	16.742	1376.159	1050.430
312.037	16.754	1375.043	1049.563
313.052	16.778	1374.449	1049.165
314.066	16.755	1373.369	1048.105
315.081	16.607	1372.871	1046.715
316.095	16.650	1371.516	1045.854
317.110	16.582	1370.558	1044.613
318.125	16.592	1369.145	1043.506
319.139	16.702	1368.412	1043.530
320.154	16.658	1367.381	1042.380
321.168	16.675	1366.472	1041.700
322.183	16.672	1365.321	1040.715
323.197	16.650	1364.752	1040.053
324.212	16.768	1363.781	1039.947
325.227	16.746	1362.979	1039.109
326.241	16.833	1361.765	1038.623
327.256	16.775	1360.909	1037.519
328.270	16.789	1360.187	1036.965
329.285	16.796	1359.302	1036.242
330.300	16.754	1358.757	1035.476
331.314	16.807	1357.546	1034.788
332.329	16.890	1356.607	1034.487
333.343	16.785	1355.596	1032.986
334.358	16.887	1354.692	1032.827
335.373	16.806	1354.592	1032.166
336.387	16.983	1353.163	1032.063
337.402	16.955	1352.864	1031.569
338.416	16.953	1352.160	1030.930
339.431	16.978	1351.373	1030.390
340.446	17.069	1350.548	1030.226
341.460	17.044	1349.957	1029.530
342.475	17.093	1348.953	1028.968
343.489	17.224	1347.505	1028.567
344.504	17.229	1346.702	1027.892
345.519	17.172	1346.106	1027.004
346.533	17.347	1344.658	1026.864
347.548	17.211	1344.107	1025.533
348.562	17.289	1343.495	1025.443
349.577	17.308	1342.706	1024.867
350.592	17.295	1341.718	1023.943
351.606	17.255	1340.894	1022.982
352.621	17.157	1339.408	1021.170
353.635	17.127	1338.805	1020.436
354.650	17.231	1337.680	1020.118
355.665	17.142	1336.734	1018.767
356.679	17.260	1335.460	1018.419
357.694	17.148	1334.725	1017.096
358.708	17.203	1333.410	1016.334
359.723	17.241	1332.904	1016.081
360.738	17.333	1331.720	1015.641
361.752	17.325	1330.383	1014.484
362.767	17.321	1329.465	1013.668
363.781	17.371	1328.245	1012.949
364.796	17.384	1328.114	1012.834
365.810	17.307	1327.368	1011.717
366.825	17.393	1326.799	1011.708
367.840	17.440	1325.754	1011.103
368.854	17.466	1325.486	1010.959
369.869	17.583	1324.998	1011.193
370.883	17.580	1323.894	1010.243
371.898	17.601	1323.158	1009.717
372.913	17.598	1322.105	1008.806
373.927	17.562	1321.260	1007.862
374.942	17.546	1320.531	1007.120
375.956	17.685	1319.548	1007.100
376.971	17.607	1319.070	1006.187
377.986	17.678	1318.060	1005.745
379.000	17.695	1317.344	1005.213
380.015	17.659	1316.733	1004.447
381.029	17.749	1315.931	1004.276
382.044	17.807	1314.987	1003.803
383.059	17.861	1314.698	1003.815
384.073	17.778	1313.858	1002.595
385.088	17.781	1313.161	1001.994
386.102	17.772	1312.706	1001.505
387.117	17.908	1311.705	1001.448
388.132	17.964	1310.508	1000.776
389.146	17.703	1309.815	998.629
390.161	17.641	1309.386	997.850
391.175	17.704	1308.424	997.400
392.190	17.697	1307.658	996.686
393.205	17.772	1306.920	996.474
394.219	17.888	1305.686	996.119
395.234	17.958	1304.145	995.265
396.248	17.843	1303.347	993.900
397.263	17.867	1301.914	992.857
398.278	17.868	1300.470	991.675
399.292	17.806	1299.482	990.473
400.307	17.768	1298.653	989.531
401.321	17.781	1297.381	988.548
402.336	17.760	1296.194	987.440
403.350	17.731	1295.455	986.617
404.365	17.743	1294.368	985.773
405.380	17.763	1293.502	985.140
406.394	17.815	1292.642	984.701
407.409	17.936	1292.236	984.999
408.423	17.934	1291.881	984.630
409.438	17.994	1290.867	984.120
410.453	18.080	1289.974	983.847
411.467	18.180	1289.349	983.855
412.482	18.138	1289.129	983.362
413.496	18.168	1288.094	982.658
414.511	18.329	1286.995	982.653
415.526	18.196	1286.798	981.652
416.540	18.279	1286.226	981.605
417.555	18.304	1285.378	981.019
418.569	18.320	1285.119	980.825
419.584	18.302	1284.383	980.074
420.599	18.413	1283.468	979.922
421.613	137.793	1431.653	1791.955
422.628	132.813	1453.229	1792.058
