DTS Sentinel unit serial number:	SN413079Multiplexer serial number:	ORYXHardware model number:	OX4-SRSoftware version number:	ORYX F/W v4.00 Oryx Data Collector v3.7.2.0data status	okinstallation	princeton_trtdifferential loss correction	single-endedforward channel	channel 4reverse channel	N/Adate	2019/09/14time	08:09:35forward acquisition time	60.00reverse acquisition time	0.00gamma	496.2192k internal	0.2318k external	0.2318temperature offset calibration	1.0132default loss term (dB/km)	0.3790temperature slope calibration	1.0000multiplexer offset coefficient	1.0000multiplexer slope coefficient	1.0000fibre end	0.00T internal ref (°C)	27.31T ext. ref 1 (°C)	3.57T ext. ref 2 (°C)	26.01length (m)	temperature (°C)	Stokes	anti-Stokes-747.200	-90.251	-0.139	-0.041
-746.185	-200.000	-0.002	-0.281
-745.171	288.234	0.097	-0.178
-744.156	-53.759	-0.235	-0.108
-743.142	-104.743	-0.107	0.025
-742.127	-33.185	-0.156	-0.087
-741.112	-82.615	0.137	0.045
-740.098	-200.000	-0.091	0.442
-739.083	-136.631	0.381	-0.045
-738.069	800.000	-0.166	-0.509
-737.054	-61.328	-0.072	-0.031
-736.039	-128.180	-0.345	-0.050
-735.025	-164.308	0.171	0.008
-734.010	-137.798	-0.267	-0.030
-732.996	71.197	-0.152	0.160
-731.981	103.106	0.047	-0.055
-730.966	-200.000	-0.353	0.000
-729.952	-61.894	0.169	0.071
-728.937	-83.573	-0.429	-0.139
-727.923	-200.000	0.041	0.341
-726.908	-73.370	0.139	-0.051
-725.894	-200.000	0.040	-0.207
-724.879	-77.858	0.128	0.045
-723.864	161.235	-0.228	-0.322
-722.850	800.000	0.042	-0.173
-721.835	19.221	-0.223	-0.181
-720.821	800.000	-0.184	-0.544
-719.806	-72.279	-0.057	0.021
-718.791	144.621	-0.048	0.064
-717.777	-135.463	-0.320	-0.039
-716.762	353.693	0.062	-0.124
-715.748	-7.903	-0.182	-0.124
-714.733	-200.000	0.040	-0.273
-713.718	98.820	-0.086	0.100
-712.704	800.000	-0.051	0.169
-711.689	-130.593	-0.288	0.039
-710.675	-15.723	-0.143	-0.092
-709.660	129.398	-0.075	0.097
-708.645	-58.494	-0.335	0.147
-707.631	800.000	0.111	-0.400
-706.616	168.848	-0.055	0.079
-705.602	800.000	0.052	0.172
-704.587	-200.000	-0.049	-0.262
-703.572	-107.109	0.047	0.010
-702.558	-200.000	-0.054	0.598
-701.543	82.590	-0.139	0.153
-700.529	19.695	-0.396	0.322
-699.514	-200.000	0.073	-0.412
-698.499	18.815	0.053	0.043
-697.485	151.733	-0.141	-0.195
-696.470	-60.050	-0.240	0.103
-695.456	62.416	-0.160	0.161
-694.441	96.879	0.142	-0.164
-693.426	542.098	-0.235	-0.566
-692.412	750.213	-0.016	0.043
-691.397	-200.000	-0.011	-0.218
-690.383	135.492	-0.064	0.085
-689.368	-85.801	-0.270	0.084
-688.354	-84.021	-0.053	-0.017
-687.339	-27.086	-0.219	0.129
-686.324	-200.000	-0.062	-0.480
-685.310	-144.460	-0.456	0.043
-684.295	507.196	-0.066	-0.155
-683.281	264.614	-0.083	0.145
-682.266	-200.000	-0.024	-0.290
-681.251	365.835	-0.116	-0.236
-680.237	213.590	0.181	-0.288
-679.222	290.647	-0.115	0.212
-678.208	-26.384	0.189	0.112
-677.193	133.616	-0.133	0.174
-676.178	197.235	-0.073	-0.112
-675.164	751.044	-0.161	0.439
-674.149	-200.000	0.027	-0.176
-673.135	703.786	0.117	-0.313
-672.120	94.908	-0.153	-0.176
-671.105	-55.686	0.379	0.171
-670.091	-157.924	-0.140	0.008
-669.076	-98.413	0.379	-0.098
-668.062	-118.745	0.112	0.020
-667.047	322.442	-0.010	-0.020
-666.032	208.418	-0.137	-0.217
-665.018	182.152	0.183	0.272
-664.003	800.000	-0.094	0.277
-662.989	-31.264	-0.248	-0.141
-661.974	800.000	0.129	-0.373
-660.959	50.111	-0.235	0.224
-659.945	-84.472	-0.088	-0.028
-658.930	694.631	-0.041	0.109
-657.916	106.295	0.204	-0.244
-656.901	308.350	0.053	-0.099
-655.886	-82.048	0.099	0.033
-654.872	55.026	-0.274	0.267
-653.857	-85.918	0.352	-0.110
-652.843	-60.690	0.315	-0.135
-651.828	98.863	-0.075	0.088
-650.814	-200.000	-0.013	-0.119
-649.799	-60.974	0.239	0.102
-648.784	78.845	0.128	0.138
-647.770	217.125	-0.163	-0.262
-646.755	154.930	0.137	-0.190
-645.741	-142.339	0.227	0.023
-644.726	-113.939	-0.265	-0.052
-643.711	-84.030	-0.211	-0.068
-642.697	73.183	-0.169	-0.178
-641.682	613.934	0.104	-0.263
-640.668	-105.179	-0.419	0.096
-639.653	193.072	-0.061	-0.093
-638.638	447.088	0.024	0.054
-637.624	352.974	-0.078	0.156
-636.609	-107.971	0.083	-0.018
-635.595	-18.189	-0.050	0.031
-634.580	-169.088	-0.245	0.009
-633.565	-62.993	-0.283	0.118
-632.551	-200.000	-0.002	0.056
-631.536	-71.437	0.276	-0.104
-630.522	-21.206	-0.286	0.176
-629.507	-51.697	0.042	-0.020
-628.492	143.034	0.216	-0.290
-627.478	-132.948	0.084	0.011
-626.463	-3.968	0.298	-0.208
-625.449	-105.291	-0.242	0.056
-624.434	-200.000	0.022	-0.267
-623.419	167.075	-0.111	0.159
-622.405	50.361	-0.016	0.016
-621.390	-200.000	-0.021	-0.345
-620.376	379.989	0.081	0.167
-619.361	800.000	0.130	-0.464
-618.346	800.000	0.067	0.245
-617.332	420.717	-0.131	0.284
-616.317	-156.099	0.112	-0.007
-615.303	-200.000	0.015	0.078
-614.288	-200.000	-0.036	-0.278
-613.273	103.174	-0.088	-0.104
-612.259	236.865	0.089	0.149
-611.244	188.354	0.123	0.185
-610.230	-11.074	0.054	0.036
-609.215	-200.000	0.007	0.409
-608.201	74.118	0.297	0.314
-607.186	-200.000	0.036	-0.227
-606.171	18.551	0.093	0.075
-605.157	58.134	0.095	0.094
-604.142	109.278	0.042	0.051
-603.128	1.750	0.040	-0.029
-602.113	-103.416	-0.224	-0.053
-601.098	178.651	0.150	-0.221
-600.084	-200.000	-0.026	0.137
-599.069	-56.879	-0.128	-0.057
-598.055	800.000	0.056	0.177
-597.040	-113.818	0.405	0.079
-596.025	-200.000	0.019	-0.296
-595.011	31.554	0.060	0.052
-593.996	-58.937	-0.209	0.091
-592.982	179.884	-0.119	0.175
-591.967	-200.000	-0.024	-0.107
-590.952	-30.648	-0.056	-0.032
-589.938	713.747	-0.023	0.060
-588.923	-75.095	-0.193	-0.069
-587.909	-200.000	0.055	-0.445
-586.894	-131.939	-0.241	-0.032
-585.879	292.310	0.146	0.268
-584.865	-6.217	0.059	0.040
-583.850	444.777	0.032	-0.070
-582.836	-54.570	0.242	0.110
-581.821	-63.790	-0.426	-0.175
-580.806	47.997	-0.095	-0.089
-579.792	800.000	0.105	-0.325
-578.777	-200.000	0.029	0.193
-577.763	800.000	-0.100	-0.292
-576.748	307.245	-0.037	0.069
-575.733	232.561	-0.070	-0.116
-574.719	118.416	-0.154	0.191
-573.704	-125.224	0.048	0.007
-572.690	153.766	-0.091	0.125
-571.675	449.422	0.120	-0.266
-570.661	800.000	0.027	0.097
-569.646	-200.000	0.004	0.091
-568.631	-200.000	-0.022	-0.177
-567.617	-200.000	-0.034	-0.270
-566.602	-75.025	0.173	0.062
-565.588	-200.000	0.002	-0.018
-564.573	-42.358	-0.115	-0.059
-563.558	59.169	0.165	-0.163
-562.544	-19.635	0.256	-0.159
-561.529	53.455	-0.173	0.167
-560.515	18.140	-0.026	-0.021
-559.500	152.539	-0.204	0.279
-558.485	-200.000	0.051	0.290
-557.471	72.711	-0.261	-0.273
-556.456	-200.000	-0.011	-0.159
-555.442	436.516	-0.047	0.103
-554.427	800.000	-0.041	-0.129
-553.412	-125.172	-0.137	0.021
-552.398	-91.643	-0.158	-0.045
-551.383	12.476	-0.398	0.309
-550.369	-200.000	-0.029	0.226
-549.354	-3.216	0.337	0.236
-548.339	-80.289	-0.421	-0.141
-547.325	93.730	0.175	-0.199
-546.310	66.271	-0.454	-0.463
-545.296	-144.640	-0.139	0.013
-544.281	6.832	-0.170	0.127
-543.266	497.768	0.063	0.147
-542.252	-8.277	-0.260	0.176
-541.237	385.261	0.007	0.015
-540.223	179.267	-0.141	-0.208
-539.208	-41.340	0.334	-0.173
-538.193	-142.174	0.190	-0.019
-537.179	800.000	0.043	0.169
-536.164	109.557	-0.055	-0.066
-535.150	-200.000	0.002	-0.026
-534.135	-200.000	-0.020	-0.124
-533.121	8.589	0.382	0.289
-532.106	-176.472	-0.094	0.002
-531.091	26.379	0.341	-0.286
-530.077	-94.468	-0.337	-0.092
-529.062	402.143	-0.077	0.161
-528.048	589.759	-0.071	-0.175
-527.033	49.753	-0.146	-0.138
-526.018	83.242	0.084	-0.091
-525.004	800.000	-0.090	0.397
-523.989	77.088	-0.194	0.206
-522.975	-200.000	-0.011	-0.124
-521.960	-68.970	0.284	-0.110
-520.945	154.378	0.222	0.305
-519.931	-200.000	-0.024	0.192
-518.916	114.352	0.140	-0.171
-517.902	300.638	0.058	-0.107
-516.887	-138.587	0.039	-0.004
-515.872	-17.454	-0.373	-0.236
-514.858	800.000	0.078	0.325
-513.843	-72.286	0.121	0.045
-512.829	135.001	-0.139	-0.181
-511.814	800.000	-0.024	-0.092
-510.799	216.026	-0.072	0.115
-509.785	-7.863	-0.360	0.244
-508.770	-200.000	0.004	0.054
-507.756	-27.305	0.248	-0.145
-506.741	-19.295	-0.139	0.086
-505.726	-134.943	0.387	-0.047
-504.712	800.000	0.087	0.323
-503.697	539.045	-0.050	-0.120
-502.683	138.123	-0.088	0.116
-501.668	-67.469	0.123	-0.049
-500.653	22.277	0.095	-0.078
-499.639	-120.249	0.260	-0.045
-498.624	-55.668	-0.179	-0.080
-497.610	-44.296	0.083	0.042
-496.595	109.208	0.070	-0.084
-495.581	-117.962	0.176	0.032
-494.566	60.792	0.093	0.092
-493.551	120.867	-0.110	-0.137
-492.537	-200.000	-0.024	0.163
-491.522	41.869	-0.146	0.132
-490.508	-155.234	-0.070	0.005
-489.493	26.290	0.125	-0.104
-488.478	-127.312	0.194	-0.028
-487.464	71.190	0.077	0.080
-486.449	-110.825	-0.189	0.039
-485.435	357.840	-0.214	-0.428
-484.420	-200.000	-0.047	0.292
-483.405	-14.990	-0.252	0.162
-482.391	-125.208	-0.333	-0.051
-481.376	800.000	-0.039	0.159
-480.362	800.000	-0.069	-0.282
-479.347	132.087	-0.216	-0.279
-478.332	-166.698	0.264	0.011
-477.318	-200.000	0.033	-0.262
-476.303	-1.160	-0.078	-0.055
-475.289	93.399	-0.158	0.179
-474.274	-136.381	0.255	0.030
-473.259	-110.310	-0.372	0.077
-472.245	337.752	0.070	-0.136
-471.230	-99.781	0.147	-0.037
-470.216	-3.054	-0.312	-0.218
-469.201	-5.378	-0.051	-0.035
-468.186	800.000	0.146	-0.431
-467.172	800.000	-0.051	-0.195
-466.157	-12.963	-0.116	-0.075
-465.143	56.112	-0.161	-0.156
-464.128	-200.000	-0.016	-0.307
-463.113	-6.938	0.230	0.156
-462.099	-200.000	-0.033	-0.181
-461.084	800.000	0.052	0.171
-460.070	-71.409	-0.144	0.054
-459.055	-132.320	-0.248	-0.032
-458.040	-98.465	0.286	0.073
-457.026	800.000	-0.042	-0.124
-456.011	-36.726	-0.104	0.056
-454.997	-107.677	-0.249	0.054
-453.982	127.751	-0.197	0.251
-452.968	-94.088	0.191	-0.052
-451.953	800.000	-0.080	0.252
-450.938	137.261	-0.040	0.053
-449.924	-130.180	-0.274	0.037
-448.909	5.797	0.134	-0.099
-447.895	-200.000	-0.024	-0.223
-446.880	798.226	-0.087	-0.241
-445.865	27.496	-0.223	-0.187
-444.851	-62.036	-0.227	-0.095
-443.836	800.000	0.062	-0.264
-442.822	1.894	-0.232	0.167
-441.807	-22.829	0.169	0.102
-440.792	-90.517	-0.123	0.035
-439.778	177.074	0.096	-0.140
-438.763	800.000	-0.042	0.146
-437.749	-65.030	-0.272	-0.110
-436.734	59.837	-0.086	-0.085
-435.719	71.897	0.071	-0.074
-434.705	800.000	0.098	-0.377
-433.690	-37.419	-0.382	-0.204
-432.676	-100.866	0.426	-0.105
-431.661	195.198	0.137	-0.208
-430.646	-157.848	-0.309	-0.018
-429.632	369.215	-0.173	-0.351
-428.617	29.390	-0.026	-0.022
-427.603	-80.752	0.129	0.043
-426.588	104.713	0.064	-0.076
-425.573	-12.716	-0.071	0.046
-424.559	668.607	-0.148	0.384
-423.544	126.702	0.073	0.092
-422.530	-200.000	0.017	-0.101
-421.515	-38.230	0.128	-0.068
-420.500	191.910	0.048	0.072
-419.486	-200.000	0.037	0.278
-418.471	-200.000	-0.008	-0.149
-417.457	-3.094	0.275	-0.192
-416.442	407.944	-0.039	-0.083
-415.428	-26.287	0.111	-0.065
-414.413	183.155	-0.152	-0.224
-413.398	-189.383	0.355	-0.004
-412.384	26.082	-0.025	0.021
-411.369	8.522	0.069	0.052
-410.355	-69.528	-0.423	0.162
-409.340	800.000	0.063	0.175
-408.325	-47.013	0.342	0.167
-407.311	4.580	0.123	0.090
-406.296	-195.085	-0.303	-0.002
-405.282	-138.401	-0.108	0.012
-404.267	-154.212	0.330	0.022
-403.252	686.775	-0.070	0.182
-402.238	-121.368	-0.248	0.041
-401.223	797.350	0.032	0.088
-400.209	28.504	-0.077	-0.065
-399.194	-200.000	-0.023	-0.296
-398.179	-108.987	0.095	-0.020
-397.165	223.603	0.173	-0.279
-396.150	27.898	-0.083	-0.070
-395.136	-200.000	0.016	-0.200
-394.121	90.938	0.122	0.136
-393.106	35.891	0.182	0.160
-392.092	-0.725	0.058	0.041
-391.077	-175.407	-0.320	-0.009
-390.063	310.465	-0.086	0.161
-389.048	14.553	0.234	0.182
-388.033	-200.000	-0.043	-0.229
-387.019	115.367	-0.229	-0.279
-386.004	237.404	-0.169	-0.280
-384.990	104.716	0.251	-0.295
-383.975	-86.549	0.198	0.061
-382.960	-200.000	0.001	-0.090
-381.946	800.000	-0.077	-0.261
-380.931	537.842	0.080	0.189
-379.917	-0.875	0.372	0.263
-378.902	-107.074	0.178	-0.039
-377.888	271.931	0.122	-0.215
-376.873	431.427	-0.007	0.015
-375.858	564.389	-0.075	0.181
-374.844	-144.801	0.160	-0.015
-373.829	-97.590	0.361	0.093
-372.815	-200.000	0.010	-0.218
-371.800	-49.988	-0.217	-0.102
-370.785	-24.725	0.073	-0.044
-369.771	-125.175	-0.051	-0.008
-368.756	607.474	-0.063	-0.156
-367.742	41.396	-0.171	-0.154
-366.727	-200.000	-0.002	-0.269
-365.712	-80.477	-0.035	0.012
-364.698	-200.000	0.012	-0.182
-363.683	-73.305	0.047	0.017
-362.669	12.973	-0.073	-0.057
-361.654	-200.000	0.002	-0.075
-360.639	-172.762	-0.195	-0.006
-359.625	63.013	0.168	0.168
-358.610	115.882	-0.186	-0.226
-357.596	30.504	-0.157	0.134
-356.581	48.870	-0.088	-0.082
-355.566	346.576	-0.097	-0.190
-354.552	63.731	-0.076	0.076
-353.537	800.000	-0.062	0.195
-352.523	717.170	-0.091	0.241
-351.508	-62.398	0.177	0.074
-350.493	-129.426	-0.093	-0.013
-349.479	-70.655	0.154	0.058
-348.464	-153.406	-0.443	0.031
-347.450	100.134	0.132	-0.152
-346.435	-112.817	-0.240	0.047
-345.420	-64.658	-0.233	0.094
-344.406	-4.000	-0.162	-0.112
-343.391	-64.357	0.269	0.109
-342.377	-200.000	-0.032	-0.176
-341.362	133.017	0.254	-0.327
-340.348	141.050	0.054	0.071
-339.333	-127.425	0.040	0.006
-338.318	-200.000	-0.006	-0.032
-337.304	95.890	0.114	0.130
-336.289	493.803	0.083	-0.190
-335.275	-41.734	-0.080	-0.041
-334.260	-171.538	-0.206	0.007
-333.245	-200.000	-0.044	0.279
-332.231	-92.057	0.034	-0.010
-331.216	12.950	0.087	-0.067
-330.202	7.165	0.132	-0.098
-329.187	134.233	0.189	-0.244
-328.172	800.000	-0.046	-0.165
-327.158	33.839	0.226	0.196
-326.143	146.655	0.176	-0.235
-325.129	-104.165	-0.370	0.086
-324.114	-200.000	-0.010	-0.049
-323.099	635.613	0.017	-0.043
-322.085	-180.562	0.217	0.004
-321.070	-51.674	0.255	0.118
-320.056	-121.435	0.224	0.037
-319.041	-105.805	-0.182	-0.041
-318.026	208.260	-0.066	0.103
-317.012	-200.000	-0.037	0.178
-315.997	-47.678	0.151	0.073
-314.983	-200.000	-0.012	-0.088
-313.968	-140.931	-0.229	-0.023
-312.953	105.829	-0.131	-0.154
-311.939	-200.000	-0.014	0.106
-310.924	716.639	0.110	-0.289
-309.910	499.998	0.131	-0.301
-308.895	-200.000	0.031	0.199
-307.880	-31.391	-0.136	-0.076
-306.866	800.000	-0.031	-0.123
-305.851	70.836	0.104	-0.107
-304.837	-140.913	0.204	-0.021
-303.822	-160.639	0.428	-0.023
-302.807	-119.408	0.351	-0.061
-301.793	-54.393	0.222	-0.100
-300.778	333.674	0.190	0.365
-299.764	-8.806	0.056	0.037
-298.749	800.000	0.007	0.026
-297.735	-135.778	0.217	0.025
-296.720	800.000	0.082	0.299
-295.705	-84.190	-0.058	-0.018
-294.691	-30.759	-0.056	0.031
-293.676	147.202	0.085	0.114
-292.662	1.078	0.085	-0.060
-291.647	-77.846	-0.068	-0.023
-290.632	800.000	0.105	0.326
-289.618	138.359	0.109	0.142
-288.603	-162.011	0.099	-0.005
-287.589	0.641	0.133	-0.095
-286.574	-190.309	-0.156	0.002
-285.559	-200.000	-0.008	0.157
-284.545	233.802	0.134	0.219
-283.530	-67.265	-0.335	0.131
-282.516	27.720	-0.027	-0.022
-281.501	-122.025	0.214	0.035
-280.486	-59.888	0.165	-0.070
-279.472	-48.163	0.261	-0.125
-278.457	-93.991	-0.078	-0.021
-277.443	-34.728	-0.216	0.118
-276.428	800.000	-0.016	-0.062
-275.413	-53.486	-0.364	0.165
-274.399	-71.942	-0.310	0.115
-273.384	-200.000	0.020	0.289
-272.370	90.271	-0.239	-0.265
-271.355	-40.422	0.055	0.029
-270.340	601.314	0.104	0.256
-269.326	593.463	-0.022	0.055
-268.311	800.000	0.072	-0.238
-267.297	32.401	-0.148	-0.127
-266.282	-117.078	0.265	-0.048
-265.267	347.062	-0.092	0.181
-264.253	263.445	-0.122	0.210
-263.238	-200.000	0.003	0.183
-262.224	-200.000	-0.030	-0.453
-261.209	583.802	-0.069	0.167
-260.195	-58.518	0.190	-0.082
-259.180	-200.000	0.008	-0.070
-258.165	35.376	-0.178	0.155
-257.151	-100.623	-0.065	0.016
-256.136	-34.621	0.231	0.126
-255.122	800.000	0.111	0.367
-254.107	-39.848	0.058	0.030
-253.092	-99.974	0.255	0.063
-252.078	75.418	0.233	0.244
-251.063	-59.230	-0.640	0.274
-250.049	-200.000	0.006	0.114
-249.034	800.000	-0.069	0.285
-248.019	207.001	-0.108	-0.167
-247.005	-116.047	-0.084	-0.016
-245.990	35.200	0.310	0.270
-244.976	8.661	0.101	-0.075
-243.961	-65.918	0.293	0.116
-242.946	312.104	-0.251	-0.468
-241.932	188.023	-0.123	-0.182
-240.917	-200.000	-0.010	-0.165
-239.903	-149.972	0.254	-0.020
-238.888	-200.000	-0.033	0.167
-237.873	-200.000	-0.010	0.074
-236.859	-44.326	0.283	-0.141
-235.844	800.000	-0.108	0.320
-234.830	357.447	0.069	0.136
-233.815	72.105	-0.169	0.175
-232.800	41.932	0.218	-0.196
-231.786	36.610	-0.087	0.076
-230.771	131.338	-0.058	-0.074
-229.757	-51.097	0.350	-0.163
-228.742	-200.000	0.011	0.182
-227.727	105.918	0.083	0.097
-226.713	800.000	0.088	0.309
-225.698	-75.662	0.126	0.044
-224.684	-200.000	-0.060	-0.261
-223.669	-99.027	-0.256	0.064
-222.655	-158.033	-0.343	0.020
-221.640	-200.000	-0.019	-0.324
-220.625	13.702	-0.416	0.321
-219.611	-89.095	0.335	-0.098
-218.596	-62.761	-0.107	0.044
-217.582	4.411	-0.104	0.076
-216.567	-82.891	-0.213	-0.068
-215.552	-200.000	0.043	0.256
-214.538	41.855	0.208	-0.187
-213.523	-135.617	-0.290	-0.034
-212.509	-97.688	0.477	-0.123
-211.494	45.815	0.090	-0.083
-210.479	-24.863	-0.251	-0.148
-209.465	589.533	0.066	-0.160
-208.450	800.000	-0.021	-0.089
-207.436	-200.000	-0.004	0.107
-206.421	123.972	-0.066	-0.083
-205.406	-97.487	-0.060	-0.015
-204.392	-140.911	0.303	-0.031
-203.377	591.523	0.095	-0.232
-202.363	455.718	-0.145	0.318
-201.348	52.268	-0.101	0.095
-200.333	-200.000	0.006	0.119
-199.319	114.895	-0.127	0.153
-198.304	524.729	0.144	0.336
-197.290	-94.250	-0.259	-0.070
-196.275	800.000	0.062	0.190
-195.260	70.203	-0.170	0.174
-194.246	418.078	0.045	0.095
-193.231	-11.416	0.007	0.004
-192.217	146.482	-0.174	0.231
-191.202	800.000	-0.086	-0.282
-190.187	-18.470	0.308	0.191
-189.173	800.000	0.031	0.101
-188.158	-32.006	0.093	-0.052
-187.144	-200.000	0.031	0.172
-186.129	2.708	0.060	0.043
-185.114	-80.611	-0.061	0.020
-184.100	276.812	0.125	0.220
-183.085	-17.944	-0.074	-0.046
-182.071	-200.000	-0.012	0.149
-181.056	-200.000	-0.031	0.255
-180.042	-106.073	0.147	0.033
-179.027	800.000	0.006	-0.026
-178.012	94.370	0.091	-0.102
-176.998	-62.957	-0.286	0.117
-175.983	7.562	-0.244	0.180
-174.969	8.863	0.206	0.154
-173.954	110.168	-0.056	-0.066
-172.939	3.658	0.139	0.100
-171.925	-200.000	0.006	0.045
-170.910	-200.000	-0.041	0.198
-169.896	65.687	0.124	-0.125
-168.881	139.783	-0.021	-0.028
-167.866	-200.000	0.043	0.324
-166.852	-187.056	0.267	-0.004
-165.837	26.743	-0.075	0.062
-164.823	-128.736	0.246	0.034
-163.808	-200.000	-0.010	0.062
-162.793	-139.896	0.287	-0.030
-161.779	21.121	0.098	0.078
-160.764	-58.147	0.181	0.078
-159.750	-200.000	0.060	0.421
-158.735	-143.530	0.043	0.004
-157.720	33.730	-0.098	0.084
-156.706	-71.441	-0.193	0.072
-155.691	272.542	0.176	0.307
-154.677	82.835	0.292	-0.314
-153.662	488.630	-0.085	-0.193
-152.647	34.067	0.191	0.164
-151.633	64.609	-0.067	-0.067
-150.618	578.288	-0.069	-0.167
-149.604	-2.962	-0.137	0.095
-148.589	213.165	0.182	-0.285
-147.574	6.122	-0.119	-0.088
-146.560	800.000	0.121	0.424
-145.545	180.406	0.116	-0.169
-144.531	-156.359	-0.224	-0.014
-143.516	-200.000	0.026	0.260
-142.502	800.000	0.049	-0.158
-141.487	-144.555	0.015	-0.001
-140.472	88.193	0.023	-0.026
-139.458	-200.000	-0.002	0.066
-138.443	-66.514	0.041	-0.016
-137.429	800.000	-0.024	-0.076
-136.414	-18.961	-0.337	-0.207
-135.399	102.129	-0.188	-0.217
-134.385	800.000	-0.099	0.358
-133.370	168.430	-0.031	0.044
-132.356	-18.029	-0.085	-0.053
-131.341	29.548	0.239	0.201
-130.326	-16.126	0.135	0.085
-129.312	-38.086	-0.175	0.092
-128.297	-200.000	0.026	-0.218
-127.283	309.084	-0.067	-0.124
-126.268	-103.986	-0.367	0.085
-125.253	-106.147	-0.133	-0.029
-124.239	260.950	-0.111	-0.189
-123.224	-18.875	-0.265	0.163
-122.210	-200.000	0.026	-0.141
-121.195	-152.731	-0.190	-0.013
-120.180	-200.000	-0.022	0.134
-119.166	-40.018	0.085	-0.044
-118.151	-200.000	-0.075	-0.464
-117.137	-147.243	-0.467	-0.039
-116.122	-42.738	0.088	0.044
-115.107	-200.000	0.064	-0.320
-114.093	-166.543	0.103	-0.004
-113.078	-200.000	0.033	0.175
-112.064	-171.680	-0.157	0.005
-111.049	-154.522	0.105	0.007
-110.034	-52.029	0.212	0.097
-109.020	102.408	0.057	0.066
-108.005	-70.030	-0.060	0.022
-106.991	800.000	-0.026	-0.095
-105.976	-200.000	-0.016	0.338
-104.962	-200.000	0.038	0.267
-103.947	589.960	-0.080	-0.195
-102.932	37.637	0.161	-0.141
-101.918	-200.000	-0.021	0.295
-100.903	32.492	-0.069	0.059
-99.889	340.325	-0.023	0.043
-98.874	-200.000	-0.047	-0.304
-97.859	211.519	-0.182	0.283
-96.845	-72.983	0.302	0.109
-95.830	58.289	-0.084	-0.081
-94.816	-4.494	-0.315	0.215
-93.801	-97.336	-0.125	0.032
-92.786	-200.000	-0.035	-0.164
-91.772	800.000	0.034	-0.117
-90.757	-151.220	-0.323	-0.024
-89.743	-68.072	-0.269	-0.103
-88.728	78.846	0.163	0.172
-87.713	346.440	0.125	0.242
-86.699	-45.535	0.194	0.095
-85.684	-200.000	-0.023	-0.243
-84.670	-50.547	0.159	-0.074
-83.655	-96.683	0.060	0.015
-82.640	428.110	-0.043	0.091
-81.626	-93.160	0.272	-0.075
-80.611	-200.000	0.048	-0.342
-79.597	-86.346	-0.170	-0.052
-78.582	800.000	-0.006	-0.016
-77.567	-40.757	0.088	-0.045
-76.553	-200.000	-0.002	0.087
-75.538	-56.184	0.279	-0.122
-74.524	293.484	0.148	-0.266
-73.509	-152.621	-0.169	0.012
-72.494	800.000	0.025	0.070
-71.480	374.945	0.085	-0.171
-70.465	-43.438	-0.249	0.124
-69.451	169.412	-0.044	0.062
-68.436	-26.919	0.215	-0.124
-67.422	-77.204	0.260	0.089
-66.407	-200.000	-0.011	0.191
-65.392	-45.480	-0.270	0.132
-64.378	-173.161	0.138	-0.004
-63.363	-69.660	-0.102	-0.038
-62.349	789.402	-0.160	0.434
-61.334	123.426	-1.086	-1.342
-60.319	481.413	0.346	0.775
-59.305	800.000	-0.312	-0.963
-58.290	768.252	0.461	1.236
-57.276	525.887	0.680	1.578
-56.261	-200.000	112.179	638.529
-55.246	517.893	1526.689	3520.103
-54.232	171.947	2713.054	3841.513
-53.217	100.320	2341.719	2677.330
-52.203	34.104	2086.170	1791.198
-51.188	29.203	1999.703	1672.525
-50.173	27.677	1982.990	1644.733
-49.159	45.711	2042.858	1859.997
-48.144	44.986	2058.435	1867.466
-47.130	29.592	2016.507	1689.872
-46.115	27.287	2005.974	1659.974
-45.100	27.255	2003.114	1657.249
-44.086	27.230	2000.435	1654.734
-43.071	27.197	1997.600	1652.024
-42.057	27.099	1996.568	1650.219
-41.042	27.182	1993.968	1648.760
-40.027	27.211	1992.345	1647.611
-39.013	27.238	1989.564	1645.489
-37.998	27.185	1988.761	1644.284
-36.984	27.194	1986.763	1642.651
-35.969	27.265	1984.341	1641.219
-34.954	27.167	1983.172	1639.301
-33.940	27.297	1981.314	1638.870
-32.925	27.348	1979.801	1638.017
-31.911	27.317	1977.841	1636.055
-30.896	27.290	1976.091	1634.293
-29.881	27.278	1975.175	1633.370
-28.867	27.262	1973.979	1632.166
-27.852	27.348	1972.001	1631.238
-26.838	27.301	1970.013	1629.108
-25.823	27.363	1968.058	1627.979
-24.809	27.345	1966.371	1626.366
-23.794	27.330	1964.588	1624.688
-22.779	27.360	1962.789	1623.407
-21.765	27.252	1961.503	1621.312
-20.750	27.339	1959.215	1620.135
-19.736	27.343	1958.032	1619.129
-18.721	27.339	1956.649	1617.882
-17.706	27.357	1954.571	1616.259
-16.692	27.334	1953.008	1614.698
-15.677	27.280	1951.627	1613.012
-14.663	27.400	1949.801	1612.500
-13.648	27.393	1948.796	1611.550
-12.633	27.392	1947.745	1610.602
-11.619	27.391	1945.828	1608.946
-10.604	27.355	1944.764	1607.686
-9.590	27.358	1943.653	1606.727
-8.575	27.326	1942.379	1605.333
-7.560	27.371	1940.828	1604.381
-6.546	27.328	1939.503	1602.845
-5.531	27.410	1938.269	1602.478
-4.517	27.312	1937.203	1600.679
-3.502	27.279	1936.227	1599.512
-2.487	27.377	1934.374	1598.784
-1.473	27.438	1933.137	1598.229
-0.458	27.464	1929.033	1595.003
0.556	28.871	1910.891	1573.743
1.571	25.716	1894.967	1533.660
2.586	22.494	1920.531	1526.339
3.600	22.011	1956.571	1550.581
4.615	21.424	1949.861	1539.958
5.629	16.062	1844.439	1411.778
6.644	7.563	1726.839	1254.748
7.659	3.861	1692.551	1201.010
8.673	3.573	1689.356	1196.409
9.688	3.549	1688.545	1195.543
10.702	3.552	1686.744	1194.185
11.717	3.595	1683.488	1192.106
12.731	4.063	1683.239	1195.436
13.746	9.785	1696.847	1249.415
14.761	17.582	1713.402	1322.243
15.775	20.430	1717.411	1347.345
16.790	20.260	1715.676	1344.549
17.804	19.324	1712.775	1334.909
18.819	18.288	1709.713	1324.397
19.834	17.666	1706.747	1317.177
20.848	17.455	1705.397	1314.389
21.863	17.259	1703.846	1311.567
22.877	17.063	1702.971	1309.265
23.892	16.772	1702.226	1306.331
24.907	16.746	1700.742	1304.873
25.921	16.777	1699.274	1303.871
26.936	16.758	1697.959	1302.598
27.950	16.755	1697.430	1302.060
28.965	16.819	1696.502	1301.718
29.980	16.855	1695.728	1301.288
30.994	16.977	1694.487	1301.160
32.009	17.079	1693.614	1301.151
33.023	17.061	1693.302	1300.661
34.038	17.076	1692.139	1299.764
35.053	17.136	1690.388	1298.765
36.067	16.980	1689.748	1296.966
37.082	16.965	1688.435	1295.730
38.096	16.931	1687.404	1294.566
39.111	16.955	1687.149	1294.440
40.126	17.054	1686.151	1294.313
41.140	16.996	1684.999	1292.874
42.155	16.916	1683.116	1290.706
43.169	16.812	1681.393	1288.476
44.184	16.621	1680.774	1286.439
45.199	16.539	1679.981	1285.094
46.213	16.580	1678.548	1284.193
47.228	16.643	1677.680	1283.893
48.242	16.914	1675.538	1284.194
49.257	16.840	1675.158	1283.227
50.271	16.867	1673.805	1282.280
51.286	16.865	1672.275	1280.981
52.301	16.890	1671.371	1280.365
53.315	16.890	1669.565	1278.868
54.330	16.931	1667.837	1277.741
55.344	16.719	1666.581	1275.073
56.359	16.674	1664.851	1273.296
57.374	16.614	1664.373	1272.367
58.388	16.666	1662.952	1271.556
59.403	16.599	1661.755	1270.028
60.417	16.593	1660.294	1268.750
61.432	16.594	1659.009	1267.667
62.447	16.544	1658.033	1266.433
63.461	16.430	1657.070	1264.730
64.476	16.519	1655.306	1263.937
65.490	16.492	1654.125	1262.722
66.505	16.514	1652.634	1261.636
67.520	16.534	1652.398	1261.494
68.534	16.521	1651.592	1260.676
69.549	16.581	1650.375	1260.082
70.563	16.628	1648.639	1258.990
71.578	16.501	1648.041	1257.477
72.593	16.417	1646.842	1255.830
73.607	16.332	1645.667	1254.189
74.622	16.318	1644.558	1253.128
75.636	16.314	1643.984	1252.554
76.651	16.386	1642.646	1251.953
77.666	16.365	1642.305	1251.428
78.680	16.373	1641.366	1250.662
79.695	16.448	1640.080	1250.126
80.709	16.501	1639.473	1249.944
81.724	16.568	1638.342	1249.466
82.739	16.625	1637.942	1249.475
83.753	16.677	1636.942	1248.981
84.768	16.815	1635.712	1248.951
85.782	16.884	1635.561	1249.235
86.797	16.968	1634.694	1249.080
87.812	17.018	1633.220	1248.209
88.826	16.959	1632.421	1247.059
89.841	16.829	1631.517	1245.297
90.855	16.918	1630.411	1244.999
91.870	16.957	1628.798	1243.941
92.884	16.980	1628.014	1243.404
93.899	17.016	1627.210	1242.945
94.914	16.974	1626.108	1241.682
95.928	17.041	1624.761	1241.037
96.943	17.029	1623.855	1240.143
97.957	16.990	1622.213	1238.499
98.972	16.945	1621.083	1237.197
99.987	16.988	1618.889	1235.729
101.001	16.948	1617.636	1234.369
102.016	16.989	1615.906	1233.239
103.030	16.987	1614.786	1232.259
104.045	16.926	1614.027	1231.126
105.060	16.950	1612.435	1229.982
106.074	16.906	1610.580	1228.135
107.089	16.729	1609.040	1225.575
108.103	16.635	1607.161	1223.355
109.118	16.501	1605.565	1221.059
110.133	16.552	1603.939	1220.087
111.147	16.468	1602.873	1218.561
112.162	16.554	1601.340	1217.909
113.176	16.646	1600.246	1217.633
114.191	16.657	1598.899	1216.579
115.206	16.697	1597.706	1215.847
116.220	16.697	1596.457	1214.789
117.235	16.545	1595.515	1212.874
118.249	16.686	1593.509	1212.255
119.264	16.637	1592.523	1211.045
120.279	16.596	1590.862	1209.385
121.293	16.592	1589.420	1208.151
122.308	16.565	1587.892	1206.690
123.322	16.473	1586.813	1205.108
124.337	16.485	1584.942	1203.663
125.352	16.344	1583.972	1201.818
126.366	16.393	1582.944	1201.282
127.381	16.323	1582.130	1200.060
128.395	16.404	1580.635	1199.392
129.410	16.516	1578.507	1198.469
130.424	16.454	1577.691	1197.302
131.439	16.464	1576.683	1196.506
132.454	16.574	1575.106	1195.979
133.468	16.529	1574.404	1195.019
134.483	16.710	1571.997	1194.365
135.497	16.683	1570.690	1193.074
136.512	16.613	1569.956	1191.920
137.527	16.752	1568.856	1191.960
138.541	16.642	1567.109	1189.751
139.556	16.659	1565.845	1188.803
140.570	16.712	1564.657	1188.169
141.585	16.760	1563.311	1187.383
142.600	16.834	1562.632	1187.276
143.614	16.911	1561.256	1186.668
144.629	17.005	1559.859	1186.155
145.643	17.063	1558.625	1185.516
146.658	17.177	1557.184	1185.116
147.673	17.114	1555.718	1183.453
148.687	16.915	1553.877	1180.564
149.702	16.848	1552.750	1179.139
150.716	16.851	1550.266	1177.166
151.731	16.790	1549.502	1176.058
152.746	16.792	1548.135	1174.927
153.760	16.809	1546.614	1173.788
154.775	16.915	1545.006	1173.199
155.789	16.917	1544.088	1172.411
156.804	17.021	1542.785	1172.036
157.819	17.005	1541.637	1170.951
158.833	16.930	1540.384	1169.382
159.848	17.045	1539.635	1169.499
160.862	17.107	1538.820	1169.206
161.877	17.146	1536.711	1167.769
162.892	17.012	1535.891	1166.118
163.906	16.895	1534.335	1164.031
164.921	16.806	1533.015	1162.317
165.935	16.815	1531.750	1161.314
166.950	16.926	1530.717	1161.191
167.964	16.994	1529.837	1160.884
168.979	16.969	1528.808	1159.833
169.994	16.941	1528.257	1159.120
171.008	16.849	1526.469	1157.031
172.023	16.994	1525.668	1157.311
173.037	17.024	1524.524	1156.542
174.052	17.109	1523.504	1156.247
175.067	17.161	1522.675	1155.868
176.081	17.074	1521.471	1154.263
177.096	17.002	1519.563	1152.228
178.110	16.920	1517.858	1150.275
179.125	16.872	1517.099	1149.269
180.140	17.008	1515.892	1149.174
181.154	16.982	1515.066	1148.273
182.169	17.122	1513.925	1148.256
183.183	17.069	1513.021	1147.107
184.198	17.307	1511.736	1147.637
185.213	17.163	1511.064	1146.058
186.227	17.214	1509.724	1145.280
187.242	17.309	1508.576	1144.952
188.256	17.352	1507.082	1144.002
189.271	17.295	1506.651	1143.190
190.286	17.416	1505.643	1143.136
191.300	17.278	1504.537	1141.272
192.315	17.139	1503.214	1139.234
193.329	16.949	1501.028	1136.205
194.344	16.852	1500.266	1134.874
195.359	16.808	1499.975	1134.262
196.373	16.949	1498.761	1134.185
197.388	17.126	1496.989	1133.929
198.402	17.201	1496.393	1133.878
199.417	17.277	1495.631	1133.703
200.432	17.478	1494.772	1134.290
201.446	17.504	1493.879	1133.691
202.461	17.587	1493.215	1133.635
203.475	17.647	1491.238	1132.432
204.490	17.797	1490.421	1132.708
205.504	17.726	1488.987	1131.048
206.519	17.447	1487.732	1128.147
207.534	17.354	1486.519	1126.513
208.548	17.293	1485.617	1125.323
209.563	17.451	1484.335	1125.295
210.577	17.473	1483.398	1124.635
211.592	17.306	1482.998	1123.127
212.607	17.413	1482.341	1123.234
213.621	17.530	1481.476	1123.253
214.636	17.671	1480.486	1123.335
215.650	17.533	1479.426	1121.517
216.665	17.461	1478.399	1120.170
217.680	17.602	1477.623	1120.407
218.694	17.712	1476.749	1120.370
219.709	17.817	1475.942	1120.349
220.723	17.761	1475.199	1119.315
221.738	17.805	1473.960	1118.569
222.753	17.718	1473.203	1117.324
223.767	17.670	1472.087	1116.065
224.782	17.800	1471.086	1116.059
225.796	17.717	1470.895	1115.268
226.811	17.819	1469.809	1115.015
227.826	17.904	1469.101	1114.933
228.840	17.922	1467.556	1113.784
229.855	17.770	1466.966	1112.246
230.869	17.701	1465.954	1110.928
231.884	17.641	1465.601	1110.168
232.899	17.693	1463.766	1109.023
233.913	17.662	1462.580	1107.826
234.928	17.689	1461.198	1106.853
235.942	17.618	1459.984	1105.372
236.957	17.556	1458.941	1104.088
237.972	17.597	1457.581	1103.223
238.986	17.527	1456.964	1102.207
240.001	17.631	1455.999	1102.052
241.015	17.670	1454.508	1101.077
242.030	17.677	1453.476	1100.246
243.045	17.625	1452.768	1099.279
244.059	17.683	1451.929	1098.914
245.074	17.755	1450.869	1098.483
246.088	17.827	1450.093	1098.262
247.103	17.949	1449.284	1098.335
248.117	17.907	1448.606	1097.456
249.132	17.973	1447.664	1097.066
250.147	18.121	1447.531	1097.818
251.161	18.355	1446.704	1098.598
252.176	18.389	1446.586	1098.626
253.190	18.376	1445.743	1097.806
254.205	18.392	1444.917	1097.185
255.220	18.434	1444.080	1096.723
256.234	18.487	1443.290	1096.365
257.249	18.488	1442.123	1095.386
258.263	18.494	1441.478	1094.838
259.278	18.588	1440.440	1094.551
260.293	18.448	1439.834	1093.104
261.307	18.486	1438.452	1092.201
262.322	18.580	1437.855	1092.247
263.336	18.630	1437.072	1091.874
264.351	18.619	1436.088	1090.960
265.366	18.621	1435.084	1090.113
266.380	18.621	1434.635	1089.677
267.395	18.635	1433.214	1088.590
268.409	18.709	1432.163	1088.166
269.424	18.677	1431.284	1087.198
270.439	18.621	1430.143	1085.880
271.453	18.573	1429.131	1084.711
272.468	18.588	1428.160	1083.974
273.482	18.487	1427.693	1082.887
274.497	18.361	1426.829	1081.337
275.512	18.471	1425.793	1081.154
276.526	18.538	1425.154	1080.992
277.541	18.554	1423.813	1079.980
278.555	18.503	1422.920	1078.888
279.570	18.578	1422.262	1078.766
280.585	18.597	1421.775	1078.419
281.599	18.736	1420.660	1078.350
282.614	18.814	1419.584	1077.927
283.628	18.727	1418.461	1076.432
284.643	18.579	1417.639	1074.786
285.657	18.678	1416.371	1074.349
286.672	18.549	1415.796	1073.016
287.687	18.544	1414.744	1072.092
288.701	18.616	1413.414	1071.437
289.716	18.644	1412.870	1071.103
290.730	18.688	1412.291	1070.847
291.745	18.648	1411.151	1069.640
292.760	18.788	1409.597	1069.234
293.774	18.724	1408.903	1068.214
294.789	18.729	1408.298	1067.695
295.803	18.805	1407.506	1067.475
296.818	18.879	1406.556	1067.118
297.833	18.815	1405.190	1065.587
298.847	18.720	1404.541	1064.412
299.862	18.777	1403.541	1063.917
300.876	18.805	1402.622	1063.298
301.891	18.834	1401.434	1062.479
302.906	18.801	1400.629	1061.573
303.920	18.963	1400.117	1062.090
304.935	19.023	1399.105	1061.603
305.949	19.092	1398.227	1061.264
306.964	19.127	1398.025	1061.236
307.979	19.241	1396.840	1060.940
308.993	19.208	1395.816	1059.866
310.008	19.054	1394.631	1057.927
311.022	19.141	1393.423	1057.453
312.037	19.181	1392.885	1057.197
313.052	19.169	1392.118	1056.445
314.066	19.215	1390.700	1055.557
315.081	19.118	1389.830	1054.209
316.095	19.036	1388.664	1052.734
317.110	18.868	1387.711	1050.889
318.125	18.858	1386.693	1049.965
319.139	18.955	1385.557	1049.605
320.154	18.964	1384.498	1048.766
321.168	18.907	1383.579	1047.626
322.183	18.990	1382.334	1047.094
323.197	18.935	1381.954	1046.379
324.212	19.013	1380.866	1045.942
325.227	19.110	1379.735	1045.579
326.241	19.025	1379.151	1044.528
327.256	19.140	1378.153	1044.375
328.270	19.064	1377.448	1043.289
329.285	19.103	1376.236	1042.519
330.300	19.048	1375.312	1041.389
331.314	18.970	1374.962	1040.563
332.329	19.064	1374.004	1040.312
333.343	19.161	1372.570	1039.719
334.358	19.047	1372.251	1038.700
335.373	19.246	1371.068	1038.910
336.387	19.265	1370.611	1038.587
337.402	19.248	1369.904	1037.861
338.416	19.357	1369.034	1037.766
339.431	19.361	1368.877	1037.579
340.446	19.351	1367.958	1036.726
341.460	19.388	1367.146	1036.247
342.475	19.547	1365.922	1036.177
343.489	19.566	1365.189	1035.647
344.504	19.659	1364.059	1035.254
345.519	19.688	1363.298	1034.757
346.533	19.667	1362.330	1033.806
347.548	19.719	1361.321	1033.261
348.562	19.725	1360.640	1032.688
349.577	19.749	1360.057	1032.296
350.592	19.666	1359.257	1031.100
351.606	19.529	1358.054	1029.283
352.621	19.518	1356.369	1027.851
353.635	19.472	1355.531	1026.845
354.650	19.399	1354.849	1025.809
355.665	19.386	1353.936	1024.950
356.679	19.495	1352.714	1024.579
357.694	19.529	1351.486	1023.757
358.708	19.504	1350.805	1023.006
359.723	19.574	1349.524	1022.358
360.738	19.617	1348.681	1021.883
361.752	19.612	1347.356	1020.761
362.767	19.720	1346.179	1020.413
363.781	19.637	1345.607	1019.401
364.796	19.708	1344.934	1019.223
365.810	19.763	1343.920	1018.685
366.825	19.809	1343.310	1018.406
367.840	19.999	1342.638	1018.921
368.854	19.902	1342.184	1017.916
369.869	20.015	1341.591	1018.043
370.883	20.023	1340.693	1017.320
371.898	20.010	1340.183	1016.765
372.913	19.941	1339.308	1015.608
373.927	19.892	1338.708	1014.773
374.942	19.990	1337.091	1014.031
375.956	20.141	1336.485	1014.367
376.971	20.062	1336.097	1013.520
377.986	19.984	1335.075	1012.200
379.000	20.056	1334.119	1011.805
380.015	20.037	1333.832	1011.386
381.029	20.136	1332.764	1011.066
382.044	20.368	1332.219	1011.917
383.059	20.235	1331.813	1010.741
384.073	20.272	1330.389	1009.790
385.088	20.122	1330.320	1008.772
386.102	20.172	1329.567	1008.405
387.117	20.337	1328.387	1008.376
388.132	20.192	1328.076	1007.213
389.146	20.266	1326.647	1006.467
390.161	20.101	1325.649	1004.664
391.175	19.963	1325.258	1003.477
392.190	20.011	1324.383	1003.005
393.205	20.107	1323.617	1002.891
394.219	20.320	1322.281	1003.021
395.234	20.402	1321.321	1002.678
396.248	20.260	1319.875	1000.676
397.263	20.190	1318.852	999.406
398.278	20.201	1317.346	998.238
399.292	20.128	1315.569	996.387
400.307	20.143	1315.034	995.980
401.321	20.073	1314.299	994.932
402.336	20.005	1313.611	993.931
403.350	20.010	1312.653	993.151
404.365	20.103	1311.098	992.416
405.380	20.081	1310.471	991.731
406.394	20.087	1309.593	991.013
407.409	20.187	1309.319	991.285
408.423	20.142	1308.598	990.394
409.438	20.317	1307.878	990.761
410.453	20.470	1307.153	990.997
411.467	20.562	1306.264	990.760
412.482	20.625	1305.729	990.626
413.496	20.524	1305.254	989.601
414.511	20.688	1304.266	989.700
415.526	20.674	1303.614	989.040
416.540	20.693	1303.003	988.593
417.555	20.777	1302.190	988.368
418.569	20.794	1301.897	988.156
419.584	20.693	1301.409	987.121
420.599	20.756	1300.312	986.563
421.613	144.254	1435.560	1794.756
422.628	139.579	1455.229	1794.851
