DTS Sentinel unit serial number:	SN413079Multiplexer serial number:	ORYXHardware model number:	OX4-SRSoftware version number:	ORYX F/W v4.00 Oryx Data Collector v3.7.2.0data status	okinstallation	princeton_trtdifferential loss correction	single-endedforward channel	channel 4reverse channel	N/Adate	2019/09/16time	10:21:34forward acquisition time	60.00reverse acquisition time	0.00gamma	496.2192k internal	0.2300k external	0.2300temperature offset calibration	0.9958default loss term (dB/km)	0.3790temperature slope calibration	1.0000multiplexer offset coefficient	1.0000multiplexer slope coefficient	1.0000fibre end	0.00T internal ref (°C)	34.77T ext. ref 1 (°C)	12.52T ext. ref 2 (°C)	33.25length (m)	temperature (°C)	Stokes	anti-Stokes-747.200	91.727	0.114	0.131
-746.185	38.349	0.216	0.197
-745.171	800.000	0.054	0.161
-744.156	-200.000	-0.003	0.049
-743.142	167.975	0.196	0.284
-742.127	-98.275	0.235	0.062
-741.112	329.836	0.142	0.279
-740.098	280.076	-0.160	0.291
-739.083	248.761	-0.034	0.059
-738.069	58.125	-0.081	0.081
-737.054	504.446	-0.108	0.256
-736.039	-200.000	-0.041	0.286
-735.025	-92.234	0.099	-0.028
-734.010	800.000	-0.099	-0.402
-732.996	-185.345	0.229	0.004
-731.981	800.000	-0.036	-0.157
-730.966	-34.065	0.499	0.280
-729.952	49.991	-0.412	-0.396
-728.937	-8.793	-0.341	0.233
-727.923	-89.210	-0.366	-0.110
-726.908	-29.482	0.095	-0.055
-725.894	-138.859	-0.427	-0.047
-724.879	411.760	0.095	-0.206
-723.864	-90.273	0.122	0.036
-722.850	-200.000	-0.045	-0.223
-721.835	-141.202	0.231	0.024
-720.821	-21.066	-0.174	-0.109
-719.806	-104.572	-0.210	-0.049
-718.791	-27.850	0.123	-0.072
-717.777	-136.842	-0.281	0.033
-716.762	-42.946	-0.207	0.107
-715.748	17.387	-0.230	-0.186
-714.733	-79.930	-0.221	0.076
-713.718	79.864	-0.241	-0.264
-712.704	-100.624	-0.204	0.051
-711.689	-42.622	-0.134	0.070
-710.675	32.030	-0.112	0.098
-709.660	69.218	-0.237	-0.248
-708.645	-102.751	-0.264	-0.064
-707.631	3.082	-0.012	0.009
-706.616	-83.381	0.270	0.088
-705.602	-73.203	-0.105	-0.039
-704.587	-200.000	0.029	-0.134
-703.572	228.227	-0.079	0.130
-702.558	-108.365	0.144	-0.032
-701.543	461.719	0.002	-0.005
-700.529	37.291	0.239	-0.216
-699.514	121.306	0.076	0.097
-698.499	-114.736	-0.165	0.032
-697.485	196.284	-0.148	-0.230
-696.470	-200.000	0.014	0.242
-695.456	-34.954	-0.220	0.122
-694.441	-103.787	-0.269	0.064
-693.426	-157.573	-0.114	-0.007
-692.412	800.000	0.075	-0.320
-691.397	-58.430	-0.021	0.009
-690.383	70.197	-0.141	0.148
-689.368	67.528	-0.170	-0.176
-688.354	-64.969	0.378	-0.155
-687.339	760.673	-0.078	0.216
-686.324	800.000	0.068	0.290
-685.310	-116.614	-0.179	-0.034
-684.295	89.373	-0.198	-0.224
-683.281	-186.492	-0.104	0.002
-682.266	88.176	0.183	0.207
-681.251	4.375	-0.137	0.102
-680.237	-200.000	0.022	0.422
-679.222	770.638	-0.021	0.059
-678.208	-57.612	0.162	0.072
-677.193	564.580	-0.053	-0.131
-676.178	-61.221	0.102	0.044
-675.164	-27.058	-0.164	-0.097
-674.149	-200.000	0.013	-0.095
-673.135	800.000	0.045	-0.155
-672.120	-10.541	-0.326	0.219
-671.105	-106.723	-0.211	0.048
-670.091	-92.294	0.177	-0.051
-669.076	51.650	-0.142	0.137
-668.062	-16.529	0.289	-0.186
-667.047	-68.404	0.083	0.033
-666.032	-52.794	0.031	-0.014
-665.018	-143.027	0.140	-0.014
-664.003	-16.717	0.297	0.191
-662.989	-124.965	0.053	-0.008
-661.974	216.702	0.039	-0.063
-660.959	-52.431	0.017	-0.008
-659.945	225.858	0.022	-0.037
-658.930	357.898	-0.149	-0.303
-657.916	798.158	-0.061	-0.172
-656.901	71.401	0.121	0.127
-655.886	-200.000	-0.005	0.212
-654.872	800.000	-0.083	-0.335
-653.857	-122.935	-0.318	0.052
-652.843	172.305	-0.054	-0.078
-651.828	14.735	0.054	0.043
-650.814	202.397	-0.052	0.082
-649.799	-88.554	0.156	-0.047
-648.784	-9.479	0.102	-0.069
-647.770	132.428	-0.065	-0.085
-646.755	-113.466	-0.059	-0.012
-645.741	-28.596	0.132	0.077
-644.726	202.097	0.035	-0.055
-643.711	-200.000	-0.028	0.228
-642.697	26.148	0.036	0.031
-641.682	-88.221	-0.032	0.010
-640.668	29.243	-0.419	-0.361
-639.653	-87.877	-0.270	-0.083
-638.638	288.905	0.078	-0.144
-637.624	-113.325	0.050	-0.010
-636.609	-200.000	-0.037	-0.167
-635.595	15.209	-0.288	-0.229
-634.580	800.000	-0.050	-0.153
-633.565	-173.121	-0.156	-0.005
-632.551	-93.953	-0.115	-0.032
-631.536	-54.008	0.037	-0.017
-630.522	-200.000	0.015	-0.118
-629.507	0.093	0.070	-0.051
-628.492	16.845	-0.171	-0.137
-627.478	15.955	0.171	-0.137
-626.463	-200.000	-0.016	-0.221
-625.449	-191.358	-0.083	-0.001
-624.434	-51.094	-0.246	-0.117
-623.419	-171.705	0.474	-0.016
-622.405	159.390	-0.082	0.115
-621.390	-128.455	0.347	0.050
-620.376	-20.078	0.111	0.069
-619.361	800.000	0.095	0.291
-618.346	161.608	-0.061	0.087
-617.332	792.783	0.083	-0.231
-616.317	430.389	0.039	0.085
-615.303	-200.000	-0.006	0.322
-614.288	67.237	-0.123	-0.127
-613.273	-70.205	0.198	0.076
-612.259	-103.723	0.136	-0.032
-611.244	-160.428	0.017	0.001
-610.230	20.500	-0.064	0.053
-609.215	-130.803	0.205	0.028
-608.201	-115.051	0.110	0.021
-607.186	-67.720	0.081	0.032
-606.171	-149.223	0.262	0.021
-605.157	158.940	-0.274	-0.387
-604.142	20.664	-0.184	-0.151
-603.128	-68.921	-0.072	0.028
-602.113	-5.170	-0.059	-0.041
-601.098	17.901	0.084	-0.068
-600.084	-32.894	0.185	-0.104
-599.069	671.022	-0.098	-0.257
-598.055	-200.000	0.017	-0.225
-597.040	-200.000	0.028	0.172
-596.025	246.820	-0.052	0.090
-595.011	-190.256	-0.289	-0.003
-593.996	800.000	-0.073	0.214
-592.982	230.694	-0.021	-0.034
-591.967	289.694	0.125	-0.230
-590.952	-85.044	-0.130	-0.041
-589.938	-162.204	-0.254	-0.013
-588.923	-41.643	-0.060	0.031
-587.909	-107.245	0.040	-0.009
-586.894	-200.000	-0.007	0.220
-585.879	-200.000	0.011	0.162
-584.865	247.437	-0.063	0.108
-583.850	-111.717	0.223	-0.046
-582.836	-108.351	-0.041	0.009
-581.821	86.269	0.059	-0.066
-580.806	-21.888	0.083	0.051
-579.792	-200.000	0.126	0.000
-578.777	-200.000	0.013	-0.069
-577.763	-200.000	0.021	0.174
-576.748	-83.240	-0.275	-0.089
-575.733	-56.595	-0.163	-0.073
-574.719	19.999	-0.092	-0.075
-573.704	111.619	-0.197	0.241
-572.690	189.435	-0.024	0.037
-571.675	37.387	0.074	-0.066
-570.661	-200.000	0.068	0.398
-569.646	-200.000	0.017	0.107
-568.631	-68.914	0.183	0.071
-567.617	476.458	-0.108	-0.248
-566.602	-101.609	0.256	-0.063
-565.588	-200.000	-0.002	0.057
-564.573	-65.948	0.082	0.033
-563.558	106.129	0.119	-0.143
-562.544	-104.782	-0.209	-0.049
-561.529	-40.698	-0.217	0.114
-560.515	-97.594	0.024	0.006
-559.500	592.335	0.067	-0.168
-558.485	98.901	0.154	0.180
-557.471	141.063	-0.090	-0.121
-556.456	-26.084	0.165	0.098
-555.442	-200.000	-0.012	0.141
-554.427	90.166	0.207	-0.234
-553.412	121.716	-0.099	0.124
-552.398	39.135	0.366	0.332
-551.383	554.773	0.136	0.331
-550.369	29.511	-0.151	-0.130
-549.354	-200.000	0.002	-0.300
-548.339	123.602	-0.227	0.288
-547.325	6.021	0.211	-0.158
-546.310	121.551	0.264	-0.333
-545.296	158.094	0.113	-0.159
-544.281	-200.000	-0.026	0.407
-543.266	-137.967	-0.289	-0.033
-542.252	-78.223	-0.357	0.124
-541.237	330.045	-0.066	0.128
-540.223	2.205	-0.029	-0.021
-539.208	-174.154	-0.097	0.003
-538.193	-200.000	-0.015	-0.254
-537.179	215.255	-0.106	-0.170
-536.164	-4.128	-0.231	0.162
-535.150	-162.644	0.287	0.014
-534.135	-181.742	0.352	0.007
-533.121	-200.000	0.090	0.450
-532.106	-172.400	0.204	0.007
-531.091	-143.020	0.018	-0.002
-530.077	-200.000	-0.001	-0.103
-529.062	-0.459	-0.247	0.177
-528.048	-200.000	0.016	-0.153
-527.033	-72.662	0.107	-0.040
-526.018	76.902	-0.212	0.228
-525.004	-5.694	0.238	0.165
-523.989	-200.000	-0.014	0.096
-522.975	101.394	-0.211	0.249
-521.960	-90.309	-0.121	-0.036
-520.945	-19.542	0.317	-0.198
-519.931	-25.831	-0.306	-0.183
-518.916	268.263	-0.196	-0.348
-517.902	-107.288	0.170	-0.038
-516.887	156.106	0.110	0.153
-515.872	688.404	0.036	0.096
-514.858	-163.938	0.223	-0.010
-513.843	-200.000	0.011	0.160
-512.829	-74.035	-0.381	-0.140
-511.814	189.037	0.026	-0.040
-510.799	317.348	-0.082	0.157
-509.785	54.554	-0.116	0.113
-508.770	203.474	-0.216	-0.338
-507.756	404.138	0.144	-0.306
-506.741	49.630	-0.092	-0.088
-505.726	406.985	-0.106	-0.227
-504.712	160.092	0.096	-0.135
-503.697	-41.269	0.117	-0.061
-502.683	-80.065	0.116	-0.039
-501.668	-144.790	-0.267	0.025
-500.653	-10.256	0.203	-0.136
-499.639	75.163	-0.114	-0.122
-498.624	-200.000	0.059	0.278
-497.610	-136.937	-0.441	-0.051
-496.595	624.911	0.097	0.247
-495.581	-45.731	-0.236	0.118
-494.566	-200.000	-0.005	0.061
-493.551	254.435	-0.152	-0.262
-492.537	19.156	0.203	-0.164
-491.522	226.112	-0.148	0.242
-490.508	270.710	0.118	-0.209
-489.493	-27.427	0.187	0.110
-488.478	97.688	0.183	0.213
-487.464	-117.400	-0.391	0.071
-486.449	274.198	0.111	-0.198
-485.435	238.933	0.022	-0.037
-484.420	285.415	0.092	0.167
-483.405	-200.000	-0.013	-0.082
-482.391	-95.987	0.268	0.072
-481.376	-200.000	-0.016	-0.088
-480.362	-200.000	0.006	0.099
-479.347	-200.000	-0.340	0.001
-478.332	758.956	0.114	0.313
-477.318	-16.711	0.175	-0.112
-476.303	-169.709	-0.401	-0.015
-475.289	142.900	-0.078	-0.104
-474.274	222.650	0.024	0.039
-473.259	610.610	-0.120	0.302
-472.245	80.786	0.337	0.367
-471.230	-114.530	-0.339	-0.066
-470.216	413.105	0.078	-0.168
-469.201	9.509	-0.138	-0.105
-468.186	-164.538	0.513	-0.024
-467.172	800.000	0.048	-0.186
-466.157	800.000	-0.073	-0.233
-465.143	-6.433	0.293	-0.202
-464.128	-70.696	0.197	0.075
-463.113	618.375	0.105	-0.266
-462.099	-48.859	0.191	-0.092
-461.084	-43.385	-0.224	0.114
-460.070	-93.608	-0.093	-0.026
-459.055	-20.372	0.154	0.096
-458.040	-200.000	0.006	-0.162
-457.026	800.000	0.094	-0.265
-456.011	-19.222	-0.166	0.104
-454.997	-200.000	-0.025	0.215
-453.982	-11.674	0.448	-0.297
-452.968	-200.000	-0.005	0.031
-451.953	-98.808	0.218	0.056
-450.938	-200.000	0.051	-0.294
-449.924	198.185	-0.031	-0.048
-448.909	187.242	0.138	-0.207
-447.895	42.183	0.237	-0.217
-446.880	50.357	-0.305	-0.290
-445.865	-141.452	-0.072	-0.007
-444.851	53.146	0.087	0.084
-443.836	-124.588	0.066	0.010
-442.822	535.787	0.102	-0.243
-441.807	75.370	-0.138	-0.146
-440.792	-69.961	-0.107	-0.041
-439.778	-200.000	-0.029	-0.162
-438.763	25.689	0.382	-0.320
-437.749	238.517	-0.065	0.108
-436.734	-47.664	0.155	-0.076
-435.719	71.894	0.258	0.270
-434.705	48.286	-0.062	-0.058
-433.690	-56.838	-0.110	-0.049
-432.676	17.468	-0.281	-0.225
-431.661	800.000	0.030	0.120
-430.646	-200.000	0.003	-0.176
-429.632	-200.000	-0.005	-0.158
-428.617	21.725	-0.101	-0.083
-427.603	-71.964	-0.127	-0.048
-426.588	111.444	0.153	-0.185
-425.573	95.967	0.207	-0.238
-424.559	-136.115	-0.280	0.033
-423.544	10.818	-0.043	0.033
-422.530	184.684	-0.128	0.191
-421.515	594.508	-0.017	0.042
-420.500	-200.000	-0.015	0.241
-419.486	168.082	0.127	-0.182
-418.471	-65.729	0.240	-0.097
-417.457	260.611	0.125	-0.218
-416.442	-36.865	-0.191	0.103
-415.428	212.917	0.200	-0.319
-414.413	134.410	-0.115	0.150
-413.398	-200.000	0.025	0.125
-412.384	-200.000	-0.007	0.060
-411.369	256.328	0.038	-0.065
-410.355	-39.608	0.167	0.088
-409.340	203.362	0.071	0.110
-408.325	800.000	-0.063	0.201
-407.311	-200.000	0.009	-0.125
-406.296	202.674	0.043	0.067
-405.282	76.267	0.110	0.117
-404.267	405.292	0.098	-0.207
-403.252	496.327	-0.079	-0.183
-402.238	-37.937	0.563	0.301
-401.223	-138.518	-0.244	0.027
-400.209	-200.000	-0.101	0.481
-399.194	-92.263	-0.176	0.050
-398.179	-105.055	-0.167	-0.038
-397.165	-200.000	-0.014	0.140
-396.150	21.400	-0.178	0.145
-395.136	-126.721	-0.417	0.062
-394.121	-91.376	-0.210	-0.060
-393.106	-155.073	-0.086	0.006
-392.092	-200.000	-0.181	0.001
-391.077	67.447	0.085	-0.087
-390.063	334.304	0.108	-0.211
-389.048	294.123	0.112	0.206
-388.033	-27.930	0.175	0.102
-387.019	25.628	-0.222	-0.186
-386.004	-75.270	0.168	0.060
-384.990	-109.054	0.199	-0.043
-383.975	-200.000	-0.041	-0.258
-382.960	-200.000	-0.012	-0.145
-381.946	-43.466	0.446	-0.226
-380.931	79.743	0.249	-0.269
-379.917	22.141	0.313	-0.257
-378.902	-123.626	-0.042	-0.007
-377.888	211.165	-0.085	-0.134
-376.873	-200.000	-0.019	0.118
-375.858	18.747	0.043	0.034
-374.844	-200.000	-0.108	0.483
-373.829	76.099	-0.173	0.184
-372.815	121.974	0.176	0.220
-371.800	-115.845	0.229	0.043
-370.785	-86.851	-0.180	0.055
-369.771	395.747	-0.161	-0.337
-368.756	800.000	0.049	-0.144
-367.742	-133.317	-0.371	-0.047
-366.727	-200.000	-0.008	-0.348
-365.712	-10.061	-0.114	0.076
-364.698	-143.100	0.158	0.015
-363.683	88.885	0.093	-0.104
-362.669	585.080	0.104	0.256
-361.654	226.912	-0.139	0.227
-360.639	234.573	0.121	0.200
-359.625	211.564	-0.095	-0.151
-358.610	501.650	0.036	0.084
-357.596	-66.161	-0.149	0.060
-356.581	227.748	0.214	-0.349
-355.566	-19.823	-0.072	0.045
-354.552	81.395	-0.084	0.091
-353.537	-200.000	-0.056	0.275
-352.523	-110.168	-0.338	-0.071
-351.508	115.946	0.090	-0.111
-350.493	-200.000	-0.044	-0.223
-349.479	14.193	-0.064	0.050
-348.464	-75.678	-0.068	0.024
-347.450	-94.504	0.117	0.032
-346.435	779.216	-0.053	-0.146
-345.420	259.169	-0.089	-0.154
-344.406	-83.498	-0.321	0.103
-343.391	7.873	0.214	0.161
-342.377	795.659	-0.074	-0.205
-341.362	-7.749	0.606	0.411
-340.348	-17.178	-0.131	0.083
-339.333	800.000	-0.081	-0.235
-338.318	-14.255	-0.139	-0.090
-337.304	-116.590	0.361	0.067
-336.289	-11.056	0.072	-0.048
-335.275	800.000	0.053	0.171
-334.260	58.565	-0.233	-0.230
-333.245	-145.885	0.217	0.019
-332.231	238.964	-0.090	0.150
-331.216	-152.993	0.143	0.010
-330.202	-200.000	-0.033	-0.211
-329.187	-68.887	-0.271	-0.105
-328.172	-200.000	-0.041	-0.223
-327.158	294.384	-0.070	-0.128
-326.143	-200.000	0.024	-0.271
-325.129	-200.000	0.020	0.145
-324.114	-161.664	0.115	-0.006
-323.099	186.239	0.115	0.171
-322.085	-200.000	0.064	0.402
-321.070	800.000	-0.094	-0.279
-320.056	-200.000	-0.030	-0.206
-319.041	800.000	0.064	0.186
-318.026	25.427	-0.324	0.270
-317.012	96.396	-0.116	-0.133
-315.997	-200.000	-0.057	0.311
-314.983	38.279	0.228	0.204
-313.968	-200.000	-0.004	0.113
-312.953	95.538	-0.201	-0.230
-311.939	-43.173	0.355	-0.180
-310.924	-82.587	0.317	0.103
-309.910	-200.000	0.023	-0.293
-308.895	800.000	0.101	-0.283
-307.880	73.829	-0.101	-0.106
-306.866	51.682	0.180	0.172
-305.851	-135.191	-0.162	0.019
-304.837	-163.059	-0.030	-0.001
-303.822	21.672	-0.192	0.157
-302.807	16.945	0.232	0.184
-301.793	138.655	-0.053	0.070
-300.778	-29.484	-0.162	-0.093
-299.764	-92.473	-0.243	0.068
-298.749	750.774	-0.084	-0.227
-297.735	195.475	-0.109	0.166
-296.720	-200.000	-0.041	0.267
-295.705	-55.220	0.150	0.067
-294.691	-200.000	-0.044	0.313
-293.676	-200.000	-0.010	-0.110
-292.662	800.000	-0.036	0.123
-291.647	-147.678	-0.275	0.023
-290.632	255.454	-0.097	0.166
-289.618	-18.150	0.069	0.043
-288.603	-183.416	-0.083	-0.001
-287.589	262.285	0.071	-0.123
-286.574	-114.073	-0.195	-0.038
-285.559	-200.000	0.025	0.200
-284.545	-170.879	-0.178	0.006
-283.530	-175.183	0.258	0.007
-282.516	105.124	-0.075	-0.089
-281.501	55.425	0.100	-0.097
-280.486	703.791	-0.032	-0.084
-279.472	-200.000	0.015	0.338
-278.457	-125.956	0.163	-0.025
-277.443	23.029	-0.108	-0.089
-276.428	-200.000	-0.056	0.255
-275.413	-73.698	-0.066	0.024
-274.399	-158.790	0.047	0.003
-273.384	-200.000	0.029	0.208
-272.370	-118.479	0.184	0.033
-271.355	-106.800	-0.306	-0.068
-270.340	-65.422	-0.122	0.049
-269.326	-121.580	-0.234	0.039
-268.311	-17.839	0.217	-0.136
-267.297	55.048	-0.129	0.125
-266.282	-56.549	0.009	-0.004
-265.267	-153.199	-0.354	0.025
-264.253	-66.113	0.579	-0.231
-263.238	48.419	0.120	-0.112
-262.224	-42.382	0.117	-0.060
-261.209	579.030	0.059	-0.145
-260.195	800.000	0.097	-0.299
-259.180	800.000	0.054	-0.180
-258.165	-12.395	-0.148	0.097
-257.151	155.567	-0.140	0.193
-256.136	-110.006	0.281	-0.059
-255.122	395.528	-0.107	-0.224
-254.107	496.391	0.100	-0.230
-253.092	-90.512	-0.181	0.053
-252.078	-141.286	0.099	0.010
-251.063	45.408	-0.245	0.226
-250.049	108.218	0.056	-0.067
-249.034	2.437	0.194	-0.140
-248.019	-81.712	0.127	-0.042
-247.005	-49.281	-0.227	-0.108
-245.990	800.000	-0.039	0.125
-244.976	-105.606	-0.170	-0.039
-243.961	283.458	0.071	0.127
-242.946	420.475	-0.085	0.182
-241.932	561.922	-0.058	0.141
-240.917	-140.442	0.060	0.006
-239.903	28.526	-0.200	0.169
-238.888	653.454	0.057	0.146
-237.873	-23.891	-0.172	-0.103
-236.859	35.928	-0.063	-0.055
-235.844	109.970	-0.104	0.124
-234.830	-37.421	0.158	0.084
-233.815	50.746	-0.020	0.019
-232.800	-200.000	0.002	-0.034
-231.786	-92.461	-0.245	0.069
-230.771	-24.558	0.299	0.178
-229.757	-144.985	-0.275	0.025
-228.742	185.908	0.141	0.210
-227.727	-117.512	0.101	-0.018
-226.713	-81.256	-0.194	-0.064
-225.698	-200.000	-0.036	0.213
-224.684	-200.000	0.030	0.188
-223.669	-140.005	-0.549	0.058
-222.655	800.000	-0.050	0.197
-221.640	-15.167	-0.210	0.134
-220.625	-35.707	-0.081	0.044
-219.611	105.871	0.073	-0.087
-218.596	-148.863	-0.348	-0.028
-217.582	-36.154	0.307	0.166
-216.567	-190.157	0.217	0.002
-215.552	637.258	0.046	0.116
-214.538	800.000	-0.092	0.277
-213.523	94.952	-0.246	0.280
-212.509	331.308	-0.017	-0.033
-211.494	-138.506	0.208	0.023
-210.479	235.947	0.127	0.210
-209.465	-153.045	0.352	-0.025
-208.450	-61.761	-0.039	-0.016
-207.436	-143.919	0.259	0.024
-206.421	-52.716	-0.152	0.070
-205.406	-112.428	0.195	0.039
-204.392	129.352	-0.126	0.160
-203.377	13.314	-0.333	0.258
-202.363	546.696	-0.095	-0.226
-201.348	17.321	0.118	0.094
-200.333	278.030	-0.127	0.225
-199.319	-141.627	-0.258	0.026
-198.304	800.000	0.044	-0.155
-197.290	682.890	-0.084	-0.219
-196.275	-91.673	0.169	0.048
-195.260	-95.819	0.140	0.037
-194.246	-200.000	0.016	-0.401
-193.231	-81.818	-0.259	-0.085
-192.217	21.511	-0.092	-0.075
-191.202	48.792	0.149	-0.139
-190.187	-87.068	0.157	0.048
-189.173	-21.570	-0.184	-0.112
-188.158	596.630	-0.079	0.196
-187.144	-70.459	-0.166	0.063
-186.129	-70.240	0.141	0.053
-185.114	-56.496	-0.083	-0.037
-184.100	277.826	0.213	0.379
-183.085	171.969	0.119	0.171
-182.071	593.414	0.123	0.303
-181.056	723.107	-0.093	-0.247
-180.042	800.000	0.079	0.238
-179.027	800.000	0.056	0.212
-178.012	-26.611	-0.226	0.132
-176.998	-1.943	-0.155	-0.109
-175.983	-103.658	0.437	-0.102
-174.969	-3.350	0.139	-0.097
-173.954	-96.762	-0.359	0.094
-172.939	32.179	0.177	-0.152
-171.925	-103.102	0.459	-0.108
-170.910	800.000	0.057	0.192
-169.896	-148.841	0.141	-0.011
-168.881	429.217	-0.090	0.193
-167.866	450.712	0.100	0.221
-166.852	-54.444	0.521	-0.236
-165.837	61.394	0.122	0.121
-164.823	571.449	-0.087	0.212
-163.808	139.582	0.112	-0.146
-162.793	12.739	0.054	-0.042
-161.779	800.000	0.070	0.241
-160.764	800.000	-0.005	-0.019
-159.750	-181.798	-0.328	0.006
-158.735	201.016	-0.238	-0.365
-157.720	316.288	-0.042	0.079
-156.706	-138.706	-0.144	-0.016
-155.691	86.279	0.147	-0.162
-154.677	-113.388	0.428	-0.084
-153.662	41.833	-0.241	0.218
-152.647	-115.912	-0.517	0.096
-151.633	8.803	0.270	-0.203
-150.618	20.735	-0.179	0.145
-149.604	27.379	-0.194	-0.163
-148.589	47.885	0.135	-0.125
-147.574	43.736	-0.118	-0.108
-146.560	-75.458	-0.340	-0.121
-145.545	45.945	0.271	-0.250
-144.531	-91.201	0.320	-0.091
-143.516	272.197	-0.110	-0.194
-142.502	-200.000	0.019	-0.163
-141.487	94.318	-0.088	0.099
-140.472	45.187	-0.191	0.176
-139.458	499.871	0.126	-0.289
-138.443	34.186	-0.208	-0.181
-137.429	258.793	0.230	0.395
-136.414	-91.242	-0.340	0.097
-135.399	-126.160	0.070	-0.010
-134.385	-133.510	0.101	-0.013
-133.370	223.658	-0.123	-0.197
-132.356	145.684	0.085	-0.114
-131.341	-33.298	-0.458	0.252
-130.326	146.793	0.169	-0.226
-129.312	1.164	-0.316	0.226
-128.297	-118.956	-0.232	-0.041
-127.283	800.000	-0.110	0.366
-126.268	-41.574	-0.481	0.246
-125.253	800.000	0.098	-0.352
-124.239	-200.000	0.047	0.351
-123.224	800.000	-0.063	0.180
-122.210	-14.969	-0.116	-0.074
-121.195	-56.745	0.383	0.169
-120.180	-89.833	-0.152	0.044
-119.166	-142.722	0.243	0.024
-118.151	-200.000	-0.073	0.479
-117.137	-175.225	-0.061	0.002
-116.122	-200.000	-0.070	0.356
-115.107	28.815	0.259	0.218
-114.093	-18.630	0.255	0.158
-113.078	-200.000	0.021	0.328
-112.064	153.430	0.206	0.281
-111.049	1.300	-0.093	-0.067
-110.034	40.508	0.148	0.132
-109.020	-200.000	0.045	0.279
-108.005	483.383	-0.023	0.053
-106.991	384.908	-0.113	0.232
-105.976	164.441	0.022	-0.031
-104.962	24.060	0.126	0.103
-103.947	-19.469	-0.147	-0.091
-102.932	800.000	-0.030	0.089
-101.918	-109.982	0.555	0.116
-100.903	-110.446	-0.177	0.036
-99.889	-95.382	0.262	0.070
-98.874	-109.622	0.233	0.049
-97.859	598.125	-0.023	-0.057
-96.845	18.576	-0.327	0.260
-95.830	-200.000	0.015	0.194
-94.816	-200.000	-0.021	0.283
-93.801	-70.001	-0.087	-0.033
-92.786	88.795	-0.245	0.271
-91.772	-147.069	0.193	-0.016
-90.757	653.501	0.060	0.154
-89.743	498.233	-0.019	0.043
-88.728	53.776	-0.138	-0.131
-87.713	52.106	0.125	0.118
-86.699	118.253	0.211	-0.258
-85.684	-200.000	-0.006	-0.077
-84.670	-100.919	-0.261	-0.064
-83.655	-200.000	-0.018	0.097
-82.640	162.174	0.030	0.042
-81.626	105.031	0.197	0.231
-80.611	183.087	-0.052	-0.076
-79.597	-200.000	0.019	0.130
-78.582	40.880	-0.109	-0.098
-77.567	578.889	0.029	-0.070
-76.553	-58.272	0.122	0.053
-75.538	98.156	-0.121	-0.138
-74.524	-10.584	-0.213	-0.140
-73.509	343.818	-0.195	0.381
-72.494	51.800	-0.041	-0.038
-71.480	717.711	0.124	0.326
-70.465	-200.000	0.011	0.079
-69.451	800.000	0.023	0.098
-68.436	-9.399	0.253	-0.168
-67.422	177.578	-0.258	-0.374
-66.407	-120.431	0.159	-0.027
-65.392	-200.000	-0.011	0.081
-64.378	-149.290	0.123	-0.010
-63.363	47.937	0.081	0.075
-62.349	-200.000	0.025	0.157
-61.334	114.514	-0.802	-0.970
-60.319	25.149	0.236	0.194
-59.305	-200.000	-0.036	-0.722
-58.290	291.959	0.493	0.892
-57.276	613.236	0.570	1.417
-56.261	-200.000	92.998	548.244
-55.246	510.883	1402.487	3240.335
-54.232	144.205	2631.404	3486.333
-53.217	102.787	2382.221	2768.588
-52.203	41.240	2125.889	1907.990
-51.188	36.335	2036.791	1782.798
-50.173	34.830	2017.985	1752.477
-49.159	48.055	2068.085	1919.090
-48.144	50.454	2087.945	1959.762
-47.130	37.147	2046.372	1798.429
-46.115	34.775	2034.361	1765.913
-45.100	34.654	2031.434	1762.178
-44.086	34.611	2029.351	1759.909
-43.071	34.559	2026.093	1756.535
-42.057	34.578	2023.596	1754.471
-41.042	34.555	2022.252	1753.033
-40.027	34.607	2020.267	1751.721
-39.013	34.679	2018.005	1750.344
-37.998	34.622	2016.202	1748.194
-36.984	34.720	2014.020	1747.125
-35.969	34.627	2012.176	1744.604
-34.954	34.694	2010.490	1743.686
-33.940	34.780	2008.584	1742.753
-32.925	34.739	2007.077	1740.997
-31.911	34.812	2005.401	1740.141
-30.896	34.771	2003.062	1737.666
-29.881	34.706	2001.942	1736.035
-28.867	34.807	2000.330	1735.485
-27.852	34.806	1998.425	1733.760
-26.838	34.840	1996.362	1732.204
-25.823	34.792	1994.685	1730.250
-24.809	34.724	1992.912	1728.024
-23.794	34.876	1990.851	1727.543
-22.779	34.703	1989.958	1725.137
-21.765	34.783	1987.819	1723.935
-20.750	34.765	1986.409	1722.480
-19.736	34.832	1984.708	1721.541
-18.721	34.784	1983.058	1719.616
-17.706	34.766	1982.101	1718.551
-16.692	34.885	1979.135	1716.982
-15.677	34.752	1978.093	1714.815
-14.663	34.837	1976.431	1714.071
-13.648	34.859	1975.459	1713.354
-12.633	34.902	1973.651	1712.106
-11.619	34.786	1972.614	1710.099
-10.604	34.723	1971.644	1708.631
-9.590	34.701	1970.232	1707.140
-8.575	34.895	1967.970	1706.840
-7.560	34.761	1967.589	1705.245
-6.546	34.818	1965.476	1703.858
-5.531	34.739	1965.050	1702.721
-4.517	34.884	1963.272	1702.398
-3.502	34.850	1962.245	1701.140
-2.487	34.828	1961.068	1699.855
-1.473	34.822	1960.512	1699.255
-0.458	34.946	1956.094	1696.454
0.556	33.219	1937.563	1674.726
1.571	29.896	1919.365	1629.646
2.586	26.311	1943.270	1617.777
3.600	25.312	1980.671	1639.649
4.615	24.474	1977.152	1628.940
5.629	21.262	1879.330	1520.302
6.644	15.849	1764.641	1383.045
7.659	12.836	1728.927	1330.639
8.673	12.618	1724.925	1325.692
9.688	12.588	1723.618	1324.328
10.702	12.469	1722.591	1322.458
11.717	12.385	1719.001	1318.913
12.731	12.710	1718.190	1320.784
13.746	16.454	1726.446	1357.125
14.761	19.605	1732.440	1387.068
15.775	18.775	1728.378	1377.039
16.790	17.278	1723.615	1361.141
17.804	16.128	1719.931	1348.919
18.819	15.133	1716.856	1338.444
19.834	14.449	1713.833	1330.506
20.848	14.105	1712.335	1326.488
21.863	13.720	1710.919	1322.202
22.877	13.430	1709.211	1318.458
23.892	13.256	1707.578	1315.690
24.907	13.199	1706.510	1314.301
25.921	13.241	1705.427	1313.684
26.936	13.162	1704.506	1312.230
27.950	13.244	1703.204	1311.762
28.965	13.282	1703.218	1311.958
29.980	13.275	1702.147	1310.962
30.994	13.347	1700.643	1310.261
32.009	13.417	1699.635	1309.921
33.023	13.477	1698.340	1309.277
34.038	13.428	1698.176	1308.656
35.053	13.426	1696.829	1307.478
36.067	13.368	1695.703	1306.044
37.082	13.373	1694.453	1305.004
38.096	13.310	1693.422	1303.598
39.111	13.384	1692.245	1303.159
40.126	13.437	1691.676	1303.020
41.140	13.381	1690.630	1301.661
42.155	13.333	1689.085	1299.980
43.169	13.190	1687.909	1297.832
44.184	13.111	1687.275	1296.615
45.199	13.175	1685.398	1295.554
46.213	13.138	1684.210	1294.236
47.228	13.146	1683.300	1293.486
48.242	13.249	1681.829	1293.049
49.257	13.313	1680.623	1292.506
50.271	13.259	1679.582	1291.170
51.286	13.370	1678.214	1290.868
52.301	13.250	1677.243	1289.076
53.315	13.330	1675.218	1288.026
54.330	13.309	1673.758	1286.624
55.344	13.259	1672.265	1284.974
56.359	13.241	1670.946	1283.708
57.374	13.189	1669.677	1282.214
58.388	13.230	1668.561	1281.564
59.403	13.219	1667.220	1280.333
60.417	13.094	1666.012	1278.329
61.432	13.189	1664.940	1278.125
62.447	13.203	1663.327	1276.886
63.461	13.089	1662.076	1274.927
64.476	13.037	1661.321	1273.840
65.490	13.088	1659.943	1273.058
66.505	13.111	1659.036	1272.432
67.520	13.063	1658.035	1271.177
68.534	13.081	1657.123	1270.510
69.549	13.097	1656.149	1269.769
70.563	13.116	1654.508	1268.543
71.578	13.115	1653.397	1267.573
72.593	13.074	1652.454	1266.427
73.607	13.128	1651.263	1265.815
74.622	13.069	1650.026	1264.300
75.636	12.955	1649.304	1262.761
76.651	12.912	1648.558	1261.751
77.666	13.003	1647.627	1261.620
78.680	13.027	1647.033	1261.242
79.695	13.021	1645.607	1259.991
80.709	13.026	1645.186	1259.592
81.724	13.040	1644.440	1259.022
82.739	13.080	1643.003	1258.113
83.753	13.232	1642.142	1258.497
84.768	13.192	1641.356	1257.485
85.782	13.224	1640.696	1257.111
86.797	13.344	1639.307	1256.841
87.812	13.362	1638.328	1256.122
88.826	13.250	1637.617	1254.609
89.841	13.218	1636.036	1253.050
90.855	13.259	1634.924	1252.399
91.870	13.290	1633.797	1251.658
92.884	13.333	1633.180	1251.402
93.899	13.282	1632.056	1250.038
94.914	13.281	1630.680	1248.869
95.928	13.415	1629.494	1248.861
96.943	13.392	1628.033	1247.459
97.957	13.353	1626.664	1246.006
98.972	13.388	1624.506	1244.507
99.987	13.367	1623.444	1243.427
101.001	13.337	1621.956	1241.949
102.016	13.245	1620.592	1240.105
103.030	13.252	1619.393	1239.126
104.045	13.264	1617.998	1238.046
105.060	13.405	1616.167	1237.583
106.074	13.336	1614.648	1235.796
107.089	13.184	1613.561	1233.722
108.103	13.142	1611.587	1231.790
109.118	13.033	1610.549	1230.073
110.133	13.058	1609.078	1229.030
111.147	13.098	1607.321	1227.874
112.162	13.101	1606.056	1226.823
113.176	13.188	1604.942	1226.507
114.191	13.193	1603.690	1225.484
115.206	13.203	1602.062	1224.204
116.220	13.208	1601.103	1223.402
117.235	13.215	1599.505	1222.124
118.249	13.145	1598.394	1220.644
119.264	13.187	1596.940	1219.738
120.279	13.098	1595.596	1217.949
121.293	13.110	1593.778	1216.545
122.308	13.136	1592.240	1215.454
123.322	13.127	1590.680	1214.085
124.337	13.131	1589.233	1212.903
125.352	13.037	1588.178	1211.301
126.366	13.149	1586.600	1210.813
127.381	13.111	1585.491	1209.578
128.395	13.133	1584.101	1208.575
129.410	13.117	1582.335	1207.005
130.424	13.186	1581.283	1206.600
131.439	13.127	1580.249	1205.273
132.454	13.186	1578.922	1204.584
133.468	13.254	1577.233	1203.683
134.483	13.199	1575.695	1202.000
135.497	13.206	1574.571	1201.088
136.512	13.303	1572.948	1200.447
137.527	13.348	1571.156	1199.299
138.541	13.212	1570.603	1197.786
139.556	13.320	1568.914	1197.178
140.570	13.306	1567.548	1195.924
141.585	13.353	1566.238	1195.162
142.600	13.268	1565.395	1193.799
143.614	13.446	1563.605	1193.609
144.629	13.411	1562.700	1192.561
145.643	13.436	1561.385	1191.633
146.658	13.414	1559.687	1190.076
147.673	13.454	1557.785	1188.805
148.687	13.367	1556.600	1187.169
149.702	13.394	1554.890	1185.956
150.716	13.409	1553.169	1184.642
151.731	13.278	1552.137	1182.817
152.746	13.323	1550.732	1181.963
153.760	13.367	1549.506	1181.239
154.775	13.394	1548.096	1180.248
155.789	13.434	1546.772	1179.424
156.804	13.489	1545.776	1178.952
157.819	13.548	1543.985	1177.900
158.833	13.452	1543.690	1176.887
159.848	13.495	1542.277	1176.007
160.862	13.653	1540.491	1175.668
161.877	13.605	1539.984	1174.833
162.892	13.547	1538.443	1173.143
163.906	13.550	1536.842	1171.844
164.921	13.508	1536.025	1170.818
165.935	13.473	1534.878	1169.590
166.950	13.463	1533.975	1168.728
167.964	13.485	1532.846	1167.920
168.979	13.512	1531.674	1167.115
169.994	13.569	1530.849	1166.785
171.008	13.518	1529.806	1165.527
172.023	13.562	1528.019	1164.374
173.037	13.515	1527.449	1163.503
174.052	13.649	1525.860	1163.130
175.067	13.629	1524.789	1162.071
176.081	13.603	1523.508	1160.813
177.096	13.490	1522.520	1159.164
178.110	13.585	1521.099	1158.641
179.125	13.577	1520.451	1157.995
180.140	13.575	1518.797	1156.618
181.154	13.601	1517.248	1155.519
182.169	13.719	1516.297	1155.513
183.183	13.700	1515.098	1154.360
184.198	13.642	1514.314	1153.259
185.213	13.785	1513.187	1153.296
186.227	13.837	1511.942	1152.605
187.242	13.810	1510.968	1151.569
188.256	13.830	1509.777	1150.700
189.271	13.926	1508.897	1150.593
190.286	13.934	1507.717	1149.650
191.300	13.837	1506.568	1147.997
192.315	13.736	1505.290	1146.227
193.329	13.547	1504.182	1143.973
194.344	13.517	1503.057	1142.811
195.359	13.609	1502.122	1142.634
196.373	13.717	1500.791	1142.263
197.388	13.772	1499.993	1141.935
198.402	13.911	1498.745	1141.842
199.417	13.955	1497.696	1141.243
200.432	13.957	1496.776	1140.456
201.446	14.058	1495.834	1140.325
202.461	14.043	1494.736	1139.287
203.475	14.073	1493.399	1138.373
204.490	14.138	1492.222	1137.819
205.504	14.129	1491.291	1136.947
206.519	14.080	1489.604	1135.227
207.534	13.945	1488.783	1133.580
208.548	13.981	1487.442	1132.701
209.563	14.033	1486.469	1132.213
210.577	14.016	1485.534	1131.284
211.592	14.016	1484.573	1130.458
212.607	13.986	1483.890	1129.634
213.621	14.168	1483.421	1130.411
214.636	14.172	1482.244	1129.443
215.650	14.111	1481.290	1128.202
216.665	14.198	1480.036	1127.734
217.680	14.199	1479.578	1127.292
218.694	14.308	1478.723	1127.279
219.709	14.233	1477.879	1126.031
220.723	14.278	1476.940	1125.521
221.738	14.229	1476.002	1124.375
222.753	14.277	1474.971	1123.810
223.767	14.343	1473.820	1123.282
224.782	14.357	1472.901	1122.574
225.796	14.307	1472.256	1121.647
226.811	14.367	1471.497	1121.375
227.826	14.368	1470.232	1120.319
228.840	14.383	1469.746	1119.946
229.855	14.345	1468.284	1118.479
230.869	14.340	1467.893	1118.048
231.884	14.435	1466.465	1117.500
232.899	14.320	1465.263	1115.716
233.913	14.339	1464.127	1114.881
234.928	14.327	1462.868	1113.742
235.942	14.212	1461.783	1112.046
236.957	14.286	1460.634	1111.570
237.972	14.343	1459.349	1110.876
238.986	14.273	1458.185	1109.426
240.001	14.402	1457.135	1109.388
241.015	14.394	1456.295	1108.596
242.030	14.364	1454.948	1107.272
243.045	14.338	1454.517	1106.673
244.059	14.336	1453.677	1105.922
245.074	14.405	1452.845	1105.649
246.088	14.459	1451.891	1105.186
247.103	14.480	1450.916	1104.483
248.117	14.540	1450.257	1104.278
249.132	14.528	1450.079	1103.966
250.147	14.539	1448.982	1103.109
251.161	14.645	1448.127	1103.057
252.176	14.799	1447.128	1103.216
253.190	14.866	1446.440	1103.037
254.205	14.840	1445.698	1102.204
255.220	14.797	1445.130	1101.391
256.234	14.920	1444.218	1101.409
257.249	14.912	1443.362	1100.607
258.263	14.911	1442.173	1099.595
259.278	14.898	1441.096	1098.590
260.293	14.966	1440.655	1098.603
261.307	14.887	1439.718	1097.271
262.322	14.990	1438.785	1097.140
263.336	15.069	1437.975	1096.942
264.351	14.966	1437.031	1095.450
265.366	14.943	1436.425	1094.743
266.380	15.020	1435.219	1094.231
267.395	15.123	1434.244	1094.063
268.409	15.086	1433.104	1092.851
269.424	15.049	1432.010	1091.679
270.439	15.083	1431.020	1091.050
271.453	14.994	1430.103	1089.675
272.468	15.069	1429.399	1089.529
273.482	15.036	1428.822	1088.782
274.497	15.061	1427.325	1087.705
275.512	15.055	1426.545	1086.976
276.526	15.023	1426.103	1086.336
277.541	15.149	1425.182	1086.356
278.555	15.033	1424.197	1084.759
279.570	15.145	1423.193	1084.621
280.585	15.207	1421.652	1083.753
281.599	15.194	1421.011	1083.080
282.614	15.230	1420.383	1082.741
283.628	15.232	1418.942	1081.561
284.643	15.209	1418.260	1080.795
285.657	15.197	1417.112	1079.752
286.672	15.286	1416.069	1079.433
287.687	15.270	1415.064	1078.466
288.701	15.244	1413.694	1077.158
289.716	15.138	1413.492	1076.228
290.730	15.256	1412.766	1076.339
291.745	15.224	1411.168	1074.819
292.760	15.210	1410.648	1074.241
293.774	15.369	1409.458	1074.259
294.789	15.220	1408.771	1072.685
295.803	15.401	1407.383	1072.693
296.818	15.417	1406.928	1072.352
297.833	15.366	1406.015	1071.233
298.847	15.348	1404.871	1070.151
299.862	15.400	1403.460	1069.318
300.876	15.350	1402.952	1068.518
301.891	15.486	1401.948	1068.522
302.906	15.427	1401.175	1067.463
303.920	15.511	1400.369	1067.285
304.935	15.578	1399.442	1066.912
305.949	15.534	1398.885	1066.115
306.964	15.616	1398.337	1066.124
307.979	15.715	1396.745	1065.441
308.993	15.606	1395.828	1063.960
310.008	15.613	1394.941	1063.232
311.022	15.632	1394.090	1062.612
312.037	15.686	1393.110	1062.109
313.052	15.655	1392.210	1061.133
314.066	15.773	1390.838	1060.737
315.081	15.679	1389.548	1059.068
316.095	15.604	1388.724	1057.874
317.110	15.581	1387.540	1056.733
318.125	15.623	1386.706	1056.270
319.139	15.669	1385.627	1055.642
320.154	15.699	1384.761	1055.080
321.168	15.615	1383.897	1053.797
322.183	15.667	1382.476	1052.952
323.197	15.706	1381.109	1052.062
324.212	15.740	1380.223	1051.503
325.227	15.713	1380.057	1051.116
326.241	15.656	1379.533	1050.270
327.256	15.743	1378.412	1049.863
328.270	15.792	1377.207	1049.162
329.285	15.827	1376.374	1048.648
330.300	15.786	1375.574	1047.692
331.314	15.736	1374.585	1046.539
332.329	15.766	1373.888	1046.097
333.343	15.652	1373.147	1044.736
334.358	15.741	1372.246	1044.508
335.373	15.839	1371.130	1044.173
336.387	15.937	1370.499	1044.207
337.402	15.900	1369.690	1043.270
338.416	15.957	1368.714	1042.788
339.431	15.952	1368.604	1042.583
340.446	15.928	1367.691	1041.646
341.460	16.023	1366.663	1041.357
342.475	16.014	1365.527	1040.342
343.489	16.133	1364.818	1040.446
344.504	16.090	1363.991	1039.457
345.519	16.188	1362.940	1039.168
346.533	16.111	1361.862	1037.780
347.548	16.216	1361.268	1037.882
348.562	16.243	1360.397	1037.295
349.577	16.301	1359.481	1036.861
350.592	16.147	1358.414	1035.007
351.606	16.228	1358.011	1035.106
352.621	16.169	1357.461	1034.234
353.635	16.115	1355.861	1032.590
354.650	16.070	1354.656	1031.310
355.665	16.140	1353.910	1031.078
356.679	16.184	1352.389	1030.096
357.694	16.177	1351.605	1029.368
358.708	16.164	1350.595	1028.427
359.723	16.236	1349.442	1027.898
360.738	16.281	1348.295	1027.206
361.752	16.288	1347.480	1026.538
362.767	16.352	1345.986	1025.694
363.781	16.242	1345.348	1024.448
364.796	16.321	1344.496	1024.187
365.810	16.292	1343.875	1023.452
366.825	16.394	1343.380	1023.600
367.840	16.431	1342.437	1023.015
368.854	16.463	1341.658	1022.523
369.869	16.538	1341.168	1022.514
370.883	16.458	1340.403	1021.358
371.898	16.550	1339.702	1021.291
372.913	16.625	1338.916	1021.052
373.927	16.521	1337.868	1019.535
374.942	16.589	1336.899	1019.119
375.956	16.534	1336.462	1018.361
376.971	16.675	1335.518	1018.401
377.986	16.629	1334.312	1017.113
379.000	16.651	1333.981	1016.905
380.015	16.729	1332.900	1016.460
381.029	16.737	1332.453	1016.073
382.044	16.743	1331.465	1015.267
383.059	16.682	1331.026	1014.480
384.073	16.830	1330.160	1014.616
385.088	16.717	1329.906	1013.656
386.102	16.693	1329.401	1013.036
387.117	16.802	1328.273	1012.737
388.132	16.815	1327.055	1011.800
389.146	16.792	1326.229	1010.939
390.161	16.770	1325.400	1010.087
391.175	16.755	1325.091	1009.676
392.190	16.719	1324.401	1008.847
393.205	16.782	1323.242	1008.247
394.219	16.788	1322.434	1007.577
395.234	16.851	1320.632	1006.494
396.248	16.840	1319.398	1005.399
397.263	16.849	1317.701	1004.064
398.278	16.856	1316.727	1003.280
399.292	16.760	1315.810	1001.922
400.307	16.839	1314.852	1001.574
401.321	16.780	1313.317	999.964
402.336	16.788	1312.345	999.183
403.350	16.836	1311.684	998.874
404.365	16.856	1310.809	998.237
405.380	16.769	1309.841	996.902
406.394	16.978	1309.095	997.471
407.409	16.954	1308.387	996.703
408.423	16.984	1307.374	996.021
409.438	17.087	1306.892	996.173
410.453	17.159	1306.285	996.042
411.467	17.083	1305.783	995.126
412.482	17.047	1305.350	994.499
413.496	17.265	1304.330	994.908
414.511	17.250	1303.098	993.790
415.526	17.251	1302.726	993.427
416.540	17.312	1302.003	993.146
417.555	17.246	1301.712	992.447
418.569	17.219	1301.082	991.721
419.584	17.298	1300.277	991.479
420.599	17.304	1299.242	990.641
421.613	88.807	1346.132	1438.288
422.628	87.528	1352.926	1438.409
