DTS Sentinel unit serial number:	SN413079Multiplexer serial number:	ORYXHardware model number:	OX4-SRSoftware version number:	ORYX F/W v4.00 Oryx Data Collector v3.7.2.0data status	okinstallation	princeton_trtdifferential loss correction	single-endedforward channel	channel 4reverse channel	N/Adate	2019/09/13time	16:53:34forward acquisition time	60.00reverse acquisition time	0.00gamma	496.2192k internal	0.2297k external	0.2297temperature offset calibration	1.0213default loss term (dB/km)	0.3790temperature slope calibration	1.0000multiplexer offset coefficient	1.0000multiplexer slope coefficient	1.0000fibre end	0.00T internal ref (°C)	34.87T ext. ref 1 (°C)	4.92T ext. ref 2 (°C)	30.39length (m)	temperature (°C)	Stokes	anti-Stokes-747.200	-140.142	-0.197	0.021
-746.185	-168.013	-0.207	0.008
-745.171	-36.312	-0.144	0.079
-744.156	-45.722	-0.430	0.217
-743.142	85.831	-0.102	-0.114
-742.127	-86.117	-0.050	0.016
-741.112	-200.000	0.018	-0.198
-740.098	45.714	-0.224	0.212
-739.083	99.938	-0.131	0.155
-738.069	-22.581	0.046	0.029
-737.054	-200.000	0.012	0.329
-736.039	8.164	-0.359	0.275
-735.025	53.091	-0.081	-0.079
-734.010	333.338	-0.173	-0.341
-732.996	-167.213	-0.078	-0.003
-731.981	-83.050	-0.256	-0.084
-730.966	-112.427	0.317	-0.065
-729.952	-30.921	-0.320	-0.184
-728.937	-30.066	0.327	0.190
-727.923	-200.000	0.038	0.379
-726.908	87.554	0.027	0.030
-725.894	-2.530	-0.120	0.086
-724.879	166.760	-0.153	0.222
-723.864	119.362	-0.104	-0.131
-722.850	-18.615	0.171	0.109
-721.835	800.000	-0.043	-0.151
-720.821	800.000	-0.054	-0.208
-719.806	4.220	0.150	-0.112
-718.791	-115.359	-0.262	-0.051
-717.777	-40.224	-0.118	-0.063
-716.762	-56.974	-0.214	0.096
-715.748	41.417	0.174	-0.160
-714.733	729.361	-0.026	0.071
-713.718	-64.321	-0.061	-0.025
-712.704	236.146	0.117	0.198
-711.689	-200.000	-0.018	-0.231
-710.675	398.287	0.039	-0.084
-709.660	-89.262	0.135	0.041
-708.645	-200.000	0.006	-0.172
-707.631	-200.000	0.001	0.154
-706.616	175.962	-0.035	0.052
-705.602	477.123	-0.101	-0.233
-704.587	-149.485	0.169	0.014
-703.572	85.529	0.104	0.117
-702.558	-40.563	0.108	-0.057
-701.543	-85.664	0.074	-0.023
-700.529	126.017	-0.155	0.199
-699.514	-37.686	0.048	-0.026
-698.499	-79.017	-0.155	-0.054
-697.485	363.209	-0.108	0.222
-696.470	-88.229	-0.173	0.053
-695.456	-200.000	-0.011	0.064
-694.441	-140.723	-0.379	-0.040
-693.426	548.368	-0.079	-0.193
-692.412	-200.000	0.029	0.372
-691.397	90.630	0.176	-0.201
-690.383	800.000	0.047	-0.203
-689.368	800.000	-0.010	-0.034
-688.354	-191.379	0.383	-0.004
-687.339	41.521	0.117	-0.108
-686.324	58.557	0.102	0.102
-685.310	308.726	0.105	0.200
-684.295	-200.000	0.008	0.040
-683.281	800.000	-0.173	-0.619
-682.266	77.604	-0.109	0.118
-681.251	-103.608	0.235	0.056
-680.237	-200.000	-0.027	-0.137
-679.222	-200.000	0.054	-0.271
-678.208	-75.572	0.258	0.093
-677.193	-9.272	-0.154	0.105
-676.178	-92.912	0.103	-0.029
-675.164	-36.266	0.177	-0.097
-674.149	-200.000	0.022	-0.189
-673.135	726.728	0.039	0.105
-672.120	-33.201	0.222	0.125
-671.105	473.428	0.112	0.258
-670.091	-111.392	-0.142	0.029
-669.076	558.444	0.102	-0.250
-668.062	150.565	0.224	-0.310
-667.047	-200.000	-0.004	-0.212
-666.032	200.625	0.100	0.157
-665.018	800.000	-0.090	-0.312
-664.003	123.415	0.068	-0.087
-662.989	45.655	0.106	0.100
-661.974	-200.000	-0.014	0.098
-660.959	-171.413	0.366	0.012
-659.945	-86.673	-0.055	-0.017
-658.930	-200.000	-0.021	0.218
-657.916	-54.044	0.245	0.113
-656.901	134.265	-0.177	0.233
-655.886	-200.000	0.043	0.274
-654.872	15.577	-0.322	-0.257
-653.857	-200.000	-0.008	-0.150
-652.843	-156.271	0.060	0.004
-651.828	520.732	-0.034	-0.082
-650.814	800.000	-0.096	-0.311
-649.799	-200.000	-0.016	-0.219
-648.784	800.000	-0.100	0.303
-647.770	111.432	0.122	0.150
-646.755	-143.843	0.102	0.010
-645.741	76.793	-0.089	-0.096
-644.726	-62.624	-0.184	0.078
-643.711	800.000	-0.030	-0.127
-642.697	-82.229	0.275	0.091
-641.682	-100.877	0.238	-0.060
-640.668	-44.377	-0.138	-0.070
-639.653	151.450	-0.157	-0.218
-638.638	800.000	0.043	-0.179
-637.624	305.432	0.142	0.268
-636.609	-145.867	0.051	0.005
-635.595	-76.718	-0.244	0.087
-634.580	40.214	-0.269	-0.246
-633.565	-25.402	0.122	-0.074
-632.551	-200.000	0.049	-0.256
-631.536	-76.436	-0.249	-0.089
-630.522	158.140	-0.078	-0.110
-629.507	333.389	0.064	0.126
-628.492	328.991	0.099	0.194
-627.478	-98.101	-0.301	-0.079
-626.463	800.000	-0.045	0.128
-625.449	-200.000	0.004	-0.195
-624.434	-200.000	0.042	-0.197
-623.419	71.983	-0.079	-0.083
-622.405	-200.000	0.037	0.196
-621.390	-14.809	-0.463	-0.302
-620.376	104.004	0.265	0.317
-619.361	-179.693	-0.238	0.005
-618.346	6.166	0.203	-0.153
-617.332	-200.000	-0.002	-0.175
-616.317	-53.099	-0.232	0.108
-615.303	169.670	0.134	-0.195
-614.288	103.174	-0.285	-0.339
-613.273	-40.738	0.332	-0.175
-612.259	-67.246	-0.135	0.054
-611.244	22.412	-0.237	0.197
-610.230	114.532	-0.084	0.104
-609.215	-42.381	0.211	0.110
-608.201	800.000	-0.105	-0.303
-607.186	-124.991	-0.140	-0.022
-606.171	114.586	-0.132	-0.164
-605.157	-103.576	-0.272	0.065
-604.142	80.290	-0.079	-0.086
-603.128	-200.000	-0.003	0.221
-602.113	-200.000	-0.018	0.082
-601.098	800.000	-0.044	-0.152
-600.084	-129.541	0.264	-0.037
-599.069	238.162	0.139	0.234
-598.055	104.371	0.269	-0.322
-597.040	5.703	0.083	-0.062
-596.025	-61.979	0.202	-0.086
-595.011	368.947	-0.027	-0.055
-593.996	800.000	-0.089	0.276
-592.982	-1.602	0.098	0.070
-591.967	52.222	0.188	0.182
-590.952	96.370	-0.087	0.102
-589.938	236.175	0.064	0.108
-588.923	-200.000	0.000	-0.371
-587.909	17.127	-0.083	-0.066
-586.894	-200.000	-0.041	-0.226
-585.879	95.886	-0.142	0.164
-584.865	-2.987	-0.091	-0.064
-583.850	-139.225	-0.146	0.016
-582.836	-54.962	-0.238	0.109
-581.821	-120.416	-0.126	-0.022
-580.806	-200.000	0.120	0.634
-579.792	-200.000	-0.036	-0.167
-578.777	-92.422	0.210	-0.060
-577.763	-200.000	-0.005	-0.078
-576.748	134.745	-0.187	-0.246
-575.733	33.470	0.090	0.080
-574.719	-105.116	0.179	-0.042
-573.704	-44.223	-0.072	-0.037
-572.690	-94.738	-0.136	0.037
-571.675	-120.068	-0.328	0.057
-570.661	81.219	-0.247	-0.271
-569.646	800.000	-0.070	-0.258
-568.631	112.338	-0.040	-0.049
-567.617	-116.944	-0.181	0.033
-566.602	-117.337	-0.237	-0.044
-565.588	-110.712	-0.345	-0.072
-564.573	800.000	-0.076	0.231
-563.558	800.000	0.154	0.517
-562.544	-135.015	0.229	0.028
-561.529	340.115	0.136	0.268
-560.515	363.287	0.135	0.275
-559.500	-74.423	0.270	-0.099
-558.485	-154.532	-0.225	-0.015
-557.471	109.663	-0.130	0.158
-556.456	-200.000	0.023	-0.269
-555.442	-200.000	0.059	-0.268
-554.427	59.077	-0.104	0.104
-553.412	290.353	0.028	-0.052
-552.398	-12.684	0.409	-0.271
-551.383	294.393	0.070	-0.129
-550.369	-109.553	-0.295	-0.063
-549.354	-200.000	0.056	0.282
-548.339	-200.000	0.051	0.307
-547.325	800.000	-0.088	-0.291
-546.310	800.000	0.054	-0.189
-545.296	800.000	-0.165	0.525
-544.281	17.410	0.147	-0.118
-543.266	-105.266	-0.251	-0.058
-542.252	215.290	-0.068	0.109
-541.237	-147.402	0.128	0.011
-540.223	178.898	0.157	-0.233
-539.208	-118.527	0.250	0.045
-538.193	-42.897	-0.070	0.036
-537.179	486.629	0.063	-0.145
-536.164	31.905	0.286	-0.249
-535.150	-119.759	0.248	0.043
-534.135	37.607	0.019	0.017
-533.121	3.293	0.141	-0.104
-532.106	107.054	-0.074	-0.089
-531.091	-52.735	-0.152	0.071
-530.077	-98.891	0.198	0.051
-529.062	-105.405	0.212	0.049
-528.048	-171.808	-0.084	-0.003
-527.033	-10.645	0.420	0.282
-526.018	99.588	-0.070	-0.081
-525.004	231.908	0.052	-0.086
-523.989	169.872	0.209	0.302
-522.975	194.103	0.215	0.329
-521.960	17.673	-0.241	0.194
-520.945	-200.000	-0.047	0.502
-519.931	-105.277	-0.162	0.037
-518.916	800.000	0.075	-0.243
-517.902	800.000	-0.020	-0.063
-516.887	46.659	-0.155	0.146
-515.872	246.868	-0.028	-0.047
-514.858	131.624	-0.198	-0.258
-513.843	-16.011	-0.131	0.084
-512.829	-200.000	-0.036	-0.181
-511.814	800.000	-0.019	0.061
-510.799	-103.256	0.172	0.041
-509.785	330.244	0.159	-0.311
-508.770	-65.615	-0.117	-0.047
-507.756	800.000	-0.024	-0.078
-506.741	174.310	0.138	-0.202
-505.726	-200.000	-0.009	0.417
-504.712	66.780	-0.274	-0.283
-503.697	18.366	0.256	0.207
-502.683	800.000	0.039	-0.109
-501.668	-117.484	0.176	-0.032
-500.653	-105.566	0.186	0.043
-499.639	-123.924	-0.330	-0.053
-498.624	-43.857	-0.357	0.182
-497.610	305.833	-0.214	-0.402
-496.595	32.408	0.216	-0.189
-495.581	-107.791	-0.248	0.055
-494.566	-200.000	0.087	-0.465
-493.551	800.000	0.111	0.313
-492.537	800.000	-0.080	0.282
-491.522	370.623	0.049	-0.101
-490.508	79.895	-0.187	-0.203
-489.493	97.978	-0.338	-0.394
-488.478	-200.000	-0.043	-0.432
-487.464	-19.131	-0.072	0.045
-486.449	189.815	-0.193	-0.292
-485.435	-101.712	-0.189	0.046
-484.420	395.180	-0.247	-0.520
-483.405	-167.521	-0.241	-0.010
-482.391	-103.159	0.143	0.034
-481.376	233.818	0.138	-0.230
-480.362	-89.053	-0.166	-0.050
-479.347	62.582	-0.111	-0.112
-478.332	-200.000	0.011	-0.242
-477.318	-108.903	-0.120	0.026
-476.303	519.933	-0.059	-0.139
-475.289	-64.309	0.228	0.094
-474.274	225.961	-0.103	-0.168
-473.259	188.044	0.181	-0.274
-472.245	127.471	-0.115	-0.147
-471.230	238.063	0.050	0.083
-470.216	-193.677	0.089	-0.001
-469.201	37.821	0.034	0.031
-468.186	-163.700	-0.231	-0.011
-467.172	737.458	-0.128	-0.347
-466.157	-200.000	0.008	-0.343
-465.143	-43.585	0.149	0.076
-464.128	77.160	-0.276	0.296
-463.113	-200.000	-0.011	-0.195
-462.099	-101.709	0.179	-0.044
-461.084	-98.574	0.386	0.100
-460.070	285.465	0.072	0.130
-459.055	-146.885	0.358	-0.031
-458.040	41.974	-0.135	0.123
-457.026	-184.299	-0.199	0.003
-456.011	65.091	0.048	0.049
-454.997	293.981	0.127	0.234
-453.982	294.489	0.031	0.058
-452.968	74.362	-0.093	0.099
-451.953	-16.836	0.273	-0.174
-450.938	-129.135	0.179	-0.025
-449.924	336.511	-0.134	0.262
-448.909	443.699	-0.020	0.045
-447.895	-41.808	0.182	-0.094
-446.880	-134.270	-0.354	0.044
-445.865	-102.732	0.078	0.019
-444.851	-97.241	0.218	0.058
-443.836	11.256	0.230	-0.178
-442.822	270.393	0.126	-0.224
-441.807	199.169	-0.100	-0.154
-440.792	-86.705	-0.162	-0.050
-439.778	-67.053	0.069	0.027
-438.763	-200.000	-0.032	0.256
-437.749	28.111	0.118	-0.101
-436.734	-91.836	0.059	0.017
-435.719	-103.045	0.198	0.047
-434.705	-200.000	-0.002	-0.152
-433.690	-61.142	-0.088	-0.038
-432.676	-200.000	-0.002	0.123
-431.661	110.341	-0.278	-0.337
-430.646	-64.214	0.276	-0.114
-429.632	-75.388	-0.308	-0.111
-428.617	-81.175	-0.226	-0.075
-427.603	-123.875	-0.203	0.032
-426.588	99.318	0.202	-0.235
-425.573	519.448	0.169	0.399
-424.559	-37.971	-0.018	0.010
-423.544	-200.000	0.020	0.216
-422.530	39.117	-0.043	0.039
-421.515	-147.826	-0.170	0.014
-420.500	-200.000	-0.000	0.180
-419.486	-144.345	0.251	0.024
-418.471	-118.841	-0.261	-0.046
-417.457	-200.000	-0.000	0.099
-416.442	248.111	0.202	-0.345
-415.428	188.205	-0.160	0.242
-414.413	800.000	0.045	0.185
-413.398	237.644	0.142	-0.238
-412.384	-10.252	-0.162	0.109
-411.369	-14.559	-0.032	0.021
-410.355	-164.239	0.226	-0.010
-409.340	-200.000	0.076	-0.372
-408.325	-174.296	-0.567	-0.017
-407.311	34.097	-0.237	-0.208
-406.296	123.850	0.050	-0.063
-405.282	-200.000	-0.043	-0.256
-404.267	-106.132	-0.162	-0.037
-403.252	800.000	0.056	-0.165
-402.238	399.180	-0.006	0.012
-401.223	-160.186	0.193	-0.011
-400.209	-200.000	0.024	0.202
-399.194	-200.000	0.010	-0.096
-398.179	34.054	-0.017	-0.015
-397.165	-200.000	-0.002	0.175
-396.150	733.503	0.007	-0.018
-395.136	766.325	-0.077	0.212
-394.121	-200.000	-0.003	-0.088
-393.106	-94.002	-0.123	0.034
-392.092	-81.248	0.327	0.109
-391.077	150.049	0.062	-0.085
-390.063	311.478	0.178	-0.336
-389.048	204.941	-0.167	-0.262
-388.033	-6.675	0.097	-0.066
-387.019	43.349	0.290	-0.267
-386.004	-47.201	0.330	-0.162
-384.990	698.871	0.065	0.171
-383.975	792.708	-0.086	0.239
-382.960	-30.048	0.105	-0.060
-381.946	-137.963	0.262	0.029
-380.931	526.914	0.089	-0.212
-379.917	-200.000	-0.002	0.105
-378.902	800.000	0.032	-0.101
-377.888	-123.498	-0.088	0.014
-376.873	726.808	0.145	0.390
-375.858	-2.089	-0.272	-0.192
-374.844	175.753	-0.045	-0.066
-373.829	-44.098	0.249	-0.126
-372.815	198.136	0.053	0.082
-371.800	-131.416	-0.190	-0.025
-370.785	205.954	-0.152	0.238
-369.771	-200.000	-0.014	0.347
-368.756	-200.000	0.063	0.376
-367.742	-200.000	0.044	-0.310
-366.727	-25.102	-0.182	-0.109
-365.712	-111.971	-0.207	0.042
-364.698	800.000	0.084	-0.239
-363.683	29.776	0.144	-0.124
-362.669	-27.120	-0.152	0.089
-361.654	-87.115	-0.229	0.070
-360.639	-48.719	-0.143	-0.069
-359.625	2.357	-0.290	0.211
-358.610	-200.000	-0.019	0.131
-357.596	-158.563	-0.118	0.007
-356.581	20.145	0.167	-0.136
-355.566	137.181	0.371	0.489
-354.552	73.584	0.145	0.153
-353.537	432.013	0.242	0.528
-352.523	-34.682	0.182	-0.100
-351.508	-200.000	0.038	0.327
-350.493	-145.680	0.119	-0.011
-349.479	-19.395	-0.323	-0.201
-348.464	91.746	0.376	-0.426
-347.450	207.222	-0.143	-0.225
-346.435	-52.300	0.104	-0.048
-345.420	-60.135	-0.250	0.107
-344.406	-200.000	0.067	0.518
-343.391	-128.822	-0.402	-0.057
-342.377	255.514	-0.143	-0.246
-341.362	63.513	0.061	-0.061
-340.348	-148.210	0.347	-0.029
-339.333	-95.809	-0.129	0.035
-338.318	717.456	-0.027	-0.073
-337.304	-106.905	-0.324	-0.072
-336.289	-87.855	0.114	-0.034
-335.275	-10.221	-0.174	0.116
-334.260	-54.643	-0.381	-0.173
-333.245	-156.119	-0.256	-0.016
-332.231	462.057	0.068	0.153
-331.216	-200.000	0.005	0.052
-330.202	-18.827	0.353	0.221
-329.187	-83.249	0.316	0.102
-328.172	526.298	-0.041	0.098
-327.158	-200.000	-0.029	-0.209
-326.143	-30.793	-0.245	-0.139
-325.129	446.902	-0.112	0.248
-324.114	-187.213	0.164	-0.002
-323.099	-200.000	0.002	-0.324
-322.085	44.459	0.042	-0.039
-321.070	-58.397	-0.024	0.010
-320.056	110.016	0.219	-0.264
-319.041	-125.938	0.194	0.029
-318.026	800.000	-0.111	0.463
-317.012	-199.192	0.146	0.001
-315.997	115.303	0.163	0.200
-314.983	800.000	-0.138	0.404
-313.968	-152.917	0.133	0.009
-312.953	-11.627	0.169	0.112
-311.939	-30.707	-0.077	0.044
-310.924	-124.253	-0.275	-0.043
-309.910	-200.000	0.051	0.277
-308.895	75.814	0.277	-0.294
-307.880	120.712	-0.050	0.062
-306.866	-200.000	-0.012	-0.156
-305.851	172.524	-0.024	-0.035
-304.837	-118.830	0.094	0.017
-303.822	800.000	-0.030	0.097
-302.807	-200.000	0.013	0.064
-301.793	107.058	-0.082	0.098
-300.778	-96.891	0.157	-0.041
-299.764	-1.606	-0.315	-0.223
-298.749	-160.797	0.250	-0.013
-297.735	-75.913	-0.289	-0.103
-296.720	-195.506	0.388	0.003
-295.705	-99.169	0.197	-0.050
-294.691	-6.054	-0.209	-0.144
-293.676	-44.847	0.256	-0.128
-292.662	742.885	0.092	0.249
-291.647	-200.000	0.017	0.254
-290.632	800.000	0.069	-0.231
-289.618	-42.457	-0.127	0.065
-288.603	91.001	0.204	0.229
-287.589	-30.746	-0.251	0.142
-286.574	-82.768	0.077	-0.025
-285.559	127.556	0.227	0.289
-284.545	800.000	-0.132	0.390
-283.530	-99.851	-0.460	-0.115
-282.516	-15.546	-0.462	-0.296
-281.501	-200.000	-0.028	0.243
-280.486	-52.236	0.299	0.139
-279.472	172.976	0.061	0.088
-278.457	-200.000	0.036	-0.262
-277.443	-200.000	-0.018	0.417
-276.428	-200.000	-0.002	0.087
-275.413	727.819	0.023	-0.061
-274.399	-23.919	0.336	-0.202
-273.384	562.814	0.067	0.164
-272.370	-124.413	0.177	0.028
-271.355	248.834	0.133	-0.225
-270.340	129.724	-0.107	-0.137
-269.326	225.487	-0.194	-0.315
-268.311	32.113	-0.277	-0.240
-267.297	290.910	-0.145	0.264
-266.282	35.484	-0.240	0.212
-265.267	800.000	0.046	0.165
-264.253	29.470	-0.064	0.054
-263.238	-39.022	-0.271	-0.143
-262.224	-84.515	0.070	-0.022
-261.209	22.551	-0.145	-0.119
-260.195	-107.816	-0.216	-0.047
-259.180	276.118	-0.068	0.122
-258.165	10.088	0.213	-0.163
-257.151	-200.000	0.032	0.172
-256.136	137.895	0.064	0.083
-255.122	-130.515	0.162	-0.022
-254.107	-61.437	-0.023	0.010
-253.092	-200.000	-0.018	0.184
-252.078	-138.576	0.408	0.045
-251.063	-26.061	0.189	0.111
-250.049	714.234	0.064	0.171
-249.034	-99.074	0.404	0.103
-248.019	-200.000	-0.006	-0.131
-247.005	-38.746	0.222	0.118
-245.990	258.097	0.093	-0.160
-244.976	800.000	-0.015	-0.043
-243.961	371.140	0.129	-0.263
-242.946	-72.132	-0.146	0.054
-241.932	-200.000	-0.017	-0.166
-240.917	-70.739	-0.296	0.112
-239.903	-130.130	0.183	-0.025
-238.888	-88.108	-0.231	-0.069
-237.873	-61.983	-0.065	0.027
-236.859	-134.478	-0.216	0.027
-235.844	95.222	0.100	0.114
-234.830	380.498	0.176	0.360
-233.815	-200.000	-0.061	0.322
-232.800	305.848	-0.257	-0.478
-231.786	-75.194	-0.085	0.030
-230.771	-200.000	-0.087	0.411
-229.757	-32.544	-0.218	0.121
-228.742	-200.000	-0.029	-0.220
-227.727	719.741	-0.042	0.112
-226.713	137.993	-0.075	-0.098
-225.698	610.506	0.031	0.077
-224.684	-45.505	-0.079	-0.039
-223.669	570.448	-0.084	0.204
-222.655	-200.000	0.017	0.238
-221.640	49.799	-0.054	0.051
-220.625	92.564	0.105	0.119
-219.611	234.486	-0.084	0.139
-218.596	194.730	0.053	0.080
-217.582	194.018	-0.231	0.350
-216.567	-2.359	-0.062	-0.044
-215.552	-106.266	0.143	0.032
-214.538	45.538	0.160	-0.148
-213.523	33.509	-0.120	-0.105
-212.509	180.820	0.093	-0.136
-211.494	-200.000	-0.023	0.282
-210.479	169.733	-0.123	0.175
-209.465	-116.716	-0.123	0.023
-208.450	-120.685	0.385	0.065
-207.436	371.907	0.105	-0.213
-206.421	327.843	0.109	-0.209
-205.406	34.697	0.172	0.150
-204.392	-200.000	0.008	-0.109
-203.377	361.933	0.106	0.213
-202.363	130.745	0.096	0.123
-201.348	513.221	0.073	0.169
-200.333	-136.706	-0.342	-0.039
-199.319	2.057	0.374	-0.270
-198.304	38.411	-0.255	-0.227
-197.290	-85.402	0.128	0.040
-196.275	125.538	-0.156	-0.197
-195.260	800.000	0.089	0.382
-194.246	-200.000	-0.039	0.183
-193.231	-88.066	0.050	-0.015
-192.217	-60.985	-0.216	-0.091
-191.202	186.467	0.009	0.013
-190.187	168.077	0.121	0.173
-189.173	-200.000	-0.036	-0.201
-188.158	-200.000	0.001	0.076
-187.144	65.695	0.122	0.124
-186.129	-82.888	0.174	0.056
-185.114	-7.029	0.062	0.042
-184.100	-8.174	0.171	-0.115
-183.085	391.819	0.089	-0.185
-182.071	800.000	0.068	0.224
-181.056	-107.297	-0.130	-0.029
-180.042	47.774	0.109	0.102
-179.027	-94.582	-0.100	-0.027
-178.012	-200.000	-0.198	0.001
-176.998	800.000	0.090	-0.272
-175.983	-153.084	0.239	-0.017
-174.969	-69.407	0.211	-0.081
-173.954	-13.841	-0.130	0.084
-172.939	243.875	-0.145	0.244
-171.925	-45.168	0.225	-0.112
-170.910	-89.393	0.141	-0.041
-169.896	-69.380	-0.139	-0.053
-168.881	335.668	0.130	-0.252
-167.866	393.394	0.028	-0.058
-166.852	-200.000	-0.005	-0.035
-165.837	800.000	-0.081	0.283
-164.823	-9.396	-0.231	-0.154
-163.808	-200.000	0.016	-0.157
-162.793	126.201	0.157	0.198
-161.779	-94.293	0.233	0.064
-160.764	143.683	0.098	0.130
-159.750	800.000	-0.019	0.055
-158.735	-23.007	-0.222	-0.134
-157.720	-73.075	0.271	0.099
-156.706	-200.000	-0.004	-0.049
-155.691	138.068	-0.097	0.126
-154.677	77.664	0.241	0.256
-153.662	-37.451	0.024	0.013
-152.647	800.000	0.109	0.434
-151.633	-80.253	-0.068	0.023
-150.618	-167.757	-0.100	-0.004
-149.604	-200.000	0.048	0.493
-148.589	-132.223	0.196	0.025
-147.574	7.184	-0.087	-0.065
-146.560	-126.145	-0.108	-0.016
-145.545	544.116	-0.032	0.075
-144.531	-200.000	-0.017	-0.159
-143.516	-200.000	0.027	-0.162
-142.502	319.119	-0.103	0.195
-141.487	32.054	-0.121	0.104
-140.472	-200.000	0.061	0.520
-139.458	501.092	-0.098	-0.225
-138.443	17.765	0.129	-0.102
-137.429	126.056	0.069	-0.087
-136.414	800.000	-0.077	0.261
-135.399	-200.000	0.029	0.154
-134.385	143.250	-0.224	-0.297
-133.370	184.429	0.106	-0.157
-132.356	56.868	-0.149	0.145
-131.341	773.273	0.099	0.269
-130.326	-174.672	0.422	-0.012
-129.312	800.000	0.050	0.173
-128.297	-200.000	0.024	0.145
-127.283	154.562	-0.149	0.204
-126.268	600.950	-0.007	0.018
-125.253	800.000	0.044	0.172
-124.239	-152.548	0.115	0.008
-123.224	624.259	-0.040	0.100
-122.210	-28.707	0.217	-0.124
-121.195	-100.023	0.093	-0.023
-120.180	-200.000	-0.031	0.177
-119.166	430.154	-0.057	0.123
-118.151	-75.866	-0.238	0.084
-117.137	-22.512	-0.212	0.128
-116.122	-200.000	0.085	0.434
-115.107	633.737	0.082	0.208
-114.093	65.901	0.180	-0.182
-113.078	492.957	-0.058	-0.132
-112.064	-51.211	-0.177	0.083
-111.049	-7.126	0.047	0.032
-110.034	603.890	-0.164	-0.406
-109.020	-69.958	0.093	-0.035
-108.005	-200.000	-0.031	-0.304
-106.991	33.714	-0.257	-0.223
-105.976	-5.265	-0.096	-0.066
-104.962	-154.311	0.469	-0.031
-103.947	800.000	-0.051	0.194
-102.932	800.000	0.068	0.200
-101.918	-69.547	0.156	-0.060
-100.903	11.187	-0.201	-0.153
-99.889	-200.000	0.059	-0.313
-98.874	-200.000	-0.026	-0.155
-97.859	800.000	0.068	-0.205
-96.845	800.000	0.062	0.259
-95.830	339.887	-0.084	0.163
-94.816	-108.209	0.396	-0.085
-93.801	-124.974	-0.226	-0.035
-92.786	-87.971	-0.231	0.069
-91.772	-34.305	-0.207	-0.113
-90.757	-77.053	-0.189	0.066
-89.743	-200.000	-0.024	0.199
-88.728	-149.491	0.300	0.024
-87.713	-200.000	-0.013	0.234
-86.699	-200.000	0.019	0.340
-85.684	-170.173	0.516	-0.018
-84.670	-15.080	0.129	-0.082
-83.655	-200.000	-0.076	0.444
-82.640	-147.216	0.260	0.022
-81.626	-200.000	-0.052	-0.356
-80.611	-28.134	0.241	0.139
-79.597	800.000	-0.110	0.305
-78.582	665.343	-0.150	-0.386
-77.567	-131.537	-0.398	-0.052
-76.553	731.964	-0.124	-0.330
-75.538	-109.993	0.299	0.062
-74.524	-119.877	-0.144	-0.025
-73.509	479.998	-0.078	0.177
-72.494	253.673	0.081	0.138
-71.480	-12.171	-0.242	0.157
-70.465	265.259	-0.087	0.152
-69.451	-200.000	0.016	0.179
-68.436	800.000	0.122	0.442
-67.422	-200.000	0.000	0.189
-66.407	-67.365	0.086	0.034
-65.392	-21.001	-0.140	0.085
-64.378	73.696	0.077	-0.080
-63.363	69.462	0.274	0.281
-62.349	-200.000	-0.024	-0.111
-61.334	22.026	-1.023	-0.830
-60.319	13.384	0.558	0.430
-59.305	-200.000	0.022	-0.841
-58.290	341.689	0.409	0.795
-57.276	-200.000	0.117	1.725
-56.261	-200.000	96.472	574.159
-55.246	643.479	1383.620	3507.889
-54.232	184.045	2606.861	3835.944
-53.217	113.279	2337.577	2819.569
-52.203	41.660	2084.933	1877.672
-51.188	36.492	1997.923	1752.516
-50.173	34.992	1979.443	1722.748
-49.159	49.428	2030.766	1899.412
-48.144	52.463	2050.718	1945.700
-47.130	37.362	2007.495	1768.557
-46.115	34.816	1996.034	1735.310
-45.100	34.776	1993.188	1732.405
-44.086	34.825	1990.568	1730.502
-43.071	34.744	1987.817	1727.312
-42.057	34.625	1986.016	1724.607
-41.042	34.693	1984.549	1723.875
-40.027	34.735	1981.953	1721.935
-39.013	34.739	1979.724	1719.960
-37.998	34.763	1978.187	1718.772
-36.984	34.804	1976.423	1717.545
-35.969	34.820	1974.467	1715.916
-34.954	34.788	1972.383	1713.754
-33.940	34.879	1971.033	1713.328
-32.925	34.874	1969.707	1712.061
-31.911	34.913	1968.090	1710.933
-30.896	34.857	1965.903	1708.472
-29.881	34.839	1964.493	1707.014
-28.867	34.954	1962.258	1706.032
-27.852	34.935	1960.978	1704.684
-26.838	34.928	1959.104	1702.918
-25.823	34.934	1957.264	1701.311
-24.809	34.885	1955.666	1699.417
-23.794	34.884	1953.973	1697.871
-22.779	34.873	1952.266	1696.223
-21.765	34.852	1950.853	1694.736
-20.750	34.831	1949.107	1692.972
-19.736	34.899	1948.040	1692.573
-18.721	34.934	1945.776	1690.854
-17.706	34.871	1944.759	1689.346
-16.692	34.887	1942.602	1687.541
-15.677	34.877	1940.894	1685.904
-14.663	35.025	1938.938	1685.443
-13.648	34.943	1937.895	1683.747
-12.633	34.990	1936.791	1683.133
-11.619	34.976	1935.297	1681.643
-10.604	34.911	1934.390	1680.218
-9.590	34.845	1933.052	1678.413
-8.575	34.929	1931.332	1677.590
-7.560	34.859	1930.161	1675.889
-6.546	34.879	1928.578	1674.623
-5.531	34.831	1927.704	1673.380
-4.517	34.861	1926.332	1672.383
-3.502	34.937	1925.145	1671.951
-2.487	34.833	1924.529	1670.439
-1.473	34.858	1923.638	1669.824
-0.458	34.945	1919.256	1666.708
0.556	37.594	1898.256	1638.812
1.571	32.754	1877.934	1580.675
2.586	28.002	1898.596	1557.542
3.600	26.272	1933.768	1571.230
4.615	25.047	1927.140	1555.079
5.629	19.468	1826.144	1427.437
6.644	10.167	1706.553	1261.613
7.659	5.143	1668.337	1194.870
8.673	4.856	1664.856	1190.076
9.688	4.963	1663.038	1189.487
10.702	4.918	1662.046	1188.332
11.717	4.943	1658.940	1186.191
12.731	5.646	1659.846	1192.085
13.746	12.047	1674.931	1251.834
14.761	20.068	1691.680	1325.869
15.775	22.767	1694.648	1348.735
16.790	22.345	1692.598	1343.763
17.804	21.326	1689.369	1333.314
18.819	20.335	1686.347	1323.261
19.834	19.734	1683.717	1316.503
20.848	19.501	1682.452	1313.624
21.863	19.372	1681.233	1311.578
22.877	19.082	1680.112	1308.377
23.892	19.010	1678.132	1306.174
24.907	18.914	1677.431	1304.786
25.921	18.873	1676.915	1303.960
26.936	18.835	1675.762	1302.659
27.950	18.788	1675.129	1301.692
28.965	18.927	1673.894	1301.673
29.980	18.983	1673.499	1301.672
30.994	19.075	1672.463	1301.448
32.009	19.190	1670.978	1301.049
33.023	19.188	1670.329	1300.409
34.038	19.289	1669.392	1300.331
35.053	19.273	1668.295	1299.235
36.067	19.137	1666.890	1297.002
37.082	18.977	1665.895	1294.908
38.096	19.085	1664.808	1294.767
39.111	19.134	1663.907	1294.316
40.126	19.192	1663.307	1294.175
41.140	19.127	1662.549	1292.978
42.155	18.911	1661.076	1290.098
43.169	18.790	1658.949	1287.429
44.184	18.704	1657.628	1285.641
45.199	18.663	1656.984	1284.723
46.213	18.583	1656.107	1283.330
47.228	18.638	1654.934	1282.722
48.242	18.885	1653.512	1283.350
49.257	18.918	1653.151	1283.199
50.271	18.980	1651.610	1282.353
51.286	18.934	1650.728	1281.210
52.301	18.990	1649.100	1280.249
53.315	19.007	1647.479	1279.003
54.330	18.934	1646.173	1277.336
55.344	18.843	1644.109	1274.948
56.359	18.694	1643.116	1272.960
57.374	18.740	1641.939	1272.279
58.388	18.779	1640.491	1271.331
59.403	18.692	1639.282	1269.636
60.417	18.568	1637.847	1267.494
61.432	18.650	1636.874	1267.237
62.447	18.612	1635.609	1265.862
63.461	18.498	1634.389	1263.969
64.476	18.377	1633.131	1261.991
65.490	18.400	1632.208	1261.340
66.505	18.456	1630.522	1260.334
67.520	18.431	1630.071	1259.692
68.534	18.513	1628.974	1259.334
69.549	18.484	1628.320	1258.505
70.563	18.467	1626.892	1257.165
71.578	18.465	1625.468	1255.935
72.593	18.383	1624.454	1254.443
73.607	18.289	1623.700	1253.064
74.622	18.315	1622.140	1251.933
75.636	18.213	1621.818	1250.830
76.651	18.224	1620.855	1250.061
77.666	18.344	1619.808	1250.014
78.680	18.357	1618.866	1249.270
79.695	18.425	1618.312	1249.228
80.709	18.493	1617.803	1249.221
81.724	18.585	1616.659	1248.902
82.739	18.661	1615.985	1248.824
83.753	18.750	1614.868	1248.491
84.768	18.943	1614.235	1249.297
85.782	19.004	1614.189	1249.595
86.797	19.021	1613.277	1248.901
87.812	19.066	1612.405	1248.445
88.826	19.027	1611.201	1247.117
89.841	18.895	1610.001	1245.119
90.855	18.924	1608.799	1244.295
91.870	19.097	1607.941	1244.769
92.884	19.189	1606.936	1244.548
93.899	19.169	1605.499	1243.177
94.914	19.125	1604.781	1242.193
95.928	19.320	1602.673	1241.859
96.943	19.272	1602.505	1241.274
97.957	19.240	1600.453	1239.346
98.972	19.211	1599.000	1237.902
99.987	19.078	1597.606	1235.753
101.001	19.154	1595.597	1234.640
102.016	19.088	1594.369	1233.108
103.030	19.009	1593.678	1231.894
104.045	19.027	1592.814	1231.250
105.060	19.133	1591.034	1230.521
106.074	19.049	1589.372	1228.526
107.089	18.768	1588.144	1225.465
108.103	18.650	1585.729	1222.650
109.118	18.433	1584.589	1220.121
110.133	18.280	1583.998	1218.467
111.147	18.453	1581.772	1217.880
112.162	18.493	1580.336	1216.945
113.176	18.516	1579.133	1216.074
114.191	18.679	1577.392	1215.786
115.206	18.642	1576.706	1214.889
116.220	18.580	1575.689	1213.556
117.235	18.597	1574.396	1212.572
118.249	18.643	1573.110	1211.799
119.264	18.570	1571.886	1210.237
120.279	18.595	1570.385	1209.150
121.293	18.507	1568.933	1207.301
122.308	18.521	1566.797	1205.652
123.322	18.425	1565.229	1203.664
124.337	18.230	1564.118	1201.330
125.352	18.342	1562.746	1200.959
126.366	18.396	1561.131	1199.988
127.381	18.225	1560.540	1198.234
128.395	18.288	1559.352	1197.652
129.410	18.412	1557.971	1197.358
130.424	18.358	1556.585	1195.806
131.439	18.376	1555.575	1195.048
132.454	18.561	1553.705	1194.799
133.468	18.591	1552.698	1194.124
134.483	18.673	1551.178	1193.424
135.497	18.824	1549.582	1193.136
136.512	18.663	1548.963	1191.439
137.527	18.654	1547.379	1190.050
138.541	18.726	1546.399	1189.694
139.556	18.740	1544.892	1188.522
140.570	18.724	1543.974	1187.601
141.585	18.981	1542.301	1187.987
142.600	18.956	1541.603	1187.166
143.614	19.061	1540.410	1186.868
144.629	19.158	1538.977	1186.330
145.643	19.186	1537.864	1185.561
146.658	19.197	1536.326	1184.342
147.673	19.181	1534.688	1182.867
148.687	19.009	1533.316	1180.523
149.702	18.917	1531.544	1178.428
150.716	18.855	1529.921	1176.648
151.731	18.686	1529.123	1174.770
152.746	18.789	1527.268	1173.949
153.760	18.773	1525.850	1172.647
154.775	18.808	1524.548	1171.783
155.789	18.898	1523.915	1171.805
156.804	18.940	1522.791	1171.120
157.819	18.947	1521.759	1170.270
158.833	19.022	1520.499	1169.707
159.848	19.173	1519.238	1169.658
160.862	19.189	1518.396	1169.016
161.877	19.200	1517.166	1168.044
162.892	19.035	1515.955	1165.890
163.906	18.871	1513.804	1163.023
164.921	18.786	1512.554	1161.385
165.935	18.781	1511.966	1160.797
166.950	18.781	1510.915	1159.883
167.964	18.847	1510.033	1159.550
168.979	18.911	1509.037	1159.115
169.994	18.874	1507.660	1157.709
171.008	18.907	1506.560	1156.978
172.023	18.909	1505.700	1156.233
173.037	18.976	1504.533	1155.682
174.052	19.079	1503.432	1155.424
175.067	19.183	1502.488	1155.294
176.081	19.095	1501.266	1153.666
177.096	18.891	1499.341	1150.719
178.110	18.823	1497.880	1149.040
179.125	18.842	1497.139	1148.497
180.140	18.858	1496.221	1147.801
181.154	18.915	1495.450	1147.488
182.169	18.919	1494.761	1146.882
183.183	19.129	1492.998	1146.826
184.198	19.210	1492.353	1146.770
185.213	19.213	1491.404	1145.961
186.227	19.259	1490.188	1145.229
187.242	19.273	1489.472	1144.673
188.256	19.282	1488.614	1143.969
189.271	19.365	1487.494	1143.561
190.286	19.429	1486.191	1142.878
191.300	19.448	1485.029	1142.012
192.315	19.075	1483.479	1138.247
193.329	18.780	1481.923	1135.006
194.344	18.824	1480.539	1134.138
195.359	18.760	1480.463	1133.558
196.373	18.957	1479.279	1133.848
197.388	19.023	1478.649	1133.702
198.402	19.097	1477.109	1132.906
199.417	19.281	1476.301	1133.393
200.432	19.428	1475.624	1133.739
201.446	19.557	1475.018	1134.023
202.461	19.626	1473.865	1133.489
203.475	19.696	1472.826	1133.050
204.490	19.666	1471.917	1132.054
205.504	19.607	1470.962	1130.829
206.519	19.472	1469.236	1128.519
207.534	19.433	1467.913	1127.151
208.548	19.362	1466.778	1125.719
209.563	19.377	1465.821	1124.977
210.577	19.333	1465.116	1124.056
211.592	19.296	1464.142	1122.962
212.607	19.440	1463.261	1123.126
213.621	19.542	1462.811	1123.345
214.636	19.786	1461.517	1123.837
215.650	19.588	1461.054	1122.099
216.665	19.557	1459.906	1120.913
217.680	19.665	1458.816	1120.677
218.694	19.690	1458.886	1120.796
219.709	19.716	1458.310	1120.424
220.723	19.794	1456.890	1119.739
221.738	19.764	1455.639	1118.482
222.753	19.706	1455.113	1117.603
223.767	19.666	1453.949	1116.356
224.782	19.632	1453.288	1115.527
225.796	19.723	1452.331	1115.279
226.811	19.913	1451.121	1115.478
227.826	19.864	1450.543	1114.622
228.840	19.806	1450.017	1113.743
229.855	19.603	1448.931	1111.507
230.869	19.651	1448.067	1111.049
231.884	19.654	1446.476	1109.754
232.899	19.665	1445.323	1108.843
233.913	19.588	1444.046	1107.268
234.928	19.526	1442.396	1105.508
235.942	19.452	1441.669	1104.379
236.957	19.453	1440.324	1103.258
237.972	19.392	1438.737	1101.558
238.986	19.422	1437.852	1100.969
240.001	19.401	1437.082	1100.150
241.015	19.570	1435.903	1100.231
242.030	19.600	1434.992	1099.625
243.045	19.635	1434.179	1099.129
244.059	19.660	1433.319	1098.530
245.074	19.684	1432.960	1098.310
246.088	19.804	1431.614	1097.943
247.103	19.889	1431.320	1098.161
248.117	19.783	1430.805	1096.996
249.132	19.982	1429.635	1097.262
250.147	20.013	1429.120	1096.964
251.161	20.329	1428.457	1098.358
252.176	20.447	1428.593	1099.112
253.190	20.424	1428.143	1098.526
254.205	20.497	1427.201	1098.160
255.220	20.566	1426.005	1097.584
256.234	20.643	1425.033	1097.223
257.249	20.638	1424.206	1096.460
258.263	20.622	1423.307	1095.565
259.278	20.504	1422.646	1094.216
260.293	20.694	1421.448	1094.398
261.307	20.556	1421.091	1093.153
262.322	20.557	1420.422	1092.550
263.336	20.776	1419.018	1092.749
264.351	20.824	1418.236	1092.354
265.366	20.728	1417.318	1090.942
266.380	20.720	1416.454	1090.134
267.395	20.651	1416.004	1089.258
268.409	20.712	1415.128	1088.871
269.424	20.620	1413.680	1087.087
270.439	20.513	1412.486	1085.400
271.453	20.563	1411.627	1084.958
272.468	20.568	1410.172	1083.774
273.482	20.463	1409.541	1082.540
274.497	20.476	1408.476	1081.706
275.512	20.525	1407.530	1081.187
276.526	20.430	1407.144	1080.206
277.541	20.446	1406.016	1079.346
278.555	20.343	1405.671	1078.347
279.570	20.442	1404.609	1078.047
280.585	20.665	1403.323	1078.350
281.599	20.754	1402.781	1078.386
282.614	20.745	1402.083	1077.699
283.628	20.738	1400.347	1076.228
284.643	20.549	1399.442	1074.270
285.657	20.592	1398.718	1073.887
286.672	20.581	1397.627	1072.882
287.687	20.564	1396.796	1072.044
288.701	20.631	1395.689	1071.515
289.716	20.631	1394.806	1070.743
290.730	20.705	1394.033	1070.511
291.745	20.724	1392.792	1069.577
292.760	20.662	1392.220	1068.664
293.774	20.727	1391.212	1068.193
294.789	20.816	1390.304	1067.951
295.803	20.832	1389.618	1067.423
296.818	20.924	1388.737	1067.220
297.833	20.861	1387.643	1065.897
298.847	20.676	1386.617	1063.882
299.862	20.596	1385.985	1062.814
300.876	20.605	1385.057	1062.065
301.891	20.776	1383.784	1062.034
302.906	20.750	1383.367	1061.464
303.920	20.915	1382.733	1061.888
304.935	20.975	1382.099	1061.673
305.949	21.103	1381.079	1061.573
306.964	21.186	1380.421	1061.483
307.979	21.232	1379.225	1060.746
308.993	21.119	1378.336	1059.281
310.008	20.995	1377.637	1057.899
311.022	21.013	1376.676	1057.177
312.037	21.080	1375.771	1056.794
313.052	21.076	1374.756	1055.896
314.066	21.079	1373.627	1054.955
315.081	20.948	1372.664	1053.331
316.095	20.843	1370.991	1051.319
317.110	20.829	1369.933	1050.331
318.125	20.745	1368.564	1048.682
319.139	20.751	1368.290	1048.418
320.154	20.749	1366.949	1047.282
321.168	20.871	1365.777	1047.024
322.183	20.850	1365.276	1046.423
323.197	20.831	1364.432	1045.572
324.212	20.918	1363.723	1045.454
325.227	20.906	1362.769	1044.557
326.241	20.936	1361.826	1043.923
327.256	20.970	1361.068	1043.453
328.270	20.962	1360.057	1042.538
329.285	20.930	1359.257	1041.642
330.300	20.962	1358.364	1041.057
331.314	20.915	1357.285	1039.859
332.329	20.960	1356.382	1039.345
333.343	20.911	1355.593	1038.354
334.358	20.985	1354.915	1038.184
335.373	21.029	1354.288	1037.871
336.387	21.109	1353.303	1037.502
337.402	21.154	1352.717	1037.229
338.416	21.137	1352.271	1036.695
339.431	21.182	1351.714	1036.441
340.446	21.246	1350.987	1036.172
341.460	21.435	1349.683	1036.199
342.475	21.506	1349.035	1036.031
343.489	21.598	1348.534	1036.099
344.504	21.698	1347.559	1035.852
345.519	21.695	1346.310	1034.782
346.533	21.635	1345.759	1033.911
347.548	21.805	1344.916	1034.173
348.562	21.891	1343.834	1033.756
349.577	21.848	1343.216	1032.938
350.592	21.686	1342.902	1031.652
351.606	21.507	1341.493	1029.426
352.621	21.362	1339.778	1027.164
353.635	21.288	1338.879	1025.952
354.650	21.282	1337.930	1025.095
355.665	21.189	1336.965	1023.723
356.679	21.396	1336.073	1024.159
357.694	21.406	1334.820	1023.170
358.708	21.355	1334.109	1022.234
359.723	21.549	1332.708	1022.202
360.738	21.557	1331.894	1021.534
361.752	21.605	1331.032	1021.063
362.767	21.626	1329.624	1020.014
363.781	21.595	1328.834	1019.138
364.796	21.568	1328.356	1018.528
365.810	21.680	1327.816	1018.673
366.825	21.814	1327.005	1018.737
367.840	21.895	1326.677	1018.869
368.854	21.988	1325.708	1018.572
369.869	22.089	1325.350	1018.791
370.883	22.099	1324.741	1018.295
371.898	22.043	1323.895	1017.226
372.913	22.059	1322.787	1016.378
373.927	21.908	1321.993	1014.808
374.942	21.903	1321.123	1014.019
375.956	22.085	1320.308	1014.355
376.971	22.127	1319.831	1014.139
377.986	21.953	1319.065	1012.459
379.000	21.974	1317.799	1011.519
380.015	22.088	1317.317	1011.719
381.029	22.132	1316.916	1011.572
382.044	22.235	1316.494	1011.751
383.059	22.300	1315.563	1011.317
384.073	22.186	1314.821	1010.005
385.088	22.135	1314.010	1009.000
386.102	22.285	1312.674	1008.747
387.117	22.211	1312.534	1008.123
388.132	22.158	1311.651	1007.051
389.146	22.028	1310.685	1005.479
390.161	21.976	1309.622	1004.274
391.175	21.969	1309.158	1003.793
392.190	21.981	1308.282	1003.100
393.205	21.914	1307.477	1002.012
394.219	22.159	1306.494	1002.569
395.234	22.194	1305.565	1001.964
396.248	22.213	1304.115	1000.873
397.263	22.073	1302.529	998.767
398.278	22.071	1301.461	997.849
399.292	21.907	1300.555	996.139
400.307	21.868	1298.979	994.620
401.321	21.851	1297.815	993.546
402.336	21.893	1296.695	992.839
403.350	21.873	1295.791	991.943
404.365	21.829	1294.989	990.995
405.380	21.821	1294.031	990.129
406.394	22.001	1293.091	990.336
407.409	22.027	1292.644	990.051
408.423	22.004	1292.798	989.956
409.438	22.205	1291.842	990.266
410.453	22.307	1291.298	990.336
411.467	22.398	1290.410	990.077
412.482	22.427	1290.415	990.161
413.496	22.515	1289.575	989.920
414.511	22.526	1288.857	989.342
415.526	22.605	1288.361	989.321
416.540	22.545	1287.468	988.210
417.555	22.742	1286.517	988.493
418.569	22.775	1286.143	988.308
419.584	22.671	1285.630	987.240
420.599	22.600	1285.033	986.297
421.613	143.738	1430.964	1788.216
422.628	138.693	1452.206	1788.333
