DTS Sentinel unit serial number:	SN413079Multiplexer serial number:	ORYXHardware model number:	OX4-SRSoftware version number:	ORYX F/W v4.00 Oryx Data Collector v3.7.2.0data status	okinstallation	princeton_trtdifferential loss correction	single-endedforward channel	channel 4reverse channel	N/Adate	2019/09/19time	10:37:34forward acquisition time	60.00reverse acquisition time	0.00gamma	496.2192k internal	0.2328k external	0.2328temperature offset calibration	1.0015default loss term (dB/km)	0.3790temperature slope calibration	1.0000multiplexer offset coefficient	1.0000multiplexer slope coefficient	1.0000fibre end	0.00T internal ref (°C)	24.50T ext. ref 1 (°C)	0.72T ext. ref 2 (°C)	20.01length (m)	temperature (°C)	Stokes	anti-Stokes-747.200	364.258	-0.074	0.150
-746.185	-200.000	-0.035	0.226
-745.171	-200.000	-0.009	-0.127
-744.156	29.177	-0.084	0.072
-743.142	800.000	-0.040	0.129
-742.127	135.020	0.158	-0.207
-741.112	-44.882	0.059	0.029
-740.098	58.752	0.142	0.141
-739.083	-54.802	0.397	0.180
-738.069	-200.000	0.031	0.257
-737.054	429.651	-0.117	-0.255
-736.039	-200.000	-0.015	-0.342
-735.025	800.000	-0.052	0.222
-734.010	558.978	-0.057	0.139
-732.996	101.236	-0.179	-0.210
-731.981	-35.220	-0.317	0.174
-730.966	237.552	-0.104	0.174
-729.952	-74.167	0.196	-0.071
-728.937	140.566	-0.071	0.095
-727.923	48.023	-0.117	-0.110
-726.908	-91.431	0.217	-0.062
-725.894	800.000	-0.041	-0.162
-724.879	117.976	-0.111	0.138
-723.864	435.662	0.153	-0.334
-722.850	796.289	-0.165	-0.457
-721.835	311.497	0.117	-0.221
-720.821	-8.265	0.160	0.109
-719.806	-61.529	-0.141	0.060
-718.791	800.000	0.086	-0.278
-717.777	-200.000	0.004	-0.043
-716.762	-64.338	0.098	0.040
-715.748	-89.054	-0.244	-0.073
-714.733	183.115	-0.130	-0.194
-713.718	-85.131	-0.524	-0.165
-712.704	-83.916	-0.245	-0.079
-711.689	-200.000	0.026	0.239
-710.675	800.000	-0.057	0.213
-709.660	-34.448	0.204	0.112
-708.645	-200.000	0.043	-0.218
-707.631	426.115	-0.037	0.081
-706.616	-174.423	0.099	-0.003
-705.602	19.576	0.073	0.059
-704.587	277.384	-0.055	-0.098
-703.572	797.629	-0.074	0.204
-702.558	-200.000	-0.025	-0.217
-701.543	558.219	-0.113	0.273
-700.529	270.802	0.032	0.057
-699.514	13.720	-0.174	0.136
-698.499	-66.582	-0.137	0.054
-697.485	133.552	0.138	0.180
-696.470	100.012	-0.293	0.342
-695.456	482.286	0.061	-0.140
-694.441	-56.319	-0.081	-0.036
-693.426	-18.905	0.146	0.092
-692.412	-128.961	-0.241	-0.034
-691.397	-101.885	-0.286	0.070
-690.383	800.000	0.018	-0.065
-689.368	168.099	0.128	-0.183
-688.354	88.173	0.200	0.223
-687.339	-200.000	0.013	-0.063
-686.324	53.446	0.087	0.084
-685.310	800.000	-0.004	0.018
-684.295	-20.136	0.098	0.061
-683.281	-66.284	0.153	-0.061
-682.266	800.000	-0.065	-0.223
-681.251	800.000	0.076	0.309
-680.237	-83.197	0.143	-0.046
-679.222	-140.480	-0.298	-0.031
-678.208	800.000	-0.096	0.385
-677.193	-93.141	-0.228	0.064
-676.178	80.399	-0.027	-0.029
-675.164	800.000	-0.024	-0.105
-674.149	309.492	0.021	0.040
-673.135	800.000	0.111	-0.320
-672.120	10.184	-0.137	0.105
-671.105	800.000	-0.037	0.146
-670.091	-77.545	-0.153	0.053
-669.076	-108.151	-0.306	0.066
-668.062	-85.827	0.075	-0.023
-667.047	34.181	-0.341	-0.299
-666.032	602.379	0.082	0.204
-665.018	33.525	-0.072	0.063
-664.003	-36.450	0.367	-0.199
-662.989	-61.090	-0.060	-0.026
-661.974	2.641	0.021	-0.015
-660.959	-43.171	-0.255	-0.129
-659.945	-91.423	0.132	-0.038
-658.930	353.743	-0.036	-0.071
-657.916	302.378	0.024	0.044
-656.901	154.562	0.035	0.048
-655.886	800.000	-0.093	0.365
-654.872	-145.446	-0.345	0.031
-653.857	800.000	0.061	0.209
-652.843	-200.000	-0.024	0.157
-651.828	800.000	0.029	0.095
-650.814	-7.026	-0.140	-0.095
-649.799	-122.612	0.174	0.028
-648.784	101.326	0.192	-0.225
-647.770	9.938	-0.188	0.143
-646.755	159.949	-0.168	0.235
-645.741	-41.533	0.051	-0.026
-644.726	-86.108	-0.240	-0.074
-643.711	216.666	-0.212	-0.339
-642.697	-20.762	-0.260	0.160
-641.682	-62.656	-0.239	-0.100
-640.668	800.000	-0.068	-0.268
-639.653	-200.000	0.041	-0.379
-638.638	578.558	-0.120	-0.295
-637.624	800.000	0.140	-0.435
-636.609	125.239	-0.038	0.048
-635.595	46.912	0.148	0.138
-634.580	-63.486	0.247	0.102
-633.565	-165.108	0.507	-0.023
-632.551	-200.000	0.022	-0.104
-631.536	-107.947	-0.421	0.092
-630.522	-106.540	-0.535	0.120
-629.507	-105.279	-0.122	0.028
-628.492	252.351	0.268	-0.459
-627.478	-161.756	-0.274	-0.014
-626.463	29.639	0.098	0.084
-625.449	165.238	-0.144	0.204
-624.434	-84.729	0.102	-0.032
-623.419	800.000	-0.063	0.196
-622.405	590.634	0.012	-0.029
-621.390	18.710	-0.172	0.138
-620.376	356.184	-0.086	0.173
-619.361	-200.000	0.014	-0.103
-618.346	-102.260	-0.373	-0.090
-617.332	-65.968	0.135	-0.054
-616.317	-94.825	-0.212	-0.058
-615.303	-200.000	0.013	0.092
-614.288	-50.678	0.218	-0.103
-613.273	308.242	-0.057	-0.107
-612.259	8.711	-0.074	0.056
-611.244	-127.534	-0.210	-0.031
-610.230	116.218	-0.181	-0.222
-609.215	800.000	0.038	0.156
-608.201	-19.157	-0.198	0.123
-607.186	800.000	0.033	-0.144
-606.171	800.000	-0.118	-0.364
-605.157	-25.299	0.345	-0.205
-604.142	-73.608	-0.073	0.027
-603.128	-84.612	-0.174	-0.055
-602.113	349.617	0.062	0.124
-601.098	135.390	0.109	-0.143
-600.084	-51.340	0.223	-0.105
-599.069	136.787	-0.180	0.236
-598.055	-60.120	0.252	0.108
-597.040	-200.000	-0.005	-0.077
-596.025	800.000	-0.085	-0.254
-595.011	-85.319	0.253	-0.079
-593.996	-120.971	0.123	0.021
-592.982	-200.000	-0.024	0.168
-591.967	-106.786	0.238	0.053
-590.952	652.260	-0.036	-0.092
-589.938	0.574	0.050	-0.036
-588.923	-77.590	0.243	0.084
-587.909	-91.639	0.005	-0.002
-586.894	293.958	0.066	0.122
-585.879	800.000	-0.020	-0.081
-584.865	170.730	-0.081	-0.117
-583.850	-200.000	-0.027	0.122
-582.836	1.885	0.155	0.112
-581.821	-124.973	-0.154	0.024
-580.806	-55.206	0.164	0.074
-579.792	764.638	-0.058	-0.159
-578.777	-200.000	-0.026	0.187
-577.763	-69.787	-0.530	-0.203
-576.748	281.094	-0.125	0.224
-575.733	-54.562	0.257	0.116
-574.719	-89.532	-0.568	-0.167
-573.704	213.210	0.140	-0.222
-572.690	-62.871	0.234	0.097
-571.675	454.676	-0.138	-0.305
-570.661	-61.970	-0.158	-0.066
-569.646	204.441	-0.058	-0.089
-568.631	-175.863	0.309	0.008
-567.617	-30.004	0.142	-0.081
-566.602	-21.866	0.383	-0.233
-565.588	336.616	0.101	-0.196
-564.573	178.397	-0.179	0.262
-563.558	126.258	-0.144	-0.182
-562.544	-3.711	-0.122	-0.085
-561.529	800.000	-0.079	-0.331
-560.515	388.608	-0.111	-0.230
-559.500	407.567	-0.016	-0.034
-558.485	9.856	-0.359	0.272
-557.471	800.000	-0.078	-0.288
-556.456	-147.855	-0.148	0.012
-555.442	800.000	-0.072	0.233
-554.427	-24.462	0.271	-0.162
-553.412	-40.208	0.275	-0.143
-552.398	-200.000	0.000	0.060
-551.383	-169.794	-0.257	0.009
-550.369	-122.281	0.248	0.041
-549.354	-22.712	-0.157	0.095
-548.339	116.670	0.239	0.293
-547.325	-100.497	0.062	0.015
-546.310	433.060	-0.060	-0.129
-545.296	403.883	-0.072	0.153
-544.281	165.063	-0.019	-0.027
-543.266	800.000	-0.036	-0.129
-542.252	372.585	0.128	-0.259
-541.237	760.122	-0.100	-0.271
-540.223	631.215	0.139	-0.353
-539.208	800.000	-0.055	0.221
-538.193	-71.770	-0.341	0.127
-537.179	11.563	0.252	-0.194
-536.164	53.830	-0.204	0.196
-535.150	584.489	-0.110	0.271
-534.135	-182.747	-0.134	-0.002
-533.121	800.000	0.070	0.238
-532.106	-195.217	-0.421	-0.003
-531.091	-102.032	-0.332	-0.080
-530.077	117.431	-0.017	-0.021
-529.062	-74.895	0.126	-0.045
-528.048	-79.881	-0.029	0.010
-527.033	11.532	0.516	-0.396
-526.018	-27.645	-0.026	-0.015
-525.004	-145.144	-0.351	-0.032
-523.989	800.000	0.025	-0.077
-522.975	-17.579	-0.148	0.093
-521.960	-4.187	0.247	0.171
-520.945	61.163	0.068	0.068
-519.931	106.065	-0.169	-0.199
-518.916	70.132	0.040	0.041
-517.902	-191.793	0.518	-0.005
-516.887	139.792	-0.159	0.209
-515.872	482.195	-0.196	-0.446
-514.858	-200.000	-0.008	0.169
-513.843	98.209	-0.132	0.152
-512.829	399.138	0.220	0.460
-511.814	-66.035	-0.109	-0.044
-510.799	87.352	-0.254	-0.281
-509.785	33.662	0.101	-0.088
-508.770	-200.000	0.025	-0.210
-507.756	-52.534	-0.254	0.117
-506.741	-16.765	-0.273	0.172
-505.726	-200.000	0.046	0.485
-504.712	-42.449	0.300	0.153
-503.697	-51.306	0.323	-0.151
-502.683	-86.896	-0.097	-0.030
-501.668	-93.373	-0.174	-0.048
-500.653	-10.591	-0.166	0.110
-499.639	87.168	0.301	-0.332
-498.624	-58.799	0.267	-0.115
-497.610	-133.821	0.100	0.012
-496.595	-200.000	-0.060	-0.419
-495.581	-125.633	0.220	0.033
-494.566	800.000	-0.029	-0.082
-493.551	-113.722	0.151	-0.029
-492.537	-120.227	-0.042	-0.007
-491.522	2.059	0.215	-0.155
-490.508	64.268	0.144	-0.145
-489.493	-120.209	-0.480	-0.082
-488.478	-18.115	-0.139	-0.087
-487.464	-2.709	-0.474	-0.330
-486.449	-29.635	-0.184	-0.105
-485.435	-200.000	-0.070	-0.319
-484.420	66.371	-0.125	0.127
-483.405	430.121	0.140	-0.301
-482.391	250.256	-0.177	-0.300
-481.376	50.297	0.147	-0.139
-480.362	-200.000	0.009	-0.348
-479.347	800.000	-0.046	-0.153
-478.332	279.903	-0.108	-0.193
-477.318	-200.000	0.038	0.228
-476.303	-200.000	0.000	0.053
-475.289	-132.486	0.234	-0.030
-474.274	-147.983	0.221	-0.018
-473.259	-77.439	-0.033	0.011
-472.245	165.338	-0.050	-0.070
-471.230	293.849	0.032	-0.058
-470.216	-200.000	0.001	-0.078
-469.201	-107.881	0.116	-0.025
-468.186	-170.543	0.165	-0.006
-467.172	800.000	0.155	0.628
-466.157	155.283	-0.115	0.158
-465.143	266.915	-0.069	0.120
-464.128	-116.046	-0.202	-0.037
-463.113	-156.371	-0.432	0.027
-462.099	61.732	-0.030	0.030
-461.084	280.151	-0.218	-0.388
-460.070	197.510	-0.192	0.292
-459.055	-83.783	-0.074	-0.024
-458.040	-57.434	0.362	0.158
-457.026	-56.788	0.278	-0.123
-456.011	-43.147	0.120	0.061
-454.997	-111.149	0.392	-0.080
-453.982	-200.000	0.010	-0.058
-452.968	27.395	-0.222	-0.186
-451.953	341.763	0.104	0.203
-450.938	-59.129	0.097	0.042
-449.924	-121.047	-0.081	0.014
-448.909	137.166	0.209	0.272
-447.895	-153.740	0.283	-0.019
-446.880	253.167	-0.081	0.137
-445.865	800.000	-0.019	0.054
-444.851	-21.779	-0.136	-0.083
-443.836	-97.995	0.176	-0.045
-442.822	49.277	0.065	0.061
-441.807	17.817	0.194	-0.154
-440.792	587.672	-0.152	0.374
-439.778	82.336	-0.152	0.164
-438.763	-126.025	-0.191	-0.029
-437.749	-158.175	-0.212	0.012
-436.734	-200.000	0.009	-0.323
-435.719	-85.498	-0.276	-0.085
-434.705	374.460	0.039	-0.079
-433.690	800.000	0.080	-0.305
-432.676	-144.501	-0.233	0.021
-431.661	800.000	-0.123	0.341
-430.646	-39.971	0.351	0.182
-429.632	-154.700	0.151	0.010
-428.617	800.000	-0.067	0.210
-427.603	-61.279	-0.188	0.079
-426.588	-200.000	0.020	-0.153
-425.573	-93.669	-0.300	-0.083
-424.559	211.399	0.119	-0.186
-423.544	-200.000	0.024	0.228
-422.530	-50.238	0.398	0.187
-421.515	330.837	-0.112	0.215
-420.500	692.866	0.054	0.141
-419.486	-141.300	-0.263	-0.027
-418.471	43.435	0.150	0.137
-417.457	-72.138	0.112	-0.041
-416.442	-78.065	0.328	0.112
-415.428	-67.291	0.250	0.098
-414.413	-70.188	-0.248	-0.094
-413.398	46.320	-0.157	-0.145
-412.384	800.000	0.040	0.148
-411.369	221.013	-0.083	-0.132
-410.355	46.362	-0.206	-0.190
-409.340	-200.000	-0.048	0.429
-408.325	153.356	0.199	0.271
-407.311	704.734	-0.024	-0.063
-406.296	800.000	0.044	0.173
-405.282	-119.849	-0.111	-0.019
-404.267	95.475	0.170	-0.193
-403.252	-100.888	-0.208	0.051
-402.238	195.236	-0.092	0.140
-401.223	-75.779	0.045	-0.016
-400.209	93.344	-0.153	-0.172
-399.194	-184.802	0.220	-0.003
-398.179	-117.900	-0.200	-0.036
-397.165	20.868	-0.290	0.234
-396.150	-46.412	0.052	0.025
-395.136	-65.529	0.198	0.079
-394.121	-200.000	0.002	0.113
-393.106	157.319	0.159	-0.219
-392.092	-99.436	-0.121	-0.030
-391.077	-95.239	0.106	0.028
-390.063	-150.483	0.217	-0.017
-389.048	338.261	0.105	-0.203
-388.033	-200.000	-0.012	-0.252
-387.019	-136.011	-0.289	0.034
-386.004	-137.638	-0.285	-0.032
-384.990	16.162	0.243	-0.190
-383.975	79.489	0.276	-0.294
-382.960	34.923	0.027	0.023
-381.946	-31.198	-0.152	0.085
-380.931	-44.047	0.158	-0.079
-379.917	324.518	0.235	-0.445
-378.902	-97.637	-0.145	0.037
-377.888	-200.000	-0.087	-0.508
-376.873	302.869	-0.137	-0.252
-375.858	-135.948	-0.075	-0.009
-374.844	-81.218	0.339	-0.111
-373.829	-123.460	0.341	0.054
-372.815	307.493	-0.101	0.188
-371.800	-120.815	-0.168	-0.028
-370.785	236.304	-0.088	-0.145
-369.771	-137.256	0.202	0.023
-368.756	62.229	0.106	-0.105
-367.742	55.861	0.125	-0.120
-366.727	-13.833	0.242	0.155
-365.712	200.587	0.145	0.221
-364.698	-39.953	-0.238	-0.123
-363.683	-90.802	0.224	0.064
-362.669	-200.000	-0.028	-0.242
-361.654	326.139	-0.309	0.588
-360.639	-200.000	0.062	0.310
-359.625	-14.241	-0.140	-0.090
-358.610	-141.380	0.183	-0.018
-357.596	-121.181	0.244	0.041
-356.581	-11.384	0.107	0.070
-355.566	169.481	0.037	-0.052
-354.552	-108.917	0.306	0.065
-353.537	800.000	-0.015	0.065
-352.523	69.778	-0.170	0.174
-351.508	-151.783	0.105	0.008
-350.493	-200.000	-0.010	-0.065
-349.479	800.000	0.091	0.276
-348.464	-105.724	-0.237	0.053
-347.450	-7.461	0.018	0.012
-346.435	800.000	0.082	-0.339
-345.420	333.540	0.054	-0.104
-344.406	89.402	-0.118	0.131
-343.391	800.000	0.003	-0.009
-342.377	-59.703	0.198	0.084
-341.362	-200.000	0.039	0.514
-340.348	-16.710	0.077	-0.048
-339.333	178.872	-0.172	0.249
-338.318	207.419	0.180	-0.279
-337.304	-26.880	-0.289	-0.168
-336.289	120.778	-0.072	-0.088
-335.275	120.547	-0.118	-0.145
-334.260	227.365	0.131	0.211
-333.245	-99.360	-0.187	0.047
-332.231	-163.170	-0.331	-0.016
-331.216	19.617	0.095	0.075
-330.202	100.274	0.055	-0.063
-329.187	800.000	0.077	0.265
-328.172	287.418	0.067	-0.120
-327.158	644.659	-0.108	-0.272
-326.143	-110.055	-0.213	0.044
-325.129	-159.019	-0.263	0.015
-324.114	259.439	-0.047	0.081
-323.099	665.084	0.090	0.231
-322.085	46.928	-0.356	0.329
-321.070	-42.987	-0.184	-0.093
-320.056	-195.712	0.032	-0.000
-319.041	-200.000	0.006	-0.206
-318.026	44.264	-0.238	0.217
-317.012	-18.619	0.258	0.159
-315.997	79.636	0.171	-0.182
-314.983	-200.000	-0.012	0.098
-313.968	-165.723	0.244	0.010
-312.953	457.485	-0.086	0.189
-311.939	-66.461	0.082	0.032
-310.924	-90.365	-0.056	0.016
-309.910	-195.909	0.180	-0.001
-308.895	780.930	-0.019	-0.053
-307.880	78.467	-0.138	-0.146
-306.866	31.655	0.125	-0.106
-305.851	13.461	0.330	0.253
-304.837	-200.000	0.010	-0.057
-303.822	196.608	-0.176	0.265
-302.807	-86.344	-0.127	-0.039
-301.793	47.327	0.130	0.120
-300.778	102.727	0.039	-0.045
-299.764	33.188	0.115	0.099
-298.749	-200.000	-0.006	0.135
-297.735	-166.302	-0.144	0.006
-296.720	-29.461	-0.113	0.064
-295.705	18.270	-0.092	0.073
-294.691	-106.881	0.148	0.032
-293.676	800.000	0.141	0.559
-292.662	258.327	0.148	0.252
-291.647	-200.000	-0.033	0.321
-290.632	800.000	-0.059	-0.173
-289.618	283.043	-0.098	-0.173
-288.603	-60.127	-0.175	0.074
-287.589	61.913	0.060	-0.059
-286.574	-39.000	-0.211	0.110
-285.559	108.248	-0.164	-0.193
-284.545	-14.314	0.022	0.014
-283.530	-55.294	0.301	-0.134
-282.516	255.613	0.081	0.137
-281.501	6.318	-0.024	0.018
-280.486	-102.562	-0.233	-0.055
-279.472	-95.255	0.102	-0.027
-278.457	-154.405	0.438	-0.029
-277.443	800.000	-0.120	0.483
-276.428	-134.818	-0.194	0.023
-275.413	312.246	0.046	0.086
-274.399	71.521	0.108	0.111
-273.384	-83.548	0.196	0.062
-272.370	710.953	-0.039	-0.103
-271.355	-200.000	-0.028	0.314
-270.340	-200.000	0.002	0.141
-269.326	-200.000	-0.022	0.159
-268.311	-133.318	-0.235	0.029
-267.297	-200.000	0.002	-0.253
-266.282	800.000	0.023	0.090
-265.267	326.385	-0.114	0.216
-264.253	-200.000	-0.023	-0.246
-263.238	-76.352	-0.446	-0.155
-262.224	176.862	-0.072	0.104
-261.209	5.518	0.268	-0.196
-260.195	-197.181	-0.227	0.001
-259.180	124.680	-0.130	-0.162
-258.165	-26.947	-0.156	-0.090
-257.151	-10.331	-0.201	-0.132
-256.136	-173.639	-0.087	-0.003
-255.122	62.169	0.126	0.124
-254.107	18.435	0.167	-0.132
-253.092	-42.156	0.322	0.163
-252.078	800.000	-0.058	0.168
-251.063	-35.601	-0.128	0.069
-250.049	-163.256	-0.434	0.021
-249.034	-93.160	-0.210	0.058
-248.019	70.056	-0.318	0.324
-247.005	81.981	0.338	0.362
-245.990	-200.000	-0.041	0.220
-244.976	132.806	0.052	-0.067
-243.961	15.955	0.165	-0.129
-242.946	740.556	-0.113	-0.301
-241.932	-149.624	-0.398	-0.031
-240.917	-167.064	-0.238	-0.010
-239.903	214.441	-0.090	0.141
-238.888	-63.283	-0.171	0.070
-237.873	197.415	0.082	-0.124
-236.859	-178.511	0.133	-0.003
-235.844	-77.734	0.277	-0.094
-234.830	46.686	-0.155	-0.142
-233.815	-53.673	-0.514	0.232
-232.800	-76.837	0.029	0.010
-231.786	800.000	-0.105	0.376
-230.771	-104.507	0.169	0.039
-229.757	91.059	-0.217	-0.240
-228.742	800.000	-0.034	0.112
-227.727	251.320	0.130	-0.218
-226.713	-92.191	0.221	0.062
-225.698	800.000	-0.064	0.190
-224.684	-150.402	0.331	0.025
-223.669	61.675	-0.183	-0.180
-222.655	-152.018	0.506	0.036
-221.640	16.176	0.048	-0.037
-220.625	555.545	-0.002	0.004
-219.611	82.998	-0.173	0.186
-218.596	95.607	0.127	0.143
-217.582	75.624	0.089	-0.093
-216.567	-137.098	0.315	-0.036
-215.552	209.423	0.063	0.097
-214.538	240.299	-0.101	0.167
-213.523	-102.795	-0.094	-0.022
-212.509	800.000	-0.109	-0.300
-211.494	-200.000	0.002	-0.230
-210.479	-35.988	0.348	-0.186
-209.465	-85.477	-0.204	0.063
-208.450	-152.277	0.583	0.042
-207.436	14.034	0.203	0.156
-206.421	191.314	-0.067	0.099
-205.406	-77.037	-0.084	-0.029
-204.392	-7.026	0.079	0.053
-203.377	-200.000	-0.118	0.532
-202.363	1.937	-0.260	0.185
-201.348	-63.966	0.216	-0.087
-200.333	-200.000	-0.009	-0.159
-199.319	115.915	0.200	0.242
-198.304	22.889	-0.200	0.161
-197.290	-43.419	-0.132	-0.066
-196.275	-26.533	-0.268	-0.155
-195.260	-47.424	0.193	-0.093
-194.246	-110.072	0.338	0.070
-193.231	800.000	-0.025	0.088
-192.217	-171.776	-0.204	0.007
-191.202	-177.439	0.439	0.011
-190.187	-200.000	0.063	0.643
-189.173	-4.485	0.130	-0.089
-188.158	315.267	-0.132	0.246
-187.144	-108.848	0.335	-0.071
-186.129	-46.015	-0.090	-0.044
-185.114	-200.000	0.046	0.215
-184.100	-90.469	0.039	-0.011
-183.085	342.039	0.111	0.213
-182.071	194.222	0.037	-0.055
-181.056	-127.845	0.253	-0.036
-180.042	12.913	0.028	-0.021
-179.027	-148.095	0.242	-0.020
-178.012	-14.495	-0.320	0.203
-176.998	57.515	-0.265	-0.255
-175.983	-200.000	-0.041	-0.201
-174.969	38.161	-0.104	0.091
-173.954	46.748	-0.097	0.089
-172.939	-200.000	0.010	0.166
-171.925	-142.146	0.524	-0.051
-170.910	66.522	0.140	-0.141
-169.896	-106.128	-0.035	0.008
-168.881	800.000	-0.077	-0.251
-167.866	-71.337	0.404	0.149
-166.852	-177.278	-0.101	0.002
-165.837	800.000	0.045	0.124
-164.823	-5.600	0.160	-0.108
-163.808	-200.000	0.012	-0.131
-162.793	-23.249	0.152	-0.090
-161.779	800.000	-0.108	0.326
-160.764	8.874	0.170	-0.126
-159.750	665.153	-0.077	0.196
-158.735	-59.142	0.230	0.097
-157.720	58.424	0.073	0.070
-156.706	-112.366	0.274	-0.054
-155.691	800.000	0.126	-0.378
-154.677	460.262	-0.042	-0.092
-153.662	107.179	0.106	-0.124
-152.647	-200.000	-0.035	-0.346
-151.633	20.644	0.148	-0.118
-150.618	-200.000	-0.048	0.370
-149.604	-72.146	0.044	0.016
-148.589	-35.888	-0.339	-0.181
-147.574	-200.000	0.008	0.065
-146.560	18.280	0.200	0.157
-145.545	-18.880	-0.267	-0.164
-144.531	-30.796	0.089	0.049
-143.516	-76.766	0.180	0.062
-142.502	-50.315	-0.144	-0.067
-141.487	-68.872	0.182	0.069
-140.472	290.589	0.034	-0.061
-139.458	-50.210	0.058	-0.027
-138.443	800.000	0.007	0.019
-137.429	-200.000	0.018	-0.232
-136.414	-200.000	0.044	-0.253
-135.399	-182.384	0.249	-0.005
-134.385	90.035	0.323	0.355
-133.370	-60.224	0.358	0.150
-132.356	-108.696	0.263	-0.055
-131.341	70.017	-0.121	0.123
-130.326	-38.849	0.356	-0.185
-129.312	-161.607	0.122	0.006
-128.297	26.408	0.202	-0.166
-127.283	70.405	-0.119	0.121
-126.268	-12.235	-0.262	-0.169
-125.253	-21.020	0.223	-0.135
-124.239	285.752	0.082	0.146
-123.224	-111.740	-0.367	0.073
-122.210	-141.988	-0.211	0.021
-121.195	213.169	0.197	0.306
-120.180	-171.498	0.092	-0.003
-119.166	319.209	-0.073	0.136
-118.151	-200.000	-0.001	0.057
-117.137	-76.700	-0.207	0.071
-116.122	-168.555	0.203	-0.008
-115.107	-45.993	-0.049	0.024
-114.093	28.590	-0.254	0.211
-113.078	-39.527	0.198	-0.102
-112.064	67.058	-0.229	-0.230
-111.049	84.121	-0.151	-0.162
-110.034	507.718	0.134	-0.305
-109.020	800.000	-0.168	-0.469
-108.005	-110.295	0.278	-0.057
-106.991	-139.337	0.189	0.020
-105.976	-200.000	0.042	-0.227
-104.962	59.906	0.129	-0.125
-103.947	-46.778	-0.069	-0.033
-102.932	471.394	0.088	0.194
-101.918	-167.219	0.132	-0.005
-100.903	22.774	-0.117	-0.094
-99.889	-3.268	-0.336	-0.230
-98.874	134.215	-0.172	-0.219
-97.859	-93.684	0.270	0.073
-96.845	-6.405	0.121	0.081
-95.830	91.387	-0.183	0.202
-94.816	-200.000	0.024	0.120
-93.801	-160.322	-0.262	0.014
-92.786	58.889	0.011	0.011
-91.772	-173.171	-0.524	-0.016
-90.757	201.565	0.043	0.065
-89.743	302.840	0.017	-0.031
-88.728	-47.338	0.285	0.136
-87.713	136.477	-0.018	-0.023
-86.699	81.392	0.155	-0.165
-85.684	88.156	0.285	-0.311
-84.670	-112.719	0.142	0.028
-83.655	-191.206	-0.108	-0.001
-82.640	2.804	0.124	0.088
-81.626	800.000	0.091	-0.360
-80.611	273.535	0.055	-0.096
-79.597	264.232	0.224	0.383
-78.582	198.918	0.059	-0.089
-77.567	800.000	0.139	0.408
-76.553	33.802	-0.138	-0.118
-75.538	7.692	-0.336	0.247
-74.524	541.386	-0.102	-0.238
-73.509	196.677	0.202	-0.302
-72.494	100.114	-0.179	-0.203
-71.480	-36.921	0.078	0.041
-70.465	-104.826	0.128	0.029
-69.451	-58.294	0.417	0.178
-68.436	-143.287	-0.238	-0.022
-67.422	-14.888	0.199	0.125
-66.407	243.218	-0.010	0.017
-65.392	-172.576	-0.386	0.012
-64.378	-149.731	0.185	0.014
-63.363	320.158	0.250	-0.465
-62.349	6.900	-0.180	-0.132
-61.334	108.132	-1.091	-1.276
-60.319	44.574	0.568	0.513
-59.305	733.830	-0.515	-1.351
-58.290	477.096	0.586	1.301
-57.276	800.000	0.536	1.485
-56.261	-200.000	121.620	622.562
-55.246	380.680	1578.384	3176.216
-54.232	136.565	2759.894	3533.366
-53.217	86.424	2363.063	2555.100
-52.203	30.946	2103.210	1767.905
-51.188	26.217	2017.360	1652.524
-50.173	24.932	2001.018	1627.402
-49.159	41.575	2069.450	1837.862
-48.144	40.392	2084.225	1839.926
-47.130	26.657	2036.892	1672.315
-46.115	24.587	2024.928	1643.409
-45.100	24.503	2022.128	1640.303
-44.086	24.358	2020.571	1637.640
-43.071	24.389	2017.928	1635.719
-42.057	24.379	2015.162	1633.315
-41.042	24.381	2013.805	1632.176
-40.027	24.398	2011.848	1630.680
-39.013	24.501	2009.369	1629.543
-37.998	24.328	2008.295	1627.033
-36.984	24.381	2006.324	1625.849
-35.969	24.396	2004.157	1624.165
-34.954	24.376	2002.979	1622.965
-33.940	24.430	2001.242	1621.987
-32.925	24.457	1999.739	1620.944
-31.911	24.462	1997.856	1619.404
-30.896	24.491	1996.254	1618.298
-29.881	24.605	1994.579	1617.911
-28.867	24.589	1993.509	1616.831
-27.852	24.491	1992.023	1614.680
-26.838	24.561	1989.861	1613.493
-25.823	24.519	1987.897	1611.464
-24.809	24.549	1985.791	1609.961
-23.794	24.593	1983.951	1608.799
-22.779	24.594	1982.197	1607.326
-21.765	24.544	1980.694	1605.594
-20.750	24.592	1978.821	1604.439
-19.736	24.534	1977.723	1602.969
-18.721	24.534	1976.106	1601.590
-17.706	24.569	1974.304	1600.380
-16.692	24.562	1972.523	1598.811
-15.677	24.518	1971.128	1597.222
-14.663	24.542	1969.576	1596.115
-13.648	24.564	1968.137	1595.080
-12.633	24.506	1966.963	1593.551
-11.619	24.456	1966.073	1592.321
-10.604	24.482	1964.418	1591.152
-9.590	24.471	1963.528	1590.267
-8.575	24.535	1962.110	1589.624
-7.560	24.476	1960.601	1587.818
-6.546	24.471	1959.288	1586.644
-5.531	24.559	1958.058	1586.367
-4.517	24.637	1956.078	1585.391
-3.502	24.488	1955.875	1583.843
-2.487	24.603	1954.014	1583.289
-1.473	24.560	1953.148	1582.148
-0.458	24.580	1948.427	1578.437
0.556	23.381	1929.177	1552.285
1.571	19.293	1910.973	1501.958
2.586	15.579	1933.897	1487.021
3.600	14.485	1970.737	1505.345
4.615	14.469	1964.148	1500.037
5.629	11.512	1862.458	1396.990
6.644	4.794	1746.298	1255.706
7.659	1.069	1712.853	1202.035
8.673	0.755	1709.838	1197.329
9.688	0.730	1708.664	1196.205
10.702	0.784	1706.897	1195.285
11.717	0.611	1703.321	1191.314
12.731	1.041	1701.754	1193.503
13.746	6.050	1712.971	1240.902
14.761	12.938	1727.171	1305.774
15.775	16.600	1732.531	1338.740
16.790	17.104	1732.970	1342.951
17.804	16.200	1729.964	1333.362
18.819	15.305	1726.559	1323.552
19.834	14.828	1723.359	1317.229
20.848	14.474	1722.580	1313.725
21.863	14.203	1720.606	1309.969
22.877	13.959	1719.205	1306.870
23.892	13.790	1717.501	1304.127
24.907	13.548	1716.073	1301.028
25.921	13.639	1715.231	1300.987
26.936	13.575	1714.530	1299.843
27.950	13.649	1713.506	1299.529
28.965	13.639	1712.970	1298.931
29.980	13.698	1712.569	1298.977
30.994	13.762	1711.336	1298.421
32.009	13.758	1710.409	1297.578
33.023	13.746	1709.351	1296.560
34.038	13.860	1708.235	1296.494
35.053	13.760	1707.648	1295.148
36.067	13.719	1706.442	1293.802
37.082	13.728	1704.946	1292.627
38.096	13.708	1703.895	1291.556
39.111	13.707	1704.051	1291.549
40.126	13.794	1702.591	1291.007
41.140	13.714	1701.637	1289.553
42.155	13.657	1700.017	1287.767
43.169	13.552	1699.019	1286.081
44.184	13.560	1697.816	1285.117
45.199	13.591	1696.400	1284.173
46.213	13.591	1695.553	1283.419
47.228	13.594	1694.246	1282.336
48.242	13.586	1693.080	1281.280
49.257	13.650	1691.918	1280.781
50.271	13.686	1690.278	1279.701
51.286	13.647	1689.159	1278.445
52.301	13.634	1687.721	1277.143
53.315	13.613	1686.575	1276.003
54.330	13.612	1684.667	1274.439
55.344	13.666	1682.966	1273.450
56.359	13.562	1681.703	1271.589
57.374	13.569	1680.362	1270.514
58.388	13.586	1679.412	1269.815
59.403	13.545	1678.016	1268.327
60.417	13.491	1676.894	1266.958
61.432	13.533	1675.313	1265.974
62.447	13.648	1674.069	1265.796
63.461	13.535	1673.017	1264.026
64.476	13.584	1671.800	1263.368
65.490	13.459	1670.841	1261.580
66.505	13.403	1669.817	1260.266
67.520	13.490	1668.751	1260.013
68.534	13.524	1667.323	1259.083
69.549	13.526	1666.111	1258.073
70.563	13.541	1664.666	1256.983
71.578	13.522	1663.588	1255.914
72.593	13.542	1662.326	1255.006
73.607	13.543	1661.206	1254.054
74.622	13.475	1660.067	1252.570
75.636	13.468	1659.138	1251.703
76.651	13.426	1658.552	1250.829
77.666	13.577	1656.861	1250.583
78.680	13.479	1656.829	1249.714
79.695	13.493	1655.614	1248.789
80.709	13.460	1654.141	1247.323
81.724	13.443	1653.833	1246.852
82.739	13.522	1652.321	1246.193
83.753	13.572	1651.159	1245.586
84.768	13.632	1649.976	1245.029
85.782	13.616	1649.405	1244.372
86.797	13.736	1648.304	1244.332
87.812	13.662	1647.732	1243.232
88.826	13.596	1646.207	1241.476
89.841	13.651	1644.560	1240.535
90.855	13.569	1644.112	1239.473
91.870	13.650	1642.698	1238.905
92.884	13.636	1641.850	1238.049
93.899	13.604	1641.235	1237.243
94.914	13.689	1639.760	1236.650
95.928	13.642	1638.932	1235.568
96.943	13.703	1637.322	1234.697
97.957	13.777	1635.454	1233.730
98.972	13.708	1634.270	1232.218
99.987	13.641	1632.908	1230.583
101.001	13.728	1631.054	1229.723
102.016	13.649	1629.675	1227.986
103.030	13.678	1627.970	1226.812
104.045	13.690	1626.628	1225.781
105.060	13.689	1625.608	1224.893
106.074	13.617	1624.080	1223.106
107.089	13.619	1622.531	1221.844
108.103	13.588	1620.896	1220.279
109.118	13.649	1619.484	1219.553
110.133	13.514	1618.399	1217.636
111.147	13.607	1616.479	1216.765
112.162	13.625	1615.248	1215.865
113.176	13.604	1614.027	1214.685
114.191	13.597	1612.464	1213.351
115.206	13.636	1611.212	1212.583
116.220	13.690	1609.902	1211.888
117.235	13.736	1608.182	1210.823
118.249	13.644	1607.738	1209.707
119.264	13.649	1606.045	1208.364
120.279	13.662	1604.807	1207.419
121.293	13.613	1603.305	1205.830
122.308	13.593	1602.135	1204.691
123.322	13.562	1600.397	1203.057
124.337	13.640	1598.356	1201.978
125.352	13.644	1597.208	1201.041
126.366	13.553	1596.044	1199.403
127.381	13.629	1595.024	1199.080
128.395	13.562	1594.367	1197.994
129.410	13.593	1592.393	1196.624
130.424	13.609	1591.020	1195.605
131.439	13.607	1589.660	1194.462
132.454	13.618	1588.224	1193.358
133.468	13.707	1587.090	1193.038
134.483	13.743	1585.062	1191.671
135.497	13.725	1583.949	1190.594
136.512	13.683	1582.491	1189.098
137.527	13.762	1581.001	1188.438
138.541	13.691	1580.105	1187.145
139.556	13.733	1578.499	1186.137
140.570	13.668	1576.861	1184.341
141.585	13.760	1575.666	1183.993
142.600	13.807	1574.165	1183.096
143.614	13.911	1573.116	1182.945
144.629	13.884	1571.971	1181.787
145.643	13.874	1570.308	1180.362
146.658	13.900	1568.933	1179.402
147.673	13.889	1567.416	1178.085
148.687	13.878	1566.150	1176.952
149.702	13.884	1564.480	1175.633
150.716	13.804	1563.240	1174.030
151.731	13.876	1561.636	1173.232
152.746	13.756	1560.367	1171.328
153.760	13.911	1558.799	1171.141
154.775	13.794	1558.070	1169.661
155.789	13.846	1556.927	1169.067
156.804	13.929	1555.134	1168.205
157.819	14.018	1553.742	1167.678
158.833	13.936	1552.549	1166.099
159.848	13.975	1551.347	1165.371
160.862	13.959	1550.688	1164.662
161.877	13.992	1549.219	1163.686
162.892	14.006	1547.740	1162.570
163.906	13.951	1546.763	1161.344
164.921	14.004	1544.945	1160.251
165.935	14.002	1544.212	1159.580
166.950	13.950	1543.435	1158.533
167.964	13.918	1541.945	1157.088
168.979	14.045	1540.614	1156.873
169.994	14.015	1539.874	1156.005
171.008	13.944	1539.127	1154.847
172.023	14.125	1537.304	1154.639
173.037	14.030	1536.268	1153.095
174.052	14.162	1535.060	1153.005
175.067	14.080	1534.543	1151.942
176.081	14.084	1533.640	1151.195
177.096	14.003	1531.853	1149.191
178.110	14.037	1530.187	1148.070
179.125	14.028	1529.201	1147.169
180.140	14.077	1528.096	1146.576
181.154	14.113	1526.994	1145.898
182.169	14.089	1525.893	1144.806
183.183	14.149	1524.709	1144.229
184.198	14.162	1523.620	1143.399
185.213	14.144	1522.866	1142.605
186.227	14.197	1521.615	1141.930
187.242	14.242	1520.380	1141.209
188.256	14.313	1519.661	1141.059
189.271	14.256	1518.308	1139.547
190.286	14.256	1517.561	1138.889
191.300	14.266	1515.979	1137.666
192.315	14.252	1514.411	1136.296
193.329	14.084	1513.414	1134.298
194.344	14.063	1512.466	1133.347
195.359	14.216	1511.366	1133.462
196.373	14.142	1510.456	1132.176
197.388	14.255	1509.608	1132.210
198.402	14.360	1507.849	1131.504
199.417	14.323	1506.581	1130.205
200.432	14.446	1505.792	1130.342
201.446	14.488	1504.905	1129.865
202.461	14.474	1503.879	1128.899
203.475	14.520	1502.862	1128.348
204.490	14.520	1501.571	1127.281
205.504	14.565	1500.122	1126.397
206.519	14.510	1499.688	1125.594
207.534	14.464	1498.099	1123.992
208.548	14.481	1496.717	1122.974
209.563	14.551	1495.771	1122.635
210.577	14.461	1495.070	1121.402
211.592	14.502	1494.014	1120.785
212.607	14.528	1493.197	1120.251
213.621	14.600	1492.718	1120.277
214.636	14.569	1491.490	1119.050
215.650	14.605	1490.482	1118.432
216.665	14.548	1490.155	1117.705
217.680	14.549	1489.159	1116.865
218.694	14.736	1488.211	1117.307
219.709	14.639	1487.374	1115.932
220.723	14.662	1486.027	1114.979
221.738	14.658	1485.034	1114.106
222.753	14.724	1484.043	1113.707
223.767	14.664	1483.119	1112.514
224.782	14.791	1481.812	1112.278
225.796	14.765	1480.852	1111.289
226.811	14.779	1479.960	1110.616
227.826	14.757	1479.412	1109.958
228.840	14.762	1478.360	1109.101
229.855	14.793	1477.401	1108.492
230.869	14.839	1476.552	1108.062
231.884	14.855	1475.474	1107.258
232.899	14.846	1474.385	1106.283
233.913	14.839	1472.969	1105.078
234.928	14.784	1472.188	1104.031
235.942	14.701	1471.095	1102.568
236.957	14.749	1469.938	1101.916
237.972	14.766	1468.478	1100.838
238.986	14.758	1467.380	1099.866
240.001	14.838	1466.538	1099.663
241.015	14.970	1465.091	1099.350
242.030	14.877	1464.350	1098.085
243.045	14.968	1463.202	1097.724
244.059	14.923	1462.468	1096.780
245.074	14.916	1461.500	1095.909
246.088	15.005	1460.672	1095.776
247.103	14.951	1459.921	1094.764
248.117	15.027	1458.705	1094.248
249.132	15.102	1457.821	1093.981
250.147	15.065	1457.815	1093.636
251.161	15.153	1456.597	1093.203
252.176	15.210	1455.594	1092.725
253.190	15.263	1455.203	1092.676
254.205	15.177	1454.606	1091.575
255.220	15.296	1453.496	1091.420
256.234	15.276	1452.734	1090.619
257.249	15.309	1451.743	1089.996
258.263	15.338	1450.852	1089.414
259.278	15.363	1449.589	1088.536
260.293	15.295	1449.036	1087.583
261.307	15.395	1447.852	1087.244
262.322	15.428	1447.714	1087.259
263.336	15.377	1446.876	1086.201
264.351	15.390	1445.631	1085.257
265.366	15.429	1444.749	1084.751
266.380	15.448	1443.835	1084.094
267.395	15.381	1442.896	1082.857
268.409	15.512	1441.845	1082.820
269.424	15.554	1440.952	1082.324
270.439	15.529	1439.680	1081.108
271.453	15.547	1438.515	1080.257
272.468	15.530	1438.071	1079.717
273.482	15.468	1437.276	1078.624
274.497	15.505	1436.283	1078.023
275.512	15.535	1435.249	1077.346
276.526	15.427	1435.021	1076.382
277.541	15.523	1433.620	1075.853
278.555	15.654	1432.289	1075.596
279.570	15.685	1431.429	1075.054
280.585	15.506	1430.981	1073.481
281.599	15.666	1429.775	1073.501
282.614	15.608	1428.686	1072.221
283.628	15.714	1427.971	1072.261
284.643	15.599	1427.128	1070.801
285.657	15.742	1425.280	1070.233
286.672	15.674	1424.668	1069.247
287.687	15.770	1423.802	1069.109
288.701	15.780	1422.455	1068.065
289.716	15.682	1422.082	1067.072
290.730	15.777	1421.165	1066.889
291.745	15.672	1420.159	1065.379
292.760	15.738	1419.232	1065.002
293.774	15.758	1418.130	1064.208
294.789	15.851	1417.130	1063.953
295.803	15.879	1416.302	1063.415
296.818	15.799	1415.500	1062.216
297.833	15.872	1414.394	1061.749
298.847	15.914	1413.151	1060.988
299.862	15.883	1412.257	1060.027
300.876	15.821	1412.172	1059.478
301.891	15.872	1410.647	1058.564
302.906	15.963	1409.941	1058.510
303.920	16.002	1409.312	1058.190
304.935	15.902	1408.744	1057.042
305.949	16.012	1407.739	1056.886
306.964	16.127	1406.500	1056.582
307.979	16.098	1405.518	1055.569
308.993	16.068	1404.840	1054.779
310.008	16.087	1403.928	1054.120
311.022	16.166	1402.714	1053.609
312.037	16.219	1401.622	1053.025
313.052	16.195	1400.427	1051.883
314.066	16.194	1399.728	1051.260
315.081	16.132	1398.311	1049.717
316.095	16.105	1397.872	1049.124
317.110	16.186	1396.292	1048.351
318.125	16.119	1395.845	1047.503
319.139	16.163	1395.034	1047.077
320.154	16.138	1393.696	1045.826
321.168	16.111	1392.699	1044.816
322.183	16.132	1391.706	1044.110
323.197	16.202	1390.555	1043.588
324.212	16.165	1389.963	1042.824
325.227	16.207	1389.155	1042.386
326.241	16.171	1388.181	1041.337
327.256	16.281	1387.454	1041.378
328.270	16.218	1386.424	1040.123
329.285	16.255	1385.604	1039.648
330.300	16.222	1384.879	1038.806
331.314	16.278	1383.803	1038.250
332.329	16.225	1383.015	1037.242
333.343	16.199	1382.242	1036.412
334.358	16.286	1381.164	1036.048
335.373	16.315	1380.163	1035.378
336.387	16.402	1379.649	1035.437
337.402	16.364	1378.529	1034.274
338.416	16.475	1377.572	1034.145
339.431	16.433	1377.235	1033.542
340.446	16.491	1376.578	1033.311
341.460	16.464	1375.577	1032.303
342.475	16.512	1374.516	1031.709
343.489	16.577	1373.308	1031.106
344.504	16.484	1373.056	1030.258
345.519	16.669	1371.592	1030.195
346.533	16.712	1370.302	1029.399
347.548	16.678	1369.638	1028.604
348.562	16.600	1368.993	1027.554
349.577	16.616	1368.095	1026.881
350.592	16.718	1367.223	1026.758
351.606	16.668	1366.526	1025.842
352.621	16.709	1365.244	1025.035
353.635	16.681	1364.125	1023.935
354.650	16.712	1363.093	1023.254
355.665	16.614	1362.611	1022.212
356.679	16.668	1361.392	1021.532
357.694	16.689	1360.281	1020.737
358.708	16.724	1358.929	1019.844
359.723	16.692	1358.057	1018.903
360.738	16.839	1357.264	1019.105
361.752	16.855	1355.705	1017.938
362.767	16.773	1354.607	1016.530
363.781	16.769	1353.709	1015.744
364.796	16.746	1353.294	1015.207
365.810	16.756	1352.777	1014.788
366.825	16.901	1351.519	1014.625
367.840	16.992	1351.112	1014.773
368.854	16.969	1350.353	1013.974
369.869	16.983	1349.821	1013.566
370.883	16.984	1349.141	1012.975
371.898	17.030	1347.863	1012.200
372.913	16.896	1347.747	1011.220
373.927	17.007	1346.575	1010.915
374.942	16.931	1345.592	1009.635
375.956	17.003	1344.684	1009.291
376.971	17.035	1344.045	1008.917
377.986	17.071	1342.772	1008.083
379.000	17.071	1342.169	1007.539
380.015	17.147	1341.404	1007.329
381.029	17.214	1340.350	1006.848
382.044	17.146	1340.221	1006.255
383.059	17.244	1338.970	1005.808
384.073	17.188	1338.571	1005.090
385.088	17.184	1338.269	1004.749
386.102	17.118	1337.682	1003.830
387.117	17.296	1336.476	1003.885
388.132	17.238	1335.746	1002.906
389.146	17.271	1335.082	1002.516
390.161	17.167	1334.077	1001.057
391.175	17.270	1333.381	1001.056
392.190	17.239	1332.442	1000.076
393.205	17.236	1331.489	999.257
394.219	17.325	1330.865	999.222
395.234	17.322	1329.626	998.188
396.248	17.326	1328.403	997.204
397.263	17.304	1326.909	995.863
398.278	17.371	1325.167	994.860
399.292	17.385	1324.501	994.355
400.307	17.385	1323.316	993.377
401.321	17.281	1322.594	992.140
402.336	17.341	1321.529	991.607
403.350	17.297	1320.169	990.240
404.365	17.304	1319.279	989.524
405.380	17.340	1318.658	989.182
406.394	17.413	1317.779	988.860
407.409	17.498	1317.056	988.721
408.423	17.516	1316.005	987.950
409.438	17.550	1315.339	987.563
410.453	17.584	1314.741	987.220
411.467	17.642	1313.867	986.811
412.482	17.539	1313.852	986.119
413.496	17.682	1312.638	985.945
414.511	17.682	1311.954	985.344
415.526	17.662	1310.926	984.369
416.540	17.746	1310.241	984.252
417.555	17.764	1309.625	983.808
418.569	17.726	1308.977	983.014
419.584	17.742	1308.359	982.558
420.599	17.714	1308.019	982.050
421.613	99.458	1361.432	1486.012
422.628	97.922	1369.146	1486.085
