DTS Sentinel unit serial number:	SN413079Multiplexer serial number:	ORYXHardware model number:	OX4-SRSoftware version number:	ORYX F/W v4.00 Oryx Data Collector v3.7.2.0data status	okinstallation	princeton_trtdifferential loss correction	single-endedforward channel	channel 4reverse channel	N/Adate	2019/09/15time	04:25:35forward acquisition time	60.00reverse acquisition time	0.00gamma	496.2192k internal	0.2310k external	0.2310temperature offset calibration	1.0029default loss term (dB/km)	0.3790temperature slope calibration	1.0000multiplexer offset coefficient	1.0000multiplexer slope coefficient	1.0000fibre end	0.00T internal ref (°C)	30.87T ext. ref 1 (°C)	4.63T ext. ref 2 (°C)	25.56length (m)	temperature (°C)	Stokes	anti-Stokes-747.200	-97.315	-0.263	-0.070
-746.185	-200.000	-0.011	0.255
-745.171	-170.819	-0.130	0.005
-744.156	118.924	-0.085	0.107
-743.142	-138.977	0.306	-0.034
-742.127	86.313	0.188	0.210
-741.112	800.000	-0.038	0.114
-740.098	241.333	0.120	0.204
-739.083	68.393	0.139	0.144
-738.069	513.031	-0.033	0.078
-737.054	63.327	-0.057	-0.058
-736.039	800.000	0.104	0.354
-735.025	161.109	0.190	0.269
-734.010	-12.192	-0.096	0.064
-732.996	-200.000	-0.014	0.113
-731.981	-135.920	-0.208	0.025
-730.966	-53.375	0.328	0.153
-729.952	-73.021	0.222	0.083
-728.937	-200.000	-0.018	-0.223
-727.923	-71.021	0.018	0.007
-726.908	-1.389	-0.264	0.189
-725.894	-99.624	-0.134	0.034
-724.879	-34.065	-0.159	-0.089
-723.864	237.826	0.047	-0.078
-722.850	-200.000	0.011	-0.053
-721.835	190.477	0.137	-0.208
-720.821	-200.000	0.006	-0.135
-719.806	-96.899	-0.174	-0.046
-718.791	800.000	0.064	-0.251
-717.777	-35.446	-0.210	-0.116
-716.762	-200.000	-0.017	0.196
-715.748	-200.000	0.013	0.334
-714.733	-200.000	0.047	0.256
-713.718	782.663	-0.046	-0.127
-712.704	10.732	-0.188	-0.146
-711.689	-94.916	-0.080	-0.022
-710.675	-50.094	0.438	-0.210
-709.660	111.989	0.172	-0.211
-708.645	114.872	-0.010	-0.012
-707.631	-132.606	-0.177	-0.023
-706.616	-105.183	0.100	-0.023
-705.602	-2.797	-0.096	-0.068
-704.587	800.000	-0.056	-0.241
-703.572	-89.267	0.165	-0.049
-702.558	209.995	-0.063	0.101
-701.543	9.044	-0.287	-0.220
-700.529	46.624	-0.167	0.157
-699.514	-200.000	-0.039	0.264
-698.499	113.024	0.168	0.207
-697.485	800.000	-0.071	-0.283
-696.470	87.391	0.355	-0.398
-695.456	-146.864	-0.248	-0.022
-694.441	-12.085	-0.181	-0.120
-693.426	286.787	0.247	0.453
-692.412	659.803	-0.097	0.252
-691.397	205.155	-0.109	-0.172
-690.383	-129.570	0.388	0.054
-689.368	-43.155	0.027	0.014
-688.354	-83.100	0.318	-0.104
-687.339	800.000	-0.063	-0.186
-686.324	31.170	-0.118	-0.103
-685.310	800.000	-0.101	-0.346
-684.295	-160.103	0.098	0.005
-683.281	31.850	-0.171	-0.149
-682.266	-65.917	-0.051	-0.021
-681.251	322.236	0.024	0.046
-680.237	70.745	0.131	-0.137
-679.222	-42.075	-0.412	-0.213
-678.208	21.743	-0.245	-0.202
-677.193	407.141	-0.030	-0.064
-676.178	-9.144	-0.093	-0.063
-675.164	800.000	0.054	-0.233
-674.149	-142.051	-0.088	-0.009
-673.135	232.995	-0.114	0.190
-672.120	-84.548	0.275	-0.088
-671.105	-22.685	-0.302	0.185
-670.091	-200.000	-0.001	-0.203
-669.076	-200.000	-0.013	0.200
-668.062	-200.000	0.070	-0.411
-667.047	20.010	0.096	0.079
-666.032	580.730	0.061	-0.151
-665.018	-200.000	-0.009	0.041
-664.003	-10.923	0.115	-0.077
-662.989	-200.000	-0.016	-0.135
-661.974	777.188	-0.053	-0.147
-660.959	-19.121	-0.217	0.136
-659.945	232.109	0.044	-0.074
-658.930	-110.097	0.240	-0.051
-657.916	-11.405	-0.046	-0.031
-656.901	59.077	-0.174	0.173
-655.886	-120.324	0.295	0.051
-654.872	151.339	0.074	-0.102
-653.857	-160.103	-0.255	0.014
-652.843	-8.042	-0.131	-0.089
-651.828	-200.000	0.021	0.161
-650.814	470.222	-0.082	-0.187
-649.799	-79.932	0.306	0.104
-648.784	108.952	-0.149	-0.180
-647.770	-142.063	-0.197	0.020
-646.755	139.006	-0.036	-0.048
-645.741	-116.279	-0.178	0.033
-644.726	-122.499	0.290	-0.048
-643.711	800.000	-0.035	-0.146
-642.697	-129.809	-0.310	0.043
-641.682	445.964	-0.129	-0.286
-640.668	-200.000	-0.006	-0.171
-639.653	-28.928	-0.140	-0.082
-638.638	800.000	0.028	-0.095
-637.624	-28.568	-0.242	-0.141
-636.609	800.000	-0.110	-0.328
-635.595	126.896	-0.164	0.210
-634.580	46.430	-0.215	-0.201
-633.565	-38.578	0.284	0.152
-632.551	-200.000	-0.014	0.204
-631.536	-200.000	0.038	0.287
-630.522	-122.568	0.191	-0.031
-629.507	349.967	-0.176	-0.352
-628.492	800.000	-0.111	-0.313
-627.478	165.024	0.104	0.148
-626.463	82.487	-0.177	0.194
-625.449	-119.001	-0.258	0.046
-624.434	-114.733	-0.342	0.066
-623.419	800.000	-0.090	-0.387
-622.405	-104.887	-0.162	0.038
-621.390	81.827	-0.292	0.320
-620.376	-81.249	-0.043	0.014
-619.361	-106.466	0.221	0.050
-618.346	44.365	-0.152	0.141
-617.332	-200.000	0.016	0.208
-616.317	-130.924	-0.232	-0.031
-615.303	-73.726	0.264	0.097
-614.288	-96.611	0.404	0.107
-613.273	-22.144	-0.209	0.128
-612.259	-32.163	0.098	-0.055
-611.244	-200.000	-0.022	-0.168
-610.230	-200.000	0.019	0.191
-609.215	-53.973	0.268	-0.123
-608.201	-200.000	0.089	0.421
-607.186	776.456	0.036	-0.100
-606.171	-97.924	0.068	-0.018
-605.157	-86.544	0.231	-0.072
-604.142	357.282	-0.045	0.090
-603.128	800.000	-0.062	-0.233
-602.113	-90.609	0.276	0.081
-601.098	800.000	0.093	0.261
-600.084	304.971	0.108	0.202
-599.069	-157.573	-0.033	-0.002
-598.055	11.254	-0.016	0.012
-597.040	800.000	0.017	-0.071
-596.025	139.841	-0.097	-0.130
-595.011	-200.000	-0.016	0.169
-593.996	-81.644	0.441	-0.146
-592.982	-88.431	0.102	-0.031
-591.967	-200.000	-0.002	-0.066
-590.952	800.000	0.027	-0.112
-589.938	-94.164	0.139	-0.039
-588.923	-177.764	-0.356	0.009
-587.909	-68.075	-0.225	-0.088
-586.894	473.799	-0.056	-0.128
-585.879	-200.000	-0.065	-0.388
-584.865	199.562	-0.222	-0.343
-583.850	800.000	0.012	-0.047
-582.836	75.655	0.105	-0.112
-581.821	-167.949	0.109	0.004
-580.806	-20.151	-0.164	0.102
-579.792	88.936	0.093	-0.104
-578.777	275.840	0.130	0.233
-577.763	-87.688	-0.149	0.045
-576.748	625.755	0.081	0.205
-575.733	800.000	-0.007	-0.027
-574.719	-70.584	-0.425	0.162
-573.704	-200.000	-0.009	-0.351
-572.690	-97.639	-0.197	0.052
-571.675	-33.602	0.225	-0.125
-570.661	-111.189	0.060	-0.012
-569.646	141.284	0.146	-0.196
-568.631	800.000	-0.052	-0.183
-567.617	-49.040	-0.154	0.074
-566.602	212.390	-0.193	-0.307
-565.588	-81.165	0.328	-0.109
-564.573	7.779	0.228	-0.173
-563.558	-71.693	-0.031	-0.012
-562.544	31.643	0.265	-0.230
-561.529	88.216	-0.105	-0.117
-560.515	-67.849	0.271	-0.107
-559.500	-59.106	0.006	0.003
-558.485	-72.617	0.083	-0.031
-557.471	-58.554	-0.186	-0.081
-556.456	-81.505	0.529	0.175
-555.442	-200.000	0.011	0.096
-554.427	16.930	-0.159	-0.127
-553.412	-164.604	0.240	-0.011
-552.398	-25.415	-0.183	0.109
-551.383	-48.365	-0.186	0.090
-550.369	628.390	0.075	-0.191
-549.354	-200.000	0.036	-0.253
-548.339	-70.989	0.045	-0.017
-547.325	-200.000	0.010	0.176
-546.310	-61.864	-0.214	-0.090
-545.296	39.220	-0.128	-0.115
-544.281	33.201	0.140	0.122
-543.266	210.455	0.092	-0.146
-542.252	-76.096	0.296	-0.105
-541.237	105.484	-0.053	0.063
-540.223	800.000	0.047	-0.174
-539.208	-89.779	0.144	-0.043
-538.193	24.467	-0.126	-0.105
-537.179	59.086	-0.167	0.165
-536.164	-34.159	0.112	0.062
-535.150	800.000	0.020	-0.079
-534.135	26.251	0.093	-0.079
-533.121	800.000	0.081	-0.306
-532.106	59.250	0.181	0.180
-531.091	433.318	0.219	0.480
-530.077	-17.930	-0.239	0.151
-529.062	-0.959	-0.257	0.184
-528.048	-125.368	-0.167	-0.026
-527.033	-59.011	-0.091	0.039
-526.018	-88.219	-0.238	-0.072
-525.004	120.353	-0.157	0.196
-523.989	-124.445	0.067	0.010
-522.975	-200.000	-0.040	0.209
-521.960	-61.224	-0.239	-0.102
-520.945	-2.828	-0.221	0.155
-519.931	-25.349	0.066	-0.039
-518.916	123.005	-0.038	-0.047
-517.902	164.949	0.196	-0.278
-516.887	-49.161	-0.273	-0.131
-515.872	159.901	-0.102	-0.143
-514.858	96.045	0.268	-0.309
-513.843	517.716	0.140	0.330
-512.829	-82.872	-0.105	0.034
-511.814	163.851	0.259	0.367
-510.799	-59.417	0.239	0.103
-509.785	-94.515	-0.446	-0.122
-508.770	-200.000	-0.033	0.202
-507.756	-109.094	-0.142	0.030
-506.741	-87.088	-0.222	0.068
-505.726	87.320	-0.273	0.304
-504.712	-55.665	-0.229	0.103
-503.697	152.093	0.054	-0.074
-502.683	47.114	-0.192	0.180
-501.668	800.000	-0.027	0.104
-500.653	-4.365	0.040	-0.028
-499.639	-63.177	-0.085	0.035
-498.624	90.685	-0.159	-0.179
-497.610	-4.700	0.318	-0.221
-496.595	85.956	-0.157	-0.174
-495.581	604.671	-0.191	-0.478
-494.566	800.000	-0.077	0.240
-493.551	-87.155	0.185	0.057
-492.537	-39.634	0.254	0.133
-491.522	800.000	0.024	-0.083
-490.508	-60.297	0.289	-0.124
-489.493	-97.182	-0.133	-0.035
-488.478	-46.225	-0.293	-0.145
-487.464	87.283	-0.290	-0.322
-486.449	532.601	-0.048	0.115
-485.435	-200.000	0.003	-0.268
-484.420	-88.319	-0.297	-0.089
-483.405	177.114	0.082	-0.119
-482.391	800.000	-0.107	-0.317
-481.376	383.278	0.027	-0.056
-480.362	-154.462	0.126	0.008
-479.347	-200.000	-0.039	-0.199
-478.332	195.574	0.065	0.100
-477.318	-200.000	0.099	-0.537
-476.303	-45.273	0.167	-0.083
-475.289	-66.146	-0.073	-0.029
-474.274	-200.000	-0.012	0.129
-473.259	-19.018	0.262	-0.163
-472.245	-200.000	-0.009	-0.599
-471.230	800.000	-0.044	0.129
-470.216	-89.615	-0.171	0.051
-469.201	-53.982	-0.358	-0.164
-468.186	793.790	-0.120	-0.332
-467.172	-200.000	-0.040	-0.190
-466.157	179.811	-0.144	-0.212
-465.143	-38.368	-0.232	-0.123
-464.128	0.137	-0.308	0.220
-463.113	-193.303	-0.278	0.002
-462.099	201.706	-0.140	-0.217
-461.084	157.806	0.207	0.288
-460.070	-43.670	0.221	0.112
-459.055	787.232	0.070	0.194
-458.040	-70.089	-0.187	-0.072
-457.026	-68.886	-0.052	0.020
-456.011	243.889	0.091	-0.153
-454.997	-35.792	-0.387	0.211
-453.982	-200.000	-0.010	0.100
-452.968	148.991	-0.213	0.289
-451.953	-194.383	0.294	0.002
-450.938	-104.454	-0.155	0.036
-449.924	-200.000	0.018	-0.134
-448.909	61.454	-0.182	-0.182
-447.895	-200.000	0.026	0.236
-446.880	132.875	-0.048	-0.062
-445.865	53.927	0.030	-0.029
-444.851	-113.088	-0.187	-0.037
-443.836	-30.456	0.231	-0.131
-442.822	-83.254	0.095	0.031
-441.807	163.788	-0.154	0.217
-440.792	800.000	-0.079	-0.302
-439.778	800.000	-0.036	0.108
-438.763	66.002	0.008	0.008
-437.749	800.000	-0.067	-0.289
-436.734	-200.000	0.061	-0.337
-435.719	800.000	0.044	0.143
-434.705	-38.650	0.312	0.165
-433.690	-200.000	-0.009	-0.042
-432.676	-141.975	0.143	0.014
-431.661	-3.393	-0.151	-0.105
-430.646	118.031	-0.042	-0.052
-429.632	-146.178	-0.072	-0.006
-428.617	88.579	0.067	0.075
-427.603	195.900	0.044	0.068
-426.588	-21.755	0.096	-0.058
-425.573	229.323	-0.120	0.197
-424.559	-103.955	0.395	-0.092
-423.544	-51.091	-0.010	-0.005
-422.530	-200.000	-0.015	0.263
-421.515	-105.587	-0.031	0.007
-420.500	-98.747	0.245	-0.062
-419.486	-116.765	0.161	0.030
-418.471	577.978	-0.031	0.075
-417.457	8.987	-0.134	0.101
-416.442	-113.447	-0.281	0.055
-415.428	-13.784	-0.156	0.101
-414.413	-110.760	-0.112	0.023
-413.398	82.416	0.131	0.143
-412.384	144.810	-0.239	0.320
-411.369	156.878	0.185	0.256
-410.355	-28.065	-0.389	0.226
-409.340	186.053	0.139	-0.208
-408.325	568.459	-0.024	0.058
-407.311	-200.000	-0.013	-0.230
-406.296	-200.000	-0.010	0.109
-405.282	-58.680	0.375	-0.163
-404.267	-184.466	-0.168	-0.003
-403.252	-200.000	-0.011	0.264
-402.238	-200.000	-0.014	0.110
-401.223	193.550	0.112	0.170
-400.209	-117.178	0.226	0.041
-399.194	87.159	0.142	-0.157
-398.179	275.061	-0.045	-0.080
-397.165	215.620	-0.129	-0.205
-396.150	-200.000	0.031	0.344
-395.136	-108.839	-0.184	0.039
-394.121	800.000	0.143	-0.538
-393.106	-200.000	-0.007	-0.344
-392.092	-198.956	0.149	-0.001
-391.077	115.130	-0.275	0.336
-390.063	381.916	0.058	0.119
-389.048	-200.000	-0.015	0.131
-388.033	36.160	0.058	-0.051
-387.019	800.000	0.024	-0.100
-386.004	120.603	-0.210	-0.261
-384.990	-60.989	0.097	-0.041
-383.975	-9.826	0.232	-0.155
-382.960	-83.027	-0.185	-0.060
-381.946	-78.457	-0.332	-0.114
-380.931	-79.372	0.095	-0.032
-379.917	-34.971	0.286	0.156
-378.902	-60.235	-0.162	0.069
-377.888	389.855	0.125	-0.259
-376.873	-45.768	0.073	-0.036
-375.858	-200.000	0.005	0.436
-374.844	-97.180	0.191	0.050
-373.829	50.092	0.186	-0.175
-372.815	51.709	0.047	-0.045
-371.800	130.051	0.157	-0.201
-370.785	-200.000	0.014	0.111
-369.771	-5.534	0.293	-0.201
-368.756	53.628	0.211	-0.203
-367.742	800.000	-0.034	-0.096
-366.727	-118.667	0.236	-0.042
-365.712	1.313	-0.107	-0.077
-364.698	-35.292	0.254	-0.138
-363.683	-147.602	-0.342	0.029
-362.669	-103.334	-0.358	0.084
-361.654	397.574	-0.081	0.170
-360.639	-146.484	-0.070	-0.006
-359.625	-30.730	0.163	-0.092
-358.610	-46.078	-0.206	0.102
-357.596	81.474	0.114	-0.124
-356.581	-187.784	0.294	-0.004
-355.566	48.255	0.081	0.076
-354.552	800.000	0.067	0.270
-353.537	-200.000	-0.005	0.383
-352.523	-122.927	0.162	-0.026
-351.508	252.345	-0.185	0.316
-350.493	306.157	0.036	0.068
-349.479	198.683	-0.076	0.116
-348.464	-200.000	-0.006	-0.102
-347.450	185.730	-0.071	-0.106
-346.435	-111.117	0.211	0.043
-345.420	-189.125	-0.068	-0.001
-344.406	-33.096	-0.289	0.160
-343.391	-9.141	-0.175	0.117
-342.377	21.651	-0.252	-0.205
-341.362	-26.434	-0.163	-0.096
-340.348	800.000	0.090	0.298
-339.333	27.080	-0.257	0.215
-338.318	-58.442	-0.228	-0.099
-337.304	132.468	-0.133	0.172
-336.289	-162.295	0.199	-0.010
-335.275	-102.992	0.220	0.052
-334.260	24.218	0.259	0.214
-333.245	-200.000	-0.009	0.333
-332.231	599.169	-0.072	0.178
-331.216	-38.731	0.355	0.187
-330.202	105.294	0.050	0.059
-329.187	29.155	-0.212	-0.180
-328.172	800.000	0.036	0.112
-327.158	-48.979	0.233	0.112
-326.143	-200.000	-0.047	-0.215
-325.129	795.076	-0.015	-0.041
-324.114	75.040	-0.085	-0.089
-323.099	-84.736	0.187	-0.059
-322.085	224.210	-0.147	0.238
-321.070	-95.164	0.190	0.051
-320.056	800.000	-0.017	-0.067
-319.041	55.395	0.159	-0.154
-318.026	58.176	-0.369	0.361
-317.012	-62.117	-0.153	-0.064
-315.997	290.515	0.118	0.214
-314.983	-95.742	0.282	0.075
-313.968	310.377	-0.150	-0.280
-312.953	-111.719	0.026	-0.005
-311.939	-14.362	-0.353	0.227
-310.924	602.107	0.080	0.198
-309.910	123.218	0.113	0.141
-308.895	27.628	-0.184	-0.155
-307.880	-30.417	-0.119	0.067
-306.866	-149.981	-0.161	-0.013
-305.851	-48.172	0.067	-0.032
-304.837	800.000	0.100	0.335
-303.822	205.095	0.056	-0.086
-302.807	-200.000	-0.013	0.396
-301.793	-55.476	0.102	-0.046
-300.778	-200.000	0.027	-0.170
-299.764	-200.000	-0.007	-0.227
-298.749	32.756	0.123	0.106
-297.735	33.486	-0.182	0.158
-296.720	-57.342	-0.182	-0.080
-295.705	-110.118	0.041	-0.009
-294.691	7.423	-0.316	-0.235
-293.676	-200.000	-0.152	-0.000
-292.662	335.574	0.113	-0.218
-291.647	-200.000	0.013	-0.265
-290.632	791.609	0.084	-0.231
-289.618	-200.000	0.059	0.279
-288.603	-122.202	-0.165	0.027
-287.589	-44.504	0.370	0.185
-286.574	532.901	0.165	-0.391
-285.559	365.846	-0.102	-0.206
-284.545	641.144	-0.082	-0.209
-283.530	-42.442	-0.087	0.044
-282.516	800.000	0.114	0.352
-281.501	727.607	-0.086	0.229
-280.486	-200.000	-0.027	0.211
-279.472	140.032	0.173	0.228
-278.457	-200.000	-0.009	0.192
-277.443	800.000	0.080	-0.259
-276.428	-200.000	0.004	-0.250
-275.413	83.855	0.060	0.066
-274.399	-14.541	0.180	0.116
-273.384	103.071	0.137	0.160
-272.370	145.046	-0.078	0.104
-271.355	26.921	0.250	-0.209
-270.340	-102.823	0.198	-0.047
-269.326	-19.876	-0.138	0.085
-268.311	-116.751	0.160	-0.029
-267.297	447.454	0.152	0.333
-266.282	-155.186	-0.106	0.007
-265.267	-200.000	0.035	-0.299
-264.253	-41.318	0.112	0.057
-263.238	800.000	0.127	-0.412
-262.224	-200.000	0.063	-0.318
-261.209	-107.133	-0.126	0.028
-260.195	2.091	0.230	-0.165
-259.180	29.583	0.178	-0.151
-258.165	-43.659	-0.169	0.085
-257.151	-9.687	0.166	0.110
-256.136	-19.198	-0.257	0.159
-255.122	-109.724	0.095	-0.020
-254.107	322.854	-0.190	-0.360
-253.092	148.668	-0.048	-0.065
-252.078	-39.161	-0.042	0.022
-251.063	-52.575	-0.214	0.098
-250.049	248.983	0.078	0.132
-249.034	800.000	0.131	0.431
-248.019	301.673	0.185	-0.340
-247.005	-172.683	-0.194	-0.006
-245.990	800.000	0.130	0.379
-244.976	250.113	0.094	0.158
-243.961	467.206	-0.147	-0.328
-242.946	-155.175	-0.160	0.010
-241.932	47.380	0.097	-0.090
-240.917	115.722	0.215	0.262
-239.903	-105.984	0.130	-0.029
-238.888	800.000	-0.026	-0.102
-237.873	-111.275	0.250	-0.051
-236.859	-3.715	0.183	0.127
-235.844	-81.433	0.305	0.100
-234.830	13.451	-0.329	0.254
-233.815	800.000	-0.089	0.275
-232.800	-156.133	0.071	0.004
-231.786	-65.309	-0.068	-0.027
-230.771	175.825	0.039	-0.057
-229.757	182.899	-0.114	0.168
-228.742	-200.000	0.180	-0.001
-227.727	-98.888	-0.212	-0.054
-226.713	-75.738	-0.267	-0.094
-225.698	174.459	0.145	0.209
-224.684	-62.409	0.283	0.117
-223.669	168.107	-0.049	0.070
-222.655	-68.437	0.203	-0.078
-221.640	-28.025	0.117	0.067
-220.625	-8.422	-0.052	0.035
-219.611	53.407	-0.129	-0.123
-218.596	800.000	0.061	0.230
-217.582	341.982	0.116	-0.226
-216.567	-173.470	-0.188	0.006
-215.552	800.000	0.104	0.399
-214.538	-200.000	-0.008	0.225
-213.523	-60.599	-0.105	-0.044
-212.509	800.000	0.097	-0.280
-211.494	-200.000	-0.005	0.129
-210.479	-55.710	0.045	-0.020
-209.465	14.877	0.134	-0.104
-208.450	-179.815	-0.228	-0.005
-207.436	800.000	-0.085	0.270
-206.421	-71.167	-0.200	0.075
-205.406	7.529	0.163	0.121
-204.392	-200.000	0.017	0.133
-203.377	314.236	0.232	0.434
-202.363	16.779	0.116	-0.091
-201.348	-75.045	-0.088	-0.031
-200.333	153.716	-0.190	-0.259
-199.319	-132.530	0.273	0.035
-198.304	-63.782	-0.196	0.080
-197.290	800.000	0.047	-0.159
-196.275	-185.547	-0.305	0.005
-195.260	208.511	0.215	0.334
-194.246	-68.014	-0.106	-0.041
-193.231	-79.627	-0.404	0.135
-192.217	-98.837	0.324	0.082
-191.202	15.710	0.191	0.149
-190.187	65.003	-0.083	-0.083
-189.173	24.846	-0.275	-0.226
-188.158	1.018	-0.235	0.167
-187.144	-133.607	0.287	0.036
-186.129	17.518	0.264	0.208
-185.114	-53.688	0.206	-0.094
-184.100	-90.111	0.242	0.070
-183.085	-200.000	0.046	-0.322
-182.071	-17.606	0.136	-0.085
-181.056	-35.201	-0.144	0.078
-180.042	800.000	0.067	0.198
-179.027	-185.116	0.043	0.001
-178.012	-8.140	0.246	-0.165
-176.998	-73.883	-0.153	-0.055
-175.983	-157.434	0.097	-0.006
-174.969	-91.306	-0.132	0.037
-173.954	19.311	0.237	-0.189
-172.939	-200.000	-0.009	0.110
-171.925	111.577	0.205	-0.245
-170.910	-200.000	0.058	0.262
-169.896	89.630	0.062	0.068
-168.881	-75.734	-0.039	0.014
-167.866	55.529	-0.115	-0.110
-166.852	227.274	0.202	0.326
-165.837	-66.888	0.172	0.068
-164.823	40.465	-0.161	0.144
-163.808	223.464	-0.064	0.102
-162.793	-164.922	0.185	-0.008
-161.779	516.051	0.108	-0.251
-160.764	-200.000	0.006	-0.216
-159.750	-55.645	-0.056	-0.025
-158.735	-36.733	-0.108	0.058
-157.720	800.000	-0.088	-0.313
-156.706	265.051	-0.067	-0.115
-155.691	14.128	0.041	0.032
-154.677	335.287	0.131	0.253
-153.662	-25.004	-0.182	-0.107
-152.647	517.434	0.074	0.171
-151.633	-184.634	0.297	0.005
-150.618	26.299	0.084	-0.070
-149.604	-103.195	0.394	-0.092
-148.589	-51.369	0.364	0.169
-147.574	-200.000	-0.041	0.291
-146.560	-34.010	-0.020	-0.011
-145.545	-200.000	0.374	0.001
-144.531	109.982	0.165	-0.196
-143.516	408.979	0.072	-0.151
-142.502	20.419	0.093	-0.074
-141.487	649.824	0.096	-0.243
-140.472	-145.364	-0.309	0.028
-139.458	198.600	-0.089	0.135
-138.443	-119.600	0.272	-0.047
-137.429	-162.163	0.185	0.009
-136.414	-200.000	0.044	-0.313
-135.399	800.000	0.014	-0.055
-134.385	-31.694	0.138	-0.077
-133.370	731.974	-0.094	-0.249
-132.356	800.000	-0.032	0.133
-131.341	13.695	0.083	0.064
-130.326	-200.000	-0.018	0.144
-129.312	-174.131	0.343	0.010
-128.297	-112.493	-0.214	-0.042
-127.283	-200.000	0.012	-0.081
-126.268	636.787	0.085	0.214
-125.253	66.192	-0.141	-0.142
-124.239	579.431	0.131	0.319
-123.224	744.774	-0.130	-0.347
-122.210	800.000	0.046	-0.126
-121.195	152.195	0.146	0.197
-120.180	389.461	0.062	0.128
-119.166	-79.399	-0.076	-0.025
-118.151	-200.000	0.025	0.183
-117.137	408.477	-0.161	0.338
-116.122	86.411	0.287	0.314
-115.107	-200.000	-0.005	-0.193
-114.093	-200.000	-0.015	0.246
-113.078	-200.000	-0.007	-0.174
-112.064	32.373	-0.225	0.192
-111.049	-99.203	0.082	0.021
-110.034	-40.650	-0.241	0.124
-109.020	-200.000	-0.009	0.186
-108.005	36.942	-0.150	0.131
-106.991	38.103	0.070	0.062
-105.976	21.234	0.186	0.149
-104.962	-200.000	-0.012	-0.452
-103.947	1.037	-0.082	-0.058
-102.932	408.727	-0.042	-0.088
-101.918	-180.346	-0.298	0.006
-100.903	2.853	0.184	0.132
-99.889	-16.892	-0.328	-0.206
-98.874	39.245	-0.090	0.079
-97.859	-200.000	0.341	-0.001
-96.845	-70.136	-0.222	0.084
-95.830	34.537	-0.067	0.058
-94.816	108.790	0.175	0.208
-93.801	72.272	0.128	-0.132
-92.786	-200.000	0.015	-0.171
-91.772	800.000	0.059	-0.187
-90.757	-162.626	0.180	-0.009
-89.743	-35.281	-0.343	-0.185
-88.728	-0.325	0.369	-0.259
-87.713	139.069	0.120	0.156
-86.699	209.680	0.195	-0.303
-85.684	49.800	-0.299	-0.279
-84.670	172.555	-0.193	-0.275
-83.655	94.886	-0.022	0.025
-82.640	179.479	0.229	-0.332
-81.626	75.090	0.076	-0.079
-80.611	-111.368	-0.418	-0.084
-79.597	-200.000	0.033	0.265
-78.582	48.306	-0.100	0.093
-77.567	-127.154	-0.149	-0.022
-76.553	-69.574	0.181	-0.069
-75.538	-177.892	-0.316	-0.007
-74.524	-35.309	-0.230	0.124
-73.509	-57.354	0.057	0.025
-72.494	-122.257	0.181	-0.029
-71.480	-191.942	0.177	0.002
-70.465	-200.000	0.012	-0.062
-69.451	180.619	0.007	-0.010
-68.436	-200.000	0.050	-0.273
-67.422	61.067	-0.025	0.024
-66.407	32.306	0.313	-0.268
-65.392	-99.378	0.179	0.045
-64.378	-28.838	-0.232	0.132
-63.363	800.000	-0.022	0.070
-62.349	180.081	-0.169	0.245
-61.334	13.503	-0.989	-0.759
-60.319	40.677	0.396	0.353
-59.305	250.384	-0.423	-0.710
-58.290	165.504	0.877	1.225
-57.276	277.837	0.774	1.362
-56.261	-200.000	101.716	591.224
-55.246	557.250	1420.238	3384.552
-54.232	185.883	2615.971	3844.137
-53.217	106.643	2310.839	2709.983
-52.203	37.503	2065.346	1810.855
-51.188	32.599	1979.072	1691.256
-50.173	31.054	1961.547	1662.451
-49.159	45.962	2014.645	1842.583
-48.144	47.289	2032.039	1870.425
-47.130	33.237	1991.883	1707.697
-46.115	30.871	1981.486	1677.431
-45.100	30.701	1978.974	1673.713
-44.086	30.777	1975.949	1671.769
-43.071	30.766	1973.544	1669.568
-42.057	30.668	1971.723	1667.082
-41.042	30.744	1969.473	1665.801
-40.027	30.752	1967.515	1664.145
-39.013	30.754	1965.819	1662.664
-37.998	30.833	1963.694	1661.509
-36.984	30.853	1961.883	1660.085
-35.969	30.795	1960.150	1658.040
-34.954	30.828	1958.284	1656.691
-33.940	30.872	1956.756	1655.723
-32.925	30.867	1955.478	1654.531
-31.911	30.906	1953.290	1652.953
-30.896	30.888	1952.079	1651.710
-29.881	30.798	1950.570	1649.567
-28.867	30.986	1948.506	1649.422
-27.852	30.960	1947.141	1647.968
-26.838	30.959	1945.213	1646.266
-25.823	30.908	1943.632	1644.410
-24.809	30.786	1942.490	1642.302
-23.794	30.819	1939.846	1640.294
-22.779	30.897	1938.538	1639.810
-21.765	30.865	1937.013	1638.173
-20.750	30.841	1935.601	1636.704
-19.736	30.850	1934.034	1635.388
-18.721	30.925	1931.746	1634.048
-17.706	30.862	1930.507	1632.383
-16.692	30.985	1928.235	1631.472
-15.677	30.953	1926.886	1629.991
-14.663	30.910	1925.589	1628.450
-13.648	30.935	1924.316	1627.525
-12.633	30.911	1923.305	1626.399
-11.619	30.942	1921.526	1625.101
-10.604	30.855	1920.843	1623.698
-9.590	30.817	1919.326	1622.019
-8.575	30.866	1917.303	1620.673
-7.560	30.972	1916.171	1620.578
-6.546	30.917	1915.231	1619.238
-5.531	30.884	1914.166	1617.985
-4.517	30.815	1912.924	1616.278
-3.502	30.869	1912.091	1615.977
-2.487	30.871	1910.577	1614.645
-1.473	30.927	1909.772	1614.388
-0.458	31.016	1904.603	1610.726
0.556	29.981	1884.825	1582.964
1.571	25.773	1866.016	1531.329
2.586	21.917	1888.680	1516.526
3.600	20.900	1924.336	1536.064
4.615	20.374	1919.214	1527.214
5.629	15.814	1819.282	1409.460
6.644	8.370	1703.985	1261.415
7.659	4.914	1669.638	1209.101
8.673	4.690	1666.850	1205.239
9.688	4.615	1665.015	1203.230
10.702	4.604	1664.203	1202.446
11.717	4.611	1660.443	1199.682
12.731	5.016	1659.434	1201.969
13.746	9.894	1671.321	1248.261
14.761	16.804	1685.921	1312.772
15.775	19.063	1688.627	1332.274
16.790	18.292	1686.271	1324.335
17.804	17.223	1682.838	1313.260
18.819	16.219	1679.517	1302.807
19.834	15.639	1676.721	1296.053
20.848	15.368	1675.556	1292.947
21.863	15.106	1674.060	1289.664
22.877	14.885	1672.330	1286.514
23.892	14.676	1670.916	1283.707
24.907	14.595	1669.962	1282.241
25.921	14.570	1669.093	1281.263
26.936	14.595	1667.974	1280.483
27.950	14.563	1667.204	1279.531
28.965	14.580	1667.219	1279.563
29.980	14.643	1665.844	1278.878
30.994	14.777	1664.825	1279.005
32.009	14.942	1663.302	1278.986
33.023	14.954	1663.039	1278.760
34.038	14.807	1662.227	1276.904
35.053	14.793	1661.206	1275.901
36.067	14.850	1659.523	1274.928
37.082	14.765	1658.073	1273.055
38.096	14.729	1657.255	1272.037
39.111	14.819	1656.598	1272.109
40.126	14.881	1654.778	1271.067
41.140	14.893	1654.430	1270.776
42.155	14.661	1653.276	1268.022
43.169	14.581	1651.639	1266.044
44.184	14.501	1650.662	1264.577
45.199	14.478	1649.413	1263.333
46.213	14.505	1648.287	1262.560
47.228	14.572	1647.222	1262.142
48.242	14.662	1646.011	1261.786
49.257	14.685	1645.269	1261.276
50.271	14.743	1643.367	1260.141
51.286	14.690	1642.464	1258.936
52.301	14.730	1640.990	1258.003
53.315	14.716	1639.956	1256.991
54.330	14.616	1637.960	1254.600
55.344	14.710	1636.368	1253.976
56.359	14.541	1635.253	1251.737
57.374	14.555	1634.215	1250.942
58.388	14.519	1633.217	1249.799
59.403	14.544	1631.508	1248.565
60.417	14.455	1630.772	1247.227
61.432	14.479	1629.403	1246.248
62.447	14.508	1627.432	1244.843
63.461	14.406	1627.028	1243.665
64.476	14.343	1625.773	1242.123
65.490	14.422	1624.421	1241.571
66.505	14.434	1623.289	1240.687
67.520	14.432	1622.737	1240.139
68.534	14.458	1621.945	1239.621
69.549	14.427	1620.856	1238.448
70.563	14.496	1619.105	1237.512
71.578	14.486	1617.831	1236.353
72.593	14.369	1617.314	1234.977
73.607	14.366	1616.105	1233.928
74.622	14.172	1615.626	1232.012
75.636	14.352	1613.893	1231.913
76.651	14.273	1613.410	1230.855
77.666	14.323	1612.927	1230.744
78.680	14.333	1612.097	1230.076
79.695	14.383	1611.102	1229.579
80.709	14.415	1610.059	1228.913
81.724	14.385	1609.237	1227.953
82.739	14.517	1608.229	1228.048
83.753	14.559	1607.520	1227.706
84.768	14.605	1606.447	1227.114
85.782	14.693	1605.520	1226.948
86.797	14.752	1605.036	1226.901
87.812	14.744	1604.411	1226.256
88.826	14.707	1602.846	1224.684
89.841	14.614	1601.861	1223.140
90.855	14.628	1601.207	1222.632
91.870	14.762	1600.141	1222.692
92.884	14.760	1598.761	1221.513
93.899	14.761	1597.794	1220.671
94.914	14.796	1596.275	1219.659
95.928	14.841	1595.140	1219.014
96.943	14.895	1593.841	1218.305
97.957	14.844	1592.524	1216.825
98.972	14.791	1590.791	1215.004
99.987	14.618	1589.917	1212.974
101.001	14.696	1587.861	1211.863
102.016	14.745	1586.093	1210.757
103.030	14.721	1584.847	1209.527
104.045	14.721	1584.199	1208.929
105.060	14.817	1582.327	1208.086
106.074	14.721	1581.279	1206.486
107.089	14.656	1579.358	1204.447
108.103	14.481	1578.253	1202.235
109.118	14.359	1576.992	1200.285
110.133	14.414	1575.247	1199.251
111.147	14.459	1573.727	1198.311
112.162	14.459	1572.639	1197.378
113.176	14.448	1571.113	1196.025
114.191	14.541	1569.851	1195.629
115.206	14.541	1568.671	1194.626
116.220	14.582	1566.989	1193.532
117.235	14.570	1565.694	1192.350
118.249	14.561	1564.600	1191.347
119.264	14.614	1562.631	1190.126
120.279	14.446	1561.739	1188.142
121.293	14.535	1560.060	1187.395
122.308	14.476	1558.594	1185.754
123.322	14.381	1557.228	1183.929
124.337	14.430	1555.875	1183.145
125.352	14.274	1555.462	1181.623
126.366	14.390	1553.958	1181.194
127.381	14.342	1552.845	1179.907
128.395	14.406	1551.371	1179.134
129.410	14.406	1549.871	1177.888
130.424	14.469	1548.290	1177.026
131.439	14.467	1547.421	1176.253
132.454	14.591	1545.913	1175.873
133.468	14.533	1544.673	1174.418
134.483	14.527	1542.938	1172.952
135.497	14.552	1542.130	1172.410
136.512	14.663	1540.182	1171.606
137.527	14.577	1539.947	1170.721
138.541	14.603	1538.588	1169.763
139.556	14.620	1537.041	1168.604
140.570	14.644	1535.196	1167.264
141.585	14.725	1534.043	1166.849
142.600	14.821	1532.793	1166.465
143.614	14.896	1531.851	1166.170
144.629	14.924	1530.340	1165.115
145.643	14.869	1529.838	1164.246
146.658	15.035	1527.763	1163.714
147.673	14.891	1526.915	1161.965
148.687	14.816	1525.490	1160.257
149.702	14.832	1523.499	1158.749
150.716	14.754	1522.142	1157.078
151.731	14.759	1520.820	1156.005
152.746	14.753	1519.449	1154.818
153.760	14.676	1518.180	1153.224
154.775	14.651	1517.441	1152.388
155.789	14.824	1515.749	1152.191
156.804	14.841	1514.888	1151.552
157.819	14.846	1513.322	1150.292
158.833	14.876	1512.368	1149.670
159.848	14.881	1511.484	1148.930
160.862	14.911	1510.636	1148.393
161.877	15.045	1509.010	1147.972
162.892	14.939	1507.900	1146.300
163.906	14.822	1506.737	1144.514
164.921	14.729	1506.012	1143.225
165.935	14.793	1504.320	1142.280
166.950	14.875	1503.263	1141.935
167.964	14.777	1502.954	1140.928
168.979	14.853	1501.403	1140.169
169.994	14.817	1500.531	1139.163
171.008	14.804	1499.559	1138.236
172.023	14.860	1498.184	1137.471
173.037	14.970	1497.424	1137.540
174.052	15.003	1496.145	1136.695
175.067	15.017	1495.377	1136.103
176.081	15.003	1493.858	1134.755
177.096	14.903	1492.506	1132.953
178.110	14.928	1490.877	1131.783
179.125	14.925	1490.225	1131.165
180.140	14.927	1488.839	1130.027
181.154	15.018	1487.839	1129.786
182.169	14.954	1487.146	1128.728
183.183	15.031	1485.702	1128.050
184.198	15.075	1484.986	1127.699
185.213	15.196	1483.843	1127.547
186.227	15.130	1482.893	1126.283
187.242	15.221	1481.554	1125.781
188.256	15.223	1480.429	1124.839
189.271	15.305	1479.031	1124.223
190.286	15.252	1478.532	1123.391
191.300	15.240	1477.327	1122.294
192.315	15.059	1475.699	1119.752
193.329	14.892	1474.660	1117.745
194.344	14.977	1472.861	1116.851
195.359	14.986	1472.239	1116.339
196.373	15.023	1471.424	1115.869
197.388	15.118	1470.459	1115.672
198.402	15.178	1469.331	1115.117
199.417	15.244	1468.429	1114.776
200.432	15.285	1467.475	1114.221
201.446	15.378	1466.450	1113.963
202.461	15.477	1465.227	1113.591
203.475	15.479	1464.236	1112.757
204.490	15.573	1463.225	1112.509
205.504	15.569	1462.127	1111.548
206.519	15.371	1461.093	1109.359
207.534	15.318	1459.888	1107.991
208.548	15.376	1458.794	1107.451
209.563	15.354	1457.630	1106.321
210.577	15.330	1456.569	1105.257
211.592	15.339	1455.959	1104.756
212.607	15.476	1455.143	1104.944
213.621	15.451	1454.907	1104.500
214.636	15.607	1453.183	1104.121
215.650	15.568	1452.402	1103.172
216.665	15.438	1452.041	1101.950
217.680	15.566	1451.046	1101.937
218.694	15.698	1449.847	1101.790
219.709	15.662	1449.455	1101.160
220.723	15.679	1448.381	1100.358
221.738	15.682	1447.448	1099.572
222.753	15.622	1446.465	1098.332
223.767	15.642	1445.440	1097.588
224.782	15.722	1444.445	1097.259
225.796	15.663	1443.908	1096.372
226.811	15.773	1442.924	1096.240
227.826	15.781	1442.169	1095.623
228.840	15.765	1441.187	1094.676
229.855	15.694	1440.223	1093.387
230.869	15.642	1439.428	1092.346
231.884	15.717	1438.036	1091.682
232.899	15.682	1436.788	1090.410
233.913	15.650	1435.477	1089.110
234.928	15.617	1434.590	1088.128
235.942	15.652	1433.104	1087.131
236.957	15.570	1432.357	1085.939
237.972	15.592	1431.305	1085.190
238.986	15.621	1430.048	1084.330
240.001	15.645	1429.046	1083.628
241.015	15.767	1427.698	1083.293
242.030	15.663	1427.046	1082.034
243.045	15.709	1426.020	1081.458
244.059	15.759	1425.161	1081.027
245.074	15.851	1424.574	1081.082
246.088	15.726	1423.988	1079.735
247.103	15.902	1423.017	1080.034
248.117	15.844	1422.423	1079.113
249.132	15.898	1421.592	1078.738
250.147	16.025	1420.780	1078.837
251.161	16.186	1420.260	1079.376
252.176	16.224	1419.252	1078.759
253.190	16.277	1418.708	1078.590
254.205	16.334	1417.780	1078.149
255.220	16.292	1417.330	1077.442
256.234	16.343	1416.326	1076.912
257.249	16.303	1415.782	1076.150
258.263	16.385	1414.525	1075.619
259.278	16.359	1413.908	1074.890
260.293	16.244	1412.637	1073.094
261.307	16.365	1411.765	1073.110
262.322	16.408	1411.134	1072.806
263.336	16.468	1410.915	1072.927
264.351	16.507	1409.735	1072.182
265.366	16.602	1408.276	1071.580
266.380	16.560	1407.555	1070.670
267.395	16.528	1406.985	1069.939
268.409	16.552	1405.988	1069.240
269.424	16.408	1404.975	1067.464
270.439	16.321	1404.043	1066.112
271.453	16.440	1403.099	1066.048
272.468	16.513	1401.708	1065.356
273.482	16.376	1401.320	1064.108
274.497	16.483	1400.334	1063.936
275.512	16.433	1399.602	1062.973
276.526	16.389	1398.902	1062.072
277.541	16.485	1397.198	1061.285
278.555	16.474	1396.694	1060.739
279.570	16.443	1396.448	1060.264
280.585	16.597	1394.876	1059.939
281.599	16.700	1394.123	1059.923
282.614	16.709	1392.984	1059.020
283.628	16.680	1391.970	1057.971
284.643	16.753	1390.710	1057.374
285.657	16.655	1389.686	1055.893
286.672	16.650	1388.887	1055.161
287.687	16.472	1388.421	1053.607
288.701	16.651	1387.125	1053.643
289.716	16.616	1386.543	1052.887
290.730	16.619	1385.854	1052.291
291.745	16.595	1385.196	1051.551
292.760	16.753	1384.016	1051.541
293.774	16.701	1382.855	1050.247
294.789	16.682	1381.661	1049.127
295.803	16.837	1380.971	1049.471
296.818	16.828	1380.004	1048.583
297.833	16.788	1379.118	1047.574
298.847	16.664	1378.494	1046.238
299.862	16.731	1377.405	1045.737
300.876	16.703	1376.140	1044.511
301.891	16.850	1375.087	1044.524
302.906	16.817	1374.524	1043.798
303.920	16.866	1373.966	1043.586
304.935	16.881	1373.423	1043.170
305.949	16.991	1372.508	1043.063
306.964	16.921	1371.855	1042.042
307.979	17.054	1370.999	1042.120
308.993	17.002	1369.979	1040.930
310.008	17.008	1368.923	1040.074
311.022	17.031	1367.941	1039.377
312.037	17.034	1366.905	1038.512
313.052	17.088	1365.865	1037.966
314.066	17.037	1364.878	1036.808
315.081	17.009	1363.996	1035.878
316.095	16.961	1363.036	1034.766
317.110	16.862	1361.800	1033.133
318.125	16.896	1360.584	1032.323
319.139	16.877	1360.043	1031.705
320.154	16.864	1359.129	1030.845
321.168	16.966	1357.735	1030.314
322.183	16.949	1356.783	1029.397
323.197	16.940	1355.822	1028.523
324.212	16.944	1355.248	1028.019
325.227	17.046	1354.811	1028.214
326.241	16.987	1353.868	1027.050
327.256	16.985	1352.647	1026.024
328.270	17.187	1351.552	1026.324
329.285	17.058	1350.829	1024.900
330.300	17.044	1349.731	1023.897
331.314	17.117	1348.894	1023.610
332.329	17.037	1348.240	1022.543
333.343	17.230	1347.083	1022.732
334.358	17.097	1346.728	1021.575
335.373	17.177	1345.681	1021.173
336.387	17.317	1344.242	1020.829
337.402	17.174	1344.290	1019.914
338.416	17.334	1343.668	1020.313
339.431	17.308	1342.898	1019.483
340.446	17.323	1342.497	1019.180
341.460	17.443	1341.141	1018.775
342.475	17.439	1340.170	1017.928
343.489	17.538	1339.104	1017.620
344.504	17.495	1338.539	1016.844
345.519	17.615	1337.525	1016.698
346.533	17.646	1336.741	1016.194
347.548	17.621	1335.832	1015.263
348.562	17.637	1335.541	1015.051
349.577	17.669	1334.655	1014.480
350.592	17.645	1333.598	1013.442
351.606	17.615	1332.558	1012.385
352.621	17.483	1331.716	1010.870
353.635	17.508	1330.105	1009.706
354.650	17.477	1329.413	1008.908
355.665	17.443	1328.750	1008.114
356.679	17.504	1327.403	1007.364
357.694	17.585	1326.102	1006.768
358.708	17.573	1325.452	1006.116
359.723	17.633	1324.236	1005.452
360.738	17.650	1323.143	1004.635
361.752	17.715	1322.244	1004.247
362.767	17.744	1320.957	1003.349
363.781	17.689	1320.296	1002.435
364.796	17.613	1319.867	1001.576
365.810	17.711	1318.966	1001.378
366.825	17.761	1318.476	1001.214
367.840	17.810	1317.786	1000.890
368.854	17.976	1317.007	1001.179
369.869	17.864	1316.797	1000.278
370.883	17.950	1315.896	1000.007
371.898	18.034	1314.849	999.614
372.913	17.820	1314.219	997.795
373.927	17.952	1313.116	997.642
374.942	17.902	1312.556	996.836
375.956	17.889	1312.164	996.370
376.971	17.912	1311.049	995.574
377.986	17.888	1310.540	994.957
379.000	17.984	1309.155	994.377
380.015	18.132	1308.117	994.359
381.029	18.032	1307.750	993.414
382.044	18.140	1307.076	993.441
383.059	18.123	1306.569	992.871
384.073	18.050	1305.759	991.740
385.088	18.159	1305.263	991.910
386.102	18.229	1304.244	991.450
387.117	18.191	1303.877	990.865
388.132	18.165	1303.068	990.012
389.146	18.124	1301.886	988.792
390.161	18.100	1300.890	987.807
391.175	18.114	1300.230	987.299
392.190	18.139	1299.731	986.979
393.205	18.102	1298.608	985.827
394.219	18.265	1297.451	985.796
395.234	18.210	1296.228	984.464
396.248	18.263	1294.711	983.529
397.263	18.162	1293.520	981.958
398.278	18.135	1292.653	981.059
399.292	18.244	1291.407	980.649
400.307	18.152	1290.161	979.090
401.321	18.074	1289.198	977.826
402.336	18.080	1288.501	977.249
403.350	18.069	1287.358	976.233
404.365	18.194	1286.372	976.108
405.380	18.261	1285.317	975.604
406.394	18.235	1284.705	974.906
407.409	18.222	1284.273	974.415
408.423	18.264	1284.084	974.427
409.438	18.280	1283.115	973.695
410.453	18.414	1282.123	973.622
411.467	18.482	1281.162	973.192
412.482	18.567	1280.731	973.258
413.496	18.522	1279.768	972.184
414.511	18.612	1279.554	972.445
415.526	18.556	1278.784	971.460
416.540	18.651	1278.374	971.600
417.555	18.729	1277.171	971.042
418.569	18.686	1276.613	970.287
419.584	18.751	1275.811	969.959
420.599	18.696	1275.500	969.326
421.613	140.709	1432.382	1796.840
422.628	135.376	1455.205	1796.960
