DTS Sentinel unit serial number:	SN413079Multiplexer serial number:	ORYXHardware model number:	OX4-SRSoftware version number:	ORYX F/W v4.00 Oryx Data Collector v3.7.2.0data status	okinstallation	princeton_trtdifferential loss correction	single-endedforward channel	channel 4reverse channel	N/Adate	2019/09/12time	05:03:11forward acquisition time	60.00reverse acquisition time	0.00gamma	496.2192k internal	0.2309k external	0.2309temperature offset calibration	1.0071default loss term (dB/km)	0.3790temperature slope calibration	1.0000multiplexer offset coefficient	1.0000multiplexer slope coefficient	1.0000fibre end	0.00T internal ref (°C)	31.75T ext. ref 1 (°C)	1.73T ext. ref 2 (°C)	27.07length (m)	temperature (°C)	Stokes	anti-Stokes-747.200	-14.810	0.151	-0.098
-746.185	800.000	-0.011	0.047
-745.171	18.399	-0.076	-0.062
-744.156	-200.000	0.055	0.536
-743.142	14.776	-0.069	0.055
-742.127	598.074	-0.125	0.314
-741.112	-66.731	0.015	0.006
-740.098	-200.000	-0.007	0.478
-739.083	39.132	0.321	-0.292
-738.069	-78.840	-0.286	0.099
-737.054	-12.866	-0.132	0.087
-736.039	649.865	0.052	-0.134
-735.025	-40.346	0.063	-0.034
-734.010	-106.936	-0.180	0.041
-732.996	-23.892	0.148	-0.090
-731.981	92.643	-0.170	-0.195
-730.966	-32.446	-0.046	0.026
-729.952	54.749	0.170	-0.167
-728.937	800.000	0.065	-0.248
-727.923	-62.837	0.455	0.191
-726.908	156.641	-0.299	-0.419
-725.894	-200.000	0.029	-0.230
-724.879	440.919	-0.074	-0.165
-723.864	-46.347	0.151	0.076
-722.850	-200.000	-0.028	0.215
-721.835	88.975	0.167	-0.189
-720.821	-98.878	0.299	-0.077
-719.806	312.334	-0.057	-0.109
-718.791	95.301	-0.379	-0.439
-717.777	-34.619	0.047	-0.026
-716.762	-123.483	-0.486	0.079
-715.748	26.505	0.178	-0.151
-714.733	-59.137	-0.223	-0.098
-713.718	-33.494	0.146	-0.082
-712.704	-78.191	-0.355	-0.124
-711.689	44.822	0.164	-0.153
-710.675	-200.000	-0.031	0.362
-709.660	-200.000	0.014	-0.272
-708.645	-46.679	0.323	-0.161
-707.631	-150.582	0.199	-0.015
-706.616	111.804	0.051	-0.062
-705.602	-25.743	-0.161	0.096
-704.587	18.096	0.092	0.074
-703.572	800.000	0.085	-0.359
-702.558	712.428	-0.029	-0.077
-701.543	28.233	-0.142	0.122
-700.529	-200.000	0.004	-0.106
-699.514	15.937	0.169	-0.135
-698.499	-87.239	0.322	-0.099
-697.485	339.402	0.140	-0.276
-696.470	-166.773	-0.201	0.008
-695.456	800.000	-0.102	-0.306
-694.441	-113.654	-0.091	-0.018
-693.426	800.000	0.128	0.387
-692.412	800.000	-0.061	-0.187
-691.397	-200.000	-0.036	-0.162
-690.383	45.100	-0.218	-0.204
-689.368	-200.000	0.010	0.299
-688.354	-35.329	-0.230	-0.127
-687.339	-200.000	0.011	0.172
-686.324	-4.996	-0.321	0.224
-685.310	184.703	0.213	-0.319
-684.295	-200.000	-0.029	-0.158
-683.281	-200.000	0.041	-0.255
-682.266	-124.821	0.158	0.025
-681.251	-85.719	-0.198	0.062
-680.237	-25.215	-0.167	-0.101
-679.222	-102.153	-0.403	0.098
-678.208	-52.437	0.060	0.028
-677.193	-62.182	-0.295	0.125
-676.178	16.782	-0.033	-0.027
-675.164	800.000	-0.059	0.249
-674.149	148.540	0.358	-0.490
-673.135	387.657	0.070	-0.147
-672.120	-61.647	-0.187	0.079
-671.105	800.000	0.076	-0.233
-670.091	-33.761	-0.370	-0.207
-669.076	80.547	0.091	0.099
-668.062	725.172	-0.059	0.158
-667.047	585.458	-0.134	-0.333
-666.032	314.436	-0.067	-0.127
-665.018	-183.894	0.136	0.002
-664.003	66.603	-0.227	-0.234
-662.989	338.816	-0.073	-0.144
-661.974	-172.832	-0.216	0.007
-660.959	433.473	0.165	0.363
-659.945	141.959	-0.102	0.137
-658.930	800.000	0.065	0.223
-657.916	320.100	0.039	-0.074
-656.901	-154.859	0.471	-0.031
-655.886	-97.170	-0.193	-0.051
-654.872	-200.000	0.069	-0.595
-653.857	800.000	-0.129	-0.380
-652.843	-2.969	0.130	0.092
-651.828	151.168	-0.172	0.237
-650.814	-90.506	0.222	0.065
-649.799	81.033	-0.170	0.185
-648.784	800.000	0.087	-0.265
-647.770	-8.589	0.243	0.165
-646.755	-7.316	0.092	0.063
-645.741	-200.000	0.031	0.253
-644.726	173.665	0.074	-0.108
-643.711	-167.280	-0.355	0.015
-642.697	230.810	-0.084	-0.139
-641.682	-18.011	0.059	-0.038
-640.668	-83.312	-0.320	0.104
-639.653	33.354	-0.396	0.348
-638.638	-200.000	-0.033	-0.225
-637.624	-200.000	0.027	-0.157
-636.609	-200.000	-0.048	0.291
-635.595	-96.244	-0.050	0.013
-634.580	-96.985	0.256	0.068
-633.565	566.853	-0.072	0.178
-632.551	-200.000	-0.020	0.156
-631.536	-165.783	0.183	0.008
-630.522	800.000	0.114	-0.435
-629.507	-200.000	0.084	-0.387
-628.492	223.207	-0.070	0.115
-627.478	-200.000	0.034	0.308
-626.463	-145.524	-0.075	0.007
-625.449	-0.844	-0.279	-0.200
-624.434	447.124	-0.110	-0.246
-623.419	-200.000	0.003	-0.265
-622.405	191.624	-0.099	-0.151
-621.390	-101.486	0.187	-0.046
-620.376	-112.117	-0.063	0.013
-619.361	-200.000	0.027	0.231
-618.346	-93.072	-0.104	0.029
-617.332	66.930	-0.080	0.082
-616.317	800.000	0.084	0.344
-615.303	-16.919	0.415	0.265
-614.288	-48.673	-0.087	-0.042
-613.273	800.000	0.009	-0.028
-612.259	241.065	-0.157	-0.264
-611.244	800.000	0.056	-0.181
-610.230	-73.520	-0.142	0.052
-609.215	-126.866	0.110	-0.016
-608.201	-50.144	-0.121	0.058
-607.186	626.940	-0.035	0.090
-606.171	-53.333	-0.050	0.023
-605.157	-103.321	-0.144	0.034
-604.142	-12.779	-0.124	0.082
-603.128	123.231	-0.202	-0.256
-602.113	-200.000	0.012	0.141
-601.098	800.000	0.049	0.178
-600.084	-12.263	0.220	0.145
-599.069	264.068	0.122	-0.214
-598.055	186.202	0.041	0.062
-597.040	61.418	-0.167	0.168
-596.025	-200.000	-0.030	-0.261
-595.011	32.237	-0.182	0.159
-593.996	-200.000	0.005	0.208
-592.982	-141.605	-0.141	0.014
-591.967	60.003	-0.080	-0.080
-590.952	114.817	-0.101	-0.124
-589.938	-8.516	-0.212	-0.144
-588.923	-1.092	-0.254	-0.182
-587.909	-55.203	-0.130	-0.059
-586.894	-91.670	-0.156	-0.045
-585.879	97.021	0.119	0.138
-584.865	678.471	-0.049	0.130
-583.850	6.444	-0.216	-0.162
-582.836	800.000	-0.087	-0.269
-581.821	43.305	-0.184	0.170
-580.806	-4.489	0.203	-0.141
-579.792	476.686	0.103	0.234
-578.777	417.156	0.112	-0.242
-577.763	642.558	-0.011	0.027
-576.748	150.223	-0.231	0.317
-575.733	203.446	-0.131	0.204
-574.719	-18.745	0.225	0.141
-573.704	-21.910	-0.144	-0.089
-572.690	-108.375	0.232	-0.051
-571.675	30.216	-0.101	-0.087
-570.661	-200.000	-0.025	-0.131
-569.646	102.706	0.145	-0.171
-568.631	800.000	0.037	-0.107
-567.617	86.938	0.282	0.315
-566.602	366.480	0.008	-0.015
-565.588	103.610	-0.088	0.104
-564.573	437.846	0.055	-0.120
-563.558	-65.113	-0.248	-0.101
-562.544	-62.018	0.241	-0.101
-561.529	185.492	-0.077	0.115
-560.515	-1.631	0.191	0.136
-559.500	4.517	-0.165	-0.122
-558.485	449.665	0.102	0.227
-557.471	-142.402	-0.213	0.021
-556.456	-200.000	-0.034	-0.426
-555.442	-200.000	0.031	0.162
-554.427	464.132	-0.181	-0.408
-553.412	-200.000	0.001	-0.193
-552.398	800.000	-0.053	0.215
-551.383	446.784	-0.017	-0.037
-550.369	-61.713	0.103	-0.044
-549.354	-17.803	-0.084	0.053
-548.339	-200.000	-0.027	0.248
-547.325	-2.145	-0.194	-0.137
-546.310	61.701	0.078	-0.078
-545.296	644.243	0.077	0.197
-544.281	-62.574	-0.147	0.061
-543.266	-23.903	0.151	-0.091
-542.252	469.788	-0.037	-0.083
-541.237	381.175	0.059	0.122
-540.223	106.911	0.246	0.294
-539.208	-42.760	0.107	-0.055
-538.193	-171.508	-0.439	-0.015
-537.179	146.034	-0.252	0.340
-536.164	-122.981	-0.129	0.021
-535.150	-44.590	-0.126	-0.063
-534.135	91.320	0.089	0.100
-533.121	249.764	0.149	-0.255
-532.106	-103.665	0.058	0.014
-531.091	-93.759	0.072	0.020
-530.077	124.169	-0.169	0.214
-529.062	800.000	0.050	-0.178
-528.048	52.906	0.286	-0.276
-527.033	525.424	-0.031	0.075
-526.018	325.252	-0.104	0.201
-525.004	621.522	0.099	0.250
-523.989	-69.608	0.172	-0.066
-522.975	122.452	0.189	-0.238
-521.960	-126.584	-0.382	0.057
-520.945	-138.025	-0.159	-0.018
-519.931	-200.000	0.070	-0.000
-518.916	-89.724	-0.224	-0.066
-517.902	46.821	0.084	0.078
-516.887	150.870	0.070	0.096
-515.872	-135.949	0.214	-0.025
-514.858	-154.617	0.046	0.003
-513.843	10.336	0.249	0.191
-512.829	212.025	-0.057	0.090
-511.814	513.839	-0.214	-0.502
-510.799	800.000	0.117	-0.393
-509.785	660.699	0.104	0.271
-508.770	14.758	-0.085	0.067
-507.756	-93.446	0.019	0.005
-506.741	-96.408	0.251	-0.067
-505.726	-59.259	-0.167	0.072
-504.712	-200.000	0.029	0.265
-503.697	-90.196	-0.141	-0.041
-502.683	71.571	0.094	-0.098
-501.668	-92.147	-0.245	-0.070
-500.653	-93.017	-0.078	0.022
-499.639	544.754	0.020	-0.049
-498.624	609.655	0.080	-0.202
-497.610	-29.828	-0.012	-0.007
-496.595	-34.484	-0.189	0.104
-495.581	-200.000	0.018	0.284
-494.566	28.381	0.206	0.175
-493.551	-97.005	0.247	-0.065
-492.537	-54.465	-0.171	0.078
-491.522	-165.010	0.026	0.001
-490.508	-75.172	0.159	0.057
-489.493	109.501	-0.100	0.120
-488.478	-81.263	-0.159	0.053
-487.464	-64.035	-0.153	0.063
-486.449	585.393	0.086	0.212
-485.435	247.515	0.176	0.299
-484.420	8.211	0.301	-0.228
-483.405	-60.597	0.184	0.078
-482.391	-139.880	0.195	0.021
-481.376	133.665	-0.119	-0.154
-480.362	-37.655	0.203	-0.109
-479.347	-200.000	0.058	-0.315
-478.332	-94.305	0.208	-0.057
-477.318	-4.153	0.334	-0.232
-476.303	-26.729	-0.092	0.054
-475.289	6.349	-0.122	0.091
-474.274	243.099	0.156	-0.262
-473.259	-69.331	-0.406	0.157
-472.245	132.892	-0.141	0.183
-471.230	655.861	0.146	0.376
-470.216	135.262	-0.128	-0.168
-469.201	74.885	0.169	0.179
-468.186	-111.605	0.043	0.009
-467.172	-124.870	-0.186	-0.029
-466.157	800.000	-0.062	0.228
-465.143	7.161	0.467	-0.350
-464.128	113.815	0.043	-0.052
-463.113	-200.000	-0.026	0.281
-462.099	88.301	0.123	0.137
-461.084	266.480	-0.145	-0.255
-460.070	-200.000	-0.011	0.241
-459.055	309.777	-0.077	0.145
-458.040	-200.000	0.017	0.155
-457.026	44.933	0.303	0.280
-456.011	-51.001	0.225	0.106
-454.997	175.545	-0.078	0.114
-453.982	-169.683	0.095	-0.003
-452.968	8.373	-0.224	0.169
-451.953	-200.000	0.013	-0.167
-450.938	-131.023	-0.350	0.047
-449.924	3.893	-0.229	-0.168
-448.909	131.018	0.185	0.238
-447.895	-125.385	0.102	-0.016
-446.880	78.589	0.155	-0.166
-445.865	8.034	0.143	-0.108
-444.851	-31.918	-0.151	-0.085
-443.836	18.930	-0.265	0.213
-442.822	-181.197	-0.267	0.005
-441.807	-200.000	-0.071	0.317
-440.792	-72.080	-0.238	-0.089
-439.778	58.277	0.126	-0.124
-438.763	310.344	0.085	-0.160
-437.749	-187.032	-0.175	-0.002
-436.734	43.025	-0.193	0.177
-435.719	81.631	-0.137	-0.149
-434.705	-96.149	-0.145	-0.039
-433.690	179.154	0.256	0.376
-432.676	101.451	-0.211	-0.247
-431.661	800.000	0.009	-0.027
-430.646	-136.707	-0.141	0.016
-429.632	162.299	-0.200	0.281
-428.617	-81.390	0.108	-0.036
-427.603	-131.495	0.258	-0.034
-426.588	-200.000	-0.028	0.183
-425.573	79.850	-0.122	0.132
-424.559	-72.442	-0.437	-0.162
-423.544	-21.397	-0.108	-0.066
-422.530	53.011	-0.086	0.082
-421.515	-200.000	0.038	-0.193
-420.500	504.169	0.079	0.182
-419.486	-15.020	-0.429	-0.276
-418.471	-200.000	-0.029	0.163
-417.457	800.000	0.063	0.196
-416.442	53.243	0.088	-0.084
-415.428	800.000	-0.101	0.392
-414.413	214.709	0.094	0.149
-413.398	-144.880	0.122	0.011
-412.384	800.000	0.017	-0.060
-411.369	728.393	-0.080	-0.215
-410.355	7.703	0.175	0.131
-409.340	-138.886	0.235	-0.026
-408.325	18.286	-0.217	-0.174
-407.311	-70.357	0.125	0.047
-406.296	-138.763	0.220	-0.024
-405.282	-170.146	0.352	-0.012
-404.267	458.460	0.065	0.145
-403.252	58.441	0.321	-0.315
-402.238	-143.249	-0.249	-0.024
-401.223	-200.000	-0.002	0.104
-400.209	-89.056	-0.140	0.041
-399.194	60.085	0.111	0.110
-398.179	21.264	-0.155	-0.126
-397.165	120.943	-0.074	0.092
-396.150	-90.388	0.156	0.045
-395.136	-200.000	0.007	0.074
-394.121	649.314	-0.151	-0.386
-393.106	759.768	-0.092	0.249
-392.092	136.322	-0.165	0.215
-391.077	326.470	-0.169	0.325
-390.063	-28.656	0.356	-0.205
-389.048	800.000	-0.114	-0.372
-388.033	6.964	-0.339	0.253
-387.019	68.034	-0.113	0.116
-386.004	652.327	0.103	-0.264
-384.990	239.347	0.107	-0.178
-383.975	57.313	-0.153	-0.149
-382.960	-200.000	0.017	0.404
-381.946	-85.850	0.108	0.034
-380.931	6.278	0.337	0.250
-379.917	-97.254	0.037	0.010
-378.902	-200.000	0.016	0.189
-377.888	-40.596	-0.300	-0.156
-376.873	-191.977	0.346	0.003
-375.858	-54.771	0.211	-0.096
-374.844	17.357	-0.167	-0.132
-373.829	800.000	-0.013	0.043
-372.815	0.979	0.241	0.173
-371.800	290.586	0.110	0.199
-370.785	-39.542	-0.394	0.207
-369.771	244.275	0.232	0.391
-368.756	-200.000	0.084	-0.417
-367.742	-115.935	-0.239	-0.045
-366.727	270.433	0.066	-0.116
-365.712	-200.000	0.023	-0.369
-364.698	140.235	0.139	-0.183
-363.683	35.791	-0.309	0.272
-362.669	194.829	0.155	-0.235
-361.654	213.704	0.206	-0.326
-360.639	-52.801	0.341	-0.157
-359.625	800.000	0.101	0.310
-358.610	-64.434	-0.282	-0.115
-357.596	147.910	0.304	-0.411
-356.581	418.835	-0.095	-0.204
-355.566	221.385	0.122	-0.196
-354.552	19.225	0.210	0.169
-353.537	48.740	0.369	0.347
-352.523	-9.326	0.020	-0.013
-351.508	-5.579	-0.192	0.132
-350.493	26.590	-0.122	-0.102
-349.479	592.509	0.085	0.210
-348.464	-200.000	0.007	-0.248
-347.450	-44.127	-0.115	-0.058
-346.435	-147.136	-0.254	-0.022
-345.420	-19.329	0.312	-0.194
-344.406	352.556	0.061	-0.120
-343.391	218.513	-0.073	-0.117
-342.377	164.628	-0.131	-0.185
-341.362	-92.269	0.107	-0.030
-340.348	14.298	-0.260	-0.203
-339.333	376.874	-0.015	0.030
-338.318	-122.678	0.329	0.053
-337.304	-42.724	0.267	-0.136
-336.289	97.974	-0.097	-0.112
-335.275	-200.000	0.016	-0.219
-334.260	4.923	-0.436	0.321
-333.245	17.769	0.270	0.214
-332.231	-200.000	-0.040	-0.234
-331.216	-200.000	0.010	-0.078
-330.202	96.890	0.128	-0.146
-329.187	-60.517	-0.420	0.178
-328.172	-200.000	0.011	-0.056
-327.158	-91.050	0.152	0.044
-326.143	-145.775	0.381	0.034
-325.129	-200.000	-0.009	-0.084
-324.114	264.507	-0.112	-0.195
-323.099	4.338	-0.199	-0.146
-322.085	780.971	0.061	0.167
-321.070	23.075	0.074	0.060
-320.056	-88.058	-0.057	0.017
-319.041	-25.123	0.102	-0.060
-318.026	60.073	0.262	0.259
-317.012	335.133	-0.025	-0.048
-315.997	391.783	0.112	0.233
-314.983	-124.976	0.095	0.015
-313.968	479.755	0.113	-0.255
-312.953	36.117	-0.282	-0.248
-311.939	27.477	0.249	-0.209
-310.924	206.096	0.129	-0.201
-309.910	-200.000	0.040	-0.381
-308.895	-200.000	-0.023	0.386
-307.880	24.485	-0.183	0.151
-306.866	-144.463	0.192	0.018
-305.851	-62.138	0.171	0.071
-304.837	741.804	-0.034	0.091
-303.822	-23.108	-0.169	-0.102
-302.807	-200.000	-0.028	0.157
-301.793	-54.765	-0.164	0.074
-300.778	-183.986	-0.072	-0.001
-299.764	800.000	0.045	-0.148
-298.749	-200.000	0.028	-0.136
-297.735	800.000	-0.032	0.095
-296.720	36.706	0.034	-0.030
-295.705	-200.000	0.012	0.060
-294.691	229.347	0.078	-0.127
-293.676	191.505	-0.198	-0.297
-292.662	430.283	-0.060	-0.131
-291.647	395.091	0.097	-0.201
-290.632	85.732	0.100	-0.110
-289.618	279.614	-0.080	0.143
-288.603	693.256	-0.077	0.201
-287.589	800.000	-0.093	-0.275
-286.574	721.100	-0.051	0.134
-285.559	-136.879	-0.495	0.057
-284.545	53.053	-0.294	-0.281
-283.530	-51.074	0.121	-0.057
-282.516	-46.217	-0.293	-0.144
-281.501	62.349	0.129	-0.129
-280.486	43.649	0.210	0.191
-279.472	0.164	0.189	-0.135
-278.457	171.626	-0.096	-0.138
-277.443	117.602	-0.115	0.142
-276.428	-23.918	0.175	0.104
-275.413	65.985	-0.049	-0.049
-274.399	-200.000	0.005	-0.028
-273.384	-40.768	0.129	-0.067
-272.370	-200.000	0.007	-0.249
-271.355	-57.655	-0.160	0.070
-270.340	-200.000	0.037	-0.350
-269.326	63.872	-0.079	0.079
-268.311	-107.782	0.227	0.049
-267.297	424.563	-0.058	-0.125
-266.282	-200.000	0.018	-0.144
-265.267	-12.731	0.164	-0.106
-264.253	-200.000	-0.030	-0.167
-263.238	495.497	0.050	-0.116
-262.224	15.563	0.142	-0.111
-261.209	-142.199	-0.054	0.005
-260.195	-109.339	-0.149	0.032
-259.180	146.704	-0.163	-0.219
-258.165	800.000	-0.033	0.113
-257.151	-50.702	0.082	-0.039
-256.136	-107.041	0.044	-0.010
-255.122	-112.160	0.312	-0.062
-254.107	68.958	0.128	0.131
-253.092	-39.217	0.156	0.082
-252.078	694.870	-0.082	0.216
-251.063	498.522	0.064	0.148
-250.049	-136.593	-0.245	0.028
-249.034	4.762	-0.225	0.165
-248.019	-97.712	0.250	0.064
-247.005	14.884	-0.168	0.131
-245.990	335.216	0.173	-0.334
-244.976	88.732	0.161	0.178
-243.961	16.158	-0.104	0.082
-242.946	-98.336	0.332	-0.085
-241.932	-189.885	-0.133	-0.001
-240.917	-122.733	-0.394	-0.063
-239.903	800.000	0.083	-0.259
-238.888	445.038	0.189	-0.414
-237.873	17.947	-0.215	-0.170
-236.859	800.000	-0.046	-0.191
-235.844	178.004	-0.074	0.107
-234.830	81.249	-0.123	-0.132
-233.815	7.035	-0.130	0.096
-232.800	-200.000	-0.040	-0.249
-231.786	-104.373	0.093	0.021
-230.771	-200.000	0.135	-0.000
-229.757	11.861	-0.270	-0.207
-228.742	228.101	-0.080	-0.129
-227.727	427.568	0.129	-0.278
-226.713	-73.358	-0.202	-0.074
-225.698	170.182	-0.140	0.200
-224.684	81.605	-0.091	0.098
-223.669	120.295	-0.191	-0.236
-222.655	800.000	-0.033	0.112
-221.640	1.185	-0.303	0.217
-220.625	-91.566	-0.041	0.012
-219.611	800.000	0.105	0.299
-218.596	-118.367	-0.186	0.033
-217.582	133.201	-0.091	0.117
-216.567	-200.000	0.063	0.292
-215.552	-200.000	0.013	0.092
-214.538	154.317	-0.067	-0.092
-213.523	740.223	-0.078	0.209
-212.509	606.594	0.032	-0.080
-211.494	800.000	0.031	-0.129
-210.479	800.000	-0.046	0.190
-209.465	-71.744	0.187	-0.070
-208.450	-200.000	-0.027	-0.281
-207.436	17.620	0.112	0.088
-206.421	245.055	0.234	0.392
-205.406	484.327	0.140	0.316
-204.392	-150.891	-0.129	-0.010
-203.377	173.016	0.120	-0.173
-202.363	26.833	0.287	0.239
-201.348	-35.462	0.081	-0.044
-200.333	-33.779	0.086	0.047
-199.319	800.000	0.004	-0.018
-198.304	-200.000	-0.012	0.061
-197.290	364.998	-0.145	-0.290
-196.275	-75.053	-0.156	-0.056
-195.260	-153.327	0.321	0.022
-194.246	79.313	-0.117	0.125
-193.231	-142.458	0.235	0.023
-192.217	8.529	-0.226	-0.169
-191.202	800.000	0.040	0.131
-190.187	7.612	0.210	0.156
-189.173	-54.042	0.083	0.038
-188.158	150.557	-0.091	0.122
-187.144	-41.946	0.223	-0.114
-186.129	21.420	0.212	0.171
-185.114	-175.211	0.184	-0.005
-184.100	123.418	0.102	0.127
-183.085	616.690	-0.083	-0.206
-182.071	-146.790	0.080	-0.007
-181.056	800.000	0.060	0.187
-180.042	-134.092	-0.125	0.015
-179.027	87.392	-0.192	-0.212
-178.012	-200.000	0.005	0.297
-176.998	498.948	0.050	0.115
-175.983	-138.941	0.259	-0.028
-174.969	-39.025	0.321	-0.168
-173.954	-97.549	-0.156	-0.040
-172.939	-86.607	0.015	-0.005
-171.925	-86.325	0.140	0.043
-170.910	103.780	-0.028	0.033
-169.896	-107.380	-0.168	0.037
-168.881	-47.633	-0.108	0.052
-167.866	-124.684	-0.024	-0.004
-166.852	228.145	-0.045	-0.073
-165.837	758.848	0.110	0.297
-164.823	13.276	0.245	0.188
-163.808	-6.031	0.198	-0.134
-162.793	558.710	0.048	-0.114
-161.779	82.887	0.084	0.090
-160.764	-62.181	-0.159	0.066
-159.750	-12.517	-0.075	-0.049
-158.735	396.219	0.205	0.426
-157.720	-168.541	0.183	0.007
-156.706	240.332	-0.037	0.062
-155.691	-200.000	0.002	0.099
-154.677	-114.037	0.146	0.028
-153.662	-48.987	-0.351	0.167
-152.647	-200.000	0.012	-0.258
-151.633	359.974	0.120	-0.239
-150.618	-88.832	-0.352	-0.104
-149.604	-200.000	-0.014	0.091
-148.589	-200.000	-0.015	-0.115
-147.574	-80.362	-0.155	-0.051
-146.560	-23.036	-0.252	0.150
-145.545	217.190	-0.065	-0.102
-144.531	37.865	0.225	-0.198
-143.516	115.654	0.030	-0.037
-142.502	-34.196	0.212	-0.116
-141.487	590.800	0.065	-0.160
-140.472	306.440	-0.117	0.216
-139.458	-84.197	0.146	0.046
-138.443	134.469	-0.134	-0.173
-137.429	-13.453	0.150	0.097
-136.414	-200.000	-0.020	0.280
-135.399	-200.000	-0.038	0.310
-134.385	215.048	0.081	0.128
-133.370	800.000	0.037	-0.159
-132.356	192.623	0.129	0.193
-131.341	155.566	-0.070	0.096
-130.326	-123.178	-0.119	-0.019
-129.312	127.169	-0.173	0.218
-128.297	-200.000	-0.033	0.331
-127.283	-200.000	-0.002	-0.210
-126.268	800.000	-0.051	0.192
-125.253	-114.955	-0.162	0.031
-124.239	721.740	0.053	-0.140
-123.224	8.055	-0.278	-0.207
-122.210	-113.215	-0.263	-0.051
-121.195	800.000	0.030	-0.115
-120.180	100.989	0.192	0.222
-119.166	706.247	0.112	0.294
-118.151	633.252	-0.136	0.342
-117.137	140.215	-0.017	0.022
-116.122	-200.000	0.030	0.454
-115.107	29.087	0.159	-0.134
-114.093	86.823	0.238	0.261
-113.078	372.648	0.026	0.052
-112.064	-200.000	0.001	-0.366
-111.049	-74.687	-0.408	-0.145
-110.034	80.156	0.226	-0.241
-109.020	-93.139	0.122	0.034
-108.005	-200.000	-0.002	-0.122
-106.991	800.000	0.073	0.290
-105.976	-200.000	0.012	-0.505
-104.962	312.573	-0.042	-0.078
-103.947	46.599	0.281	-0.259
-102.932	-105.221	-0.067	-0.015
-101.918	-124.395	0.054	-0.008
-100.903	-103.722	-0.119	0.028
-99.889	-166.534	0.251	-0.010
-98.874	99.501	0.155	0.178
-97.859	95.684	-0.135	0.153
-96.845	-105.585	0.103	0.023
-95.830	-125.917	-0.417	0.062
-94.816	172.003	0.121	-0.172
-93.801	-52.689	0.256	0.117
-92.786	27.533	0.326	-0.272
-91.772	800.000	0.020	0.082
-90.757	-19.240	0.090	-0.055
-89.743	117.174	-0.068	0.083
-88.728	800.000	0.035	0.118
-87.713	-19.298	-0.238	0.146
-86.699	-114.308	0.350	-0.067
-85.684	-200.000	-0.005	-0.298
-84.670	-200.000	0.026	0.269
-83.655	-123.903	0.210	0.033
-82.640	-17.498	-0.276	-0.172
-81.626	23.147	-0.139	0.113
-80.611	-99.282	0.189	-0.047
-79.597	-80.395	0.221	0.073
-78.582	-51.908	0.141	0.065
-77.567	-27.891	0.462	0.265
-76.553	-35.782	-0.250	0.134
-75.538	42.209	-0.080	-0.072
-74.524	-10.415	0.071	-0.047
-73.509	-64.517	0.063	-0.025
-72.494	-77.799	0.358	0.122
-71.480	-118.076	0.233	-0.041
-70.465	-200.000	-0.004	0.187
-69.451	-167.768	0.064	0.003
-68.436	84.745	0.193	0.209
-67.422	107.854	-0.071	-0.083
-66.407	39.125	-0.143	0.126
-65.392	213.537	0.035	0.055
-64.378	-200.000	0.056	0.299
-63.363	130.764	0.209	0.265
-62.349	-200.000	-0.007	0.207
-61.334	103.716	-0.895	-1.040
-60.319	425.257	0.322	0.686
-59.305	549.669	-0.454	-1.077
-58.290	310.985	0.586	1.086
-57.276	490.119	0.590	1.334
-56.261	-200.000	96.781	595.193
-55.246	547.607	1368.554	3240.015
-54.232	158.696	2555.061	3509.177
-53.217	102.760	2297.653	2659.590
-52.203	38.336	2060.186	1814.875
-51.188	33.465	1975.092	1696.370
-50.173	31.870	1957.401	1666.942
-49.159	46.913	2006.413	1844.375
-48.144	48.180	2024.309	1872.166
-47.130	34.105	1986.459	1711.618
-46.115	31.788	1975.864	1681.654
-45.100	31.666	1973.185	1678.213
-44.086	31.610	1971.096	1675.876
-43.071	31.584	1968.143	1673.068
-42.057	31.475	1966.334	1670.489
-41.042	31.564	1964.563	1669.713
-40.027	31.632	1961.775	1667.876
-39.013	31.715	1959.740	1666.818
-37.998	31.667	1958.387	1665.174
-36.984	31.642	1956.594	1663.363
-35.969	31.694	1954.402	1661.894
-34.954	31.758	1952.522	1660.802
-33.940	31.809	1951.017	1659.901
-32.925	31.844	1949.601	1658.942
-31.911	31.720	1947.835	1656.278
-30.896	31.755	1946.438	1655.337
-29.881	31.840	1944.739	1654.572
-28.867	31.734	1943.831	1652.797
-27.852	31.806	1941.674	1651.536
-26.838	31.800	1939.754	1649.788
-25.823	31.708	1938.018	1647.437
-24.809	31.675	1936.713	1645.969
-23.794	31.797	1934.503	1645.094
-22.779	31.783	1932.593	1643.280
-21.765	31.824	1930.797	1642.049
-20.750	31.725	1929.217	1639.771
-19.736	31.756	1927.652	1638.653
-18.721	31.759	1926.232	1637.405
-17.706	31.757	1924.876	1636.167
-16.692	31.729	1923.455	1634.652
-15.677	31.804	1921.960	1633.973
-14.663	31.728	1921.057	1632.475
-13.648	31.779	1919.431	1631.473
-12.633	31.777	1917.621	1629.850
-11.619	31.749	1916.730	1628.789
-10.604	31.742	1915.217	1627.381
-9.590	31.787	1913.830	1626.528
-8.575	31.833	1911.897	1625.213
-7.560	31.764	1911.420	1624.145
-6.546	31.737	1909.579	1622.286
-5.531	31.755	1908.940	1621.837
-4.517	31.805	1907.345	1620.845
-3.502	31.750	1906.660	1619.729
-2.487	31.706	1905.204	1618.046
-1.473	31.781	1904.031	1617.633
-0.458	31.861	1899.331	1614.259
0.556	31.779	1880.118	1588.387
1.571	27.940	1862.643	1541.170
2.586	24.335	1885.664	1529.235
3.600	23.489	1921.647	1550.879
4.615	22.985	1916.574	1542.257
5.629	17.012	1812.542	1408.961
6.644	6.915	1691.644	1236.249
7.659	2.207	1654.589	1172.983
8.673	1.801	1651.571	1167.630
9.688	1.818	1649.668	1166.312
10.702	1.727	1648.112	1164.408
11.717	1.555	1644.750	1160.618
12.731	2.037	1643.931	1163.617
13.746	8.711	1660.891	1226.798
14.761	19.318	1685.075	1326.601
15.775	25.062	1695.369	1378.921
16.790	26.399	1696.381	1389.911
17.804	26.417	1696.519	1390.034
18.819	26.465	1695.214	1389.215
19.834	26.613	1695.217	1390.231
20.848	26.823	1694.491	1391.123
21.863	26.872	1693.375	1390.459
22.877	26.971	1692.292	1390.207
23.892	26.916	1691.667	1389.146
24.907	26.936	1691.019	1388.648
25.921	26.940	1689.363	1387.192
26.936	26.927	1688.450	1386.218
27.950	26.987	1687.538	1385.808
28.965	27.000	1686.862	1385.230
29.980	26.924	1685.829	1383.682
30.994	26.946	1684.660	1382.762
32.009	26.913	1683.562	1381.490
33.023	26.940	1682.709	1380.874
34.038	26.954	1681.543	1379.900
35.053	26.892	1681.057	1378.907
36.067	26.965	1679.611	1378.150
37.082	26.919	1678.918	1377.116
38.096	26.942	1677.972	1376.389
39.111	26.926	1677.059	1375.400
40.126	26.971	1676.481	1375.146
41.140	26.966	1675.611	1374.269
42.155	26.906	1674.617	1372.877
43.169	26.902	1673.324	1371.665
44.184	26.950	1672.281	1371.054
45.199	26.946	1671.209	1370.027
46.213	26.883	1670.084	1368.508
47.228	26.880	1669.371	1367.776
48.242	26.867	1667.865	1366.326
49.257	26.899	1666.683	1365.479
50.271	26.940	1665.399	1364.611
51.286	26.957	1664.252	1363.678
52.301	26.956	1662.854	1362.403
53.315	26.916	1661.438	1360.825
54.330	26.896	1660.184	1359.527
55.344	26.813	1659.103	1357.901
56.359	26.952	1657.388	1357.417
57.374	26.882	1656.965	1356.427
58.388	26.975	1655.337	1355.669
59.403	26.976	1654.435	1354.815
60.417	26.975	1653.241	1353.709
61.432	26.906	1652.068	1352.115
62.447	26.866	1651.487	1351.223
63.461	26.938	1650.119	1350.520
64.476	26.994	1649.246	1350.102
65.490	26.949	1648.441	1348.990
66.505	26.947	1647.099	1347.761
67.520	27.058	1646.228	1347.748
68.534	26.932	1645.434	1346.044
69.549	27.018	1643.811	1345.235
70.563	26.938	1643.299	1344.109
71.578	26.975	1641.870	1343.090
72.593	27.010	1640.960	1342.492
73.607	27.093	1640.035	1342.225
74.622	27.007	1639.161	1340.759
75.636	26.930	1638.944	1339.890
76.651	26.928	1638.037	1339.015
77.666	26.883	1637.243	1337.915
78.680	26.918	1635.793	1336.873
79.695	26.853	1635.789	1336.269
80.709	26.876	1634.893	1335.594
81.724	26.882	1633.719	1334.561
82.739	27.070	1632.448	1334.786
83.753	27.001	1631.517	1333.401
84.768	26.911	1630.710	1331.957
85.782	26.876	1629.900	1330.919
86.797	26.942	1628.949	1330.516
87.812	26.967	1627.972	1329.781
88.826	26.891	1627.302	1328.556
89.841	27.049	1625.877	1328.437
90.855	26.929	1625.794	1327.371
91.870	26.897	1624.312	1325.811
92.884	27.028	1623.136	1325.686
93.899	26.954	1622.383	1324.417
94.914	26.999	1620.870	1323.395
95.928	27.057	1619.475	1322.556
96.943	27.011	1618.499	1321.311
97.957	27.050	1617.423	1320.595
98.972	26.983	1616.058	1318.876
99.987	27.027	1614.392	1317.721
101.001	27.053	1613.098	1316.735
102.016	26.991	1611.411	1314.795
103.030	26.892	1610.608	1313.308
104.045	26.966	1609.677	1312.967
105.060	26.957	1608.529	1311.853
106.074	26.943	1607.205	1310.551
107.089	26.949	1605.770	1309.308
108.103	26.980	1604.705	1308.552
109.118	27.041	1603.469	1307.867
110.133	27.043	1602.308	1306.819
111.147	27.063	1601.363	1306.076
112.162	27.082	1600.334	1305.255
113.176	27.075	1598.937	1303.949
114.191	27.173	1597.660	1303.495
115.206	27.008	1597.192	1301.815
116.220	26.966	1595.944	1300.385
117.235	27.010	1594.593	1299.480
118.249	26.971	1593.702	1298.359
119.264	27.023	1592.371	1297.533
120.279	27.026	1590.955	1296.290
121.293	27.078	1589.904	1295.687
122.308	27.094	1588.603	1294.630
123.322	27.075	1587.248	1293.274
124.337	27.060	1586.268	1292.256
125.352	27.180	1585.027	1291.982
126.366	27.133	1584.058	1290.742
127.381	27.075	1583.599	1289.845
128.395	27.110	1582.863	1289.375
129.410	27.078	1581.816	1288.183
130.424	27.064	1580.654	1287.025
131.439	27.058	1579.367	1285.821
132.454	27.086	1577.869	1284.685
133.468	27.079	1576.744	1283.602
134.483	27.084	1575.721	1282.695
135.497	27.158	1574.308	1281.952
136.512	27.111	1572.902	1280.363
137.527	27.104	1572.157	1279.592
138.541	27.204	1570.968	1279.216
139.556	27.146	1569.972	1277.886
140.570	27.081	1568.780	1276.344
141.585	27.066	1567.576	1275.145
142.600	27.068	1566.439	1274.120
143.614	27.031	1565.641	1273.101
144.629	27.089	1564.231	1272.252
145.643	27.153	1562.871	1271.476
146.658	27.083	1561.749	1269.966
147.673	27.056	1559.995	1268.236
148.687	27.046	1559.562	1267.703
149.702	27.150	1558.431	1267.395
150.716	27.056	1557.491	1265.868
151.731	27.108	1556.205	1265.069
152.746	27.051	1555.737	1264.181
153.760	27.152	1553.920	1263.295
154.775	27.153	1553.039	1262.470
155.789	27.167	1551.807	1261.457
156.804	27.152	1551.065	1260.639
157.819	27.175	1549.537	1259.443
158.833	27.034	1549.017	1257.934
159.848	27.192	1547.930	1258.035
160.862	27.215	1546.791	1257.158
161.877	27.200	1545.968	1256.270
162.892	27.239	1544.802	1255.483
163.906	27.181	1544.157	1254.446
164.921	27.171	1543.168	1253.462
165.935	27.239	1542.118	1252.968
166.950	27.316	1540.905	1252.399
167.964	27.301	1540.125	1251.551
168.979	27.245	1539.285	1250.374
169.994	27.273	1538.163	1249.545
171.008	27.250	1537.464	1248.705
172.023	27.127	1536.972	1247.357
173.037	27.249	1535.731	1247.070
174.052	27.280	1534.378	1246.075
175.067	27.267	1533.430	1245.109
176.081	27.224	1532.147	1243.658
177.096	27.329	1531.698	1243.903
178.110	27.299	1530.369	1242.511
179.125	27.244	1529.624	1241.422
180.140	27.343	1528.510	1241.079
181.154	27.304	1527.861	1240.178
182.169	27.339	1526.698	1239.365
183.183	27.250	1526.138	1238.191
184.198	27.248	1524.909	1237.076
185.213	27.325	1524.276	1236.973
186.227	27.349	1523.075	1236.053
187.242	27.372	1522.574	1235.692
188.256	27.352	1521.508	1234.583
189.271	27.321	1520.980	1233.837
190.286	27.384	1519.789	1233.185
191.300	27.403	1519.256	1232.774
192.315	27.324	1518.733	1231.705
193.329	27.292	1517.739	1230.571
194.344	27.343	1516.486	1229.794
195.359	27.363	1515.951	1229.383
196.373	27.328	1515.287	1228.505
197.388	27.285	1514.323	1227.324
198.402	27.312	1513.059	1226.370
199.417	27.285	1511.913	1225.150
200.432	27.355	1510.966	1224.748
201.446	27.330	1510.629	1224.194
202.461	27.249	1509.798	1222.871
203.475	27.270	1509.312	1222.507
204.490	27.259	1507.907	1221.189
205.504	27.417	1506.413	1220.932
206.519	27.309	1505.908	1219.687
207.534	27.386	1505.310	1219.616
208.548	27.354	1504.979	1219.021
209.563	27.374	1503.398	1217.766
210.577	27.429	1502.413	1217.229
211.592	27.301	1502.328	1216.201
212.607	27.435	1501.360	1216.201
213.621	27.444	1500.884	1215.772
214.636	27.515	1500.181	1215.563
215.650	27.505	1498.846	1214.310
216.665	27.446	1498.257	1213.330
217.680	27.527	1497.208	1212.915
218.694	27.585	1496.303	1212.462
219.709	27.574	1495.285	1211.455
220.723	27.469	1494.835	1210.288
221.738	27.493	1493.960	1209.627
222.753	27.440	1493.456	1208.762
223.767	27.442	1492.243	1207.686
224.782	27.392	1491.452	1206.609
225.796	27.409	1490.512	1205.856
226.811	27.604	1489.778	1206.443
227.826	27.604	1489.291	1205.941
228.840	27.588	1488.381	1204.993
229.855	27.552	1488.017	1204.354
230.869	27.552	1486.686	1203.172
231.884	27.516	1485.967	1202.243
232.899	27.577	1484.697	1201.511
233.913	27.526	1483.742	1200.295
234.928	27.490	1482.859	1199.239
235.942	27.602	1481.867	1199.068
236.957	27.658	1481.063	1198.682
237.972	27.581	1479.864	1197.097
238.986	27.544	1478.711	1195.820
240.001	27.639	1478.078	1195.820
241.015	27.606	1477.171	1194.765
242.030	27.689	1476.266	1194.471
243.045	27.714	1476.013	1194.324
244.059	27.636	1474.777	1192.711
245.074	27.683	1473.442	1191.832
246.088	27.733	1472.678	1191.436
247.103	27.796	1472.551	1191.640
248.117	27.753	1471.750	1190.605
249.132	27.772	1470.378	1189.513
250.147	27.711	1470.060	1188.749
251.161	27.788	1469.156	1188.416
252.176	27.849	1468.583	1188.248
253.190	27.811	1467.475	1186.994
254.205	27.742	1467.172	1186.198
255.220	27.844	1465.734	1185.591
256.234	27.801	1465.318	1184.873
257.249	27.884	1464.720	1184.825
258.263	27.839	1464.083	1183.909
259.278	27.776	1462.703	1182.283
260.293	27.952	1461.679	1182.488
261.307	27.911	1461.171	1181.708
262.322	27.920	1460.845	1181.399
263.336	27.873	1460.060	1180.352
264.351	27.921	1458.570	1179.352
265.366	27.919	1458.011	1178.784
266.380	27.885	1457.169	1177.781
267.395	27.877	1456.271	1176.903
268.409	27.862	1455.836	1176.345
269.424	27.831	1454.948	1175.326
270.439	27.907	1453.697	1174.702
271.453	27.782	1453.126	1173.330
272.468	27.986	1452.141	1173.741
273.482	27.949	1451.854	1173.168
274.497	27.914	1450.974	1172.128
275.512	27.888	1449.877	1170.971
276.526	27.994	1448.756	1170.643
277.541	27.938	1448.105	1169.654
278.555	27.884	1447.932	1169.068
279.570	28.004	1446.819	1168.830
280.585	28.061	1446.128	1168.537
281.599	28.142	1445.006	1168.040
282.614	28.058	1443.836	1166.454
283.628	27.983	1442.833	1165.067
284.643	28.012	1442.428	1164.818
285.657	28.011	1441.333	1163.828
286.672	27.998	1440.475	1162.949
287.687	28.023	1440.286	1162.851
288.701	28.020	1438.936	1161.638
289.716	28.044	1438.442	1161.288
290.730	28.051	1438.301	1161.115
291.745	28.095	1436.866	1160.137
292.760	28.095	1435.992	1159.328
293.774	28.146	1434.795	1158.579
294.789	28.113	1434.004	1157.631
295.803	28.140	1433.502	1157.292
296.818	28.137	1432.670	1156.502
297.833	28.027	1432.047	1155.199
298.847	28.134	1430.897	1154.845
299.862	28.146	1430.431	1154.444
300.876	28.167	1429.502	1153.727
301.891	28.180	1428.344	1152.767
302.906	28.146	1427.970	1152.153
303.920	28.233	1427.258	1152.025
304.935	28.286	1426.745	1151.842
305.949	28.292	1425.828	1151.034
306.964	28.314	1425.145	1150.523
307.979	28.212	1424.415	1149.191
308.993	28.253	1423.348	1148.487
310.008	28.353	1422.247	1148.119
311.022	28.293	1421.502	1147.040
312.037	28.426	1420.093	1146.638
313.052	28.398	1419.720	1146.055
314.066	28.283	1418.858	1144.544
315.081	28.282	1417.904	1143.663
316.095	28.308	1416.764	1142.803
317.110	28.331	1416.191	1142.384
318.125	28.415	1415.128	1141.950
319.139	28.386	1414.700	1141.323
320.154	28.331	1414.071	1140.373
321.168	28.299	1412.871	1139.104
322.183	28.362	1412.165	1138.825
323.197	28.380	1411.013	1137.909
324.212	28.423	1410.444	1137.617
325.227	28.415	1409.599	1136.787
326.241	28.459	1408.613	1136.159
327.256	28.408	1407.906	1135.177
328.270	28.549	1406.984	1135.205
329.285	28.598	1405.921	1134.549
330.300	28.527	1405.650	1133.788
331.314	28.510	1404.712	1132.827
332.329	28.543	1403.897	1132.276
333.343	28.563	1403.169	1131.710
334.358	28.485	1402.671	1130.727
335.373	28.469	1402.400	1130.310
336.387	28.676	1401.317	1130.616
337.402	28.642	1400.426	1129.585
338.416	28.547	1400.181	1128.705
339.431	28.703	1399.511	1129.024
340.446	28.770	1398.680	1128.661
341.460	28.580	1397.881	1126.751
342.475	28.715	1396.622	1126.465
343.489	28.653	1396.059	1125.532
344.504	28.765	1394.925	1125.203
345.519	28.672	1394.091	1123.864
346.533	28.719	1393.392	1123.489
347.548	28.642	1392.662	1122.326
348.562	28.762	1391.346	1121.900
349.577	28.655	1390.934	1120.819
350.592	28.756	1389.962	1120.551
351.606	28.749	1389.363	1119.927
352.621	28.596	1388.291	1118.028
353.635	28.620	1387.640	1117.553
354.650	28.701	1386.792	1117.266
355.665	28.697	1385.782	1116.330
356.679	28.839	1384.524	1116.078
357.694	28.774	1383.915	1115.091
358.708	28.828	1382.704	1114.350
359.723	28.792	1381.923	1113.399
360.738	28.786	1380.699	1112.280
361.752	28.761	1379.470	1111.041
362.767	28.824	1378.368	1110.437
363.781	28.885	1377.475	1109.986
364.796	28.873	1376.953	1109.392
365.810	28.842	1376.600	1108.824
366.825	28.938	1376.042	1108.856
367.840	28.979	1374.737	1107.950
368.854	28.981	1373.984	1107.261
369.869	29.011	1373.590	1107.028
370.883	28.973	1372.975	1106.202
371.898	28.933	1372.274	1105.299
372.913	29.019	1371.760	1105.307
373.927	28.980	1370.764	1104.171
374.942	28.962	1370.401	1103.671
375.956	29.010	1369.555	1103.184
376.971	29.015	1368.688	1102.415
377.986	29.054	1367.750	1101.794
379.000	28.992	1367.419	1101.058
380.015	28.977	1366.832	1100.399
381.029	29.170	1365.479	1100.366
382.044	29.048	1365.319	1099.411
383.059	28.998	1364.698	1098.513
384.073	29.103	1363.959	1098.448
385.088	29.108	1363.540	1098.048
386.102	29.215	1362.703	1097.912
387.117	29.131	1361.936	1096.696
388.132	29.212	1361.333	1096.599
389.146	29.147	1360.456	1095.407
390.161	29.015	1360.159	1094.288
391.175	29.135	1359.669	1094.506
392.190	29.128	1358.827	1093.691
393.205	29.113	1358.103	1092.924
394.219	29.208	1357.177	1092.642
395.234	29.205	1355.977	1091.565
396.248	29.210	1355.112	1090.801
397.263	29.215	1354.106	1089.923
398.278	29.296	1352.846	1089.292
399.292	29.292	1351.994	1088.484
400.307	29.332	1351.540	1088.258
401.321	29.357	1350.079	1087.132
402.336	29.324	1349.315	1086.232
403.350	29.243	1348.803	1085.244
404.365	29.258	1347.188	1083.938
405.380	29.278	1346.902	1083.730
406.394	29.362	1345.958	1083.366
407.409	29.373	1345.247	1082.759
408.423	29.350	1344.570	1081.987
409.438	29.458	1343.886	1081.973
410.453	29.432	1343.459	1081.385
411.467	29.483	1342.395	1080.731
412.482	29.459	1342.305	1080.418
413.496	29.460	1341.300	1079.519
414.511	29.529	1340.542	1079.218
415.526	29.446	1340.066	1078.257
416.540	29.572	1339.027	1078.057
417.555	29.533	1338.287	1077.138
418.569	29.508	1338.304	1076.910
419.584	29.462	1338.077	1076.368
420.599	29.556	1336.830	1075.817
421.613	95.334	1355.163	1461.169
422.628	94.844	1357.827	1461.292
