DTS Sentinel unit serial number:	SN413079Multiplexer serial number:	ORYXHardware model number:	OX4-SRSoftware version number:	ORYX F/W v4.00 Oryx Data Collector v3.7.2.0data status	okinstallation	princeton_trtdifferential loss correction	single-endedforward channel	channel 4reverse channel	N/Adate	2019/09/16time	22:21:35forward acquisition time	60.00reverse acquisition time	0.00gamma	496.2192k internal	0.2313k external	0.2313temperature offset calibration	0.9967default loss term (dB/km)	0.3790temperature slope calibration	1.0000multiplexer offset coefficient	1.0000multiplexer slope coefficient	1.0000fibre end	0.00T internal ref (°C)	30.94T ext. ref 1 (°C)	0.08T ext. ref 2 (°C)	24.69length (m)	temperature (°C)	Stokes	anti-Stokes-747.200	800.000	-0.059	0.192
-746.185	86.479	-0.058	-0.065
-745.171	89.820	0.095	0.107
-744.156	800.000	0.075	0.248
-743.142	240.557	-0.169	0.285
-742.127	-2.394	-0.102	0.072
-741.112	-16.303	0.145	0.093
-740.098	75.568	-0.217	0.232
-739.083	-73.237	-0.232	0.086
-738.069	800.000	-0.054	-0.176
-737.054	800.000	-0.066	0.254
-736.039	-96.249	-0.097	0.026
-735.025	-125.343	-0.117	-0.018
-734.010	160.872	-0.202	-0.287
-732.996	35.613	-0.118	0.105
-731.981	-200.000	0.041	-0.233
-730.966	372.987	0.145	0.300
-729.952	-121.971	0.288	0.048
-728.937	-200.000	-0.044	-0.289
-727.923	-200.000	0.048	0.241
-726.908	7.166	-0.353	0.267
-725.894	800.000	-0.073	-0.273
-724.879	205.666	-0.089	0.140
-723.864	386.482	0.188	0.394
-722.850	800.000	0.078	0.299
-721.835	780.477	-0.033	0.090
-720.821	115.506	0.179	-0.221
-719.806	-1.082	0.164	-0.118
-718.791	-42.337	0.091	0.047
-717.777	480.115	0.096	-0.221
-716.762	-15.211	-0.042	-0.027
-715.748	-200.000	0.030	-0.303
-714.733	-200.000	-0.023	0.172
-713.718	254.304	-0.062	0.108
-712.704	22.759	-0.199	0.165
-711.689	-200.000	0.288	-0.001
-710.675	-54.321	0.061	-0.028
-709.660	199.072	0.120	0.186
-708.645	53.939	-0.276	-0.269
-707.631	-188.501	-0.072	0.001
-706.616	-115.388	-0.106	-0.020
-705.602	81.688	-0.136	-0.149
-704.587	140.875	-0.228	0.305
-703.572	147.643	-0.206	0.282
-702.558	-200.000	-0.012	0.141
-701.543	-34.770	-0.150	-0.083
-700.529	-39.557	0.164	-0.087
-699.514	139.368	-0.156	-0.207
-698.499	302.606	-0.134	0.251
-697.485	-89.880	0.366	-0.108
-696.470	-105.475	0.175	0.040
-695.456	181.933	0.072	-0.108
-694.441	-200.000	0.007	0.070
-693.426	17.075	-0.191	0.153
-692.412	-121.383	-0.339	0.057
-691.397	-104.015	0.264	0.062
-690.383	150.006	-0.121	0.166
-689.368	78.214	0.103	-0.111
-688.354	-35.093	0.283	-0.156
-687.339	37.181	0.310	0.277
-686.324	-62.994	-0.276	-0.116
-685.310	-200.000	0.030	0.159
-684.295	550.221	-0.143	-0.348
-683.281	266.963	-0.178	-0.315
-682.266	-87.546	-0.242	0.074
-681.251	-103.753	0.227	0.054
-680.237	-200.000	0.045	0.392
-679.222	800.000	-0.039	0.120
-678.208	-102.111	0.385	0.094
-677.193	-200.000	-0.013	-0.176
-676.178	-88.878	0.382	-0.115
-675.164	-125.103	-0.349	0.054
-674.149	-96.238	-0.380	-0.102
-673.135	-89.969	-0.455	-0.134
-672.120	-108.336	0.044	0.010
-671.105	61.782	-0.210	-0.211
-670.091	-100.622	-0.165	-0.041
-669.076	-119.055	0.188	-0.033
-668.062	203.281	-0.040	-0.062
-667.047	202.964	0.081	-0.126
-666.032	30.152	0.067	0.058
-665.018	-200.000	-0.023	-0.207
-664.003	-3.968	-0.266	-0.186
-662.989	503.338	-0.036	-0.083
-661.974	163.910	0.200	0.284
-660.959	-40.997	-0.154	0.080
-659.945	-59.955	-0.184	-0.080
-658.930	-200.000	-0.017	-0.118
-657.916	800.000	-0.011	-0.044
-656.901	56.645	0.167	-0.164
-655.886	170.575	-0.042	0.060
-654.872	-200.000	0.015	0.156
-653.857	-74.297	0.079	-0.029
-652.843	-126.887	0.257	0.038
-651.828	46.659	-0.058	0.055
-650.814	124.624	-0.122	-0.155
-649.799	54.532	-0.077	-0.075
-648.784	520.118	-0.030	0.071
-647.770	-58.190	0.266	0.117
-646.755	180.743	-0.148	0.220
-645.741	-131.096	-0.188	-0.025
-644.726	-96.083	0.220	-0.059
-643.711	-200.000	-0.021	0.197
-642.697	-174.254	0.340	0.010
-641.682	800.000	-0.038	-0.160
-640.668	-74.516	-0.366	0.133
-639.653	714.229	-0.122	-0.328
-638.638	66.562	-0.397	0.408
-637.624	-200.000	-0.021	-0.202
-636.609	-40.854	-0.350	-0.183
-635.595	-63.590	0.298	0.124
-634.580	-200.000	-0.002	0.182
-633.565	-20.515	-0.088	-0.054
-632.551	43.778	-0.176	-0.163
-631.536	18.464	0.076	0.062
-630.522	231.977	-0.049	0.082
-629.507	450.903	-0.086	0.191
-628.492	-138.846	-0.230	-0.025
-627.478	197.652	-0.069	-0.106
-626.463	-200.000	0.036	0.238
-625.449	-200.000	-0.011	-0.148
-624.434	-56.484	0.204	-0.091
-623.419	-93.604	0.175	-0.049
-622.405	568.696	0.071	0.174
-621.390	-96.768	0.512	0.136
-620.376	-200.000	0.014	0.122
-619.361	800.000	-0.085	0.245
-618.346	-58.288	-0.266	0.117
-617.332	-33.447	0.043	-0.024
-616.317	-56.874	0.247	-0.110
-615.303	202.011	-0.117	0.182
-614.288	-61.362	-0.109	-0.046
-613.273	324.441	0.145	0.280
-612.259	272.660	0.107	0.191
-611.244	-200.000	-0.008	0.136
-610.230	-172.908	-0.223	0.007
-609.215	127.221	0.081	-0.103
-608.201	257.679	-0.129	-0.223
-607.186	-200.000	-0.038	-0.258
-606.171	-200.000	-0.029	-0.293
-605.157	800.000	0.086	-0.299
-604.142	86.175	-0.088	0.097
-603.128	-200.000	0.016	0.298
-602.113	15.179	-0.166	0.131
-601.098	136.703	0.203	-0.268
-600.084	-86.438	-0.339	-0.105
-599.069	92.619	-0.281	-0.320
-598.055	526.949	0.060	-0.143
-597.040	800.000	0.065	-0.183
-596.025	357.410	0.109	-0.220
-595.011	-38.224	-0.264	-0.141
-593.996	-47.583	0.078	0.038
-592.982	-82.905	0.188	0.061
-591.967	-116.544	-0.120	-0.022
-590.952	240.728	-0.036	0.061
-589.938	-121.247	-0.129	-0.022
-588.923	45.167	-0.194	-0.180
-587.909	107.162	0.254	-0.305
-586.894	800.000	0.016	-0.066
-585.879	146.941	-0.174	0.235
-584.865	-32.321	0.029	0.016
-583.850	800.000	-0.092	-0.375
-582.836	-94.437	-0.439	0.121
-581.821	-12.562	0.115	-0.076
-580.806	59.709	-0.224	-0.223
-579.792	33.216	0.185	0.162
-578.777	255.492	0.196	0.339
-577.763	11.312	0.164	0.126
-576.748	-110.086	-0.119	0.025
-575.733	-116.788	0.053	-0.010
-574.719	106.715	0.207	0.247
-573.704	126.963	-0.133	-0.170
-572.690	-97.973	-0.173	-0.045
-571.675	-200.000	-0.041	-0.558
-570.661	800.000	-0.056	-0.170
-569.646	-37.583	-0.194	-0.104
-568.631	113.334	-0.100	0.123
-567.617	-50.522	0.119	0.056
-566.602	-200.000	-0.019	-0.199
-565.588	-162.529	0.266	0.013
-564.573	-200.000	0.033	0.265
-563.558	-200.000	-0.005	-0.150
-562.544	195.749	0.095	0.145
-561.529	-200.000	0.023	-0.110
-560.515	-65.768	-0.227	-0.091
-559.500	-200.000	-0.041	-0.315
-558.485	-200.000	-0.020	-0.328
-557.471	-89.317	-0.205	-0.061
-556.456	-72.426	-0.158	0.059
-555.442	427.936	-0.121	0.263
-554.427	-12.595	0.280	-0.184
-553.412	153.713	-0.072	-0.099
-552.398	114.832	-0.075	-0.092
-551.383	506.184	0.126	0.294
-550.369	-200.000	-0.028	0.138
-549.354	-88.080	0.245	0.074
-548.339	-5.952	0.070	-0.048
-547.325	-130.529	0.332	-0.045
-546.310	394.745	0.157	0.330
-545.296	-86.072	0.205	0.064
-544.281	-158.279	-0.125	-0.007
-543.266	-97.673	0.138	-0.036
-542.252	-200.000	0.018	0.092
-541.237	-200.000	0.048	-0.214
-540.223	459.585	0.147	-0.329
-539.208	46.073	0.168	-0.156
-538.193	385.456	-0.102	-0.211
-537.179	-14.483	-0.219	0.142
-536.164	1.249	-0.254	0.183
-535.150	-3.377	-0.160	0.112
-534.135	800.000	0.112	0.434
-533.121	-200.000	0.059	-0.374
-532.106	43.790	-0.104	-0.096
-531.091	-83.708	0.156	0.050
-530.077	67.122	0.245	0.251
-529.062	-76.967	0.326	-0.115
-528.048	-88.361	0.077	-0.023
-527.033	277.625	0.131	0.235
-526.018	-200.000	0.036	-0.296
-525.004	575.859	-0.084	0.207
-523.989	55.876	-0.376	0.367
-522.975	-200.000	0.188	0.001
-521.960	-53.569	-0.210	-0.097
-520.945	78.678	0.033	0.036
-519.931	46.691	-0.164	0.153
-518.916	138.554	0.162	-0.213
-517.902	800.000	0.090	-0.260
-516.887	-200.000	0.027	0.301
-515.872	800.000	-0.053	0.185
-514.858	156.107	-0.174	-0.241
-513.843	559.259	-0.030	-0.073
-512.829	-73.849	-0.147	0.054
-511.814	40.046	0.151	-0.136
-510.799	599.703	0.106	-0.265
-509.785	45.851	0.285	-0.265
-508.770	-182.456	0.081	0.002
-507.756	-13.751	-0.341	-0.222
-506.741	74.528	0.059	-0.063
-505.726	32.169	-0.048	0.042
-504.712	266.051	0.235	0.412
-503.697	-200.000	-0.001	0.010
-502.683	191.093	0.259	0.391
-501.668	262.658	0.120	0.209
-500.653	-41.585	0.154	0.080
-499.639	-200.000	0.025	-0.140
-498.624	-200.000	-0.002	0.041
-497.610	477.855	0.154	-0.351
-496.595	800.000	0.116	0.324
-495.581	176.842	-0.102	0.148
-494.566	204.730	-0.250	-0.389
-493.551	507.785	-0.098	0.228
-492.537	800.000	0.102	0.311
-491.522	242.457	-0.092	0.155
-490.508	800.000	0.078	0.287
-489.493	133.316	0.186	0.241
-488.478	-160.399	0.249	-0.013
-487.464	244.469	0.206	-0.348
-486.449	105.921	-0.210	-0.250
-485.435	-77.857	-0.360	0.125
-484.420	451.048	0.053	-0.117
-483.405	201.090	0.177	0.273
-482.391	-200.000	-0.008	-0.245
-481.376	241.994	-0.139	-0.233
-480.362	28.998	0.113	-0.096
-479.347	144.317	-0.126	-0.169
-478.332	-200.000	0.031	0.433
-477.318	29.972	-0.108	-0.093
-476.303	800.000	0.061	-0.265
-475.289	-13.730	-0.116	-0.075
-474.274	73.654	-0.091	0.095
-473.259	800.000	0.049	-0.180
-472.245	-139.041	-0.267	-0.029
-471.230	91.860	0.195	0.220
-470.216	-200.000	-0.039	-0.194
-469.201	106.847	0.169	-0.201
-468.186	-154.643	0.127	0.008
-467.172	0.715	-0.226	-0.162
-466.157	-76.018	0.149	-0.053
-465.143	115.592	-0.184	-0.226
-464.128	-69.513	-0.101	0.039
-463.113	-200.000	-0.026	0.137
-462.099	423.997	0.077	0.166
-461.084	-151.917	-0.292	0.021
-460.070	-90.068	-0.215	0.063
-459.055	-148.906	-0.312	0.025
-458.040	-109.325	0.255	-0.054
-457.026	526.600	-0.036	0.085
-456.011	-155.570	-0.170	0.011
-454.997	0.869	-0.353	-0.254
-453.982	-200.000	-0.032	0.514
-452.968	19.555	-0.047	-0.038
-451.953	-124.149	-0.072	-0.011
-450.938	-200.000	0.035	0.164
-449.924	399.413	0.105	-0.221
-448.909	284.883	0.109	0.197
-447.895	-132.987	-0.253	-0.032
-446.880	-200.000	-0.016	-0.254
-445.865	256.256	-0.117	0.201
-444.851	800.000	0.092	-0.275
-443.836	26.644	-0.156	0.131
-442.822	321.870	0.091	-0.173
-441.807	-56.800	0.354	0.157
-440.792	-200.000	0.061	0.320
-439.778	-65.652	0.360	-0.144
-438.763	-200.000	0.012	-0.137
-437.749	-46.511	0.062	0.030
-436.734	-200.000	-0.045	-0.215
-435.719	-200.000	0.009	-0.198
-434.705	116.317	0.171	-0.209
-433.690	42.872	-0.373	0.341
-432.676	530.484	-0.086	-0.204
-431.661	-174.075	0.127	0.004
-430.646	-55.658	-0.248	0.111
-429.632	800.000	0.075	0.235
-428.617	-140.397	0.088	-0.009
-427.603	213.109	0.069	0.110
-426.588	800.000	-0.033	-0.114
-425.573	1.298	-0.151	-0.109
-424.559	449.534	0.235	-0.518
-423.544	-10.519	-0.431	-0.286
-422.530	46.117	0.217	0.202
-421.515	-13.066	-0.111	-0.072
-420.500	122.870	0.146	-0.183
-419.486	43.836	0.213	-0.196
-418.471	-200.000	0.046	0.315
-417.457	800.000	0.063	0.234
-416.442	800.000	-0.019	0.078
-415.428	-105.301	-0.507	0.116
-414.413	-200.000	-0.035	-0.171
-413.398	460.266	0.047	0.106
-412.384	219.477	-0.142	-0.228
-411.369	50.810	-0.070	0.067
-410.355	800.000	0.093	-0.330
-409.340	-35.270	0.096	0.052
-408.325	-200.000	0.064	0.413
-407.311	627.806	-0.078	0.196
-406.296	12.524	0.298	-0.230
-405.282	186.438	-0.083	-0.123
-404.267	131.895	0.120	-0.155
-403.252	392.173	0.038	0.080
-402.238	-50.325	-0.284	0.134
-401.223	-110.401	-0.125	0.026
-400.209	-200.000	0.001	-0.278
-399.194	-146.411	-0.226	0.020
-398.179	-55.255	-0.244	-0.110
-397.165	5.117	-0.163	0.120
-396.150	-84.387	-0.114	0.036
-395.136	-141.981	0.088	0.009
-394.121	425.967	0.111	0.239
-393.106	-200.000	-0.020	0.121
-392.092	-200.000	-0.019	-0.161
-391.077	665.725	-0.014	0.036
-390.063	-105.097	-0.135	-0.031
-389.048	-156.886	0.050	-0.003
-388.033	-135.967	-0.109	0.013
-387.019	-43.947	-0.093	0.047
-386.004	-200.000	-0.015	0.153
-384.990	204.863	-0.051	-0.079
-383.975	-60.968	0.164	0.069
-382.960	-76.597	-0.182	0.064
-381.946	-32.574	0.181	0.101
-380.931	-34.835	-0.175	-0.096
-379.917	382.588	-0.103	-0.211
-378.902	-98.084	-0.104	-0.027
-377.888	-200.000	-0.081	0.415
-376.873	-187.390	0.443	0.006
-375.858	800.000	-0.101	-0.319
-374.844	-40.102	0.124	0.065
-373.829	-31.916	-0.094	-0.053
-372.815	199.731	-0.205	0.315
-371.800	-200.000	0.010	0.211
-370.785	-69.833	0.363	0.138
-369.771	-115.575	0.224	-0.042
-368.756	-86.993	0.111	-0.034
-367.742	13.779	0.128	-0.099
-366.727	-84.961	-0.232	0.073
-365.712	-64.238	0.206	-0.084
-364.698	-162.781	-0.312	-0.015
-363.683	-200.000	-0.037	0.172
-362.669	-200.000	-0.002	0.152
-361.654	-56.774	0.227	0.100
-360.639	-29.583	-0.316	-0.180
-359.625	-200.000	0.034	0.345
-358.610	-144.337	-0.215	-0.020
-357.596	-44.983	0.108	0.054
-356.581	-40.539	0.310	0.161
-355.566	70.884	-0.126	-0.131
-354.552	-46.598	0.150	0.073
-353.537	68.331	-0.201	0.206
-352.523	-200.000	-0.022	0.273
-351.508	149.590	-0.151	0.204
-350.493	-15.612	0.065	0.042
-349.479	104.931	0.201	0.237
-348.464	800.000	0.084	-0.282
-347.450	-16.649	0.059	-0.037
-346.435	-23.243	0.088	0.053
-345.420	268.264	0.176	0.308
-344.406	32.084	0.078	0.067
-343.391	-200.000	-0.003	-0.043
-342.377	102.348	-0.138	0.161
-341.362	71.579	0.295	0.306
-340.348	56.329	-0.151	0.147
-339.333	-108.176	0.223	0.048
-338.318	-136.712	0.143	0.016
-337.304	-141.976	0.403	0.040
-336.289	-126.922	-0.086	0.013
-335.275	18.912	-0.362	0.290
-334.260	800.000	0.109	-0.384
-333.245	60.244	-0.027	0.026
-332.231	-33.836	0.207	-0.114
-331.216	-34.321	-0.240	-0.131
-330.202	-200.000	0.007	-0.348
-329.187	519.134	0.107	0.251
-328.172	-67.713	0.294	0.115
-327.158	-110.868	-0.404	0.083
-326.143	-26.327	0.194	0.114
-325.129	437.363	0.096	0.210
-324.114	-200.000	-0.024	-0.312
-323.099	-200.000	-0.024	-0.191
-322.085	-158.427	0.177	0.010
-321.070	800.000	0.074	0.233
-320.056	-200.000	-0.024	-0.138
-319.041	-200.000	-0.016	-0.126
-318.026	39.602	-0.341	0.305
-317.012	159.803	0.132	0.183
-315.997	-200.000	-0.046	-0.274
-314.983	-109.279	0.144	0.030
-313.968	-200.000	-0.000	-0.178
-312.953	52.635	0.240	-0.229
-311.939	-102.847	0.166	0.039
-310.924	-200.000	-0.022	-0.120
-309.910	-121.671	-0.214	0.035
-308.895	104.525	-0.078	-0.091
-307.880	509.394	-0.103	-0.238
-306.866	261.193	-0.238	-0.411
-305.851	-53.831	0.310	-0.141
-304.837	-106.805	-0.307	0.068
-303.822	-90.423	0.092	-0.027
-302.807	108.320	-0.175	-0.208
-301.793	-200.000	0.011	0.161
-300.778	71.030	0.056	0.058
-299.764	152.673	0.154	0.209
-298.749	171.193	-0.076	-0.108
-297.735	228.247	-0.072	0.116
-296.720	-22.735	0.288	0.173
-295.705	-122.106	-0.404	0.066
-294.691	319.426	-0.027	0.052
-293.676	-135.861	-0.210	-0.025
-292.662	138.553	-0.154	-0.201
-291.647	-200.000	-0.054	-0.279
-290.632	-200.000	0.036	0.312
-289.618	591.024	-0.081	0.198
-288.603	8.111	-0.108	0.081
-287.589	299.128	-0.062	-0.114
-286.574	-4.416	-0.157	-0.108
-285.559	800.000	-0.031	0.106
-284.545	-123.636	-0.479	-0.076
-283.530	94.285	-0.176	0.199
-282.516	18.738	-0.106	-0.084
-281.501	-144.903	-0.315	-0.029
-280.486	9.937	0.104	0.079
-279.472	-128.213	0.301	0.043
-278.457	-200.000	-0.003	0.152
-277.443	-200.000	-0.039	-0.295
-276.428	128.415	0.259	-0.328
-275.413	-200.000	-0.007	-0.281
-274.399	800.000	0.091	0.360
-273.384	-106.738	-0.205	-0.045
-272.370	-99.731	0.115	0.029
-271.355	-81.230	0.201	0.066
-270.340	7.387	0.241	0.179
-269.326	800.000	-0.017	0.064
-268.311	29.506	0.046	0.039
-267.297	27.613	-0.057	-0.048
-266.282	493.138	-0.047	-0.107
-265.267	-98.181	-0.140	0.036
-264.253	-135.716	-0.225	0.026
-263.238	85.811	0.172	-0.188
-262.224	-200.000	0.015	-0.246
-261.209	-200.000	0.003	0.117
-260.195	31.257	-0.145	-0.124
-259.180	-200.000	-0.003	-0.060
-258.165	-119.723	0.232	0.040
-257.151	587.668	0.083	0.202
-256.136	123.179	0.244	0.305
-255.122	-17.606	0.216	0.135
-254.107	800.000	-0.087	-0.269
-253.092	-200.000	0.045	-0.275
-252.078	46.268	0.301	0.277
-251.063	800.000	0.088	0.356
-250.049	-55.534	0.211	-0.094
-249.034	208.906	0.113	-0.176
-248.019	662.769	-0.050	0.128
-247.005	-112.601	-0.218	-0.043
-245.990	-101.124	-0.054	-0.013
-244.976	347.404	0.062	0.122
-243.961	-161.586	0.152	-0.008
-242.946	199.896	0.063	0.097
-241.932	-125.925	0.182	-0.027
-240.917	-126.693	-0.215	0.032
-239.903	219.896	-0.181	0.287
-238.888	-200.000	-0.033	-0.198
-237.873	800.000	-0.022	0.088
-236.859	-200.000	0.052	0.255
-235.844	31.376	0.167	0.143
-234.830	3.129	0.230	-0.166
-233.815	-74.581	-0.227	-0.081
-232.800	26.958	-0.115	0.096
-231.786	341.738	-0.077	0.149
-230.771	-102.864	-0.103	0.024
-229.757	-133.951	-0.127	-0.016
-228.742	45.096	0.350	-0.320
-227.727	163.633	-0.092	0.129
-226.713	-0.462	-0.138	0.097
-225.698	-200.000	0.017	0.116
-224.684	-200.000	0.010	0.095
-223.669	-200.000	-0.254	0.001
-222.655	1.468	0.232	0.166
-221.640	800.000	0.059	-0.183
-220.625	-93.762	0.099	-0.027
-219.611	-114.263	-0.280	-0.054
-218.596	800.000	0.067	-0.282
-217.582	-40.087	0.078	-0.040
-216.567	-200.000	0.009	0.136
-215.552	320.961	-0.010	-0.019
-214.538	86.013	0.153	-0.168
-213.523	-104.198	-0.203	-0.047
-212.509	308.372	0.060	-0.111
-211.494	800.000	-0.052	0.210
-210.479	326.712	-0.077	-0.147
-209.465	-133.861	0.145	0.018
-208.450	0.616	-0.261	-0.186
-207.436	800.000	-0.080	-0.225
-206.421	-7.249	0.204	0.137
-205.406	28.641	-0.132	0.111
-204.392	-2.133	-0.211	-0.147
-203.377	-82.972	0.244	-0.078
-202.363	-200.000	0.007	-0.338
-201.348	240.427	0.156	0.258
-200.333	-62.014	0.316	0.131
-199.319	103.796	0.118	-0.138
-198.304	261.479	0.139	-0.239
-197.290	323.815	0.147	0.278
-196.275	-8.113	0.226	0.151
-195.260	800.000	-0.027	0.087
-194.246	168.251	0.081	0.115
-193.231	-104.406	0.138	-0.032
-192.217	-82.399	-0.171	0.055
-191.202	-5.266	0.175	0.119
-190.187	-64.346	-0.074	-0.030
-189.173	800.000	-0.058	0.231
-188.158	51.229	-0.182	0.172
-187.144	370.964	0.087	-0.175
-186.129	-62.127	-0.246	0.102
-185.114	-19.686	0.323	0.198
-184.100	342.794	-0.078	0.152
-183.085	182.828	0.098	-0.144
-182.071	-106.451	-0.047	-0.010
-181.056	-132.429	0.071	-0.009
-180.042	-21.522	-0.130	0.078
-179.027	-56.186	-0.182	0.080
-178.012	-71.603	-0.171	0.063
-176.998	-47.546	-0.237	-0.114
-175.983	311.554	0.185	-0.344
-174.969	-72.565	0.074	-0.027
-173.954	193.102	0.041	0.061
-172.939	800.000	0.142	-0.559
-171.925	-200.000	-0.022	-0.140
-170.910	78.194	0.108	0.114
-169.896	159.786	0.114	0.158
-168.881	56.170	0.170	0.163
-167.866	149.871	-0.245	-0.329
-166.852	-101.282	-0.134	-0.032
-165.837	-95.709	0.394	0.104
-164.823	-90.187	0.173	0.050
-163.808	74.707	0.187	-0.195
-162.793	183.088	-0.059	0.086
-161.779	-200.000	-0.021	-0.115
-160.764	800.000	-0.025	0.082
-159.750	800.000	0.053	-0.225
-158.735	37.596	-0.171	-0.150
-157.720	60.425	0.027	-0.027
-156.706	-200.000	-0.024	0.263
-155.691	-5.895	0.077	-0.052
-154.677	-200.000	0.004	-0.181
-153.662	-4.416	-0.118	-0.081
-152.647	50.183	0.147	-0.138
-151.633	143.320	-0.084	0.111
-150.618	-120.898	0.293	0.049
-149.604	-190.342	-0.216	-0.002
-148.589	224.261	0.112	0.180
-147.574	-200.000	-0.028	-0.145
-146.560	800.000	-0.034	0.105
-145.545	-108.226	-0.348	0.075
-144.531	-81.258	-0.389	0.127
-143.516	53.584	0.229	-0.218
-142.502	335.306	-0.116	0.222
-141.487	-109.052	-0.152	-0.032
-140.472	-200.000	-0.050	0.362
-139.458	-200.000	0.065	0.326
-138.443	185.812	-0.248	0.365
-137.429	491.067	0.048	-0.109
-136.414	204.437	-0.035	0.053
-135.399	-25.124	0.236	-0.138
-134.385	10.863	0.213	0.161
-133.370	-0.939	0.138	0.097
-132.356	-109.981	0.210	-0.044
-131.341	-89.120	0.176	-0.051
-130.326	11.861	0.147	-0.112
-129.312	800.000	-0.053	0.194
-128.297	181.900	-0.115	0.168
-127.283	-200.000	0.030	-0.326
-126.268	76.155	0.209	-0.219
-125.253	-200.000	-0.012	-0.263
-124.239	-162.087	0.436	-0.022
-123.224	-95.070	-0.262	-0.070
-122.210	-2.112	0.111	0.077
-121.195	-130.600	0.141	-0.019
-120.180	-35.809	-0.214	-0.115
-119.166	-200.000	-0.032	0.187
-118.151	-125.726	-0.177	0.026
-117.137	6.219	0.230	-0.169
-116.122	-183.679	0.135	-0.002
-115.107	636.434	-0.103	0.260
-114.093	-125.417	0.089	0.013
-113.078	55.418	-0.066	-0.063
-112.064	552.142	-0.066	-0.158
-111.049	16.422	0.156	-0.122
-110.034	-120.902	-0.295	-0.049
-109.020	-129.662	-0.428	-0.058
-108.005	-200.000	-0.044	0.204
-106.991	-130.787	-0.361	-0.048
-105.976	250.362	-0.100	-0.168
-104.962	-200.000	0.025	-0.306
-103.947	-200.000	-0.045	0.286
-102.932	-90.186	-0.123	0.035
-101.918	32.658	-0.255	-0.218
-100.903	-70.746	0.338	0.126
-99.889	222.579	0.171	0.273
-98.874	-91.685	0.418	-0.118
-97.859	-200.000	-0.034	0.288
-96.845	169.778	0.076	0.108
-95.830	800.000	0.029	-0.089
-94.816	183.515	-0.117	-0.170
-93.801	159.387	0.049	-0.067
-92.786	563.770	0.052	-0.125
-91.772	42.485	0.367	-0.330
-90.757	-125.392	-0.503	0.076
-89.743	-102.626	-0.270	-0.064
-88.728	173.668	0.123	0.175
-87.713	398.731	0.223	-0.461
-86.699	-200.000	0.025	0.130
-85.684	-200.000	-0.001	0.103
-84.670	-90.946	-0.288	0.082
-83.655	40.027	-0.232	0.206
-82.640	-200.000	-0.002	-0.105
-81.626	95.483	0.122	-0.137
-80.611	-135.758	-0.336	0.039
-79.597	-118.369	-0.266	-0.047
-78.582	-133.512	0.169	0.021
-77.567	-19.629	-0.339	-0.207
-76.553	131.695	0.141	0.179
-75.538	-200.000	-0.010	0.288
-74.524	105.567	0.171	-0.200
-73.509	800.000	-0.135	-0.490
-72.494	233.152	-0.028	-0.046
-71.480	-200.000	-0.014	0.236
-70.465	316.810	-0.131	0.245
-69.451	41.155	0.221	0.198
-68.436	-184.470	-0.100	-0.002
-67.422	-178.194	0.117	-0.003
-66.407	-104.785	0.172	-0.039
-65.392	-81.638	-0.366	0.119
-64.378	-102.555	-0.133	0.031
-63.363	-109.266	0.252	-0.053
-62.349	800.000	-0.077	0.330
-61.334	159.661	-0.854	-1.175
-60.319	100.143	0.379	0.434
-59.305	800.000	-0.317	-1.113
-58.290	153.752	0.595	0.806
-57.276	566.794	0.599	1.436
-56.261	-200.000	101.542	574.290
-55.246	487.820	1421.991	3204.361
-54.232	152.662	2604.784	3513.123
-53.217	100.333	2306.699	2642.310
-52.203	37.457	2061.869	1804.814
-51.188	32.650	1976.731	1687.309
-50.173	31.090	1959.217	1658.441
-49.159	46.071	2012.800	1839.258
-48.144	47.321	2030.336	1866.494
-47.130	33.251	1990.781	1704.451
-46.115	30.966	1980.037	1674.684
-45.100	30.852	1977.146	1671.148
-44.086	30.844	1974.872	1669.089
-43.071	30.710	1972.530	1665.842
-42.057	30.758	1970.673	1664.637
-41.042	30.722	1968.643	1662.537
-40.027	30.818	1966.527	1661.542
-39.013	30.832	1964.354	1659.761
-37.998	30.757	1963.174	1658.032
-36.984	30.880	1960.568	1656.856
-35.969	30.912	1958.844	1655.616
-34.954	30.891	1957.256	1654.022
-33.940	31.015	1955.799	1653.828
-32.925	30.942	1954.118	1651.698
-31.911	30.979	1952.017	1650.183
-30.896	30.949	1950.745	1648.771
-29.881	30.892	1949.329	1647.005
-28.867	31.001	1947.747	1646.566
-27.852	31.000	1945.723	1644.780
-26.838	30.939	1944.342	1643.012
-25.823	31.059	1942.558	1642.495
-24.809	30.927	1940.887	1639.854
-23.794	30.891	1939.263	1638.105
-22.779	31.027	1937.087	1637.392
-21.765	30.930	1936.010	1635.571
-20.750	30.913	1934.025	1633.680
-19.736	30.895	1932.508	1632.174
-18.721	31.010	1930.737	1631.622
-17.706	30.987	1929.133	1630.002
-16.692	30.972	1927.508	1628.429
-15.677	30.938	1926.036	1626.821
-14.663	30.976	1924.431	1625.732
-13.648	30.944	1923.705	1624.781
-12.633	30.933	1922.248	1623.389
-11.619	30.944	1920.662	1622.082
-10.604	30.929	1919.344	1620.772
-9.590	30.930	1917.916	1619.509
-8.575	30.975	1916.762	1618.863
-7.560	30.962	1915.335	1617.478
-6.546	31.028	1913.840	1616.728
-5.531	30.951	1912.760	1615.083
-4.517	31.000	1911.380	1614.278
-3.502	30.927	1910.513	1612.846
-2.487	30.916	1909.185	1611.567
-1.473	30.846	1908.643	1610.443
-0.458	30.988	1903.688	1607.424
0.556	28.712	1884.107	1578.934
1.571	24.482	1864.381	1526.187
2.586	20.518	1887.102	1510.278
3.600	19.485	1922.744	1529.510
4.615	19.203	1917.652	1522.835
5.629	14.872	1817.399	1406.730
6.644	5.931	1697.441	1243.214
7.659	0.653	1659.446	1174.332
8.673	0.129	1655.664	1167.488
9.688	0.113	1654.275	1166.277
10.702	0.096	1653.043	1165.178
11.717	-0.018	1649.963	1162.017
12.731	0.575	1649.347	1166.068
13.746	7.017	1663.894	1226.310
14.761	15.346	1680.198	1303.182
15.775	17.741	1682.818	1323.713
16.790	16.975	1679.575	1315.105
17.804	15.867	1676.340	1303.880
18.819	14.875	1673.318	1293.741
19.834	14.310	1670.604	1287.162
20.848	14.011	1669.349	1283.772
21.863	13.739	1667.857	1280.408
22.877	13.465	1666.348	1277.025
23.892	13.204	1664.943	1273.823
24.907	13.190	1663.100	1272.194
25.921	13.162	1662.455	1271.370
26.936	13.156	1661.323	1270.350
27.950	13.195	1660.485	1269.893
28.965	13.202	1660.045	1269.495
29.980	13.278	1659.473	1269.533
30.994	13.366	1658.534	1269.379
32.009	13.424	1657.283	1268.750
33.023	13.411	1656.766	1268.146
34.038	13.466	1655.743	1267.672
35.053	13.451	1654.653	1266.612
36.067	13.416	1653.394	1265.263
37.082	13.309	1652.310	1263.503
38.096	13.379	1651.822	1263.559
39.111	13.318	1650.953	1262.315
40.126	13.376	1649.931	1261.862
41.140	13.301	1649.051	1260.506
42.155	13.256	1647.336	1258.739
43.169	13.171	1645.827	1256.829
44.184	13.151	1645.193	1256.085
45.199	13.207	1643.898	1255.411
46.213	13.233	1642.562	1254.476
47.228	13.261	1641.327	1253.629
48.242	13.209	1640.154	1252.229
49.257	13.261	1639.040	1251.665
50.271	13.319	1637.601	1250.889
51.286	13.245	1636.920	1249.702
52.301	13.201	1635.447	1248.135
53.315	13.216	1634.565	1247.468
54.330	13.189	1632.354	1245.467
55.344	13.207	1630.538	1244.107
56.359	13.220	1629.115	1243.005
57.374	13.183	1628.518	1242.163
58.388	13.173	1627.239	1241.005
59.403	13.185	1625.742	1239.840
60.417	13.093	1624.696	1238.241
61.432	13.084	1623.826	1237.404
62.447	13.114	1621.883	1236.041
63.461	13.068	1621.171	1235.039
64.476	13.058	1619.754	1233.779
65.490	13.000	1618.742	1232.463
66.505	13.023	1617.546	1231.613
67.520	13.074	1616.716	1231.255
68.534	13.038	1615.850	1230.217
69.549	13.135	1614.400	1229.728
70.563	13.117	1613.242	1228.605
71.578	13.027	1612.222	1227.050
72.593	13.059	1610.662	1225.990
73.607	13.081	1609.596	1225.237
74.622	13.008	1608.684	1223.889
75.636	12.924	1607.545	1222.290
76.651	13.025	1606.416	1222.075
77.666	12.933	1606.001	1220.973
78.680	12.984	1605.208	1220.636
79.695	12.980	1603.831	1219.450
80.709	13.010	1602.751	1218.743
81.724	13.044	1602.122	1218.407
82.739	13.066	1601.056	1217.651
83.753	13.093	1600.235	1217.119
84.768	13.149	1598.934	1216.434
85.782	13.279	1598.146	1216.686
86.797	13.322	1597.148	1216.130
87.812	13.329	1596.307	1215.438
88.826	13.271	1595.163	1214.034
89.841	13.168	1594.106	1212.364
90.855	13.211	1593.433	1212.063
91.870	13.240	1591.906	1211.000
92.884	13.293	1590.990	1210.585
93.899	13.192	1590.238	1209.172
94.914	13.338	1588.638	1208.912
95.928	13.342	1587.854	1208.235
96.943	13.387	1586.321	1207.295
97.957	13.371	1584.799	1205.914
98.972	13.313	1583.346	1204.275
99.987	13.264	1582.255	1202.986
101.001	13.417	1580.071	1202.330
102.016	13.311	1579.250	1200.828
103.030	13.282	1577.514	1199.194
104.045	13.319	1576.440	1198.535
105.060	13.327	1574.687	1197.154
106.074	13.242	1573.490	1195.525
107.089	13.255	1572.180	1194.522
108.103	13.235	1570.201	1192.766
109.118	13.125	1569.403	1191.259
110.133	13.069	1567.818	1189.547
111.147	13.139	1566.490	1188.938
112.162	13.081	1565.564	1187.717
113.176	13.156	1564.085	1187.026
114.191	13.211	1562.139	1185.840
115.206	13.178	1561.683	1185.149
116.220	13.356	1560.232	1185.221
117.235	13.260	1558.528	1183.133
118.249	13.154	1557.396	1181.413
119.264	13.233	1555.963	1180.782
120.279	13.147	1555.070	1179.386
121.293	13.166	1553.370	1178.134
122.308	13.061	1552.417	1176.553
123.322	13.156	1550.576	1175.729
124.337	13.209	1549.050	1174.846
125.352	13.080	1547.832	1172.900
126.366	13.093	1546.465	1171.855
127.381	13.134	1545.299	1171.158
128.395	13.165	1544.448	1170.628
129.410	13.186	1542.819	1169.439
130.424	13.197	1541.497	1168.414
131.439	13.126	1540.503	1167.053
132.454	13.287	1538.608	1166.654
133.468	13.268	1537.758	1165.771
134.483	13.300	1536.496	1164.938
135.497	13.255	1534.893	1163.300
136.512	13.285	1533.603	1162.431
137.527	13.306	1532.363	1161.535
138.541	13.330	1530.747	1160.374
139.556	13.321	1529.826	1159.510
140.570	13.276	1528.344	1157.974
141.585	13.487	1526.478	1157.931
142.600	13.371	1525.738	1156.454
143.614	13.437	1524.648	1155.988
144.629	13.483	1523.139	1155.063
145.643	13.463	1522.285	1154.174
146.658	13.431	1521.278	1153.088
147.673	13.503	1519.710	1152.298
148.687	13.465	1517.811	1150.488
149.702	13.462	1516.808	1149.608
150.716	13.442	1514.666	1147.747
151.731	13.372	1513.677	1146.410
152.746	13.388	1512.848	1145.789
153.760	13.393	1510.894	1144.242
154.775	13.379	1510.053	1143.405
155.789	13.446	1508.359	1142.489
156.804	13.480	1507.271	1141.797
157.819	13.432	1505.929	1140.345
158.833	13.491	1505.368	1140.225
159.848	13.564	1504.302	1139.819
160.862	13.658	1502.235	1138.804
161.877	13.746	1500.822	1138.235
162.892	13.617	1500.056	1136.669
163.906	13.545	1498.715	1135.054
164.921	13.412	1497.486	1133.116
165.935	13.487	1496.446	1132.741
166.950	13.524	1495.306	1132.031
167.964	13.536	1494.154	1131.139
168.979	13.626	1492.968	1130.753
169.994	13.572	1492.185	1129.697
171.008	13.523	1491.142	1128.474
172.023	13.573	1489.540	1127.503
173.037	13.692	1488.412	1127.354
174.052	13.703	1487.448	1126.597
175.067	13.692	1486.621	1125.797
176.081	13.588	1485.609	1124.225
177.096	13.492	1484.357	1122.528
178.110	13.509	1483.112	1121.604
179.125	13.574	1481.584	1120.791
180.140	13.591	1480.788	1120.200
181.154	13.620	1479.676	1119.457
182.169	13.666	1478.824	1119.025
183.183	13.633	1477.624	1117.792
184.198	13.689	1476.344	1117.107
185.213	13.767	1475.062	1116.562
186.227	13.764	1474.513	1116.024
187.242	13.768	1473.574	1115.241
188.256	13.816	1472.413	1114.593
189.271	13.881	1471.377	1114.146
190.286	13.873	1470.427	1113.269
191.300	13.841	1468.760	1111.698
192.315	13.733	1467.726	1110.090
193.329	13.605	1466.508	1108.215
194.344	13.550	1465.697	1107.140
195.359	13.666	1463.861	1106.428
196.373	13.752	1463.202	1106.404
197.388	13.735	1462.475	1105.643
198.402	13.887	1461.260	1105.642
199.417	13.901	1459.736	1104.482
200.432	13.963	1458.927	1104.185
201.446	13.988	1457.958	1103.523
202.461	14.024	1456.964	1102.911
203.475	14.037	1455.746	1101.975
204.490	14.117	1454.323	1101.332
205.504	14.114	1453.849	1100.851
206.519	14.020	1452.608	1099.193
207.534	14.054	1451.438	1098.437
208.548	14.026	1450.115	1097.153
209.563	14.047	1449.295	1096.577
210.577	14.042	1448.177	1095.603
211.592	14.203	1446.942	1095.631
212.607	14.153	1446.508	1094.875
213.621	14.220	1445.609	1094.539
214.636	14.208	1444.924	1093.843
215.650	14.178	1444.164	1092.971
216.665	14.171	1443.064	1091.998
217.680	14.159	1442.484	1091.384
218.694	14.222	1441.849	1091.218
219.709	14.281	1440.628	1090.585
220.723	14.229	1440.133	1089.772
221.738	14.192	1439.068	1088.634
222.753	14.200	1438.093	1087.846
223.767	14.273	1437.109	1087.484
224.782	14.213	1436.020	1086.172
225.796	14.358	1434.846	1086.134
226.811	14.366	1434.490	1085.823
227.826	14.341	1433.388	1084.728
228.840	14.366	1432.481	1084.106
229.855	14.294	1431.766	1083.001
230.869	14.321	1430.658	1082.242
231.884	14.300	1429.884	1081.427
232.899	14.352	1428.716	1080.783
233.913	14.336	1427.382	1079.579
234.928	14.335	1426.176	1078.562
235.942	14.365	1424.766	1077.594
236.957	14.273	1423.573	1076.003
237.972	14.346	1422.457	1075.533
238.986	14.317	1421.510	1074.535
240.001	14.357	1420.829	1074.185
241.015	14.332	1419.701	1073.074
242.030	14.389	1418.606	1072.520
243.045	14.484	1417.600	1072.277
244.059	14.489	1416.567	1071.435
245.074	14.471	1416.082	1070.854
246.088	14.517	1415.495	1070.613
247.103	14.571	1414.748	1070.297
248.117	14.523	1413.993	1069.322
249.132	14.592	1413.155	1069.040
250.147	14.653	1412.121	1068.554
251.161	14.765	1411.627	1068.801
252.176	14.817	1411.235	1068.740
253.190	14.777	1410.523	1067.850
254.205	14.759	1409.896	1067.165
255.220	14.824	1408.738	1066.612
256.234	14.935	1408.017	1066.682
257.249	14.992	1406.484	1065.785
258.263	14.840	1406.249	1064.544
259.278	14.906	1405.249	1064.115
260.293	14.928	1404.342	1063.474
261.307	14.981	1403.048	1062.735
262.322	15.006	1402.336	1062.261
263.336	15.049	1401.617	1061.896
264.351	15.138	1400.668	1061.646
265.366	15.090	1399.873	1060.646
266.380	15.250	1398.678	1060.663
267.395	15.121	1398.202	1059.389
268.409	15.069	1397.143	1058.164
269.424	15.056	1396.304	1057.352
270.439	15.122	1395.285	1056.904
271.453	15.110	1394.313	1056.002
272.468	15.110	1393.144	1055.017
273.482	15.024	1392.955	1054.243
274.497	15.004	1391.743	1053.106
275.512	15.013	1390.932	1052.454
276.526	15.176	1389.932	1052.633
277.541	15.120	1389.015	1051.492
278.555	15.177	1388.170	1051.118
279.570	15.176	1387.212	1050.291
280.585	15.152	1386.343	1049.390
281.599	15.198	1385.725	1049.116
282.614	15.251	1384.553	1048.469
283.628	15.232	1383.421	1047.401
284.643	15.236	1382.322	1046.498
285.657	15.234	1381.483	1045.757
286.672	15.247	1380.372	1044.906
287.687	15.276	1379.758	1044.531
288.701	15.268	1378.202	1043.208
289.716	15.328	1377.702	1043.111
290.730	15.275	1377.109	1042.242
291.745	15.344	1375.545	1041.392
292.760	15.276	1375.026	1040.490
293.774	15.389	1374.159	1040.439
294.789	15.323	1372.978	1039.043
295.803	15.369	1372.631	1038.979
296.818	15.392	1371.413	1038.103
297.833	15.456	1370.467	1037.692
298.847	15.328	1369.559	1036.122
299.862	15.432	1368.627	1035.966
300.876	15.421	1367.494	1034.949
301.891	15.525	1366.329	1034.618
302.906	15.439	1365.975	1033.726
303.920	15.505	1365.440	1033.640
304.935	15.535	1364.574	1033.078
305.949	15.623	1363.783	1032.925
306.964	15.574	1362.762	1031.763
307.979	15.742	1361.885	1032.035
308.993	15.665	1361.060	1030.846
310.008	15.657	1360.075	1029.963
311.022	15.690	1358.939	1029.215
312.037	15.663	1358.376	1028.527
313.052	15.701	1357.153	1027.742
314.066	15.817	1355.933	1027.439
315.081	15.653	1355.456	1025.983
316.095	15.691	1354.283	1025.239
317.110	15.654	1353.088	1024.018
318.125	15.579	1352.464	1022.994
319.139	15.562	1351.475	1022.055
320.154	15.661	1350.408	1021.760
321.168	15.655	1349.355	1020.839
322.183	15.796	1348.337	1020.831
323.197	15.671	1347.996	1019.724
324.212	15.757	1346.565	1019.071
325.227	15.719	1345.948	1018.289
326.241	15.722	1345.355	1017.766
327.256	15.780	1344.241	1017.185
328.270	15.777	1343.115	1016.220
329.285	15.862	1342.427	1016.124
330.300	15.784	1341.779	1015.074
331.314	15.749	1340.687	1013.947
332.329	15.826	1339.622	1013.517
333.343	15.786	1338.899	1012.638
334.358	15.919	1337.583	1012.354
335.373	15.807	1337.833	1011.780
336.387	15.914	1336.442	1011.280
337.402	15.899	1335.419	1010.327
338.416	15.991	1334.999	1010.474
339.431	15.981	1334.366	1009.843
340.446	15.962	1333.873	1009.269
341.460	16.047	1332.849	1008.915
342.475	16.044	1331.734	1007.964
343.489	16.056	1330.920	1007.328
344.504	16.273	1329.637	1007.564
345.519	16.197	1329.113	1006.622
346.533	16.180	1327.938	1005.544
347.548	16.133	1327.590	1004.910
348.562	16.225	1326.590	1004.610
349.577	16.371	1325.502	1004.570
350.592	16.205	1324.983	1003.099
351.606	16.253	1323.973	1002.529
352.621	16.171	1323.247	1001.402
353.635	16.118	1322.430	1000.384
354.650	16.146	1321.108	999.459
355.665	16.192	1320.355	999.074
356.679	16.309	1318.756	998.467
357.694	16.183	1318.178	997.198
358.708	16.199	1316.914	996.251
359.723	16.301	1315.732	995.870
360.738	16.238	1315.065	994.903
361.752	16.298	1313.731	994.158
362.767	16.323	1313.140	993.769
363.781	16.312	1311.746	992.561
364.796	16.361	1311.239	992.381
365.810	16.326	1310.716	991.693
366.825	16.463	1309.852	991.751
367.840	16.394	1309.357	990.884
368.854	16.457	1308.780	990.733
369.869	16.577	1307.950	990.721
370.883	16.588	1307.029	989.999
371.898	16.572	1306.320	989.281
372.913	16.523	1305.657	988.402
373.927	16.603	1304.705	988.060
374.942	16.590	1303.769	987.189
375.956	16.523	1303.313	986.367
376.971	16.622	1302.351	986.125
377.986	16.557	1301.874	985.300
379.000	16.642	1300.886	984.961
380.015	16.620	1300.224	984.245
381.029	16.664	1299.309	983.723
382.044	16.769	1298.670	983.758
383.059	16.697	1297.885	982.659
384.073	16.724	1297.328	982.307
385.088	16.776	1296.560	981.940
386.102	16.820	1295.897	981.604
387.117	16.875	1295.115	981.246
388.132	16.793	1294.639	980.324
389.146	16.804	1293.696	979.586
390.161	16.812	1292.236	978.442
391.175	16.737	1292.306	977.975
392.190	16.800	1291.172	977.390
393.205	16.761	1289.879	976.105
394.219	16.845	1289.492	976.206
395.234	16.863	1288.220	975.259
396.248	16.949	1286.833	974.620
397.263	16.850	1285.666	973.082
398.278	16.836	1284.587	972.100
399.292	16.755	1283.695	970.872
400.307	16.821	1282.134	969.986
401.321	16.915	1281.106	969.660
402.336	16.895	1280.296	968.842
403.350	16.802	1279.529	967.650
404.365	16.818	1278.693	967.023
405.380	16.888	1277.360	966.329
406.394	16.876	1276.771	965.728
407.409	16.968	1276.454	965.928
408.423	16.977	1275.525	965.191
409.438	17.026	1274.692	964.751
410.453	17.092	1273.601	964.218
411.467	17.104	1272.986	963.731
412.482	17.272	1272.474	964.213
413.496	17.219	1272.422	963.784
414.511	17.182	1271.543	962.827
415.526	17.335	1270.054	962.479
416.540	17.231	1269.934	961.713
417.555	17.257	1269.020	961.087
418.569	17.345	1268.609	961.183
419.584	17.217	1268.315	960.152
420.599	17.340	1267.671	960.275
421.613	94.601	1351.071	1465.173
422.628	92.223	1363.193	1465.262
