DTS Sentinel unit serial number:	SN413079Multiplexer serial number:	ORYXHardware model number:	OX4-SRSoftware version number:	ORYX F/W v4.00 Oryx Data Collector v3.7.2.0data status	okinstallation	princeton_trtdifferential loss correction	single-endedforward channel	channel 4reverse channel	N/Adate	2019/09/17time	22:29:34forward acquisition time	60.00reverse acquisition time	0.00gamma	496.2192k internal	0.2330k external	0.2330temperature offset calibration	0.9993default loss term (dB/km)	0.3790temperature slope calibration	1.0000multiplexer offset coefficient	1.0000multiplexer slope coefficient	1.0000fibre end	0.00T internal ref (°C)	25.34T ext. ref 1 (°C)	0.18T ext. ref 2 (°C)	18.59length (m)	temperature (°C)	Stokes	anti-Stokes-747.200	800.000	-0.075	0.240
-746.185	38.264	0.124	0.112
-745.171	-106.854	-0.055	0.012
-744.156	132.675	0.139	0.181
-743.142	-77.453	0.119	-0.042
-742.127	-173.706	0.377	0.011
-741.112	-172.191	0.302	0.010
-740.098	674.281	-0.162	0.424
-739.083	800.000	-0.058	-0.197
-738.069	-72.900	-0.354	0.131
-737.054	-31.617	-0.277	-0.157
-736.039	-200.000	0.010	-0.058
-735.025	-200.000	-0.100	-0.464
-734.010	7.683	0.105	-0.079
-732.996	-200.000	-0.045	-0.355
-731.981	800.000	-0.084	0.303
-730.966	461.078	-0.146	-0.328
-729.952	12.612	-0.034	-0.026
-728.937	-111.610	-0.097	0.020
-727.923	800.000	0.079	0.295
-726.908	691.119	0.073	-0.192
-725.894	-144.064	-0.282	-0.027
-724.879	-200.000	0.022	-0.291
-723.864	-200.000	0.008	0.378
-722.850	-200.000	-0.016	0.303
-721.835	149.479	0.146	0.199
-720.821	32.908	-0.276	0.240
-719.806	311.437	-0.139	0.263
-718.791	231.374	-0.154	-0.254
-717.777	-186.483	-0.193	-0.003
-716.762	-200.000	-0.017	-0.080
-715.748	-173.083	0.248	-0.008
-714.733	-105.652	-0.247	0.056
-713.718	735.472	-0.088	-0.237
-712.704	-88.633	0.245	0.073
-711.689	197.698	-0.138	-0.212
-710.675	-200.000	0.005	0.158
-709.660	-33.341	-0.394	-0.219
-708.645	-200.000	0.039	-0.299
-707.631	13.874	0.089	-0.070
-706.616	-11.421	0.191	-0.126
-705.602	-200.000	0.036	-0.478
-704.587	-200.000	0.002	-0.047
-703.572	-175.465	-0.296	-0.008
-702.558	-132.963	-0.100	-0.013
-701.543	800.000	0.064	-0.227
-700.529	523.058	0.126	0.297
-699.514	-123.496	0.333	0.053
-698.499	-200.000	0.016	-0.186
-697.485	43.507	-0.063	-0.058
-696.470	35.233	0.169	0.149
-695.456	-57.016	-0.177	-0.079
-694.441	-200.000	0.018	0.177
-693.426	-200.000	-0.014	0.072
-692.412	126.198	0.039	-0.049
-691.397	-200.000	0.006	0.036
-690.383	-69.246	0.085	-0.033
-689.368	-200.000	0.003	-0.245
-688.354	800.000	0.133	-0.495
-687.339	-7.193	0.340	-0.232
-686.324	86.202	0.076	-0.084
-685.310	260.755	0.200	-0.348
-684.295	241.971	0.172	0.288
-683.281	800.000	-0.110	-0.305
-682.266	-200.000	-0.004	-0.138
-681.251	-22.770	-0.390	-0.237
-680.237	204.683	-0.090	-0.141
-679.222	392.872	-0.031	-0.064
-678.208	192.519	0.093	-0.141
-677.193	180.907	0.112	0.165
-676.178	36.763	-0.324	-0.287
-675.164	-114.639	0.312	0.060
-674.149	-168.883	0.196	0.007
-673.135	58.492	-0.242	0.239
-672.120	5.623	-0.130	-0.097
-671.105	800.000	0.066	0.191
-670.091	-36.578	-0.226	-0.122
-669.076	-200.000	-0.001	-0.193
-668.062	-200.000	-0.048	0.255
-667.047	-37.860	-0.148	0.079
-666.032	126.520	-0.059	0.075
-665.018	-117.075	-0.335	0.061
-664.003	26.088	-0.354	-0.297
-662.989	-200.000	0.002	-0.140
-661.974	-200.000	0.028	0.246
-660.959	-168.104	-0.092	0.004
-659.945	7.908	0.189	0.142
-658.930	-10.257	-0.430	-0.286
-657.916	-200.000	0.010	-0.185
-656.901	111.749	0.115	-0.139
-655.886	496.265	0.050	-0.115
-654.872	579.617	-0.052	-0.127
-653.857	-200.000	0.026	0.209
-652.843	-200.000	0.000	0.070
-651.828	166.769	-0.144	0.205
-650.814	-200.000	-0.009	0.099
-649.799	-117.971	-0.209	-0.038
-648.784	800.000	0.033	-0.140
-647.770	-163.172	0.175	0.008
-646.755	31.950	-0.159	0.138
-645.741	206.850	0.030	0.046
-644.726	112.966	0.106	-0.128
-643.711	-7.554	-0.090	-0.061
-642.697	-90.757	-0.157	-0.045
-641.682	-200.000	0.098	0.496
-640.668	-22.451	-0.222	0.135
-639.653	226.904	0.155	-0.252
-638.638	-200.000	0.040	-0.258
-637.624	33.384	0.195	0.170
-636.609	-121.263	-0.052	0.009
-635.595	62.208	0.253	0.253
-634.580	-43.928	-0.181	-0.091
-633.565	80.710	-0.164	0.177
-632.551	653.753	-0.034	0.088
-631.536	53.204	0.072	0.069
-630.522	-200.000	-0.042	-0.189
-629.507	73.124	0.064	-0.067
-628.492	98.407	-0.248	0.287
-627.478	-57.611	0.152	-0.067
-626.463	-200.000	-0.066	0.302
-625.449	224.967	0.098	0.159
-624.434	6.040	-0.224	0.166
-623.419	-113.425	-0.312	-0.061
-622.405	-133.963	-0.133	-0.017
-621.390	-28.156	-0.214	-0.124
-620.376	380.105	-0.071	0.147
-619.361	60.568	-0.055	-0.055
-618.346	-66.070	0.190	0.076
-617.332	198.810	0.100	0.154
-616.317	-23.028	0.053	0.032
-615.303	41.110	-0.101	0.092
-614.288	275.059	0.167	-0.297
-613.273	-54.746	0.269	0.122
-612.259	79.083	-0.143	-0.154
-611.244	0.085	0.136	-0.097
-610.230	46.248	-0.115	0.107
-609.215	231.471	-0.225	-0.370
-608.201	-200.000	-0.035	0.160
-607.186	-59.928	0.145	0.062
-606.171	-200.000	-0.055	-0.287
-605.157	337.477	-0.133	-0.259
-604.142	196.616	0.022	0.034
-603.128	83.889	0.149	-0.163
-602.113	-100.235	-0.105	-0.026
-601.098	178.864	0.146	-0.214
-600.084	-64.046	-0.098	0.040
-599.069	69.872	-0.078	-0.081
-598.055	126.267	0.081	-0.103
-597.040	50.425	-0.213	-0.201
-596.025	800.000	-0.034	-0.098
-595.011	19.585	-0.320	0.258
-593.996	179.220	0.149	-0.219
-592.982	-12.365	0.256	0.167
-591.967	1.304	0.156	-0.112
-590.952	2.103	-0.337	-0.244
-589.938	567.804	0.111	-0.269
-588.923	614.171	0.105	0.264
-587.909	-200.000	-0.011	-0.112
-586.894	-66.709	-0.126	0.050
-585.879	9.273	-0.087	-0.066
-584.865	-135.421	-0.083	0.010
-583.850	800.000	0.017	0.074
-582.836	101.973	0.205	-0.239
-581.821	-5.468	0.121	0.083
-580.806	217.439	0.094	0.151
-579.792	800.000	0.107	0.343
-578.777	-168.775	0.365	0.014
-577.763	546.587	0.149	-0.356
-576.748	174.905	-0.251	-0.363
-575.733	-137.606	-0.142	0.016
-574.719	128.798	0.175	0.224
-573.704	-200.000	0.029	0.140
-572.690	172.841	-0.131	-0.189
-571.675	445.427	-0.051	-0.112
-570.661	-63.765	0.173	0.071
-569.646	204.962	-0.169	-0.263
-568.631	-3.621	-0.143	-0.099
-567.617	-112.033	-0.240	-0.048
-566.602	-38.368	-0.276	0.146
-565.588	-40.950	-0.206	-0.107
-564.573	-84.325	-0.204	0.065
-563.558	-173.453	0.350	0.011
-562.544	-200.000	-0.058	0.292
-561.529	336.124	0.108	0.209
-560.515	251.146	-0.083	-0.141
-559.500	282.220	0.139	-0.249
-558.485	285.600	-0.055	-0.099
-557.471	800.000	-0.090	0.263
-556.456	800.000	-0.025	-0.074
-555.442	-18.523	0.195	-0.122
-554.427	-72.681	0.189	-0.070
-553.412	-136.957	0.147	0.017
-552.398	755.073	-0.093	0.251
-551.383	-14.250	-0.149	-0.096
-550.369	800.000	-0.047	-0.164
-549.354	800.000	0.038	-0.154
-548.339	-43.376	0.357	-0.180
-547.325	-66.461	0.250	-0.099
-546.310	-200.000	0.006	0.095
-545.296	-200.000	-0.003	0.140
-544.281	-110.144	-0.161	-0.034
-543.266	11.430	0.010	-0.007
-542.252	-34.783	-0.212	0.116
-541.237	157.042	-0.280	0.387
-540.223	-180.139	0.084	-0.002
-539.208	13.864	-0.122	-0.095
-538.193	-200.000	-0.015	0.110
-537.179	-123.299	-0.111	-0.018
-536.164	562.048	0.179	-0.433
-535.150	-200.000	0.032	-0.153
-534.135	-200.000	-0.013	0.218
-533.121	47.716	-0.050	0.046
-532.106	-74.183	0.146	-0.053
-531.091	-200.000	0.022	0.236
-530.077	142.171	-0.178	-0.236
-529.062	-2.023	0.162	0.114
-528.048	287.008	-0.081	-0.145
-527.033	-8.357	0.373	0.250
-526.018	102.101	0.112	0.130
-525.004	-159.104	-0.152	-0.009
-523.989	74.133	0.169	-0.177
-522.975	174.019	0.052	-0.074
-521.960	-86.951	-0.116	0.035
-520.945	-27.669	-0.122	0.071
-519.931	800.000	0.060	-0.222
-518.916	800.000	0.015	0.054
-517.902	-68.410	0.079	0.031
-516.887	-200.000	-0.013	0.145
-515.872	577.928	0.183	0.448
-514.858	123.330	0.181	-0.227
-513.843	221.152	-0.098	0.157
-512.829	795.225	-0.107	-0.295
-511.814	-156.826	0.485	0.030
-510.799	-30.477	-0.203	-0.115
-509.785	226.758	0.066	0.107
-508.770	-120.118	0.128	-0.022
-507.756	-61.252	-0.343	-0.144
-506.741	-200.000	-0.012	0.139
-505.726	49.144	0.162	-0.151
-504.712	-45.233	0.170	0.084
-503.697	178.141	-0.112	0.163
-502.683	-80.373	0.225	-0.075
-501.668	34.772	-0.126	0.110
-500.653	-200.000	0.005	0.120
-499.639	191.397	-0.072	0.107
-498.624	75.815	-0.230	0.243
-497.610	-200.000	-0.020	0.199
-496.595	-37.093	-0.221	-0.118
-495.581	-38.404	0.286	-0.151
-494.566	-200.000	-0.004	0.316
-493.551	-106.077	0.264	-0.059
-492.537	477.705	0.102	0.230
-491.522	-200.000	0.050	-0.224
-490.508	-200.000	-0.044	0.360
-489.493	-28.747	-0.150	-0.086
-488.478	51.220	0.114	0.108
-487.464	163.320	-0.212	0.297
-486.449	-100.205	0.260	-0.064
-485.435	800.000	-0.054	-0.223
-484.420	-54.706	0.146	-0.066
-483.405	29.311	0.280	-0.237
-482.391	168.853	0.217	-0.309
-481.376	-138.409	0.108	0.012
-480.362	-82.944	0.133	-0.043
-479.347	-200.000	0.006	-0.416
-478.332	-130.314	0.092	0.012
-477.318	-62.185	0.154	0.064
-476.303	-200.000	0.025	0.167
-475.289	-92.942	-0.107	-0.030
-474.274	42.091	0.125	0.113
-473.259	265.729	0.196	0.340
-472.245	-119.822	-0.231	-0.040
-471.230	800.000	0.098	-0.348
-470.216	-200.000	-0.086	-0.532
-469.201	48.114	0.139	-0.129
-468.186	-200.000	0.033	0.276
-467.172	-200.000	-0.008	0.062
-466.157	82.418	-0.228	-0.246
-465.143	185.317	-0.122	0.181
-464.128	136.225	0.115	0.149
-463.113	-200.000	0.015	0.069
-462.099	-40.472	-0.368	-0.190
-461.084	773.533	-0.063	-0.171
-460.070	-8.504	-0.160	-0.107
-459.055	-115.786	-0.397	-0.074
-458.040	258.071	0.172	-0.296
-457.026	688.909	-0.100	-0.260
-456.011	302.046	-0.171	0.314
-454.997	-94.022	0.399	0.109
-453.982	-147.048	-0.099	-0.008
-452.968	174.169	-0.177	-0.254
-451.953	96.737	-0.161	-0.184
-450.938	340.115	-0.104	0.201
-449.924	193.795	0.261	0.393
-448.909	-168.735	0.154	-0.006
-447.895	-25.034	0.089	0.053
-446.880	-121.103	0.304	-0.051
-445.865	-122.814	-0.197	0.032
-444.851	-57.745	0.199	0.087
-443.836	-200.000	-0.024	-0.175
-442.822	69.285	-0.257	-0.263
-441.807	-102.517	-0.278	-0.066
-440.792	68.570	-0.175	-0.178
-439.778	-25.618	0.143	-0.084
-438.763	-62.691	-0.107	-0.044
-437.749	-19.516	0.185	0.114
-436.734	-49.791	0.041	0.020
-435.719	-200.000	0.055	0.281
-434.705	-47.657	0.198	-0.096
-433.690	62.075	0.308	0.305
-432.676	643.312	-0.190	-0.482
-431.661	-65.201	0.124	0.050
-430.646	-100.610	-0.151	-0.037
-429.632	-200.000	-0.006	-0.335
-428.617	-21.800	-0.141	-0.085
-427.603	-98.108	-0.351	0.090
-426.588	-200.000	-0.010	-0.207
-425.573	-19.749	-0.188	-0.116
-424.559	39.964	0.061	0.055
-423.544	-85.159	0.102	0.032
-422.530	-139.366	-0.339	0.036
-421.515	-200.000	-0.035	-0.362
-420.500	-36.609	0.091	-0.049
-419.486	-129.514	0.334	-0.046
-418.471	72.317	-0.245	0.253
-417.457	-92.419	0.256	0.072
-416.442	-200.000	0.016	-0.107
-415.428	-131.387	0.184	0.024
-414.413	-0.003	-0.286	0.202
-413.398	591.565	0.077	-0.189
-412.384	434.785	-0.029	-0.063
-411.369	-181.938	-0.241	-0.005
-410.355	-35.722	-0.394	-0.212
-409.340	160.080	0.120	-0.167
-408.325	162.614	0.035	-0.049
-407.311	-182.842	-0.210	0.004
-406.296	304.411	-0.024	-0.045
-405.282	100.680	-0.147	-0.170
-404.267	95.856	0.136	0.155
-403.252	-6.565	0.205	0.139
-402.238	-200.000	0.019	0.577
-401.223	-133.588	0.239	-0.030
-400.209	-200.000	0.018	0.369
-399.194	-140.157	-0.243	0.025
-398.179	502.223	-0.099	-0.228
-397.165	65.821	0.180	0.181
-396.150	-200.000	-0.026	-0.150
-395.136	-200.000	-0.051	0.376
-394.121	26.249	-0.107	-0.089
-393.106	508.829	-0.181	-0.417
-392.092	12.060	-0.233	0.178
-391.077	-200.000	0.007	0.054
-390.063	-113.814	0.423	0.082
-389.048	-86.881	-0.267	0.081
-388.033	204.420	0.179	0.276
-387.019	-89.872	-0.299	-0.087
-386.004	-35.576	-0.113	-0.061
-384.990	-129.994	-0.121	0.016
-383.975	-161.302	0.302	-0.016
-382.960	-200.000	0.013	0.205
-381.946	310.305	0.036	-0.067
-380.931	-33.079	-0.174	0.096
-379.917	99.538	0.199	0.229
-378.902	179.044	0.049	0.072
-377.888	58.736	-0.088	0.086
-376.873	-156.763	0.341	-0.021
-375.858	5.034	-0.156	-0.114
-374.844	97.535	-0.160	-0.183
-373.829	-200.000	-0.016	-0.398
-372.815	428.275	0.041	-0.088
-371.800	112.608	-0.119	-0.143
-370.785	800.000	0.036	0.120
-369.771	800.000	0.042	-0.165
-368.756	-140.903	0.030	-0.003
-367.742	800.000	-0.048	-0.165
-366.727	-200.000	-0.027	-0.166
-365.712	205.440	-0.048	0.074
-364.698	2.498	0.247	0.178
-363.683	-157.785	0.174	0.010
-362.669	800.000	-0.073	-0.280
-361.654	-200.000	0.003	-0.055
-360.639	2.046	0.237	0.170
-359.625	800.000	-0.055	0.169
-358.610	-44.601	0.108	0.053
-357.596	800.000	0.096	-0.351
-356.581	-117.860	0.208	0.037
-355.566	-200.000	0.026	-0.281
-354.552	14.588	0.112	0.087
-353.537	-36.173	0.111	-0.059
-352.523	6.680	-0.165	0.122
-351.508	-110.702	-0.316	-0.065
-350.493	-200.000	0.018	0.199
-349.479	239.988	-0.079	-0.131
-348.464	343.719	-0.076	0.147
-347.450	42.300	0.387	0.348
-346.435	-35.853	0.086	-0.046
-345.420	351.789	0.042	-0.083
-344.406	-200.000	0.043	0.494
-343.391	-70.705	0.049	-0.018
-342.377	-147.013	-0.236	0.020
-341.362	-200.000	-0.018	0.184
-340.348	250.716	-0.038	0.064
-339.333	-153.051	0.174	-0.012
-338.318	457.370	0.059	-0.131
-337.304	55.241	0.043	0.042
-336.289	-42.131	0.179	-0.091
-335.275	800.000	-0.094	-0.310
-334.260	-97.411	0.456	-0.118
-333.245	-150.005	0.027	0.002
-332.231	-113.761	-0.109	0.021
-331.216	68.840	0.118	-0.120
-330.202	800.000	0.033	0.107
-329.187	800.000	-0.049	0.160
-328.172	-116.538	-0.332	-0.061
-327.158	495.649	-0.117	-0.265
-326.143	431.981	-0.087	-0.187
-325.129	-200.000	0.036	0.284
-324.114	-161.620	-0.183	-0.009
-323.099	53.276	0.097	-0.092
-322.085	6.515	0.166	0.122
-321.070	-17.800	0.190	-0.118
-320.056	800.000	0.031	-0.085
-319.041	-92.460	0.217	0.060
-318.026	-49.214	-0.264	0.125
-317.012	-79.674	0.569	0.190
-315.997	-200.000	0.030	-0.315
-314.983	-110.441	-0.162	-0.033
-313.968	-13.356	-0.259	-0.166
-312.953	237.627	-0.084	0.138
-311.939	-74.390	-0.107	0.038
-310.924	-78.060	-0.093	0.032
-309.910	-65.439	0.367	0.146
-308.895	486.275	0.077	-0.174
-307.880	104.376	0.062	0.073
-306.866	-200.000	0.004	0.093
-305.851	-147.168	0.018	0.002
-304.837	-86.026	-0.323	0.099
-303.822	182.182	-0.149	-0.218
-302.807	800.000	-0.103	0.378
-301.793	-22.071	0.088	-0.053
-300.778	73.592	-0.147	-0.152
-299.764	567.345	-0.096	-0.230
-298.749	234.162	-0.128	0.208
-297.735	-26.330	-0.210	-0.122
-296.720	401.693	0.109	-0.226
-295.705	-160.400	-0.323	-0.017
-294.691	-68.676	0.177	-0.068
-293.676	108.570	-0.131	-0.155
-292.662	281.564	0.172	0.305
-291.647	608.050	0.145	0.358
-290.632	-65.497	-0.050	-0.020
-289.618	800.000	-0.079	-0.284
-288.603	800.000	0.059	-0.213
-287.589	0.262	0.218	0.154
-286.574	800.000	0.065	0.187
-285.559	298.191	0.025	-0.045
-284.545	-27.832	0.218	0.125
-283.530	8.642	0.033	0.025
-282.516	-39.645	-0.166	-0.086
-281.501	195.337	-0.043	0.064
-280.486	117.747	-0.092	0.112
-279.472	259.004	0.105	0.180
-278.457	-200.000	0.014	0.190
-277.443	-10.781	0.147	-0.096
-276.428	-21.895	-0.222	0.134
-275.413	-153.124	-0.166	-0.012
-274.399	230.923	0.086	-0.140
-273.384	-109.229	-0.311	-0.065
-272.370	-200.000	0.004	0.348
-271.355	-87.204	-0.275	0.082
-270.340	-54.970	-0.356	-0.159
-269.326	-45.062	0.327	0.161
-268.311	-53.322	0.317	0.143
-267.297	47.105	0.365	0.335
-266.282	-200.000	0.021	0.108
-265.267	-61.997	-0.166	0.068
-264.253	127.861	0.241	-0.303
-263.238	60.159	0.230	0.225
-262.224	-66.038	-0.061	-0.024
-261.209	-99.885	-0.260	-0.064
-260.195	102.539	-0.088	0.102
-259.180	-200.000	0.006	0.180
-258.165	90.817	0.054	-0.059
-257.151	-37.891	0.075	0.040
-256.136	-0.108	-0.082	-0.058
-255.122	221.617	-0.082	-0.130
-254.107	149.188	-0.186	0.248
-253.092	-123.046	0.171	0.027
-252.078	175.006	0.146	0.209
-251.063	-136.863	0.294	0.033
-250.049	159.438	0.217	-0.299
-249.034	-200.000	-0.016	0.183
-248.019	3.531	-0.265	-0.190
-247.005	-25.297	-0.186	0.109
-245.990	706.055	-0.154	-0.400
-244.976	11.396	-0.046	0.034
-243.961	800.000	0.106	-0.316
-242.946	662.907	-0.111	-0.282
-241.932	-200.000	-0.009	0.044
-240.917	34.828	-0.161	0.139
-239.903	-36.882	0.180	-0.095
-238.888	124.190	-0.093	0.116
-237.873	-87.320	-0.264	0.079
-236.859	-23.263	0.239	0.142
-235.844	381.270	-0.160	0.325
-234.830	19.866	-0.124	0.099
-233.815	-42.889	0.224	-0.112
-232.800	800.000	0.040	-0.111
-231.786	800.000	-0.042	0.130
-230.771	-62.015	0.375	0.155
-229.757	-200.000	-0.012	0.080
-228.742	27.605	-0.036	-0.030
-227.727	-21.781	-0.094	-0.056
-226.713	-101.409	-0.172	-0.041
-225.698	141.339	0.201	-0.263
-224.684	179.309	0.076	-0.109
-223.669	153.096	0.079	-0.107
-222.655	440.753	-0.199	0.429
-221.640	-134.197	0.072	0.009
-220.625	86.032	-0.057	0.062
-219.611	-105.675	0.084	-0.019
-218.596	532.484	0.062	-0.144
-217.582	800.000	0.074	0.252
-216.567	0.758	-0.285	-0.201
-215.552	-59.846	0.271	0.114
-214.538	-37.856	0.138	-0.072
-213.523	53.523	-0.208	0.197
-212.509	-115.247	0.257	0.048
-211.494	327.026	-0.201	-0.379
-210.479	-56.456	-0.079	-0.035
-209.465	129.025	-0.115	0.145
-208.450	174.000	-0.147	-0.209
-207.436	800.000	0.056	0.219
-206.421	63.784	-0.274	-0.272
-205.406	800.000	0.008	0.029
-204.392	-200.000	-0.022	-0.182
-203.377	-149.906	-0.027	-0.002
-202.363	104.454	-0.069	0.081
-201.348	800.000	0.089	0.265
-200.333	-120.716	0.046	0.008
-199.319	276.193	0.063	0.110
-198.304	67.274	0.132	-0.133
-197.290	-73.128	-0.173	0.063
-196.275	78.112	0.197	0.207
-195.260	-152.387	-0.186	0.013
-194.246	-62.979	0.120	0.049
-193.231	353.461	-0.042	-0.083
-192.217	-118.814	0.260	-0.045
-191.202	-62.788	-0.111	-0.045
-190.187	-73.936	-0.157	-0.056
-189.173	783.391	0.144	0.389
-188.158	800.000	0.021	0.060
-187.144	800.000	-0.023	-0.068
-186.129	-92.609	-0.157	-0.043
-185.114	-50.724	-0.169	-0.078
-184.100	-46.452	-0.044	-0.021
-183.085	129.787	-0.058	-0.073
-182.071	458.351	0.081	-0.177
-181.056	174.155	-0.087	0.124
-180.042	467.262	0.057	0.125
-179.027	-169.373	-0.057	0.002
-178.012	-104.842	-0.511	-0.116
-176.998	44.114	0.100	-0.090
-175.983	-27.902	-0.145	0.082
-174.969	-76.492	-0.063	0.022
-173.954	-168.498	-0.135	0.005
-172.939	-100.076	-0.198	0.048
-171.925	261.642	0.038	-0.065
-170.910	-111.573	-0.153	-0.031
-169.896	-114.192	0.128	0.024
-168.881	800.000	-0.083	0.335
-167.866	-130.230	0.262	-0.035
-166.852	44.924	-0.167	0.152
-165.837	13.789	0.034	-0.026
-164.823	800.000	0.028	-0.096
-163.808	-53.076	0.241	-0.109
-162.793	101.808	-0.185	-0.213
-161.779	-58.751	0.193	-0.082
-160.764	800.000	0.173	0.489
-159.750	-21.875	0.144	-0.086
-158.735	290.264	-0.070	0.125
-157.720	-27.076	-0.113	-0.065
-156.706	68.826	0.068	-0.069
-155.691	-200.000	0.017	-0.131
-154.677	-200.000	0.052	0.436
-153.662	-200.000	-0.007	0.118
-152.647	-36.639	0.166	-0.088
-151.633	-94.593	0.370	-0.099
-150.618	800.000	0.078	0.301
-149.604	68.611	0.054	0.055
-148.589	260.170	-0.190	0.323
-147.574	-25.107	-0.359	0.209
-146.560	-154.805	-0.223	-0.015
-145.545	-102.848	0.287	0.067
-144.531	-3.934	0.141	-0.096
-143.516	495.177	0.139	-0.314
-142.502	-78.118	-0.226	0.076
-141.487	-57.931	0.207	-0.089
-140.472	-77.279	-0.153	0.052
-139.458	-98.341	0.269	0.068
-138.443	51.228	0.205	-0.191
-137.429	-82.418	0.253	0.081
-136.414	-35.118	0.153	-0.082
-135.399	171.102	-0.033	-0.046
-134.385	800.000	0.023	-0.100
-133.370	800.000	-0.103	-0.330
-132.356	-93.229	-0.248	0.068
-131.341	-200.000	0.032	0.185
-130.326	11.916	0.117	0.088
-129.312	418.032	-0.056	0.118
-128.297	236.422	0.179	0.291
-127.283	-75.450	-0.139	-0.049
-126.268	-107.517	-0.204	0.044
-125.253	-200.000	0.022	0.183
-124.239	-59.820	-0.212	-0.089
-123.224	766.041	-0.059	-0.158
-122.210	77.675	-0.239	0.250
-121.195	-100.615	-0.123	-0.030
-120.180	800.000	0.124	-0.447
-119.166	-92.360	-0.188	-0.052
-118.151	153.524	0.129	-0.174
-117.137	-200.000	-0.035	-0.200
-116.122	-200.000	-0.004	0.190
-115.107	258.052	0.116	0.196
-114.093	-200.000	0.002	-0.180
-113.078	-117.180	-0.492	-0.088
-112.064	-200.000	0.019	-0.100
-111.049	-53.479	-0.210	-0.094
-110.034	60.747	0.114	-0.111
-109.020	-70.709	0.158	0.058
-108.005	-53.460	-0.325	-0.146
-106.991	-79.467	-0.148	-0.049
-105.976	-97.871	-0.253	0.064
-104.962	374.341	0.064	-0.127
-103.947	-60.056	-0.069	-0.029
-102.932	-200.000	-0.009	0.143
-101.918	-200.000	-0.004	-0.061
-100.903	800.000	-0.159	0.528
-99.889	327.742	-0.155	-0.292
-98.874	-200.000	-0.025	0.181
-97.859	-32.194	0.222	0.122
-96.845	-157.543	-0.282	-0.017
-95.830	-200.000	0.004	0.078
-94.816	-200.000	0.028	0.497
-93.801	22.594	-0.053	-0.042
-92.786	473.847	-0.061	-0.135
-91.772	-200.000	0.003	-0.187
-90.757	-200.000	-0.050	0.235
-89.743	800.000	0.047	-0.136
-88.728	-67.174	-0.207	-0.080
-87.713	-69.676	-0.364	0.137
-86.699	-72.494	-0.209	-0.076
-85.684	104.863	-0.320	0.370
-84.670	-116.607	0.403	0.073
-83.655	-39.955	0.319	0.163
-82.640	-67.595	-0.230	0.089
-81.626	-156.598	-0.185	-0.011
-80.611	-144.087	0.216	-0.020
-79.597	93.056	0.227	-0.252
-78.582	501.808	0.125	0.283
-77.567	60.153	0.193	0.188
-76.553	-200.000	-0.010	-0.191
-75.538	294.197	-0.132	-0.237
-74.524	-200.000	-0.030	0.297
-73.509	-134.342	0.203	-0.024
-72.494	-60.321	-0.282	-0.118
-71.480	-200.000	-0.020	-0.347
-70.465	-48.958	-0.296	0.139
-69.451	-196.231	0.262	-0.002
-68.436	-200.000	-0.011	-0.207
-67.422	0.287	0.284	0.198
-66.407	198.309	-0.208	0.312
-65.392	172.964	0.132	-0.187
-64.378	800.000	0.061	-0.206
-63.363	-51.221	-0.141	0.065
-62.349	207.714	-0.134	0.204
-61.334	79.437	-1.082	-1.138
-60.319	-17.302	0.820	0.506
-59.305	800.000	-0.362	-1.408
-58.290	473.039	0.631	1.394
-57.276	800.000	0.475	1.463
-56.261	-200.000	119.916	611.659
-55.246	399.705	1532.313	3147.765
-54.232	145.390	2689.826	3529.791
-53.217	87.670	2298.189	2494.739
-52.203	31.351	2045.807	1721.948
-51.188	27.135	1962.365	1614.288
-50.173	25.834	1946.379	1589.606
-49.159	41.349	2013.885	1784.998
-48.144	40.397	2028.245	1789.067
-47.130	27.554	1982.189	1634.097
-46.115	25.458	1971.456	1606.471
-45.100	25.319	1968.659	1602.882
-44.086	25.257	1966.264	1600.315
-43.071	25.204	1963.468	1597.511
-42.057	25.186	1962.235	1596.277
-41.042	25.201	1960.318	1594.790
-40.027	25.231	1958.270	1593.329
-39.013	25.267	1955.851	1591.612
-37.998	25.248	1953.974	1589.856
-36.984	25.184	1952.565	1588.077
-35.969	25.252	1951.012	1587.360
-34.954	25.363	1949.155	1586.767
-33.940	25.339	1947.933	1585.496
-32.925	25.433	1945.558	1584.323
-31.911	25.339	1944.747	1582.772
-30.896	25.399	1942.641	1581.522
-29.881	25.412	1941.792	1580.889
-28.867	25.450	1939.889	1579.611
-27.852	25.398	1938.264	1577.766
-26.838	25.456	1935.743	1576.161
-25.823	25.377	1934.772	1574.611
-24.809	25.361	1933.245	1573.171
-23.794	25.352	1931.075	1571.260
-22.779	25.355	1929.109	1569.622
-21.765	25.333	1927.654	1568.189
-20.750	25.369	1926.432	1567.442
-19.736	25.329	1924.502	1565.467
-18.721	25.425	1923.125	1565.119
-17.706	25.375	1922.038	1563.735
-16.692	25.414	1919.449	1561.911
-15.677	25.302	1918.611	1560.191
-14.663	25.398	1916.998	1559.645
-13.648	25.356	1915.606	1558.089
-12.633	25.374	1914.532	1557.312
-11.619	25.394	1913.327	1556.446
-10.604	25.237	1912.941	1554.704
-9.590	25.264	1911.261	1553.515
-8.575	25.348	1909.110	1552.433
-7.560	25.335	1908.648	1551.876
-6.546	25.392	1906.230	1550.348
-5.531	25.287	1905.689	1548.936
-4.517	25.296	1904.222	1547.763
-3.502	25.368	1902.945	1547.280
-2.487	25.309	1901.891	1545.856
-1.473	25.377	1900.966	1545.627
-0.458	25.303	1896.223	1541.071
0.556	23.420	1876.119	1512.116
1.571	18.940	1857.446	1459.011
2.586	14.827	1879.846	1441.077
3.600	13.857	1913.818	1458.476
4.615	13.843	1907.342	1453.285
5.629	10.880	1809.639	1354.076
6.644	4.312	1697.327	1218.476
7.659	0.538	1664.258	1165.533
8.673	0.293	1660.600	1160.976
9.688	0.216	1659.871	1159.777
10.702	0.173	1658.669	1158.498
11.717	0.048	1654.473	1154.512
12.731	0.590	1653.257	1157.710
13.746	5.538	1664.399	1203.533
14.761	12.867	1678.819	1270.519
15.775	16.564	1684.544	1303.271
16.790	16.802	1683.446	1304.140
17.804	15.887	1680.314	1294.568
18.819	14.842	1677.656	1284.374
19.834	14.365	1675.082	1278.632
20.848	14.082	1673.645	1275.256
21.863	13.878	1671.794	1272.166
22.877	13.628	1669.946	1268.730
23.892	13.429	1668.788	1266.217
24.907	13.162	1668.253	1263.655
25.921	13.162	1667.081	1262.659
26.936	13.150	1665.790	1261.476
27.950	13.245	1665.290	1261.712
28.965	13.282	1664.610	1261.370
29.980	13.341	1663.877	1261.153
30.994	13.403	1662.524	1260.490
32.009	13.459	1662.111	1260.485
33.023	13.470	1661.162	1259.741
34.038	13.396	1660.060	1258.232
35.053	13.392	1659.582	1257.724
36.067	13.416	1658.058	1256.642
37.082	13.400	1656.734	1255.409
38.096	13.426	1655.856	1254.829
39.111	13.451	1654.714	1254.041
40.126	13.383	1654.098	1252.946
41.140	13.460	1653.233	1252.765
42.155	13.456	1651.464	1251.280
43.169	13.322	1650.065	1249.097
44.184	13.278	1649.596	1248.304
45.199	13.175	1648.237	1246.389
46.213	13.265	1646.900	1245.943
47.228	13.317	1645.757	1245.362
48.242	13.243	1645.048	1244.155
49.257	13.435	1643.194	1244.087
50.271	13.338	1642.229	1242.517
51.286	13.229	1641.463	1241.008
52.301	13.405	1639.509	1240.741
53.315	13.320	1638.573	1239.287
54.330	13.339	1636.916	1238.069
55.344	13.313	1635.158	1236.438
56.359	13.241	1634.096	1234.986
57.374	13.266	1632.632	1233.951
58.388	13.296	1631.528	1233.233
59.403	13.210	1630.537	1231.734
60.417	13.167	1628.702	1229.921
61.432	13.159	1627.931	1229.173
62.447	13.231	1626.565	1228.568
63.461	13.076	1625.592	1226.570
64.476	13.123	1624.145	1225.719
65.490	13.167	1622.593	1224.766
66.505	13.128	1621.738	1223.719
67.520	13.138	1620.593	1222.825
68.534	13.213	1619.307	1222.298
69.549	13.184	1618.348	1221.252
70.563	13.216	1616.994	1220.362
71.578	13.243	1615.797	1219.547
72.593	13.142	1614.654	1217.836
73.607	13.076	1613.444	1216.324
74.622	13.077	1612.266	1215.340
75.636	13.010	1611.476	1214.143
76.651	13.124	1610.106	1213.839
77.666	13.075	1609.957	1213.258
78.680	13.138	1608.295	1212.366
79.695	13.041	1607.705	1211.098
80.709	13.154	1606.215	1210.697
81.724	13.067	1605.874	1209.697
82.739	13.161	1605.023	1209.637
83.753	13.178	1604.057	1208.927
84.768	13.290	1603.218	1209.005
85.782	13.317	1601.906	1208.106
86.797	13.372	1601.013	1207.724
87.812	13.361	1600.278	1206.987
88.826	13.356	1598.860	1205.771
89.841	13.252	1598.147	1204.368
90.855	13.274	1597.134	1203.659
91.870	13.291	1596.065	1202.871
92.884	13.319	1595.331	1202.416
93.899	13.372	1593.964	1201.664
94.914	13.395	1592.630	1200.717
95.928	13.458	1591.500	1200.221
96.943	13.460	1590.096	1199.067
97.957	13.308	1589.088	1197.105
98.972	13.377	1587.650	1196.410
99.987	13.433	1585.620	1195.180
101.001	13.359	1584.112	1193.404
102.016	13.383	1582.697	1192.404
103.030	13.297	1581.822	1191.024
104.045	13.450	1580.190	1190.789
105.060	13.398	1578.883	1189.324
106.074	13.413	1577.449	1188.244
107.089	13.335	1575.729	1186.283
108.103	13.171	1574.737	1184.261
109.118	13.224	1573.129	1183.327
110.133	13.179	1571.372	1181.575
111.147	13.200	1570.542	1180.998
112.162	13.116	1569.777	1179.720
113.176	13.232	1567.654	1178.845
114.191	13.251	1566.756	1178.201
115.206	13.281	1565.799	1177.588
116.220	13.323	1563.644	1176.166
117.235	13.347	1562.474	1175.350
118.249	13.297	1561.661	1174.279
119.264	13.212	1560.724	1172.868
120.279	13.241	1558.541	1171.330
121.293	13.269	1557.233	1170.445
122.308	13.246	1555.986	1169.241
123.322	13.238	1554.680	1168.100
124.337	13.276	1553.075	1167.059
125.352	13.225	1551.647	1165.522
126.366	13.144	1551.057	1164.404
127.381	13.203	1549.694	1163.692
128.395	13.237	1548.144	1162.666
129.410	13.251	1546.745	1161.612
130.424	13.208	1545.469	1160.243
131.439	13.228	1544.700	1159.705
132.454	13.184	1542.940	1157.972
133.468	13.304	1541.634	1157.733
134.483	13.311	1540.015	1156.463
135.497	13.344	1538.605	1155.529
136.512	13.418	1536.888	1154.653
137.527	13.283	1536.102	1153.019
138.541	13.373	1534.460	1152.317
139.556	13.301	1533.642	1151.101
140.570	13.283	1532.046	1149.673
141.585	13.415	1530.447	1149.288
142.600	13.369	1529.769	1148.357
143.614	13.426	1528.561	1147.744
144.629	13.557	1526.825	1147.247
145.643	13.444	1525.970	1145.720
146.658	13.558	1524.229	1145.100
147.673	13.509	1522.591	1143.430
148.687	13.460	1521.281	1142.010
149.702	13.511	1519.749	1141.106
150.716	13.475	1518.385	1139.736
151.731	13.419	1517.169	1138.339
152.746	13.448	1515.774	1137.389
153.760	13.461	1514.261	1136.244
154.775	13.463	1512.656	1134.949
155.789	13.459	1512.064	1134.376
156.804	13.634	1509.739	1133.731
157.819	13.654	1508.983	1133.198
158.833	13.641	1507.631	1131.998
159.848	13.573	1506.838	1130.836
160.862	13.735	1505.314	1130.699
161.877	13.699	1504.196	1129.508
162.892	13.686	1502.909	1128.354
163.906	13.594	1502.217	1127.114
164.921	13.553	1500.915	1125.757
165.935	13.599	1499.904	1125.212
166.950	13.656	1498.333	1124.315
167.964	13.551	1497.662	1123.007
168.979	13.593	1496.710	1122.478
169.994	13.585	1495.679	1121.548
171.008	13.626	1494.350	1120.730
172.023	13.661	1493.409	1120.162
173.037	13.563	1492.302	1118.573
174.052	13.675	1491.230	1118.424
175.067	13.713	1490.344	1117.914
176.081	13.769	1489.020	1117.203
177.096	13.696	1487.428	1115.419
178.110	13.757	1486.004	1114.658
179.125	13.665	1485.169	1113.320
180.140	13.731	1483.886	1112.698
181.154	13.755	1482.702	1111.872
182.169	13.785	1481.631	1111.174
183.183	13.766	1480.205	1109.876
184.198	13.848	1479.370	1109.707
185.213	13.829	1478.218	1108.616
186.227	13.871	1477.419	1108.197
187.242	13.873	1476.354	1107.313
188.256	13.849	1475.144	1106.148
189.271	13.938	1473.906	1105.713
190.286	13.965	1472.999	1105.116
191.300	13.799	1472.423	1103.479
192.315	13.880	1470.899	1102.783
193.329	13.687	1469.441	1100.310
194.344	13.866	1468.101	1100.396
195.359	13.807	1467.485	1099.443
196.373	13.820	1466.274	1098.528
197.388	13.871	1465.299	1098.035
198.402	13.888	1464.361	1097.350
199.417	14.010	1463.000	1097.036
200.432	13.949	1462.524	1096.180
201.446	14.111	1461.348	1096.270
202.461	14.135	1460.279	1095.531
203.475	14.231	1458.850	1094.990
204.490	14.103	1457.831	1093.288
205.504	14.188	1456.862	1093.020
206.519	14.146	1455.773	1091.835
207.534	14.081	1454.788	1090.575
208.548	14.087	1453.657	1089.669
209.563	14.147	1452.503	1089.099
210.577	14.211	1451.265	1088.491
211.592	14.127	1450.748	1087.462
212.607	14.220	1449.903	1087.341
213.621	14.220	1449.397	1086.859
214.636	14.333	1448.095	1086.528
215.650	14.265	1447.170	1085.292
216.665	14.342	1446.191	1084.961
217.680	14.277	1445.700	1084.077
218.694	14.240	1444.862	1083.114
219.709	14.284	1443.884	1082.570
220.723	14.246	1443.166	1081.689
221.738	14.479	1441.458	1081.822
222.753	14.332	1441.081	1080.489
223.767	14.325	1439.871	1079.441
224.782	14.391	1438.719	1078.909
225.796	14.420	1437.915	1078.398
226.811	14.498	1437.355	1078.392
227.826	14.507	1436.304	1077.565
228.840	14.417	1435.472	1076.265
229.855	14.395	1434.922	1075.614
230.869	14.427	1433.694	1074.802
231.884	14.441	1432.765	1074.101
232.899	14.355	1431.439	1072.461
233.913	14.373	1430.290	1071.622
234.928	14.356	1428.968	1070.426
235.942	14.413	1427.823	1069.841
236.957	14.368	1427.094	1068.911
237.972	14.417	1425.551	1067.977
238.986	14.448	1424.491	1067.285
240.001	14.372	1424.596	1066.784
241.015	14.488	1423.011	1066.240
242.030	14.388	1422.082	1064.814
243.045	14.527	1420.749	1064.610
244.059	14.593	1419.932	1064.319
245.074	14.503	1419.419	1063.268
246.088	14.598	1418.459	1063.062
247.103	14.631	1417.695	1062.603
248.117	14.728	1416.598	1062.303
249.132	14.665	1415.954	1061.327
250.147	14.746	1415.523	1061.427
251.161	14.790	1414.998	1061.219
252.176	14.853	1414.170	1060.906
253.190	14.915	1412.913	1060.258
254.205	14.941	1411.880	1059.555
255.220	14.976	1411.423	1059.338
256.234	14.909	1410.414	1058.061
257.249	14.973	1410.140	1058.173
258.263	15.036	1408.579	1057.306
259.278	14.991	1408.018	1056.502
260.293	14.956	1407.338	1055.680
261.307	14.919	1406.107	1054.432
262.322	14.992	1405.690	1054.486
263.336	15.050	1404.864	1054.134
264.351	15.136	1403.628	1053.657
265.366	15.046	1403.341	1052.784
266.380	15.169	1402.249	1052.640
267.395	15.186	1400.943	1051.672
268.409	15.222	1399.801	1050.949
269.424	15.079	1399.370	1049.637
270.439	15.108	1398.426	1049.017
271.453	15.117	1397.152	1048.027
272.468	15.188	1396.635	1047.989
273.482	15.158	1395.428	1046.805
274.497	15.151	1394.903	1046.275
275.512	15.197	1393.747	1045.602
276.526	15.197	1392.571	1044.628
277.541	15.241	1392.026	1044.397
278.555	15.265	1391.323	1043.932
279.570	15.283	1390.138	1043.058
280.585	15.246	1389.066	1041.930
281.599	15.211	1389.216	1041.735
282.614	15.389	1387.475	1041.444
283.628	15.352	1386.812	1040.624
284.643	15.248	1385.502	1038.906
285.657	15.286	1384.597	1038.368
286.672	15.370	1383.833	1038.222
287.687	15.321	1382.913	1037.139
288.701	15.334	1381.969	1036.418
289.716	15.314	1380.740	1035.280
290.730	15.327	1380.365	1034.993
291.745	15.396	1379.351	1034.563
292.760	15.370	1378.447	1033.632
293.774	15.384	1377.445	1032.875
294.789	15.432	1375.923	1031.942
295.803	15.545	1375.370	1032.131
296.818	15.531	1374.596	1031.373
297.833	15.548	1373.501	1030.563
298.847	15.504	1372.969	1029.799
299.862	15.532	1371.617	1028.868
300.876	15.609	1370.693	1028.554
301.891	15.489	1369.725	1027.004
302.906	15.610	1369.182	1027.242
303.920	15.562	1369.022	1026.741
304.935	15.766	1367.529	1026.776
305.949	15.686	1367.121	1025.887
306.964	15.586	1366.387	1024.641
307.979	15.671	1365.436	1024.352
308.993	15.767	1364.016	1023.783
310.008	15.658	1363.355	1022.529
311.022	15.749	1362.285	1022.193
312.037	15.761	1361.341	1021.466
313.052	15.699	1360.963	1020.712
314.066	15.764	1359.459	1019.889
315.081	15.771	1358.516	1019.135
316.095	15.696	1357.366	1017.731
317.110	15.786	1355.986	1017.149
318.125	15.769	1355.537	1016.618
319.139	15.708	1354.664	1015.504
320.154	15.777	1353.916	1015.271
321.168	15.832	1352.399	1014.374
322.183	15.793	1351.586	1013.441
323.197	15.782	1350.648	1012.581
324.212	15.846	1350.149	1012.501
325.227	15.856	1349.216	1011.775
326.241	15.895	1348.508	1011.387
327.256	15.836	1347.723	1010.357
328.270	15.882	1346.364	1009.523
329.285	15.780	1346.037	1008.574
330.300	15.833	1344.872	1007.934
331.314	15.833	1344.035	1007.216
332.329	15.835	1343.090	1006.429
333.343	15.901	1342.290	1006.135
334.358	15.859	1341.555	1005.249
335.373	15.935	1340.564	1004.868
336.387	15.990	1339.441	1004.267
337.402	16.015	1339.003	1003.996
338.416	16.082	1338.408	1003.863
339.431	15.999	1337.727	1002.769
340.446	16.142	1336.526	1002.631
341.460	16.130	1335.678	1001.834
342.475	16.084	1335.223	1001.126
343.489	16.153	1334.342	1000.792
344.504	16.252	1333.247	1000.468
345.519	16.253	1332.526	999.846
346.533	16.242	1331.249	998.733
347.548	16.316	1330.163	998.268
348.562	16.339	1329.304	997.666
349.577	16.316	1328.460	996.811
350.592	16.312	1328.017	996.366
351.606	16.268	1327.141	995.363
352.621	16.340	1325.600	994.544
353.635	16.340	1324.995	994.001
354.650	16.323	1323.872	992.968
355.665	16.311	1322.862	992.051
356.679	16.235	1322.241	991.052
357.694	16.201	1321.139	989.939
358.708	16.383	1319.587	989.756
359.723	16.356	1319.012	989.083
360.738	16.371	1317.892	988.239
361.752	16.443	1316.770	987.732
362.767	16.442	1315.665	986.809
363.781	16.411	1314.952	986.008
364.796	16.495	1313.936	985.645
365.810	16.540	1313.555	985.535
366.825	16.404	1313.179	984.377
367.840	16.544	1312.156	984.339
368.854	16.554	1311.366	983.715
369.869	16.599	1310.731	983.414
370.883	16.627	1310.193	983.082
371.898	16.594	1309.334	982.161
372.913	16.560	1309.041	981.657
373.927	16.674	1308.049	981.490
374.942	16.653	1306.868	980.395
375.956	16.673	1306.570	980.200
376.971	16.683	1305.545	979.400
377.986	16.696	1304.652	978.718
379.000	16.610	1304.373	977.929
380.015	16.777	1302.869	977.678
381.029	16.876	1301.821	977.373
382.044	16.801	1301.935	976.939
383.059	16.796	1301.179	976.257
384.073	16.851	1300.201	975.755
385.088	16.853	1299.413	975.087
386.102	16.892	1298.841	974.797
387.117	16.852	1298.326	974.096
388.132	16.956	1297.395	973.909
389.146	16.909	1296.671	973.010
390.161	16.747	1295.766	971.313
391.175	16.855	1295.269	971.473
392.190	16.928	1293.848	970.744
393.205	16.841	1293.244	969.701
394.219	16.887	1292.398	969.249
395.234	16.978	1290.955	968.599
396.248	16.976	1289.718	967.571
397.263	16.955	1288.471	966.434
398.278	16.999	1287.281	965.702
399.292	16.894	1286.475	964.415
400.307	16.841	1285.480	963.283
401.321	16.921	1284.137	962.648
402.336	16.893	1283.325	961.796
403.350	17.006	1282.153	961.472
404.365	16.955	1281.343	960.488
405.380	17.039	1280.306	960.102
406.394	17.012	1279.378	959.172
407.409	17.080	1278.996	959.184
408.423	17.099	1278.379	958.745
409.438	17.132	1277.822	958.428
410.453	17.134	1276.823	957.601
411.467	17.202	1276.152	957.401
412.482	17.174	1275.617	956.755
413.496	17.307	1275.158	957.076
414.511	17.283	1274.357	956.255
415.526	17.196	1273.650	955.147
416.540	17.397	1272.241	955.140
417.555	17.385	1271.855	954.693
418.569	17.338	1271.470	954.059
419.584	17.403	1270.859	953.880
420.599	17.314	1270.447	952.988
421.613	99.283	1357.432	1482.869
422.628	96.762	1370.017	1482.958
