DTS Sentinel unit serial number:	SN413079Multiplexer serial number:	ORYXHardware model number:	OX4-SRSoftware version number:	ORYX F/W v4.00 Oryx Data Collector v3.7.2.0data status	okinstallation	princeton_trtdifferential loss correction	single-endedforward channel	channel 4reverse channel	N/Adate	2019/09/15time	02:33:35forward acquisition time	60.00reverse acquisition time	0.00gamma	496.2192k internal	0.2309k external	0.2309temperature offset calibration	1.0037default loss term (dB/km)	0.3790temperature slope calibration	1.0000multiplexer offset coefficient	1.0000multiplexer slope coefficient	1.0000fibre end	0.00T internal ref (°C)	31.50T ext. ref 1 (°C)	4.57T ext. ref 2 (°C)	25.89length (m)	temperature (°C)	Stokes	anti-Stokes-747.200	-200.000	-0.005	-0.222
-746.185	46.080	-0.110	0.104
-745.171	-70.091	-0.141	-0.054
-744.156	-64.531	-0.452	0.186
-743.142	-107.199	0.506	-0.113
-742.127	115.185	0.062	0.076
-741.112	127.908	0.161	0.209
-740.098	-200.000	-0.007	0.121
-739.083	405.436	0.122	-0.260
-738.069	-53.332	0.275	-0.128
-737.054	422.277	0.094	-0.205
-736.039	-171.480	-0.231	-0.008
-735.025	39.833	0.107	-0.098
-734.010	218.220	0.050	0.081
-732.996	155.408	-0.158	-0.221
-731.981	-200.000	-0.080	0.395
-730.966	-37.479	-0.202	-0.109
-729.952	-59.222	0.084	0.037
-728.937	127.812	-0.152	-0.196
-727.923	131.254	-0.112	0.146
-726.908	800.000	-0.066	-0.263
-725.894	99.591	0.110	0.129
-724.879	11.876	0.258	-0.201
-723.864	-162.255	0.115	0.006
-722.850	313.933	-0.050	0.096
-721.835	800.000	-0.059	0.206
-720.821	-82.170	-0.375	0.124
-719.806	-9.517	-0.322	-0.218
-718.791	75.768	0.215	-0.230
-717.777	800.000	0.012	0.039
-716.762	800.000	0.038	-0.117
-715.748	-141.016	-0.286	-0.030
-714.733	4.148	-0.133	-0.099
-713.718	-1.415	0.292	-0.209
-712.704	-200.000	-0.056	-0.286
-711.689	299.617	0.068	0.128
-710.675	220.300	-0.185	0.301
-709.660	8.431	-0.131	-0.100
-708.645	-0.754	-0.324	0.233
-707.631	-96.074	0.064	-0.017
-706.616	-160.762	0.295	0.016
-705.602	371.362	-0.272	-0.560
-704.587	800.000	0.026	-0.107
-703.572	-116.503	-0.124	-0.023
-702.558	-128.512	-0.147	0.021
-701.543	-63.552	0.209	0.087
-700.529	-50.267	-0.063	0.030
-699.514	-126.333	0.442	0.067
-698.499	-3.942	0.298	0.209
-697.485	-200.000	0.029	0.209
-696.470	800.000	-0.106	-0.349
-695.456	325.703	0.076	-0.147
-694.441	300.894	-0.114	-0.214
-693.426	29.493	-0.342	-0.295
-692.412	95.025	-0.231	-0.266
-691.397	174.245	-0.094	-0.138
-690.383	-131.169	-0.262	0.035
-689.368	83.826	-0.042	0.046
-688.354	397.538	-0.107	-0.227
-687.339	67.870	-0.204	-0.211
-686.324	60.611	0.112	0.112
-685.310	-149.498	-0.546	-0.044
-684.295	-200.000	-0.144	-0.000
-683.281	-111.879	0.068	0.014
-682.266	321.955	-0.181	-0.350
-681.251	10.670	0.363	-0.280
-680.237	495.874	-0.034	0.080
-679.222	646.270	-0.094	0.243
-678.208	70.190	0.288	0.301
-677.193	240.234	0.055	0.093
-676.178	-200.000	0.010	-0.086
-675.164	-87.178	-0.269	0.083
-674.149	-200.000	-0.039	-0.371
-673.135	-103.461	-0.103	0.025
-672.120	-117.580	0.192	-0.035
-671.105	-84.160	-0.229	0.074
-670.091	-105.998	-0.325	0.074
-669.076	4.772	0.307	0.228
-668.062	-65.137	0.141	0.058
-667.047	-114.049	0.283	-0.056
-666.032	-33.167	-0.342	0.192
-665.018	800.000	0.040	0.128
-664.003	-200.000	0.078	-0.362
-662.989	-28.131	0.274	-0.160
-661.974	800.000	0.143	0.399
-660.959	-55.784	-0.160	-0.072
-659.945	-89.286	0.125	0.037
-658.930	-21.945	0.124	0.076
-657.916	-200.000	0.002	-0.320
-656.901	123.768	-0.236	-0.300
-655.886	-49.772	-0.096	-0.046
-654.872	-200.000	0.022	-0.134
-653.857	91.739	-0.071	0.081
-652.843	-16.277	-0.258	-0.166
-651.828	-119.968	-0.244	-0.042
-650.814	-66.886	0.394	-0.158
-649.799	373.111	0.119	-0.244
-648.784	800.000	0.066	-0.188
-647.770	-20.261	0.099	-0.062
-646.755	274.515	0.081	-0.145
-645.741	-200.000	-0.012	-0.109
-644.726	-110.438	0.365	0.077
-643.711	186.239	-0.108	0.163
-642.697	89.224	0.043	-0.049
-641.682	-60.642	-0.100	-0.043
-640.668	206.149	-0.120	-0.188
-639.653	-179.158	0.585	0.013
-638.638	261.981	0.178	-0.312
-637.624	102.885	-0.258	0.306
-636.609	-26.182	0.226	0.135
-635.595	41.307	0.205	-0.188
-634.580	98.357	0.061	-0.071
-633.565	-54.288	-0.199	-0.091
-632.551	-88.626	-0.246	-0.074
-631.536	299.356	0.002	0.003
-630.522	5.966	0.124	-0.093
-629.507	-200.000	0.020	0.232
-628.492	-19.024	-0.142	0.090
-627.478	-87.888	-0.183	-0.056
-626.463	-117.818	-0.224	0.041
-625.449	-200.000	0.009	-0.083
-624.434	95.690	-0.219	-0.253
-623.419	24.846	-0.246	0.206
-622.405	379.247	0.090	0.187
-621.390	-78.997	0.038	-0.013
-620.376	-40.367	0.093	0.049
-619.361	259.233	0.106	0.185
-618.346	800.000	0.048	0.151
-617.332	-200.000	0.015	0.134
-616.317	330.418	-0.093	0.182
-615.303	-128.613	0.333	0.048
-614.288	-157.145	-0.147	-0.009
-613.273	-10.473	0.122	0.081
-612.259	90.753	0.213	-0.241
-611.244	-45.975	-0.112	-0.056
-610.230	312.153	0.120	0.227
-609.215	-200.000	0.020	0.336
-608.201	-71.660	-0.084	-0.032
-607.186	-68.597	-0.172	0.067
-606.171	118.621	-0.116	-0.145
-605.157	151.175	-0.102	-0.140
-604.142	-108.981	-0.082	-0.018
-603.128	685.755	0.113	0.299
-602.113	-200.000	-0.111	0.501
-601.098	-26.128	0.195	-0.116
-600.084	-200.000	0.044	-0.439
-599.069	264.815	-0.098	-0.172
-598.055	-168.565	0.168	-0.006
-597.040	-37.741	0.232	0.125
-596.025	584.294	-0.081	0.200
-595.011	-149.830	0.103	-0.008
-593.996	-0.065	-0.248	0.178
-592.982	800.000	-0.044	0.167
-591.967	186.175	0.085	0.128
-590.952	-169.484	0.149	0.005
-589.938	-200.000	-0.066	0.301
-588.923	94.791	0.084	0.097
-587.909	265.346	0.126	-0.221
-586.894	-54.528	-0.316	0.145
-585.879	-105.714	-0.191	0.044
-584.865	70.565	-0.304	-0.317
-583.850	119.525	-0.246	-0.307
-582.836	6.513	-0.166	-0.125
-581.821	419.267	-0.120	0.259
-580.806	-110.452	0.185	-0.039
-579.792	32.929	-0.193	0.168
-578.777	-191.022	0.113	0.001
-577.763	800.000	-0.047	-0.150
-576.748	85.995	-0.041	-0.046
-575.733	64.800	0.160	-0.163
-574.719	-184.384	0.135	0.002
-573.704	280.461	0.109	0.197
-572.690	-152.698	-0.235	-0.017
-571.675	-200.000	-0.004	-0.075
-570.661	-27.824	-0.201	-0.118
-569.646	213.993	-0.135	-0.216
-568.631	800.000	-0.070	0.245
-567.617	693.511	0.121	0.319
-566.602	343.611	-0.168	-0.333
-565.588	16.076	-0.145	-0.115
-564.573	79.911	-0.243	0.263
-563.558	50.135	-0.227	-0.216
-562.544	-200.000	-0.014	-0.115
-561.529	-27.141	-0.231	-0.136
-560.515	5.213	0.210	0.156
-559.500	83.265	-0.130	0.142
-558.485	-91.951	-0.104	-0.030
-557.471	306.264	0.148	0.278
-556.456	-95.765	-0.122	0.033
-555.442	517.951	0.114	0.269
-554.427	-200.000	-0.009	-0.225
-553.412	213.109	-0.095	-0.151
-552.398	110.448	0.121	0.146
-551.383	365.389	0.105	0.212
-550.369	164.788	0.120	-0.171
-549.354	-60.191	0.306	-0.131
-548.339	800.000	0.058	-0.179
-547.325	40.696	-0.227	0.206
-546.310	221.080	-0.027	0.044
-545.296	585.459	0.012	0.030
-544.281	76.952	-0.107	-0.114
-543.266	-150.773	-0.212	0.016
-542.252	56.227	-0.286	-0.280
-541.237	-114.767	-0.174	-0.033
-540.223	-71.202	0.288	-0.109
-539.208	-148.683	0.135	0.011
-538.193	256.886	-0.074	0.129
-537.179	-139.641	0.426	0.046
-536.164	35.658	-0.157	0.139
-535.150	584.380	0.042	-0.104
-534.135	34.562	0.346	-0.304
-533.121	-139.860	0.380	0.041
-532.106	434.079	-0.120	0.262
-531.091	19.314	-0.203	-0.164
-530.077	-78.942	-0.225	-0.077
-529.062	-200.000	0.063	0.302
-528.048	-16.399	0.126	0.081
-527.033	-161.100	0.086	-0.005
-526.018	-200.000	0.003	-0.222
-525.004	-140.239	0.192	0.020
-523.989	-124.213	0.099	-0.016
-522.975	257.054	-0.180	0.311
-521.960	2.995	-0.156	-0.114
-520.945	-200.000	-0.043	-0.240
-519.931	-129.732	0.504	0.070
-518.916	63.647	-0.097	-0.098
-517.902	-9.411	0.144	0.097
-516.887	-200.000	-0.002	-0.181
-515.872	-200.000	-0.014	-0.236
-514.858	-126.872	-0.025	-0.004
-513.843	800.000	0.017	-0.056
-512.829	800.000	-0.024	-0.081
-511.814	256.817	-0.204	-0.353
-510.799	800.000	-0.035	0.124
-509.785	-151.185	-0.149	-0.011
-508.770	-78.685	0.110	-0.038
-507.756	-200.000	-0.018	0.088
-506.741	377.318	-0.068	-0.139
-505.726	121.010	0.357	-0.447
-504.712	-58.919	0.314	-0.137
-503.697	-166.568	0.453	-0.019
-502.683	-196.708	0.215	-0.001
-501.668	118.925	0.222	0.276
-500.653	352.190	-0.157	-0.314
-499.639	800.000	-0.023	-0.072
-498.624	4.753	-0.080	0.059
-497.610	140.308	-0.018	0.024
-496.595	-200.000	-0.041	-0.231
-495.581	233.948	-0.100	-0.165
-494.566	246.676	0.040	0.068
-493.551	87.561	0.140	-0.156
-492.537	-200.000	0.023	-0.122
-491.522	-165.629	-0.252	-0.011
-490.508	9.073	0.091	-0.069
-489.493	-19.860	-0.183	0.114
-488.478	-129.927	0.298	-0.041
-487.464	-106.093	-0.115	0.026
-486.449	136.763	-0.158	-0.208
-485.435	-158.814	0.258	0.015
-484.420	-159.875	-0.126	-0.007
-483.405	105.686	0.092	-0.109
-482.391	-102.469	0.365	0.088
-481.376	-200.000	0.063	0.305
-480.362	-200.000	-0.006	0.276
-479.347	-149.386	-0.180	-0.014
-478.332	546.917	-0.136	-0.326
-477.318	367.822	0.083	-0.168
-476.303	-200.000	-0.009	0.325
-475.289	-19.457	-0.087	0.054
-474.274	-67.460	-0.174	0.069
-473.259	-21.815	-0.153	-0.094
-472.245	-94.264	-0.229	0.063
-471.230	16.887	0.219	-0.175
-470.216	-200.000	-0.009	0.139
-469.201	10.250	-0.125	0.096
-468.186	-110.881	-0.370	0.077
-467.172	161.891	-0.044	0.062
-466.157	-76.764	-0.231	-0.081
-465.143	800.000	-0.050	-0.193
-464.128	37.216	-0.026	0.023
-463.113	800.000	-0.049	0.193
-462.099	101.827	0.065	-0.076
-461.084	-131.322	-0.218	-0.029
-460.070	703.692	0.147	0.389
-459.055	-200.000	0.054	-0.339
-458.040	77.077	0.070	0.074
-457.026	70.092	-0.171	-0.177
-456.011	-34.002	0.270	0.149
-454.997	-56.655	0.331	-0.147
-453.982	-111.794	0.090	-0.018
-452.968	128.287	0.090	-0.115
-451.953	137.552	0.194	0.255
-450.938	-20.848	0.067	0.042
-449.924	-200.000	-0.021	-0.117
-448.909	482.427	0.096	-0.218
-447.895	97.725	0.243	-0.280
-446.880	-200.000	-0.014	0.093
-445.865	1.133	0.158	0.114
-444.851	-200.000	0.009	-0.440
-443.836	800.000	0.024	0.104
-442.822	-200.000	-0.037	-0.286
-441.807	212.189	0.108	0.172
-440.792	34.935	-0.064	-0.056
-439.778	152.566	-0.054	-0.074
-438.763	-90.664	0.052	0.015
-437.749	-200.000	-0.002	0.249
-436.734	-200.000	0.034	0.403
-435.719	-200.000	0.017	0.218
-434.705	-119.544	0.141	-0.024
-433.690	-0.176	0.336	0.240
-432.676	-200.000	0.025	0.182
-431.661	-200.000	-0.016	0.304
-430.646	235.696	0.154	0.256
-429.632	7.352	-0.203	-0.152
-428.617	800.000	-0.053	-0.150
-427.603	800.000	-0.045	0.125
-426.588	-200.000	-0.001	0.064
-425.573	800.000	-0.068	0.224
-424.559	-200.000	-0.036	0.357
-423.544	-185.315	0.070	0.001
-422.530	113.087	-0.075	0.091
-421.515	165.419	0.221	0.313
-420.500	456.651	0.068	0.151
-419.486	-130.187	0.237	0.032
-418.471	657.973	0.071	-0.183
-417.457	-20.975	-0.208	-0.128
-416.442	771.521	-0.142	0.387
-415.428	287.752	-0.181	0.329
-414.413	-10.987	0.049	-0.032
-413.398	-200.000	0.073	-0.344
-412.384	-96.605	0.251	-0.066
-411.369	-83.158	0.397	-0.128
-410.355	-47.789	-0.139	-0.068
-409.340	800.000	0.091	-0.295
-408.325	-139.612	0.125	-0.013
-407.311	18.428	-0.330	-0.264
-406.296	-200.000	0.025	0.188
-405.282	126.686	0.150	-0.190
-404.267	800.000	-0.093	-0.366
-403.252	-67.499	-0.361	-0.142
-402.238	-18.828	0.215	0.134
-401.223	764.101	-0.057	-0.155
-400.209	-54.359	0.493	0.224
-399.194	315.023	-0.073	0.138
-398.179	156.896	-0.173	0.240
-397.165	15.746	0.314	0.248
-396.150	-200.000	-0.038	0.318
-395.136	128.310	0.161	-0.206
-394.121	52.571	0.196	-0.188
-393.106	-131.559	-0.343	-0.045
-392.092	-200.000	0.093	0.471
-391.077	-97.717	0.122	-0.032
-390.063	-22.485	0.289	-0.175
-389.048	-26.443	0.148	0.087
-388.033	-112.621	0.238	0.047
-387.019	-118.406	0.019	-0.003
-386.004	34.923	0.027	-0.024
-384.990	236.596	-0.183	0.304
-383.975	-57.844	-0.195	-0.086
-382.960	-142.318	-0.129	-0.013
-381.946	-0.022	-0.085	-0.061
-380.931	-41.189	0.074	-0.038
-379.917	-9.539	-0.121	0.081
-378.902	-200.000	0.067	0.323
-377.888	400.818	0.031	0.066
-376.873	-106.655	0.026	-0.006
-375.858	-67.876	0.049	0.019
-374.844	-93.156	-0.408	-0.114
-373.829	-200.000	0.008	0.110
-372.815	168.546	-0.067	-0.095
-371.800	762.212	-0.066	0.179
-370.785	27.998	-0.218	0.184
-369.771	24.986	-0.073	-0.061
-368.756	192.452	0.131	0.198
-367.742	-10.388	-0.093	0.062
-366.727	163.519	-0.129	-0.181
-365.712	-50.615	-0.334	0.158
-364.698	-200.000	-0.053	0.312
-363.683	30.736	0.108	0.092
-362.669	-200.000	-0.011	-0.113
-361.654	800.000	0.111	-0.318
-360.639	800.000	0.057	0.159
-359.625	-200.000	-0.029	0.259
-358.610	-200.000	-0.017	-0.127
-357.596	-126.336	-0.223	0.033
-356.581	-200.000	0.001	-0.142
-355.566	90.557	-0.122	-0.136
-354.552	-15.813	-0.130	-0.083
-353.537	88.168	-0.232	0.258
-352.523	160.146	-0.053	-0.074
-351.508	-200.000	0.006	-0.379
-350.493	233.941	-0.075	-0.124
-349.479	191.407	-0.037	0.056
-348.464	800.000	-0.018	0.058
-347.450	-200.000	-0.017	0.106
-346.435	339.039	0.020	0.039
-345.420	-64.969	0.224	0.090
-344.406	5.193	0.178	-0.131
-343.391	-5.574	-0.042	0.029
-342.377	92.838	-0.219	-0.248
-341.362	-81.382	-0.330	0.109
-340.348	26.388	-0.396	-0.331
-339.333	800.000	-0.033	0.143
-338.318	800.000	-0.076	0.291
-337.304	47.151	-0.228	0.212
-336.289	5.812	0.145	-0.108
-335.275	-200.000	0.038	-0.332
-334.260	138.571	0.212	-0.278
-333.245	642.155	0.113	-0.288
-332.231	54.401	0.060	-0.058
-331.216	-34.913	0.085	-0.046
-330.202	800.000	-0.049	-0.167
-329.187	-126.156	0.393	-0.059
-328.172	9.010	-0.131	0.099
-327.158	-47.573	-0.230	-0.112
-326.143	-141.135	-0.266	-0.027
-325.129	800.000	0.030	0.121
-324.114	784.075	-0.144	-0.394
-323.099	-200.000	-0.016	-0.073
-322.085	418.302	0.025	-0.054
-321.070	-36.407	-0.073	0.039
-320.056	391.744	0.106	0.219
-319.041	-107.525	-0.086	-0.019
-318.026	50.103	-0.212	0.200
-317.012	-144.811	0.319	0.029
-315.997	-84.807	0.127	-0.040
-314.983	267.255	0.131	0.230
-313.968	-26.885	0.180	0.105
-312.953	26.541	0.170	-0.142
-311.939	202.080	-0.165	0.254
-310.924	122.131	-0.312	-0.390
-309.910	108.518	0.111	-0.132
-308.895	-12.022	0.164	0.107
-307.880	-6.905	0.179	0.121
-306.866	-90.376	-0.171	0.049
-305.851	-42.479	0.308	0.157
-304.837	214.391	0.093	-0.147
-303.822	5.715	0.150	-0.111
-302.807	-200.000	0.029	-0.212
-301.793	-42.134	0.296	-0.151
-300.778	154.178	-0.062	-0.085
-299.764	190.472	-0.079	-0.119
-298.749	-200.000	-0.035	-0.274
-297.735	-70.695	0.153	0.058
-296.720	97.435	0.227	0.260
-295.705	222.655	-0.122	0.196
-294.691	-156.658	-0.120	0.007
-293.676	-0.175	0.137	0.097
-292.662	-200.000	-0.004	-0.287
-291.647	292.671	-0.067	-0.121
-290.632	742.819	-0.006	-0.015
-289.618	-105.830	0.195	-0.044
-288.603	176.849	-0.186	0.270
-287.589	800.000	-0.054	0.208
-286.574	-200.000	-0.032	0.244
-285.559	-63.986	-0.426	-0.174
-284.545	13.775	-0.205	0.159
-283.530	505.443	0.049	0.113
-282.516	235.893	-0.082	-0.134
-281.501	409.614	0.115	-0.244
-280.486	-172.927	0.350	-0.011
-279.472	-11.639	-0.128	0.084
-278.457	-200.000	-0.007	-0.097
-277.443	800.000	-0.026	-0.100
-276.428	-40.129	0.306	-0.159
-275.413	-200.000	0.007	0.042
-274.399	547.246	-0.118	0.281
-273.384	-5.868	-0.111	0.076
-272.370	357.891	0.104	0.207
-271.355	74.969	0.116	0.122
-270.340	-128.638	-0.221	-0.031
-269.326	-128.419	-0.211	0.030
-268.311	-24.330	-0.152	0.090
-267.297	-200.000	0.015	-0.103
-266.282	-149.551	-0.134	-0.011
-265.267	-21.033	0.195	-0.119
-264.253	33.511	0.017	-0.015
-263.238	-81.719	-0.144	-0.047
-262.224	-52.859	0.291	-0.134
-261.209	15.053	-0.065	0.051
-260.195	-81.635	0.322	0.105
-259.180	-27.782	0.297	0.172
-258.165	-9.870	-0.411	0.272
-257.151	-118.842	-0.143	0.025
-256.136	-38.748	-0.286	-0.150
-255.122	-164.470	0.123	-0.006
-254.107	-25.029	0.278	-0.164
-253.092	800.000	0.060	-0.173
-252.078	-200.000	-0.037	0.192
-251.063	-115.582	0.117	-0.022
-250.049	-59.524	-0.214	0.092
-249.034	29.686	0.066	-0.056
-248.019	29.844	0.016	0.014
-247.005	-101.613	0.064	-0.016
-245.990	351.343	-0.153	0.302
-244.976	-200.000	-0.018	0.112
-243.961	-22.612	0.382	-0.230
-242.946	103.924	0.051	-0.060
-241.932	392.156	-0.142	0.294
-240.917	-200.000	0.012	0.193
-239.903	-200.000	-0.014	0.307
-238.888	669.342	-0.067	-0.173
-237.873	-139.693	0.429	-0.045
-236.859	-165.799	-0.191	0.008
-235.844	800.000	0.025	0.073
-234.830	-17.358	0.148	0.093
-233.815	171.978	-0.097	0.139
-232.800	-200.000	0.043	0.436
-231.786	-200.000	-0.019	0.265
-230.771	-200.000	0.025	0.336
-229.757	103.896	-0.094	0.110
-228.742	20.925	-0.215	-0.174
-227.727	87.532	0.071	-0.079
-226.713	1.244	0.252	-0.180
-225.698	-3.377	-0.055	-0.038
-224.684	-73.154	-0.247	-0.090
-223.669	-187.375	-0.177	0.002
-222.655	68.439	-0.210	0.214
-221.640	-200.000	0.047	0.385
-220.625	57.519	0.132	0.128
-219.611	800.000	-0.088	-0.276
-218.596	14.903	0.191	-0.149
-217.582	-200.000	-0.005	-0.117
-216.567	-36.031	-0.403	0.217
-215.552	-126.237	0.442	0.066
-214.538	-119.174	0.095	0.017
-213.523	584.180	0.049	-0.120
-212.509	340.259	-0.153	-0.297
-211.494	-67.451	-0.218	0.085
-210.479	-38.812	0.268	-0.140
-209.465	-51.426	-0.047	0.022
-208.450	-52.498	-0.315	0.145
-207.436	-106.537	-0.262	-0.058
-206.421	798.256	0.039	-0.108
-205.406	-5.743	0.098	-0.067
-204.392	77.046	0.465	-0.492
-203.377	31.691	-0.161	-0.138
-202.363	-24.557	-0.370	-0.219
-201.348	549.147	0.060	-0.142
-200.333	-122.839	-0.192	0.031
-199.319	306.082	-0.121	-0.225
-198.304	401.913	-0.037	0.078
-197.290	-23.865	0.389	0.231
-196.275	48.198	-0.087	-0.081
-195.260	-13.514	0.101	-0.065
-194.246	164.680	0.044	0.062
-193.231	-52.578	-0.030	-0.014
-192.217	800.000	0.074	0.227
-191.202	-69.940	0.199	0.075
-190.187	19.642	0.166	0.133
-189.173	143.058	-0.144	0.190
-188.158	-40.948	0.095	0.049
-187.144	8.193	-0.293	-0.219
-186.129	110.355	0.106	0.126
-185.114	160.070	-0.192	-0.265
-184.100	-72.014	0.257	-0.095
-183.085	81.415	-0.021	0.023
-182.071	188.426	-0.237	-0.352
-181.056	-161.479	-0.310	-0.016
-180.042	67.444	0.247	-0.251
-179.027	-200.000	0.042	-0.228
-178.012	-200.000	0.012	-0.122
-176.998	-179.244	-0.269	-0.006
-175.983	-127.238	-0.180	0.026
-174.969	-60.113	-0.090	0.038
-173.954	-56.970	0.309	-0.136
-172.939	-200.000	0.024	0.200
-171.925	146.767	-0.182	-0.242
-170.910	-133.598	0.457	-0.057
-169.896	800.000	-0.047	-0.147
-168.881	-133.824	-0.174	0.022
-167.866	133.274	-0.151	-0.194
-166.852	189.409	0.154	0.229
-165.837	-34.440	-0.191	0.104
-164.823	-49.385	-0.106	0.050
-163.808	220.231	-0.045	0.071
-162.793	4.167	0.047	0.034
-161.779	-59.775	-0.141	0.060
-160.764	-54.459	-0.250	-0.112
-159.750	800.000	0.037	-0.135
-158.735	800.000	-0.046	-0.143
-157.720	-200.000	0.031	0.176
-156.706	-16.190	-0.162	-0.102
-155.691	-32.140	0.249	-0.138
-154.677	-34.599	0.149	-0.081
-153.662	-10.843	0.183	0.120
-152.647	-2.177	-0.280	-0.195
-151.633	28.920	-0.264	0.222
-150.618	42.810	0.101	-0.091
-149.604	-180.129	-0.210	-0.004
-148.589	800.000	-0.025	0.072
-147.574	-54.234	0.305	-0.138
-146.560	-200.000	-0.043	0.391
-145.545	-200.000	-0.025	-0.173
-144.531	53.559	0.117	-0.112
-143.516	2.142	0.146	-0.105
-142.502	-97.659	-0.266	0.068
-141.487	-48.923	-0.090	0.043
-140.472	12.132	0.190	-0.145
-139.458	-67.989	0.154	-0.060
-138.443	174.336	0.009	-0.013
-137.429	59.082	0.090	0.087
-136.414	-22.854	-0.042	-0.025
-135.399	-123.226	0.366	0.058
-134.385	-91.702	-0.437	0.123
-133.370	-79.435	-0.381	0.128
-132.356	-200.000	-0.008	0.177
-131.341	-17.318	0.178	-0.111
-130.326	35.251	-0.223	0.194
-129.312	-91.531	0.172	-0.049
-128.297	-30.589	-0.421	-0.236
-127.283	-177.154	0.190	-0.005
-126.268	-200.000	-0.093	0.465
-125.253	-123.910	0.198	0.031
-124.239	-185.056	-0.115	0.002
-123.224	-135.233	-0.338	-0.040
-122.210	-94.074	0.475	0.129
-121.195	-179.655	0.064	0.001
-120.180	-200.000	-0.007	0.236
-119.166	800.000	0.024	0.102
-118.151	30.627	-0.030	0.025
-117.137	-200.000	0.030	-0.166
-116.122	16.618	-0.120	0.094
-115.107	536.851	0.061	0.144
-114.093	-41.030	-0.431	-0.221
-113.078	54.280	0.353	-0.337
-112.064	-74.911	-0.255	0.091
-111.049	-88.298	0.088	-0.026
-110.034	92.472	-0.073	-0.081
-109.020	-200.000	0.005	-0.029
-108.005	-34.609	-0.064	-0.035
-106.991	-140.338	-0.048	-0.005
-105.976	-24.624	0.124	-0.073
-104.962	18.561	0.249	-0.197
-103.947	800.000	0.125	-0.346
-102.932	-117.030	0.214	-0.039
-101.918	-200.000	-0.012	0.218
-100.903	155.052	0.130	0.177
-99.889	14.210	0.254	0.196
-98.874	4.119	-0.116	0.084
-97.859	-200.000	-0.046	0.284
-96.845	-200.000	0.051	-0.293
-95.830	26.800	-0.229	0.190
-94.816	304.821	0.041	0.076
-93.801	154.796	-0.190	0.259
-92.786	-89.074	0.234	-0.069
-91.772	-34.388	0.417	-0.227
-90.757	-3.349	0.203	-0.140
-89.743	-9.710	-0.204	0.134
-88.728	-133.670	0.016	0.002
-87.713	-67.360	-0.131	-0.051
-86.699	191.336	0.173	-0.257
-85.684	-25.382	-0.135	0.079
-84.670	-200.000	-0.093	0.636
-83.655	-168.003	0.035	0.001
-82.640	264.488	-0.161	0.278
-81.626	-200.000	0.044	-0.207
-80.611	113.389	0.185	-0.222
-79.597	-109.153	-0.138	-0.029
-78.582	163.912	0.154	0.214
-77.567	-144.620	0.213	0.019
-76.553	166.991	0.115	-0.161
-75.538	-82.411	-0.153	-0.049
-74.524	-36.488	-0.152	0.081
-73.509	698.538	-0.034	0.088
-72.494	43.374	-0.273	0.247
-71.480	309.299	0.096	0.178
-70.465	-200.000	0.001	0.338
-69.451	615.457	0.052	0.130
-68.436	-15.018	-0.269	-0.170
-67.422	-134.108	0.332	-0.041
-66.407	-200.000	-0.022	0.283
-65.392	-200.000	0.037	0.199
-64.378	-61.204	-0.436	0.182
-63.363	800.000	-0.139	-0.483
-62.349	-40.944	0.172	-0.088
-61.334	67.337	-0.956	-0.965
-60.319	43.694	0.682	0.617
-59.305	-200.000	-0.205	-0.910
-58.290	266.212	0.648	1.120
-57.276	396.979	0.682	1.409
-56.261	-200.000	98.675	602.894
-55.246	604.339	1392.156	3427.133
-54.232	191.244	2581.822	3843.155
-53.217	108.521	2304.891	2721.548
-52.203	38.186	2064.633	1817.324
-51.188	33.251	1979.715	1698.343
-50.173	31.697	1961.212	1668.571
-49.159	46.899	2012.358	1849.637
-48.144	48.132	2030.169	1877.072
-47.130	33.894	1991.491	1713.979
-46.115	31.503	1981.149	1683.519
-45.100	31.423	1978.538	1680.516
-44.086	31.400	1976.020	1678.106
-43.071	31.349	1973.250	1675.232
-42.057	31.291	1971.366	1673.043
-41.042	31.381	1969.152	1671.904
-40.027	31.403	1966.992	1670.197
-39.013	31.418	1965.370	1668.891
-37.998	31.405	1963.771	1667.350
-36.984	31.410	1962.023	1665.847
-35.969	31.439	1959.311	1663.732
-34.954	31.465	1957.880	1662.686
-33.940	31.502	1956.403	1661.690
-32.925	31.481	1954.991	1660.244
-31.911	31.528	1952.769	1658.708
-30.896	31.546	1951.745	1657.929
-29.881	31.492	1950.168	1656.049
-28.867	31.559	1948.382	1655.058
-27.852	31.534	1947.078	1653.662
-26.838	31.623	1944.489	1652.180
-25.823	31.473	1943.365	1649.840
-24.809	31.547	1941.263	1648.641
-23.794	31.515	1939.567	1646.854
-22.779	31.513	1938.004	1645.441
-21.765	31.440	1936.292	1643.285
-20.750	31.492	1934.538	1642.183
-19.736	31.481	1933.217	1640.902
-18.721	31.552	1931.336	1639.867
-17.706	31.555	1929.749	1638.480
-16.692	31.639	1927.611	1637.333
-15.677	31.510	1926.963	1635.591
-14.663	31.546	1925.121	1634.272
-13.648	31.579	1924.006	1633.552
-12.633	31.551	1923.058	1632.434
-11.619	31.546	1921.372	1630.895
-10.604	31.491	1920.170	1629.331
-9.590	31.472	1918.440	1627.632
-8.575	31.473	1916.933	1626.298
-7.560	31.544	1915.736	1625.839
-6.546	31.517	1914.649	1624.618
-5.531	31.409	1914.053	1623.108
-4.517	31.437	1912.809	1622.231
-3.502	31.479	1911.163	1621.137
-2.487	31.528	1909.616	1620.182
-1.473	31.593	1908.369	1619.623
-0.458	31.623	1903.984	1616.096
0.556	30.670	1884.350	1587.837
1.571	26.348	1865.275	1535.013
2.586	22.305	1888.412	1519.086
3.600	21.338	1923.418	1538.601
4.615	20.756	1917.327	1528.482
5.629	16.078	1816.988	1409.345
6.644	8.378	1702.390	1259.814
7.659	4.926	1667.644	1207.287
8.673	4.634	1664.445	1202.609
9.688	4.524	1663.154	1200.715
10.702	4.610	1661.653	1200.191
11.717	4.512	1658.704	1197.203
12.731	4.924	1657.952	1199.724
13.746	10.059	1669.215	1247.487
14.761	16.902	1684.745	1312.111
15.775	19.288	1686.926	1332.161
16.790	18.480	1684.476	1323.866
17.804	17.463	1680.988	1313.171
18.819	16.399	1677.852	1302.404
19.834	15.791	1675.283	1295.612
20.848	15.488	1673.875	1292.076
21.863	15.264	1672.152	1288.915
22.877	15.020	1670.713	1285.815
23.892	14.923	1669.282	1283.857
24.907	14.640	1669.168	1281.483
25.921	14.738	1667.153	1280.573
26.936	14.722	1666.399	1279.756
27.950	14.744	1665.235	1278.916
28.965	14.761	1665.140	1278.866
29.980	14.830	1664.550	1278.823
30.994	14.890	1663.124	1278.077
32.009	15.004	1661.703	1277.744
33.023	14.987	1661.038	1276.989
34.038	15.099	1659.762	1276.748
35.053	15.080	1658.723	1275.686
36.067	14.966	1657.370	1273.671
37.082	14.927	1656.266	1272.409
38.096	15.039	1655.428	1272.506
39.111	14.932	1654.682	1271.006
40.126	14.960	1653.698	1270.351
41.140	14.891	1653.282	1269.394
42.155	14.843	1651.967	1267.909
43.169	14.711	1650.264	1265.489
44.184	14.719	1648.964	1264.442
45.199	14.768	1647.272	1263.405
46.213	14.649	1646.864	1262.077
47.228	14.643	1645.921	1261.201
48.242	14.853	1644.104	1261.276
49.257	14.811	1643.715	1260.551
50.271	14.860	1642.333	1259.747
51.286	14.830	1640.752	1258.199
52.301	14.847	1639.337	1257.133
53.315	14.816	1638.758	1256.344
54.330	14.834	1636.777	1254.848
55.344	14.730	1635.513	1252.989
56.359	14.701	1634.140	1251.610
57.374	14.720	1632.601	1250.462
58.388	14.788	1631.311	1249.867
59.403	14.775	1629.628	1248.372
60.417	14.647	1628.910	1246.760
61.432	14.658	1627.534	1245.678
62.447	14.588	1626.646	1244.363
63.461	14.617	1625.150	1243.323
64.476	14.529	1624.435	1242.015
65.490	14.518	1623.240	1240.904
66.505	14.631	1621.752	1240.502
67.520	14.525	1621.174	1239.163
68.534	14.591	1619.891	1238.557
69.549	14.569	1618.940	1237.563
70.563	14.630	1617.391	1236.723
71.578	14.611	1616.291	1235.624
72.593	14.532	1615.614	1234.413
73.607	14.515	1614.433	1233.277
74.622	14.471	1613.209	1231.908
75.636	14.448	1612.417	1231.023
76.651	14.502	1611.717	1230.778
77.666	14.544	1610.773	1230.263
78.680	14.483	1609.634	1228.834
79.695	14.514	1608.685	1228.227
80.709	14.547	1608.271	1228.045
81.724	14.558	1607.307	1227.285
82.739	14.681	1606.475	1227.439
83.753	14.720	1605.487	1226.865
84.768	14.764	1604.475	1226.307
85.782	14.848	1603.899	1226.377
86.797	14.929	1603.289	1226.395
87.812	14.964	1602.106	1225.633
88.826	14.906	1600.557	1223.917
89.841	14.777	1599.563	1222.110
90.855	14.817	1598.957	1221.831
91.870	14.851	1597.526	1220.871
92.884	14.830	1596.976	1220.195
93.899	14.899	1595.705	1219.616
94.914	14.908	1594.255	1218.465
95.928	14.968	1593.148	1217.948
96.943	15.054	1591.923	1217.528
97.957	14.970	1590.831	1215.978
98.972	14.976	1588.639	1214.241
99.987	14.923	1587.266	1212.697
101.001	14.926	1585.789	1211.480
102.016	14.864	1584.726	1210.117
103.030	14.944	1583.165	1209.395
104.045	14.912	1582.246	1208.352
105.060	14.936	1580.498	1207.084
106.074	14.855	1579.277	1205.462
107.089	14.750	1577.503	1203.244
108.103	14.670	1575.916	1201.349
109.118	14.595	1574.519	1199.644
110.133	14.563	1573.589	1198.593
111.147	14.608	1571.647	1197.335
112.162	14.592	1570.473	1196.219
113.176	14.567	1569.355	1195.086
114.191	14.611	1568.134	1194.365
115.206	14.677	1566.717	1193.647
116.220	14.672	1565.595	1192.653
117.235	14.703	1563.892	1191.470
118.249	14.636	1562.783	1190.044
119.264	14.618	1561.476	1188.814
120.279	14.611	1560.122	1187.632
121.293	14.560	1558.620	1186.021
122.308	14.626	1556.921	1185.089
123.322	14.593	1555.345	1183.551
124.337	14.529	1554.108	1182.048
125.352	14.584	1552.383	1181.023
126.366	14.526	1551.722	1180.003
127.381	14.579	1550.533	1179.370
128.395	14.491	1549.807	1178.097
129.410	14.512	1548.012	1176.773
130.424	14.565	1546.896	1176.197
131.439	14.686	1545.458	1175.851
132.454	14.730	1543.910	1174.877
133.468	14.638	1542.969	1173.413
134.483	14.786	1541.302	1173.078
135.497	14.746	1540.173	1171.834
136.512	14.794	1538.942	1171.128
137.527	14.765	1536.977	1169.329
138.541	14.799	1536.084	1168.781
139.556	14.769	1534.814	1167.508
140.570	14.767	1533.757	1166.582
141.585	14.837	1531.804	1165.482
142.600	14.948	1530.898	1165.465
143.614	14.943	1529.829	1164.512
144.629	15.027	1528.563	1164.031
145.643	15.142	1527.216	1163.703
146.658	15.018	1526.557	1162.231
147.673	15.011	1524.303	1160.368
148.687	14.968	1523.347	1159.235
149.702	14.953	1521.626	1157.723
150.716	14.867	1519.627	1155.504
151.731	14.871	1518.669	1154.704
152.746	14.812	1517.098	1152.995
153.760	14.825	1515.624	1151.863
154.775	14.832	1514.624	1151.054
155.789	14.946	1513.139	1150.606
156.804	14.973	1511.950	1149.785
157.819	15.038	1510.790	1149.248
158.833	15.026	1509.787	1148.298
159.848	15.026	1508.759	1147.416
160.862	15.135	1507.328	1146.973
161.877	15.176	1505.982	1146.129
162.892	15.150	1505.109	1145.181
163.906	15.069	1503.443	1143.263
164.921	14.963	1502.343	1141.603
165.935	14.933	1501.650	1140.767
166.950	14.881	1500.779	1139.652
167.964	15.008	1499.368	1139.348
168.979	15.033	1498.258	1138.569
169.994	14.966	1497.452	1137.403
171.008	14.964	1496.614	1136.648
172.023	15.054	1495.233	1136.112
173.037	15.179	1494.018	1135.935
174.052	15.165	1492.667	1134.714
175.067	15.172	1492.066	1134.200
176.081	15.212	1490.771	1133.388
177.096	15.102	1489.009	1131.207
178.110	14.986	1488.108	1129.642
179.125	15.117	1486.433	1129.149
180.140	15.137	1485.598	1128.548
181.154	15.021	1485.277	1127.427
182.169	15.229	1483.656	1127.496
183.183	15.185	1482.790	1126.440
184.198	15.296	1481.295	1125.954
185.213	15.231	1480.897	1125.116
186.227	15.338	1479.365	1124.568
187.242	15.336	1478.052	1123.455
188.256	15.308	1477.219	1122.539
189.271	15.414	1475.912	1122.152
190.286	15.467	1474.615	1121.422
191.300	15.385	1474.070	1120.359
192.315	15.106	1472.878	1117.495
193.329	15.060	1470.966	1115.639
194.344	14.950	1470.047	1114.112
195.359	15.016	1468.998	1113.653
196.373	15.207	1468.076	1114.126
197.388	15.241	1467.542	1113.847
198.402	15.351	1466.105	1113.393
199.417	15.365	1465.253	1112.740
200.432	15.513	1464.413	1112.981
201.446	15.612	1463.033	1112.493
202.461	15.596	1462.084	1111.567
203.475	15.553	1460.758	1110.176
204.490	15.650	1460.422	1110.461
205.504	15.559	1459.324	1108.930
206.519	15.516	1457.739	1107.338
207.534	15.527	1456.452	1106.335
208.548	15.510	1455.098	1105.100
209.563	15.525	1453.916	1104.201
210.577	15.519	1453.093	1103.440
211.592	15.489	1452.370	1102.594
212.607	15.540	1451.474	1102.158
213.621	15.694	1451.143	1102.815
214.636	15.705	1450.118	1102.014
215.650	15.551	1449.817	1100.675
216.665	15.560	1448.712	1099.800
217.680	15.749	1447.866	1100.298
218.694	15.799	1447.132	1099.969
219.709	15.785	1446.154	1099.036
220.723	15.788	1445.349	1098.347
221.738	15.681	1444.495	1096.898
222.753	15.826	1442.938	1096.569
223.767	15.724	1441.964	1095.068
224.782	15.732	1441.200	1094.442
225.796	15.877	1440.357	1094.648
226.811	15.927	1439.607	1094.306
227.826	15.995	1438.710	1093.967
228.840	15.849	1437.869	1092.285
229.855	15.979	1436.466	1091.961
230.869	15.879	1436.166	1090.990
231.884	15.902	1434.840	1090.036
232.899	15.812	1433.575	1088.395
233.913	15.783	1432.718	1087.460
234.928	15.722	1431.722	1086.218
235.942	15.748	1430.252	1085.170
236.957	15.807	1429.159	1084.628
237.972	15.609	1428.243	1082.564
238.986	15.695	1426.850	1081.959
240.001	15.801	1426.171	1082.032
241.015	15.781	1424.918	1080.859
242.030	15.792	1424.177	1080.273
243.045	15.846	1423.204	1079.783
244.059	15.861	1422.353	1079.139
245.074	15.975	1421.428	1079.069
246.088	15.994	1420.447	1078.351
247.103	16.012	1419.838	1077.910
248.117	15.978	1419.308	1077.198
249.132	16.071	1418.307	1076.934
250.147	16.167	1417.494	1076.833
251.161	16.279	1417.153	1077.195
252.176	16.407	1416.692	1077.568
253.190	16.300	1415.644	1075.993
254.205	16.314	1414.957	1075.465
255.220	16.468	1413.954	1075.583
256.234	16.446	1413.486	1074.997
257.249	16.517	1412.564	1074.650
258.263	16.451	1411.732	1073.505
259.278	16.474	1410.482	1072.605
260.293	16.522	1409.513	1072.078
261.307	16.507	1408.419	1071.055
262.322	16.509	1408.140	1070.760
263.336	16.537	1407.379	1070.266
264.351	16.665	1406.195	1070.074
265.366	16.667	1405.349	1069.352
266.380	16.742	1404.205	1068.861
267.395	16.719	1403.365	1067.978
268.409	16.698	1402.452	1067.061
269.424	16.658	1401.665	1066.114
270.439	16.544	1400.886	1064.712
271.453	16.602	1399.288	1063.768
272.468	16.574	1398.838	1063.154
273.482	16.529	1398.320	1062.383
274.497	16.497	1397.514	1061.478
275.512	16.527	1396.253	1060.611
276.526	16.610	1395.479	1060.451
277.541	16.568	1394.201	1059.119
278.555	16.530	1393.536	1058.288
279.570	16.586	1392.960	1058.104
280.585	16.701	1391.654	1057.739
281.599	16.757	1391.117	1057.589
282.614	16.795	1390.220	1057.050
283.628	16.784	1388.868	1055.857
284.643	16.718	1387.728	1054.488
285.657	16.706	1386.567	1053.437
286.672	16.713	1385.887	1052.869
287.687	16.747	1385.107	1052.395
288.701	16.702	1383.964	1051.153
289.716	16.788	1383.259	1051.062
290.730	16.768	1382.671	1050.398
291.745	16.817	1381.521	1049.734
292.760	16.785	1380.723	1048.836
293.774	16.837	1379.627	1048.229
294.789	16.903	1378.526	1047.711
295.803	16.919	1377.804	1047.170
296.818	16.995	1377.040	1046.963
297.833	16.907	1375.453	1045.124
298.847	16.799	1374.929	1043.964
299.862	16.948	1373.455	1043.672
300.876	16.851	1372.792	1042.476
301.891	16.906	1371.744	1041.926
302.906	16.886	1371.507	1041.535
303.920	16.976	1370.673	1041.359
304.935	17.066	1369.881	1041.219
305.949	17.176	1368.720	1040.918
306.964	17.117	1368.533	1040.325
307.979	17.160	1367.579	1039.768
308.993	17.209	1366.448	1039.116
310.008	17.156	1365.409	1037.912
311.022	17.119	1364.792	1037.120
312.037	17.203	1363.542	1036.593
313.052	17.184	1362.944	1035.934
314.066	17.241	1361.842	1035.349
315.081	17.213	1360.667	1034.197
316.095	16.934	1359.524	1031.537
317.110	17.115	1357.934	1031.338
318.125	17.042	1357.326	1030.341
319.139	17.063	1356.554	1029.792
320.154	17.094	1355.999	1029.466
321.168	17.098	1354.794	1028.489
322.183	17.171	1353.633	1027.957
323.197	17.059	1352.818	1026.568
324.212	17.107	1352.174	1026.280
325.227	17.143	1351.158	1025.635
326.241	17.157	1350.542	1025.159
327.256	17.196	1349.755	1024.708
328.270	17.104	1348.691	1023.254
329.285	17.177	1347.703	1022.855
330.300	17.230	1346.706	1022.328
331.314	17.214	1345.755	1021.421
332.329	17.190	1344.821	1020.478
333.343	17.183	1344.161	1019.844
334.358	17.214	1343.041	1019.089
335.373	17.286	1342.736	1019.198
336.387	17.383	1341.396	1018.672
337.402	17.389	1340.905	1018.242
338.416	17.332	1340.319	1017.368
339.431	17.421	1339.605	1017.265
340.446	17.476	1339.296	1017.271
341.460	17.555	1337.900	1016.592
342.475	17.611	1337.148	1016.268
343.489	17.686	1336.327	1016.003
344.504	17.750	1335.377	1015.568
345.519	17.643	1334.373	1014.077
346.533	17.739	1333.300	1013.743
347.548	17.722	1332.638	1013.052
348.562	17.714	1332.329	1012.679
349.577	17.755	1331.411	1012.134
350.592	17.876	1330.008	1011.698
351.606	17.748	1329.077	1010.141
352.621	17.615	1327.844	1008.328
353.635	17.586	1326.767	1007.247
354.650	17.561	1326.002	1006.427
355.665	17.547	1325.359	1005.768
356.679	17.655	1324.069	1005.340
357.694	17.622	1323.344	1004.508
358.708	17.654	1322.321	1003.830
359.723	17.805	1321.072	1003.681
360.738	17.897	1319.580	1003.000
361.752	17.804	1319.197	1002.071
362.767	17.788	1317.963	1000.953
363.781	17.745	1317.215	1000.043
364.796	17.773	1316.927	999.899
365.810	17.805	1315.833	999.166
366.825	17.839	1315.248	998.836
367.840	17.937	1314.617	998.842
368.854	18.043	1313.715	998.688
369.869	18.143	1313.391	998.936
370.883	18.184	1312.480	998.396
371.898	18.035	1312.052	997.112
372.913	18.002	1311.277	996.240
373.927	18.031	1310.354	995.620
374.942	17.950	1309.533	994.438
375.956	18.143	1308.317	994.551
376.971	18.104	1307.834	993.864
377.986	18.057	1307.294	993.095
379.000	18.148	1306.306	992.786
380.015	18.156	1305.433	992.079
381.029	18.174	1304.777	991.598
382.044	18.248	1304.346	991.614
383.059	18.335	1303.347	991.266
384.073	18.360	1302.657	990.801
385.088	18.270	1302.019	989.705
386.102	18.298	1301.406	989.318
387.117	18.327	1300.145	988.438
388.132	18.262	1299.552	987.520
389.146	18.224	1298.878	986.704
390.161	18.162	1297.797	985.438
391.175	18.225	1296.976	985.092
392.190	18.331	1296.003	984.875
393.205	18.201	1295.560	983.705
394.219	18.287	1294.498	983.303
395.234	18.384	1293.041	982.666
396.248	18.304	1292.368	981.610
397.263	18.405	1290.647	980.795
398.278	18.309	1289.310	979.141
399.292	18.285	1288.224	978.091
400.307	18.376	1287.024	977.615
401.321	18.196	1286.075	975.780
402.336	18.196	1285.224	975.047
403.350	18.201	1284.309	974.297
404.365	18.152	1283.697	973.468
405.380	18.244	1282.797	973.223
406.394	18.256	1281.848	972.485
407.409	18.318	1281.111	972.188
408.423	18.439	1280.260	972.147
409.438	18.516	1279.649	972.032
410.453	18.506	1279.175	971.530
411.467	18.641	1278.262	971.513
412.482	18.630	1277.905	971.095
413.496	18.693	1277.087	970.745
414.511	18.666	1276.585	970.122
415.526	18.672	1276.029	969.648
416.540	18.803	1274.761	969.342
417.555	18.753	1274.367	968.674
418.569	18.792	1273.719	968.316
419.584	18.784	1273.422	967.956
420.599	18.768	1272.887	967.373
421.613	140.696	1432.154	1795.797
422.628	135.270	1455.354	1795.888
