DTS Sentinel unit serial number:	SN413079Multiplexer serial number:	ORYXHardware model number:	OX4-SRSoftware version number:	ORYX F/W v4.00 Oryx Data Collector v3.7.2.0data status	okinstallation	princeton_trtdifferential loss correction	single-endedforward channel	channel 4reverse channel	N/Adate	2019/09/19time	03:05:34forward acquisition time	60.00reverse acquisition time	0.00gamma	496.2192k internal	0.2340k external	0.2340temperature offset calibration	1.0028default loss term (dB/km)	0.3790temperature slope calibration	1.0000multiplexer offset coefficient	1.0000multiplexer slope coefficient	1.0000fibre end	0.00T internal ref (°C)	20.81T ext. ref 1 (°C)	0.65T ext. ref 2 (°C)	14.44length (m)	temperature (°C)	Stokes	anti-Stokes-747.200	312.668	-0.145	-0.273
-746.185	-200.000	-0.019	0.103
-745.171	254.376	0.102	-0.174
-744.156	-140.316	-0.186	0.020
-743.142	30.411	0.060	0.051
-742.127	-1.593	-0.341	0.241
-741.112	-200.000	-0.077	0.341
-740.098	-200.000	0.015	0.109
-739.083	-200.000	-0.008	0.261
-738.069	-200.000	-0.069	0.395
-737.054	-200.000	0.003	-0.074
-736.039	62.422	-0.083	0.084
-735.025	222.057	0.178	0.288
-734.010	-4.908	0.052	-0.036
-732.996	-39.968	-0.287	0.150
-731.981	-200.000	0.001	-0.022
-730.966	-200.000	0.052	-0.261
-729.952	-76.887	-0.195	-0.068
-728.937	247.675	-0.229	-0.388
-727.923	199.768	-0.073	0.113
-726.908	-117.195	-0.229	0.042
-725.894	-39.099	-0.183	0.096
-724.879	800.000	-0.095	-0.396
-723.864	495.621	-0.030	-0.068
-722.850	208.756	0.095	-0.149
-721.835	92.012	-0.285	-0.321
-720.821	-191.577	0.180	0.002
-719.806	262.002	0.053	0.092
-718.791	-120.139	-0.438	0.075
-717.777	430.247	-0.099	-0.215
-716.762	-176.103	0.214	0.006
-715.748	70.209	0.073	0.075
-714.733	-200.000	-0.011	0.317
-713.718	-76.291	0.288	-0.101
-712.704	-200.000	0.042	-0.352
-711.689	-85.158	-0.153	0.048
-710.675	-168.239	0.149	-0.006
-709.660	-108.611	0.143	0.031
-708.645	-6.644	0.200	-0.136
-707.631	253.994	0.089	0.153
-706.616	-159.926	-0.138	-0.008
-705.602	-105.295	0.204	-0.047
-704.587	-102.244	-0.174	-0.042
-703.572	800.000	-0.013	-0.054
-702.558	-32.492	-0.090	0.050
-701.543	-200.000	0.006	0.265
-700.529	800.000	-0.035	0.124
-699.514	358.257	0.100	0.199
-698.499	82.552	0.352	0.383
-697.485	202.392	0.076	0.118
-696.470	402.135	0.099	-0.208
-695.456	-14.349	-0.150	0.097
-694.441	74.752	-0.067	-0.070
-693.426	-52.387	0.311	0.144
-692.412	-75.971	0.289	-0.102
-691.397	-131.924	0.140	0.018
-690.383	800.000	0.081	-0.310
-689.368	800.000	-0.048	-0.163
-688.354	2.303	0.064	0.046
-687.339	-73.611	-0.212	-0.077
-686.324	450.329	-0.104	-0.230
-685.310	40.368	-0.137	0.124
-684.295	-118.006	-0.377	0.067
-683.281	-54.955	-0.043	-0.019
-682.266	-200.000	0.005	0.054
-681.251	586.433	-0.088	0.217
-680.237	661.305	0.035	-0.091
-679.222	24.057	-0.286	-0.236
-678.208	38.790	-0.206	-0.184
-677.193	748.863	-0.069	0.185
-676.178	-200.000	-0.017	0.168
-675.164	-17.664	0.345	-0.216
-674.149	-200.000	0.016	-0.186
-673.135	21.283	-0.089	-0.072
-672.120	15.190	0.188	0.147
-671.105	800.000	-0.091	0.325
-670.091	800.000	0.112	0.428
-669.076	800.000	0.017	0.060
-668.062	-200.000	-0.008	-0.256
-667.047	218.261	0.067	-0.107
-666.032	-115.799	0.254	0.047
-665.018	-30.718	-0.263	0.148
-664.003	-193.953	0.501	0.004
-662.989	-124.555	-0.371	0.058
-661.974	800.000	0.095	-0.337
-660.959	-200.000	-0.041	-0.241
-659.945	-12.979	-0.264	-0.171
-658.930	363.481	-0.057	-0.114
-657.916	-23.657	0.299	-0.179
-656.901	-185.771	0.343	0.005
-655.886	-28.217	-0.099	0.057
-654.872	46.076	0.161	0.148
-653.857	-200.000	0.044	-0.252
-652.843	-200.000	0.005	-0.097
-651.828	-31.135	-0.100	-0.057
-650.814	12.539	0.140	0.108
-649.799	-69.390	0.054	0.021
-648.784	194.947	0.092	-0.140
-647.770	165.163	-0.151	0.212
-646.755	-8.584	-0.500	-0.336
-645.741	800.000	-0.101	-0.426
-644.726	-28.811	-0.314	0.180
-643.711	-70.159	0.249	-0.095
-642.697	29.085	-0.279	-0.236
-641.682	-91.344	0.357	-0.102
-640.668	-115.932	-0.141	0.026
-639.653	800.000	0.067	-0.254
-638.638	188.363	-0.062	0.093
-637.624	141.391	0.183	0.242
-636.609	-42.092	-0.204	-0.104
-635.595	-61.525	0.067	0.028
-634.580	83.575	-0.117	0.127
-633.565	88.760	0.146	-0.162
-632.551	270.435	0.043	-0.075
-631.536	-140.901	0.149	0.015
-630.522	243.352	-0.115	-0.193
-629.507	417.611	-0.171	0.364
-628.492	-4.878	0.204	0.140
-627.478	83.988	0.257	-0.280
-626.463	800.000	-0.097	-0.333
-625.449	-26.250	-0.292	0.171
-624.434	-70.673	0.186	-0.070
-623.419	-200.000	-0.010	-0.167
-622.405	94.202	-0.223	0.253
-621.390	268.104	0.084	0.147
-620.376	-101.773	0.188	-0.045
-619.361	6.038	-0.461	0.341
-618.346	-176.775	-0.348	0.009
-617.332	-200.000	0.043	-0.361
-616.317	-92.048	-0.418	-0.118
-615.303	54.803	0.178	0.171
-614.288	-200.000	-0.004	-0.201
-613.273	292.858	0.098	0.178
-612.259	-181.449	-0.134	0.003
-611.244	800.000	-0.016	-0.057
-610.230	-17.491	-0.291	-0.182
-609.215	-91.193	-0.055	0.016
-608.201	76.237	-0.102	0.108
-607.186	-122.795	-0.302	0.049
-606.171	-111.578	0.119	0.024
-605.157	81.598	-0.079	-0.085
-604.142	89.219	0.152	-0.169
-603.128	-14.122	-0.167	0.108
-602.113	-200.000	0.082	-0.502
-601.098	800.000	0.096	-0.276
-600.084	-102.730	-0.549	-0.130
-599.069	389.038	-0.032	-0.066
-598.055	-200.000	-0.054	-0.238
-597.040	800.000	0.053	0.221
-596.025	90.301	0.055	0.061
-595.011	-78.049	-0.237	-0.081
-593.996	-200.000	0.008	0.187
-592.982	661.574	-0.067	0.172
-591.967	-20.407	-0.158	-0.097
-590.952	45.976	0.040	0.037
-589.938	-36.246	-0.006	0.003
-588.923	800.000	-0.071	-0.241
-587.909	26.007	0.041	0.034
-586.894	11.582	-0.039	0.030
-585.879	8.341	-0.029	0.021
-584.865	1.002	-0.076	0.054
-583.850	-112.737	-0.333	0.066
-582.836	-149.209	0.075	0.006
-581.821	-200.000	0.045	-0.306
-580.806	337.965	0.103	-0.200
-579.792	-200.000	0.025	-0.148
-578.777	748.782	0.091	0.243
-577.763	697.226	0.069	0.180
-576.748	106.903	0.172	0.204
-575.733	-200.000	-0.010	-0.259
-574.719	-1.535	0.137	0.096
-573.704	-42.116	-0.131	-0.067
-572.690	-23.240	-0.196	0.118
-571.675	-2.632	0.290	-0.202
-570.661	-177.685	-0.302	0.007
-569.646	570.691	0.080	0.194
-568.631	-21.012	-0.182	0.111
-567.617	-164.801	0.276	-0.012
-566.602	384.697	0.056	-0.116
-565.588	538.402	-0.148	-0.350
-564.573	-11.357	-0.071	-0.047
-563.558	104.169	0.354	0.414
-562.544	175.020	-0.189	-0.272
-561.529	116.581	-0.032	0.039
-560.515	-200.000	-0.023	-0.229
-559.500	-182.619	-0.223	-0.004
-558.485	28.271	0.153	0.129
-557.471	53.099	-0.188	-0.179
-556.456	106.406	0.227	-0.267
-555.442	-119.922	0.216	-0.037
-554.427	57.286	-0.232	-0.226
-553.412	-200.000	-0.008	-0.103
-552.398	-84.304	0.252	-0.079
-551.383	-200.000	-0.007	0.158
-550.369	-78.918	-0.340	0.115
-549.354	-155.918	0.091	0.006
-548.339	-200.000	0.066	0.355
-547.325	-99.837	0.047	-0.012
-546.310	-97.790	0.128	-0.033
-545.296	-138.706	-0.216	-0.023
-544.281	127.221	-0.064	-0.081
-543.266	123.977	-0.223	-0.278
-542.252	-200.000	-0.008	0.291
-541.237	-188.651	-0.234	-0.003
-540.223	-200.000	-0.033	-0.269
-539.208	152.680	-0.152	0.206
-538.193	-135.460	-0.373	0.044
-537.179	-200.000	0.007	0.059
-536.164	-190.414	0.121	-0.001
-535.150	187.336	-0.247	0.367
-534.135	517.638	0.188	-0.437
-533.121	-25.583	-0.190	0.112
-532.106	-200.000	0.204	-0.000
-531.091	-68.070	0.110	0.043
-530.077	-200.000	0.027	0.130
-529.062	-125.183	-0.145	0.022
-528.048	-45.695	-0.434	-0.213
-527.033	-197.645	0.186	0.001
-526.018	464.916	-0.037	0.083
-525.004	-156.879	0.190	-0.012
-523.989	-64.197	0.155	-0.063
-522.975	-171.165	-0.311	-0.010
-521.960	722.579	-0.150	-0.397
-520.945	-183.758	-0.082	-0.001
-519.931	140.008	-0.209	-0.274
-518.916	102.591	-0.191	-0.222
-517.902	2.105	-0.138	0.099
-516.887	-200.000	-0.054	-0.366
-515.872	26.959	-0.183	0.152
-514.858	800.000	-0.075	0.236
-513.843	-200.000	0.106	-0.505
-512.829	222.205	0.150	0.240
-511.814	-156.765	-0.279	0.017
-510.799	311.014	0.044	-0.082
-509.785	800.000	0.097	0.297
-508.770	-156.925	-0.097	0.006
-507.756	-200.000	-0.020	0.117
-506.741	-200.000	-0.005	-0.345
-505.726	350.495	-0.173	-0.339
-504.712	-129.438	-0.140	0.019
-503.697	-200.000	-0.008	-0.152
-502.683	190.122	-0.185	-0.276
-501.668	56.626	0.076	-0.073
-500.653	206.457	-0.068	-0.105
-499.639	225.081	-0.095	-0.153
-498.624	800.000	0.068	0.231
-497.610	62.978	0.330	-0.328
-496.595	-166.402	0.333	0.014
-495.581	88.921	0.114	-0.126
-494.566	-18.461	0.167	-0.103
-493.551	172.513	0.093	0.133
-492.537	398.543	0.070	-0.145
-491.522	-65.158	0.194	0.078
-490.508	357.196	-0.214	0.423
-489.493	-88.048	0.304	-0.091
-488.478	-113.231	0.459	-0.090
-487.464	-75.515	0.163	-0.058
-486.449	-200.000	-0.192	-0.001
-485.435	69.502	0.195	-0.199
-484.420	87.898	-0.140	0.154
-483.405	419.532	-0.031	0.067
-482.391	86.046	0.146	0.159
-481.376	610.940	0.095	0.235
-480.362	-200.000	-0.073	0.421
-479.347	216.989	0.108	-0.171
-478.332	-200.000	0.069	-0.426
-477.318	114.466	-0.106	0.128
-476.303	-47.099	-0.277	0.134
-475.289	-75.727	0.078	-0.027
-474.274	800.000	0.055	0.193
-473.259	-95.595	0.109	-0.029
-472.245	69.170	0.152	-0.155
-471.230	-200.000	0.013	-0.082
-470.216	-9.527	0.145	0.096
-469.201	-9.181	-0.494	0.328
-468.186	205.339	0.196	-0.302
-467.172	-200.000	0.025	0.288
-466.157	-10.534	-0.370	-0.243
-465.143	60.016	0.279	0.273
-464.128	800.000	-0.070	0.248
-463.113	-1.013	-0.305	0.214
-462.099	-151.947	-0.339	0.025
-461.084	-7.309	-0.150	-0.100
-460.070	-138.177	-0.249	0.027
-459.055	-200.000	0.023	0.434
-458.040	109.241	-0.111	-0.131
-457.026	534.607	-0.077	0.181
-456.011	-79.435	0.108	-0.036
-454.997	-33.737	0.171	-0.094
-453.982	48.379	0.083	0.077
-452.968	125.592	-0.154	0.193
-451.953	496.003	0.136	0.311
-450.938	-74.225	0.351	0.126
-449.924	-113.037	-0.112	0.022
-448.909	29.868	0.044	0.037
-447.895	262.497	-0.083	0.142
-446.880	-14.646	0.079	-0.050
-445.865	-200.000	-0.059	0.445
-444.851	-200.000	0.014	0.218
-443.836	-6.116	-0.056	-0.038
-442.822	147.789	-0.085	0.113
-441.807	-37.405	-0.173	-0.091
-440.792	-43.625	0.163	0.081
-439.778	800.000	0.062	0.253
-438.763	-1.448	-0.167	-0.117
-437.749	114.471	0.153	0.184
-436.734	-99.090	-0.240	-0.060
-435.719	-200.000	0.019	-0.118
-434.705	-139.206	-0.230	-0.025
-433.690	580.634	-0.148	-0.359
-432.676	-89.727	0.303	-0.088
-431.661	469.626	0.142	0.315
-430.646	249.797	-0.163	-0.273
-429.632	-200.000	0.016	0.151
-428.617	-98.500	-0.322	0.081
-427.603	507.080	0.052	0.119
-426.588	-101.158	0.167	-0.040
-425.573	311.876	-0.081	-0.151
-424.559	-67.165	0.208	-0.081
-423.544	-132.429	0.142	-0.018
-422.530	-156.500	0.113	0.007
-421.515	-200.000	0.056	-0.526
-420.500	-200.000	-0.012	-0.144
-419.486	-37.708	0.265	-0.140
-418.471	376.074	0.068	0.137
-417.457	-100.408	0.254	-0.062
-416.442	-138.796	-0.138	0.015
-415.428	105.859	0.222	0.260
-414.413	-128.786	0.390	-0.054
-413.398	-3.573	-0.027	0.018
-412.384	-200.000	0.017	-0.250
-411.369	-148.210	0.145	0.012
-410.355	155.822	0.310	0.423
-409.340	-73.587	-0.066	0.024
-408.325	112.591	-0.172	-0.206
-407.311	-104.063	-0.283	0.065
-406.296	138.296	-0.162	-0.210
-405.282	-22.158	0.114	-0.068
-404.267	1.449	-0.147	0.105
-403.252	287.480	0.021	-0.038
-402.238	-29.548	-0.057	0.032
-401.223	-200.000	-0.026	0.129
-400.209	42.182	-0.286	0.257
-399.194	228.313	-0.102	0.164
-398.179	45.868	0.134	0.122
-397.165	18.070	0.277	-0.218
-396.150	-120.553	-0.333	-0.056
-395.136	230.888	-0.153	0.248
-394.121	57.516	0.154	-0.149
-393.106	53.476	0.035	0.033
-392.092	-30.973	0.232	0.129
-391.077	740.917	-0.125	-0.331
-390.063	10.886	0.110	-0.083
-389.048	-2.998	-0.025	-0.017
-388.033	-49.006	-0.147	0.069
-387.019	290.681	0.132	-0.238
-386.004	-46.351	-0.163	-0.079
-384.990	-67.786	-0.166	0.064
-383.975	256.427	-0.080	-0.135
-382.960	-107.474	0.094	-0.020
-381.946	-200.000	-0.052	0.275
-380.931	65.165	-0.266	-0.266
-379.917	-200.000	0.054	0.284
-378.902	-200.000	0.027	0.183
-377.888	-0.603	0.128	-0.090
-376.873	59.578	0.293	0.285
-375.858	800.000	0.089	-0.374
-374.844	323.018	-0.130	-0.244
-373.829	-200.000	-0.041	-0.335
-372.815	-200.000	0.016	-0.239
-371.800	-177.362	0.287	0.007
-370.785	-98.496	-0.145	-0.037
-369.771	777.373	0.108	-0.291
-368.756	800.000	0.027	-0.097
-367.742	153.292	0.251	0.340
-366.727	66.070	-0.032	0.033
-365.712	250.119	0.143	0.239
-364.698	58.550	-0.124	0.120
-363.683	-41.896	0.244	-0.123
-362.669	-157.086	0.450	0.027
-361.654	103.060	0.064	-0.074
-360.639	-200.000	0.018	0.104
-359.625	800.000	0.074	0.208
-358.610	-86.862	0.249	0.075
-357.596	15.683	-0.308	0.239
-356.581	-114.333	0.388	-0.074
-355.566	373.766	0.032	0.065
-354.552	-200.000	-0.004	0.171
-353.537	800.000	-0.078	0.288
-352.523	478.046	0.066	-0.148
-351.508	-62.987	0.312	-0.127
-350.493	-81.681	-0.064	0.021
-349.479	-8.776	-0.099	-0.066
-348.464	-200.000	-0.084	-0.409
-347.450	-15.579	-0.169	-0.106
-346.435	-200.000	-0.002	-0.332
-345.420	-8.994	-0.243	-0.160
-344.406	-40.036	0.227	-0.117
-343.391	349.115	-0.099	0.193
-342.377	178.836	-0.092	0.132
-341.362	800.000	0.189	0.561
-340.348	425.701	-0.026	0.056
-339.333	132.393	0.041	0.052
-338.318	-200.000	-0.011	-0.139
-337.304	201.837	0.036	0.054
-336.289	800.000	-0.046	-0.138
-335.275	800.000	0.085	0.241
-334.260	516.603	-0.095	0.218
-333.245	-200.000	-0.055	-0.313
-332.231	46.437	-0.075	-0.068
-331.216	-200.000	0.036	-0.202
-330.202	-54.286	0.212	-0.095
-329.187	789.123	-0.078	0.212
-328.172	800.000	-0.038	-0.136
-327.158	-70.965	-0.162	-0.060
-326.143	800.000	-0.099	-0.272
-325.129	-200.000	-0.021	-0.394
-324.114	258.648	-0.074	0.125
-323.099	-77.655	0.230	0.078
-322.085	-200.000	-0.007	-0.204
-321.070	-25.742	0.236	-0.137
-320.056	-200.000	0.010	0.067
-319.041	237.036	0.126	-0.206
-318.026	-200.000	-0.048	-0.269
-317.012	155.349	-0.207	-0.281
-315.997	800.000	0.134	0.383
-314.983	624.206	0.127	0.316
-313.968	-200.000	-0.077	-0.335
-312.953	-200.000	-0.040	-0.186
-311.939	-48.882	0.088	0.042
-310.924	418.017	0.051	0.108
-309.910	-198.351	-0.218	-0.001
-308.895	57.597	-0.259	-0.249
-307.880	399.251	0.176	-0.363
-306.866	615.876	-0.087	-0.215
-305.851	163.484	0.070	-0.097
-304.837	-104.308	0.349	0.080
-303.822	21.751	0.118	-0.095
-302.807	131.051	-0.074	-0.093
-301.793	65.180	0.241	-0.240
-300.778	283.067	-0.114	-0.202
-299.764	-149.206	0.127	-0.010
-298.749	-2.682	0.093	0.064
-297.735	439.766	-0.125	-0.269
-296.720	-60.467	-0.119	0.050
-295.705	292.753	0.067	-0.121
-294.691	-60.422	-0.178	0.074
-293.676	800.000	-0.095	0.386
-292.662	-200.000	0.019	-0.196
-291.647	8.494	-0.149	0.111
-290.632	240.727	0.105	0.172
-289.618	-35.730	-0.083	-0.044
-288.603	-200.000	-0.031	-0.162
-287.589	-200.000	0.039	-0.202
-286.574	-0.211	-0.064	-0.045
-285.559	-105.869	-0.282	-0.063
-284.545	-106.557	0.283	0.062
-283.530	232.975	-0.196	0.317
-282.516	-84.924	0.093	0.029
-281.501	257.409	-0.094	-0.159
-280.486	99.050	-0.126	-0.144
-279.472	-124.130	0.177	-0.027
-278.457	396.869	-0.087	0.179
-277.443	747.225	0.150	0.399
-276.428	346.304	0.090	0.175
-275.413	732.303	0.103	0.270
-274.399	-200.000	-0.039	0.330
-273.384	-200.000	0.006	0.032
-272.370	-200.000	0.014	-0.086
-271.355	515.756	-0.034	-0.079
-270.340	-200.000	0.055	0.378
-269.326	-0.496	0.130	0.091
-268.311	111.067	-0.089	0.106
-267.297	-147.108	-0.113	-0.010
-266.282	44.375	-0.184	-0.167
-265.267	-16.708	0.067	-0.042
-264.253	85.720	-0.049	-0.053
-263.238	-83.274	0.139	-0.044
-262.224	534.501	0.037	-0.086
-261.209	-89.789	0.232	0.067
-260.195	300.571	-0.043	-0.079
-259.180	538.025	0.118	-0.277
-258.165	182.230	-0.230	0.333
-257.151	-200.000	-0.000	-0.108
-256.136	-128.020	-0.266	-0.037
-255.122	1.911	0.132	0.093
-254.107	90.878	-0.129	-0.142
-253.092	800.000	0.043	-0.180
-252.078	-200.000	-0.019	0.406
-251.063	8.732	-0.132	-0.098
-250.049	-60.372	0.100	0.042
-249.034	522.347	0.055	0.127
-248.019	-54.947	-0.352	-0.156
-247.005	-124.856	0.071	-0.011
-245.990	-131.375	0.325	0.042
-244.976	-153.719	0.495	0.033
-243.961	-107.333	-0.185	-0.040
-242.946	-200.000	-0.004	-0.149
-241.932	119.288	-0.058	-0.070
-240.917	-42.363	0.198	0.099
-239.903	-116.869	-0.325	-0.059
-238.888	-200.000	0.031	0.417
-237.873	48.691	0.221	0.204
-236.859	44.144	0.185	0.167
-235.844	154.622	0.146	0.197
-234.830	-5.210	-0.309	0.209
-233.815	11.915	0.314	0.237
-232.800	800.000	-0.031	-0.095
-231.786	-27.837	-0.111	-0.063
-230.771	107.027	-0.086	0.101
-229.757	-111.695	-0.240	-0.048
-228.742	-25.913	0.397	0.230
-227.727	42.880	0.210	0.188
-226.713	-200.000	-0.007	0.099
-225.698	800.000	-0.079	0.240
-224.684	390.051	-0.050	0.101
-223.669	124.572	0.122	0.151
-222.655	-101.427	0.244	-0.058
-221.640	-200.000	-0.050	0.228
-220.625	464.378	-0.016	0.036
-219.611	-200.000	-0.012	-0.160
-218.596	-97.049	0.072	0.018
-217.582	-14.465	0.114	0.072
-216.567	-200.000	0.028	0.174
-215.552	-200.000	0.025	-0.471
-214.538	168.709	-0.091	-0.127
-213.523	-19.946	-0.155	-0.094
-212.509	-6.307	-0.113	0.076
-211.494	304.905	0.064	-0.117
-210.479	679.901	0.048	-0.123
-209.465	-122.977	-0.370	0.058
-208.450	-5.632	-0.029	-0.020
-207.436	-94.505	0.476	0.127
-206.421	-29.204	0.086	-0.049
-205.406	-200.000	0.058	0.291
-204.392	72.729	-0.136	0.140
-203.377	15.337	0.111	0.086
-202.363	58.895	-0.180	0.173
-201.348	-23.435	0.292	-0.172
-200.333	-7.502	0.033	-0.022
-199.319	162.108	0.036	0.049
-198.304	345.194	0.151	0.291
-197.290	101.545	-0.125	0.143
-196.275	12.252	0.202	0.153
-195.260	-16.446	-0.041	0.026
-194.246	155.041	0.098	-0.132
-193.231	-69.135	0.152	-0.057
-192.217	145.470	-0.164	0.216
-191.202	21.249	0.174	-0.139
-190.187	-175.647	0.306	0.008
-189.173	241.267	-0.073	0.120
-188.158	-143.599	-0.339	-0.032
-187.144	624.151	0.113	0.279
-186.129	226.974	0.090	0.144
-185.114	800.000	-0.083	-0.339
-184.100	-200.000	-0.021	0.139
-183.085	142.522	-0.040	0.052
-182.071	239.029	0.339	0.553
-181.056	784.037	0.057	0.153
-180.042	-16.894	0.100	-0.062
-179.027	136.436	0.066	-0.084
-178.012	95.001	-0.160	0.179
-176.998	67.226	-0.125	-0.125
-175.983	-118.704	0.302	0.052
-174.969	-200.000	0.068	0.505
-173.954	800.000	-0.087	0.300
-172.939	-70.865	0.127	-0.047
-171.925	-200.000	-0.032	0.202
-170.910	-108.213	0.287	0.061
-169.896	50.835	0.249	0.232
-168.881	151.026	-0.106	0.141
-167.866	7.215	0.236	0.173
-166.852	800.000	-0.053	-0.207
-165.837	-84.031	0.203	0.063
-164.823	-56.996	0.158	-0.068
-163.808	-146.816	0.220	-0.019
-162.793	-54.101	-0.342	-0.152
-161.779	800.000	-0.034	0.102
-160.764	-200.000	0.036	-0.645
-159.750	-56.893	0.165	0.071
-158.735	-72.408	-0.220	-0.080
-157.720	83.568	-0.081	-0.086
-156.706	784.841	-0.058	-0.154
-155.691	12.012	0.086	-0.065
-154.677	7.717	-0.242	-0.178
-153.662	55.634	-0.052	-0.049
-152.647	213.227	-0.070	0.108
-151.633	220.604	-0.124	0.195
-150.618	424.458	0.113	-0.238
-149.604	95.866	0.096	0.107
-148.589	404.187	-0.007	-0.015
-147.574	110.245	-0.147	0.173
-146.560	8.497	0.175	0.129
-145.545	29.973	-0.117	0.098
-144.531	570.286	0.063	0.150
-143.516	-200.000	-0.002	-0.243
-142.502	274.134	0.061	-0.105
-141.487	-101.430	0.240	0.057
-140.472	-50.315	-0.363	-0.168
-139.458	-89.357	-0.388	0.112
-138.443	-200.000	0.002	-0.168
-137.429	-200.000	0.025	-0.472
-136.414	-82.755	-0.185	0.058
-135.399	-82.854	0.083	0.026
-134.385	323.492	-0.053	0.099
-133.370	213.715	-0.261	-0.404
-132.356	-167.232	0.400	-0.016
-131.341	-200.000	-0.026	-0.175
-130.326	-149.111	0.021	0.002
-129.312	-39.501	-0.343	0.176
-128.297	60.402	-0.029	-0.028
-127.283	153.515	-0.148	0.198
-126.268	-56.068	0.344	0.150
-125.253	800.000	0.096	0.283
-124.239	72.371	-0.107	0.109
-123.224	213.619	0.281	-0.435
-122.210	242.902	0.053	0.087
-121.195	233.850	-0.203	0.327
-120.180	-200.000	-0.029	-0.149
-119.166	-200.000	-0.001	0.139
-118.151	164.310	0.319	-0.440
-117.137	130.264	0.083	0.103
-116.122	168.725	0.038	-0.053
-115.107	67.507	-0.168	0.167
-114.093	206.896	0.186	-0.284
-113.078	205.864	0.096	-0.146
-112.064	25.304	0.023	-0.019
-111.049	293.918	0.081	0.145
-110.034	544.391	-0.145	0.338
-109.020	-65.855	0.403	0.158
-108.005	-45.191	-0.401	-0.195
-106.991	-84.974	0.426	0.131
-105.976	391.789	-0.227	-0.460
-104.962	-89.212	-0.194	0.056
-103.947	-8.386	0.177	0.116
-102.932	-97.213	0.154	0.039
-101.918	-47.288	0.291	0.138
-100.903	800.000	-0.052	0.214
-99.889	-54.829	-0.198	0.087
-98.874	-200.000	0.039	0.201
-97.859	-171.285	0.371	0.012
-96.845	182.632	0.183	-0.264
-95.830	-200.000	0.030	-0.138
-94.816	154.450	-0.211	-0.283
-93.801	-124.682	0.151	-0.023
-92.786	34.648	0.110	0.094
-91.772	800.000	0.190	-0.562
-90.757	3.564	0.197	-0.141
-89.743	-152.530	-0.286	-0.020
-88.728	-200.000	-0.008	-0.108
-87.713	312.532	0.107	0.196
-86.699	96.118	0.275	-0.307
-85.684	245.086	-0.099	-0.163
-84.670	236.364	-0.115	-0.185
-83.655	434.411	-0.152	-0.323
-82.640	-200.000	-0.060	-0.361
-81.626	245.023	0.006	-0.010
-80.611	72.963	-0.221	0.225
-79.597	613.018	-0.121	0.297
-78.582	370.428	-0.121	0.239
-77.567	-200.000	0.037	0.161
-76.553	80.412	0.202	-0.213
-75.538	-69.384	-0.079	-0.030
-74.524	86.062	0.185	0.199
-73.509	246.436	0.366	-0.602
-72.494	800.000	0.100	-0.406
-71.480	-200.000	0.016	0.122
-70.465	-200.000	0.035	0.222
-69.451	-200.000	-0.003	0.042
-68.436	-126.754	0.234	0.034
-67.422	296.935	0.063	0.112
-66.407	203.507	0.197	0.297
-65.392	68.823	0.174	-0.175
-64.378	-143.595	0.071	0.007
-63.363	66.420	0.153	-0.152
-62.349	1.689	0.116	-0.081
-61.334	130.146	-0.869	-1.086
-60.319	406.612	0.505	1.041
-59.305	788.613	-0.524	-1.405
-58.290	217.238	0.922	1.434
-57.276	363.389	0.789	1.548
-56.261	-200.000	135.939	679.073
-55.246	336.499	1677.396	3178.157
-54.232	132.123	2815.135	3538.017
-53.217	79.746	2351.252	2463.876
-52.203	27.176	2090.028	1712.219
-51.188	22.527	2007.845	1602.650
-50.173	21.515	1993.035	1581.622
-49.159	39.987	2070.368	1814.518
-48.144	37.537	2080.869	1800.998
-47.130	22.925	2032.849	1626.015
-46.115	20.838	2021.822	1598.001
-45.100	20.847	2018.691	1595.545
-44.086	20.725	2016.611	1592.723
-43.071	20.662	2014.078	1590.085
-42.057	20.663	2011.928	1588.332
-41.042	20.711	2009.892	1587.101
-40.027	20.697	2008.023	1585.432
-39.013	20.697	2006.516	1584.181
-37.998	20.736	2004.186	1582.633
-36.984	20.738	2001.954	1580.823
-35.969	20.774	2000.241	1579.740
-34.954	20.718	1999.151	1578.301
-33.940	20.777	1997.808	1577.714
-32.925	20.845	1996.082	1576.910
-31.911	20.908	1993.998	1575.769
-30.896	20.851	1992.915	1574.333
-29.881	20.884	1991.137	1573.166
-28.867	20.910	1989.666	1572.171
-27.852	20.841	1987.442	1569.730
-26.838	20.784	1986.311	1568.261
-25.823	20.891	1984.050	1567.377
-24.809	20.820	1983.352	1566.130
-23.794	20.895	1980.952	1564.841
-22.779	20.859	1979.409	1563.240
-21.765	20.837	1977.254	1561.282
-20.750	20.808	1975.799	1559.809
-19.736	20.816	1974.919	1559.125
-18.721	20.781	1972.889	1557.146
-17.706	20.828	1971.137	1556.117
-16.692	20.747	1969.717	1554.212
-15.677	20.783	1968.328	1553.382
-14.663	20.825	1966.472	1552.230
-13.648	20.879	1965.670	1552.016
-12.633	20.868	1964.448	1550.887
-11.619	20.867	1963.006	1549.683
-10.604	20.847	1961.455	1548.220
-9.590	20.790	1960.193	1546.652
-8.575	20.775	1959.105	1545.601
-7.560	20.835	1957.543	1544.840
-6.546	20.855	1956.220	1543.913
-5.531	20.769	1955.386	1542.423
-4.517	20.773	1953.734	1541.097
-3.502	20.817	1952.575	1540.509
-2.487	20.806	1950.944	1539.065
-1.473	20.820	1950.355	1538.667
-0.458	20.861	1945.174	1534.876
0.556	19.508	1924.899	1505.192
1.571	15.161	1906.782	1453.265
2.586	11.358	1930.147	1437.486
3.600	10.478	1965.286	1455.626
4.615	10.420	1957.541	1449.239
5.629	8.293	1857.237	1356.796
6.644	3.452	1747.086	1237.439
7.659	0.849	1716.939	1195.428
8.673	0.672	1714.347	1192.117
9.688	0.674	1712.674	1190.867
10.702	0.672	1711.193	1189.717
11.717	0.582	1707.395	1186.268
12.731	0.836	1705.472	1186.815
13.746	4.788	1713.092	1223.111
14.761	11.581	1727.166	1286.705
15.775	16.256	1735.854	1329.979
16.790	17.106	1736.758	1337.251
17.804	16.322	1733.573	1328.514
18.819	15.355	1730.052	1318.109
19.834	14.834	1727.458	1311.922
20.848	14.497	1726.151	1308.169
21.863	14.278	1724.920	1305.411
22.877	13.988	1723.517	1301.959
23.892	13.773	1721.971	1298.992
24.907	13.681	1719.984	1296.661
25.921	13.635	1719.357	1295.710
26.936	13.682	1718.337	1295.192
27.950	13.639	1718.205	1294.643
28.965	13.674	1717.448	1294.232
29.980	13.754	1716.717	1294.193
30.994	13.851	1714.791	1293.385
32.009	13.799	1714.241	1292.449
33.023	13.862	1713.303	1292.118
34.038	13.876	1712.588	1291.575
35.053	13.826	1711.463	1290.217
36.067	13.900	1710.458	1289.923
37.082	13.857	1708.998	1288.372
38.096	13.899	1707.855	1287.723
39.111	13.891	1707.849	1287.546
40.126	13.885	1706.820	1286.607
41.140	13.822	1705.389	1284.931
42.155	13.792	1704.350	1283.801
43.169	13.778	1702.252	1281.994
44.184	13.710	1701.660	1280.913
45.199	13.735	1700.371	1280.025
46.213	13.568	1699.990	1278.333
47.228	13.609	1698.233	1277.214
48.242	13.785	1696.357	1277.046
49.257	13.811	1695.170	1276.241
50.271	13.664	1694.686	1274.633
51.286	13.741	1693.410	1274.153
52.301	13.734	1691.946	1272.881
53.315	13.755	1690.124	1271.557
54.330	13.721	1689.093	1270.413
55.344	13.764	1686.870	1268.960
56.359	13.661	1685.811	1267.258
57.374	13.813	1684.031	1266.972
58.388	13.804	1683.051	1266.054
59.403	13.662	1682.244	1264.251
60.417	13.592	1680.964	1262.642
61.432	13.615	1679.564	1261.653
62.447	13.698	1677.999	1261.000
63.461	13.658	1677.117	1259.918
64.476	13.552	1676.099	1258.241
65.490	13.558	1675.266	1257.550
66.505	13.631	1673.626	1256.758
67.520	13.664	1672.593	1256.124
68.534	13.602	1671.335	1254.598
69.549	13.596	1670.546	1253.845
70.563	13.629	1668.705	1252.602
71.578	13.718	1667.546	1252.298
72.593	13.641	1666.691	1250.965
73.607	13.657	1665.402	1250.003
74.622	13.581	1664.695	1248.790
75.636	13.525	1663.768	1247.560
76.651	13.628	1662.731	1247.451
77.666	13.509	1662.164	1246.023
78.680	13.561	1661.140	1245.533
79.695	13.585	1660.007	1244.752
80.709	13.469	1659.353	1243.282
81.724	13.618	1657.651	1243.014
82.739	13.656	1656.853	1242.586
83.753	13.651	1655.863	1241.700
84.768	13.740	1654.982	1241.595
85.782	13.797	1654.055	1241.213
86.797	13.796	1653.269	1240.508
87.812	13.884	1651.633	1239.827
88.826	13.763	1650.306	1237.819
89.841	13.726	1649.268	1236.660
90.855	13.733	1648.181	1235.781
91.870	13.751	1646.877	1234.832
92.884	13.756	1646.634	1234.579
93.899	13.756	1645.435	1233.568
94.914	13.878	1643.819	1233.153
95.928	13.814	1642.720	1231.743
96.943	13.917	1641.040	1231.138
97.957	13.945	1639.647	1230.194
98.972	13.762	1638.221	1227.665
99.987	13.823	1636.953	1227.053
101.001	13.846	1635.057	1225.692
102.016	13.757	1633.535	1223.786
103.030	13.770	1632.734	1223.173
104.045	13.820	1630.799	1221.985
105.060	13.788	1629.602	1220.744
106.074	13.739	1628.584	1219.512
107.089	13.674	1626.607	1217.452
108.103	13.672	1624.845	1216.007
109.118	13.685	1623.396	1214.911
110.133	13.644	1621.870	1213.362
111.147	13.718	1620.040	1212.429
112.162	13.663	1619.341	1211.393
113.176	13.707	1617.714	1210.390
114.191	13.749	1615.986	1209.300
115.206	13.699	1615.085	1208.150
116.220	13.716	1613.735	1207.156
117.235	13.714	1612.263	1205.936
118.249	13.738	1610.702	1204.836
119.264	13.701	1609.318	1203.423
120.279	13.746	1607.959	1202.629
121.293	13.726	1606.320	1201.153
122.308	13.653	1604.837	1199.409
123.322	13.650	1603.223	1198.077
124.337	13.627	1601.874	1196.793
125.352	13.624	1600.980	1196.001
126.366	13.674	1599.622	1195.243
127.381	13.627	1598.712	1194.119
128.395	13.640	1597.164	1192.948
129.410	13.660	1596.073	1192.169
130.424	13.653	1594.201	1190.614
131.439	13.660	1593.419	1189.979
132.454	13.713	1591.802	1189.045
133.468	13.759	1590.147	1188.036
134.483	13.705	1588.922	1186.622
135.497	13.698	1587.840	1185.659
136.512	13.814	1586.073	1185.068
137.527	13.816	1584.629	1183.897
138.541	13.699	1583.615	1182.203
139.556	13.730	1582.215	1181.271
140.570	13.796	1581.169	1180.853
141.585	13.881	1579.322	1179.973
142.600	13.880	1577.824	1178.748
143.614	13.834	1576.971	1177.679
144.629	13.973	1575.099	1177.163
145.643	14.001	1573.939	1176.390
146.658	14.004	1572.634	1175.329
147.673	13.975	1571.327	1174.046
148.687	13.884	1569.805	1172.158
149.702	13.898	1568.160	1170.931
150.716	13.962	1566.238	1169.842
151.731	13.892	1565.114	1168.405
152.746	13.878	1563.667	1167.122
153.760	14.035	1562.091	1166.947
154.775	13.899	1561.084	1165.132
155.789	13.949	1559.721	1164.362
156.804	14.034	1558.580	1164.005
157.819	14.043	1557.328	1163.029
158.833	14.095	1555.663	1162.049
159.848	14.070	1554.912	1161.207
160.862	14.103	1553.749	1160.471
161.877	14.126	1552.478	1159.578
162.892	14.076	1551.193	1158.167
163.906	14.079	1549.992	1157.189
164.921	14.117	1548.182	1156.001
165.935	14.044	1547.230	1154.680
166.950	14.033	1546.053	1153.618
167.964	14.048	1545.214	1152.995
168.979	14.059	1544.698	1152.586
169.994	14.039	1543.169	1151.205
171.008	14.152	1542.051	1151.049
172.023	14.150	1541.046	1150.183
173.037	14.097	1540.101	1149.011
174.052	14.135	1538.684	1148.115
175.067	14.246	1537.668	1148.025
176.081	14.272	1536.341	1147.109
177.096	14.163	1534.431	1144.832
178.110	14.143	1533.492	1143.891
179.125	14.102	1532.522	1142.787
180.140	14.183	1531.227	1142.275
181.154	14.268	1530.183	1141.976
182.169	14.155	1528.996	1140.216
183.183	14.232	1527.707	1139.679
184.198	14.188	1527.103	1138.828
185.213	14.289	1525.881	1138.504
186.227	14.311	1524.679	1137.657
187.242	14.317	1523.689	1136.858
188.256	14.407	1522.134	1136.216
189.271	14.432	1520.868	1135.337
190.286	14.495	1519.629	1134.739
191.300	14.303	1519.090	1132.934
192.315	14.272	1517.773	1131.640
193.329	14.212	1516.538	1130.211
194.344	14.261	1515.402	1129.601
195.359	14.235	1514.061	1128.319
196.373	14.363	1512.993	1128.295
197.388	14.326	1512.422	1127.518
198.402	14.454	1511.075	1127.277
199.417	14.383	1510.143	1126.002
200.432	14.494	1509.169	1125.929
201.446	14.534	1507.751	1125.038
202.461	14.559	1506.624	1124.264
203.475	14.601	1505.642	1123.716
204.490	14.618	1504.560	1122.927
205.504	14.576	1503.472	1121.735
206.519	14.526	1502.546	1120.606
207.534	14.556	1501.066	1119.604
208.548	14.542	1500.222	1118.782
209.563	14.577	1498.812	1117.867
210.577	14.509	1497.851	1116.596
211.592	14.530	1496.926	1115.947
212.607	14.733	1495.893	1116.435
213.621	14.703	1495.737	1116.021
214.636	14.743	1494.528	1115.287
215.650	14.640	1493.873	1114.010
216.665	14.701	1492.681	1113.431
217.680	14.696	1491.890	1112.705
218.694	14.817	1490.945	1112.710
219.709	14.778	1489.803	1111.499
220.723	14.865	1488.563	1111.056
221.738	14.756	1488.178	1109.945
222.753	14.828	1486.537	1109.102
223.767	14.747	1485.970	1108.045
224.782	14.831	1484.981	1107.761
225.796	14.860	1483.688	1106.895
226.811	14.901	1483.133	1106.650
227.826	14.856	1482.993	1106.156
228.840	14.943	1481.497	1105.516
229.855	14.853	1480.497	1104.078
230.869	14.920	1479.080	1103.366
231.884	14.881	1478.676	1102.710
232.899	14.849	1477.859	1101.787
233.913	14.774	1476.496	1100.182
234.928	14.853	1475.196	1099.637
235.942	14.891	1473.685	1098.662
236.957	14.921	1472.239	1097.685
237.972	14.949	1471.511	1097.225
238.986	14.902	1470.749	1096.254
240.001	14.892	1469.863	1095.428
241.015	14.913	1468.284	1094.292
242.030	14.982	1466.923	1093.632
243.045	14.921	1466.269	1092.654
244.059	15.022	1465.036	1092.293
245.074	15.035	1464.602	1091.957
246.088	15.042	1463.949	1091.419
247.103	15.174	1462.951	1091.442
248.117	15.226	1462.031	1090.998
249.132	15.161	1461.278	1089.912
250.147	15.188	1460.868	1089.691
251.161	15.265	1460.147	1089.553
252.176	15.267	1459.349	1088.875
253.190	15.319	1458.008	1088.118
254.205	15.330	1457.708	1087.867
255.220	15.298	1456.661	1086.785
256.234	15.350	1455.220	1085.949
257.249	15.386	1454.529	1085.571
258.263	15.420	1453.957	1085.267
259.278	15.386	1453.077	1084.296
260.293	15.367	1451.860	1083.168
261.307	15.413	1451.138	1082.830
262.322	15.451	1450.709	1082.661
263.336	15.521	1449.545	1082.148
264.351	15.492	1447.955	1080.679
265.366	15.465	1447.795	1080.284
266.380	15.590	1446.609	1080.110
267.395	15.602	1445.805	1079.494
268.409	15.614	1444.696	1078.646
269.424	15.610	1443.799	1077.855
270.439	15.575	1442.900	1076.860
271.453	15.576	1441.520	1075.743
272.468	15.631	1440.915	1075.547
273.482	15.577	1440.263	1074.622
274.497	15.588	1439.005	1073.656
275.512	15.571	1438.735	1073.255
276.526	15.650	1437.394	1072.666
277.541	15.615	1436.194	1071.447
278.555	15.662	1435.331	1071.007
279.570	15.761	1434.424	1070.870
280.585	15.724	1433.062	1069.520
281.599	15.782	1432.433	1069.327
282.614	15.818	1431.715	1068.922
283.628	15.732	1430.594	1067.445
284.643	15.791	1429.477	1066.896
285.657	15.801	1428.298	1065.981
286.672	15.736	1427.470	1064.861
287.687	15.869	1426.377	1064.793
288.701	15.876	1425.116	1063.797
289.716	15.827	1424.610	1063.017
290.730	15.860	1424.059	1062.719
291.745	15.917	1422.881	1062.106
292.760	15.857	1421.871	1060.879
293.774	15.858	1420.861	1060.041
294.789	15.854	1420.026	1059.301
295.803	15.898	1418.970	1058.696
296.818	15.952	1418.069	1058.268
297.833	16.037	1417.368	1058.182
298.847	16.005	1415.967	1056.845
299.862	15.988	1415.169	1056.048
300.876	16.076	1413.778	1055.465
301.891	16.040	1412.870	1054.470
302.906	16.028	1412.454	1053.990
303.920	16.071	1411.630	1053.555
304.935	16.131	1410.881	1053.273
305.949	16.089	1409.906	1052.190
306.964	16.131	1409.221	1051.852
307.979	16.217	1408.381	1051.663
308.993	16.188	1407.765	1050.932
310.008	16.175	1406.611	1049.898
311.022	16.221	1404.912	1048.821
312.037	16.221	1404.475	1048.403
313.052	16.204	1403.500	1047.477
314.066	16.282	1402.464	1047.093
315.081	16.234	1401.032	1045.634
316.095	16.229	1400.249	1044.928
317.110	16.185	1399.422	1043.948
318.125	16.231	1398.383	1043.362
319.139	16.191	1397.487	1042.356
320.154	16.260	1396.174	1041.706
321.168	16.315	1395.168	1041.204
322.183	16.287	1394.556	1040.485
323.197	16.386	1393.482	1040.203
324.212	16.203	1392.901	1038.547
325.227	16.268	1392.161	1038.304
326.241	16.273	1391.026	1037.395
327.256	16.309	1390.149	1036.873
328.270	16.303	1389.397	1036.179
329.285	16.299	1388.450	1035.363
330.300	16.307	1387.672	1034.734
331.314	16.326	1386.568	1033.937
332.329	16.312	1385.409	1032.896
333.343	16.349	1384.716	1032.516
334.358	16.345	1383.693	1031.638
335.373	16.402	1383.177	1031.510
336.387	16.543	1381.577	1031.084
337.402	16.441	1381.834	1030.561
338.416	16.483	1381.070	1030.160
339.431	16.531	1380.078	1029.620
340.446	16.576	1379.383	1029.282
341.460	16.629	1378.036	1028.508
342.475	16.574	1377.512	1027.694
343.489	16.604	1376.508	1027.036
344.504	16.738	1375.357	1026.896
345.519	16.715	1374.619	1026.117
346.533	16.763	1374.066	1025.906
347.548	16.718	1372.608	1024.453
348.562	16.828	1371.656	1024.314
349.577	16.809	1370.660	1023.369
350.592	16.817	1370.019	1022.845
351.606	16.718	1369.566	1021.818
352.621	16.767	1367.864	1020.756
353.635	16.657	1367.401	1019.653
354.650	16.750	1366.336	1019.333
355.665	16.712	1365.409	1018.322
356.679	16.686	1364.744	1017.581
357.694	16.771	1363.012	1016.708
358.708	16.803	1362.170	1016.180
359.723	16.865	1360.660	1015.339
360.738	16.900	1359.883	1014.879
361.752	16.864	1359.040	1013.944
362.767	17.008	1357.713	1013.721
363.781	16.995	1356.936	1012.978
364.796	16.849	1356.260	1011.513
365.810	16.968	1355.877	1011.846
366.825	16.994	1354.886	1011.170
367.840	16.956	1353.974	1010.172
368.854	17.002	1353.012	1009.639
369.869	17.147	1352.495	1010.029
370.883	17.101	1351.803	1009.148
371.898	17.061	1351.690	1008.738
372.913	17.064	1350.274	1007.610
373.927	17.036	1349.726	1006.947
374.942	17.057	1348.650	1006.180
375.956	17.143	1348.064	1006.158
376.971	17.194	1347.111	1005.660
377.986	17.312	1345.832	1005.318
379.000	17.069	1345.889	1003.835
380.015	17.284	1344.633	1004.077
381.029	17.205	1343.847	1002.935
382.044	17.166	1343.681	1002.490
383.059	17.265	1342.853	1002.372
384.073	17.214	1341.925	1001.285
385.088	17.297	1341.138	1001.099
386.102	17.345	1340.374	1000.725
387.117	17.348	1339.328	999.876
388.132	17.429	1338.667	999.765
389.146	17.271	1338.005	998.257
390.161	17.432	1336.763	998.187
391.175	17.364	1336.140	997.234
392.190	17.409	1335.521	996.946
393.205	17.365	1334.707	995.993
394.219	17.494	1333.281	995.593
395.234	17.471	1331.884	994.331
396.248	17.406	1331.087	993.268
397.263	17.468	1329.676	992.489
398.278	17.460	1327.994	991.096
399.292	17.470	1327.437	990.652
400.307	17.434	1326.352	989.548
401.321	17.374	1325.139	988.205
402.336	17.494	1323.886	987.882
403.350	17.463	1323.062	987.000
404.365	17.510	1322.555	986.805
405.380	17.465	1321.496	985.668
406.394	17.498	1320.503	985.032
407.409	17.549	1319.910	984.793
408.423	17.629	1319.277	984.698
409.438	17.633	1318.524	984.074
410.453	17.657	1317.385	983.272
411.467	17.601	1316.872	982.480
412.482	17.715	1316.461	982.747
413.496	17.698	1315.897	982.140
414.511	17.760	1314.952	981.700
415.526	17.792	1314.204	981.243
416.540	17.831	1313.047	980.516
417.555	17.894	1312.348	980.267
418.569	17.887	1311.929	979.828
419.584	17.889	1311.518	979.448
420.599	17.889	1310.775	978.805
421.613	101.695	1364.662	1491.777
422.628	100.138	1372.416	1491.862
