DTS Sentinel unit serial number:	SN413079Multiplexer serial number:	ORYXHardware model number:	OX4-SRSoftware version number:	ORYX F/W v4.00 Oryx Data Collector v3.7.2.0data status	okinstallation	princeton_trtdifferential loss correction	single-endedforward channel	channel 4reverse channel	N/Adate	2019/09/19time	08:33:35forward acquisition time	60.00reverse acquisition time	0.00gamma	496.2192k internal	0.2340k external	0.2340temperature offset calibration	1.0017default loss term (dB/km)	0.3790temperature slope calibration	1.0000multiplexer offset coefficient	1.0000multiplexer slope coefficient	1.0000fibre end	0.00T internal ref (°C)	20.75T ext. ref 1 (°C)	0.57T ext. ref 2 (°C)	16.32length (m)	temperature (°C)	Stokes	anti-Stokes-747.200	-15.085	-0.177	-0.113
-746.185	-152.093	0.195	-0.014
-745.171	-35.926	0.091	-0.049
-744.156	45.041	-0.223	-0.206
-743.142	800.000	-0.092	0.295
-742.127	-91.479	-0.302	-0.086
-741.112	-200.000	-0.068	0.335
-740.098	800.000	-0.058	0.234
-739.083	16.763	0.211	-0.168
-738.069	-111.806	-0.178	-0.036
-737.054	-85.266	-0.091	0.028
-736.039	-200.000	-0.057	0.262
-735.025	800.000	-0.027	0.119
-734.010	-200.000	0.000	-0.256
-732.996	-55.699	-0.215	0.096
-731.981	-91.023	-0.214	0.062
-730.966	95.321	0.099	-0.113
-729.952	-102.592	0.142	0.034
-728.937	515.212	0.030	0.070
-727.923	-58.096	-0.113	-0.049
-726.908	-26.091	-0.065	-0.038
-725.894	-70.629	0.208	0.079
-724.879	-200.000	0.027	-0.126
-723.864	104.781	-0.066	0.078
-722.850	658.651	-0.069	0.177
-721.835	-121.406	-0.269	-0.045
-720.821	-200.000	-0.044	-0.236
-719.806	316.777	0.071	0.134
-718.791	-51.151	-0.153	0.072
-717.777	-200.000	0.047	-0.249
-716.762	-67.041	-0.389	-0.154
-715.748	55.619	-0.163	0.158
-714.733	298.623	0.045	-0.083
-713.718	-200.000	-0.036	0.235
-712.704	152.668	0.034	0.046
-711.689	-37.505	-0.050	-0.027
-710.675	71.982	-0.131	0.136
-709.660	419.674	0.131	-0.280
-708.645	30.437	-0.039	0.033
-707.631	60.502	0.209	0.207
-706.616	800.000	0.038	-0.140
-705.602	-84.052	-0.413	0.131
-704.587	51.920	-0.295	0.281
-703.572	-200.000	0.041	-0.190
-702.558	-2.993	-0.191	-0.133
-701.543	454.071	-0.136	-0.302
-700.529	800.000	0.032	0.134
-699.514	-135.668	0.164	0.019
-698.499	-40.974	-0.174	0.090
-697.485	83.731	-0.366	-0.400
-696.470	-112.653	-0.062	-0.012
-695.456	-59.327	0.208	0.090
-694.441	-101.484	-0.174	0.042
-693.426	204.021	-0.131	-0.203
-692.412	-147.762	-0.272	0.023
-691.397	717.937	-0.046	-0.123
-690.383	-67.316	0.053	-0.021
-689.368	624.985	0.120	-0.304
-688.354	185.220	-0.191	-0.284
-687.339	800.000	0.100	0.302
-686.324	-200.000	0.003	-0.100
-685.310	-200.000	-0.056	-0.666
-684.295	237.108	-0.136	0.225
-683.281	466.111	-0.030	0.067
-682.266	-137.308	-0.129	0.015
-681.251	545.467	-0.104	-0.249
-680.237	-113.531	-0.239	-0.047
-679.222	395.596	-0.108	-0.225
-678.208	175.718	0.089	0.129
-677.193	43.429	-0.157	-0.143
-676.178	-200.000	0.007	-0.415
-675.164	-42.011	0.221	-0.113
-674.149	-53.287	0.202	-0.093
-673.135	402.185	-0.179	-0.375
-672.120	469.402	-0.113	-0.253
-671.105	800.000	0.076	0.322
-670.091	240.039	0.093	-0.154
-669.076	24.996	-0.050	-0.041
-668.062	141.099	-0.068	0.089
-667.047	-119.623	-0.382	0.066
-666.032	3.147	-0.119	0.087
-665.018	800.000	0.037	-0.152
-664.003	5.231	-0.238	0.176
-662.989	-88.318	0.236	-0.070
-661.974	-88.970	-0.233	-0.069
-660.959	-104.007	0.295	-0.069
-659.945	-32.599	-0.240	0.133
-658.930	136.838	0.180	0.235
-657.916	163.258	-0.165	-0.232
-656.901	84.515	-0.054	-0.059
-655.886	800.000	0.099	-0.395
-654.872	-200.000	-0.146	0.664
-653.857	-41.212	-0.116	-0.060
-652.843	-200.000	-0.006	0.061
-651.828	652.008	-0.206	-0.528
-650.814	800.000	-0.007	-0.024
-649.799	-200.000	-0.025	0.141
-648.784	-112.697	-0.313	-0.062
-647.770	-110.721	0.087	-0.018
-646.755	-200.000	-0.087	-0.512
-645.741	-5.234	0.156	-0.107
-644.726	-200.000	0.328	0.000
-643.711	-200.000	-0.028	-0.185
-642.697	-113.112	0.156	0.031
-641.682	-9.542	0.242	-0.161
-640.668	-43.499	-0.178	0.090
-639.653	-200.000	0.023	-0.290
-638.638	710.631	0.014	-0.036
-637.624	221.267	-0.114	-0.182
-636.609	-83.555	0.267	-0.085
-635.595	-60.475	-0.309	0.131
-634.580	-54.541	0.351	-0.159
-633.565	-6.367	0.089	0.061
-632.551	324.272	-0.054	-0.102
-631.536	281.145	-0.049	0.087
-630.522	-116.912	-0.157	-0.029
-629.507	-20.639	0.097	-0.060
-628.492	-200.000	-0.013	-0.121
-627.478	-168.598	-0.164	0.006
-626.463	109.900	-0.109	-0.130
-625.449	-26.155	0.201	-0.118
-624.434	-69.850	0.315	-0.120
-623.419	-5.140	-0.050	-0.034
-622.405	606.088	0.210	-0.522
-621.390	800.000	-0.114	-0.435
-620.376	-200.000	0.000	-0.064
-619.361	377.772	0.082	0.167
-618.346	-154.140	-0.250	0.017
-617.332	-200.000	-0.009	-0.283
-616.317	-200.000	-0.008	-0.226
-615.303	800.000	0.035	0.118
-614.288	-40.228	0.142	-0.074
-613.273	36.394	0.003	0.002
-612.259	800.000	-0.075	-0.303
-611.244	-123.303	-0.238	0.038
-610.230	-200.000	0.020	-0.348
-609.215	345.785	0.123	0.242
-608.201	-10.115	-0.167	-0.111
-607.186	-200.000	0.029	0.165
-606.171	800.000	0.047	0.153
-605.157	-77.395	-0.190	-0.066
-604.142	163.549	0.057	-0.080
-603.128	-117.247	-0.311	0.056
-602.113	800.000	0.011	0.047
-601.098	227.765	-0.133	0.216
-600.084	800.000	0.064	-0.278
-599.069	-200.000	-0.028	-0.221
-598.055	800.000	-0.064	0.244
-597.040	-200.000	0.010	0.062
-596.025	-200.000	-0.043	0.221
-595.011	-115.450	0.420	-0.079
-593.996	-192.249	0.249	-0.002
-592.982	-33.185	-0.341	0.189
-591.967	-127.947	0.193	0.028
-590.952	53.714	0.120	-0.115
-589.938	800.000	-0.045	-0.165
-588.923	-200.000	0.012	-0.162
-587.909	-200.000	-0.025	0.171
-586.894	800.000	0.045	-0.172
-585.879	515.503	0.122	-0.283
-584.865	13.525	-0.183	-0.142
-583.850	260.853	-0.184	0.316
-582.836	-37.698	-0.303	-0.161
-581.821	6.977	-0.170	-0.126
-580.806	-79.202	0.066	-0.022
-579.792	121.797	-0.067	0.084
-578.777	57.365	-0.163	0.159
-577.763	243.171	0.145	-0.242
-576.748	-200.000	0.027	0.157
-575.733	19.009	-0.027	0.022
-574.719	-200.000	0.002	0.015
-573.704	106.881	-0.067	0.079
-572.690	-44.520	-0.160	0.080
-571.675	-149.909	0.333	-0.026
-570.661	-25.024	0.160	-0.095
-569.646	-200.000	-0.017	0.099
-568.631	362.157	0.068	-0.135
-567.617	141.634	-0.062	-0.082
-566.602	21.705	-0.045	-0.036
-565.588	220.980	-0.131	-0.209
-564.573	208.749	-0.138	0.215
-563.558	-77.571	-0.244	-0.084
-562.544	-200.000	-0.012	-0.218
-561.529	392.334	-0.082	0.169
-560.515	-6.999	0.089	0.060
-559.500	800.000	-0.054	-0.155
-558.485	-200.000	-0.025	-0.133
-557.471	-84.671	-0.140	-0.044
-556.456	-57.450	0.277	0.121
-555.442	15.567	0.064	0.050
-554.427	-83.860	0.303	0.096
-553.412	57.507	-0.145	-0.141
-552.398	-167.653	0.277	0.011
-551.383	-200.000	-0.030	0.372
-550.369	-200.000	0.015	-0.115
-549.354	-200.000	-0.018	-0.115
-548.339	-189.365	-0.229	-0.003
-547.325	800.000	0.096	-0.320
-546.310	-134.288	0.183	-0.022
-545.296	-200.000	0.066	0.364
-544.281	-154.902	-0.075	-0.005
-543.266	-195.468	-0.123	0.001
-542.252	-66.606	-0.132	-0.052
-541.237	-126.948	-0.132	0.019
-540.223	462.148	-0.145	-0.321
-539.208	343.668	0.098	-0.190
-538.193	-92.118	0.324	-0.091
-537.179	7.817	-0.194	-0.144
-536.164	-55.590	-0.167	0.074
-535.150	-157.057	-0.122	-0.007
-534.135	535.253	0.085	-0.200
-533.121	-105.578	0.248	0.056
-532.106	-200.000	0.033	-0.212
-531.091	-118.025	0.314	0.056
-530.077	24.724	0.213	-0.176
-529.062	-156.027	0.150	-0.009
-528.048	-200.000	-0.018	0.177
-527.033	458.146	-0.117	0.259
-526.018	-172.114	-0.389	-0.012
-525.004	-17.449	0.385	-0.241
-523.989	493.583	-0.023	-0.053
-522.975	-183.984	0.125	0.002
-521.960	408.064	0.068	-0.144
-520.945	800.000	0.014	-0.055
-519.931	-57.206	0.386	0.169
-518.916	27.687	0.044	-0.037
-517.902	-200.000	0.033	-0.205
-516.887	-61.336	0.250	0.104
-515.872	800.000	0.009	-0.029
-514.858	-200.000	0.061	0.362
-513.843	-112.362	-0.256	-0.051
-512.829	60.101	0.160	-0.157
-511.814	-61.105	0.081	0.034
-510.799	800.000	-0.036	0.113
-509.785	7.016	-0.317	-0.235
-508.770	-200.000	-0.013	-0.169
-507.756	-200.000	-0.323	0.000
-506.741	-200.000	0.003	0.142
-505.726	122.967	0.253	0.315
-504.712	94.320	0.207	-0.234
-503.697	146.879	-0.175	0.234
-502.683	602.988	-0.089	-0.220
-501.668	-57.865	0.214	-0.093
-500.653	492.172	0.101	0.230
-499.639	444.753	-0.052	-0.113
-498.624	-97.705	-0.292	-0.075
-497.610	800.000	-0.119	0.351
-496.595	44.329	0.163	0.148
-495.581	800.000	0.026	-0.095
-494.566	-15.489	0.299	0.190
-493.551	-125.742	-0.271	-0.041
-492.537	5.589	-0.342	0.251
-491.522	-87.831	-0.125	0.037
-490.508	108.102	0.049	0.058
-489.493	15.139	-0.226	0.176
-488.478	634.642	-0.056	0.140
-487.464	-105.694	-0.336	-0.075
-486.449	-160.087	-0.118	-0.006
-485.435	-200.000	-0.024	0.168
-484.420	-167.495	-0.112	-0.004
-483.405	159.478	-0.124	-0.171
-482.391	-84.789	0.325	0.101
-481.376	-40.798	-0.277	0.142
-480.362	-105.793	-0.066	0.015
-479.347	86.416	0.370	0.404
-478.332	-54.850	-0.127	0.057
-477.318	-200.000	0.001	0.041
-476.303	31.856	-0.134	0.115
-475.289	-5.955	0.337	-0.229
-474.274	-108.707	0.205	-0.044
-473.259	221.879	-0.042	0.067
-472.245	-200.000	0.054	-0.251
-471.230	166.169	-0.118	-0.165
-470.216	-72.347	-0.313	-0.115
-469.201	-130.615	0.131	0.017
-468.186	-157.334	0.030	-0.002
-467.172	216.092	0.168	-0.264
-466.157	43.798	-0.282	0.256
-465.143	-147.497	-0.200	-0.017
-464.128	210.975	-0.051	-0.080
-463.113	-58.068	0.083	0.036
-462.099	-200.000	0.040	-0.209
-461.084	-31.957	0.354	-0.197
-460.070	340.763	-0.269	-0.521
-459.055	6.831	0.185	0.136
-458.040	184.681	0.043	-0.063
-457.026	-90.993	0.072	0.020
-456.011	-116.220	-0.300	0.055
-454.997	-123.466	-0.236	0.037
-453.982	96.413	0.085	-0.096
-452.968	-200.000	0.031	0.231
-451.953	20.942	-0.138	-0.111
-450.938	101.609	-0.230	-0.266
-449.924	14.582	-0.090	0.070
-448.909	230.105	-0.092	0.149
-447.895	221.139	-0.197	0.313
-446.880	-78.277	-0.235	-0.080
-445.865	493.798	-0.144	-0.328
-444.851	217.787	-0.067	0.106
-443.836	-18.037	-0.178	-0.110
-442.822	40.448	0.028	0.025
-441.807	-200.000	0.016	0.118
-440.792	3.780	0.299	-0.216
-439.778	132.943	0.168	-0.215
-438.763	397.675	0.068	0.141
-437.749	108.508	0.049	0.058
-436.734	267.468	-0.081	-0.141
-435.719	-103.615	0.263	-0.061
-434.705	-126.553	-0.194	-0.028
-433.690	-28.337	0.179	-0.103
-432.676	-39.621	0.092	0.048
-431.661	-135.448	-0.109	0.013
-430.646	7.017	0.077	0.057
-429.632	-5.906	0.148	0.100
-428.617	13.778	0.196	0.151
-427.603	-200.000	-0.016	-0.089
-426.588	800.000	0.056	-0.200
-425.573	800.000	0.026	-0.104
-424.559	210.990	-0.078	0.121
-423.544	-200.000	0.008	0.358
-422.530	-128.474	-0.132	0.019
-421.515	282.030	-0.122	0.217
-420.500	706.870	0.093	-0.242
-419.486	422.481	-0.020	-0.043
-418.471	-200.000	0.006	-0.049
-417.457	800.000	-0.032	0.130
-416.442	2.107	0.459	0.328
-415.428	-51.661	0.224	-0.103
-414.413	-200.000	0.027	-0.163
-413.398	-130.866	-0.123	-0.016
-412.384	-130.933	-0.209	-0.028
-411.369	552.662	-0.026	0.063
-410.355	-200.000	0.066	0.315
-409.340	-30.020	-0.133	-0.075
-408.325	25.376	-0.108	-0.089
-407.311	800.000	-0.039	-0.168
-406.296	-1.575	0.102	0.071
-405.282	207.226	-0.064	-0.098
-404.267	-200.000	-0.001	0.212
-403.252	47.757	0.241	-0.222
-402.238	148.575	-0.088	0.117
-401.223	-115.287	0.129	0.024
-400.209	-27.235	0.261	0.151
-399.194	-101.413	-0.168	0.040
-398.179	800.000	-0.026	0.101
-397.165	706.339	0.084	-0.220
-396.150	800.000	0.041	-0.116
-395.136	-36.605	-0.173	0.092
-394.121	-97.622	0.298	-0.076
-393.106	-13.831	0.117	-0.075
-392.092	727.842	-0.083	0.218
-391.077	88.155	0.168	0.184
-390.063	-1.075	0.435	0.304
-389.048	-20.779	0.232	0.141
-388.033	800.000	0.093	-0.255
-387.019	13.759	-0.262	0.202
-386.004	17.057	0.092	-0.072
-384.990	-143.967	-0.219	0.020
-383.975	800.000	-0.044	0.184
-382.960	84.927	-0.149	0.162
-381.946	-200.000	-0.028	0.239
-380.931	108.415	-0.034	-0.040
-379.917	800.000	-0.127	-0.364
-378.902	-200.000	0.004	0.103
-377.888	172.551	0.039	0.056
-376.873	45.322	-0.121	-0.110
-375.858	-25.990	0.189	0.110
-374.844	172.462	-0.139	-0.197
-373.829	-200.000	-0.018	0.141
-372.815	-165.720	0.195	0.008
-371.800	-200.000	0.005	0.151
-370.785	567.492	0.064	-0.155
-369.771	-200.000	0.041	0.217
-368.756	-64.654	0.140	0.056
-367.742	-59.644	0.323	0.137
-366.727	26.065	0.291	0.240
-365.712	800.000	0.146	-0.475
-364.698	-84.003	0.211	-0.066
-363.683	-97.279	-0.142	-0.037
-362.669	800.000	0.111	-0.389
-361.654	55.445	-0.128	-0.122
-360.639	-155.618	-0.439	-0.028
-359.625	800.000	0.141	0.422
-358.610	100.003	-0.286	0.327
-357.596	-84.367	0.071	0.022
-356.581	-200.000	-0.005	-0.036
-355.566	4.243	-0.074	0.054
-354.552	25.977	0.127	-0.105
-353.537	37.119	0.095	-0.083
-352.523	-51.285	-0.114	-0.053
-351.508	-88.789	-0.362	-0.106
-350.493	-73.956	-0.115	0.041
-349.479	39.912	0.259	-0.229
-348.464	610.414	-0.107	0.263
-347.450	-200.000	0.026	0.208
-346.435	4.855	0.197	-0.143
-345.420	-200.000	-0.021	0.108
-344.406	-125.098	-0.286	0.043
-343.391	-91.350	0.191	-0.054
-342.377	44.176	0.021	-0.019
-341.362	13.546	-0.105	0.081
-340.348	800.000	-0.079	0.271
-339.333	-200.000	-0.027	0.147
-338.318	-200.000	-0.051	-0.331
-337.304	-161.574	0.208	0.011
-336.289	13.518	0.245	-0.188
-335.275	-98.836	0.370	-0.093
-334.260	800.000	-0.124	0.412
-333.245	329.950	-0.079	0.151
-332.231	452.491	0.068	0.148
-331.216	751.937	-0.098	-0.260
-330.202	407.702	0.221	0.462
-329.187	267.535	0.160	-0.277
-328.172	-141.602	0.152	-0.015
-327.158	127.594	-0.180	0.225
-326.143	8.785	-0.135	0.101
-325.129	-200.000	-0.010	0.159
-324.114	-147.816	-0.324	0.027
-323.099	800.000	-0.069	0.237
-322.085	133.017	-0.014	0.017
-321.070	131.948	-0.040	-0.051
-320.056	-92.925	0.439	0.121
-319.041	474.207	-0.073	0.163
-318.026	-23.254	-0.105	-0.062
-317.012	95.758	-0.137	0.154
-315.997	11.621	-0.483	0.365
-314.983	-85.773	-0.065	0.020
-313.968	800.000	0.006	-0.026
-312.953	-77.421	0.285	0.098
-311.939	-156.490	-0.094	-0.006
-310.924	282.219	0.163	0.289
-309.910	-200.000	-0.017	0.115
-308.895	278.829	-0.149	0.262
-307.880	-200.000	-0.005	0.075
-306.866	-132.684	0.189	-0.024
-305.851	69.928	-0.099	0.101
-304.837	613.739	0.101	-0.250
-303.822	180.272	0.188	0.272
-302.807	800.000	-0.091	0.356
-301.793	-136.088	-0.449	-0.052
-300.778	-200.000	0.016	-0.157
-299.764	-114.517	0.260	-0.049
-298.749	-29.059	-0.349	-0.197
-297.735	-197.826	0.497	-0.003
-296.720	-200.000	0.028	0.650
-295.705	66.130	0.083	0.083
-294.691	-122.926	0.213	-0.034
-293.676	-60.331	0.420	0.176
-292.662	-200.000	-0.037	0.278
-291.647	-91.219	0.076	0.022
-290.632	-79.375	-0.143	-0.048
-289.618	390.641	-0.143	0.293
-288.603	-92.335	-0.209	-0.058
-287.589	618.570	-0.107	-0.265
-286.574	-143.341	-0.265	0.025
-285.559	-200.000	-0.004	-0.082
-284.545	130.893	-0.223	-0.282
-283.530	-200.000	-0.044	0.342
-282.516	765.289	0.052	-0.138
-281.501	0.359	0.121	0.085
-280.486	800.000	0.084	-0.271
-279.472	395.549	0.126	0.258
-278.457	16.938	0.329	-0.256
-277.443	-110.601	-0.433	-0.088
-276.428	340.280	0.049	-0.093
-275.413	178.490	0.080	-0.115
-274.399	-81.949	0.150	-0.048
-273.384	153.687	-0.179	0.241
-272.370	-129.519	0.024	0.003
-271.355	0.335	0.130	-0.091
-270.340	-75.203	0.044	-0.015
-269.326	-200.000	0.018	0.148
-268.311	306.221	-0.047	-0.085
-267.297	-200.000	0.017	-0.276
-266.282	15.800	-0.095	-0.074
-265.267	144.655	0.171	0.225
-264.253	-200.000	0.013	-0.074
-263.238	30.995	-0.222	-0.187
-262.224	-63.135	0.228	0.092
-261.209	-200.000	0.012	0.072
-260.195	-114.430	-0.168	0.032
-259.180	776.515	-0.166	0.445
-258.165	6.254	-0.058	0.042
-257.151	-76.944	0.330	0.113
-256.136	800.000	0.080	0.227
-255.122	-200.000	0.038	-0.297
-254.107	-57.550	0.189	0.082
-253.092	235.502	-0.108	-0.176
-252.078	24.074	0.232	-0.188
-251.063	-133.483	0.079	-0.010
-250.049	-200.000	-0.033	-0.144
-249.034	800.000	-0.090	0.264
-248.019	42.697	-0.148	0.132
-247.005	800.000	0.083	-0.233
-245.990	-68.740	-0.157	-0.060
-244.976	-200.000	-0.039	0.173
-243.961	515.983	-0.083	0.190
-242.946	227.506	0.144	-0.231
-241.932	-72.624	-0.129	0.047
-240.917	-71.932	0.304	-0.111
-239.903	-30.803	-0.160	0.089
-238.888	-200.000	0.019	-0.240
-237.873	-31.885	-0.483	-0.266
-236.859	-134.103	-0.143	-0.017
-235.844	-145.666	-0.177	-0.016
-234.830	632.135	0.158	-0.393
-233.815	156.041	0.284	0.385
-232.800	288.746	-0.119	0.213
-231.786	406.608	-0.227	-0.470
-230.771	-22.648	-0.313	0.186
-229.757	-47.915	-0.107	0.051
-228.742	654.766	0.139	0.350
-227.727	800.000	0.021	-0.067
-226.713	-105.402	0.167	-0.037
-225.698	350.269	-0.072	0.140
-224.684	-102.877	0.123	0.029
-223.669	610.889	0.111	0.272
-222.655	-200.000	0.018	0.171
-221.640	800.000	-0.044	-0.124
-220.625	-84.356	-0.116	-0.036
-219.611	33.958	0.222	-0.190
-218.596	364.202	-0.036	-0.072
-217.582	800.000	-0.109	-0.298
-216.567	345.290	-0.177	0.342
-215.552	24.273	0.127	0.103
-214.538	-102.107	0.210	-0.050
-213.523	-105.034	-0.434	0.098
-212.509	10.240	-0.129	0.096
-211.494	176.380	0.074	-0.105
-210.479	800.000	0.064	-0.176
-209.465	234.413	0.055	-0.089
-208.450	254.942	0.023	0.039
-207.436	-99.995	-0.024	0.006
-206.421	-24.319	-0.107	-0.063
-205.406	-105.670	0.183	-0.041
-204.392	-136.293	0.265	-0.030
-203.377	800.000	-0.084	-0.234
-202.363	703.874	-0.126	0.327
-201.348	-200.000	-0.009	-0.196
-200.333	-105.606	-0.177	0.039
-199.319	-32.258	0.209	0.115
-198.304	-200.000	-0.024	-0.186
-197.290	662.008	-0.099	0.251
-196.275	-200.000	-0.017	0.125
-195.260	267.857	-0.006	0.011
-194.246	-98.698	-0.128	0.032
-193.231	-88.011	-0.210	0.062
-192.217	-120.739	0.203	-0.034
-191.202	-12.187	-0.323	-0.208
-190.187	-59.869	0.265	0.111
-189.173	800.000	0.144	0.436
-188.158	-200.000	0.025	-0.308
-187.144	-90.812	0.104	-0.030
-186.129	-105.304	-0.167	-0.037
-185.114	-6.903	-0.314	0.210
-184.100	49.605	0.189	-0.175
-183.085	800.000	-0.016	0.063
-182.071	-200.000	-0.023	0.127
-181.056	-200.000	0.033	-0.172
-180.042	800.000	0.114	-0.365
-179.027	7.497	0.115	-0.084
-178.012	-0.088	-0.213	-0.149
-176.998	-134.710	0.253	0.030
-175.983	-107.122	0.240	-0.052
-174.969	-6.170	0.283	0.189
-173.954	408.995	-0.124	0.257
-172.939	186.878	-0.070	-0.102
-171.925	-200.000	-0.038	0.458
-170.910	-127.630	0.266	0.038
-169.896	-54.851	0.172	-0.076
-168.881	-84.044	0.316	-0.098
-167.866	-88.146	-0.168	-0.049
-166.852	84.142	0.088	-0.094
-165.837	-200.000	0.003	0.076
-164.823	-118.070	-0.346	-0.061
-163.808	387.160	-0.099	0.201
-162.793	-200.000	-0.020	-0.112
-161.779	270.944	0.116	-0.200
-160.764	216.069	0.035	0.054
-159.750	-11.978	-0.099	-0.064
-158.735	176.702	0.188	-0.268
-157.720	508.030	-0.134	0.305
-156.706	59.813	-0.218	0.211
-155.691	800.000	-0.038	0.122
-154.677	415.121	-0.144	-0.300
-153.662	-70.845	-0.337	-0.124
-152.647	14.522	-0.270	0.206
-151.633	-200.000	-0.009	-0.107
-150.618	29.154	0.030	0.025
-149.604	546.531	0.085	0.198
-148.589	-86.708	-0.294	-0.088
-147.574	-200.000	-0.046	-0.249
-146.560	37.581	-0.196	0.170
-145.545	58.590	0.182	-0.175
-144.531	-200.000	0.002	0.204
-143.516	-200.000	0.035	-0.267
-142.502	314.245	-0.064	-0.119
-141.487	17.670	0.476	0.370
-140.472	-200.000	-0.009	-0.094
-139.458	-200.000	-0.044	0.241
-138.443	70.844	-0.064	-0.065
-137.429	-131.837	-0.107	0.014
-136.414	316.093	-0.092	-0.170
-135.399	84.026	0.036	-0.039
-134.385	-200.000	-0.017	0.122
-133.370	-200.000	0.015	0.157
-132.356	91.343	-0.098	0.108
-131.341	-110.239	-0.200	-0.041
-130.326	177.802	0.203	0.289
-129.312	-67.103	-0.058	0.022
-128.297	32.358	-0.245	-0.207
-127.283	94.192	0.031	-0.034
-126.268	-48.408	-0.199	-0.094
-125.253	-200.000	0.003	0.102
-124.239	523.465	0.041	-0.094
-123.224	-35.685	-0.179	-0.095
-122.210	-36.890	0.083	0.044
-121.195	-101.084	0.273	-0.065
-120.180	133.495	-0.084	-0.107
-119.166	800.000	-0.063	-0.223
-118.151	-51.528	-0.136	0.062
-117.137	59.586	0.127	0.122
-116.122	-103.351	0.171	0.039
-115.107	-123.971	-0.395	-0.061
-114.093	-27.995	0.137	0.078
-113.078	79.022	-0.100	-0.105
-112.064	361.220	0.056	-0.109
-111.049	83.527	0.152	0.162
-110.034	32.980	-0.544	0.461
-109.020	105.320	0.170	-0.196
-108.005	465.489	0.070	0.153
-106.991	800.000	0.059	0.209
-105.976	28.940	-0.279	0.232
-104.962	69.954	-0.117	-0.118
-103.947	-200.000	0.010	-0.316
-102.932	289.931	0.020	0.036
-101.918	-200.000	-0.001	0.112
-100.903	-200.000	0.019	-0.170
-99.889	369.643	0.095	0.188
-98.874	374.287	-0.075	0.149
-97.859	-78.404	0.132	0.044
-96.845	800.000	0.111	-0.421
-95.830	42.876	-0.358	0.319
-94.816	333.824	-0.066	0.126
-93.801	-200.000	-0.024	-0.119
-92.786	-200.000	0.007	0.098
-91.772	392.638	-0.009	-0.019
-90.757	108.192	-0.174	0.203
-89.743	118.961	-0.297	0.359
-88.728	-149.144	0.222	0.017
-87.713	-115.821	0.277	0.051
-86.699	-82.925	0.452	0.142
-85.684	-148.922	0.195	0.015
-84.670	199.215	-0.057	-0.086
-83.655	-200.000	0.001	0.042
-82.640	-122.931	-0.233	0.037
-81.626	-36.595	-0.251	-0.132
-80.611	-53.625	0.249	0.111
-79.597	-200.000	0.016	-0.154
-78.582	321.768	-0.177	-0.330
-77.567	-2.793	-0.392	0.268
-76.553	23.149	0.282	-0.226
-75.538	-6.535	-0.203	-0.135
-74.524	-200.000	0.053	0.286
-73.509	-140.127	-0.338	0.035
-72.494	-200.000	-0.022	-0.144
-71.480	-104.613	-0.371	-0.084
-70.465	-181.977	-0.337	0.006
-69.451	10.260	0.189	0.141
-68.436	-81.768	0.279	0.089
-67.422	86.703	-0.176	-0.190
-66.407	-156.903	0.220	0.013
-65.392	-10.815	0.130	0.084
-64.378	-200.000	0.024	-0.196
-63.363	155.695	-0.046	0.061
-62.349	-99.627	0.303	-0.074
-61.334	-9.162	-1.397	-0.912
-60.319	109.075	0.636	0.743
-59.305	800.000	-0.357	-1.443
-58.290	756.363	0.554	1.464
-57.276	603.051	0.651	1.581
-56.261	-200.000	133.607	667.067
-55.246	324.645	1681.743	3135.848
-54.232	129.977	2832.484	3537.221
-53.217	79.183	2365.384	2473.492
-52.203	27.376	2099.453	1722.093
-51.188	22.535	2015.726	1609.255
-50.173	21.407	2001.525	1587.614
-49.159	39.892	2079.880	1822.250
-48.144	37.607	2089.852	1809.700
-47.130	22.989	2040.674	1633.104
-46.115	20.855	2029.891	1604.780
-45.100	20.750	2027.063	1601.508
-44.086	20.691	2024.513	1598.892
-43.071	20.690	2021.741	1596.627
-42.057	20.577	2020.323	1594.409
-41.042	20.632	2018.218	1593.190
-40.027	20.600	2016.257	1591.288
-39.013	20.641	2014.607	1590.292
-37.998	20.678	2012.409	1588.830
-36.984	20.703	2011.194	1588.038
-35.969	20.640	2009.102	1585.746
-34.954	20.632	2007.859	1584.637
-33.940	20.675	2006.023	1583.517
-32.925	20.667	2004.677	1582.314
-31.911	20.717	2002.600	1581.070
-30.896	20.709	2001.129	1579.773
-29.881	20.782	1999.271	1578.902
-28.867	20.795	1998.058	1577.998
-27.852	20.804	1995.978	1576.380
-26.838	20.809	1993.831	1574.664
-25.823	20.710	1992.976	1573.027
-24.809	20.846	1990.325	1572.105
-23.794	20.827	1989.006	1570.831
-22.779	20.788	1987.336	1569.097
-21.765	20.737	1985.650	1567.244
-20.750	20.781	1983.400	1565.796
-19.736	20.789	1982.225	1564.879
-18.721	20.843	1981.078	1564.402
-17.706	20.828	1979.151	1562.679
-16.692	20.752	1977.464	1560.604
-15.677	20.750	1975.827	1559.231
-14.663	20.828	1974.221	1558.608
-13.648	20.765	1973.022	1557.029
-12.633	20.732	1972.082	1555.934
-11.619	20.725	1971.179	1555.099
-10.604	20.810	1968.836	1553.948
-9.590	20.755	1967.801	1552.578
-8.575	20.785	1966.423	1551.693
-7.560	20.789	1965.191	1550.696
-6.546	20.831	1963.484	1549.663
-5.531	20.812	1962.442	1548.610
-4.517	20.740	1961.622	1547.260
-3.502	20.678	1960.899	1546.077
-2.487	20.760	1959.298	1545.479
-1.473	20.752	1958.159	1544.450
-0.458	20.862	1953.020	1541.305
0.556	19.677	1933.461	1515.247
1.571	15.836	1915.308	1467.465
2.586	12.319	1940.883	1455.801
3.600	11.495	1976.914	1475.253
4.615	11.633	1969.380	1470.741
5.629	9.193	1867.663	1373.813
6.644	3.704	1755.409	1246.912
7.659	0.848	1723.570	1201.529
8.673	0.592	1721.364	1197.853
9.688	0.675	1719.701	1197.251
10.702	0.603	1718.310	1195.601
11.717	0.430	1714.010	1191.144
12.731	0.826	1712.252	1192.933
13.746	4.998	1721.116	1232.025
14.761	11.635	1735.194	1294.720
15.775	15.975	1742.884	1334.806
16.790	16.985	1743.736	1343.335
17.804	16.113	1741.054	1334.259
18.819	15.282	1737.083	1324.533
19.834	14.688	1734.663	1317.887
20.848	14.413	1733.313	1314.571
21.863	14.127	1732.067	1311.257
22.877	13.898	1730.498	1308.151
23.892	13.648	1728.795	1304.775
24.907	13.501	1727.814	1302.767
25.921	13.497	1726.522	1301.645
26.936	13.484	1725.398	1300.581
27.950	13.538	1724.592	1300.279
28.965	13.607	1723.944	1300.217
29.980	13.623	1723.169	1299.646
30.994	13.696	1722.007	1299.223
32.009	13.761	1721.106	1298.936
33.023	13.716	1720.555	1298.053
34.038	13.748	1719.804	1297.624
35.053	13.756	1718.512	1296.595
36.067	13.730	1717.279	1295.352
37.082	13.764	1716.086	1294.604
38.096	13.768	1714.935	1293.653
39.111	13.650	1714.441	1292.246
40.126	13.675	1713.863	1291.888
41.140	13.691	1712.285	1290.710
42.155	13.661	1711.253	1289.583
43.169	13.648	1709.577	1288.102
44.184	13.555	1708.677	1286.587
45.199	13.606	1706.846	1285.496
46.213	13.514	1706.469	1284.380
47.228	13.517	1705.031	1283.211
48.242	13.612	1703.570	1282.735
49.257	13.613	1702.758	1282.017
50.271	13.610	1701.179	1280.690
51.286	13.596	1699.820	1279.445
52.301	13.628	1698.750	1278.775
53.315	13.670	1697.051	1277.704
54.330	13.639	1695.235	1275.985
55.344	13.542	1693.844	1274.078
56.359	13.539	1692.977	1273.293
57.374	13.590	1691.632	1272.556
58.388	13.518	1690.752	1271.232
59.403	13.493	1688.839	1269.491
60.417	13.577	1686.984	1268.629
61.432	13.490	1686.392	1267.401
62.447	13.543	1684.855	1266.540
63.461	13.455	1683.908	1265.047
64.476	13.420	1682.678	1263.743
65.490	13.414	1681.475	1262.679
66.505	13.466	1680.436	1262.183
67.520	13.475	1678.882	1260.974
68.534	13.510	1677.876	1260.372
69.549	13.561	1676.710	1259.774
70.563	13.476	1675.630	1258.202
71.578	13.533	1674.025	1257.320
72.593	13.478	1673.401	1256.322
73.607	13.444	1672.129	1255.001
74.622	13.427	1670.804	1253.764
75.636	13.424	1669.790	1252.870
76.651	13.424	1668.871	1252.068
77.666	13.442	1668.384	1251.733
78.680	13.426	1667.250	1250.651
79.695	13.407	1666.146	1249.567
80.709	13.455	1664.995	1248.958
81.724	13.471	1663.808	1248.073
82.739	13.479	1663.257	1247.612
83.753	13.521	1662.380	1247.162
84.768	13.590	1661.348	1246.790
85.782	13.592	1660.433	1246.014
86.797	13.627	1659.538	1245.493
87.812	13.721	1658.287	1245.148
88.826	13.664	1657.029	1243.670
89.841	13.548	1656.184	1242.052
90.855	13.690	1654.163	1241.488
91.870	13.625	1653.490	1240.389
92.884	13.663	1652.836	1240.073
93.899	13.653	1651.710	1239.040
94.914	13.600	1650.877	1237.913
95.928	13.687	1649.396	1237.343
96.943	13.752	1647.606	1236.372
97.957	13.715	1646.541	1235.192
98.972	13.729	1645.040	1234.056
99.987	13.640	1643.322	1232.000
101.001	13.707	1641.937	1231.351
102.016	13.717	1640.545	1230.273
103.030	13.729	1639.096	1229.164
104.045	13.617	1638.060	1227.453
105.060	13.671	1636.149	1226.308
106.074	13.663	1634.954	1225.245
107.089	13.673	1633.186	1223.884
108.103	13.586	1631.806	1222.105
109.118	13.519	1630.397	1220.445
110.133	13.499	1629.150	1219.257
111.147	13.546	1627.727	1218.426
112.162	13.540	1626.477	1217.340
113.176	13.513	1625.085	1215.992
114.191	13.652	1623.330	1215.590
115.206	13.584	1622.251	1214.179
116.220	13.593	1620.951	1213.163
117.235	13.641	1619.453	1212.287
118.249	13.578	1618.260	1210.827
119.264	13.618	1616.962	1210.038
120.279	13.590	1615.772	1208.838
121.293	13.595	1614.099	1207.514
122.308	13.611	1612.203	1206.104
123.322	13.661	1610.548	1205.124
124.337	13.637	1609.096	1203.755
125.352	13.546	1607.862	1202.068
126.366	13.458	1607.577	1201.111
127.381	13.515	1606.227	1200.412
128.395	13.579	1604.434	1199.424
129.410	13.492	1603.273	1197.821
130.424	13.547	1601.635	1196.892
131.439	13.494	1600.399	1195.476
132.454	13.608	1598.884	1195.062
133.468	13.547	1597.177	1193.241
134.483	13.658	1595.505	1192.685
135.497	13.597	1594.292	1191.232
136.512	13.602	1592.783	1190.039
137.527	13.546	1592.109	1189.027
138.541	13.557	1590.330	1187.674
139.556	13.594	1589.077	1186.896
140.570	13.700	1587.491	1186.363
141.585	13.737	1585.826	1185.278
142.600	13.745	1584.467	1184.213
143.614	13.699	1583.668	1183.183
144.629	13.734	1582.309	1182.316
145.643	13.835	1580.925	1181.893
146.658	13.843	1579.565	1180.832
147.673	13.848	1577.789	1179.438
148.687	13.785	1576.595	1177.990
149.702	13.808	1575.413	1177.168
150.716	13.753	1573.173	1175.000
151.731	13.803	1572.182	1174.509
152.746	13.771	1571.129	1173.392
153.760	13.776	1569.506	1172.115
154.775	13.791	1568.043	1171.025
155.789	13.808	1566.673	1170.015
156.804	13.836	1565.874	1169.512
157.819	13.937	1564.416	1169.031
158.833	13.903	1563.078	1167.690
159.848	13.934	1561.763	1166.819
160.862	13.988	1560.480	1166.141
161.877	14.038	1559.134	1165.377
162.892	14.017	1557.699	1164.055
163.906	13.975	1556.589	1162.827
164.921	13.847	1555.310	1160.879
165.935	13.953	1554.037	1160.562
166.950	13.969	1553.089	1159.865
167.964	13.959	1551.683	1158.644
168.979	13.987	1550.711	1158.007
169.994	14.088	1549.190	1157.476
171.008	13.953	1548.599	1155.992
172.023	14.029	1547.795	1155.814
173.037	13.978	1546.383	1154.303
174.052	14.050	1545.187	1153.809
175.067	14.125	1544.246	1153.527
176.081	14.009	1543.260	1151.887
177.096	13.967	1541.921	1150.493
178.110	13.913	1540.555	1148.998
179.125	14.072	1539.083	1148.897
180.140	13.955	1538.038	1147.209
181.154	14.086	1537.069	1147.288
182.169	14.103	1535.775	1146.340
183.183	14.092	1534.688	1145.351
184.198	14.181	1532.970	1144.577
185.213	14.227	1532.345	1144.327
186.227	14.244	1530.919	1143.274
187.242	14.197	1530.407	1142.469
188.256	14.314	1528.941	1142.076
189.271	14.226	1528.356	1140.936
190.286	14.318	1526.726	1140.246
191.300	14.242	1526.433	1139.406
192.315	14.213	1524.362	1137.565
193.329	14.171	1523.276	1136.367
194.344	14.098	1522.497	1135.185
195.359	14.128	1521.331	1134.417
196.373	14.185	1520.403	1134.013
197.388	14.196	1519.277	1133.154
198.402	14.282	1517.996	1132.683
199.417	14.378	1516.260	1131.936
200.432	14.356	1515.713	1131.278
201.446	14.471	1514.560	1131.099
202.461	14.427	1513.584	1129.972
203.475	14.522	1511.926	1129.276
204.490	14.477	1510.786	1128.017
205.504	14.496	1509.449	1127.049
206.519	14.510	1508.632	1126.439
207.534	14.495	1506.796	1124.866
208.548	14.504	1505.696	1124.007
209.563	14.403	1505.269	1122.906
210.577	14.501	1504.079	1122.581
211.592	14.503	1503.072	1121.741
212.607	14.555	1502.656	1121.683
213.621	14.622	1501.812	1121.404
214.636	14.591	1500.876	1120.396
215.650	14.632	1499.398	1119.471
216.665	14.620	1498.763	1118.815
217.680	14.615	1497.798	1117.964
218.694	14.702	1497.157	1117.966
219.709	14.685	1496.669	1117.387
220.723	14.750	1494.735	1116.279
221.738	14.789	1494.206	1116.048
222.753	14.678	1493.382	1114.591
223.767	14.701	1491.836	1113.493
224.782	14.781	1491.076	1113.358
225.796	14.751	1490.420	1112.576
226.811	14.777	1489.275	1111.791
227.826	14.746	1488.937	1111.233
228.840	14.854	1487.574	1110.841
229.855	14.783	1486.874	1109.743
230.869	14.772	1485.687	1108.686
231.884	14.788	1484.599	1107.884
232.899	14.868	1483.435	1107.447
233.913	14.801	1482.413	1106.140
234.928	14.784	1481.489	1105.246
235.942	14.740	1480.085	1103.809
236.957	14.690	1478.937	1102.523
237.972	14.808	1477.758	1102.322
238.986	14.844	1476.277	1101.358
240.001	14.751	1475.556	1100.114
241.015	14.883	1473.969	1099.701
242.030	14.893	1472.956	1098.909
243.045	14.883	1472.154	1098.151
244.059	14.880	1471.472	1097.528
245.074	14.947	1470.402	1097.067
246.088	14.952	1469.960	1096.676
247.103	15.023	1468.912	1096.260
248.117	15.005	1467.603	1095.069
249.132	14.995	1467.409	1094.766
250.147	15.146	1466.774	1095.181
251.161	15.204	1465.547	1094.547
252.176	15.222	1464.914	1094.092
253.190	15.168	1464.431	1093.286
254.205	15.221	1463.314	1092.700
255.220	15.235	1462.342	1091.971
256.234	15.324	1461.309	1091.680
257.249	15.255	1460.982	1090.889
258.263	15.280	1459.940	1090.178
259.278	15.321	1459.106	1089.724
260.293	15.400	1457.716	1089.101
261.307	15.425	1457.201	1088.785
262.322	15.353	1457.053	1088.109
263.336	15.373	1455.398	1086.910
264.351	15.425	1454.279	1086.310
265.366	15.451	1453.478	1085.784
266.380	15.449	1452.482	1084.936
267.395	15.402	1451.604	1083.875
268.409	15.491	1450.223	1083.327
269.424	15.519	1449.370	1082.774
270.439	15.404	1448.652	1081.396
271.453	15.460	1447.648	1080.913
272.468	15.612	1446.654	1081.057
273.482	15.539	1445.660	1079.746
274.497	15.478	1445.037	1078.794
275.512	15.547	1444.043	1078.401
276.526	15.550	1442.739	1077.350
277.541	15.554	1441.943	1076.684
278.555	15.625	1440.939	1076.295
279.570	15.530	1440.469	1075.238
280.585	15.528	1439.699	1074.560
281.599	15.662	1438.783	1074.636
282.614	15.713	1437.626	1074.003
283.628	15.750	1436.445	1073.261
284.643	15.695	1435.098	1071.806
285.657	15.684	1434.145	1070.929
286.672	15.643	1433.698	1070.243
287.687	15.651	1432.723	1069.471
288.701	15.763	1431.064	1068.852
289.716	15.687	1430.714	1068.010
290.730	15.651	1430.086	1067.220
291.745	15.782	1428.269	1066.597
292.760	15.743	1427.855	1065.950
293.774	15.749	1426.928	1065.202
294.789	15.761	1425.965	1064.464
295.803	15.834	1425.094	1064.181
296.818	15.859	1423.973	1063.406
297.833	15.858	1423.108	1062.659
298.847	15.885	1422.095	1061.983
299.862	15.760	1421.111	1060.365
300.876	15.855	1419.913	1059.972
301.891	16.004	1419.206	1060.288
302.906	15.947	1418.411	1059.244
303.920	16.002	1417.534	1058.843
304.935	16.001	1416.601	1058.047
305.949	16.083	1415.632	1057.741
306.964	16.080	1415.234	1057.332
307.979	16.113	1414.258	1056.714
308.993	16.082	1413.137	1055.592
310.008	16.079	1412.049	1054.664
311.022	16.071	1411.191	1053.881
312.037	16.149	1410.129	1053.482
313.052	16.152	1409.121	1052.656
314.066	16.169	1408.036	1051.860
315.081	16.132	1407.013	1050.766
316.095	16.125	1406.194	1050.022
317.110	16.104	1405.507	1049.282
318.125	16.070	1404.247	1048.038
319.139	16.019	1403.653	1047.184
320.154	16.121	1402.581	1046.927
321.168	16.164	1401.357	1046.186
322.183	16.108	1400.441	1045.067
323.197	16.115	1399.257	1044.132
324.212	16.237	1398.698	1044.379
325.227	16.258	1397.332	1043.397
326.241	16.043	1396.746	1041.538
327.256	16.200	1395.501	1041.484
328.270	16.312	1394.691	1041.481
329.285	16.339	1393.742	1040.846
330.300	16.279	1392.845	1039.715
331.314	16.285	1391.927	1038.970
332.329	16.301	1390.965	1038.263
333.343	16.268	1390.213	1037.407
334.358	16.276	1389.478	1036.813
335.373	16.254	1389.027	1036.250
336.387	16.359	1387.721	1035.828
337.402	16.435	1387.163	1035.789
338.416	16.295	1387.144	1034.822
339.431	16.435	1385.978	1034.717
340.446	16.517	1385.073	1034.452
341.460	16.396	1384.218	1032.984
342.475	16.458	1383.065	1032.408
343.489	16.606	1381.577	1032.109
344.504	16.522	1381.183	1031.210
345.519	16.490	1380.589	1030.485
346.533	16.548	1379.531	1029.953
347.548	16.648	1378.316	1029.563
348.562	16.682	1377.304	1028.926
349.577	16.720	1376.987	1028.829
350.592	16.725	1375.873	1027.937
351.606	16.730	1374.980	1027.207
352.621	16.568	1374.306	1025.630
353.635	16.729	1372.762	1025.362
354.650	16.592	1372.449	1024.209
355.665	16.592	1370.916	1022.974
356.679	16.668	1369.554	1022.324
357.694	16.781	1368.431	1022.077
358.708	16.756	1367.264	1020.967
359.723	16.716	1366.642	1020.173
360.738	16.698	1366.183	1019.629
361.752	16.674	1364.870	1018.415
362.767	16.837	1363.161	1018.029
363.781	16.875	1362.216	1017.464
364.796	16.855	1361.850	1016.980
365.810	16.796	1360.753	1015.718
366.825	16.918	1360.308	1016.023
367.840	16.970	1359.365	1015.543
368.854	16.905	1358.779	1014.625
369.869	16.856	1358.296	1013.883
370.883	16.938	1357.621	1013.775
371.898	17.066	1356.685	1013.756
372.913	17.014	1356.077	1012.902
373.927	16.905	1354.876	1011.261
374.942	16.966	1354.540	1011.288
375.956	17.144	1353.133	1011.204
376.971	17.071	1352.752	1010.400
377.986	17.141	1351.709	1009.944
379.000	17.088	1350.692	1008.779
380.015	17.298	1349.835	1009.297
381.029	17.241	1349.044	1008.278
382.044	17.106	1348.781	1007.191
383.059	17.189	1347.949	1006.974
384.073	17.218	1347.663	1006.844
385.088	17.244	1346.568	1006.090
386.102	17.218	1345.596	1005.122
387.117	17.248	1345.376	1005.044
388.132	17.318	1344.510	1004.721
389.146	17.274	1343.525	1003.640
390.161	17.265	1342.489	1002.720
391.175	17.294	1341.751	1002.251
392.190	17.311	1341.097	1001.774
393.205	17.234	1340.410	1000.721
394.219	17.414	1339.064	1000.687
395.234	17.340	1337.930	999.317
396.248	17.417	1336.766	998.807
397.263	17.324	1335.259	997.051
398.278	17.363	1334.042	996.285
399.292	17.323	1332.702	994.957
400.307	17.383	1331.718	994.489
401.321	17.378	1330.862	993.733
402.336	17.377	1329.847	992.881
403.350	17.364	1328.503	991.711
404.365	17.453	1327.702	991.548
405.380	17.395	1326.759	990.417
406.394	17.396	1325.673	989.523
407.409	17.533	1325.279	989.938
408.423	17.597	1324.404	989.565
409.438	17.606	1324.115	989.319
410.453	17.563	1322.944	988.106
411.467	17.565	1322.248	987.512
412.482	17.733	1321.709	987.990
413.496	17.656	1321.391	987.221
414.511	17.710	1320.494	986.780
415.526	17.737	1319.124	985.820
416.540	17.737	1318.578	985.327
417.555	17.684	1318.102	984.574
418.569	17.659	1317.541	983.924
419.584	17.815	1316.752	984.153
420.599	17.815	1315.973	983.483
421.613	101.151	1364.800	1490.912
422.628	99.737	1371.850	1490.970
