DTS Sentinel unit serial number:	SN413079Multiplexer serial number:	ORYXHardware model number:	OX4-SRSoftware version number:	ORYX F/W v4.00 Oryx Data Collector v3.7.2.0data status	okinstallation	princeton_trtdifferential loss correction	single-endedforward channel	channel 4reverse channel	N/Adate	2019/09/13time	14:09:35forward acquisition time	60.00reverse acquisition time	0.00gamma	496.2192k internal	0.2295k external	0.2295temperature offset calibration	1.0211default loss term (dB/km)	0.3790temperature slope calibration	1.0000multiplexer offset coefficient	1.0000multiplexer slope coefficient	1.0000fibre end	0.00T internal ref (°C)	35.27T ext. ref 1 (°C)	4.62T ext. ref 2 (°C)	30.38length (m)	temperature (°C)	Stokes	anti-Stokes-747.200	128.461	0.272	-0.354
-746.185	30.769	-0.323	0.283
-745.171	-126.882	0.189	0.028
-744.156	248.409	-0.106	0.183
-743.142	391.634	0.060	-0.128
-742.127	800.000	-0.041	0.124
-741.112	-33.081	0.181	-0.103
-740.098	-45.908	-0.083	-0.042
-739.083	-44.894	0.244	-0.124
-738.069	800.000	0.082	0.338
-737.054	-200.000	-0.014	-0.089
-736.039	484.729	0.196	0.456
-735.025	-131.401	0.396	0.054
-734.010	291.806	0.122	-0.226
-732.996	629.288	0.036	-0.093
-731.981	-200.000	-0.007	-0.230
-730.966	800.000	-0.084	0.258
-729.952	60.685	0.131	-0.132
-728.937	-31.516	0.151	0.087
-727.923	800.000	0.110	-0.376
-726.908	203.660	-0.235	-0.372
-725.894	19.879	0.181	-0.149
-724.879	60.359	-0.048	-0.049
-723.864	291.853	-0.135	0.251
-722.850	98.608	-0.198	-0.233
-721.835	73.232	-0.199	0.212
-720.821	-200.000	-0.038	-0.363
-719.806	85.784	-0.224	0.251
-718.791	71.524	-0.157	0.167
-717.777	-200.000	0.021	0.383
-716.762	311.799	0.050	0.096
-715.748	-60.384	-0.208	0.090
-714.733	84.158	-0.055	-0.061
-713.718	104.319	-0.149	-0.179
-712.704	-43.254	0.082	-0.042
-711.689	480.038	-0.075	-0.172
-710.675	-22.088	0.134	0.083
-709.660	-200.000	-0.011	-0.115
-708.645	84.908	-0.086	0.097
-707.631	-148.501	-0.230	0.019
-706.616	-75.153	-0.161	0.059
-705.602	-94.884	0.145	0.040
-704.587	61.653	0.057	-0.058
-703.572	369.028	-0.045	0.094
-702.558	-99.094	0.145	0.037
-701.543	-117.012	0.231	0.043
-700.529	-186.933	-0.349	-0.005
-699.514	800.000	-0.020	0.060
-698.499	-145.688	0.176	-0.016
-697.485	144.897	0.144	0.197
-696.470	-200.000	-0.013	-0.437
-695.456	-161.896	0.395	0.020
-694.441	-200.000	-0.033	0.155
-693.426	306.798	0.096	-0.182
-692.412	467.207	-0.158	-0.361
-691.397	-144.977	0.109	-0.010
-690.383	-24.764	0.104	-0.063
-689.368	-94.262	0.242	-0.067
-688.354	88.106	-0.173	-0.196
-687.339	-39.177	0.181	-0.097
-686.324	39.984	-0.177	0.162
-685.310	800.000	-0.090	0.264
-684.295	800.000	0.136	-0.457
-683.281	-142.324	0.195	0.020
-682.266	-200.000	-0.014	0.174
-681.251	-67.781	0.172	0.069
-680.237	-61.207	0.252	-0.108
-679.222	-56.202	0.258	-0.117
-678.208	-120.686	-0.162	0.028
-677.193	674.989	-0.117	0.308
-676.178	-54.884	-0.123	0.056
-675.164	-127.735	0.196	0.029
-674.149	800.000	-0.013	-0.038
-673.135	-200.000	-0.037	-0.210
-672.120	-108.371	-0.335	0.074
-671.105	-95.045	-0.132	0.036
-670.091	-26.137	0.178	0.106
-669.076	-200.000	-0.010	0.175
-668.062	-41.026	-0.186	0.098
-667.047	204.426	0.251	-0.396
-666.032	122.789	-0.102	0.131
-665.018	-33.630	-0.235	-0.132
-664.003	-25.839	-0.229	0.137
-662.989	-36.355	0.134	-0.073
-661.974	800.000	0.070	-0.271
-660.959	-200.000	0.070	0.433
-659.945	-200.000	-0.008	-0.053
-658.930	-200.000	-0.026	-0.130
-657.916	3.970	0.160	0.119
-656.901	129.881	-0.149	-0.194
-655.886	-66.366	-0.191	0.077
-654.872	33.344	0.141	-0.125
-653.857	-200.000	-0.020	0.175
-652.843	97.207	-0.166	0.194
-651.828	91.032	-0.056	-0.064
-650.814	800.000	-0.049	0.167
-649.799	800.000	0.064	-0.280
-648.784	-88.825	0.174	0.053
-647.770	270.965	0.126	0.225
-646.755	284.438	-0.084	0.154
-645.741	-78.763	-0.269	0.093
-644.726	800.000	-0.016	0.059
-643.711	800.000	0.101	-0.349
-642.697	310.271	-0.132	0.252
-641.682	800.000	-0.101	-0.365
-640.668	-108.516	0.229	-0.050
-639.653	-63.619	0.180	0.075
-638.638	88.653	0.200	0.227
-637.624	2.003	-0.284	0.209
-636.609	84.247	0.224	-0.249
-635.595	-146.629	-0.382	-0.034
-634.580	86.820	-0.053	-0.060
-633.565	-38.124	-0.113	0.061
-632.551	-200.000	0.069	0.338
-631.536	-200.000	-0.020	0.286
-630.522	119.548	-0.325	-0.410
-629.507	-200.000	0.005	0.168
-628.492	599.118	0.041	0.104
-627.478	331.417	0.174	0.342
-626.463	215.851	-0.044	0.071
-625.449	10.766	-0.149	0.115
-624.434	274.481	-0.293	-0.528
-623.419	-20.605	-0.339	-0.212
-622.405	184.445	-0.237	-0.356
-621.390	71.057	-0.291	-0.307
-620.376	-46.433	-0.059	0.029
-619.361	800.000	-0.146	0.601
-618.346	800.000	-0.053	0.235
-617.332	-74.150	-0.101	0.037
-616.317	252.130	0.105	-0.182
-615.303	157.046	0.280	-0.394
-614.288	421.491	0.044	-0.095
-613.273	-122.739	0.055	0.009
-612.259	-22.764	-0.118	-0.073
-611.244	-200.000	0.032	0.264
-610.230	-65.660	-0.159	0.065
-609.215	293.681	-0.070	0.130
-608.201	537.275	-0.110	0.267
-607.186	-143.677	0.180	0.017
-606.171	219.102	0.098	-0.160
-605.157	120.870	-0.261	-0.330
-604.142	-126.970	0.062	-0.009
-603.128	530.369	-0.024	0.057
-602.113	-35.788	-0.288	0.159
-601.098	800.000	0.086	-0.340
-600.084	12.104	0.208	0.163
-599.069	-60.633	0.170	0.073
-598.055	-200.000	0.018	0.193
-597.040	-127.267	0.399	0.059
-596.025	-152.230	-0.318	0.023
-595.011	800.000	0.049	-0.148
-593.996	3.114	0.270	-0.199
-592.982	-94.635	0.210	-0.058
-591.967	-172.019	-0.448	0.015
-590.952	432.710	-0.061	0.133
-589.938	-124.343	0.347	0.055
-588.923	329.264	0.096	-0.187
-587.909	-2.078	0.326	-0.233
-586.894	318.137	0.041	-0.079
-585.879	800.000	0.053	0.168
-584.865	-133.422	0.298	-0.038
-583.850	-200.000	0.010	-0.107
-582.836	-36.304	0.438	-0.240
-581.821	800.000	-0.042	0.175
-580.806	800.000	-0.105	0.303
-579.792	210.302	0.106	0.169
-578.777	-200.000	-0.029	0.148
-577.763	377.788	0.014	0.029
-576.748	184.451	-0.073	-0.110
-575.733	-110.765	-0.412	-0.086
-574.719	-200.000	-0.010	-0.138
-573.704	-73.347	-0.228	-0.085
-572.690	189.653	0.092	0.139
-571.675	-97.141	0.092	0.024
-570.661	62.794	0.134	-0.136
-569.646	-200.000	-0.005	0.094
-568.631	596.728	0.080	-0.202
-567.617	366.648	-0.171	-0.349
-566.602	-200.000	0.015	-0.300
-565.588	-98.964	-0.299	-0.077
-564.573	-114.317	-0.390	-0.076
-563.558	-139.067	-0.080	-0.009
-562.544	-200.000	-0.047	0.476
-561.529	236.246	0.098	0.165
-560.515	-28.848	0.089	-0.052
-559.500	-18.055	-0.061	0.039
-558.485	393.521	-0.046	-0.097
-557.471	-17.568	0.144	-0.092
-556.456	651.357	-0.048	0.126
-555.442	-200.000	0.019	0.406
-554.427	-200.000	0.018	0.289
-553.412	-32.958	-0.186	0.105
-552.398	-200.000	-0.006	-0.184
-551.383	-7.194	0.265	0.182
-550.369	-129.698	-0.346	0.048
-549.354	55.502	-0.057	0.056
-548.339	-44.025	0.257	-0.131
-547.325	106.245	-0.155	0.186
-546.310	21.060	0.315	0.259
-545.296	-13.299	0.124	0.082
-544.281	35.664	-0.431	-0.384
-543.266	246.272	0.196	-0.336
-542.252	-200.000	0.003	-0.167
-541.237	-200.000	-0.004	0.030
-540.223	-65.797	-0.381	-0.154
-539.208	-49.834	-0.201	-0.097
-538.193	192.524	-0.144	-0.220
-537.179	109.267	0.178	-0.217
-536.164	800.000	0.060	-0.198
-535.150	-105.248	0.356	0.082
-534.135	-200.000	-0.020	0.138
-533.121	141.103	0.112	0.150
-532.106	5.113	0.223	0.166
-531.091	-25.243	0.024	0.014
-530.077	-46.769	0.184	0.091
-529.062	208.459	-0.103	-0.164
-528.048	-200.000	0.028	-0.357
-527.033	253.021	-0.213	-0.368
-526.018	800.000	-0.051	-0.188
-525.004	-39.802	0.106	0.056
-523.989	48.769	0.190	0.181
-522.975	-200.000	0.055	0.318
-521.960	264.095	0.111	0.195
-520.945	800.000	-0.058	-0.210
-519.931	35.714	-0.060	0.053
-518.916	12.446	0.135	-0.105
-517.902	1.312	-0.222	-0.162
-516.887	-39.850	0.110	0.058
-515.872	-109.512	0.073	0.016
-514.858	47.671	0.125	-0.118
-513.843	123.811	-0.154	0.195
-512.829	-52.443	0.266	-0.124
-511.814	-87.560	-0.391	0.120
-510.799	800.000	0.069	0.219
-509.785	-113.610	0.313	0.062
-508.770	12.691	-0.075	-0.058
-507.756	75.361	0.271	-0.290
-506.741	272.597	-0.060	0.107
-505.726	42.348	0.128	0.118
-504.712	-91.755	-0.275	-0.079
-503.697	82.180	-0.040	-0.044
-502.683	794.124	0.122	0.341
-501.668	244.206	-0.262	0.445
-500.653	-135.171	0.410	-0.050
-499.639	800.000	0.111	0.382
-498.624	-200.000	0.029	-0.480
-497.610	-200.000	0.011	0.142
-496.595	69.371	-0.186	-0.194
-495.581	2.918	0.202	-0.148
-494.566	115.663	0.256	0.317
-493.551	-73.142	-0.276	0.102
-492.537	-6.534	-0.022	-0.015
-491.522	-1.603	-0.331	-0.236
-490.508	32.911	0.210	0.184
-489.493	58.246	0.083	0.082
-488.478	-46.183	0.070	0.035
-487.464	-22.790	-0.155	-0.095
-486.449	184.499	0.082	-0.122
-485.435	-170.547	0.317	-0.011
-484.420	-200.000	0.039	-0.231
-483.405	72.696	0.190	0.201
-482.391	333.159	0.193	0.377
-481.376	800.000	0.049	-0.140
-480.362	-147.491	-0.610	0.052
-479.347	800.000	0.059	-0.177
-478.332	215.432	-0.164	0.264
-477.318	219.998	-0.064	0.103
-476.303	-105.293	0.390	0.090
-475.289	55.848	-0.192	0.188
-474.274	-200.000	0.012	0.173
-473.259	-135.721	-0.110	0.013
-472.245	-90.668	-0.051	-0.015
-471.230	800.000	-0.030	0.114
-470.216	-200.000	0.024	0.122
-469.201	800.000	-0.058	0.173
-468.186	244.513	0.041	0.070
-467.172	-200.000	0.032	-0.553
-466.157	35.433	-0.230	-0.204
-465.143	64.190	0.191	0.194
-464.128	732.589	-0.175	-0.474
-463.113	800.000	0.066	-0.261
-462.099	-200.000	0.022	0.252
-461.084	249.480	-0.189	0.324
-460.070	-148.242	0.076	-0.006
-459.055	-62.486	0.185	0.078
-458.040	67.513	-0.154	-0.159
-457.026	-200.000	0.060	0.414
-456.011	-200.000	-0.017	-0.336
-454.997	800.000	0.143	-0.500
-453.982	250.794	0.241	-0.414
-452.968	254.260	-0.038	-0.065
-451.953	156.870	0.252	0.352
-450.938	2.604	-0.361	0.265
-449.924	-12.796	-0.108	0.071
-448.909	175.525	-0.103	-0.151
-447.895	-200.000	-0.035	-0.237
-446.880	-47.223	-0.291	0.143
-445.865	500.996	0.065	-0.151
-444.851	331.611	0.040	0.077
-443.836	276.196	-0.037	-0.066
-442.822	-75.336	-0.182	-0.066
-441.807	800.000	-0.039	0.161
-440.792	-164.620	0.233	0.011
-439.778	112.131	0.255	0.312
-438.763	-23.680	-0.152	-0.092
-437.749	-107.822	0.167	0.037
-436.734	-120.404	-0.201	-0.035
-435.719	329.225	0.065	-0.127
-434.705	42.922	-0.242	-0.223
-433.690	271.780	-0.177	0.316
-432.676	-200.000	-0.048	0.372
-431.661	-102.055	0.123	0.030
-430.646	134.899	-0.129	0.169
-429.632	-62.564	-0.086	0.036
-428.617	497.477	-0.026	0.060
-427.603	800.000	0.041	0.153
-426.588	159.642	-0.094	-0.132
-425.573	-200.000	0.002	-0.025
-424.559	156.964	0.101	-0.141
-423.544	-18.313	0.146	0.092
-422.530	540.014	0.125	0.301
-421.515	-34.061	-0.049	0.027
-420.500	708.457	0.099	0.265
-419.486	-200.000	-0.008	0.087
-418.471	-17.788	-0.133	-0.084
-417.457	72.188	0.108	-0.113
-416.442	-21.928	-0.112	0.069
-415.428	334.844	0.105	0.205
-414.413	49.550	-0.345	-0.328
-413.398	-117.251	-0.201	0.037
-412.384	800.000	-0.043	0.185
-411.369	-158.470	-0.169	-0.010
-410.355	-200.000	0.023	-0.298
-409.340	93.338	-0.226	-0.258
-408.325	-117.621	-0.108	0.020
-407.311	-200.000	0.051	-0.462
-406.296	-155.286	0.394	-0.026
-405.282	-162.951	-0.317	0.015
-404.267	-40.508	0.183	0.096
-403.252	-61.599	0.354	-0.150
-402.238	800.000	0.113	-0.323
-401.223	132.962	0.162	-0.210
-400.209	502.953	-0.104	0.241
-399.194	-151.352	0.155	0.012
-398.179	53.596	-0.318	-0.308
-397.165	212.711	0.143	0.228
-396.150	-63.115	-0.414	0.172
-395.136	-22.028	0.027	0.016
-394.121	800.000	0.018	0.063
-393.106	-20.576	0.127	-0.079
-392.092	-200.000	-0.006	0.029
-391.077	-93.440	-0.133	0.037
-390.063	-200.000	0.068	-0.315
-389.048	-106.355	0.055	-0.012
-388.033	-136.569	0.115	0.013
-387.019	-34.270	0.174	0.097
-386.004	112.090	-0.243	0.296
-384.990	-72.524	-0.233	-0.087
-383.975	422.716	-0.230	-0.498
-382.960	162.640	0.137	-0.194
-381.946	39.694	-0.152	-0.137
-380.931	800.000	0.010	-0.043
-379.917	-146.094	0.247	0.022
-378.902	-23.737	-0.065	0.039
-377.888	-44.912	0.309	0.155
-376.873	99.098	-0.266	-0.310
-375.858	-200.000	-0.012	0.235
-374.844	800.000	0.045	0.189
-373.829	-200.000	-0.038	-0.325
-372.815	-116.455	-0.259	0.048
-371.800	800.000	0.018	-0.061
-370.785	-200.000	-0.013	0.100
-369.771	-200.000	0.004	0.081
-368.756	-58.605	-0.160	0.070
-367.742	-148.320	0.052	-0.004
-366.727	295.540	-0.221	0.407
-365.712	11.119	0.256	-0.197
-364.698	-107.763	-0.263	0.058
-363.683	140.631	-0.160	0.212
-362.669	-145.350	-0.167	0.015
-361.654	-200.000	0.027	-0.164
-360.639	-200.000	-0.026	-0.144
-359.625	-61.970	-0.220	0.092
-358.610	-138.626	-0.268	-0.030
-357.596	-49.648	-0.633	0.303
-356.581	595.514	0.124	-0.309
-355.566	-200.000	0.053	0.249
-354.552	4.325	0.154	0.114
-353.537	-60.134	-0.354	0.152
-352.523	57.573	-0.207	-0.203
-351.508	-200.000	-0.000	0.003
-350.493	-163.409	-0.215	0.010
-349.479	-175.602	-0.192	-0.005
-348.464	-200.000	0.043	0.253
-347.450	35.362	-0.061	-0.054
-346.435	555.085	-0.129	0.312
-345.420	-123.189	0.017	0.003
-344.406	795.430	0.082	-0.227
-343.391	71.388	0.014	-0.014
-342.377	-26.062	0.254	0.150
-341.362	-152.442	0.279	0.020
-340.348	-200.000	-0.008	-0.407
-339.333	-37.771	0.533	-0.285
-338.318	101.865	-0.054	0.063
-337.304	-5.524	-0.120	-0.083
-336.289	-200.000	-0.018	0.217
-335.275	-71.028	0.100	-0.038
-334.260	654.723	0.047	0.121
-333.245	210.071	0.083	0.131
-332.231	-61.021	0.430	-0.183
-331.216	-71.531	0.384	-0.144
-330.202	-75.704	-0.270	0.096
-329.187	146.494	0.088	-0.119
-328.172	710.411	0.026	0.068
-327.158	-120.192	0.021	-0.004
-326.143	104.762	-0.145	0.172
-325.129	-189.670	0.260	-0.003
-324.114	-11.195	-0.203	0.134
-323.099	-35.928	0.132	0.072
-322.085	109.945	0.235	0.284
-321.070	-73.936	0.099	0.036
-320.056	-200.000	-0.031	-0.237
-319.041	-87.109	0.227	0.069
-318.026	207.343	-0.123	-0.193
-317.012	92.719	-0.234	-0.266
-315.997	120.457	0.093	-0.116
-314.983	-112.613	-0.254	-0.051
-313.968	-200.000	0.032	0.229
-312.953	557.410	0.033	-0.081
-311.939	-200.000	-0.026	0.146
-310.924	-200.000	-0.018	0.165
-309.910	-40.976	0.124	-0.064
-308.895	-80.269	0.101	-0.034
-307.880	676.279	0.070	-0.183
-306.866	-44.994	0.117	-0.058
-305.851	45.987	0.170	0.158
-304.837	-163.304	-0.058	0.003
-303.822	637.972	0.113	0.289
-302.807	-28.764	0.450	-0.260
-301.793	58.698	0.102	-0.101
-300.778	-0.437	-0.252	-0.180
-299.764	-200.000	-0.031	-0.180
-298.749	14.578	0.165	-0.130
-297.735	-107.742	0.006	-0.001
-296.720	-200.000	-0.039	0.363
-295.705	-36.299	0.433	-0.235
-294.691	17.449	0.062	-0.049
-293.676	-12.257	-0.391	-0.257
-292.662	-39.521	-0.105	-0.055
-291.647	-111.225	-0.253	0.052
-290.632	26.127	0.221	0.186
-289.618	31.302	-0.181	0.156
-288.603	505.627	0.136	0.316
-287.589	-166.733	0.230	0.010
-286.574	-57.465	-0.087	0.038
-285.559	-54.857	0.045	-0.020
-284.545	215.214	0.176	-0.280
-283.530	-200.000	0.060	-0.000
-282.516	-38.857	-0.099	0.052
-281.501	-97.857	0.274	0.071
-280.486	-37.082	0.206	0.111
-279.472	209.338	0.030	-0.047
-278.457	126.366	-0.151	-0.192
-277.443	436.026	-0.029	0.063
-276.428	-81.978	0.270	0.089
-275.413	-190.745	0.201	0.002
-274.399	-200.000	-0.013	0.212
-273.384	-91.929	-0.237	0.067
-272.370	-71.057	-0.275	-0.104
-271.355	-117.682	-0.272	0.049
-270.340	-172.755	-0.103	0.003
-269.326	-186.841	-0.100	0.001
-268.311	-171.899	-0.203	0.007
-267.297	-12.769	-0.039	0.026
-266.282	60.036	0.170	-0.168
-265.267	-136.718	-0.310	0.036
-264.253	-83.319	0.264	0.085
-263.238	-144.349	0.066	-0.006
-262.224	392.948	0.025	0.051
-261.209	-200.000	-0.015	-0.196
-260.195	800.000	0.042	-0.179
-259.180	-128.024	-0.290	0.042
-258.165	19.200	-0.191	-0.154
-257.151	-29.862	-0.539	0.308
-256.136	358.243	-0.249	-0.498
-255.122	-134.142	0.134	-0.017
-254.107	184.388	-0.185	0.274
-253.092	467.489	0.105	0.235
-252.078	-65.730	0.166	-0.067
-251.063	66.831	0.021	-0.021
-250.049	563.792	-0.065	0.158
-249.034	-82.539	-0.306	-0.100
-248.019	361.810	0.054	-0.109
-247.005	31.267	0.151	-0.130
-245.990	108.407	0.227	-0.271
-244.976	249.969	0.083	-0.141
-243.961	-61.335	0.133	-0.056
-242.946	800.000	0.038	0.145
-241.932	800.000	0.020	-0.062
-240.917	658.530	0.035	0.089
-239.903	99.371	-0.131	0.151
-238.888	-101.992	0.110	-0.027
-237.873	-26.549	0.116	0.068
-236.859	-111.447	-0.356	0.073
-235.844	-88.548	-0.091	-0.027
-234.830	800.000	0.108	0.312
-233.815	-83.262	-0.118	0.038
-232.800	-200.000	-0.017	0.181
-231.786	120.977	0.123	0.153
-230.771	-200.000	0.019	-0.108
-229.757	253.863	0.111	-0.191
-228.742	800.000	-0.064	-0.269
-227.727	-73.954	-0.086	0.031
-226.713	67.973	0.090	-0.092
-225.698	-127.932	0.092	0.013
-224.684	-200.000	-0.013	-0.142
-223.669	-200.000	-0.027	0.176
-222.655	8.271	0.281	0.211
-221.640	-200.000	0.049	-0.455
-220.625	-200.000	0.001	-0.173
-219.611	-117.535	-0.177	-0.032
-218.596	-81.944	-0.072	-0.024
-217.582	-109.610	0.202	0.043
-216.567	150.725	-0.143	0.195
-215.552	-200.000	-0.007	-0.198
-214.538	-122.235	0.322	-0.053
-213.523	47.703	-0.116	-0.108
-212.509	-143.528	-0.152	0.014
-211.494	-200.000	0.006	0.172
-210.479	560.726	0.072	-0.173
-209.465	160.664	0.099	-0.138
-208.450	407.090	0.073	-0.154
-207.436	8.829	0.147	-0.111
-206.421	-200.000	-0.006	-0.161
-205.406	-128.222	-0.081	-0.012
-204.392	-150.183	-0.043	0.003
-203.377	800.000	-0.021	0.077
-202.363	800.000	-0.110	-0.427
-201.348	-61.512	-0.329	-0.138
-200.333	312.649	0.096	-0.180
-199.319	135.469	-0.022	0.028
-198.304	-13.204	0.068	0.044
-197.290	188.583	-0.170	0.254
-196.275	-6.647	-0.174	0.119
-195.260	-62.956	-0.127	0.053
-194.246	230.051	0.107	-0.175
-193.231	44.381	-0.258	-0.237
-192.217	-81.830	-0.263	-0.086
-191.202	-29.733	0.164	0.094
-190.187	-12.523	-0.186	-0.122
-189.173	215.311	0.119	0.188
-188.158	-107.346	0.161	-0.035
-187.144	-200.000	-0.019	0.142
-186.129	800.000	-0.022	0.069
-185.114	-113.542	-0.152	-0.030
-184.100	-74.343	-0.063	-0.023
-183.085	76.672	0.334	0.355
-182.071	-65.359	0.145	0.058
-181.056	499.697	0.029	0.066
-180.042	286.075	0.140	-0.253
-179.027	-51.290	0.011	0.005
-178.012	56.735	0.140	0.136
-176.998	238.979	-0.056	-0.093
-175.983	-47.643	0.114	0.055
-174.969	-191.905	-0.141	-0.001
-173.954	-109.840	0.194	-0.041
-172.939	-84.641	0.140	0.044
-171.925	145.158	0.322	0.430
-170.910	184.078	0.047	-0.070
-169.896	68.772	0.189	-0.194
-168.881	99.368	0.113	0.131
-167.866	-104.554	0.401	-0.093
-166.852	514.643	-0.134	0.312
-165.837	609.790	0.100	0.249
-164.823	800.000	0.009	0.036
-163.808	361.071	-0.060	0.120
-162.793	39.614	-0.168	0.151
-161.779	800.000	0.075	-0.214
-160.764	-85.538	0.383	-0.119
-159.750	-90.424	-0.133	-0.039
-158.735	7.029	0.195	-0.145
-157.720	-154.972	-0.523	0.034
-156.706	-200.000	0.009	0.241
-155.691	16.813	0.021	0.016
-154.677	-37.950	0.303	0.161
-153.662	79.252	-0.133	0.142
-152.647	-23.908	0.325	0.194
-151.633	-140.881	0.098	-0.010
-150.618	-200.000	0.033	-0.234
-149.604	171.633	-0.116	-0.167
-148.589	800.000	-0.108	-0.379
-147.574	562.387	-0.044	-0.105
-146.560	-87.966	0.122	0.037
-145.545	-13.975	-0.071	0.046
-144.531	-200.000	-0.025	-0.164
-143.516	-171.610	-0.231	0.008
-142.502	-167.710	0.110	-0.004
-141.487	-200.000	-0.038	-0.168
-140.472	-118.416	-0.316	-0.056
-139.458	1.806	-0.416	-0.299
-138.443	246.035	0.177	-0.297
-137.429	-200.000	0.059	-0.329
-136.414	800.000	-0.041	0.167
-135.399	-200.000	-0.010	-0.108
-134.385	-90.038	0.288	-0.084
-133.370	26.549	0.060	-0.050
-132.356	73.092	0.246	0.257
-131.341	270.495	-0.125	-0.219
-130.326	-200.000	-0.003	0.351
-129.312	-200.000	0.077	0.353
-128.297	-200.000	-0.008	0.071
-127.283	127.351	-0.129	-0.163
-126.268	800.000	0.021	-0.062
-125.253	5.972	-0.199	0.147
-124.239	74.817	-0.182	-0.191
-123.224	297.426	-0.110	-0.202
-122.210	-200.000	-0.003	0.019
-121.195	252.632	-0.181	0.307
-120.180	-166.889	0.193	-0.008
-119.166	-93.849	-0.183	-0.050
-118.151	90.104	-0.167	0.186
-117.137	-200.000	0.052	0.374
-116.122	800.000	0.041	0.166
-115.107	-64.018	0.419	0.171
-114.093	159.745	-0.050	-0.069
-113.078	10.481	0.338	0.257
-112.064	189.832	0.057	-0.086
-111.049	-24.542	-0.199	0.118
-110.034	-62.284	0.062	-0.026
-109.020	-71.922	0.101	0.037
-108.005	25.049	-0.264	-0.218
-106.991	34.601	-0.176	-0.153
-105.976	-16.232	0.130	0.082
-104.962	255.530	0.160	0.274
-103.947	-200.000	-0.001	0.509
-102.932	-125.196	0.215	0.033
-101.918	800.000	0.013	0.037
-100.903	-101.569	0.262	0.063
-99.889	71.057	0.117	-0.121
-98.874	500.497	0.047	-0.107
-97.859	-117.447	-0.159	-0.029
-96.845	-200.000	0.029	-0.142
-95.830	-4.714	0.099	0.068
-94.816	199.316	0.119	-0.182
-93.801	212.045	0.176	-0.276
-92.786	411.424	0.009	-0.020
-91.772	-61.891	-0.080	0.033
-90.757	297.743	-0.130	0.239
-89.743	-152.248	0.132	-0.010
-88.728	61.047	0.068	-0.067
-87.713	-200.000	0.010	-0.088
-86.699	262.776	-0.018	-0.030
-85.684	121.778	-0.111	0.138
-84.670	-200.000	0.034	-0.280
-83.655	800.000	0.050	-0.146
-82.640	-79.729	-0.045	0.015
-81.626	54.387	0.189	-0.181
-80.611	800.000	0.008	0.031
-79.597	83.504	-0.155	0.168
-78.582	-69.197	0.215	0.082
-77.567	-200.000	0.028	-0.311
-76.553	800.000	0.022	-0.082
-75.538	10.115	-0.266	0.201
-74.524	-52.769	-0.388	-0.178
-73.509	-50.637	-0.281	-0.132
-72.494	-108.791	0.375	-0.080
-71.480	-200.000	-0.001	0.066
-70.465	112.008	-0.136	0.164
-69.451	87.128	-0.166	0.182
-68.436	800.000	0.152	0.438
-67.422	-116.026	-0.039	-0.007
-66.407	-87.791	-0.443	-0.133
-65.392	44.248	-0.177	-0.162
-64.378	5.629	0.212	0.156
-63.363	-47.612	-0.036	0.018
-62.349	282.053	-0.183	-0.326
-61.334	26.826	-0.924	-0.771
-60.319	222.904	0.287	0.461
-59.305	784.467	-0.250	-0.681
-58.290	143.733	0.658	0.873
-57.276	773.921	0.587	1.593
-56.261	-200.000	94.252	558.739
-55.246	626.276	1382.919	3472.224
-54.232	183.095	2611.135	3836.015
-53.217	112.863	2352.169	2835.063
-52.203	42.012	2100.007	1895.798
-51.188	36.964	2011.642	1769.995
-50.173	35.383	1992.756	1738.998
-49.159	49.238	2043.825	1911.120
-48.144	52.093	2063.558	1955.750
-47.130	37.739	2020.397	1784.528
-46.115	35.248	2008.969	1751.633
-45.100	35.233	2005.670	1748.544
-44.086	35.164	2003.754	1746.175
-43.071	35.116	2001.215	1743.459
-42.057	35.080	1999.103	1741.226
-41.042	35.116	1997.045	1739.691
-40.027	35.109	1994.581	1737.408
-39.013	35.131	1992.896	1736.071
-37.998	35.204	1990.751	1734.798
-36.984	35.186	1988.706	1732.786
-35.969	35.206	1987.188	1731.576
-34.954	35.279	1985.250	1730.476
-33.940	35.244	1983.810	1728.832
-32.925	35.205	1982.412	1727.196
-31.911	35.311	1980.170	1726.126
-30.896	35.340	1978.149	1724.560
-29.881	35.277	1976.971	1722.899
-28.867	35.368	1975.175	1722.077
-27.852	35.288	1973.791	1720.091
-26.838	35.335	1971.651	1718.574
-25.823	35.295	1970.078	1716.777
-24.809	35.321	1968.318	1715.406
-23.794	35.254	1966.693	1713.327
-22.779	35.244	1964.885	1711.592
-21.765	35.213	1963.636	1710.159
-20.750	35.266	1962.032	1709.170
-19.736	35.285	1960.282	1707.746
-18.721	35.318	1958.318	1706.265
-17.706	35.336	1956.738	1704.975
-16.692	35.213	1955.356	1702.611
-15.677	35.273	1953.139	1701.147
-14.663	35.301	1951.998	1700.337
-13.648	35.362	1950.283	1699.310
-12.633	35.355	1950.054	1698.985
-11.619	35.266	1948.405	1696.691
-10.604	35.277	1946.580	1695.131
-9.590	35.252	1945.465	1693.875
-8.575	35.337	1943.607	1692.937
-7.560	35.203	1943.132	1691.279
-6.546	35.245	1941.674	1690.305
-5.531	35.292	1939.862	1689.076
-4.517	35.323	1939.160	1688.670
-3.502	35.293	1937.689	1687.062
-2.487	35.325	1936.301	1686.067
-1.473	35.298	1935.817	1685.341
-0.458	35.338	1931.170	1681.581
0.556	37.773	1910.958	1652.738
1.571	32.926	1889.474	1593.232
2.586	27.984	1910.345	1568.402
3.600	26.371	1945.881	1583.317
4.615	25.020	1939.995	1566.591
5.629	19.308	1837.602	1436.321
6.644	9.841	1717.297	1268.102
7.659	4.935	1678.105	1201.310
8.673	4.581	1674.279	1195.744
9.688	4.588	1673.589	1195.199
10.702	4.669	1671.585	1194.286
11.717	4.642	1668.810	1191.986
12.731	5.210	1669.238	1196.542
13.746	11.635	1684.174	1256.681
14.761	20.012	1701.465	1334.274
15.775	22.729	1705.821	1358.524
16.790	22.431	1703.702	1354.426
17.804	21.508	1700.112	1344.368
18.819	20.516	1697.033	1334.199
19.834	19.856	1694.761	1327.233
20.848	19.557	1693.586	1323.905
21.863	19.464	1692.426	1322.171
22.877	19.245	1691.519	1319.663
23.892	19.132	1690.002	1317.502
24.907	19.098	1688.844	1316.218
25.921	19.075	1687.462	1314.848
26.936	18.997	1686.369	1313.285
27.950	19.089	1685.412	1313.131
28.965	19.082	1684.865	1312.534
29.980	19.194	1684.600	1313.062
30.994	19.281	1683.603	1312.833
32.009	19.419	1682.349	1312.791
33.023	19.443	1681.408	1312.123
34.038	19.507	1680.399	1311.708
35.053	19.413	1679.541	1310.208
36.067	19.352	1677.815	1308.278
37.082	19.315	1676.377	1306.762
38.096	19.173	1675.788	1305.113
39.111	19.253	1675.317	1305.233
40.126	19.446	1674.397	1305.865
41.140	19.402	1673.493	1304.710
42.155	19.131	1671.911	1301.310
43.169	18.936	1669.993	1298.230
44.184	18.747	1668.801	1295.765
45.199	18.698	1668.150	1294.776
46.213	18.730	1667.033	1294.036
47.228	18.805	1665.630	1293.400
48.242	18.900	1665.047	1293.543
49.257	19.181	1663.729	1294.515
50.271	19.192	1662.238	1293.323
51.286	19.115	1661.550	1292.098
52.301	19.231	1659.787	1291.482
53.315	19.208	1658.487	1290.184
54.330	19.099	1656.929	1288.045
55.344	19.024	1655.717	1286.430
56.359	18.895	1653.561	1283.676
57.374	18.908	1652.637	1282.941
58.388	18.930	1651.473	1282.087
59.403	18.833	1650.272	1280.320
60.417	18.748	1648.750	1278.396
61.432	18.760	1647.628	1277.496
62.447	18.766	1646.132	1276.267
63.461	18.624	1645.375	1274.516
64.476	18.671	1644.084	1273.750
65.490	18.549	1643.207	1272.055
66.505	18.543	1642.009	1270.968
67.520	18.570	1641.174	1270.409
68.534	18.660	1639.479	1269.656
69.549	18.649	1639.120	1269.183
70.563	18.601	1637.964	1267.815
71.578	18.600	1636.047	1266.212
72.593	18.528	1635.338	1265.023
73.607	18.486	1634.023	1263.585
74.622	18.396	1633.011	1262.028
75.636	18.456	1631.725	1261.362
76.651	18.366	1631.778	1260.629
77.666	18.392	1630.813	1259.963
78.680	18.479	1629.910	1259.798
79.695	18.518	1629.121	1259.356
80.709	18.599	1628.259	1259.175
81.724	18.665	1627.488	1258.951
82.739	18.722	1627.072	1258.936
83.753	18.923	1625.585	1259.149
84.768	19.024	1625.120	1259.413
85.782	19.109	1624.567	1259.495
86.797	19.281	1623.598	1259.894
87.812	19.392	1622.837	1260.002
88.826	19.286	1621.349	1257.962
89.841	19.176	1620.179	1256.141
90.855	19.159	1619.393	1255.296
91.870	19.240	1618.456	1255.049
92.884	19.297	1618.169	1255.131
93.899	19.260	1617.060	1253.886
94.914	19.348	1615.567	1253.261
95.928	19.449	1614.396	1252.974
96.943	19.421	1613.003	1251.578
97.957	19.390	1611.758	1250.280
98.972	19.401	1609.768	1248.706
99.987	19.248	1608.476	1246.481
101.001	19.254	1606.598	1244.964
102.016	19.157	1605.703	1243.454
103.030	19.177	1604.483	1242.547
104.045	19.196	1603.321	1241.674
105.060	19.321	1601.711	1241.215
106.074	19.255	1600.132	1239.410
107.089	18.908	1598.685	1235.684
108.103	18.791	1596.699	1233.198
109.118	18.673	1595.097	1231.010
110.133	18.574	1593.541	1228.987
111.147	18.584	1592.447	1228.111
112.162	18.683	1591.039	1227.623
113.176	18.614	1589.873	1226.121
114.191	18.761	1588.241	1225.804
115.206	18.736	1587.463	1224.912
116.220	18.720	1586.002	1223.566
117.235	18.780	1584.493	1222.722
118.249	18.815	1583.168	1221.838
119.264	18.716	1581.881	1220.033
120.279	18.668	1580.689	1218.662
121.293	18.612	1579.233	1217.037
122.308	18.630	1577.559	1215.769
123.322	18.505	1576.179	1213.712
124.337	18.434	1574.879	1212.103
125.352	18.437	1573.181	1210.705
126.366	18.403	1571.969	1209.427
127.381	18.492	1570.972	1209.184
128.395	18.418	1570.029	1207.829
129.410	18.404	1569.087	1206.897
130.424	18.500	1567.172	1205.993
131.439	18.487	1566.446	1205.233
132.454	18.648	1565.140	1205.254
133.468	18.679	1563.614	1204.193
134.483	18.771	1562.148	1203.599
135.497	18.826	1560.938	1202.945
136.512	18.834	1559.601	1201.867
137.527	18.799	1558.832	1200.926
138.541	18.883	1557.350	1200.259
139.556	18.950	1555.163	1198.938
140.570	18.972	1554.482	1198.461
141.585	19.037	1553.099	1197.738
142.600	19.130	1551.867	1197.330
143.614	19.102	1551.439	1196.702
144.629	19.342	1549.722	1196.932
145.643	19.343	1548.449	1195.851
146.658	19.432	1547.264	1195.449
147.673	19.331	1545.595	1193.356
148.687	19.177	1543.769	1190.772
149.702	19.069	1542.357	1188.837
150.716	18.927	1540.851	1186.585
151.731	18.894	1539.684	1185.356
152.746	18.896	1538.131	1184.072
153.760	18.912	1536.624	1182.916
154.775	18.979	1535.612	1182.490
155.789	19.047	1534.509	1182.002
156.804	19.163	1533.337	1181.796
157.819	19.166	1531.693	1180.440
158.833	19.190	1530.630	1179.683
159.848	19.315	1529.971	1179.927
160.862	19.312	1529.204	1179.211
161.877	19.360	1527.961	1178.473
162.892	19.233	1526.867	1176.658
163.906	19.027	1525.151	1173.826
164.921	18.905	1523.668	1171.751
165.935	18.854	1522.773	1170.616
166.950	18.964	1521.326	1170.147
167.964	19.073	1520.244	1169.951
168.979	19.126	1519.860	1169.914
169.994	19.098	1518.409	1168.502
171.008	19.106	1517.116	1167.454
172.023	19.122	1515.996	1166.598
173.037	19.173	1515.059	1166.123
174.052	19.401	1514.531	1167.153
175.067	19.396	1513.761	1166.427
176.081	19.149	1512.440	1163.636
177.096	18.941	1510.667	1160.763
178.110	18.885	1509.576	1159.442
179.125	19.014	1508.238	1159.186
180.140	18.952	1507.455	1158.065
181.154	18.986	1506.279	1157.284
182.169	19.171	1505.133	1157.547
183.183	19.252	1504.210	1157.274
184.198	19.385	1503.198	1157.288
185.213	19.479	1502.128	1156.990
186.227	19.480	1501.089	1156.095
187.242	19.389	1500.541	1154.966
188.256	19.497	1499.195	1154.545
189.271	19.588	1498.461	1154.488
190.286	19.666	1497.496	1154.166
191.300	19.615	1496.511	1152.962
192.315	19.217	1494.773	1148.869
193.329	19.019	1492.859	1145.973
194.344	18.895	1492.345	1144.657
195.359	18.947	1491.296	1144.097
196.373	19.073	1490.283	1144.053
197.388	19.209	1489.596	1144.326
198.402	19.256	1488.666	1143.824
199.417	19.479	1487.360	1144.200
200.432	19.617	1486.852	1144.618
201.446	19.814	1486.019	1145.181
202.461	19.834	1484.957	1144.399
203.475	19.895	1484.075	1144.015
204.490	19.922	1483.515	1143.662
205.504	19.913	1481.512	1141.962
206.519	19.567	1480.565	1138.848
207.534	19.547	1479.191	1137.557
208.548	19.523	1477.908	1136.309
209.563	19.533	1476.554	1135.238
210.577	19.518	1476.080	1134.670
211.592	19.538	1475.097	1133.946
212.607	19.511	1474.327	1133.078
213.621	19.787	1473.857	1134.429
214.636	19.728	1473.364	1133.563
215.650	19.778	1471.964	1132.711
216.665	19.729	1470.928	1131.496
217.680	19.759	1470.074	1130.931
218.694	19.826	1469.990	1131.207
219.709	20.011	1468.862	1131.443
220.723	19.979	1467.610	1130.171
221.738	19.997	1467.097	1129.793
222.753	19.752	1466.461	1127.606
223.767	19.788	1465.393	1126.919
224.782	19.888	1463.886	1126.314
225.796	19.948	1462.894	1125.839
226.811	20.089	1462.286	1126.192
227.826	20.157	1461.382	1125.838
228.840	19.983	1460.772	1124.134
229.855	19.886	1459.581	1122.494
230.869	19.798	1458.316	1120.847
231.884	19.827	1457.624	1120.405
232.899	19.813	1456.286	1119.186
233.913	19.638	1455.189	1117.116
234.928	19.674	1453.504	1115.955
235.942	19.661	1452.325	1114.865
236.957	19.567	1451.298	1113.370
237.972	19.483	1450.127	1111.838
238.986	19.529	1449.148	1111.280
240.001	19.595	1447.922	1110.671
241.015	19.644	1446.816	1110.037
242.030	19.578	1445.816	1108.747
243.045	19.708	1445.222	1109.030
244.059	19.842	1444.100	1108.924
245.074	19.926	1443.190	1108.666
246.088	19.954	1442.318	1108.082
247.103	19.928	1441.816	1107.428
248.117	20.014	1441.701	1107.794
249.132	20.057	1441.140	1107.537
250.147	20.286	1440.086	1108.091
251.161	20.444	1439.677	1108.691
252.176	20.665	1439.198	1109.632
253.190	20.602	1438.930	1108.925
254.205	20.739	1437.776	1108.814
255.220	20.785	1437.178	1108.546
256.234	20.897	1436.133	1108.352
257.249	20.867	1435.328	1107.444
258.263	20.826	1434.314	1106.301
259.278	20.724	1433.885	1105.228
260.293	20.720	1432.665	1104.162
261.307	20.796	1431.569	1103.699
262.322	20.765	1431.043	1103.000
263.336	20.905	1430.277	1103.201
264.351	20.975	1429.179	1102.701
265.366	20.914	1428.863	1101.971
266.380	20.981	1427.407	1101.174
267.395	20.963	1426.377	1100.168
268.409	20.893	1425.789	1099.177
269.424	20.779	1424.805	1097.602
270.439	20.763	1423.226	1096.189
271.453	20.700	1422.379	1095.041
272.468	20.745	1421.311	1094.404
273.482	20.662	1420.579	1093.221
274.497	20.519	1420.118	1091.876
275.512	20.568	1419.103	1091.303
276.526	20.625	1418.180	1090.854
277.541	20.662	1417.208	1090.244
278.555	20.656	1415.770	1089.006
279.570	20.663	1415.250	1088.549
280.585	20.820	1413.916	1088.410
281.599	20.947	1413.870	1089.069
282.614	21.037	1413.116	1088.958
283.628	20.923	1411.886	1087.199
284.643	20.840	1410.188	1085.278
285.657	20.777	1409.414	1084.195
286.672	20.715	1408.490	1083.002
287.687	20.710	1408.176	1082.634
288.701	20.835	1406.573	1082.085
289.716	20.812	1405.924	1081.346
290.730	20.778	1405.144	1080.437
291.745	20.868	1404.149	1080.135
292.760	20.752	1402.934	1078.387
293.774	20.852	1402.453	1078.541
294.789	20.928	1401.552	1078.225
295.803	20.940	1400.828	1077.646
296.818	21.024	1400.281	1077.651
297.833	21.020	1398.522	1076.174
298.847	20.918	1397.249	1074.469
299.862	20.855	1396.551	1073.452
300.876	20.897	1395.419	1072.743
301.891	20.938	1394.394	1072.112
302.906	20.901	1393.790	1071.329
303.920	21.086	1393.495	1072.141
304.935	21.219	1392.697	1072.247
305.949	21.286	1391.777	1071.856
306.964	21.443	1391.416	1072.446
307.979	21.381	1390.491	1071.259
308.993	21.353	1389.277	1070.057
310.008	21.266	1388.040	1068.479
311.022	21.262	1387.128	1067.656
312.037	21.367	1386.359	1067.611
313.052	21.362	1385.108	1066.527
314.066	21.279	1384.397	1065.375
315.081	21.106	1383.217	1063.318
316.095	21.053	1381.607	1061.663
317.110	20.889	1380.661	1059.851
318.125	20.885	1380.035	1059.246
319.139	20.900	1379.028	1058.476
320.154	20.921	1377.916	1057.655
321.168	20.928	1376.912	1056.834
322.183	20.993	1375.742	1056.231
323.197	20.850	1375.244	1054.890
324.212	21.064	1374.095	1055.212
325.227	21.124	1373.375	1054.926
326.241	21.153	1372.506	1054.345
327.256	21.167	1371.349	1053.444
328.270	21.151	1370.609	1052.688
329.285	20.951	1370.226	1051.092
330.300	21.071	1369.133	1050.886
331.314	21.058	1368.027	1049.865
332.329	21.040	1367.231	1049.052
333.343	21.023	1366.488	1048.290
334.358	21.088	1365.664	1047.953
335.373	21.223	1365.060	1048.205
336.387	21.242	1364.418	1047.739
337.402	21.261	1363.550	1047.089
338.416	21.363	1362.916	1047.120
339.431	21.344	1362.509	1046.603
340.446	21.495	1361.265	1046.456
341.460	21.580	1360.210	1046.063
342.475	21.718	1359.918	1046.573
343.489	21.724	1358.760	1045.624
344.504	21.828	1357.995	1045.563
345.519	21.783	1357.358	1044.710
346.533	21.834	1356.503	1044.261
347.548	21.848	1355.744	1043.667
348.562	21.991	1354.599	1043.545
349.577	22.077	1353.648	1043.234
350.592	21.855	1352.635	1041.041
351.606	21.723	1351.781	1039.512
352.621	21.523	1350.505	1037.253
353.635	21.488	1349.318	1036.040
354.650	21.474	1348.412	1035.172
355.665	21.397	1347.605	1034.005
356.679	21.374	1346.635	1033.029
357.694	21.381	1346.162	1032.618
358.708	21.561	1344.499	1032.311
359.723	21.656	1343.482	1032.001
360.738	21.694	1342.772	1031.590
361.752	21.653	1341.930	1030.610
362.767	21.644	1340.597	1029.443
363.781	21.637	1339.685	1028.610
364.796	21.778	1338.740	1028.621
365.810	21.814	1338.240	1028.355
366.825	21.906	1337.821	1028.481
367.840	22.046	1336.821	1028.443
368.854	22.203	1336.304	1028.870
369.869	22.122	1336.529	1028.479
370.883	22.282	1335.339	1028.409
371.898	22.300	1334.075	1027.447
372.913	22.101	1333.416	1025.688
373.927	22.116	1332.039	1024.628
374.942	22.080	1331.285	1023.743
375.956	22.167	1331.117	1024.034
376.971	22.265	1330.211	1023.817
377.986	22.138	1329.277	1022.265
379.000	22.129	1328.689	1021.674
380.015	22.231	1328.086	1021.712
381.029	22.303	1327.478	1021.570
382.044	22.341	1326.803	1021.184
383.059	22.407	1325.936	1020.809
384.073	22.515	1325.280	1020.836
385.088	22.493	1324.073	1019.691
386.102	22.344	1323.988	1018.675
387.117	22.277	1323.490	1017.808
388.132	22.346	1322.132	1017.077
389.146	22.224	1320.810	1015.264
390.161	22.068	1320.057	1013.694
391.175	22.182	1319.145	1013.564
392.190	21.980	1318.849	1012.081
393.205	22.114	1317.868	1012.008
394.219	22.346	1316.558	1012.250
395.234	22.445	1315.399	1011.837
396.248	22.361	1314.181	1010.328
397.263	22.200	1312.594	1008.098
398.278	22.202	1311.615	1007.265
399.292	22.104	1310.342	1005.641
400.307	22.014	1309.404	1004.318
401.321	21.934	1308.715	1003.242
402.336	21.932	1307.483	1002.194
403.350	21.970	1306.222	1001.360
404.365	21.959	1305.406	1000.583
405.380	22.001	1304.556	1000.079
406.394	22.040	1304.216	999.956
407.409	22.129	1303.372	999.726
408.423	22.237	1302.730	999.760
409.438	22.351	1301.954	999.720
410.453	22.436	1301.688	999.912
411.467	22.477	1301.051	999.568
412.482	22.626	1300.451	999.859
413.496	22.696	1299.589	999.509
414.511	22.718	1299.099	999.166
415.526	22.822	1298.205	998.978
416.540	22.787	1297.799	998.383
417.555	22.969	1296.828	998.576
418.569	22.924	1296.408	997.910
419.584	22.802	1295.593	996.500
420.599	22.761	1295.165	995.852
421.613	143.402	1431.104	1788.237
422.628	138.713	1450.889	1788.383
