DTS Sentinel unit serial number:	SN413079Multiplexer serial number:	ORYXHardware model number:	OX4-SRSoftware version number:	ORYX F/W v4.00 Oryx Data Collector v3.7.2.0data status	okinstallation	princeton_trtdifferential loss correction	single-endedforward channel	channel 4reverse channel	N/Adate	2019/09/11time	13:51:11forward acquisition time	60.00reverse acquisition time	0.00gamma	496.2192k internal	0.2283k external	0.2283temperature offset calibration	1.0008default loss term (dB/km)	0.3790temperature slope calibration	1.0000multiplexer offset coefficient	1.0000multiplexer slope coefficient	1.0000fibre end	0.00T internal ref (°C)	41.87T ext. ref 1 (°C)	0.87T ext. ref 2 (°C)	35.76length (m)	temperature (°C)	Stokes	anti-Stokes-747.200	103.157	0.118	0.143
-746.185	-112.597	-0.470	0.096
-745.171	800.000	0.020	0.082
-744.156	-200.000	0.061	0.315
-743.142	800.000	-0.078	-0.261
-742.127	-143.775	-0.163	-0.016
-741.112	146.259	-0.051	0.070
-740.098	-80.740	0.242	-0.083
-739.083	245.602	-0.119	-0.206
-738.069	800.000	0.104	0.395
-737.054	171.308	-0.019	-0.027
-736.039	-200.000	-0.065	0.525
-735.025	-145.724	-0.094	-0.009
-734.010	-8.927	-0.481	0.331
-732.996	-200.000	-0.004	-0.400
-731.981	86.980	-0.281	-0.319
-730.966	-200.000	0.006	-0.394
-729.952	-91.771	-0.163	-0.048
-728.937	-92.822	-0.281	-0.081
-727.923	578.169	0.112	0.282
-726.908	-0.608	0.172	0.126
-725.894	-108.003	0.212	0.047
-724.879	210.777	0.296	-0.477
-723.864	257.599	-0.081	0.144
-722.850	-44.466	-0.178	-0.092
-721.835	98.946	0.165	0.195
-720.821	-147.522	-0.297	0.026
-719.806	271.716	-0.030	0.054
-718.791	-6.437	0.099	-0.069
-717.777	73.612	-0.061	-0.065
-716.762	74.985	0.095	-0.103
-715.748	-105.998	-0.192	-0.044
-714.733	-56.268	-0.265	-0.121
-713.718	-90.964	0.145	0.043
-712.704	-200.000	0.014	0.122
-711.689	168.989	0.095	0.140
-710.675	-66.473	-0.368	-0.150
-709.660	-200.000	0.021	-0.262
-708.645	-110.210	-0.144	0.031
-707.631	800.000	0.067	0.242
-706.616	116.687	0.093	-0.117
-705.602	-115.552	0.184	-0.036
-704.587	318.533	0.076	-0.148
-703.572	-200.000	0.003	-0.209
-702.558	-107.970	-0.169	-0.038
-701.543	68.655	-0.220	-0.231
-700.529	24.698	-0.221	0.187
-699.514	173.619	0.055	0.081
-698.499	193.483	0.113	-0.176
-697.485	-57.578	0.040	0.018
-696.470	527.766	-0.041	-0.099
-695.456	118.904	-0.198	-0.251
-694.441	-200.000	-0.003	-0.126
-693.426	-36.752	0.107	-0.059
-692.412	-200.000	-0.036	0.220
-691.397	223.926	0.088	0.146
-690.383	360.021	-0.057	0.118
-689.368	13.003	-0.137	0.109
-688.354	128.619	0.059	-0.077
-687.339	-69.357	0.267	-0.105
-686.324	258.119	-0.100	-0.176
-685.310	-137.155	0.206	-0.024
-684.295	-159.366	-0.081	-0.005
-683.281	-174.204	-0.162	-0.005
-682.266	-200.000	0.002	0.138
-681.251	51.758	-0.301	0.294
-680.237	-92.082	-0.138	-0.040
-679.222	125.404	-0.083	-0.107
-678.208	576.505	-0.044	0.110
-677.193	438.163	0.112	0.251
-676.178	-132.793	-0.142	-0.019
-675.164	-200.000	0.032	-0.199
-674.149	121.894	-0.131	0.167
-673.135	-35.264	0.317	-0.177
-672.120	-37.169	0.104	-0.057
-671.105	76.523	-0.173	-0.188
-670.091	41.025	-0.116	-0.107
-669.076	116.392	0.069	0.087
-668.062	-7.345	0.471	-0.327
-667.047	56.794	-0.325	-0.324
-666.032	-34.162	-0.144	-0.081
-665.018	-200.000	0.015	-0.163
-664.003	53.080	0.357	-0.351
-662.989	172.773	-0.079	0.117
-661.974	434.729	0.166	-0.369
-660.959	-41.263	-0.359	0.190
-659.945	-24.071	-0.122	-0.074
-658.930	101.674	0.210	0.250
-657.916	366.168	0.108	0.223
-656.901	279.516	-0.105	0.191
-655.886	32.503	-0.086	0.076
-654.872	800.000	0.084	0.300
-653.857	-200.000	-0.026	0.139
-652.843	800.000	-0.029	0.127
-651.828	800.000	0.058	0.196
-650.814	-200.000	-0.030	0.268
-649.799	-200.000	-0.037	-0.214
-648.784	-44.270	0.079	-0.041
-647.770	182.204	0.173	0.261
-646.755	800.000	0.054	-0.168
-645.741	800.000	0.040	-0.115
-644.726	201.718	-0.077	0.121
-643.711	181.837	0.201	0.303
-642.697	197.014	-0.084	-0.131
-641.682	-15.551	0.326	-0.213
-640.668	195.352	0.035	-0.054
-639.653	-200.000	-0.033	0.168
-638.638	48.207	-0.126	0.121
-637.624	-137.469	-0.034	-0.004
-636.609	476.833	0.131	0.303
-635.595	622.204	-0.114	-0.292
-634.580	-168.070	-0.336	0.013
-633.565	-134.491	-0.306	-0.038
-632.551	-200.000	0.009	0.171
-631.536	-139.827	0.118	0.013
-630.522	106.198	-0.111	-0.135
-629.507	-40.894	0.188	0.100
-628.492	-1.320	-0.158	-0.114
-627.478	-18.632	-0.176	-0.112
-626.463	-200.000	-0.030	-0.135
-625.449	-200.000	0.047	0.255
-624.434	47.725	-0.206	-0.197
-623.419	-29.136	-0.123	-0.072
-622.405	-151.449	0.429	-0.033
-621.390	-200.000	0.024	0.144
-620.376	-5.054	-0.188	0.132
-619.361	144.942	-0.188	0.257
-618.346	-22.298	-0.137	0.085
-617.332	160.858	-0.152	-0.217
-616.317	-84.813	-0.227	-0.073
-615.303	211.590	0.079	-0.127
-614.288	-38.668	-0.084	0.045
-613.273	-144.405	-0.190	0.018
-612.259	-73.050	-0.173	-0.065
-611.244	115.246	-0.176	0.220
-610.230	-200.000	-0.019	0.213
-609.215	78.654	0.203	0.222
-608.201	112.411	0.110	0.136
-607.186	426.722	-0.092	0.202
-606.171	-60.454	0.089	0.038
-605.157	-39.845	-0.160	-0.085
-604.142	24.454	-0.322	-0.272
-603.128	800.000	-0.009	-0.036
-602.113	-200.000	0.028	-0.200
-601.098	126.279	-0.211	-0.273
-600.084	800.000	-0.026	0.104
-599.069	-83.308	-0.391	0.128
-598.055	-60.130	-0.164	-0.071
-597.040	206.180	-0.117	-0.186
-596.025	86.703	-0.163	-0.183
-595.011	585.554	-0.051	-0.128
-593.996	-112.842	-0.164	-0.033
-592.982	-111.401	0.137	0.029
-591.967	-89.815	0.289	0.086
-590.952	77.313	0.176	0.191
-589.938	26.028	0.268	0.229
-588.923	132.047	0.159	0.209
-587.909	-22.266	-0.055	-0.034
-586.894	68.169	0.342	-0.357
-585.879	103.679	-0.133	0.159
-584.865	-200.000	0.006	0.026
-583.850	-50.548	-0.437	0.210
-582.836	769.526	-0.111	-0.309
-581.821	-200.000	0.009	-0.478
-580.806	-200.000	-0.009	-0.154
-579.792	-56.893	-0.315	-0.142
-578.777	-40.547	-0.200	0.106
-577.763	-200.000	-0.017	0.297
-576.748	-108.406	0.333	0.073
-575.733	16.810	-0.097	-0.078
-574.719	121.535	0.099	-0.126
-573.704	235.902	-0.110	0.186
-572.690	-200.000	-0.001	0.305
-571.675	800.000	-0.035	0.147
-570.661	95.796	0.219	0.255
-569.646	800.000	-0.049	0.151
-568.631	-200.000	-0.027	-0.395
-567.617	-200.000	0.004	-0.305
-566.602	-200.000	0.008	-0.057
-565.588	-3.498	-0.229	0.163
-564.573	-33.540	0.164	-0.092
-563.558	-200.000	-0.068	-0.468
-562.544	280.642	-0.010	0.018
-561.529	-200.000	-0.015	-0.084
-560.515	-21.445	0.106	-0.066
-559.500	-200.000	0.004	-0.117
-558.485	562.778	-0.097	-0.240
-557.471	-200.000	-0.064	-0.311
-556.456	-141.018	-0.372	-0.039
-555.442	141.990	-0.149	-0.201
-554.427	-107.610	-0.250	0.056
-553.412	800.000	-0.119	-0.479
-552.398	152.182	-0.102	0.142
-551.383	-2.953	-0.232	0.165
-550.369	195.804	0.167	-0.260
-549.354	347.327	0.133	-0.268
-548.339	111.896	-0.072	0.089
-547.325	-113.514	0.284	-0.057
-546.310	342.013	-0.055	-0.109
-545.296	568.271	-0.065	-0.160
-544.281	-121.590	-0.083	0.014
-543.266	-65.417	-0.091	0.037
-542.252	58.229	0.171	-0.171
-541.237	114.549	-0.157	-0.195
-540.223	345.575	-0.109	0.219
-539.208	300.644	0.169	-0.318
-538.193	-135.634	0.352	0.043
-537.179	180.009	-0.096	0.143
-536.164	-91.301	0.161	-0.047
-535.150	-118.732	-0.374	-0.067
-534.135	-127.623	-0.071	0.010
-533.121	177.035	-0.173	0.257
-532.106	-200.000	0.045	0.393
-531.091	800.000	0.039	0.145
-530.077	333.740	0.113	-0.223
-529.062	-200.000	-0.013	0.120
-528.048	-70.008	-0.148	-0.058
-527.033	177.449	-0.086	-0.127
-526.018	583.622	-0.098	-0.245
-525.004	58.667	-0.150	0.150
-523.989	-74.298	0.091	-0.033
-522.975	-120.378	0.329	-0.057
-521.960	800.000	-0.048	0.154
-520.945	44.090	0.338	0.316
-519.931	-110.689	0.131	0.028
-518.916	316.167	-0.104	-0.199
-517.902	784.197	-0.182	-0.507
-516.887	602.121	0.101	-0.254
-515.872	80.996	-0.142	0.156
-514.858	0.513	-0.057	0.041
-513.843	0.051	0.094	0.068
-512.829	-98.536	-0.369	-0.096
-511.814	-200.000	-0.002	0.264
-510.799	254.307	-0.139	0.242
-509.785	364.734	-0.115	0.235
-508.770	174.854	0.117	0.173
-507.756	-200.000	0.016	-0.189
-506.741	17.120	-0.152	-0.122
-505.726	37.532	-0.109	-0.099
-504.712	45.115	0.083	0.078
-503.697	183.437	-0.024	-0.036
-502.683	-125.053	-0.313	-0.049
-501.668	-56.413	0.032	-0.014
-500.653	-159.045	0.297	-0.017
-499.639	-28.801	-0.365	0.214
-498.624	-200.000	-0.005	0.206
-497.610	-184.540	0.156	-0.003
-496.595	-200.000	0.022	0.190
-495.581	402.453	-0.149	0.320
-494.566	-4.930	0.175	0.123
-493.551	-132.919	0.133	-0.017
-492.537	157.707	0.132	0.186
-491.522	164.323	-0.119	0.170
-490.508	21.033	-0.082	0.068
-489.493	-83.009	-0.124	-0.041
-488.478	-99.867	-0.100	0.025
-487.464	-108.343	-0.287	-0.063
-486.449	-83.778	0.062	-0.020
-485.435	-172.795	-0.209	0.007
-484.420	135.185	0.135	-0.178
-483.405	-140.416	-0.285	0.030
-482.391	12.590	-0.022	-0.017
-481.376	-200.000	0.030	0.148
-480.362	243.086	0.101	-0.171
-479.347	-39.271	-0.216	-0.115
-478.332	-122.312	-0.136	0.023
-477.318	-74.600	-0.301	0.110
-476.303	-200.000	-0.019	-0.211
-475.289	-116.457	-0.135	-0.025
-474.274	216.956	-0.112	0.181
-473.259	285.919	-0.027	0.049
-472.245	-67.816	0.026	-0.010
-471.230	-102.638	0.250	-0.061
-470.216	-200.000	0.025	-0.151
-469.201	54.543	-0.213	0.209
-468.186	-18.365	-0.221	-0.140
-467.172	-109.564	-0.162	-0.035
-466.157	465.353	0.103	0.235
-465.143	-200.000	0.058	-0.348
-464.128	-164.187	-0.194	0.009
-463.113	-119.022	-0.220	0.039
-462.099	81.335	-0.063	0.069
-461.084	-149.501	-0.252	0.020
-460.070	-122.223	0.314	-0.052
-459.055	30.685	-0.118	-0.102
-458.040	211.275	0.078	-0.125
-457.026	52.387	-0.156	0.151
-456.011	-135.831	-0.226	-0.027
-454.997	728.701	-0.095	-0.259
-453.982	-82.214	0.323	-0.107
-452.968	-200.000	0.027	-0.323
-451.953	337.288	0.092	0.182
-450.938	99.436	-0.162	-0.191
-449.924	-76.536	0.264	0.094
-448.909	-200.000	0.049	0.254
-447.895	112.283	0.107	0.132
-446.880	397.984	0.133	-0.283
-445.865	417.922	-0.031	-0.068
-444.851	204.092	-0.148	0.233
-443.836	-200.000	0.011	-0.121
-442.822	-70.028	-0.060	-0.023
-441.807	482.873	0.062	0.143
-440.792	81.798	-0.151	0.166
-439.778	800.000	0.073	0.223
-438.763	-98.044	0.396	-0.104
-437.749	800.000	0.057	-0.248
-436.734	83.893	-0.161	-0.179
-435.719	-113.909	-0.250	-0.049
-434.705	-115.169	0.257	-0.049
-433.690	689.380	-0.108	-0.287
-432.676	-154.348	-0.140	-0.010
-431.661	-195.063	0.203	-0.002
-430.646	-200.000	0.022	0.132
-429.632	-13.529	0.326	-0.215
-428.617	800.000	-0.048	-0.153
-427.603	-114.109	-0.282	-0.055
-426.588	-81.038	-0.233	-0.078
-425.573	800.000	-0.021	-0.076
-424.559	725.786	0.054	-0.145
-423.544	80.657	-0.096	-0.105
-422.530	281.733	-0.063	0.115
-421.515	-13.458	-0.088	-0.058
-420.500	-147.351	-0.156	-0.013
-419.486	15.813	0.075	-0.060
-418.471	800.000	0.022	0.086
-417.457	-2.103	0.148	-0.106
-416.442	80.618	-0.076	-0.083
-415.428	168.273	-0.117	-0.170
-414.413	-65.144	-0.078	0.032
-413.398	-200.000	-0.012	0.200
-412.384	800.000	-0.034	0.135
-411.369	-200.000	0.004	0.083
-410.355	-135.309	0.052	0.006
-409.340	240.638	-0.073	0.124
-408.325	-126.864	0.370	0.055
-407.311	-16.318	0.104	-0.067
-406.296	-200.000	-0.029	0.334
-405.282	1.000	-0.243	0.176
-404.267	-200.000	0.020	0.166
-403.252	246.197	0.080	0.137
-402.238	433.926	0.153	0.336
-401.223	-83.949	-0.156	-0.050
-400.209	-2.804	-0.047	-0.033
-399.194	144.539	0.226	0.306
-398.179	76.571	-0.193	-0.208
-397.165	-200.000	0.005	-0.185
-396.150	-137.622	0.207	-0.024
-395.136	-200.000	0.002	0.168
-394.121	-15.884	0.270	-0.174
-393.106	-146.118	-0.052	-0.005
-392.092	-153.639	0.311	0.022
-391.077	133.379	0.021	-0.027
-390.063	151.259	-0.140	0.193
-389.048	-200.000	0.228	-0.001
-388.033	280.232	-0.084	0.152
-387.019	332.816	0.101	0.198
-386.004	361.848	-0.051	0.104
-384.990	-15.466	0.072	-0.047
-383.975	773.298	-0.052	0.144
-382.960	-7.696	0.239	0.164
-381.946	-22.091	0.103	-0.063
-380.931	800.000	0.141	0.478
-379.917	-172.335	0.107	-0.003
-378.902	-79.399	-0.121	-0.041
-377.888	-200.000	-0.006	-0.078
-376.873	28.785	0.303	0.260
-375.858	-61.784	0.132	0.056
-374.844	559.943	0.074	0.181
-373.829	-60.786	0.186	-0.080
-372.815	800.000	-0.074	-0.282
-371.800	-79.422	0.138	0.047
-370.785	800.000	-0.094	0.273
-369.771	147.753	0.148	-0.202
-368.756	-49.588	0.251	-0.121
-367.742	367.309	0.063	-0.129
-366.727	55.852	-0.115	-0.113
-365.712	41.584	0.021	0.019
-364.698	146.221	0.141	-0.192
-363.683	-177.003	-0.371	0.009
-362.669	-4.060	0.264	-0.185
-361.654	-200.000	0.282	0.001
-360.639	800.000	0.066	-0.206
-359.625	59.762	0.129	-0.128
-358.610	299.739	-0.118	-0.220
-357.596	110.172	0.170	-0.207
-356.581	240.237	-0.166	-0.280
-355.566	-121.980	0.015	-0.002
-354.552	-28.922	0.181	-0.106
-353.537	35.654	-0.121	-0.107
-352.523	66.045	0.142	-0.145
-351.508	129.901	0.118	-0.153
-350.493	-41.581	-0.276	0.144
-349.479	-162.837	-0.064	-0.003
-348.464	-128.883	0.434	0.062
-347.450	97.483	-0.039	-0.045
-346.435	-200.000	-0.016	0.392
-345.420	-200.000	0.037	0.303
-344.406	-67.261	0.412	-0.164
-343.391	-158.129	0.403	-0.024
-342.377	64.526	0.154	0.157
-341.362	-200.000	-0.007	0.099
-340.348	176.192	-0.044	-0.064
-339.333	-11.576	-0.093	0.062
-338.318	45.164	-0.252	0.235
-337.304	42.940	-0.071	0.065
-336.289	383.721	0.055	-0.115
-335.275	6.040	0.273	0.204
-334.260	-24.836	-0.172	-0.103
-333.245	633.539	-0.104	-0.268
-332.231	31.174	0.173	0.150
-331.216	-100.514	-0.367	0.092
-330.202	249.428	0.097	-0.167
-329.187	-35.216	-0.227	-0.125
-328.172	-188.232	-0.169	-0.002
-327.158	800.000	0.067	-0.193
-326.143	-47.120	0.206	0.102
-325.129	135.200	-0.163	0.214
-324.114	-159.020	0.299	-0.017
-323.099	-119.565	0.313	-0.055
-322.085	-90.806	-0.271	0.079
-321.070	800.000	0.057	-0.167
-320.056	-71.344	-0.390	0.148
-319.041	23.285	-0.128	0.106
-318.026	60.238	0.214	0.214
-317.012	-92.748	-0.335	0.095
-315.997	800.000	-0.044	-0.149
-314.983	-69.177	-0.081	-0.031
-313.968	-62.639	-0.188	-0.079
-312.953	251.505	-0.120	-0.207
-311.939	109.881	-0.147	-0.179
-310.924	-97.645	0.377	-0.099
-309.910	-146.857	0.249	0.022
-308.895	141.526	0.232	-0.310
-307.880	501.788	0.030	-0.070
-306.866	239.535	0.040	-0.067
-305.851	-200.000	-0.053	0.406
-304.837	639.337	-0.150	-0.385
-303.822	16.582	-0.225	-0.180
-302.807	-29.310	0.011	-0.006
-301.793	-163.151	-0.187	0.009
-300.778	-157.188	0.045	0.003
-299.764	268.985	0.101	0.178
-298.749	83.824	-0.170	-0.187
-297.735	441.035	-0.058	0.128
-296.720	-77.095	0.409	-0.144
-295.705	3.750	0.163	0.120
-294.691	271.816	-0.049	0.087
-293.676	411.970	0.220	0.473
-292.662	29.711	0.162	0.139
-291.647	-200.000	0.061	0.301
-290.632	800.000	0.097	0.306
-289.618	61.122	0.144	0.145
-288.603	-132.622	0.144	-0.019
-287.589	-46.140	0.280	0.139
-286.574	12.024	0.066	-0.051
-285.559	-3.663	-0.086	0.060
-284.545	-200.000	0.023	-0.414
-283.530	-200.000	-0.026	-0.423
-282.516	-45.143	-0.086	-0.043
-281.501	149.589	-0.212	0.290
-280.486	-27.849	-0.172	0.100
-279.472	270.455	0.050	-0.089
-278.457	-6.770	0.137	0.094
-277.443	-200.000	0.019	-0.254
-276.428	800.000	0.055	-0.163
-275.413	800.000	-0.061	-0.240
-274.399	-128.804	0.177	0.025
-273.384	203.352	0.121	-0.188
-272.370	-53.026	-0.265	-0.123
-271.355	-64.046	0.186	0.077
-270.340	-200.000	-0.005	0.206
-269.326	-143.889	-0.190	-0.018
-268.311	-35.006	0.222	0.122
-267.297	-200.000	-0.013	0.075
-266.282	800.000	0.150	0.464
-265.267	-200.000	0.016	0.230
-264.253	280.193	-0.125	0.225
-263.238	158.770	0.157	-0.221
-262.224	-101.172	0.175	0.043
-261.209	-200.000	-0.014	-0.104
-260.195	-31.443	-0.353	0.200
-259.180	-192.205	-0.179	-0.002
-258.165	-200.000	-0.032	0.189
-257.151	-84.318	0.298	0.095
-256.136	800.000	0.138	0.413
-255.122	141.910	-0.040	-0.054
-254.107	-145.351	0.293	0.027
-253.092	-92.717	0.152	0.043
-252.078	222.407	0.081	0.131
-251.063	485.930	0.050	0.115
-250.049	-200.000	-0.054	-0.396
-249.034	-0.648	0.086	0.062
-248.019	-149.356	0.266	0.021
-247.005	-37.672	0.128	0.069
-245.990	19.689	0.175	0.142
-244.976	483.308	0.101	-0.231
-243.961	-200.000	0.477	-0.002
-242.946	-25.549	-0.165	0.098
-241.932	-133.566	0.151	-0.019
-240.917	56.951	-0.132	-0.130
-239.903	-76.786	-0.115	0.041
-238.888	142.815	0.129	0.173
-237.873	800.000	0.033	-0.138
-236.859	220.627	-0.036	-0.059
-235.844	-83.288	0.234	-0.076
-234.830	-200.000	0.013	0.139
-233.815	800.000	0.026	0.080
-232.800	-57.545	0.037	0.017
-231.786	-55.236	0.214	0.097
-230.771	734.957	0.082	0.222
-229.757	-61.183	0.076	-0.032
-228.742	-0.596	-0.124	-0.089
-227.727	770.470	0.074	0.204
-226.713	-142.245	-0.108	-0.011
-225.698	396.310	-0.211	-0.444
-224.684	-200.000	0.001	0.048
-223.669	-123.518	0.349	-0.056
-222.655	-25.981	0.132	-0.078
-221.640	509.883	0.050	0.116
-220.625	800.000	0.007	0.020
-219.611	572.706	0.052	0.128
-218.596	-23.404	-0.151	0.092
-217.582	-73.667	-0.202	0.074
-216.567	-87.235	0.124	-0.038
-215.552	95.571	-0.196	-0.225
-214.538	774.799	0.097	-0.266
-213.523	85.291	-0.079	-0.087
-212.509	-25.909	-0.058	0.035
-211.494	-200.000	0.014	-0.174
-210.479	328.637	-0.095	-0.185
-209.465	800.000	-0.065	0.245
-208.450	-26.559	-0.202	0.119
-207.436	92.309	-0.076	-0.086
-206.421	-34.517	-0.197	0.109
-205.406	-15.668	0.273	-0.175
-204.392	46.523	-0.188	0.176
-203.377	800.000	-0.034	-0.097
-202.363	-15.691	0.128	0.082
-201.348	-200.000	0.012	0.135
-200.333	93.711	0.191	0.218
-199.319	800.000	-0.063	0.274
-198.304	-200.000	-0.004	0.111
-197.290	-200.000	-0.001	-0.065
-196.275	62.170	0.111	-0.111
-195.260	26.344	0.203	-0.171
-194.246	-164.051	0.212	-0.010
-193.231	-105.081	-0.171	0.039
-192.217	-200.000	0.055	-0.324
-191.202	453.600	0.079	-0.177
-190.187	-200.000	0.029	-0.223
-189.173	86.500	-0.177	0.197
-188.158	-200.000	-0.022	0.145
-187.144	-73.448	0.190	0.070
-186.129	-200.000	0.018	0.219
-185.114	-200.000	0.007	-0.312
-184.100	800.000	-0.013	-0.040
-183.085	-96.197	-0.059	-0.016
-182.071	-33.170	0.293	-0.163
-181.056	800.000	-0.065	-0.263
-180.042	-21.762	-0.150	0.092
-179.027	-200.000	-0.023	0.340
-178.012	-39.944	-0.009	0.005
-176.998	268.522	-0.093	0.163
-175.983	-139.675	0.232	-0.025
-174.969	72.660	-0.152	-0.159
-173.954	-116.950	-0.087	-0.016
-172.939	-165.970	-0.196	0.008
-171.925	-138.221	-0.137	-0.015
-170.910	610.152	-0.149	0.374
-169.896	396.172	0.047	0.099
-168.881	-71.320	0.128	-0.048
-167.866	97.729	0.071	0.082
-166.852	-161.565	0.108	0.006
-165.837	-70.593	0.127	0.048
-164.823	-200.000	-0.034	0.221
-163.808	555.327	-0.049	0.119
-162.793	800.000	0.033	0.147
-161.779	-200.000	-0.037	0.179
-160.764	-72.390	-0.234	0.087
-159.750	-87.544	0.152	-0.046
-158.735	-200.000	0.028	-0.227
-157.720	-200.000	0.053	-0.387
-156.706	210.771	0.029	-0.045
-155.691	-200.000	0.011	-0.056
-154.677	121.623	0.155	-0.194
-153.662	800.000	0.009	-0.039
-152.647	-200.000	-0.035	0.181
-151.633	36.059	-0.077	-0.068
-150.618	15.737	0.228	0.180
-149.604	800.000	-0.031	0.126
-148.589	-200.000	-0.029	-0.298
-147.574	660.818	-0.070	0.180
-146.560	-57.080	-0.208	-0.092
-145.545	-54.076	-0.192	-0.088
-144.531	19.540	0.151	0.122
-143.516	-200.000	0.007	-0.148
-142.502	-200.000	0.016	-0.101
-141.487	206.422	-0.032	0.050
-140.472	800.000	0.069	0.260
-139.458	-16.249	-0.308	0.196
-138.443	-200.000	-0.075	-0.435
-137.429	126.167	-0.075	-0.095
-136.414	389.791	-0.102	0.213
-135.399	-200.000	-0.065	-0.303
-134.385	381.230	0.125	0.258
-133.370	800.000	0.065	0.259
-132.356	406.615	0.069	0.146
-131.341	800.000	-0.131	0.388
-130.326	-91.556	0.310	0.089
-129.312	-25.825	0.167	0.099
-128.297	61.351	-0.219	-0.218
-127.283	-122.331	0.270	-0.044
-126.268	160.132	-0.120	-0.167
-125.253	800.000	-0.048	-0.164
-124.239	-18.581	0.140	0.088
-123.224	177.986	-0.193	0.282
-122.210	-124.739	0.061	0.009
-121.195	-133.635	-0.206	-0.026
-120.180	-80.688	-0.360	0.120
-119.166	-4.599	0.192	0.133
-118.151	-83.162	0.288	0.093
-117.137	800.000	-0.034	0.143
-116.122	-10.674	-0.168	-0.111
-115.107	459.530	0.132	-0.295
-114.093	-200.000	-0.030	0.215
-113.078	800.000	0.095	0.314
-112.064	-200.000	-0.003	0.022
-111.049	-106.481	-0.267	0.060
-110.034	-100.392	-0.528	-0.131
-109.020	299.517	0.096	0.178
-108.005	158.011	-0.163	0.227
-106.991	-102.639	0.303	0.073
-105.976	33.611	-0.216	-0.188
-104.962	-0.884	-0.308	0.218
-103.947	-200.000	0.097	0.463
-102.932	88.657	-0.108	-0.120
-101.918	208.089	-0.036	0.057
-100.903	-200.000	0.073	-0.457
-99.889	-200.000	0.000	-0.156
-98.874	271.479	-0.092	0.163
-97.859	140.520	0.112	-0.148
-96.845	-78.261	-0.223	0.077
-95.830	67.491	0.242	-0.248
-94.816	473.634	-0.078	0.177
-93.801	-200.000	-0.010	-0.424
-92.786	-116.788	-0.143	-0.026
-91.772	251.879	0.081	0.138
-90.757	-200.000	-0.005	-0.124
-89.743	-200.000	0.020	0.137
-88.728	800.000	-0.020	0.055
-87.713	48.924	0.152	0.143
-86.699	63.494	0.076	-0.076
-85.684	477.634	0.129	0.292
-84.670	107.010	0.190	0.226
-83.655	3.600	0.139	0.102
-82.640	5.587	0.201	-0.148
-81.626	-81.830	-0.089	0.029
-80.611	-57.533	0.088	0.039
-79.597	-23.225	-0.189	0.114
-78.582	-200.000	-0.012	-0.287
-77.567	-22.994	-0.208	0.126
-76.553	-200.000	0.073	0.492
-75.538	55.724	0.211	0.204
-74.524	12.840	0.182	-0.141
-73.509	197.509	-0.169	0.258
-72.494	-51.698	-0.052	-0.024
-71.480	-59.272	0.270	-0.116
-70.465	31.653	-0.313	-0.269
-69.451	114.964	-0.170	-0.208
-68.436	-200.000	-0.020	-0.206
-67.422	56.641	0.101	-0.098
-66.407	-25.744	0.105	0.062
-65.392	-121.429	0.202	-0.034
-64.378	-94.212	-0.229	-0.063
-63.363	-200.000	0.000	-0.065
-62.349	-200.000	0.044	-0.197
-61.334	-32.773	-0.627	-0.349
-60.319	120.957	0.222	0.276
-59.305	-200.000	-0.050	-0.838
-58.290	452.351	0.310	0.686
-57.276	800.000	0.563	1.656
-56.261	-200.000	75.930	525.612
-55.246	543.577	1309.920	3126.770
-54.232	143.614	2556.816	3406.481
-53.217	109.824	2379.776	2854.318
-52.203	48.975	2119.144	1989.817
-51.188	43.799	2026.889	1855.839
-50.173	42.068	2007.867	1822.612
-49.159	54.456	2045.757	1970.821
-48.144	59.305	2066.181	2034.888
-47.130	44.686	2030.850	1867.314
-46.115	41.946	2019.500	1831.760
-45.100	41.779	2016.940	1827.841
-44.086	41.793	2014.428	1825.622
-43.071	41.704	2012.364	1822.868
-42.057	41.693	2010.255	1820.778
-41.042	41.701	2008.646	1819.329
-40.027	41.727	2006.222	1817.290
-39.013	41.749	2003.506	1814.959
-37.998	41.730	2002.398	1813.712
-36.984	41.828	2000.343	1812.668
-35.969	41.845	1998.297	1810.898
-34.954	41.789	1997.051	1809.188
-33.940	41.837	1995.463	1808.115
-32.925	41.899	1993.806	1807.098
-31.911	41.868	1992.238	1805.323
-30.896	41.892	1990.218	1803.640
-29.881	41.846	1988.770	1801.843
-28.867	41.945	1986.971	1801.030
-27.852	41.917	1985.066	1798.981
-26.838	41.920	1983.065	1797.124
-25.823	41.951	1981.354	1795.779
-24.809	41.952	1979.232	1793.796
-23.794	41.914	1978.221	1792.464
-22.779	41.999	1975.872	1791.027
-21.765	41.866	1974.592	1788.608
-20.750	41.881	1973.033	1787.259
-19.736	41.864	1971.455	1785.603
-18.721	41.988	1969.770	1785.114
-17.706	41.882	1968.426	1782.882
-16.692	41.860	1966.156	1780.558
-15.677	41.931	1964.590	1779.703
-14.663	41.925	1963.215	1778.332
-13.648	41.895	1962.168	1777.047
-12.633	41.869	1961.279	1775.939
-11.619	41.852	1959.604	1774.205
-10.604	41.894	1958.190	1773.221
-9.590	41.810	1957.037	1771.367
-8.575	41.870	1955.207	1770.171
-7.560	41.853	1954.357	1769.179
-6.546	41.960	1952.510	1768.384
-5.531	41.936	1951.095	1766.823
-4.517	41.869	1950.080	1765.239
-3.502	41.893	1949.150	1764.540
-2.487	41.848	1947.884	1762.921
-1.473	41.819	1947.322	1762.088
-0.458	41.843	1943.090	1758.400
0.556	40.857	1922.580	1732.549
1.571	36.759	1902.373	1678.745
2.586	32.642	1924.252	1661.685
3.600	31.398	1962.593	1683.456
4.615	30.432	1959.814	1672.229
5.629	22.979	1852.364	1516.713
6.644	9.100	1717.955	1295.285
7.659	1.689	1672.361	1202.421
8.673	0.976	1668.167	1193.681
9.688	0.955	1666.538	1192.244
10.702	0.840	1665.013	1190.139
11.717	0.709	1662.222	1187.008
12.731	1.123	1662.654	1190.467
13.746	9.546	1683.234	1271.842
14.761	21.120	1709.375	1383.787
15.775	24.923	1714.107	1417.672
16.790	24.658	1712.292	1413.945
17.804	24.571	1712.113	1412.987
18.819	24.594	1710.932	1412.071
19.834	24.783	1710.605	1413.168
20.848	24.923	1709.897	1413.560
21.863	24.972	1708.737	1412.862
22.877	24.837	1708.060	1411.115
23.892	24.922	1706.999	1410.789
24.907	24.912	1706.405	1410.092
25.921	24.965	1705.100	1409.304
26.936	24.905	1704.327	1408.071
27.950	24.902	1703.394	1407.147
28.965	24.922	1702.174	1406.178
29.980	25.035	1701.158	1406.098
30.994	24.941	1700.188	1404.433
32.009	25.008	1698.689	1403.596
33.023	24.929	1698.213	1402.457
34.038	24.890	1697.255	1401.242
35.053	24.904	1696.188	1400.341
36.067	24.886	1694.953	1399.057
37.082	24.855	1694.512	1398.331
38.096	24.906	1693.148	1397.480
39.111	24.967	1692.029	1396.909
40.126	24.948	1691.307	1396.040
41.140	24.871	1690.554	1394.697
42.155	24.951	1689.441	1394.275
43.169	24.897	1688.208	1392.715
44.184	24.951	1687.377	1392.323
45.199	24.999	1686.054	1391.486
46.213	24.896	1685.160	1389.821
47.228	24.899	1684.199	1388.929
48.242	24.863	1682.974	1387.517
49.257	24.885	1682.034	1386.787
50.271	24.916	1680.334	1385.505
51.286	24.951	1679.539	1384.997
52.301	24.983	1677.915	1383.787
53.315	24.946	1676.789	1382.450
54.330	24.881	1675.704	1380.931
55.344	24.917	1674.055	1379.725
56.359	24.968	1672.324	1378.574
57.374	24.892	1671.846	1377.468
58.388	24.940	1670.587	1376.682
59.403	24.914	1669.415	1375.389
60.417	24.992	1668.159	1374.835
61.432	24.912	1666.935	1373.090
62.447	24.845	1666.469	1372.070
63.461	24.937	1665.236	1371.636
64.476	25.002	1664.092	1371.074
65.490	24.977	1662.844	1369.729
66.505	24.934	1662.161	1368.722
67.520	24.904	1661.229	1367.602
68.534	24.946	1659.748	1366.585
69.549	24.958	1659.464	1366.322
70.563	24.935	1657.494	1364.399
71.578	24.979	1656.663	1363.935
72.593	25.009	1655.838	1363.361
73.607	24.973	1654.797	1362.110
74.622	24.978	1653.674	1361.104
75.636	25.001	1652.845	1360.471
76.651	24.967	1652.313	1359.653
77.666	25.012	1651.377	1359.108
78.680	24.961	1650.284	1357.700
79.695	24.993	1649.379	1357.079
80.709	24.968	1648.807	1356.301
81.724	25.012	1647.757	1355.650
82.739	24.967	1647.169	1354.701
83.753	24.925	1646.120	1353.401
84.768	24.964	1644.521	1352.266
85.782	24.987	1643.722	1351.658
86.797	24.942	1643.531	1351.049
87.812	24.954	1642.635	1350.280
88.826	24.952	1641.220	1348.978
89.841	24.894	1640.636	1347.949
90.855	25.095	1638.874	1347.891
91.870	25.094	1637.876	1346.941
92.884	25.003	1636.946	1345.377
93.899	24.974	1636.019	1344.278
94.914	25.100	1634.798	1344.097
95.928	24.969	1633.967	1342.317
96.943	25.019	1632.632	1341.477
97.957	25.053	1631.024	1340.290
98.972	24.992	1630.006	1338.878
99.987	24.964	1628.783	1337.544
101.001	24.994	1627.373	1336.496
102.016	25.030	1625.258	1334.907
103.030	24.961	1624.454	1333.616
104.045	24.976	1623.641	1332.943
105.060	24.952	1622.253	1331.502
106.074	25.015	1620.867	1330.718
107.089	24.947	1619.685	1329.122
108.103	24.898	1618.671	1327.814
109.118	25.026	1617.454	1327.644
110.133	25.102	1616.289	1327.133
111.147	24.955	1615.582	1325.345
112.162	25.075	1613.961	1324.790
113.176	25.110	1612.504	1323.731
114.191	25.097	1611.430	1322.640
115.206	25.072	1610.668	1321.714
116.220	25.069	1609.540	1320.643
117.235	25.014	1608.068	1318.918
118.249	25.066	1606.991	1318.297
119.264	25.027	1605.798	1316.916
120.279	25.054	1604.419	1315.868
121.293	25.065	1603.430	1315.019
122.308	25.093	1602.141	1314.049
123.322	25.082	1601.097	1313.000
124.337	25.138	1599.715	1312.163
125.352	25.139	1598.488	1311.044
126.366	25.082	1597.764	1309.921
127.381	25.133	1597.272	1309.769
128.395	25.144	1596.230	1308.885
129.410	25.150	1595.034	1307.826
130.424	25.185	1594.259	1307.333
131.439	25.160	1592.791	1305.834
132.454	25.161	1591.778	1304.891
133.468	25.206	1590.274	1303.871
134.483	25.145	1588.787	1302.091
135.497	25.197	1587.631	1301.407
136.512	25.107	1586.638	1299.828
137.527	25.165	1585.405	1299.119
138.541	25.210	1584.395	1298.504
139.556	25.228	1583.433	1297.732
140.570	25.313	1581.601	1296.729
141.585	25.173	1580.840	1294.980
142.600	25.157	1579.355	1293.536
143.614	25.162	1578.258	1292.556
144.629	25.129	1577.673	1291.725
145.643	25.160	1576.285	1290.700
146.658	25.118	1574.891	1289.139
147.673	25.088	1573.159	1287.396
148.687	25.136	1572.645	1287.205
149.702	25.100	1571.725	1286.079
150.716	25.119	1570.258	1284.898
151.731	25.097	1568.840	1283.467
152.746	25.167	1567.789	1282.994
153.760	25.145	1566.492	1281.665
154.775	25.098	1565.763	1280.616
155.789	25.207	1564.091	1279.913
156.804	25.182	1563.297	1278.972
157.819	25.115	1562.285	1277.552
158.833	25.084	1561.521	1276.598
159.848	25.214	1560.266	1276.383
160.862	25.248	1559.229	1275.662
161.877	25.248	1558.373	1274.850
162.892	25.191	1557.537	1273.651
163.906	25.175	1556.801	1272.819
164.921	25.208	1555.743	1272.079
165.935	25.242	1554.912	1271.525
166.950	25.200	1553.961	1270.336
167.964	25.163	1553.081	1269.242
168.979	25.241	1552.042	1268.833
169.994	25.270	1551.040	1268.109
171.008	25.265	1550.075	1267.175
172.023	25.210	1549.230	1265.980
173.037	25.226	1547.920	1264.914
174.052	25.361	1546.585	1264.656
175.067	25.284	1545.946	1263.484
176.081	25.289	1545.041	1262.665
177.096	25.221	1544.388	1261.544
178.110	25.222	1542.859	1260.186
179.125	25.224	1541.929	1259.331
180.140	25.311	1540.605	1258.750
181.154	25.343	1539.715	1258.138
182.169	25.282	1539.441	1257.372
183.183	25.311	1538.720	1256.878
184.198	25.327	1537.336	1255.746
185.213	25.228	1536.793	1254.497
186.227	25.382	1535.345	1254.279
187.242	25.369	1534.801	1253.636
188.256	25.393	1533.598	1252.706
189.271	25.380	1532.868	1251.909
190.286	25.310	1532.606	1251.098
191.300	25.360	1531.770	1250.655
192.315	25.397	1530.404	1249.685
193.329	25.321	1529.545	1248.346
194.344	25.236	1528.835	1247.061
195.359	25.384	1528.171	1247.441
196.373	25.401	1527.036	1246.521
197.388	25.375	1526.122	1245.484
198.402	25.325	1525.190	1244.269
199.417	25.311	1523.930	1243.031
200.432	25.269	1523.522	1242.297
201.446	25.295	1522.999	1241.939
202.461	25.306	1521.699	1240.847
203.475	25.371	1520.867	1240.509
204.490	25.373	1520.055	1239.753
205.504	25.433	1519.208	1239.364
206.519	25.403	1518.357	1238.357
207.534	25.418	1517.178	1237.384
208.548	25.374	1516.721	1236.603
209.563	25.469	1515.828	1236.418
210.577	25.460	1514.834	1235.436
211.592	25.488	1513.985	1234.824
212.607	25.421	1513.610	1233.950
213.621	25.411	1513.058	1233.322
214.636	25.483	1511.956	1232.806
215.650	25.487	1511.380	1232.257
216.665	25.378	1510.722	1230.862
217.680	25.458	1509.483	1230.292
218.694	25.462	1508.437	1229.357
219.709	25.564	1507.698	1229.346
220.723	25.406	1507.578	1228.056
221.738	25.455	1506.307	1227.249
222.753	25.559	1505.285	1227.019
223.767	25.475	1504.161	1225.424
224.782	25.416	1503.319	1224.222
225.796	25.540	1502.596	1224.374
226.811	25.585	1501.650	1223.797
227.826	25.600	1501.628	1223.776
228.840	25.655	1500.499	1223.123
229.855	25.601	1499.500	1221.830
230.869	25.549	1498.872	1220.856
231.884	25.472	1498.155	1219.642
232.899	25.578	1496.810	1219.162
233.913	25.500	1495.939	1217.811
234.928	25.475	1494.979	1216.756
235.942	25.578	1494.003	1216.548
236.957	25.672	1492.560	1215.899
237.972	25.625	1491.857	1214.905
238.986	25.615	1490.909	1213.960
240.001	25.575	1490.153	1212.968
241.015	25.621	1488.789	1212.058
242.030	25.759	1487.822	1212.091
243.045	25.767	1487.020	1211.386
244.059	25.700	1486.158	1210.125
245.074	25.685	1485.336	1209.248
246.088	25.705	1484.749	1208.796
247.103	25.737	1484.268	1208.513
248.117	25.789	1483.545	1208.165
249.132	25.693	1482.612	1206.653
250.147	25.738	1482.073	1206.412
251.161	25.784	1481.270	1205.961
252.176	25.845	1480.261	1205.440
253.190	25.950	1479.270	1205.226
254.205	25.820	1478.788	1203.858
255.220	25.802	1477.789	1202.823
256.234	25.711	1477.500	1201.869
257.249	25.884	1476.144	1201.816
258.263	25.823	1475.682	1200.925
259.278	25.909	1474.371	1200.325
260.293	25.832	1474.183	1199.552
261.307	25.858	1473.300	1198.905
262.322	25.929	1472.472	1198.593
263.336	25.905	1471.646	1197.660
264.351	25.841	1470.791	1196.432
265.366	25.979	1469.218	1195.963
266.380	25.884	1468.701	1194.804
267.395	25.883	1468.341	1194.401
268.409	25.991	1466.975	1193.895
269.424	25.886	1466.199	1192.468
270.439	25.844	1465.672	1191.650
271.453	25.916	1464.189	1190.815
272.468	25.929	1463.676	1190.381
273.482	25.869	1463.346	1189.608
274.497	25.910	1462.159	1188.811
275.512	25.958	1461.581	1188.552
276.526	26.036	1460.632	1188.187
277.541	26.017	1459.928	1187.389
278.555	25.982	1459.326	1186.563
279.570	25.921	1458.673	1185.524
280.585	26.006	1457.521	1185.043
281.599	25.997	1457.028	1184.475
282.614	26.015	1455.877	1183.555
283.628	26.010	1454.822	1182.556
284.643	26.021	1453.955	1181.819
285.657	26.088	1453.184	1181.530
286.672	26.034	1452.396	1180.431
287.687	25.996	1451.552	1179.389
288.701	25.986	1450.584	1178.437
289.716	26.026	1450.222	1178.297
290.730	26.129	1448.786	1177.700
291.745	26.096	1448.085	1176.809
292.760	26.143	1447.417	1176.469
293.774	26.100	1446.264	1175.149
294.789	26.083	1445.949	1174.675
295.803	26.191	1444.708	1174.270
296.818	26.175	1444.062	1173.536
297.833	26.184	1443.335	1172.898
298.847	26.249	1442.283	1172.361
299.862	26.248	1441.144	1171.329
300.876	26.197	1440.500	1170.371
301.891	26.120	1439.808	1169.202
302.906	26.141	1439.325	1168.842
303.920	26.281	1438.613	1169.070
304.935	26.242	1438.211	1168.386
305.949	26.284	1437.312	1167.820
306.964	26.264	1436.463	1166.902
307.979	26.312	1435.169	1166.054
308.993	26.287	1434.572	1165.307
310.008	26.299	1433.918	1164.747
311.022	26.337	1432.643	1163.855
312.037	26.336	1431.728	1163.006
313.052	26.312	1430.616	1161.840
314.066	26.375	1429.760	1161.450
315.081	26.327	1428.948	1160.379
316.095	26.280	1428.375	1159.508
317.110	26.299	1427.157	1158.538
318.125	26.382	1426.088	1158.103
319.139	26.309	1425.821	1157.317
320.154	26.476	1424.698	1157.372
321.168	26.409	1423.729	1156.053
322.183	26.458	1422.667	1155.400
323.197	26.340	1422.212	1154.172
324.212	26.415	1421.401	1153.892
325.227	26.334	1420.626	1152.643
326.241	26.485	1419.532	1152.616
327.256	26.402	1419.171	1151.691
328.270	26.412	1418.579	1151.175
329.285	26.533	1417.485	1150.954
330.300	26.489	1416.663	1149.908
331.314	26.488	1415.760	1149.062
332.329	26.455	1415.094	1148.213
333.343	26.511	1414.638	1148.094
334.358	26.549	1413.513	1147.320
335.373	26.539	1413.067	1146.798
336.387	26.635	1412.329	1146.702
337.402	26.571	1411.394	1145.436
338.416	26.633	1410.614	1145.098
339.431	26.672	1410.125	1144.844
340.446	26.502	1409.705	1143.329
341.460	26.691	1408.425	1143.379
342.475	26.672	1407.606	1142.493
343.489	26.731	1406.806	1142.115
344.504	26.693	1405.989	1141.110
345.519	26.719	1404.669	1140.103
346.533	26.633	1404.103	1139.005
347.548	26.765	1402.844	1138.711
348.562	26.780	1402.448	1138.385
349.577	26.767	1401.466	1137.400
350.592	26.714	1401.528	1137.023
351.606	26.701	1400.157	1135.728
352.621	26.654	1398.889	1134.300
353.635	26.617	1397.935	1133.197
354.650	26.853	1397.127	1133.918
355.665	26.717	1396.566	1132.510
356.679	26.762	1395.302	1131.665
357.694	26.770	1394.978	1131.356
358.708	26.905	1393.408	1130.822
359.723	26.793	1392.549	1129.327
360.738	26.723	1391.613	1128.031
361.752	26.778	1390.447	1127.328
362.767	26.810	1389.346	1126.535
363.781	26.788	1388.510	1125.623
364.796	26.886	1387.440	1125.264
365.810	26.897	1387.152	1125.000
366.825	26.897	1386.326	1124.228
367.840	26.905	1385.559	1123.559
368.854	26.967	1384.846	1123.264
369.869	26.949	1384.401	1122.693
370.883	26.991	1383.457	1122.084
371.898	26.914	1383.044	1121.178
372.913	27.030	1382.499	1121.349
373.927	27.012	1381.526	1120.353
374.942	27.070	1380.834	1120.049
375.956	26.986	1379.763	1118.561
376.971	27.078	1379.185	1118.563
377.986	27.078	1378.322	1117.762
379.000	26.991	1377.865	1116.761
380.015	27.029	1376.813	1116.043
381.029	27.045	1376.461	1115.753
382.044	27.067	1375.551	1115.055
383.059	27.122	1374.561	1114.491
384.073	27.099	1374.218	1113.974
385.088	27.124	1374.151	1113.970
386.102	27.167	1373.327	1113.472
387.117	27.113	1372.618	1112.463
388.132	27.092	1371.755	1111.538
389.146	27.088	1371.009	1110.810
390.161	27.071	1370.463	1110.166
391.175	27.278	1369.697	1110.713
392.190	27.189	1369.082	1109.572
393.205	27.181	1368.422	1108.892
394.219	27.248	1367.135	1108.158
395.234	27.190	1366.398	1107.112
396.248	27.206	1365.368	1106.274
397.263	27.280	1364.083	1105.585
398.278	27.263	1362.906	1104.429
399.292	27.351	1361.933	1104.076
400.307	27.270	1361.284	1102.964
401.321	27.358	1359.971	1102.337
402.336	27.341	1359.188	1101.500
403.350	27.276	1358.426	1100.391
404.365	27.246	1357.940	1099.721
405.380	27.346	1356.872	1099.360
406.394	27.266	1356.200	1098.233
407.409	27.329	1355.365	1097.844
408.423	27.389	1354.446	1097.363
409.438	27.434	1353.939	1097.127
410.453	27.400	1353.605	1096.551
411.467	27.524	1352.624	1096.408
412.482	27.471	1352.002	1095.490
413.496	27.453	1351.570	1094.934
414.511	27.524	1350.683	1094.546
415.526	27.448	1350.134	1093.547
416.540	27.454	1349.548	1093.012
417.555	27.395	1348.504	1091.713
418.569	27.591	1347.773	1092.198
419.584	27.516	1347.315	1091.282
420.599	27.491	1347.005	1090.787
421.613	77.771	1324.296	1358.383
422.628	78.445	1320.967	1358.527
