DTS Sentinel unit serial number:	SN413079Multiplexer serial number:	ORYXHardware model number:	OX4-SRSoftware version number:	ORYX F/W v4.00 Oryx Data Collector v3.7.2.0data status	okinstallation	princeton_trtdifferential loss correction	single-endedforward channel	channel 4reverse channel	N/Adate	2019/09/15time	05:53:35forward acquisition time	60.00reverse acquisition time	0.00gamma	496.2192k internal	0.2311k external	0.2311temperature offset calibration	1.0037default loss term (dB/km)	0.3790temperature slope calibration	1.0000multiplexer offset coefficient	1.0000multiplexer slope coefficient	1.0000fibre end	0.00T internal ref (°C)	30.62T ext. ref 1 (°C)	4.86T ext. ref 2 (°C)	25.43length (m)	temperature (°C)	Stokes	anti-Stokes-747.200	800.000	0.114	0.466
-746.185	182.890	-0.151	0.227
-745.171	-137.194	-0.383	-0.044
-744.156	-200.000	0.104	0.607
-743.142	-106.584	0.196	-0.044
-742.127	-200.000	0.018	0.213
-741.112	800.000	0.093	-0.390
-740.098	10.211	-0.098	0.076
-739.083	-170.916	0.226	0.008
-738.069	421.861	-0.223	0.485
-737.054	322.293	0.154	-0.298
-736.039	-81.015	-0.253	0.085
-735.025	-16.538	0.251	-0.162
-734.010	-137.073	-0.328	-0.038
-732.996	358.155	-0.081	-0.164
-731.981	16.978	-0.272	0.218
-730.966	800.000	0.034	0.147
-729.952	32.967	0.167	-0.147
-728.937	-80.016	-0.180	-0.061
-727.923	309.368	0.158	0.300
-726.908	366.107	0.108	-0.220
-725.894	-19.392	-0.299	-0.188
-724.879	-86.226	0.080	0.025
-723.864	77.450	-0.181	-0.195
-722.850	-38.699	0.197	0.105
-721.835	129.609	-0.092	0.119
-720.821	587.764	0.082	-0.204
-719.806	-54.397	-0.226	-0.104
-718.791	-163.332	-0.312	0.015
-717.777	-70.879	-0.293	-0.112
-716.762	127.927	-0.131	0.168
-715.748	800.000	0.123	0.415
-714.733	186.283	-0.148	0.224
-713.718	233.747	-0.049	0.082
-712.704	26.090	0.094	0.079
-711.689	207.052	-0.132	0.209
-710.675	-21.022	0.400	-0.248
-709.660	-58.584	0.205	0.090
-708.645	19.609	-0.057	0.047
-707.631	49.796	-0.095	-0.091
-706.616	-200.000	-0.049	-0.495
-705.602	-200.000	-0.003	0.076
-704.587	213.568	-0.078	0.125
-703.572	158.412	0.042	-0.059
-702.558	20.906	0.153	-0.126
-701.543	-200.000	-0.091	0.427
-700.529	90.027	0.094	-0.106
-699.514	110.934	0.079	-0.096
-698.499	-72.211	0.219	0.082
-697.485	-112.367	-0.217	-0.044
-696.470	800.000	-0.056	-0.189
-695.456	-154.178	-0.241	0.016
-694.441	-200.000	-0.024	0.214
-693.426	-106.658	-0.113	-0.025
-692.412	-34.503	-0.410	-0.228
-691.397	562.312	-0.067	0.165
-690.383	-39.271	-0.269	-0.143
-689.368	-200.000	0.029	0.193
-688.354	-200.000	0.065	-0.307
-687.339	111.609	0.050	0.061
-686.324	800.000	0.036	0.117
-685.310	4.941	-0.226	0.168
-684.295	77.590	0.213	0.229
-683.281	220.721	-0.071	0.116
-682.266	-200.000	0.006	-0.057
-681.251	-200.000	-0.032	0.398
-680.237	-200.000	-0.019	0.128
-679.222	330.046	0.100	0.196
-678.208	172.874	0.225	0.329
-677.193	-25.075	-0.331	0.199
-676.178	-55.438	-0.093	-0.042
-675.164	-200.000	0.029	0.400
-674.149	37.776	0.121	-0.109
-673.135	-76.106	-0.189	-0.068
-672.120	-80.284	0.206	0.070
-671.105	224.846	0.033	0.055
-670.091	201.090	-0.115	-0.179
-669.076	151.593	0.231	-0.318
-668.062	-136.006	-0.236	-0.028
-667.047	-92.422	0.291	-0.083
-666.032	-26.196	-0.187	0.111
-665.018	95.622	0.128	0.148
-664.003	-54.486	-0.003	0.001
-662.989	105.004	-0.072	-0.086
-661.974	292.266	0.033	0.061
-660.959	-177.927	-0.197	0.005
-659.945	-129.562	0.279	0.039
-658.930	384.455	-0.082	-0.172
-657.916	-82.618	0.157	0.052
-656.901	-48.380	0.101	0.049
-655.886	79.927	-0.186	-0.202
-654.872	-200.000	-0.046	0.272
-653.857	-200.000	-0.019	0.158
-652.843	69.182	0.106	0.111
-651.828	-200.000	0.023	-0.228
-650.814	-200.000	-0.040	-0.353
-649.799	-17.747	0.130	0.083
-648.784	445.564	-0.004	0.009
-647.770	-78.153	0.086	-0.030
-646.755	-200.000	0.024	-0.135
-645.741	-8.075	-0.303	-0.207
-644.726	47.055	-0.159	-0.149
-643.711	-200.000	0.069	0.324
-642.697	-157.855	-0.112	0.007
-641.682	10.852	0.277	0.214
-640.668	-132.515	-0.167	-0.022
-639.653	6.672	-0.141	0.106
-638.638	-174.900	0.325	0.009
-637.624	105.970	0.141	0.169
-636.609	-200.000	-0.013	-0.170
-635.595	-114.071	0.147	-0.029
-634.580	188.464	-0.106	0.161
-633.565	800.000	0.082	0.360
-632.551	-200.000	-0.002	0.112
-631.536	237.923	-0.267	0.447
-630.522	284.267	-0.078	0.142
-629.507	129.622	0.214	0.277
-628.492	-200.000	0.003	0.073
-627.478	-200.000	-0.016	0.185
-626.463	553.720	-0.149	-0.362
-625.449	34.023	-0.123	0.108
-624.434	-200.000	-0.019	0.113
-623.419	327.319	0.135	-0.262
-622.405	-114.583	0.284	0.055
-621.390	-1.579	0.212	0.151
-620.376	38.087	-0.342	0.307
-619.361	237.803	0.108	-0.181
-618.346	699.170	0.055	0.145
-617.332	-33.508	0.054	0.030
-616.317	-57.234	-0.275	-0.122
-615.303	432.816	0.088	0.192
-614.288	-94.170	-0.377	-0.104
-613.273	-200.000	0.022	-0.250
-612.259	800.000	0.024	0.095
-611.244	-60.124	-0.183	-0.079
-610.230	25.689	-0.055	0.046
-609.215	800.000	-0.064	-0.218
-608.201	-115.504	-0.152	0.029
-607.186	10.284	-0.119	0.092
-606.171	41.233	-0.184	-0.168
-605.157	61.476	-0.080	-0.080
-604.142	119.596	-0.180	0.225
-603.128	-64.266	-0.232	0.095
-602.113	-46.508	-0.288	0.143
-601.098	315.274	0.127	-0.243
-600.084	208.996	0.122	0.193
-599.069	-200.000	-0.054	-0.271
-598.055	-135.575	-0.171	-0.020
-597.040	117.849	-0.066	-0.082
-596.025	195.120	-0.147	-0.225
-595.011	239.631	0.026	0.044
-593.996	-73.365	0.377	0.139
-592.982	366.201	-0.075	0.152
-591.967	-98.174	-0.217	0.056
-590.952	598.898	-0.017	0.042
-589.938	-115.369	0.337	0.064
-588.923	-200.000	-0.026	0.190
-587.909	-200.000	-0.049	-0.419
-586.894	-200.000	-0.012	0.256
-585.879	-37.867	-0.190	-0.102
-584.865	-151.054	-0.205	0.016
-583.850	-104.528	0.052	-0.012
-582.836	232.699	-0.159	-0.263
-581.821	-10.796	0.116	-0.077
-580.806	8.548	-0.052	-0.039
-579.792	67.157	-0.145	-0.149
-578.777	519.269	0.062	-0.146
-577.763	289.931	0.176	-0.322
-576.748	-171.547	0.158	0.005
-575.733	65.574	0.075	-0.076
-574.719	38.238	0.393	-0.352
-573.704	-31.153	-0.394	0.224
-572.690	146.940	-0.109	-0.147
-571.675	541.132	0.096	0.230
-570.661	102.107	-0.213	0.251
-569.646	-122.327	0.090	-0.015
-568.631	-97.591	-0.076	0.020
-567.617	102.040	0.275	-0.324
-566.602	-200.000	-0.005	-0.079
-565.588	800.000	-0.053	-0.212
-564.573	-35.554	-0.113	-0.062
-563.558	256.326	-0.194	-0.336
-562.544	-111.066	0.139	-0.029
-561.529	111.769	0.188	0.229
-560.515	76.438	0.199	0.212
-559.500	67.800	-0.145	0.150
-558.485	364.491	0.140	0.285
-557.471	800.000	-0.053	-0.154
-556.456	106.801	-0.106	0.127
-555.442	427.540	-0.151	0.327
-554.427	162.855	-0.093	-0.131
-553.412	214.624	-0.130	0.208
-552.398	-200.000	0.043	-0.212
-551.383	-73.181	0.131	0.048
-550.369	-200.000	-0.034	0.200
-549.354	444.468	-0.063	-0.140
-548.339	-200.000	0.024	0.221
-547.325	-200.000	0.010	0.442
-546.310	339.751	-0.105	0.207
-545.296	-91.681	-0.353	-0.101
-544.281	-97.681	0.378	-0.099
-543.266	135.284	-0.044	-0.058
-542.252	-46.417	-0.035	-0.017
-541.237	303.734	0.042	0.079
-540.223	72.222	-0.095	-0.099
-539.208	88.644	-0.290	0.325
-538.193	271.399	-0.039	-0.070
-537.179	-76.638	0.171	-0.060
-536.164	-200.000	-0.004	-0.158
-535.150	-200.000	0.299	-0.001
-534.135	-62.249	0.148	-0.062
-533.121	165.052	0.156	0.222
-532.106	-62.993	-0.248	-0.103
-531.091	-142.760	-0.386	-0.038
-530.077	71.285	-0.163	0.170
-529.062	-200.000	0.006	-0.074
-528.048	-144.528	-0.263	0.024
-527.033	800.000	-0.028	-0.084
-526.018	-112.698	-0.081	-0.016
-525.004	-22.015	0.161	0.098
-523.989	-143.649	-0.167	0.016
-522.975	-200.000	0.000	0.024
-521.960	17.655	-0.177	0.142
-520.945	800.000	-0.027	0.094
-519.931	200.927	-0.078	-0.120
-518.916	313.705	-0.115	-0.218
-517.902	31.759	0.080	0.069
-516.887	-200.000	-0.020	-0.152
-515.872	91.751	0.124	-0.140
-514.858	-200.000	-0.035	0.154
-513.843	800.000	-0.034	0.110
-512.829	-200.000	0.024	0.182
-511.814	89.616	0.276	-0.310
-510.799	303.631	-0.119	0.222
-509.785	-35.535	-0.233	0.127
-508.770	-119.158	0.331	-0.058
-507.756	-200.000	-0.004	0.117
-506.741	-35.930	-0.215	-0.117
-505.726	-179.239	-0.447	-0.010
-504.712	96.710	-0.128	-0.148
-503.697	-105.517	-0.257	0.059
-502.683	714.592	-0.027	0.071
-501.668	-43.657	-0.091	-0.046
-500.653	-99.289	0.185	0.047
-499.639	-14.717	-0.117	-0.075
-498.624	696.657	-0.074	-0.195
-497.610	800.000	0.048	0.162
-496.595	-200.000	0.000	0.063
-495.581	24.736	-0.166	-0.138
-494.566	-28.798	0.213	0.123
-493.551	-49.685	-0.188	0.090
-492.537	800.000	-0.035	-0.136
-491.522	800.000	-0.021	0.085
-490.508	-57.246	0.105	-0.046
-489.493	127.956	-0.112	-0.143
-488.478	121.148	0.121	-0.151
-487.464	800.000	0.120	0.422
-486.449	164.328	-0.078	0.110
-485.435	6.639	-0.139	-0.103
-484.420	-87.172	-0.281	0.086
-483.405	161.901	-0.069	-0.097
-482.391	-93.650	-0.365	-0.101
-481.376	-200.000	0.011	-0.063
-480.362	800.000	0.033	0.112
-479.347	-85.750	-0.620	-0.193
-478.332	-200.000	-0.078	-0.520
-477.318	-170.541	0.188	-0.007
-476.303	-27.328	-0.224	-0.131
-475.289	47.674	0.158	0.149
-474.274	387.628	-0.123	-0.256
-473.259	456.451	0.099	0.220
-472.245	70.217	0.034	-0.035
-471.230	-126.872	0.336	-0.050
-470.216	7.132	-0.423	-0.317
-469.201	708.156	0.073	0.194
-468.186	-200.000	0.044	0.372
-467.172	323.891	-0.083	-0.160
-466.157	-112.098	-0.108	-0.022
-465.143	-200.000	-0.005	-0.233
-464.128	231.092	0.108	-0.178
-463.113	59.684	-0.054	0.053
-462.099	-17.926	-0.226	0.142
-461.084	-200.000	-0.002	0.076
-460.070	546.417	0.087	-0.210
-459.055	800.000	-0.085	-0.253
-458.040	-200.000	-0.035	-0.273
-457.026	-179.105	-0.471	-0.011
-456.011	-200.000	0.052	-0.281
-454.997	-136.330	-0.418	-0.049
-453.982	-200.000	-0.051	-0.508
-452.968	88.448	0.107	-0.119
-451.953	46.040	-0.183	-0.170
-450.938	800.000	0.048	-0.178
-449.924	230.702	0.183	-0.301
-448.909	-123.657	0.179	-0.028
-447.895	800.000	0.037	-0.110
-446.880	165.054	0.132	-0.186
-445.865	191.558	0.125	-0.189
-444.851	248.267	0.031	0.052
-443.836	-190.129	0.121	0.001
-442.822	30.389	0.208	0.178
-441.807	-200.000	-0.013	0.193
-440.792	-1.992	-0.128	0.090
-439.778	-53.212	0.392	-0.180
-438.763	-42.481	-0.095	-0.049
-437.749	35.640	0.329	-0.290
-436.734	119.853	-0.238	0.296
-435.719	24.246	-0.058	0.048
-434.705	179.348	-0.233	0.342
-433.690	-200.000	-0.015	0.478
-432.676	800.000	-0.041	-0.140
-431.661	-200.000	-0.013	0.064
-430.646	261.405	0.107	-0.186
-429.632	439.720	-0.106	-0.232
-428.617	-99.392	-0.052	0.013
-427.603	465.932	0.102	-0.229
-426.588	16.577	0.307	-0.243
-425.573	-200.000	-0.012	0.099
-424.559	94.949	-0.127	-0.144
-423.544	57.289	-0.127	0.124
-422.530	-135.821	0.108	-0.013
-421.515	-50.250	-0.164	0.078
-420.500	274.477	-0.092	0.163
-419.486	24.533	0.334	-0.277
-418.471	72.422	-0.080	-0.084
-417.457	-200.000	-0.008	0.039
-416.442	-56.792	0.036	0.016
-415.428	90.956	0.198	0.222
-414.413	-145.506	0.066	-0.006
-413.398	-148.802	-0.331	0.027
-412.384	-200.000	0.009	0.107
-411.369	-38.382	-0.069	-0.037
-410.355	-54.815	0.317	-0.144
-409.340	-56.711	-0.379	-0.168
-408.325	-200.000	-0.005	-0.200
-407.311	116.351	0.109	-0.133
-406.296	-3.380	0.068	0.048
-405.282	-156.001	0.376	0.024
-404.267	-200.000	-0.053	-0.255
-403.252	236.125	-0.137	0.228
-402.238	384.104	-0.057	-0.117
-401.223	-62.591	-0.322	0.134
-400.209	-35.291	0.096	-0.052
-399.194	-85.354	0.246	0.077
-398.179	591.318	0.102	-0.253
-397.165	-4.702	-0.130	-0.090
-396.150	38.298	0.215	-0.191
-395.136	10.065	0.109	-0.083
-394.121	-200.000	-0.013	0.219
-393.106	-49.671	0.155	-0.074
-392.092	-117.556	-0.146	0.026
-391.077	-110.506	-0.071	-0.015
-390.063	-71.420	-0.168	0.063
-389.048	-116.756	-0.219	0.040
-388.033	-142.371	-0.103	-0.010
-387.019	-200.000	-0.005	0.283
-386.004	-156.748	0.081	0.005
-384.990	-48.118	0.235	-0.114
-383.975	-200.000	0.012	0.187
-382.960	-22.667	0.230	0.139
-381.946	-200.000	-0.019	-0.164
-380.931	305.571	-0.084	0.156
-379.917	-146.403	0.159	0.014
-378.902	1.302	0.209	-0.150
-377.888	95.492	-0.139	-0.159
-376.873	-200.000	0.002	0.090
-375.858	800.000	-0.095	0.301
-374.844	298.190	-0.069	-0.126
-373.829	-63.844	0.295	0.121
-372.815	800.000	-0.008	-0.028
-371.800	128.625	-0.049	-0.062
-370.785	362.449	-0.017	0.034
-369.771	800.000	-0.090	-0.273
-368.756	-10.149	-0.108	-0.072
-367.742	200.394	0.018	-0.028
-366.727	-41.158	-0.043	-0.022
-365.712	-61.828	0.125	0.052
-364.698	-122.777	-0.206	-0.033
-363.683	349.302	0.066	-0.129
-362.669	-200.000	0.005	-0.289
-361.654	-200.000	0.053	-0.408
-360.639	-93.211	-0.182	0.050
-359.625	72.856	-0.310	-0.324
-358.610	393.699	0.031	0.065
-357.596	-12.202	0.081	0.053
-356.581	293.403	0.050	-0.091
-355.566	-200.000	-0.012	-0.231
-354.552	800.000	0.096	-0.328
-353.537	-200.000	-0.024	0.149
-352.523	-44.874	0.134	0.067
-351.508	-114.136	0.271	-0.052
-350.493	-153.324	0.079	-0.005
-349.479	-200.000	-0.029	0.271
-348.464	57.929	0.050	0.049
-347.450	195.561	-0.230	-0.350
-346.435	-116.764	0.077	0.014
-345.420	-200.000	0.026	-0.219
-344.406	-80.237	-0.012	-0.004
-343.391	161.276	0.064	0.089
-342.377	-200.000	0.007	0.174
-341.362	-200.000	0.016	-0.135
-340.348	289.748	0.044	-0.079
-339.333	507.449	0.110	-0.256
-338.318	-20.940	-0.207	0.127
-337.304	32.866	0.190	-0.164
-336.289	-119.616	0.262	0.045
-335.275	82.780	0.123	0.133
-334.260	145.030	0.136	-0.182
-333.245	-96.596	-0.036	-0.010
-332.231	39.894	-0.077	-0.069
-331.216	78.209	0.226	-0.241
-330.202	-78.089	-0.614	-0.211
-329.187	444.008	0.152	0.333
-328.172	-31.410	0.198	0.111
-327.158	-97.381	0.276	-0.072
-326.143	-111.241	0.245	-0.050
-325.129	-43.526	0.121	0.061
-324.114	800.000	-0.081	-0.271
-323.099	-79.792	-0.232	-0.078
-322.085	30.545	-0.012	-0.010
-321.070	-93.262	0.308	-0.085
-320.056	-200.000	-0.092	0.436
-319.041	146.068	-0.271	0.363
-318.026	102.931	0.099	0.116
-317.012	150.935	-0.069	-0.093
-315.997	-200.000	0.000	0.313
-314.983	800.000	0.137	0.424
-313.968	619.566	-0.089	-0.223
-312.953	-164.609	0.178	-0.008
-311.939	-139.987	-0.207	-0.022
-310.924	-49.775	0.059	0.028
-309.910	598.882	0.042	-0.104
-308.895	-159.466	-0.304	0.017
-307.880	800.000	0.077	0.228
-306.866	800.000	0.052	0.168
-305.851	-200.000	0.006	0.164
-304.837	-19.412	-0.148	0.092
-303.822	295.559	0.109	0.200
-302.807	-9.649	-0.006	0.004
-301.793	-200.000	0.011	-0.216
-300.778	279.664	0.123	0.220
-299.764	208.283	0.268	0.418
-298.749	91.115	0.125	-0.140
-297.735	-63.489	-0.101	-0.041
-296.720	201.481	0.109	-0.167
-295.705	-93.215	-0.410	0.114
-294.691	-88.788	0.238	0.070
-293.676	-27.839	-0.087	0.050
-292.662	-14.611	0.094	-0.060
-291.647	-200.000	0.050	0.258
-290.632	-86.898	0.136	0.041
-289.618	-31.453	0.325	0.182
-288.603	800.000	0.106	-0.387
-287.589	12.757	-0.358	0.276
-286.574	-134.999	0.072	0.009
-285.559	-177.429	0.261	0.006
-284.545	-89.292	0.144	-0.042
-283.530	461.762	0.057	0.126
-282.516	-78.654	0.131	0.045
-281.501	-200.000	0.043	0.225
-280.486	-61.690	-0.355	-0.148
-279.472	218.486	0.068	0.108
-278.457	800.000	0.082	-0.264
-277.443	-68.445	0.106	0.041
-276.428	-51.544	0.217	0.101
-275.413	154.707	0.092	0.126
-274.399	181.289	-0.062	-0.090
-273.384	-200.000	0.019	-0.086
-272.370	-44.046	-0.172	0.086
-271.355	-133.814	-0.111	-0.014
-270.340	-200.000	-0.072	0.381
-269.326	-129.970	-0.287	0.039
-268.311	670.331	-0.148	0.383
-267.297	-169.916	0.300	0.011
-266.282	165.303	-0.103	-0.146
-265.267	74.750	0.226	-0.237
-264.253	-176.197	0.129	0.003
-263.238	-57.407	0.228	-0.100
-262.224	-55.785	-0.292	0.130
-261.209	-104.687	-0.170	0.039
-260.195	-50.721	0.155	-0.073
-259.180	29.703	-0.188	0.159
-258.165	24.375	0.042	-0.035
-257.151	-110.888	0.372	-0.076
-256.136	402.963	-0.015	0.031
-255.122	199.267	0.119	0.181
-254.107	457.498	0.204	0.450
-253.092	-148.663	0.161	-0.013
-252.078	268.886	-0.107	0.188
-251.063	-53.210	-0.360	-0.164
-250.049	-200.000	0.001	-0.156
-249.034	-200.000	0.088	-0.416
-248.019	29.048	-0.316	-0.266
-247.005	10.198	-0.279	0.212
-245.990	-90.576	-0.181	-0.052
-244.976	800.000	0.095	-0.290
-243.961	-181.251	-0.171	0.003
-242.946	505.046	0.118	-0.273
-241.932	-122.126	-0.327	-0.053
-240.917	75.520	-0.265	0.278
-239.903	-81.647	0.277	-0.090
-238.888	108.732	-0.036	0.042
-237.873	-27.875	0.147	-0.085
-236.859	-168.953	0.175	-0.007
-235.844	800.000	-0.072	0.233
-234.830	-200.000	-0.025	0.133
-233.815	-200.000	0.029	-0.209
-232.800	-130.668	0.181	0.024
-231.786	-86.960	-0.157	-0.048
-230.771	63.533	0.213	0.213
-229.757	-82.117	0.262	0.085
-228.742	528.983	-0.191	0.449
-227.727	-81.488	-0.262	0.086
-226.713	-145.464	0.202	-0.018
-225.698	56.644	-0.124	-0.120
-224.684	800.000	-0.015	0.060
-223.669	-78.478	-0.368	0.125
-222.655	87.189	0.079	0.086
-221.640	36.914	0.066	-0.058
-220.625	-62.366	-0.213	0.088
-219.611	-52.860	0.319	0.146
-218.596	800.000	-0.043	-0.123
-217.582	800.000	-0.020	-0.062
-216.567	154.687	0.080	0.109
-215.552	-200.000	-0.024	-0.119
-214.538	-89.657	0.240	0.070
-213.523	703.236	-0.021	-0.055
-212.509	-198.707	0.242	0.001
-211.494	320.814	0.204	-0.385
-210.479	800.000	0.064	-0.186
-209.465	71.481	-0.005	-0.005
-208.450	282.292	0.096	-0.171
-207.436	-104.780	0.267	0.061
-206.421	104.947	-0.082	0.096
-205.406	132.395	0.060	-0.077
-204.392	94.764	0.173	-0.195
-203.377	-141.813	-0.170	0.017
-202.363	-200.000	0.016	-0.110
-201.348	800.000	0.040	-0.173
-200.333	-113.235	0.453	0.089
-199.319	-148.046	0.203	0.017
-198.304	192.729	0.125	0.188
-197.290	800.000	0.120	-0.355
-196.275	-99.465	0.360	-0.090
-195.260	18.059	-0.246	0.195
-194.246	800.000	0.015	-0.046
-193.231	464.034	0.024	-0.053
-192.217	5.409	-0.289	-0.212
-191.202	39.027	-0.101	0.090
-190.187	655.714	0.048	0.123
-189.173	3.565	0.286	0.207
-188.158	-84.301	-0.054	-0.017
-187.144	-200.000	0.011	0.213
-186.129	-89.369	0.220	0.064
-185.114	-168.283	0.243	0.009
-184.100	-63.647	-0.112	-0.046
-183.085	144.280	0.094	-0.125
-182.071	5.830	0.257	-0.189
-181.056	-200.000	-0.015	0.466
-180.042	-200.000	0.041	0.303
-179.027	800.000	0.055	0.183
-178.012	281.617	-0.034	0.061
-176.998	-76.692	0.474	-0.165
-175.983	-12.385	0.339	0.220
-174.969	173.438	0.166	-0.238
-173.954	35.632	-0.240	-0.209
-172.939	-200.000	0.030	0.255
-171.925	14.032	-0.120	-0.093
-170.910	800.000	0.066	-0.276
-169.896	-134.773	-0.301	-0.036
-168.881	-9.290	-0.211	0.140
-167.866	25.981	-0.086	0.071
-166.852	71.390	-0.045	-0.047
-165.837	-161.974	0.106	-0.005
-164.823	-134.449	0.361	-0.044
-163.808	403.018	-0.095	0.199
-162.793	272.014	-0.100	0.175
-161.779	-128.193	0.248	0.035
-160.764	-200.000	0.007	0.098
-159.750	177.122	0.096	0.138
-158.735	-96.533	-0.266	0.070
-157.720	191.708	0.099	0.147
-156.706	150.344	0.081	0.109
-155.691	115.103	0.070	-0.085
-154.677	662.155	-0.053	0.136
-153.662	-89.616	0.353	-0.103
-152.647	38.605	-0.164	0.145
-151.633	86.463	-0.098	0.107
-150.618	-65.304	0.504	0.201
-149.604	-112.974	-0.452	-0.089
-148.589	-24.833	0.054	0.032
-147.574	800.000	0.050	0.214
-146.560	-59.474	0.192	0.082
-145.545	800.000	0.074	-0.233
-144.531	453.073	-0.131	0.288
-143.516	42.035	0.085	0.076
-142.502	52.217	-0.048	-0.046
-141.487	-34.396	-0.043	-0.023
-140.472	800.000	-0.072	-0.250
-139.458	253.551	0.101	-0.171
-138.443	140.237	0.168	0.219
-137.429	-200.000	0.003	-0.120
-136.414	306.110	0.099	0.182
-135.399	800.000	-0.061	0.248
-134.385	-58.470	0.120	0.052
-133.370	79.035	0.217	-0.230
-132.356	304.748	-0.019	-0.034
-131.341	563.290	0.082	0.196
-130.326	-98.513	0.202	0.051
-129.312	94.287	0.122	0.137
-128.297	-128.476	-0.171	-0.024
-127.283	-131.307	0.156	0.020
-126.268	32.457	-0.220	-0.189
-125.253	-200.000	0.045	0.261
-124.239	-8.775	0.167	-0.111
-123.224	-200.000	-0.033	-0.306
-122.210	-200.000	-0.029	0.178
-121.195	721.065	-0.012	0.031
-120.180	-63.832	0.353	-0.143
-119.166	800.000	0.133	-0.570
-118.151	-200.000	0.041	0.239
-117.137	727.554	-0.022	0.058
-116.122	-93.720	-0.226	-0.062
-115.107	-52.330	-0.259	0.119
-114.093	-109.745	0.305	-0.064
-113.078	-55.677	0.256	0.113
-112.064	-200.000	0.023	-0.213
-111.049	12.581	-0.098	-0.075
-110.034	63.086	0.063	-0.063
-109.020	40.230	0.064	-0.057
-108.005	86.300	0.194	-0.211
-106.991	85.938	-0.076	0.082
-105.976	-200.000	-0.020	-0.117
-104.962	-104.387	0.218	0.050
-103.947	-200.000	0.011	0.332
-102.932	132.725	0.171	-0.218
-101.918	29.148	0.052	0.044
-100.903	560.549	-0.186	-0.445
-99.889	-140.649	-0.338	-0.035
-98.874	-5.146	0.355	0.242
-97.859	66.802	-0.265	-0.267
-96.845	-77.733	-0.377	0.129
-95.830	-116.064	0.220	0.040
-94.816	130.932	-0.170	-0.216
-93.801	-200.000	-0.030	-0.211
-92.786	-200.000	-0.006	-0.249
-91.772	108.177	-0.064	-0.076
-90.757	-103.208	-0.221	0.052
-89.743	-200.000	-0.012	0.070
-88.728	-30.278	0.291	0.164
-87.713	60.469	-0.129	-0.126
-86.699	-200.000	-0.003	0.253
-85.684	-200.000	-0.074	0.336
-84.670	63.081	0.087	-0.087
-83.655	115.447	0.218	0.264
-82.640	-200.000	0.077	0.346
-81.626	-200.000	0.027	0.258
-80.611	89.048	0.136	0.150
-79.597	158.965	-0.117	-0.161
-78.582	214.277	-0.050	0.079
-77.567	800.000	0.067	0.234
-76.553	251.886	-0.034	-0.058
-75.538	800.000	0.009	-0.036
-74.524	-72.947	0.138	-0.050
-73.509	206.544	0.123	0.190
-72.494	-120.868	0.142	-0.024
-71.480	-200.000	-0.063	-0.318
-70.465	-147.276	-0.155	0.013
-69.451	202.885	-0.133	0.203
-68.436	277.012	0.150	0.263
-67.422	-42.461	0.458	0.231
-66.407	-67.606	0.365	0.141
-65.392	-78.542	0.123	-0.041
-64.378	74.794	-0.215	0.224
-63.363	-147.482	0.202	0.017
-62.349	-200.000	-0.025	0.146
-61.334	-17.274	-1.148	-0.715
-60.319	800.000	0.275	0.800
-59.305	473.320	-0.366	-0.816
-58.290	-200.000	0.251	1.168
-57.276	291.663	0.799	1.436
-56.261	-200.000	102.779	589.976
-55.246	545.160	1434.204	3385.659
-54.232	183.304	2632.558	3842.534
-53.217	105.808	2315.766	2706.252
-52.203	37.083	2067.807	1807.962
-51.188	32.319	1981.662	1689.884
-50.173	30.837	1963.856	1661.422
-49.159	46.260	2017.873	1847.048
-48.144	47.226	2035.789	1872.120
-47.130	32.930	1994.653	1706.212
-46.115	30.599	1984.253	1676.265
-45.100	30.552	1981.718	1673.632
-44.086	30.544	1979.172	1671.350
-43.071	30.466	1976.568	1668.385
-42.057	30.478	1974.728	1666.871
-41.042	30.491	1972.289	1664.858
-40.027	30.502	1970.534	1663.415
-39.013	30.611	1968.141	1662.301
-37.998	30.549	1966.800	1660.551
-36.984	30.511	1965.107	1658.715
-35.969	30.543	1962.934	1657.103
-34.954	30.556	1961.188	1655.674
-33.940	30.655	1959.664	1655.203
-32.925	30.665	1958.218	1654.004
-31.911	30.621	1956.413	1652.029
-30.896	30.578	1954.901	1650.304
-29.881	30.677	1953.186	1649.671
-28.867	30.663	1951.966	1648.443
-27.852	30.688	1950.031	1646.970
-26.838	30.614	1948.435	1644.899
-25.823	30.709	1946.005	1643.625
-24.809	30.632	1944.560	1641.656
-23.794	30.619	1943.012	1640.175
-22.779	30.662	1941.342	1639.072
-21.765	30.617	1940.184	1637.636
-20.750	30.625	1938.065	1635.856
-19.736	30.668	1936.369	1634.737
-18.721	30.672	1935.145	1633.674
-17.706	30.648	1933.279	1631.824
-16.692	30.653	1931.932	1630.666
-15.677	30.628	1930.062	1628.804
-14.663	30.593	1928.964	1627.503
-13.648	30.595	1927.844	1626.509
-12.633	30.669	1925.890	1625.440
-11.619	30.666	1924.593	1624.254
-10.604	30.601	1923.337	1622.564
-9.590	30.581	1921.927	1621.143
-8.575	30.672	1920.745	1620.872
-7.560	30.703	1919.098	1619.689
-6.546	30.687	1917.638	1618.255
-5.531	30.664	1916.977	1617.427
-4.517	30.577	1915.620	1615.464
-3.502	30.570	1914.778	1614.632
-2.487	30.621	1913.247	1613.718
-1.473	30.599	1912.831	1613.111
-0.458	30.742	1907.116	1609.464
0.556	29.841	1887.698	1581.889
1.571	25.756	1869.194	1531.578
2.586	21.979	1892.172	1517.678
3.600	20.986	1928.088	1537.597
4.615	20.442	1922.963	1528.585
5.629	16.011	1822.914	1411.879
6.644	8.546	1708.285	1264.169
7.659	5.228	1674.146	1213.058
8.673	4.988	1671.237	1208.982
9.688	4.843	1669.546	1206.526
10.702	4.784	1668.925	1205.514
11.717	4.804	1665.249	1202.909
12.731	5.274	1664.117	1205.611
13.746	10.172	1676.068	1252.149
14.761	16.960	1690.401	1315.570
15.775	19.167	1693.100	1334.679
16.790	18.508	1690.143	1327.126
17.804	17.390	1687.114	1315.988
18.819	16.392	1683.698	1305.501
19.834	15.758	1681.058	1298.446
20.848	15.477	1679.964	1295.320
21.863	15.290	1678.155	1292.372
22.877	15.024	1676.634	1289.034
23.892	14.820	1675.202	1286.251
24.907	14.770	1674.047	1284.860
25.921	14.650	1673.418	1283.343
26.936	14.760	1672.297	1283.214
27.950	14.749	1670.941	1281.981
28.965	14.802	1670.618	1282.023
29.980	14.852	1670.013	1281.830
30.994	14.929	1668.616	1281.235
32.009	14.992	1667.549	1280.780
33.023	15.107	1666.520	1280.761
34.038	15.081	1666.066	1280.100
35.053	15.085	1664.374	1278.714
36.067	14.992	1663.417	1277.159
37.082	14.913	1662.349	1275.623
38.096	14.922	1661.404	1274.854
39.111	15.033	1660.190	1274.652
40.126	15.050	1659.634	1274.245
41.140	14.961	1658.796	1272.806
42.155	14.705	1657.819	1270.002
43.169	14.620	1656.087	1267.914
44.184	14.620	1654.903	1266.898
45.199	14.654	1653.489	1265.960
46.213	14.592	1652.217	1264.404
47.228	14.615	1651.339	1263.792
48.242	14.775	1649.695	1263.634
49.257	14.791	1649.184	1263.252
50.271	14.834	1647.609	1262.262
51.286	14.765	1646.332	1260.646
52.301	14.802	1645.158	1259.914
53.315	14.817	1643.893	1258.952
54.330	14.821	1642.294	1257.648
55.344	14.718	1640.691	1255.531
56.359	14.666	1639.041	1253.770
57.374	14.720	1638.249	1253.457
58.388	14.750	1637.333	1252.866
59.403	14.679	1635.638	1250.928
60.417	14.614	1634.087	1249.144
61.432	14.719	1633.156	1249.111
62.447	14.587	1632.614	1247.596
63.461	14.595	1630.943	1246.271
64.476	14.566	1629.912	1245.153
65.490	14.565	1628.121	1243.668
66.505	14.515	1627.378	1242.616
67.520	14.503	1626.962	1242.104
68.534	14.582	1625.802	1241.697
69.549	14.572	1624.498	1240.517
70.563	14.589	1623.099	1239.459
71.578	14.637	1622.003	1238.871
72.593	14.497	1621.295	1237.186
73.607	14.581	1619.760	1236.521
74.622	14.431	1619.355	1234.995
75.636	14.387	1618.246	1233.711
76.651	14.447	1617.458	1233.446
77.666	14.443	1616.537	1232.608
78.680	14.418	1615.949	1231.867
79.695	14.524	1614.693	1231.578
80.709	14.569	1613.619	1230.982
81.724	14.634	1613.194	1231.031
82.739	14.638	1612.087	1230.110
83.753	14.713	1611.337	1229.976
84.768	14.880	1610.210	1230.238
85.782	14.777	1609.854	1229.099
86.797	14.843	1608.820	1228.686
87.812	14.901	1607.804	1228.230
88.826	14.788	1606.429	1226.241
89.841	14.733	1605.735	1225.200
90.855	14.874	1604.043	1224.834
91.870	14.832	1603.569	1224.054
92.884	15.017	1602.038	1224.131
93.899	15.024	1600.654	1223.017
94.914	14.950	1599.659	1221.605
95.928	14.992	1598.654	1221.038
96.943	14.938	1597.477	1219.639
97.957	14.892	1596.475	1218.431
98.972	14.875	1594.708	1216.846
99.987	14.915	1592.746	1215.537
101.001	14.923	1591.428	1214.479
102.016	14.857	1590.102	1212.884
103.030	14.925	1588.286	1211.882
104.045	14.939	1587.229	1211.071
105.060	14.840	1585.974	1209.289
106.074	14.858	1584.266	1208.008
107.089	14.724	1582.686	1205.727
108.103	14.605	1581.349	1203.747
109.118	14.620	1579.610	1202.423
110.133	14.526	1578.530	1200.819
111.147	14.541	1577.149	1199.772
112.162	14.501	1575.948	1198.463
113.176	14.598	1574.403	1197.875
114.191	14.718	1572.744	1197.369
115.206	14.698	1571.351	1196.060
116.220	14.759	1570.027	1195.385
117.235	14.630	1568.883	1193.481
118.249	14.698	1567.544	1192.844
119.264	14.625	1566.316	1191.282
120.279	14.524	1565.251	1189.652
121.293	14.532	1563.508	1188.274
122.308	14.571	1561.782	1187.136
123.322	14.614	1560.054	1186.021
124.337	14.497	1559.016	1184.295
125.352	14.496	1558.011	1183.424
126.366	14.491	1556.623	1182.232
127.381	14.507	1555.496	1181.385
128.395	14.553	1554.486	1180.838
129.410	14.589	1552.670	1179.604
130.424	14.555	1551.738	1178.556
131.439	14.578	1550.299	1177.521
132.454	14.639	1548.960	1176.825
133.468	14.660	1547.798	1175.986
134.483	14.665	1546.280	1174.766
135.497	14.678	1545.032	1173.806
136.512	14.703	1543.487	1172.707
137.527	14.708	1542.425	1171.831
138.541	14.751	1541.166	1171.071
139.556	14.649	1540.199	1169.516
140.570	14.840	1537.852	1168.965
141.585	14.843	1536.946	1168.196
142.600	14.897	1535.768	1167.576
143.614	14.904	1534.854	1166.825
144.629	14.976	1533.437	1166.145
145.643	15.052	1532.306	1165.713
146.658	15.067	1530.702	1164.492
147.673	15.042	1529.165	1163.050
148.687	14.970	1527.876	1161.465
149.702	14.867	1526.274	1159.431
150.716	14.907	1524.570	1158.311
151.731	14.787	1523.662	1156.686
152.746	14.887	1521.858	1155.906
153.760	14.812	1520.807	1154.489
154.775	14.842	1519.704	1153.753
155.789	14.993	1518.246	1153.588
156.804	14.972	1517.155	1152.509
157.819	15.000	1516.091	1151.791
158.833	15.037	1514.961	1151.089
159.848	15.033	1514.038	1150.261
160.862	15.112	1512.434	1149.482
161.877	15.127	1511.532	1148.796
162.892	15.111	1510.046	1147.454
163.906	14.955	1509.115	1145.578
164.921	15.060	1507.421	1144.906
165.935	14.906	1506.736	1143.234
166.950	14.983	1505.985	1143.091
167.964	14.921	1504.561	1141.481
168.979	15.033	1503.513	1141.354
169.994	14.957	1502.649	1140.077
171.008	15.005	1501.748	1139.617
172.023	15.015	1500.620	1138.729
173.037	15.086	1499.459	1138.233
174.052	15.174	1498.414	1137.935
175.067	15.186	1496.951	1136.808
176.081	15.206	1496.178	1136.251
177.096	15.067	1494.881	1134.225
178.110	15.073	1493.256	1132.929
179.125	15.067	1492.109	1131.919
180.140	15.044	1490.817	1130.684
181.154	15.076	1489.996	1130.179
182.169	15.053	1489.238	1129.351
183.183	15.077	1488.297	1128.699
184.198	15.295	1486.880	1128.992
185.213	15.194	1485.735	1127.341
186.227	15.397	1484.235	1127.467
187.242	15.198	1483.977	1125.839
188.256	15.284	1482.769	1125.398
189.271	15.366	1481.431	1124.834
190.286	15.466	1480.249	1124.501
191.300	15.312	1479.333	1122.678
192.315	15.236	1477.687	1120.820
193.329	15.017	1476.554	1118.396
194.344	15.013	1475.468	1117.450
195.359	15.041	1474.799	1117.034
196.373	15.149	1473.770	1116.876
197.388	15.281	1472.735	1116.868
198.402	15.245	1471.777	1115.805
199.417	15.402	1470.592	1115.855
200.432	15.449	1469.477	1115.217
201.446	15.449	1469.183	1114.899
202.461	15.610	1468.029	1114.996
203.475	15.602	1466.355	1113.569
204.490	15.598	1465.768	1113.001
205.504	15.625	1464.615	1112.205
206.519	15.555	1463.228	1110.589
207.534	15.452	1462.309	1109.116
208.548	15.420	1460.834	1107.685
209.563	15.489	1459.922	1107.350
210.577	15.463	1459.270	1106.588
211.592	15.503	1458.082	1105.848
212.607	15.528	1457.423	1105.421
213.621	15.625	1456.870	1105.541
214.636	15.749	1455.677	1105.350
215.650	15.624	1454.704	1103.692
216.665	15.604	1453.753	1102.745
217.680	15.734	1452.674	1102.682
218.694	15.753	1452.203	1102.347
219.709	15.743	1451.827	1101.899
220.723	15.732	1450.547	1100.757
221.738	15.785	1449.688	1100.357
222.753	15.662	1449.302	1099.159
223.767	15.753	1447.666	1098.422
224.782	15.814	1446.746	1098.019
225.796	15.745	1445.841	1096.785
226.811	15.902	1444.931	1097.021
227.826	15.924	1444.151	1096.476
228.840	15.795	1443.404	1094.971
229.855	15.851	1442.160	1094.298
230.869	15.855	1441.134	1093.449
231.884	15.762	1440.402	1092.192
232.899	15.733	1439.175	1090.979
233.913	15.802	1437.673	1090.191
234.928	15.695	1436.954	1088.854
235.942	15.718	1435.747	1087.994
236.957	15.715	1434.600	1087.006
237.972	15.670	1433.290	1085.629
238.986	15.764	1432.321	1085.406
240.001	15.752	1431.417	1084.542
241.015	15.700	1430.539	1083.450
242.030	15.810	1429.028	1082.914
243.045	15.821	1428.281	1082.325
244.059	15.947	1427.256	1082.262
245.074	15.813	1426.318	1080.592
246.088	15.907	1425.783	1080.700
247.103	15.936	1425.435	1080.525
248.117	15.935	1424.463	1079.684
249.132	16.073	1423.426	1079.690
250.147	16.110	1423.014	1079.515
251.161	16.209	1422.372	1079.566
252.176	16.303	1421.844	1079.671
253.190	16.341	1421.210	1079.337
254.205	16.327	1420.493	1078.612
255.220	16.443	1419.472	1078.481
256.234	16.449	1418.482	1077.667
257.249	16.513	1417.304	1077.085
258.263	16.462	1416.876	1076.341
259.278	16.482	1415.759	1075.527
260.293	16.416	1414.773	1074.258
261.307	16.467	1414.446	1074.240
262.322	16.518	1413.350	1073.637
263.336	16.608	1412.420	1073.408
264.351	16.572	1411.570	1072.441
265.366	16.668	1410.498	1072.135
266.380	16.606	1410.175	1071.404
267.395	16.676	1408.857	1070.750
268.409	16.631	1408.131	1069.817
269.424	16.609	1406.738	1068.526
270.439	16.636	1405.811	1067.901
271.453	16.485	1404.960	1066.206
272.468	16.501	1403.965	1065.455
273.482	16.583	1403.132	1065.250
274.497	16.469	1402.824	1064.199
275.512	16.573	1401.392	1063.678
276.526	16.595	1400.332	1062.917
277.541	16.528	1399.520	1061.781
278.555	16.614	1398.591	1061.526
279.570	16.665	1397.853	1061.187
280.585	16.651	1397.044	1060.393
281.599	16.721	1396.419	1060.265
282.614	16.716	1395.429	1059.388
283.628	16.790	1393.958	1058.639
284.643	16.714	1393.102	1057.424
285.657	16.619	1392.116	1055.989
286.672	16.682	1391.383	1055.729
287.687	16.659	1390.625	1054.916
288.701	16.677	1389.019	1053.721
289.716	16.730	1388.793	1053.784
290.730	16.681	1388.524	1053.180
291.745	16.772	1386.864	1052.394
292.760	16.774	1385.934	1051.610
293.774	16.819	1385.036	1051.115
294.789	16.813	1383.834	1050.068
295.803	17.041	1383.006	1050.762
296.818	16.887	1382.477	1049.313
297.833	16.861	1381.340	1048.194
298.847	16.739	1380.700	1046.862
299.862	16.833	1379.359	1046.335
300.876	16.881	1378.100	1045.582
301.891	16.879	1377.605	1045.104
302.906	16.914	1376.914	1044.703
303.920	17.023	1375.909	1044.519
304.935	17.040	1375.311	1044.079
305.949	17.068	1374.555	1043.580
306.964	17.127	1373.778	1043.260
307.979	17.177	1372.930	1042.831
308.993	17.143	1371.563	1041.492
310.008	17.115	1371.014	1040.815
311.022	17.242	1369.441	1040.306
312.037	17.150	1369.460	1039.665
313.052	17.167	1368.342	1038.828
314.066	17.223	1366.765	1037.882
315.081	17.164	1365.844	1036.728
316.095	17.094	1364.687	1035.334
317.110	17.098	1363.613	1034.453
318.125	17.104	1362.741	1033.732
319.139	17.125	1361.572	1032.885
320.154	17.057	1360.859	1031.834
321.168	17.131	1360.079	1031.603
322.183	17.087	1358.737	1030.229
323.197	17.104	1357.552	1029.339
324.212	17.069	1357.055	1028.661
325.227	17.214	1356.411	1028.960
326.241	17.169	1355.385	1027.816
327.256	17.176	1354.516	1027.109
328.270	17.195	1354.069	1026.795
329.285	17.240	1352.759	1025.985
330.300	17.140	1352.094	1024.782
331.314	17.119	1351.326	1023.988
332.329	17.210	1350.213	1023.600
333.343	17.234	1349.404	1023.039
334.358	17.230	1348.394	1022.163
335.373	17.260	1347.737	1021.750
336.387	17.369	1346.797	1021.601
337.402	17.424	1346.039	1021.267
338.416	17.345	1345.869	1020.576
339.431	17.384	1345.015	1020.070
340.446	17.427	1344.248	1019.656
341.460	17.591	1342.846	1019.487
342.475	17.623	1342.470	1019.298
343.489	17.615	1341.582	1018.488
344.504	17.648	1341.059	1018.199
345.519	17.672	1340.048	1017.483
346.533	17.636	1339.361	1016.660
347.548	17.710	1338.135	1016.077
348.562	17.747	1337.199	1015.497
349.577	17.747	1336.435	1014.830
350.592	17.693	1335.557	1013.751
351.606	17.693	1334.518	1012.869
352.621	17.617	1333.674	1011.687
353.635	17.731	1332.058	1011.051
354.650	17.544	1331.654	1009.549
355.665	17.574	1330.539	1008.791
356.679	17.697	1329.711	1008.799
357.694	17.557	1328.682	1007.104
358.708	17.697	1327.436	1006.898
359.723	17.680	1326.604	1006.074
360.738	17.686	1325.588	1005.254
361.752	17.819	1324.237	1004.920
362.767	17.777	1323.302	1003.874
363.781	17.773	1322.386	1003.070
364.796	17.761	1321.702	1002.389
365.810	17.700	1321.702	1001.943
366.825	17.879	1320.439	1001.948
367.840	17.963	1319.613	1001.726
368.854	17.946	1319.363	1001.344
369.869	17.992	1318.968	1001.226
370.883	18.058	1317.935	1000.743
371.898	17.967	1317.466	999.766
372.913	18.025	1316.292	999.122
373.927	18.020	1315.350	998.294
374.942	18.069	1314.269	997.666
375.956	18.106	1313.607	997.292
376.971	18.119	1313.051	996.860
377.986	18.088	1312.099	995.868
379.000	18.032	1311.653	995.114
380.015	18.143	1310.595	994.871
381.029	18.178	1309.642	994.260
382.044	18.244	1309.157	994.191
383.059	18.299	1308.305	993.773
384.073	18.245	1307.706	992.919
385.088	18.276	1307.038	992.504
386.102	18.342	1306.436	992.337
387.117	18.292	1305.965	991.606
388.132	18.279	1304.903	990.633
389.146	18.241	1303.637	989.367
390.161	18.151	1303.492	988.651
391.175	18.198	1302.341	987.957
392.190	18.188	1301.278	987.009
393.205	18.216	1300.595	986.566
394.219	18.289	1299.536	986.094
395.234	18.387	1298.600	985.861
396.248	18.309	1297.382	984.399
397.263	18.314	1295.906	983.222
398.278	18.201	1294.672	981.551
399.292	18.255	1293.439	980.837
400.307	18.154	1292.334	979.335
401.321	18.347	1290.741	979.146
402.336	18.309	1290.076	978.339
403.350	18.228	1289.404	977.280
404.365	18.170	1288.552	976.214
405.380	18.233	1287.858	975.962
406.394	18.375	1287.053	976.076
407.409	18.234	1286.397	974.686
408.423	18.395	1285.466	974.812
409.438	18.495	1285.215	975.108
410.453	18.481	1284.175	974.153
411.467	18.570	1283.504	974.063
412.482	18.577	1283.558	974.058
413.496	18.658	1282.449	973.589
414.511	18.707	1281.380	972.965
415.526	18.708	1280.574	972.272
416.540	18.713	1280.232	971.960
417.555	18.762	1279.400	971.519
418.569	18.870	1278.747	971.546
419.584	18.776	1278.306	970.592
420.599	18.767	1277.601	969.922
421.613	140.694	1433.322	1795.345
422.628	135.399	1455.978	1795.441
