DTS Sentinel unit serial number:	SN413079Multiplexer serial number:	ORYXHardware model number:	OX4-SRSoftware version number:	ORYX F/W v4.00 Oryx Data Collector v3.7.2.0data status	okinstallation	princeton_trtdifferential loss correction	single-endedforward channel	channel 4reverse channel	N/Adate	2019/09/16time	21:53:35forward acquisition time	60.00reverse acquisition time	0.00gamma	496.2192k internal	0.2313k external	0.2313temperature offset calibration	0.9966default loss term (dB/km)	0.3790temperature slope calibration	1.0000multiplexer offset coefficient	1.0000multiplexer slope coefficient	1.0000fibre end	0.00T internal ref (°C)	31.25T ext. ref 1 (°C)	0.07T ext. ref 2 (°C)	25.58length (m)	temperature (°C)	Stokes	anti-Stokes-747.200	-117.909	0.301	-0.055
-746.185	199.230	0.099	-0.154
-745.171	-200.000	-0.029	0.137
-744.156	144.156	-0.270	0.365
-743.142	-200.000	-0.028	0.245
-742.127	577.182	-0.134	0.332
-741.112	-200.000	0.047	0.310
-740.098	58.412	-0.050	-0.050
-739.083	-200.000	0.025	-0.188
-738.069	86.748	-0.251	0.281
-737.054	-200.000	-0.030	-0.271
-736.039	-30.072	0.214	-0.123
-735.025	-72.722	0.257	0.096
-734.010	411.567	-0.089	-0.192
-732.996	-138.297	-0.141	0.016
-731.981	175.658	-0.044	0.064
-730.966	-102.410	-0.428	0.104
-729.952	800.000	-0.047	0.188
-728.937	-124.187	-0.210	0.033
-727.923	-59.299	-0.312	-0.136
-726.908	-200.000	-0.008	-0.308
-725.894	291.069	-0.200	0.369
-724.879	800.000	0.021	-0.062
-723.864	336.460	-0.052	-0.102
-722.850	800.000	-0.066	0.240
-721.835	-155.112	0.047	-0.003
-720.821	4.486	-0.156	-0.116
-719.806	-200.000	-0.003	-0.344
-718.791	-25.349	0.232	-0.139
-717.777	280.297	0.002	-0.004
-716.762	63.895	-0.359	0.365
-715.748	558.945	0.120	0.292
-714.733	755.731	-0.014	-0.039
-713.718	-82.079	-0.038	-0.013
-712.704	-124.294	-0.151	0.024
-711.689	-18.248	-0.152	-0.096
-710.675	-200.000	0.018	-0.269
-709.660	88.778	0.060	0.067
-708.645	-34.838	0.201	0.111
-707.631	-143.563	-0.042	0.004
-706.616	-106.717	0.194	-0.044
-705.602	-70.192	0.313	0.121
-704.587	-136.647	0.151	0.018
-703.572	800.000	0.018	-0.078
-702.558	-200.000	0.039	-0.263
-701.543	548.279	0.121	-0.292
-700.529	424.380	0.090	0.195
-699.514	800.000	-0.068	-0.259
-698.499	-200.000	0.033	0.175
-697.485	626.520	-0.042	0.107
-696.470	-43.422	0.219	0.112
-695.456	-194.308	0.021	0.000
-694.441	-200.000	-0.001	0.259
-693.426	494.416	0.066	0.153
-692.412	118.697	-0.195	-0.243
-691.397	-111.629	0.528	0.109
-690.383	-77.883	0.283	-0.099
-689.368	27.170	-0.177	0.151
-688.354	272.537	-0.105	-0.188
-687.339	800.000	-0.071	-0.269
-686.324	800.000	-0.040	-0.158
-685.310	687.444	0.058	0.154
-684.295	-167.093	-0.350	-0.014
-683.281	-200.000	-0.018	0.145
-682.266	-12.296	-0.353	0.233
-681.251	90.795	-0.174	0.197
-680.237	-123.265	-0.141	0.023
-679.222	459.857	-0.077	0.173
-678.208	126.083	-0.131	-0.167
-677.193	161.558	-0.150	0.212
-676.178	-84.832	0.169	-0.054
-675.164	37.646	0.040	-0.036
-674.149	-200.000	-0.060	0.451
-673.135	-146.903	-0.584	0.051
-672.120	-200.000	0.000	-0.154
-671.105	-73.141	0.148	-0.055
-670.091	-200.000	-0.007	0.083
-669.076	-56.044	-0.286	0.129
-668.062	-200.000	-0.009	-0.149
-667.047	-70.602	0.222	0.085
-666.032	-66.768	-0.087	-0.035
-665.018	-109.951	-0.314	-0.066
-664.003	-200.000	-0.012	-0.124
-662.989	-81.666	0.163	0.054
-661.974	456.293	-0.084	-0.189
-660.959	92.206	-0.209	0.238
-659.945	-173.692	0.136	0.004
-658.930	-4.357	0.324	0.227
-657.916	195.400	-0.067	-0.102
-656.901	-25.601	-0.227	-0.135
-655.886	675.558	0.088	0.230
-654.872	-135.035	0.187	-0.023
-653.857	-90.662	-0.539	0.157
-652.843	-200.000	0.013	-0.235
-651.828	103.775	0.114	-0.135
-650.814	33.056	-0.387	-0.339
-649.799	-7.860	0.084	0.057
-648.784	336.525	-0.071	-0.140
-647.770	261.592	-0.123	0.215
-646.755	-100.861	0.289	-0.072
-645.741	792.836	-0.080	0.223
-644.726	-31.577	0.089	0.050
-643.711	-63.234	-0.106	-0.044
-642.697	64.419	-0.147	0.149
-641.682	-2.852	0.145	0.103
-640.668	-24.609	0.469	0.282
-639.653	130.684	-0.197	-0.255
-638.638	299.473	0.066	0.122
-637.624	138.602	0.285	0.378
-636.609	-96.565	-0.208	-0.055
-635.595	-10.093	0.268	0.180
-634.580	16.628	-0.212	0.170
-633.565	160.058	-0.264	0.372
-632.551	-200.000	-0.034	-0.171
-631.536	-39.149	-0.097	0.051
-630.522	100.700	-0.184	-0.216
-629.507	-69.321	-0.281	0.109
-628.492	328.204	-0.155	-0.300
-627.478	-200.000	-0.013	0.179
-626.463	113.797	-0.104	0.127
-625.449	-64.435	-0.278	-0.114
-624.434	163.380	-0.116	-0.164
-623.419	-200.000	0.002	-0.236
-622.405	287.650	-0.188	0.343
-621.390	1.718	-0.044	0.032
-620.376	-200.000	-0.016	-0.314
-619.361	200.477	-0.045	0.070
-618.346	-97.503	-0.112	0.029
-617.332	-31.120	0.332	-0.189
-616.317	-200.000	-0.008	0.059
-615.303	-30.932	-0.196	0.112
-614.288	137.622	0.036	0.048
-613.273	800.000	0.070	0.221
-612.259	800.000	0.021	-0.081
-611.244	-200.000	-0.046	-0.288
-610.230	19.494	-0.141	-0.115
-609.215	-178.027	-0.277	0.007
-608.201	519.622	-0.051	0.120
-607.186	89.218	0.227	-0.255
-606.171	-0.950	-0.217	0.155
-605.157	-67.874	-0.495	0.195
-604.142	-47.533	-0.114	0.056
-603.128	138.350	-0.064	-0.084
-602.113	-200.000	-0.014	-0.157
-601.098	62.790	-0.165	-0.166
-600.084	-165.596	-0.152	-0.007
-599.069	-200.000	0.056	0.517
-598.055	418.519	-0.041	0.088
-597.040	-149.733	-0.117	-0.009
-596.025	228.950	0.139	-0.229
-595.011	-130.481	-0.301	0.041
-593.996	73.030	-0.239	-0.252
-592.982	-187.253	-0.073	0.001
-591.967	-53.903	-0.320	-0.147
-590.952	-200.000	0.036	-0.440
-589.938	21.817	-0.153	-0.125
-588.923	147.748	0.185	-0.251
-587.909	-41.122	-0.183	-0.095
-586.894	-200.000	-0.022	-0.261
-585.879	-27.951	0.266	0.155
-584.865	44.303	-0.166	0.153
-583.850	-93.907	-0.256	0.071
-582.836	33.704	0.160	-0.140
-581.821	-8.856	0.072	-0.049
-580.806	-57.852	0.055	-0.024
-579.792	-125.440	0.079	-0.012
-578.777	358.299	-0.164	-0.330
-577.763	-102.580	-0.144	0.035
-576.748	800.000	-0.030	-0.122
-575.733	56.158	-0.183	-0.179
-574.719	-30.235	0.257	0.147
-573.704	800.000	-0.126	-0.502
-572.690	-32.387	0.285	-0.160
-571.675	-70.240	0.073	0.028
-570.661	-118.847	-0.133	0.024
-569.646	800.000	0.030	-0.122
-568.631	-200.000	0.165	0.000
-567.617	316.201	0.054	-0.103
-566.602	154.824	0.165	0.229
-565.588	287.161	0.126	0.229
-564.573	800.000	0.026	0.104
-563.558	-19.394	-0.149	-0.093
-562.544	-200.000	-0.010	-0.061
-561.529	361.193	0.135	0.273
-560.515	-72.716	-0.077	0.029
-559.500	-200.000	0.049	0.274
-558.485	800.000	-0.093	-0.331
-557.471	-200.000	-0.024	-0.127
-556.456	-200.000	0.008	0.065
-555.442	-44.356	0.297	0.150
-554.427	387.108	0.092	0.191
-553.412	800.000	0.050	-0.196
-552.398	-76.002	0.160	-0.057
-551.383	-66.871	0.189	-0.075
-550.369	-200.000	-0.043	0.255
-549.354	800.000	0.023	-0.076
-548.339	144.631	0.077	-0.103
-547.325	-129.985	-0.464	-0.064
-546.310	-20.136	0.115	-0.071
-545.296	-9.965	-0.103	0.069
-544.281	299.171	0.151	-0.280
-543.266	-66.048	0.217	-0.087
-542.252	231.328	0.123	0.202
-541.237	-20.273	-0.205	0.127
-540.223	77.227	-0.024	0.026
-539.208	386.324	0.101	0.209
-538.193	-158.724	0.308	0.018
-537.179	-0.272	0.022	-0.016
-536.164	297.268	-0.145	-0.268
-535.150	-62.263	0.380	-0.159
-534.135	800.000	0.132	-0.373
-533.121	-200.000	-0.022	0.358
-532.106	-47.009	-0.166	-0.082
-531.091	28.933	0.085	-0.073
-530.077	-80.300	-0.382	-0.128
-529.062	-200.000	0.007	-0.325
-528.048	800.000	-0.086	-0.325
-527.033	44.629	0.036	-0.034
-526.018	-171.193	-0.135	0.005
-525.004	-200.000	-0.013	0.141
-523.989	-200.000	0.030	-0.152
-522.975	81.984	-0.162	0.176
-521.960	-200.000	-0.057	-0.310
-520.945	116.207	-0.138	0.170
-519.931	195.405	0.225	0.344
-518.916	800.000	0.050	0.162
-517.902	407.017	-0.019	0.040
-516.887	-200.000	0.000	0.150
-515.872	-200.000	-0.065	-0.513
-514.858	-97.561	-0.393	-0.103
-513.843	-145.916	-0.172	-0.015
-512.829	800.000	0.114	0.317
-511.814	452.351	-0.122	0.272
-510.799	-200.000	-0.021	-0.154
-509.785	-200.000	0.010	0.214
-508.770	146.420	-0.031	0.042
-507.756	-200.000	0.023	0.197
-506.741	-200.000	0.003	-0.084
-505.726	-200.000	0.016	-0.103
-504.712	-200.000	0.008	0.103
-503.697	212.692	0.183	0.290
-502.683	-104.105	-0.387	-0.091
-501.668	-147.497	-0.227	0.019
-500.653	626.682	-0.080	-0.203
-499.639	69.303	0.047	-0.049
-498.624	-73.560	0.036	0.013
-497.610	-83.018	0.224	-0.073
-496.595	496.160	0.069	-0.160
-495.581	63.684	0.106	0.107
-494.566	800.000	0.062	-0.185
-493.551	-200.000	-0.005	-0.050
-492.537	-90.606	-0.017	0.005
-491.522	-200.000	0.045	-0.207
-490.508	17.389	-0.142	-0.113
-489.493	800.000	-0.111	-0.446
-488.478	-146.859	-0.192	0.017
-487.464	34.292	0.087	0.076
-486.449	56.648	-0.035	0.035
-485.435	189.000	0.108	0.162
-484.420	-33.563	0.107	-0.059
-483.405	36.787	0.371	0.329
-482.391	-59.697	0.256	0.110
-481.376	286.571	-0.119	0.215
-480.362	266.254	-0.147	0.257
-479.347	53.792	-0.054	-0.052
-478.332	-200.000	-0.079	-0.432
-477.318	-200.000	-0.011	-0.269
-476.303	-200.000	0.039	0.180
-475.289	-41.439	-0.233	0.120
-474.274	9.179	-0.057	0.043
-473.259	38.148	0.255	0.228
-472.245	-3.495	-0.230	-0.161
-471.230	439.433	0.063	0.137
-470.216	-114.485	-0.117	0.023
-469.201	-200.000	0.005	-0.267
-468.186	-200.000	0.013	0.123
-467.172	53.566	0.334	-0.322
-466.157	-200.000	0.008	-0.046
-465.143	-200.000	-0.051	0.293
-464.128	-116.204	0.233	0.043
-463.113	-70.387	0.218	0.083
-462.099	-126.062	0.235	0.035
-461.084	780.613	0.099	0.272
-460.070	-3.920	0.321	-0.223
-459.055	-110.691	0.256	0.053
-458.040	329.741	-0.180	-0.347
-457.026	156.250	0.030	-0.042
-456.011	-200.000	-0.002	0.166
-454.997	-200.000	0.034	-0.262
-453.982	-200.000	0.019	-0.191
-452.968	-200.000	0.020	-0.137
-451.953	-162.212	0.187	0.009
-450.938	-6.392	-0.215	0.147
-449.924	-200.000	-0.001	0.105
-448.909	-141.632	0.153	0.015
-447.895	186.772	0.038	-0.057
-446.880	207.428	0.149	-0.233
-445.865	-0.577	-0.079	-0.056
-444.851	-107.002	0.130	-0.029
-443.836	-61.255	0.051	-0.022
-442.822	-144.485	0.299	0.028
-441.807	-125.059	0.351	-0.054
-440.792	-200.000	0.082	-0.571
-439.778	-56.569	0.051	-0.023
-438.763	800.000	0.109	0.305
-437.749	118.090	-0.037	-0.045
-436.734	-83.029	-0.239	-0.077
-435.719	42.389	-0.114	0.104
-434.705	-200.000	0.001	-0.251
-433.690	-56.372	-0.066	-0.029
-432.676	-128.334	0.377	0.054
-431.661	-200.000	0.020	0.209
-430.646	800.000	-0.112	0.355
-429.632	-200.000	-0.084	0.373
-428.617	111.758	-0.357	-0.431
-427.603	-170.349	-0.151	-0.005
-426.588	421.062	-0.057	-0.122
-425.573	130.103	-0.243	0.312
-424.559	-87.543	-0.490	-0.148
-423.544	497.685	-0.051	-0.117
-422.530	-200.000	0.021	-0.334
-421.515	168.795	0.116	0.165
-420.500	-67.121	0.198	0.078
-419.486	16.270	0.247	-0.195
-418.471	549.273	-0.089	0.213
-417.457	-167.562	-0.436	0.017
-416.442	577.612	0.029	-0.071
-415.428	-65.279	-0.067	-0.027
-414.413	123.456	-0.089	-0.112
-413.398	238.617	0.084	-0.140
-412.384	193.471	-0.016	0.025
-411.369	-158.255	0.204	0.012
-410.355	158.878	-0.181	0.252
-409.340	-114.619	-0.276	0.053
-408.325	-80.870	0.093	0.031
-407.311	768.010	0.080	0.219
-406.296	165.441	-0.063	-0.090
-405.282	-9.914	0.125	0.083
-404.267	-96.435	-0.359	0.095
-403.252	-101.822	0.207	0.050
-402.238	35.866	-0.130	-0.115
-401.223	67.062	0.134	0.136
-400.209	-200.000	-0.023	-0.158
-399.194	-63.939	-0.123	0.050
-398.179	14.059	-0.172	0.134
-397.165	-111.474	-0.236	0.048
-396.150	405.154	0.162	-0.341
-395.136	-119.599	-0.113	-0.020
-394.121	102.326	-0.158	-0.185
-393.106	79.068	-0.063	-0.067
-392.092	77.181	-0.123	0.131
-391.077	328.275	-0.052	0.101
-390.063	-144.722	-0.398	0.037
-389.048	7.618	0.227	0.170
-388.033	2.894	0.332	0.241
-387.019	-200.000	0.005	0.062
-386.004	-11.849	0.076	-0.050
-384.990	44.360	-0.212	-0.194
-383.975	73.989	0.170	0.178
-382.960	-111.840	0.186	0.038
-381.946	327.745	-0.083	-0.159
-380.931	800.000	-0.032	0.113
-379.917	-52.145	-0.249	0.115
-378.902	-1.188	0.265	-0.187
-377.888	29.455	-0.101	0.085
-376.873	7.828	-0.099	-0.074
-375.858	556.453	0.156	0.375
-374.844	-194.359	-0.329	-0.003
-373.829	-200.000	-0.009	0.103
-372.815	-144.807	0.312	-0.029
-371.800	160.766	0.052	-0.073
-370.785	19.224	-0.056	0.045
-369.771	-168.259	-0.155	-0.006
-368.756	632.533	-0.151	-0.382
-367.742	-120.354	0.287	0.049
-366.727	-74.167	0.280	0.101
-365.712	-179.412	-0.261	0.006
-364.698	31.332	-0.277	-0.238
-363.683	-200.000	-0.009	0.043
-362.669	-200.000	-0.024	-0.281
-361.654	-200.000	0.018	-0.131
-360.639	223.548	0.137	-0.221
-359.625	226.409	0.108	0.176
-358.610	-171.660	-0.154	0.005
-357.596	-24.119	-0.134	0.080
-356.581	44.104	0.195	-0.179
-355.566	197.446	-0.085	-0.129
-354.552	-121.785	-0.298	-0.049
-353.537	-200.000	0.250	-0.001
-352.523	-200.000	0.028	0.177
-351.508	12.454	-0.101	0.078
-350.493	76.211	-0.079	0.084
-349.479	0.980	-0.133	-0.095
-348.464	-48.740	-0.284	-0.136
-347.450	-56.011	-0.043	0.019
-346.435	97.373	-0.193	-0.221
-345.420	116.348	0.056	-0.069
-344.406	121.549	0.129	-0.161
-343.391	-17.441	0.097	-0.061
-342.377	20.845	0.259	-0.210
-341.362	140.821	-0.156	0.206
-340.348	-62.863	0.083	-0.034
-339.333	-200.000	0.007	-0.108
-338.318	553.105	0.114	0.273
-337.304	-107.071	-0.169	-0.037
-336.289	101.889	0.058	0.068
-335.275	800.000	-0.021	0.076
-334.260	-91.174	-0.043	0.012
-333.245	-58.970	-0.164	-0.071
-332.231	230.318	0.112	-0.182
-331.216	-137.841	0.115	0.013
-330.202	-61.629	-0.060	0.025
-329.187	-200.000	-0.039	0.297
-328.172	-200.000	0.235	-0.000
-327.158	-68.574	0.154	-0.060
-326.143	130.863	-0.266	-0.340
-325.129	-147.986	0.318	0.026
-324.114	145.888	-0.231	0.310
-323.099	-10.147	-0.186	0.123
-322.085	50.566	0.162	0.152
-321.070	800.000	0.067	-0.253
-320.056	-200.000	-0.014	0.275
-319.041	-118.917	-0.232	0.041
-318.026	638.543	0.042	0.107
-317.012	70.984	-0.253	-0.261
-315.997	54.127	0.187	0.180
-314.983	276.047	0.078	0.139
-313.968	581.529	0.087	-0.212
-312.953	-110.899	-0.064	0.013
-311.939	140.298	0.169	-0.222
-310.924	309.040	-0.145	0.271
-309.910	-200.000	0.000	0.250
-308.895	469.294	-0.079	0.176
-307.880	-76.875	0.149	-0.052
-306.866	128.735	0.168	0.213
-305.851	800.000	-0.039	0.157
-304.837	-184.793	-0.240	0.004
-303.822	106.577	0.019	0.023
-302.807	-22.554	0.187	-0.113
-301.793	-75.745	0.169	-0.060
-300.778	-142.646	0.283	0.028
-299.764	4.756	0.244	-0.179
-298.749	-156.917	0.129	-0.008
-297.735	800.000	-0.032	0.109
-296.720	205.338	-0.166	0.257
-295.705	-21.097	-0.339	0.206
-294.691	-200.000	-0.127	0.600
-293.676	3.156	-0.355	0.257
-292.662	619.253	-0.126	-0.315
-291.647	800.000	0.023	0.080
-290.632	-185.363	-0.182	0.003
-289.618	-58.605	0.279	0.120
-288.603	158.581	0.181	0.250
-287.589	-20.992	0.219	-0.134
-286.574	297.332	0.147	-0.268
-285.559	754.498	0.100	-0.270
-284.545	24.376	-0.263	-0.217
-283.530	281.497	-0.147	-0.261
-282.516	4.667	0.155	-0.114
-281.501	411.794	0.078	0.165
-280.486	1.017	-0.126	-0.090
-279.472	-200.000	-0.014	-0.125
-278.457	-200.000	0.028	0.296
-277.443	-200.000	-0.005	-0.131
-276.428	492.190	-0.177	-0.403
-275.413	191.097	-0.091	-0.137
-274.399	25.932	0.220	0.183
-273.384	406.673	0.085	0.178
-272.370	-43.845	0.270	-0.135
-271.355	-200.000	0.021	-0.143
-270.340	-200.000	0.029	-0.275
-269.326	0.095	0.201	0.143
-268.311	24.627	-0.225	-0.186
-267.297	-103.535	0.551	0.129
-266.282	-200.000	0.027	0.269
-265.267	-200.000	0.058	-0.614
-264.253	23.341	-0.117	0.096
-263.238	-200.000	0.057	0.333
-262.224	10.355	-0.101	0.077
-261.209	206.923	0.136	-0.211
-260.195	-92.713	-0.375	0.105
-259.180	-200.000	-0.003	0.243
-258.165	-35.520	0.302	-0.163
-257.151	800.000	0.032	0.134
-256.136	-51.268	-0.011	0.005
-255.122	13.838	0.222	0.172
-254.107	187.526	0.044	-0.066
-253.092	87.165	0.174	0.191
-252.078	-200.000	0.097	-0.000
-251.063	-113.911	-0.284	0.055
-250.049	124.808	0.227	0.284
-249.034	270.478	-0.132	0.231
-248.019	214.542	0.080	-0.127
-247.005	162.302	0.077	-0.107
-245.990	-142.271	0.266	-0.026
-244.976	-200.000	-0.045	-0.227
-243.961	800.000	0.044	0.143
-242.946	35.229	0.261	0.227
-241.932	-200.000	0.000	-0.076
-240.917	159.482	0.137	0.190
-239.903	-110.812	-0.175	0.036
-238.888	-200.000	0.022	0.102
-237.873	800.000	0.031	-0.089
-236.859	375.096	-0.084	0.171
-235.844	-0.024	0.210	0.149
-234.830	257.867	-0.167	-0.285
-233.815	-12.657	0.213	0.138
-232.800	-35.398	0.164	0.088
-231.786	-180.904	0.087	0.002
-230.771	113.618	0.139	0.168
-229.757	-58.457	-0.033	0.014
-228.742	-122.285	0.059	-0.010
-227.727	-52.402	-0.087	0.040
-226.713	281.809	-0.056	0.099
-225.698	-53.868	-0.349	-0.158
-224.684	-200.000	0.063	0.467
-223.669	4.708	-0.173	0.126
-222.655	765.521	-0.096	0.260
-221.640	-200.000	-0.010	0.156
-220.625	396.371	0.199	-0.412
-219.611	15.023	0.024	-0.019
-218.596	-146.070	-0.193	0.017
-217.582	170.402	-0.198	0.282
-216.567	-121.086	-0.175	0.029
-215.552	-115.680	-0.329	0.061
-214.538	-25.101	0.223	0.131
-213.523	-120.939	0.122	-0.020
-212.509	-17.294	-0.334	0.209
-211.494	800.000	0.080	0.232
-210.479	-161.207	0.064	0.003
-209.465	-179.554	0.327	0.007
-208.450	-74.395	0.261	-0.093
-207.436	534.214	0.118	-0.277
-206.421	49.550	-0.113	0.106
-205.406	-25.429	-0.289	0.170
-204.392	83.641	-0.083	0.090
-203.377	-95.053	0.225	-0.060
-202.363	181.764	-0.094	0.137
-201.348	440.758	0.116	-0.251
-200.333	36.779	0.278	-0.244
-199.319	-144.395	-0.182	-0.017
-198.304	-25.637	-0.149	0.087
-197.290	-179.518	0.097	-0.002
-196.275	800.000	0.081	-0.296
-195.260	-200.000	0.072	0.406
-194.246	-27.766	-0.133	0.077
-193.231	-200.000	0.119	0.000
-192.217	800.000	0.038	-0.146
-191.202	-112.035	0.312	-0.062
-190.187	-19.950	0.175	0.107
-189.173	76.815	-0.235	0.248
-188.158	-128.555	0.337	0.047
-187.144	51.053	0.169	-0.159
-186.129	-43.561	0.133	-0.067
-185.114	-95.204	0.184	0.049
-184.100	-200.000	0.015	0.135
-183.085	-90.711	-0.216	-0.062
-182.071	-200.000	-0.111	-0.516
-181.056	118.957	-0.130	-0.159
-180.042	347.101	-0.143	0.278
-179.027	800.000	0.073	-0.277
-178.012	800.000	0.114	0.341
-176.998	-138.601	-0.173	0.019
-175.983	-88.285	-0.219	-0.065
-174.969	-93.282	0.173	-0.048
-173.954	-191.148	0.360	-0.004
-172.939	-3.974	0.109	-0.075
-171.925	-200.000	0.030	-0.141
-170.910	-99.631	0.258	0.064
-169.896	-55.712	0.084	-0.037
-168.881	800.000	0.068	0.286
-167.866	-200.000	-0.022	-0.199
-166.852	-122.003	-0.195	0.032
-165.837	-200.000	-0.021	0.247
-164.823	342.361	0.180	-0.349
-163.808	800.000	-0.046	-0.156
-162.793	456.951	0.044	-0.098
-161.779	-65.083	0.368	-0.147
-160.764	800.000	0.083	0.283
-159.750	-200.000	0.003	0.236
-158.735	25.287	-0.173	-0.143
-157.720	31.316	-0.223	-0.190
-156.706	800.000	0.083	-0.321
-155.691	-128.071	-0.192	-0.027
-154.677	-78.403	-0.184	0.062
-153.662	-49.062	-0.170	-0.081
-152.647	56.033	0.325	0.312
-151.633	216.904	-0.062	0.098
-150.618	-91.420	0.338	0.096
-149.604	43.225	0.285	0.258
-148.589	-80.794	0.496	-0.163
-147.574	227.725	-0.100	-0.161
-146.560	90.840	-0.133	0.148
-145.545	-200.000	0.028	-0.149
-144.531	-74.976	0.215	0.076
-143.516	161.335	-0.099	-0.137
-142.502	-200.000	0.074	0.560
-141.487	-200.000	0.067	-0.301
-140.472	407.000	0.063	-0.132
-139.458	9.900	0.479	-0.360
-138.443	-15.121	0.235	0.149
-137.429	386.524	0.135	-0.275
-136.414	-87.263	-0.452	-0.136
-135.399	111.773	-0.108	-0.129
-134.385	292.526	-0.111	0.200
-133.370	88.688	0.125	0.137
-132.356	-200.000	0.009	-0.223
-131.341	-59.885	-0.187	0.079
-130.326	-2.735	-0.232	-0.161
-129.312	-111.857	0.152	0.030
-128.297	-200.000	-0.016	0.241
-127.283	286.173	-0.156	0.279
-126.268	798.051	0.071	0.193
-125.253	-200.000	0.010	0.181
-124.239	-18.613	0.046	0.028
-123.224	-200.000	0.016	-0.109
-122.210	-109.041	-0.284	-0.060
-121.195	227.549	-0.146	0.235
-120.180	354.023	-0.096	0.189
-119.166	-104.656	0.159	0.036
-118.151	-82.993	0.169	-0.054
-117.137	284.125	-0.054	-0.095
-116.122	800.000	-0.037	0.127
-115.107	288.098	-0.062	0.111
-114.093	-200.000	0.007	0.350
-113.078	235.377	-0.134	-0.219
-112.064	185.584	-0.004	-0.006
-111.049	540.635	-0.033	-0.078
-110.034	626.851	-0.176	0.440
-109.020	-35.568	0.294	0.158
-108.005	-200.000	0.068	-0.322
-106.991	-35.956	0.052	-0.028
-105.976	-200.000	-0.013	0.269
-104.962	52.225	0.293	0.276
-103.947	610.277	0.107	0.264
-102.932	230.067	0.049	-0.079
-101.918	710.532	-0.068	0.177
-100.903	25.122	-0.249	-0.205
-99.889	309.649	-0.081	-0.151
-98.874	-7.360	0.089	0.059
-97.859	-200.000	-0.029	0.317
-96.845	800.000	-0.109	0.438
-95.830	-59.090	-0.138	0.059
-94.816	800.000	-0.039	0.119
-93.801	-200.000	-0.008	-0.042
-92.786	-114.310	0.216	-0.041
-91.772	-145.487	-0.210	0.019
-90.757	98.424	0.171	-0.195
-89.743	-47.572	0.487	-0.234
-88.728	134.919	0.015	0.019
-87.713	-167.949	0.277	-0.011
-86.699	-200.000	-0.009	-0.191
-85.684	-88.911	-0.260	0.076
-84.670	716.798	-0.184	0.483
-83.655	-124.656	-0.132	-0.020
-82.640	800.000	-0.070	0.195
-81.626	30.083	0.112	0.095
-80.611	-131.755	0.336	0.044
-79.597	-146.195	0.301	-0.026
-78.582	-11.931	0.074	-0.048
-77.567	-42.221	0.241	0.122
-76.553	800.000	0.067	-0.279
-75.538	-200.000	-0.008	-0.220
-74.524	-200.000	-0.008	0.434
-73.509	-64.976	0.155	0.062
-72.494	113.182	0.072	0.087
-71.480	-102.200	0.198	-0.047
-70.465	242.042	0.055	-0.091
-69.451	465.128	0.022	0.049
-68.436	-89.366	0.204	0.059
-67.422	-105.583	0.205	0.046
-66.407	78.634	0.097	-0.102
-65.392	83.206	0.085	0.092
-64.378	8.349	-0.095	-0.070
-63.363	25.737	0.152	0.125
-62.349	-200.000	0.047	-0.287
-61.334	203.426	-0.670	-1.023
-60.319	219.477	0.313	0.494
-59.305	800.000	-0.202	-0.779
-58.290	122.928	0.879	1.087
-57.276	800.000	0.492	1.429
-56.261	-200.000	99.459	586.756
-55.246	507.228	1405.925	3219.950
-54.232	155.536	2582.862	3510.864
-53.217	101.141	2300.650	2642.949
-52.203	37.715	2059.416	1805.054
-51.188	32.895	1973.765	1686.968
-50.173	31.460	1955.714	1658.751
-49.159	46.233	2007.657	1836.001
-48.144	47.496	2026.548	1864.575
-47.130	33.573	1986.786	1703.920
-46.115	31.263	1976.949	1674.729
-45.100	31.148	1973.800	1670.969
-44.086	31.195	1971.246	1669.160
-43.071	31.117	1968.925	1666.433
-42.057	31.078	1966.535	1663.993
-41.042	31.072	1964.670	1662.295
-40.027	31.143	1962.786	1661.267
-39.013	31.139	1961.277	1659.886
-37.998	31.194	1959.014	1658.398
-36.984	31.271	1956.957	1657.275
-35.969	31.257	1955.549	1655.889
-34.954	31.240	1953.678	1654.092
-33.940	31.192	1952.551	1652.649
-32.925	31.218	1950.348	1650.947
-31.911	31.234	1948.830	1649.739
-30.896	31.267	1947.616	1648.932
-29.881	31.258	1946.134	1647.533
-28.867	31.272	1944.568	1646.267
-27.852	31.342	1942.187	1644.801
-26.838	31.274	1940.656	1642.843
-25.823	31.322	1938.828	1641.654
-24.809	31.283	1936.970	1639.671
-23.794	31.245	1935.743	1638.233
-22.779	31.266	1933.699	1636.619
-21.765	31.258	1932.617	1635.568
-20.750	31.234	1930.468	1633.479
-19.736	31.269	1929.124	1632.582
-18.721	31.270	1927.216	1630.908
-17.706	31.274	1925.979	1629.838
-16.692	31.357	1923.724	1628.587
-15.677	31.289	1922.361	1626.774
-14.663	31.250	1921.317	1625.491
-13.648	31.250	1919.804	1624.138
-12.633	31.296	1918.743	1623.579
-11.619	31.233	1918.032	1622.368
-10.604	31.210	1915.981	1620.364
-9.590	31.193	1914.727	1619.098
-8.575	31.210	1913.002	1617.723
-7.560	31.306	1911.584	1617.286
-6.546	31.319	1909.991	1615.987
-5.531	31.257	1909.332	1614.828
-4.517	31.202	1908.798	1613.842
-3.502	31.286	1906.930	1612.926
-2.487	31.193	1906.176	1611.418
-1.473	31.258	1905.113	1611.012
-0.458	31.323	1900.085	1607.258
0.556	29.137	1880.465	1579.769
1.571	25.051	1861.723	1529.110
2.586	21.135	1884.427	1513.726
3.600	20.061	1920.181	1532.814
4.615	19.886	1915.461	1527.363
5.629	15.547	1814.879	1410.666
6.644	6.111	1694.243	1242.491
7.659	0.574	1655.227	1170.917
8.673	0.179	1651.430	1165.072
9.688	0.028	1650.931	1163.444
10.702	0.119	1648.704	1162.480
11.717	-0.036	1645.577	1158.971
12.731	0.548	1645.382	1163.235
13.746	7.235	1660.005	1225.324
14.761	15.687	1676.478	1303.138
15.775	17.947	1678.287	1321.945
16.790	16.960	1674.966	1311.587
17.804	15.941	1671.303	1300.735
18.819	14.838	1668.762	1290.137
19.834	14.264	1666.506	1283.847
20.848	14.039	1664.711	1280.620
21.863	13.726	1663.164	1276.910
22.877	13.521	1661.654	1274.056
23.892	13.222	1660.420	1270.702
24.907	13.162	1658.897	1268.964
25.921	13.131	1657.881	1267.833
26.936	13.186	1656.928	1267.412
27.950	13.305	1655.978	1267.485
28.965	13.249	1655.643	1266.687
29.980	13.300	1655.019	1266.491
30.994	13.372	1653.754	1265.960
32.009	13.445	1652.205	1265.221
33.023	13.497	1651.951	1265.317
34.038	13.407	1651.315	1264.030
35.053	13.398	1650.407	1263.153
36.067	13.396	1648.971	1261.927
37.082	13.383	1647.894	1260.890
38.096	13.328	1646.846	1259.555
39.111	13.417	1646.170	1259.605
40.126	13.492	1645.517	1259.564
41.140	13.290	1644.983	1257.507
42.155	13.246	1643.629	1256.033
43.169	13.236	1641.627	1254.310
44.184	13.178	1640.453	1252.866
45.199	13.180	1639.943	1252.381
46.213	13.139	1638.479	1250.841
47.228	13.132	1637.376	1249.836
48.242	13.314	1635.610	1249.750
49.257	13.207	1635.407	1248.676
50.271	13.350	1633.321	1248.054
51.286	13.369	1632.194	1247.227
52.301	13.204	1631.632	1245.445
53.315	13.289	1629.768	1244.550
54.330	13.181	1628.450	1242.617
55.344	13.206	1626.653	1241.326
56.359	13.142	1625.567	1239.905
57.374	13.187	1624.432	1239.266
58.388	13.205	1622.928	1238.151
59.403	13.149	1621.790	1236.748
60.417	13.147	1620.336	1235.516
61.432	13.044	1619.787	1234.219
62.447	13.123	1618.414	1233.656
63.461	13.090	1617.264	1232.418
64.476	13.044	1615.795	1230.852
65.490	13.081	1614.507	1230.039
66.505	12.987	1613.726	1228.632
67.520	12.999	1612.955	1228.027
68.534	13.113	1611.430	1227.605
69.549	13.122	1610.304	1226.703
70.563	13.201	1609.318	1226.428
71.578	13.183	1607.605	1224.887
72.593	13.058	1606.985	1223.373
73.607	12.967	1606.314	1222.085
74.622	13.042	1604.511	1221.158
75.636	13.014	1604.200	1220.603
76.651	13.024	1602.727	1219.454
77.666	12.953	1602.301	1218.497
78.680	12.976	1601.638	1218.052
79.695	13.100	1599.812	1217.469
80.709	13.067	1599.271	1216.705
81.724	13.134	1598.137	1216.233
82.739	13.115	1597.665	1215.621
83.753	13.181	1596.596	1215.187
84.768	13.282	1595.390	1214.907
85.782	13.330	1594.514	1214.482
86.797	13.328	1593.865	1213.869
87.812	13.338	1592.871	1213.079
88.826	13.228	1592.432	1211.826
89.841	13.145	1590.976	1210.006
90.855	13.336	1589.283	1210.008
91.870	13.300	1588.368	1208.938
92.884	13.242	1587.847	1208.010
93.899	13.331	1586.499	1207.532
94.914	13.363	1585.571	1206.949
95.928	13.362	1584.620	1206.111
96.943	13.370	1583.087	1204.894
97.957	13.442	1581.701	1204.263
98.972	13.365	1579.948	1202.261
99.987	13.252	1579.369	1200.888
101.001	13.274	1577.040	1199.171
102.016	13.310	1575.718	1198.325
103.030	13.333	1574.091	1197.148
104.045	13.363	1573.456	1196.776
105.060	13.289	1571.943	1194.979
106.074	13.199	1570.512	1193.141
107.089	13.260	1569.367	1192.604
108.103	13.085	1567.961	1190.167
109.118	13.208	1565.862	1189.355
110.133	13.146	1564.784	1187.984
111.147	13.171	1563.369	1186.985
112.162	13.161	1562.012	1185.778
113.176	13.094	1560.811	1184.284
114.191	13.113	1559.633	1183.423
115.206	13.242	1558.105	1183.078
116.220	13.150	1556.707	1181.252
117.235	13.224	1555.275	1180.589
118.249	13.221	1554.157	1179.618
119.264	13.281	1552.717	1178.849
120.279	13.211	1551.579	1177.383
121.293	13.142	1550.000	1175.590
122.308	13.125	1548.463	1174.197
123.322	13.086	1547.328	1172.953
124.337	13.146	1545.517	1171.904
125.352	13.103	1544.397	1170.643
126.366	13.130	1543.105	1169.755
127.381	13.119	1542.356	1169.009
128.395	13.081	1541.447	1167.944
129.410	13.178	1539.889	1167.343
130.424	13.201	1538.424	1166.295
131.439	13.195	1537.318	1165.312
132.454	13.239	1535.954	1164.485
133.468	13.268	1534.462	1163.451
134.483	13.236	1533.121	1162.109
135.497	13.356	1531.602	1161.700
136.512	13.220	1530.890	1160.099
137.527	13.315	1528.752	1159.047
138.541	13.256	1527.988	1157.946
139.556	13.249	1526.024	1156.306
140.570	13.265	1524.779	1155.371
141.585	13.406	1523.238	1155.088
142.600	13.368	1522.673	1154.295
143.614	13.400	1521.262	1153.348
144.629	13.344	1520.123	1151.986
145.643	13.416	1518.753	1151.346
146.658	13.514	1517.326	1150.850
147.673	13.523	1515.843	1149.685
148.687	13.439	1514.045	1147.632
149.702	13.347	1512.979	1146.090
150.716	13.362	1511.082	1144.657
151.731	13.353	1510.082	1143.733
152.746	13.472	1508.644	1143.361
153.760	13.438	1507.882	1142.453
154.775	13.399	1506.126	1140.750
155.789	13.403	1504.806	1139.677
156.804	13.466	1503.751	1139.211
157.819	13.495	1502.759	1138.562
158.833	13.521	1501.483	1137.667
159.848	13.523	1500.129	1136.560
160.862	13.512	1499.534	1135.929
161.877	13.685	1497.709	1135.633
162.892	13.608	1496.522	1134.107
163.906	13.511	1494.754	1132.000
164.921	13.539	1493.762	1131.342
165.935	13.421	1492.845	1129.739
166.950	13.420	1492.323	1129.241
167.964	13.525	1491.056	1128.894
168.979	13.529	1490.236	1128.203
169.994	13.577	1488.375	1127.021
171.008	13.616	1487.445	1126.481
172.023	13.581	1486.601	1125.502
173.037	13.638	1485.003	1124.580
174.052	13.674	1484.259	1124.164
175.067	13.731	1483.326	1123.744
176.081	13.663	1481.743	1121.985
177.096	13.564	1480.648	1120.389
178.110	13.544	1479.134	1119.005
179.125	13.516	1478.017	1117.874
180.140	13.559	1477.047	1117.334
181.154	13.618	1476.134	1116.941
182.169	13.662	1474.786	1116.115
183.183	13.762	1473.520	1115.731
184.198	13.769	1472.645	1115.017
185.213	13.869	1471.119	1114.436
186.227	13.725	1470.548	1112.942
187.242	13.812	1469.397	1112.554
188.256	13.832	1468.654	1112.028
189.271	13.816	1467.790	1111.167
190.286	13.860	1466.639	1110.487
191.300	13.866	1465.583	1109.634
192.315	13.694	1464.208	1107.343
193.329	13.679	1462.668	1105.982
194.344	13.673	1461.771	1105.165
195.359	13.616	1460.987	1104.098
196.373	13.663	1459.910	1103.495
197.388	13.892	1458.569	1103.909
198.402	13.888	1457.835	1103.229
199.417	13.969	1456.174	1102.413
200.432	14.009	1455.325	1101.937
201.446	14.078	1454.303	1101.523
202.461	13.985	1453.313	1100.058
203.475	14.094	1452.310	1099.925
204.490	14.113	1451.224	1099.129
205.504	14.114	1450.009	1098.119
206.519	13.983	1448.797	1096.241
207.534	14.037	1448.031	1095.918
208.548	14.035	1446.505	1094.652
209.563	14.052	1445.601	1093.985
210.577	14.029	1444.825	1093.147
211.592	14.033	1443.920	1092.398
212.607	14.020	1443.488	1091.885
213.621	14.156	1442.820	1092.175
214.636	14.226	1441.631	1091.638
215.650	14.122	1440.529	1090.025
216.665	14.137	1439.299	1089.095
217.680	14.261	1438.800	1089.432
218.694	14.212	1438.546	1088.829
219.709	14.215	1437.806	1088.191
220.723	14.297	1436.256	1087.458
221.738	14.119	1435.555	1085.663
222.753	14.287	1434.654	1085.984
223.767	14.341	1433.630	1085.467
224.782	14.286	1432.654	1084.269
225.796	14.374	1431.817	1084.115
226.811	14.276	1431.010	1082.770
227.826	14.349	1430.389	1082.678
228.840	14.327	1429.680	1081.906
229.855	14.224	1428.784	1080.463
230.869	14.374	1427.535	1080.395
231.884	14.464	1426.145	1079.829
232.899	14.353	1425.226	1078.318
233.913	14.298	1424.389	1077.237
234.928	14.334	1423.217	1076.487
235.942	14.372	1421.220	1075.128
236.957	14.288	1420.511	1073.956
237.972	14.364	1419.567	1073.635
238.986	14.330	1418.447	1072.476
240.001	14.306	1417.968	1071.863
241.015	14.415	1416.364	1071.253
242.030	14.413	1414.664	1069.860
243.045	14.449	1414.260	1069.695
244.059	14.469	1413.612	1069.237
245.074	14.551	1412.721	1068.991
246.088	14.454	1412.157	1067.853
247.103	14.641	1410.959	1068.046
248.117	14.644	1410.284	1067.459
249.132	14.594	1409.924	1066.772
250.147	14.600	1409.533	1066.422
251.161	14.680	1408.743	1066.240
252.176	14.865	1408.017	1066.775
253.190	14.851	1407.319	1066.062
254.205	14.813	1406.585	1065.173
255.220	14.907	1405.403	1064.782
256.234	14.923	1404.332	1063.980
257.249	14.958	1403.789	1063.697
258.263	15.000	1403.004	1063.273
259.278	15.024	1401.858	1062.462
260.293	14.916	1401.339	1061.290
261.307	15.042	1400.347	1061.242
262.322	14.920	1399.754	1059.926
263.336	15.090	1398.415	1059.893
264.351	15.045	1397.697	1058.973
265.366	15.059	1397.032	1058.463
266.380	15.085	1395.945	1057.711
267.395	15.105	1394.925	1056.971
268.409	15.100	1393.959	1056.115
269.424	15.013	1393.280	1054.957
270.439	15.096	1391.899	1054.339
271.453	15.165	1390.840	1053.883
272.468	15.092	1390.174	1052.824
273.482	14.998	1389.481	1051.612
274.497	15.061	1388.904	1051.483
275.512	15.100	1387.714	1050.730
276.526	15.126	1386.582	1049.944
277.541	15.140	1385.698	1049.269
278.555	14.980	1385.336	1047.900
279.570	15.086	1384.382	1047.747
280.585	15.180	1383.106	1047.281
281.599	15.210	1382.518	1046.926
282.614	15.397	1381.001	1046.852
283.628	15.290	1380.110	1045.421
284.643	15.240	1379.743	1044.738
285.657	15.255	1378.633	1043.894
286.672	15.233	1377.489	1042.804
287.687	15.252	1376.716	1042.240
288.701	15.336	1375.496	1041.749
289.716	15.164	1375.262	1040.411
290.730	15.347	1374.289	1040.715
291.745	15.297	1372.903	1039.265
292.760	15.406	1371.762	1038.985
293.774	15.382	1370.959	1038.137
294.789	15.344	1369.900	1037.010
295.803	15.432	1369.065	1036.830
296.818	15.495	1368.526	1036.714
297.833	15.438	1367.286	1035.337
298.847	15.430	1366.135	1034.322
299.862	15.401	1365.687	1033.713
300.876	15.417	1364.533	1032.847
301.891	15.502	1363.689	1032.638
302.906	15.468	1363.290	1032.039
303.920	15.555	1362.088	1031.571
304.935	15.522	1361.350	1030.717
305.949	15.591	1360.419	1030.341
306.964	15.619	1359.834	1029.979
307.979	15.689	1358.661	1029.431
308.993	15.671	1358.230	1028.904
310.008	15.639	1357.175	1027.814
311.022	15.818	1355.614	1027.634
312.037	15.732	1354.629	1026.272
313.052	15.690	1353.956	1025.415
314.066	15.657	1353.264	1024.603
315.081	15.638	1352.065	1023.486
316.095	15.638	1351.007	1022.596
317.110	15.663	1349.865	1021.791
318.125	15.653	1349.127	1021.084
319.139	15.711	1348.311	1020.725
320.154	15.618	1347.453	1019.421
321.168	15.630	1346.352	1018.575
322.183	15.759	1345.259	1018.438
323.197	15.654	1344.541	1017.166
324.212	15.706	1343.891	1016.897
325.227	15.640	1343.127	1015.835
326.241	15.762	1342.099	1015.702
327.256	15.786	1341.139	1015.033
328.270	15.783	1340.138	1014.168
329.285	15.790	1339.321	1013.498
330.300	15.787	1338.415	1012.706
331.314	15.919	1337.547	1012.755
332.329	15.846	1336.808	1011.666
333.343	15.740	1336.113	1010.412
334.358	15.870	1334.862	1010.160
335.373	15.846	1334.200	1009.422
336.387	15.909	1333.037	1008.834
337.402	15.833	1332.557	1007.924
338.416	15.971	1332.138	1008.344
339.431	15.933	1331.248	1007.353
340.446	16.012	1330.952	1007.513
341.460	16.030	1329.803	1006.662
342.475	15.970	1329.181	1005.747
343.489	16.129	1327.997	1005.710
344.504	16.112	1326.953	1004.724
345.519	16.169	1326.060	1004.301
346.533	16.164	1325.185	1003.518
347.548	16.243	1324.437	1003.335
348.562	16.331	1323.169	1002.808
349.577	16.320	1322.317	1002.011
350.592	16.319	1321.667	1001.420
351.606	16.171	1321.619	1000.416
352.621	16.162	1320.058	999.095
353.635	16.132	1318.894	997.947
354.650	16.044	1318.521	997.059
355.665	16.153	1317.280	996.673
356.679	16.145	1316.454	995.912
357.694	16.171	1315.200	995.033
358.708	16.249	1313.869	994.396
359.723	16.253	1312.894	993.591
360.738	16.267	1311.898	992.830
361.752	16.324	1310.543	992.053
362.767	16.340	1309.866	991.549
363.781	16.356	1309.020	990.915
364.796	16.327	1308.269	990.086
365.810	16.395	1307.181	989.577
366.825	16.469	1306.725	989.574
367.840	16.514	1305.931	989.150
368.854	16.600	1305.055	988.901
369.869	16.594	1304.829	988.607
370.883	16.501	1304.340	987.609
371.898	16.584	1303.379	987.275
372.913	16.533	1302.682	986.366
373.927	16.448	1302.172	985.393
374.942	16.573	1301.042	985.182
375.956	16.623	1300.294	984.815
376.971	16.691	1299.131	984.243
377.986	16.619	1298.558	983.303
379.000	16.649	1297.610	982.674
380.015	16.648	1297.236	982.300
381.029	16.629	1296.467	981.520
382.044	16.796	1295.675	981.800
383.059	16.729	1294.921	980.756
384.073	16.719	1294.444	980.247
385.088	16.826	1293.711	980.224
386.102	16.836	1292.965	979.631
387.117	16.852	1292.289	979.126
388.132	16.855	1291.411	978.389
389.146	16.827	1290.342	977.334
390.161	16.761	1289.542	976.260
391.175	16.911	1288.313	976.105
392.190	16.823	1287.908	975.208
393.205	16.800	1287.037	974.331
394.219	16.972	1286.232	974.619
395.234	16.987	1284.792	973.533
396.248	16.918	1283.952	972.411
397.263	16.900	1282.468	971.101
398.278	16.861	1281.387	969.970
399.292	16.898	1279.904	968.975
400.307	16.962	1278.818	968.435
401.321	16.851	1278.235	967.273
402.336	16.777	1277.251	966.022
403.350	16.901	1275.958	965.661
404.365	16.833	1275.287	964.683
405.380	16.902	1274.620	964.485
406.394	16.944	1273.600	963.866
407.409	16.914	1272.939	963.112
408.423	16.958	1272.396	962.861
409.438	17.023	1271.774	962.676
410.453	17.110	1270.717	962.285
411.467	17.150	1270.034	961.907
412.482	17.148	1269.825	961.651
413.496	17.190	1269.187	961.320
414.511	17.243	1268.376	960.926
415.526	17.233	1267.494	960.115
416.540	17.259	1266.762	959.623
417.555	17.351	1266.172	959.608
418.569	17.325	1265.492	958.859
419.584	17.398	1264.981	958.802
420.599	17.317	1264.533	957.923
421.613	94.410	1349.699	1462.887
422.628	91.984	1362.080	1462.994
