DTS Sentinel unit serial number:	SN413079Multiplexer serial number:	ORYXHardware model number:	OX4-SRSoftware version number:	ORYX F/W v4.00 Oryx Data Collector v3.7.2.0data status	okinstallation	princeton_trtdifferential loss correction	single-endedforward channel	channel 4reverse channel	N/Adate	2019/09/12time	19:55:18forward acquisition time	15.00reverse acquisition time	0.00gamma	496.2192k internal	0.2310k external	0.2310temperature offset calibration	1.0162default loss term (dB/km)	0.3790temperature slope calibration	1.0000multiplexer offset coefficient	1.0000multiplexer slope coefficient	1.0000fibre end	0.00T internal ref (°C)	31.81T ext. ref 1 (°C)	3.38T ext. ref 2 (°C)	26.46length (m)	temperature (°C)	Stokes	anti-Stokes-747.200	800.000	-0.293	-1.121
-746.185	147.306	-0.405	-0.554
-745.171	-200.000	0.071	-0.585
-744.156	-200.000	-0.006	-0.054
-743.142	-68.757	-0.224	-0.088
-742.127	-200.000	-0.013	-0.752
-741.112	132.144	0.700	-0.915
-740.098	128.898	0.412	0.534
-739.083	157.347	0.364	0.511
-738.069	86.792	-0.388	-0.435
-737.054	-97.988	0.721	-0.189
-736.039	1.312	0.070	0.051
-735.025	-110.280	0.203	-0.043
-734.010	-53.664	-0.461	-0.214
-732.996	-65.743	-0.796	-0.324
-731.981	-200.000	0.045	-0.307
-730.966	69.970	-0.240	0.251
-729.952	-62.817	-0.553	0.232
-728.937	-200.000	-0.031	-0.333
-727.923	-200.000	0.071	0.446
-726.908	-92.997	-0.343	0.097
-725.894	-43.367	-0.508	0.261
-724.879	145.331	-0.583	-0.792
-723.864	312.024	0.312	-0.594
-722.850	293.729	0.370	0.686
-721.835	-177.107	-0.709	0.018
-720.821	-85.175	0.793	0.252
-719.806	-141.321	0.844	-0.087
-718.791	551.046	0.072	-0.176
-717.777	800.000	-0.122	0.357
-716.762	-41.363	-0.374	-0.195
-715.748	-96.373	1.106	0.297
-714.733	652.449	0.100	-0.260
-713.718	-180.832	1.166	0.024
-712.704	-41.735	-0.588	-0.306
-711.689	-5.288	-0.367	0.256
-710.675	-125.190	0.818	-0.127
-709.660	-5.063	-0.241	0.168
-708.645	-114.140	-0.693	-0.136
-707.631	321.802	-0.512	0.988
-706.616	-35.484	-0.669	0.369
-705.602	-117.570	0.220	0.040
-704.587	-15.908	0.333	-0.215
-703.572	-190.891	0.737	0.008
-702.558	-137.469	0.578	-0.066
-701.543	800.000	-0.063	-0.265
-700.529	34.617	0.249	0.221
-699.514	-12.477	-0.959	-0.635
-698.499	-200.000	-0.008	-0.700
-697.485	55.211	0.549	0.539
-696.470	-200.000	-0.185	-1.042
-695.456	-200.000	-0.073	-0.356
-694.441	470.995	-0.121	-0.275
-693.426	800.000	0.205	-0.713
-692.412	210.880	0.185	-0.294
-691.397	6.800	-0.441	-0.332
-690.383	-102.516	-0.233	0.056
-689.368	0.746	-0.860	-0.624
-688.354	-200.000	0.023	-0.359
-687.339	-200.000	0.041	-0.787
-686.324	800.000	-0.108	-0.343
-685.310	-200.000	-0.111	-0.658
-684.295	-69.201	-0.432	-0.168
-683.281	-44.777	-0.339	-0.171
-682.266	-200.000	-0.109	0.831
-681.251	22.808	0.345	-0.287
-680.237	-72.173	-1.234	-0.464
-679.222	-21.516	-0.122	-0.075
-678.208	-31.004	1.060	0.606
-677.193	-7.685	0.994	0.681
-676.178	136.927	0.456	0.604
-675.164	183.352	0.156	-0.234
-674.149	-84.095	-0.558	0.179
-673.135	-69.429	-0.470	-0.183
-672.120	-200.000	0.017	-0.427
-671.105	-83.984	-0.468	0.151
-670.091	-14.647	-0.162	-0.105
-669.076	-95.343	-0.719	-0.196
-668.062	492.787	0.513	-1.191
-667.047	800.000	-0.089	-0.380
-666.032	195.386	0.349	0.537
-665.018	-81.489	0.763	0.254
-664.003	800.000	-0.170	0.668
-662.989	-68.083	0.712	0.281
-661.974	-200.000	0.120	0.867
-660.959	-58.767	-0.384	0.168
-659.945	800.000	-0.154	0.576
-658.930	-32.123	-0.641	0.363
-657.916	-200.000	-0.063	-0.736
-656.901	-128.399	0.192	0.028
-655.886	203.376	-0.124	-0.194
-654.872	-81.722	-0.688	-0.228
-653.857	612.440	-0.244	-0.617
-652.843	-47.793	0.281	0.138
-651.828	500.856	0.140	0.326
-650.814	126.189	-0.539	-0.690
-649.799	155.861	0.373	-0.520
-648.784	-149.648	-0.528	-0.042
-647.770	141.133	-0.179	-0.240
-646.755	-39.427	0.421	0.223
-645.741	-125.364	-0.767	0.118
-644.726	-200.000	0.051	0.295
-643.711	75.599	-0.164	0.176
-642.697	-172.343	-0.299	0.010
-641.682	800.000	-0.149	-0.530
-640.668	-24.446	-0.218	-0.131
-639.653	99.741	-0.344	0.403
-638.638	800.000	0.099	0.336
-637.624	-73.008	-0.535	0.199
-636.609	-113.214	0.442	0.088
-635.595	556.586	0.322	0.784
-634.580	283.586	-0.442	-0.804
-633.565	26.614	-0.890	-0.753
-632.551	800.000	0.059	-0.247
-631.536	-200.000	0.066	0.367
-630.522	46.128	0.341	0.320
-629.507	68.656	0.850	0.882
-628.492	235.586	-0.082	-0.138
-627.478	-83.258	1.091	0.354
-626.463	-58.763	-0.229	0.100
-625.449	-87.679	0.415	0.127
-624.434	-34.135	-0.064	0.036
-623.419	332.815	-0.270	-0.526
-622.405	-61.766	-0.557	0.236
-621.390	-96.424	-0.941	-0.252
-620.376	-200.000	-0.007	0.182
-619.361	-129.796	0.540	0.075
-618.346	800.000	0.163	0.538
-617.332	-69.038	0.283	-0.110
-616.317	800.000	-0.092	0.354
-615.303	715.515	-0.268	-0.719
-614.288	-200.000	-0.167	-1.229
-613.273	-26.854	0.561	-0.331
-612.259	-143.845	-0.376	-0.036
-611.244	-101.394	-0.695	-0.171
-610.230	-160.177	0.882	-0.048
-609.215	-118.761	-0.346	0.062
-608.201	121.405	0.289	0.364
-607.186	800.000	0.167	0.656
-606.171	-152.172	0.337	0.025
-605.157	-131.007	0.073	-0.010
-604.142	47.213	0.245	-0.231
-603.128	-86.611	0.781	0.242
-602.113	59.360	0.363	0.361
-601.098	-72.680	0.457	-0.170
-600.084	-15.801	0.428	0.275
-599.069	-200.000	0.063	0.300
-598.055	375.623	-0.159	-0.327
-597.040	-200.000	0.020	-0.199
-596.025	-73.827	0.876	0.322
-595.011	-144.129	0.865	-0.082
-593.996	-134.099	-0.550	0.069
-592.982	-200.000	0.028	0.227
-591.967	-62.096	0.219	-0.092
-590.952	-50.174	-0.605	0.289
-589.938	27.218	0.212	0.180
-588.923	245.043	0.080	-0.136
-587.909	4.996	-0.864	-0.642
-586.894	-200.000	-0.002	-0.036
-585.879	-200.000	-0.088	-0.602
-584.865	-109.090	-0.282	-0.061
-583.850	119.604	-0.295	0.369
-582.836	799.352	0.300	-0.835
-581.821	256.893	-0.132	0.229
-580.806	36.047	0.948	-0.842
-579.792	39.530	-0.086	-0.078
-578.777	-200.000	0.007	-0.448
-577.763	-200.000	-0.164	0.788
-576.748	-200.000	-0.002	-0.528
-575.733	-154.616	-1.077	0.072
-574.719	29.775	-0.371	-0.318
-573.704	800.000	0.054	0.171
-572.690	-54.361	0.030	0.014
-571.675	-114.720	-0.859	0.166
-570.661	121.057	-0.648	0.813
-569.646	203.769	0.217	-0.338
-568.631	-131.600	-0.419	-0.056
-567.617	299.641	0.288	-0.536
-566.602	-145.090	0.816	0.075
-565.588	-142.869	0.727	-0.071
-564.573	-56.994	-0.428	-0.190
-563.558	-200.000	0.030	-0.424
-562.544	-64.730	-0.675	0.276
-561.529	485.830	-0.231	-0.532
-560.515	800.000	-0.476	1.410
-559.500	111.563	0.428	-0.521
-558.485	800.000	0.262	-1.093
-557.471	11.017	-0.331	-0.255
-556.456	-109.516	-0.229	-0.049
-555.442	800.000	0.277	-0.784
-554.427	-53.846	0.571	-0.262
-553.412	-200.000	-0.372	-0.002
-552.398	-43.617	0.525	-0.267
-551.383	800.000	0.045	-0.192
-550.369	800.000	0.063	0.238
-549.354	287.863	0.236	-0.430
-548.339	800.000	0.109	0.374
-547.325	-84.262	0.460	0.147
-546.310	24.188	0.241	0.200
-545.296	-106.971	0.249	0.055
-544.281	105.356	0.203	-0.241
-543.266	-98.464	-0.688	0.177
-542.252	-200.000	-0.101	-1.011
-541.237	-39.802	-0.195	0.103
-540.223	-99.697	0.430	-0.109
-539.208	-200.000	0.051	0.314
-538.193	-200.000	0.065	-0.554
-537.179	61.152	-0.617	-0.618
-536.164	-200.000	0.089	-0.754
-535.150	235.418	-0.395	0.657
-534.135	231.750	-0.491	-0.810
-533.121	-18.412	-0.244	0.153
-532.106	-32.080	-0.576	0.325
-531.091	87.951	-0.304	-0.339
-530.077	-112.347	0.653	0.132
-529.062	76.224	-0.106	-0.113
-528.048	-200.000	0.173	0.922
-527.033	-13.731	0.409	-0.267
-526.018	124.885	0.131	0.166
-525.004	-154.159	0.890	-0.061
-523.989	-125.980	0.654	-0.099
-522.975	201.222	0.390	0.604
-521.960	76.560	0.504	0.538
-520.945	82.675	-0.124	0.135
-519.931	-171.141	0.801	-0.027
-518.916	40.244	0.540	-0.489
-517.902	24.600	0.346	-0.289
-516.887	800.000	-0.226	0.801
-515.872	4.484	-0.815	-0.602
-514.858	-200.000	0.040	-0.301
-513.843	-81.811	0.526	0.174
-512.829	-200.000	0.032	-0.163
-511.814	-200.000	-0.159	-1.198
-510.799	800.000	-0.132	-0.435
-509.785	-43.690	-0.560	-0.284
-508.770	-99.029	-0.301	0.077
-507.756	160.743	0.196	0.275
-506.741	-53.339	1.117	-0.515
-505.726	166.354	-0.585	-0.834
-504.712	-101.701	0.644	-0.157
-503.697	-55.832	0.085	-0.038
-502.683	-200.000	0.046	0.242
-501.668	39.622	-0.441	-0.398
-500.653	-140.659	-0.418	-0.044
-499.639	-200.000	0.014	0.402
-498.624	-76.617	0.595	0.210
-497.610	-128.470	-1.191	0.170
-496.595	-112.734	0.535	-0.107
-495.581	-100.688	-0.763	0.189
-494.566	-47.167	-0.393	0.193
-493.551	161.721	0.362	0.510
-492.537	-200.000	0.193	0.894
-491.522	800.000	-0.119	-0.337
-490.508	-200.000	-0.073	0.503
-489.493	-200.000	-0.000	-0.083
-488.478	-108.271	0.235	-0.051
-487.464	189.031	-0.244	-0.367
-486.449	4.405	0.574	-0.423
-485.435	-135.505	0.658	-0.079
-484.420	676.394	-0.243	-0.634
-483.405	-31.386	0.578	0.327
-482.391	800.000	0.120	0.362
-481.376	-200.000	0.007	1.023
-480.362	-192.024	1.072	0.010
-479.347	98.303	-0.161	-0.186
-478.332	677.540	0.305	0.798
-477.318	167.704	0.573	0.819
-476.303	-62.351	0.768	0.321
-475.289	-200.000	-0.000	-0.186
-474.274	-175.717	0.503	-0.014
-473.259	-200.000	0.037	0.871
-472.245	42.732	-0.377	-0.345
-471.230	121.266	0.262	-0.327
-470.216	-33.966	-0.365	0.202
-469.201	102.643	-0.221	-0.260
-468.186	-75.167	0.461	0.166
-467.172	-12.878	0.704	-0.460
-466.157	417.591	0.230	-0.493
-465.143	-200.000	0.118	-0.749
-464.128	258.577	-0.182	-0.315
-463.113	458.953	0.213	0.475
-462.099	109.113	0.347	0.417
-461.084	800.000	0.227	0.642
-460.070	-97.785	-0.363	-0.094
-459.055	-14.814	0.547	-0.353
-458.040	-52.477	0.222	-0.103
-457.026	800.000	-0.121	-0.363
-456.011	-57.789	-0.834	0.366
-454.997	284.837	0.060	0.109
-453.982	-51.122	0.459	-0.216
-452.968	257.243	0.348	0.600
-451.953	-91.076	-0.544	-0.157
-450.938	-103.515	-0.401	-0.095
-449.924	-144.954	0.173	0.016
-448.909	650.465	-0.121	-0.310
-447.895	198.957	-0.207	-0.319
-446.880	-200.000	-0.189	-0.837
-445.865	-200.000	0.089	0.821
-444.851	-40.481	-0.581	0.303
-443.836	-200.000	-0.006	-0.305
-442.822	116.122	0.538	0.661
-441.807	-70.218	0.244	0.093
-440.792	-200.000	0.016	0.363
-439.778	-114.287	0.177	-0.034
-438.763	57.409	-0.251	-0.246
-437.749	-54.404	-0.507	0.231
-436.734	127.579	-0.588	0.749
-435.719	-161.435	-0.397	0.021
-434.705	84.340	-0.406	0.446
-433.690	82.404	-0.341	-0.372
-432.676	-119.631	0.594	0.103
-431.661	-136.961	-0.636	-0.073
-430.646	-26.103	-0.446	0.263
-429.632	-200.000	-0.136	-0.598
-428.617	-172.906	0.518	0.016
-427.603	-200.000	0.110	0.509
-426.588	31.239	0.168	0.145
-425.573	101.350	0.712	0.832
-424.559	-24.280	0.459	0.275
-423.544	8.117	0.690	-0.520
-422.530	-96.897	0.633	-0.167
-421.515	777.906	-0.276	-0.756
-420.500	-16.907	0.696	-0.441
-419.486	285.661	-0.380	-0.687
-418.471	392.763	-0.335	-0.700
-417.457	-106.275	-0.381	-0.086
-416.442	387.923	0.168	-0.348
-415.428	-49.325	0.647	-0.310
-414.413	-200.000	-0.038	-0.220
-413.398	80.539	0.287	-0.310
-412.384	-135.054	-0.189	0.023
-411.369	-72.692	-0.825	-0.305
-410.355	228.438	0.311	-0.508
-409.340	-1.632	0.280	-0.198
-408.325	340.845	-0.222	-0.435
-407.311	-63.729	0.305	0.125
-406.296	223.719	-0.497	-0.804
-405.282	393.155	0.102	-0.212
-404.267	-49.980	-0.356	-0.169
-403.252	-21.168	0.225	-0.138
-402.238	-32.626	0.319	-0.178
-401.223	-200.000	-0.051	-0.298
-400.209	491.000	0.096	0.220
-399.194	102.543	-0.131	0.153
-398.179	800.000	-0.291	0.950
-397.165	784.203	0.044	0.121
-396.150	-200.000	-0.002	-0.074
-395.136	-200.000	-0.065	0.620
-394.121	177.293	-0.127	0.185
-393.106	734.863	0.191	0.514
-392.092	152.554	0.198	-0.271
-391.077	240.215	0.252	0.421
-390.063	-28.397	-0.224	0.130
-389.048	800.000	0.088	-0.247
-388.033	112.466	-0.543	-0.658
-387.019	-144.347	0.986	-0.092
-386.004	-193.882	-0.266	0.002
-384.990	59.223	0.287	0.283
-383.975	-165.207	-0.639	0.028
-382.960	116.864	0.347	0.426
-381.946	-200.000	-0.009	0.456
-380.931	-89.223	-0.600	0.177
-379.917	-200.000	-0.010	0.328
-378.902	650.627	0.293	-0.751
-377.888	-99.446	-0.335	-0.084
-376.873	-91.741	0.625	-0.178
-375.858	-60.039	-0.709	0.303
-374.844	-200.000	-0.103	0.502
-373.829	-45.761	-0.398	0.197
-372.815	-200.000	0.069	0.411
-371.800	108.181	0.135	-0.162
-370.785	111.714	-0.434	-0.524
-369.771	-187.408	-0.224	0.003
-368.756	84.346	0.398	0.436
-367.742	-20.188	-0.295	-0.182
-366.727	-23.351	-0.474	-0.285
-365.712	285.429	-0.494	0.892
-364.698	-200.000	0.195	-0.964
-363.683	27.159	0.303	-0.255
-362.669	-200.000	-0.002	-0.056
-361.654	34.830	-0.153	-0.133
-360.639	-7.117	0.121	-0.082
-359.625	106.065	0.228	-0.270
-358.610	-131.922	0.823	0.107
-357.596	-200.000	-0.046	0.253
-356.581	184.899	-0.144	-0.213
-355.566	-149.069	-0.774	0.062
-354.552	-116.746	-0.842	0.155
-353.537	-150.052	-0.310	-0.024
-352.523	-57.362	-0.152	0.067
-351.508	85.026	-0.590	-0.647
-350.493	-105.731	-0.656	0.148
-349.479	-200.000	-0.054	-0.685
-348.464	800.000	-0.128	-0.458
-347.450	51.453	-0.409	0.389
-346.435	349.140	-0.243	0.480
-345.420	-36.102	-0.336	0.181
-344.406	-107.157	0.416	0.092
-343.391	800.000	-0.181	0.560
-342.377	-65.876	-0.458	-0.183
-341.362	-40.002	0.178	-0.093
-340.348	800.000	0.064	0.227
-339.333	-200.000	-0.180	0.833
-338.318	33.904	-0.283	0.246
-337.304	46.830	0.365	0.339
-336.289	-82.023	-0.743	0.242
-335.275	234.997	0.159	-0.262
-334.260	187.148	0.659	-0.981
-333.245	786.152	-0.093	0.254
-332.231	-200.000	-0.010	0.219
-331.216	122.226	-0.409	0.511
-330.202	-99.571	0.560	-0.141
-329.187	-85.333	-0.461	-0.144
-328.172	-40.170	-0.165	-0.086
-327.158	-61.457	0.483	0.203
-326.143	-29.898	-0.805	0.458
-325.129	-60.521	0.472	-0.200
-324.114	-200.000	-0.167	-1.165
-323.099	-72.884	0.435	-0.160
-322.085	800.000	-0.258	0.739
-321.070	-200.000	0.102	-0.543
-320.056	161.019	0.046	-0.064
-319.041	14.621	-0.515	-0.402
-318.026	91.592	0.146	-0.163
-317.012	-64.897	0.368	0.149
-315.997	69.470	-0.185	-0.190
-314.983	800.000	0.336	1.111
-313.968	-94.674	-0.755	-0.205
-312.953	199.264	-0.171	0.262
-311.939	-187.932	0.495	0.006
-310.924	558.483	0.410	-0.987
-309.910	-200.000	-0.175	-0.932
-308.895	-200.000	0.186	-0.845
-307.880	-69.413	-0.522	0.200
-306.866	-77.466	-0.559	-0.194
-305.851	200.091	0.122	-0.188
-304.837	86.753	0.367	0.404
-303.822	295.038	0.510	0.931
-302.807	-53.098	-0.563	-0.258
-301.793	-140.359	-0.690	-0.072
-300.778	-200.000	0.029	0.154
-299.764	65.292	0.444	-0.448
-298.749	-23.010	-0.355	-0.213
-297.735	671.385	0.284	0.734
-296.720	71.225	-0.251	0.259
-295.705	-200.000	-0.107	0.847
-294.691	126.910	0.435	0.550
-293.676	6.448	-0.456	0.338
-292.662	800.000	-0.295	-0.914
-291.647	-114.437	0.392	0.075
-290.632	136.296	0.212	-0.276
-289.618	332.060	0.306	0.590
-288.603	217.561	-0.500	0.796
-287.589	-104.690	0.464	-0.107
-286.574	-97.530	-0.303	0.078
-285.559	-67.723	0.217	-0.085
-284.545	800.000	0.118	-0.469
-283.530	-137.861	-0.794	-0.089
-282.516	0.589	0.325	-0.232
-281.501	-86.113	0.418	-0.129
-280.486	-5.542	0.303	-0.207
-279.472	228.284	-0.179	0.291
-278.457	342.874	0.074	-0.144
-277.443	652.385	0.199	-0.509
-276.428	269.867	-0.139	0.244
-275.413	600.920	-0.092	0.228
-274.399	-21.865	0.236	-0.143
-273.384	-96.611	-0.328	0.086
-272.370	-200.000	-0.013	-0.368
-271.355	-139.362	-1.228	-0.131
-270.340	131.300	-0.428	-0.548
-269.326	86.246	-0.054	0.059
-268.311	370.805	-0.271	-0.548
-267.297	54.836	-0.928	-0.893
-266.282	-200.000	-0.042	-0.606
-265.267	142.865	-0.378	-0.500
-264.253	497.783	0.302	0.692
-263.238	-143.843	-0.911	-0.086
-262.224	-5.939	0.866	0.590
-261.209	62.751	-0.408	0.407
-260.195	-13.282	-0.478	-0.309
-259.180	586.905	-0.250	-0.613
-258.165	-148.557	-0.253	-0.021
-257.151	-200.000	0.164	1.051
-256.136	14.654	-0.796	-0.620
-255.122	-46.417	0.125	-0.061
-254.107	-158.355	0.816	-0.047
-253.092	-200.000	0.021	0.092
-252.078	471.167	0.324	0.726
-251.063	-148.470	-0.394	0.032
-250.049	800.000	0.085	0.244
-249.034	-23.412	0.892	0.534
-248.019	-200.000	0.001	0.441
-247.005	719.853	0.050	-0.132
-245.990	179.328	-0.269	0.392
-244.976	408.343	0.168	0.353
-243.961	175.278	0.438	-0.632
-242.946	-88.214	-0.848	0.253
-241.932	12.973	0.280	-0.216
-240.917	15.604	-0.537	0.420
-239.903	33.251	-0.377	0.326
-238.888	44.218	-0.110	0.101
-237.873	-0.340	0.354	0.251
-236.859	206.542	0.540	0.837
-235.844	-137.111	-0.177	0.020
-234.830	-200.000	-0.112	-0.667
-233.815	59.541	-0.223	0.219
-232.800	-75.889	-0.746	-0.263
-231.786	22.803	-0.565	0.461
-230.771	219.291	0.291	0.464
-229.757	248.349	0.741	-1.248
-228.742	227.399	0.420	0.680
-227.727	800.000	0.044	0.147
-226.713	148.091	0.217	0.292
-225.698	-106.742	-0.294	-0.065
-224.684	-200.000	-0.101	-0.657
-223.669	23.884	-0.628	0.515
-222.655	302.039	0.496	-0.912
-221.640	-200.000	0.017	0.316
-220.625	-56.381	-0.482	-0.213
-219.611	-83.971	0.477	-0.151
-218.596	27.500	-0.199	0.166
-217.582	-200.000	0.024	0.522
-216.567	-200.000	-0.502	0.000
-215.552	-200.000	-0.069	-0.784
-214.538	-23.030	0.710	-0.426
-213.523	48.565	0.089	0.083
-212.509	-200.000	0.087	1.035
-211.494	45.446	0.163	-0.150
-210.479	-27.330	-0.665	-0.385
-209.465	-67.809	0.228	0.089
-208.450	800.000	0.122	0.356
-207.436	-200.000	-0.024	0.707
-206.421	-45.014	0.160	0.079
-205.406	23.551	0.844	0.690
-204.392	627.771	-0.067	0.169
-203.377	-120.846	-0.319	-0.053
-202.363	-88.155	0.741	-0.221
-201.348	800.000	0.103	0.294
-200.333	18.782	0.177	0.141
-199.319	-10.904	0.911	0.598
-198.304	553.070	0.205	-0.490
-197.290	-200.000	-0.060	-0.355
-196.275	62.470	-0.384	-0.381
-195.260	284.270	-0.525	0.939
-194.246	800.000	-0.044	0.168
-193.231	-200.000	-0.039	-0.872
-192.217	-21.826	0.516	-0.312
-191.202	114.168	-0.651	0.788
-190.187	-50.083	0.172	0.081
-189.173	224.706	0.253	-0.407
-188.158	118.626	-0.247	0.303
-187.144	40.861	-0.535	0.480
-186.129	800.000	-0.350	-1.024
-185.114	138.514	0.172	-0.224
-184.100	367.350	0.426	0.854
-183.085	44.395	1.182	-1.078
-182.071	89.346	-0.532	-0.589
-181.056	-154.588	-0.646	-0.043
-180.042	98.097	0.716	0.819
-179.027	203.962	0.245	-0.377
-178.012	-200.000	-0.058	-0.865
-176.998	75.370	0.236	0.247
-175.983	-200.000	0.005	0.730
-174.969	-120.913	0.690	0.115
-173.954	102.675	-0.165	0.192
-172.939	800.000	0.278	0.833
-171.925	68.871	0.681	0.694
-170.910	800.000	0.195	0.569
-169.896	-55.238	-0.403	0.180
-168.881	-200.000	0.101	0.822
-167.866	-200.000	-0.025	-0.553
-166.852	-162.604	-0.951	0.047
-165.837	-26.378	-0.553	-0.322
-164.823	-92.248	-0.446	0.125
-163.808	-24.240	0.069	-0.041
-162.793	0.792	0.517	-0.367
-161.779	281.144	0.035	-0.062
-160.764	475.235	0.168	-0.377
-159.750	152.911	0.380	-0.515
-158.735	91.426	0.609	0.679
-157.720	800.000	-0.065	0.270
-156.706	800.000	-0.129	0.370
-155.691	258.881	0.306	0.524
-154.677	151.894	-0.062	-0.084
-153.662	-200.000	0.100	1.235
-152.647	-10.011	-0.858	0.566
-151.633	-1.383	-0.284	-0.199
-150.618	328.358	0.256	-0.488
-149.604	-131.190	0.292	0.038
-148.589	34.806	0.813	-0.706
-147.574	400.380	0.306	0.638
-146.560	-52.341	0.394	-0.181
-145.545	190.659	-0.317	-0.473
-144.531	-149.164	0.959	0.076
-143.516	37.635	-0.236	0.208
-142.502	-12.823	0.300	0.194
-141.487	-35.012	0.539	-0.292
-140.472	-200.000	0.018	0.675
-139.458	-12.128	0.316	0.205
-138.443	104.058	-0.210	0.244
-137.429	80.872	-0.405	0.433
-136.414	-68.250	-0.390	-0.151
-135.399	-61.200	0.477	0.199
-134.385	800.000	0.269	0.839
-133.370	109.070	0.450	0.534
-132.356	-200.000	0.063	-0.399
-131.341	-54.230	-0.943	0.425
-130.326	-36.124	0.448	-0.240
-129.312	800.000	0.122	-0.502
-128.297	-128.831	-0.436	-0.061
-127.283	-120.900	1.180	-0.197
-126.268	-200.000	0.008	-0.159
-125.253	68.526	-0.478	0.486
-124.239	188.022	0.185	0.274
-123.224	800.000	-0.211	0.831
-122.210	-45.370	0.228	0.112
-121.195	800.000	0.101	0.407
-120.180	-76.803	0.584	-0.203
-119.166	340.246	-0.189	-0.366
-118.151	-200.000	-0.113	-0.884
-117.137	438.091	0.203	0.439
-116.122	108.023	0.646	-0.763
-115.107	22.308	0.524	0.424
-114.093	-93.662	-0.698	0.191
-113.078	37.792	-0.555	0.489
-112.064	-200.000	0.008	-0.229
-111.049	800.000	-0.077	0.213
-110.034	-11.053	-0.214	0.140
-109.020	-83.868	0.995	-0.314
-108.005	-182.231	-0.986	-0.018
-106.991	21.954	0.138	-0.111
-105.976	-121.464	0.210	0.035
-104.962	-116.810	0.276	0.050
-103.947	103.180	-0.055	-0.064
-102.932	215.756	0.520	-0.818
-101.918	800.000	0.050	0.212
-100.903	18.811	0.511	0.405
-99.889	129.704	0.193	-0.244
-98.874	-47.704	-0.372	-0.179
-97.859	-200.000	-0.003	-0.491
-96.845	-56.362	0.305	-0.134
-95.830	27.611	-0.509	-0.424
-94.816	162.292	0.308	-0.428
-93.801	16.290	0.286	0.223
-92.786	-49.704	-0.392	-0.185
-91.772	268.291	0.249	-0.432
-90.757	-57.093	-0.907	0.396
-89.743	-10.060	-0.538	0.354
-88.728	-200.000	0.067	0.412
-87.713	94.590	0.055	0.062
-86.699	-74.553	-0.606	-0.216
-85.684	115.528	0.193	0.233
-84.670	-92.478	0.354	-0.098
-83.655	-200.000	0.067	-0.810
-82.640	84.581	-0.431	0.467
-81.626	337.467	0.324	0.623
-80.611	69.272	-0.051	0.052
-79.597	233.192	0.372	-0.606
-78.582	18.318	-0.827	-0.653
-77.567	800.000	0.255	0.826
-76.553	2.402	-0.424	-0.303
-75.538	-79.523	-0.218	0.073
-74.524	179.442	0.793	1.149
-73.509	257.579	0.295	0.503
-72.494	37.968	-0.224	0.197
-71.480	162.177	-0.389	0.539
-70.465	99.819	-0.543	-0.622
-69.451	-14.985	0.293	0.186
-68.436	-157.560	1.032	-0.061
-67.422	-2.585	0.584	0.404
-66.407	17.469	-0.629	0.494
-65.392	-31.947	0.654	-0.362
-64.378	-130.821	0.724	0.096
-63.363	800.000	-0.133	0.485
-62.349	32.791	0.401	0.343
-61.334	78.732	-1.138	-1.204
-60.319	216.310	0.322	-0.506
-59.305	-200.000	0.157	-0.911
-58.290	-74.698	1.081	0.384
-57.276	492.129	0.643	1.456
-56.261	-200.000	97.646	602.766
-55.246	626.622	1366.077	3409.165
-54.232	198.381	2540.200	3841.503
-53.217	108.557	2281.112	2692.851
-52.203	38.603	2045.917	1804.056
-51.188	33.619	1962.818	1686.536
-50.173	32.139	1943.121	1656.497
-49.159	47.617	1997.466	1841.690
-48.144	48.248	2015.364	1863.771
-47.130	34.040	1976.649	1701.918
-46.115	31.635	1965.755	1671.036
-45.100	31.761	1962.904	1669.669
-44.086	31.746	1959.969	1666.970
-43.071	31.557	1957.803	1663.383
-42.057	31.550	1955.349	1661.166
-41.042	31.565	1953.841	1659.956
-40.027	31.738	1950.530	1658.604
-39.013	31.844	1949.500	1658.607
-37.998	31.703	1947.757	1655.809
-36.984	31.913	1945.845	1655.975
-35.969	31.609	1944.914	1652.433
-34.954	31.930	1941.549	1652.331
-33.940	31.942	1939.822	1650.908
-32.925	31.925	1939.596	1650.498
-31.911	31.762	1937.478	1647.196
-30.896	31.835	1935.411	1646.012
-29.881	31.943	1933.667	1645.410
-28.867	31.787	1932.962	1643.376
-27.852	31.826	1931.008	1641.997
-26.838	31.713	1929.610	1639.750
-25.823	31.991	1927.542	1640.358
-24.809	31.810	1925.833	1637.257
-23.794	31.905	1923.817	1636.307
-22.779	31.856	1922.284	1634.512
-21.765	31.840	1921.707	1633.818
-20.750	31.742	1918.636	1630.293
-19.736	31.865	1916.776	1629.714
-18.721	31.793	1915.917	1628.298
-17.706	31.887	1913.738	1627.193
-16.692	31.963	1912.078	1626.373
-15.677	31.785	1912.130	1624.814
-14.663	31.770	1910.905	1623.579
-13.648	31.752	1908.951	1621.694
-12.633	31.916	1906.779	1621.207
-11.619	31.851	1906.058	1619.963
-10.604	31.771	1905.282	1618.549
-9.590	31.686	1903.525	1616.260
-8.575	31.676	1902.565	1615.292
-7.560	31.824	1901.018	1615.192
-6.546	31.627	1900.370	1612.882
-5.531	31.811	1897.901	1612.301
-4.517	31.761	1898.177	1612.045
-3.502	31.858	1894.940	1610.064
-2.487	31.491	1895.743	1607.526
-1.473	31.752	1893.982	1608.213
-0.458	31.922	1889.123	1605.477
0.556	33.380	1869.092	1577.619
1.571	28.895	1849.933	1524.223
2.586	24.951	1872.985	1509.901
3.600	23.737	1906.982	1526.742
4.615	23.297	1900.209	1517.417
5.629	17.971	1800.147	1394.037
6.644	8.531	1683.441	1231.168
7.659	3.859	1647.437	1169.464
8.673	3.208	1644.583	1162.419
9.688	3.504	1642.877	1163.344
10.702	3.437	1641.442	1161.717
11.717	3.371	1637.648	1158.432
12.731	3.859	1636.458	1161.154
13.746	10.207	1652.035	1220.095
14.761	19.811	1672.249	1307.884
15.775	24.570	1681.082	1350.764
16.790	25.007	1680.965	1353.849
17.804	24.554	1678.815	1348.583
18.819	24.013	1677.571	1343.380
19.834	24.108	1675.360	1342.204
20.848	23.898	1675.274	1340.433
21.863	24.204	1673.753	1341.405
22.877	24.196	1673.570	1341.077
23.892	24.026	1672.880	1339.130
24.907	24.022	1670.943	1337.425
25.921	24.085	1669.820	1336.887
26.936	23.848	1670.371	1335.429
27.950	23.909	1668.795	1334.509
28.965	23.814	1667.419	1332.577
29.980	24.033	1667.316	1334.014
30.994	23.936	1665.942	1332.072
32.009	24.147	1664.392	1332.297
33.023	24.479	1663.330	1333.803
34.038	24.345	1662.715	1332.195
35.053	24.512	1660.642	1331.664
36.067	24.060	1660.193	1327.811
37.082	23.968	1661.538	1328.083
38.096	23.757	1659.198	1324.523
39.111	23.943	1659.086	1325.704
40.126	24.239	1658.160	1327.047
41.140	24.282	1656.378	1325.826
42.155	23.853	1656.642	1322.733
43.169	23.812	1653.094	1319.475
44.184	23.494	1652.768	1316.739
45.199	23.531	1651.773	1316.100
46.213	23.490	1650.939	1315.014
47.228	23.426	1649.887	1313.587
48.242	23.779	1648.904	1315.303
49.257	23.978	1648.890	1316.645
50.271	24.113	1645.332	1314.686
51.286	23.869	1646.889	1314.017
52.301	23.944	1644.855	1312.830
53.315	24.123	1641.950	1311.713
54.330	24.050	1641.569	1310.754
55.344	23.613	1641.130	1307.070
56.359	23.557	1638.639	1304.557
57.374	23.646	1636.787	1303.620
58.388	23.670	1636.765	1303.667
59.403	23.478	1636.144	1301.648
60.417	23.655	1633.982	1301.110
61.432	23.643	1632.500	1299.724
62.447	23.544	1631.222	1297.866
63.461	23.579	1630.169	1297.173
64.476	23.433	1628.971	1295.036
65.490	23.320	1628.916	1294.055
66.505	23.390	1627.433	1293.275
67.520	23.306	1625.912	1291.338
68.534	23.388	1626.475	1292.269
69.549	23.557	1623.905	1291.342
70.563	23.258	1623.340	1288.602
71.578	23.297	1622.779	1288.328
72.593	23.253	1621.993	1287.270
73.607	23.270	1620.022	1285.717
74.622	23.126	1618.767	1283.558
75.636	23.183	1618.137	1283.359
76.651	23.229	1618.558	1283.915
77.666	23.387	1616.386	1283.220
78.680	23.265	1615.874	1281.818
79.695	23.459	1614.539	1282.049
80.709	23.529	1614.187	1282.157
81.724	23.265	1613.771	1279.813
82.739	23.481	1613.647	1281.159
83.753	23.698	1613.093	1282.174
84.768	23.745	1611.997	1281.524
85.782	23.929	1611.422	1282.282
86.797	24.204	1611.375	1284.110
87.812	24.369	1610.391	1284.402
88.826	24.220	1609.661	1282.636
89.841	23.731	1608.665	1278.209
90.855	23.862	1607.038	1277.748
91.870	24.064	1607.201	1279.218
92.884	24.168	1604.654	1277.823
93.899	24.222	1604.495	1277.966
94.914	24.221	1603.432	1277.002
95.928	24.498	1601.736	1277.523
96.943	24.301	1600.048	1274.656
97.957	24.162	1599.758	1273.314
98.972	24.064	1598.893	1271.815
99.987	24.193	1597.048	1271.156
101.001	24.191	1595.556	1269.839
102.016	24.094	1594.400	1268.119
103.030	24.203	1591.156	1266.198
104.045	24.014	1592.215	1265.584
105.060	24.119	1589.851	1264.342
106.074	23.781	1589.011	1261.161
107.089	23.954	1586.965	1260.653
108.103	23.879	1584.380	1257.953
109.118	23.521	1583.214	1254.387
110.133	23.477	1582.220	1253.182
111.147	23.332	1581.145	1251.191
112.162	23.207	1580.011	1249.300
113.176	23.542	1578.903	1250.675
114.191	23.425	1577.625	1248.728
115.206	23.608	1576.822	1249.271
116.220	23.548	1576.371	1248.385
117.235	23.849	1574.510	1248.913
118.249	23.684	1574.013	1247.253
119.264	23.472	1573.172	1244.987
120.279	23.117	1571.356	1240.946
121.293	23.090	1570.304	1239.818
122.308	23.252	1568.905	1239.741
123.322	23.453	1566.671	1239.265
124.337	23.185	1564.448	1235.532
125.352	22.907	1563.846	1233.006
126.366	22.993	1562.561	1232.480
127.381	23.099	1562.326	1232.929
128.395	22.901	1561.283	1230.616
129.410	23.049	1560.407	1230.848
130.424	22.881	1557.810	1227.519
131.439	22.720	1558.109	1226.528
132.454	23.144	1555.675	1227.449
133.468	23.407	1554.598	1228.314
134.483	23.258	1555.693	1228.034
135.497	23.557	1552.874	1227.769
136.512	23.565	1552.570	1227.477
137.527	23.619	1550.032	1225.732
138.541	23.537	1550.583	1225.493
139.556	23.444	1547.780	1222.529
140.570	23.783	1545.443	1222.910
141.585	23.775	1545.778	1223.009
142.600	23.747	1545.821	1222.745
143.614	24.000	1544.036	1222.960
144.629	24.175	1543.374	1223.530
145.643	24.326	1543.343	1224.435
146.658	24.348	1541.011	1222.629
147.673	24.021	1540.600	1219.955
148.687	23.734	1539.216	1216.782
149.702	23.675	1538.536	1215.736
150.716	23.803	1535.601	1214.186
151.731	23.585	1534.274	1211.535
152.746	23.389	1532.772	1208.909
153.760	23.208	1531.550	1206.602
154.775	23.452	1531.288	1207.951
155.789	23.582	1529.741	1207.507
156.804	23.848	1529.145	1208.741
157.819	23.695	1528.559	1207.134
158.833	23.743	1526.741	1205.917
159.848	24.124	1524.157	1206.346
160.862	23.880	1525.277	1205.473
161.877	23.993	1523.508	1204.734
162.892	23.881	1522.208	1202.844
163.906	23.471	1521.625	1199.503
164.921	23.455	1519.091	1197.288
165.935	23.405	1518.797	1196.616
166.950	23.294	1517.760	1194.945
167.964	23.500	1516.869	1195.524
168.979	23.695	1516.740	1196.631
169.994	23.673	1514.396	1194.526
171.008	23.560	1514.718	1193.914
172.023	23.512	1512.202	1191.504
173.037	23.410	1511.926	1190.500
174.052	23.772	1511.074	1192.149
175.067	23.814	1510.339	1191.747
176.081	23.712	1510.020	1190.706
177.096	23.665	1507.539	1188.330
178.110	23.479	1506.454	1186.122
179.125	23.610	1505.040	1185.781
180.140	23.564	1504.010	1184.559
181.154	23.503	1503.349	1183.529
182.169	23.808	1502.457	1184.756
183.183	23.832	1501.409	1183.983
184.198	24.184	1499.979	1185.090
185.213	23.785	1500.015	1182.360
186.227	23.810	1499.829	1182.276
187.242	23.992	1498.980	1182.711
188.256	24.170	1497.902	1182.939
189.271	24.003	1496.169	1180.361
190.286	24.031	1495.433	1179.856
191.300	24.166	1495.295	1180.540
192.315	23.925	1494.100	1177.893
193.329	23.609	1491.924	1173.988
194.344	23.683	1491.040	1173.675
195.359	23.470	1490.436	1171.688
196.373	23.409	1488.403	1169.587
197.388	23.188	1489.330	1168.748
198.402	23.192	1487.593	1167.309
199.417	23.743	1485.634	1169.296
200.432	24.007	1485.824	1171.082
201.446	24.287	1485.342	1172.438
202.461	24.373	1485.175	1172.770
203.475	24.216	1484.057	1170.749
204.490	24.199	1483.286	1169.927
205.504	24.187	1481.154	1168.062
206.519	23.923	1479.467	1164.903
207.534	23.563	1479.614	1162.555
208.548	23.428	1478.441	1160.644
209.563	23.231	1477.041	1158.155
210.577	23.572	1475.440	1159.027
211.592	23.456	1474.898	1157.738
212.607	23.426	1474.173	1156.872
213.621	23.804	1474.931	1159.831
214.636	24.055	1474.053	1160.679
215.650	24.078	1472.433	1159.449
216.665	23.558	1472.096	1155.692
217.680	23.826	1471.110	1156.565
218.694	24.289	1470.325	1158.852
219.709	24.373	1470.558	1159.483
220.723	24.272	1468.938	1157.446
221.738	23.999	1467.695	1154.590
222.753	24.088	1466.626	1154.222
223.767	23.922	1466.233	1152.740
224.782	23.781	1465.363	1151.037
225.796	23.896	1464.027	1150.629
226.811	24.141	1464.056	1152.138
227.826	24.242	1462.059	1151.119
228.840	24.246	1461.325	1150.462
229.855	24.077	1460.401	1148.547
230.869	23.875	1459.170	1146.171
231.884	23.882	1458.930	1145.926
232.899	23.775	1458.652	1144.917
233.913	23.635	1456.098	1141.913
234.928	23.577	1454.630	1140.287
235.942	23.777	1453.556	1140.630
236.957	23.688	1452.373	1139.027
237.972	23.457	1451.665	1136.890
238.986	23.131	1450.689	1133.937
240.001	23.431	1449.126	1134.532
241.015	23.267	1448.636	1132.999
242.030	23.610	1447.168	1133.944
243.045	23.609	1446.523	1133.331
244.059	23.453	1446.612	1132.306
245.074	23.719	1445.276	1132.857
246.088	24.078	1443.968	1134.018
247.103	23.944	1443.923	1133.027
248.117	23.940	1443.921	1132.900
249.132	24.287	1442.607	1133.980
250.147	24.269	1443.108	1134.159
251.161	24.278	1442.551	1133.679
252.176	24.825	1442.544	1137.046
253.190	25.021	1441.700	1137.526
254.205	24.988	1440.257	1136.078
255.220	25.220	1439.746	1137.047
256.234	25.036	1440.023	1135.996
257.249	25.085	1438.945	1135.356
258.263	25.384	1437.598	1136.081
259.278	25.002	1436.621	1132.799
260.293	24.894	1435.788	1131.355
261.307	24.964	1434.477	1130.663
262.322	25.008	1433.612	1130.163
263.336	24.988	1433.545	1129.882
264.351	25.156	1432.227	1129.802
265.366	25.191	1432.253	1129.941
266.380	25.173	1430.193	1128.108
267.395	25.106	1429.749	1127.232
268.409	25.071	1429.618	1126.809
269.424	24.787	1428.092	1123.723
270.439	24.675	1426.854	1121.950
271.453	24.745	1425.539	1121.254
272.468	24.835	1425.201	1121.455
273.482	25.026	1423.079	1120.880
274.497	24.682	1422.602	1118.252
275.512	24.421	1423.331	1117.093
276.526	24.420	1421.578	1115.610
277.541	24.481	1420.069	1114.710
278.555	24.292	1419.238	1112.779
279.570	24.671	1418.677	1114.605
280.585	24.711	1418.914	1114.942
281.599	24.865	1418.861	1115.760
282.614	24.918	1417.627	1115.023
283.628	25.017	1415.531	1113.889
284.643	24.486	1414.375	1109.580
285.657	24.509	1414.369	1109.623
286.672	24.506	1413.458	1108.792
287.687	24.671	1412.245	1108.765
288.701	24.525	1411.089	1106.854
289.716	24.528	1409.869	1105.815
290.730	24.711	1408.607	1105.866
291.745	24.724	1408.178	1105.507
292.760	24.599	1407.843	1104.378
293.774	24.608	1406.888	1103.583
294.789	24.711	1405.432	1102.977
295.803	24.878	1405.080	1103.638
296.818	24.917	1405.184	1103.859
297.833	24.942	1403.401	1102.517
298.847	24.968	1401.426	1101.024
299.862	24.634	1401.708	1099.095
300.876	24.458	1400.716	1097.142
301.891	24.494	1399.414	1096.244
302.906	24.946	1398.624	1098.300
303.920	24.999	1398.523	1098.449
304.935	25.082	1398.010	1098.460
305.949	25.213	1397.687	1098.908
306.964	25.266	1397.373	1098.888
307.979	25.225	1395.557	1097.117
308.993	25.261	1394.756	1096.605
310.008	24.942	1394.731	1094.544
311.022	25.100	1392.296	1093.498
312.037	25.135	1392.285	1093.604
313.052	25.077	1392.092	1093.003
314.066	25.067	1389.669	1090.941
315.081	24.719	1389.215	1088.370
316.095	24.581	1387.708	1086.254
317.110	24.219	1386.650	1083.130
318.125	24.303	1385.439	1082.603
319.139	24.311	1384.273	1081.640
320.154	24.553	1383.484	1082.395
321.168	24.519	1381.988	1080.925
322.183	24.455	1381.594	1080.135
323.197	24.344	1380.266	1078.327
324.212	24.308	1380.001	1077.810
325.227	24.511	1379.220	1078.331
326.241	24.776	1378.042	1078.914
327.256	24.803	1377.265	1078.369
328.270	24.572	1377.758	1077.268
329.285	24.558	1376.316	1075.962
330.300	24.500	1375.146	1074.600
331.314	24.515	1374.953	1074.448
332.329	24.596	1373.443	1073.659
333.343	24.614	1371.792	1072.377
334.358	24.429	1371.478	1070.933
335.373	24.609	1372.150	1072.442
336.387	24.928	1371.060	1073.407
337.402	25.247	1369.704	1074.159
338.416	25.133	1369.930	1073.562
339.431	24.964	1369.868	1072.406
340.446	25.286	1368.386	1073.073
341.460	25.344	1367.479	1072.614
342.475	25.498	1367.776	1073.675
343.489	25.752	1366.417	1074.025
344.504	25.617	1365.541	1072.437
345.519	25.496	1364.232	1070.592
346.533	25.480	1364.282	1070.444
347.548	25.693	1363.723	1071.179
348.562	26.034	1362.567	1072.205
349.577	25.746	1361.651	1069.678
350.592	25.541	1360.646	1067.574
351.606	25.239	1358.818	1064.256
352.621	25.006	1358.201	1062.298
353.635	25.029	1355.631	1060.328
354.650	24.794	1355.210	1058.513
355.665	24.649	1354.760	1057.210
356.679	24.780	1353.483	1056.897
357.694	24.973	1352.635	1057.281
358.708	25.174	1351.910	1057.804
359.723	25.039	1351.406	1056.519
360.738	25.112	1349.697	1055.523
361.752	25.343	1349.072	1056.301
362.767	25.248	1348.020	1054.822
363.781	25.364	1346.229	1054.010
364.796	25.407	1345.575	1053.657
365.810	24.982	1345.705	1051.174
366.825	25.665	1345.057	1054.579
367.840	25.931	1345.097	1056.073
368.854	26.021	1344.080	1055.707
369.869	26.036	1344.386	1055.944
370.883	26.118	1343.224	1055.414
371.898	26.212	1341.167	1054.256
372.913	25.969	1341.167	1052.743
373.927	25.529	1340.030	1049.192
374.942	25.400	1340.624	1048.812
375.956	25.832	1338.779	1049.792
376.971	25.723	1339.302	1049.476
377.986	25.519	1337.707	1046.941
379.000	25.733	1336.196	1046.914
380.015	25.883	1336.604	1048.011
381.029	26.023	1336.320	1048.509
382.044	26.020	1335.257	1047.566
383.059	26.141	1334.633	1047.688
384.073	25.836	1333.828	1045.190
385.088	25.813	1333.731	1044.888
386.102	25.736	1332.751	1043.584
387.117	25.885	1331.812	1043.618
388.132	25.668	1332.054	1042.457
389.146	25.697	1328.898	1040.066
390.161	25.455	1328.144	1037.983
391.175	25.478	1326.644	1036.853
392.190	25.124	1327.368	1035.282
393.205	25.403	1325.575	1035.405
394.219	25.891	1325.619	1038.155
395.234	25.749	1325.191	1036.913
396.248	26.212	1322.647	1037.492
397.263	25.586	1322.064	1033.343
398.278	25.462	1320.517	1031.336
399.292	25.302	1320.014	1029.931
400.307	25.292	1319.023	1029.009
401.321	25.545	1318.452	1029.925
402.336	25.307	1317.580	1027.788
403.350	25.251	1315.522	1025.772
404.365	24.995	1314.180	1023.175
405.380	25.238	1312.876	1023.454
406.394	25.403	1312.509	1024.017
407.409	25.541	1312.551	1024.745
408.423	25.638	1311.838	1024.651
409.438	25.581	1312.736	1024.939
410.453	25.940	1311.805	1026.163
411.467	26.354	1309.478	1026.601
412.482	26.058	1309.989	1025.232
413.496	26.020	1309.450	1024.501
414.511	26.015	1308.680	1023.783
415.526	26.153	1308.001	1023.943
416.540	26.307	1306.889	1023.856
417.555	26.515	1306.896	1024.950
418.569	26.188	1307.497	1023.473
419.584	26.010	1307.184	1022.132
420.599	26.132	1304.879	1020.926
421.613	144.370	1434.636	1794.924
422.628	139.868	1453.494	1794.953
