DTS Sentinel unit serial number:	SN413079Multiplexer serial number:	ORYXHardware model number:	OX4-SRSoftware version number:	ORYX F/W v4.00 Oryx Data Collector v3.7.2.0data status	okinstallation	princeton_trtdifferential loss correction	single-endedforward channel	channel 4reverse channel	N/Adate	2019/09/17time	08:01:35forward acquisition time	60.00reverse acquisition time	0.00gamma	496.2192k internal	0.2319k external	0.2319temperature offset calibration	0.9980default loss term (dB/km)	0.3790temperature slope calibration	1.0000multiplexer offset coefficient	1.0000multiplexer slope coefficient	1.0000fibre end	0.00T internal ref (°C)	27.25T ext. ref 1 (°C)	0.13T ext. ref 2 (°C)	22.38length (m)	temperature (°C)	Stokes	anti-Stokes-747.200	29.649	0.019	-0.016
-746.185	-200.000	0.005	-0.057
-745.171	95.329	0.170	-0.196
-744.156	73.122	0.046	0.049
-743.142	-200.000	0.021	-0.160
-742.127	-4.257	-0.247	0.173
-741.112	-49.846	0.109	0.052
-740.098	-200.000	-0.044	0.250
-739.083	-53.141	0.301	-0.140
-738.069	222.795	-0.195	0.318
-737.054	267.419	-0.031	-0.055
-736.039	-200.000	0.014	-0.247
-735.025	-106.740	0.307	0.069
-734.010	422.649	-0.054	-0.118
-732.996	-83.159	0.126	-0.041
-731.981	-200.000	0.016	0.149
-730.966	453.599	-0.079	0.178
-729.952	694.571	-0.144	0.382
-728.937	6.228	-0.207	-0.155
-727.923	42.429	-0.227	0.209
-726.908	-22.574	0.126	-0.077
-725.894	-122.068	0.163	0.027
-724.879	-159.150	-0.194	-0.011
-723.864	149.192	0.040	0.055
-722.850	-65.064	0.218	0.089
-721.835	-5.069	-0.106	0.074
-720.821	-200.000	0.088	0.470
-719.806	105.144	-0.133	-0.159
-718.791	-33.434	-0.174	-0.097
-717.777	435.751	-0.050	0.111
-716.762	800.000	0.047	-0.188
-715.748	-75.137	-0.409	0.148
-714.733	50.054	0.107	0.102
-713.718	-200.000	0.035	-0.394
-712.704	800.000	-0.111	-0.358
-711.689	-200.000	-0.037	-0.221
-710.675	45.789	0.080	-0.075
-709.660	800.000	-0.138	0.400
-708.645	-115.551	0.139	0.026
-707.631	47.763	-0.322	-0.304
-706.616	18.812	0.101	-0.082
-705.602	-87.545	0.103	0.032
-704.587	69.676	-0.132	-0.138
-703.572	519.342	0.063	0.149
-702.558	-119.269	0.203	-0.036
-701.543	-82.749	-0.390	-0.127
-700.529	-133.849	0.275	0.034
-699.514	-37.132	-0.224	0.121
-698.499	-200.000	-0.109	-0.000
-697.485	-10.877	-0.132	-0.088
-696.470	-200.000	0.072	0.333
-695.456	207.682	-0.043	0.068
-694.441	621.325	0.092	-0.234
-693.426	263.253	-0.086	-0.151
-692.412	800.000	-0.037	-0.124
-691.397	-200.000	-0.070	0.327
-690.383	-200.000	0.017	0.281
-689.368	-116.171	0.392	-0.074
-688.354	75.606	-0.064	-0.068
-687.339	5.671	-0.065	-0.048
-686.324	-127.067	-0.127	-0.019
-685.310	-161.053	-0.022	0.001
-684.295	800.000	-0.050	0.158
-683.281	-28.837	0.182	-0.105
-682.266	-136.060	0.405	0.048
-681.251	29.165	-0.206	-0.176
-680.237	800.000	0.098	-0.275
-679.222	450.440	0.170	0.378
-678.208	-200.000	0.014	0.373
-677.193	-119.238	0.102	0.018
-676.178	-7.663	-0.101	-0.069
-675.164	800.000	0.038	-0.115
-674.149	800.000	0.070	-0.203
-673.135	-59.640	0.291	-0.126
-672.120	447.800	-0.059	0.130
-671.105	111.454	-0.189	0.230
-670.091	800.000	0.115	-0.415
-669.076	-200.000	0.020	0.175
-668.062	800.000	0.072	0.244
-667.047	699.977	-0.011	-0.030
-666.032	800.000	-0.116	0.332
-665.018	800.000	-0.057	0.229
-664.003	-6.626	-0.467	0.320
-662.989	800.000	0.092	0.319
-661.974	-111.268	-0.145	0.030
-660.959	-200.000	0.044	0.277
-659.945	-36.129	-0.246	-0.134
-658.930	800.000	-0.030	0.087
-657.916	687.280	-0.094	-0.248
-656.901	-144.359	0.202	0.019
-655.886	-13.283	0.349	0.228
-654.872	-129.817	0.458	0.063
-653.857	-166.962	0.171	0.007
-652.843	-74.641	-0.103	0.037
-651.828	90.938	-0.068	-0.076
-650.814	-78.632	0.468	-0.161
-649.799	-122.967	0.201	-0.033
-648.784	74.491	-0.126	0.134
-647.770	19.921	-0.121	-0.098
-646.755	-43.252	-0.129	0.066
-645.741	667.303	-0.022	-0.056
-644.726	-150.703	0.239	0.018
-643.711	-169.833	0.121	-0.004
-642.697	-200.000	0.070	0.325
-641.682	-66.261	-0.149	0.060
-640.668	-115.219	0.448	0.086
-639.653	353.117	0.060	-0.121
-638.638	-200.000	-0.002	0.120
-637.624	800.000	0.076	-0.272
-636.609	-200.000	-0.006	0.395
-635.595	-120.738	0.246	-0.042
-634.580	199.247	0.125	0.194
-633.565	800.000	-0.078	0.281
-632.551	-83.765	-0.240	-0.077
-631.536	-67.654	-0.336	0.132
-630.522	38.740	-0.465	-0.418
-629.507	414.901	-0.089	-0.191
-628.492	73.569	-0.274	-0.288
-627.478	171.708	-0.086	0.124
-626.463	151.518	-0.136	-0.186
-625.449	143.677	0.205	-0.276
-624.434	800.000	-0.088	0.267
-623.419	-200.000	0.006	-0.053
-622.405	-200.000	0.032	-0.240
-621.390	-200.000	0.001	0.210
-620.376	-24.817	-0.057	-0.034
-619.361	-91.680	-0.094	-0.027
-618.346	-103.034	0.125	0.030
-617.332	382.904	-0.168	-0.347
-616.317	107.301	-0.276	-0.331
-615.303	58.930	-0.124	-0.123
-614.288	-200.000	-0.010	-0.180
-613.273	-200.000	-0.024	-0.449
-612.259	-200.000	0.012	-0.097
-611.244	742.559	0.048	-0.130
-610.230	-62.095	0.113	-0.047
-609.215	231.263	-0.257	0.423
-608.201	-85.373	-0.258	-0.081
-607.186	-200.000	-0.005	-0.253
-606.171	-55.404	-0.077	0.035
-605.157	-104.181	-0.213	0.050
-604.142	-65.790	-0.267	-0.107
-603.128	-32.165	-0.271	0.152
-602.113	-3.580	0.078	0.055
-601.098	-200.000	0.003	0.025
-600.084	-180.920	0.502	0.010
-599.069	2.239	0.126	0.092
-598.055	-97.129	-0.112	0.029
-597.040	776.116	-0.038	-0.104
-596.025	-78.691	-0.308	0.106
-595.011	-113.643	-0.076	0.015
-593.996	-200.000	-0.026	0.253
-592.982	-28.037	0.164	-0.095
-591.967	391.923	-0.105	0.220
-590.952	-102.418	-0.130	0.031
-589.938	585.655	-0.124	0.306
-588.923	800.000	-0.053	0.169
-587.909	-200.000	-0.001	-0.309
-586.894	353.696	-0.102	-0.203
-585.879	-179.092	0.242	0.005
-584.865	-164.168	0.385	0.018
-583.850	660.316	0.052	-0.135
-582.836	-200.000	-0.010	-0.424
-581.821	176.653	0.118	-0.172
-580.806	15.893	0.063	-0.050
-579.792	800.000	0.062	0.188
-578.777	-200.000	-0.027	-0.381
-577.763	84.271	-0.264	0.290
-576.748	-10.524	-0.131	-0.087
-575.733	26.347	0.228	0.191
-574.719	-200.000	0.061	-0.321
-573.704	267.140	0.096	0.170
-572.690	-83.699	-0.159	0.051
-571.675	-7.532	-0.312	0.212
-570.661	18.842	0.271	-0.218
-569.646	-147.955	-0.245	-0.020
-568.631	264.782	0.155	0.271
-567.617	-66.566	-0.331	0.132
-566.602	-140.496	0.289	0.030
-565.588	-130.897	0.315	-0.042
-564.573	23.009	0.247	-0.204
-563.558	800.000	-0.085	-0.298
-562.544	-10.500	0.215	-0.143
-561.529	19.289	0.139	0.112
-560.515	-88.759	-0.349	-0.104
-559.500	-159.396	0.225	-0.013
-558.485	800.000	0.017	-0.056
-557.471	-200.000	-0.043	-0.199
-556.456	-200.000	0.021	0.164
-555.442	-2.022	0.047	-0.033
-554.427	-128.144	0.186	0.027
-553.412	455.218	0.034	-0.075
-552.398	-148.705	-0.203	0.017
-551.383	-34.999	0.057	0.031
-550.369	33.060	-0.132	-0.115
-549.354	-200.000	0.069	-0.321
-548.339	800.000	0.024	0.079
-547.325	-5.558	0.036	0.025
-546.310	-51.471	-0.038	0.018
-545.296	-136.770	0.199	-0.023
-544.281	-150.801	-0.157	-0.012
-543.266	-155.272	0.068	-0.004
-542.252	-200.000	0.020	-0.132
-541.237	800.000	0.103	-0.438
-540.223	800.000	0.121	0.372
-539.208	-200.000	0.006	0.268
-538.193	298.563	-0.212	-0.392
-537.179	-61.419	0.462	-0.195
-536.164	127.363	0.036	-0.046
-535.150	-12.485	0.147	-0.096
-534.135	-113.428	0.147	0.029
-533.121	-103.154	0.296	-0.070
-532.106	-200.000	-0.010	0.113
-531.091	203.980	-0.287	0.446
-530.077	-138.796	-0.086	-0.009
-529.062	-75.229	-0.267	-0.095
-528.048	-200.000	-0.041	-0.188
-527.033	800.000	-0.076	0.233
-526.018	-101.498	-0.275	-0.067
-525.004	116.519	0.175	0.216
-523.989	-19.191	-0.183	0.114
-522.975	-200.000	-0.041	0.244
-521.960	123.039	-0.032	0.040
-520.945	-149.058	-0.193	-0.016
-519.931	68.783	0.154	-0.158
-518.916	-200.000	0.067	-0.337
-517.902	-6.187	-0.197	-0.135
-516.887	48.227	0.163	0.153
-515.872	-200.000	0.006	0.056
-514.858	797.906	0.040	0.111
-513.843	-200.000	-0.069	0.317
-512.829	82.812	0.111	0.121
-511.814	251.886	0.078	-0.133
-510.799	-59.649	-0.027	-0.012
-509.785	345.588	-0.144	0.284
-508.770	-200.000	-0.028	-0.127
-507.756	481.765	0.069	0.157
-506.741	-78.664	0.357	-0.122
-505.726	-200.000	0.020	-0.097
-504.712	110.050	-0.230	0.277
-503.697	-200.000	0.031	-0.320
-502.683	-200.000	-0.047	0.232
-501.668	-77.300	0.282	-0.098
-500.653	224.122	0.290	-0.469
-499.639	-6.325	-0.316	0.216
-498.624	183.617	0.076	-0.113
-497.610	381.657	-0.040	-0.081
-496.595	800.000	-0.045	-0.131
-495.581	-154.058	0.158	0.011
-494.566	-18.118	0.094	-0.059
-493.551	297.672	0.035	0.064
-492.537	627.964	0.033	0.083
-491.522	145.750	-0.164	0.220
-490.508	-200.000	0.054	-0.255
-489.493	-200.000	0.018	-0.397
-488.478	-173.570	-0.208	-0.006
-487.464	152.217	-0.218	0.299
-486.449	-79.184	0.226	0.077
-485.435	51.398	-0.041	-0.039
-484.420	-86.315	0.060	0.018
-483.405	-142.134	0.278	-0.028
-482.391	800.000	-0.076	0.333
-481.376	-147.141	-0.100	0.009
-480.362	-135.348	-0.140	0.017
-479.347	366.683	0.145	-0.293
-478.332	-200.000	0.036	-0.372
-477.318	-200.000	-0.029	0.159
-476.303	-58.663	0.202	-0.088
-475.289	-32.227	-0.240	0.134
-474.274	-50.290	0.239	0.113
-473.259	-47.988	0.131	-0.063
-472.245	52.260	-0.280	-0.268
-471.230	-200.000	0.045	-0.215
-470.216	-170.471	0.279	0.010
-469.201	-88.774	-0.216	0.064
-468.186	132.322	0.061	0.079
-467.172	-200.000	-0.004	0.362
-466.157	165.275	0.165	-0.234
-465.143	12.360	0.209	0.162
-464.128	-200.000	0.047	-0.323
-463.113	-92.376	0.319	-0.090
-462.099	800.000	-0.035	-0.112
-461.084	-200.000	-0.022	-0.170
-460.070	800.000	-0.071	-0.196
-459.055	-109.763	0.041	-0.009
-458.040	496.821	0.201	0.461
-457.026	-200.000	0.033	0.271
-456.011	131.683	0.206	0.265
-454.997	800.000	0.061	0.269
-453.982	-108.887	-0.210	0.045
-452.968	89.087	-0.253	0.282
-451.953	800.000	0.045	-0.192
-450.938	-200.000	-0.001	-0.090
-449.924	-4.049	0.212	-0.147
-448.909	-80.934	-0.038	0.013
-447.895	-77.631	-0.039	-0.014
-446.880	-89.072	-0.095	-0.028
-445.865	63.559	0.206	0.207
-444.851	-140.855	0.224	0.023
-443.836	-71.090	-0.365	-0.137
-442.822	-94.207	0.159	-0.044
-441.807	-182.925	-0.247	0.004
-440.792	60.598	0.130	0.128
-439.778	-200.000	0.018	0.161
-438.763	164.293	0.109	0.153
-437.749	241.460	-0.179	0.300
-436.734	246.892	0.214	0.361
-435.719	800.000	-0.106	0.300
-434.705	599.863	0.068	-0.169
-433.690	-105.452	-0.118	-0.027
-432.676	1.240	-0.043	-0.031
-431.661	-200.000	-0.028	-0.301
-430.646	-108.373	0.392	-0.085
-429.632	-200.000	0.016	0.439
-428.617	800.000	-0.044	0.148
-427.603	680.462	0.124	-0.324
-426.588	90.976	0.097	0.108
-425.573	-200.000	-0.014	-0.212
-424.559	-107.260	-0.076	-0.017
-423.544	-74.305	0.157	-0.057
-422.530	-155.559	0.393	-0.025
-421.515	-84.438	0.169	0.053
-420.500	-182.402	0.189	0.003
-419.486	-200.000	0.035	0.279
-418.471	521.172	-0.032	0.074
-417.457	-70.523	-0.053	-0.020
-416.442	-200.000	0.029	0.174
-415.428	-16.652	-0.135	0.085
-414.413	-200.000	-0.018	-0.400
-413.398	-200.000	0.005	-0.047
-412.384	-33.037	0.505	-0.280
-411.369	292.911	-0.062	0.112
-410.355	-200.000	-0.002	0.144
-409.340	-200.000	0.033	0.295
-408.325	-15.134	0.234	-0.150
-407.311	-42.859	0.109	-0.055
-406.296	-200.000	-0.001	0.115
-405.282	-196.000	-0.235	-0.002
-404.267	-124.546	0.125	-0.019
-403.252	800.000	-0.110	-0.331
-402.238	-134.364	0.093	0.011
-401.223	42.054	-0.249	-0.226
-400.209	-200.000	-0.017	0.117
-399.194	14.645	-0.343	-0.268
-398.179	-114.869	0.172	-0.033
-397.165	-200.000	0.016	0.084
-396.150	-46.747	-0.343	-0.168
-395.136	-142.644	-0.369	0.036
-394.121	-29.827	0.135	0.077
-393.106	7.193	0.222	-0.165
-392.092	-17.260	-0.064	0.041
-391.077	126.705	-0.173	-0.219
-390.063	-103.323	-0.290	0.068
-389.048	-200.000	0.032	0.478
-388.033	1.197	-0.239	0.171
-387.019	285.505	0.136	0.244
-386.004	12.579	0.299	0.230
-384.990	800.000	0.016	-0.065
-383.975	-9.690	-0.130	0.086
-382.960	-142.127	0.341	0.034
-381.946	78.874	0.047	-0.050
-380.931	107.933	-0.178	-0.211
-379.917	174.769	-0.103	-0.149
-378.902	-58.866	-0.104	0.045
-377.888	-139.603	-0.162	-0.017
-376.873	-200.000	0.042	0.248
-375.858	-148.718	0.103	-0.008
-374.844	-32.448	-0.138	-0.077
-373.829	436.239	-0.137	0.297
-372.815	-18.959	0.065	-0.040
-371.800	-126.983	-0.225	-0.033
-370.785	-200.000	-0.144	0.000
-369.771	-31.803	0.311	0.174
-368.756	-200.000	0.020	0.247
-367.742	-200.000	-0.008	-0.249
-366.727	190.686	-0.103	-0.154
-365.712	-200.000	-0.017	-0.172
-364.698	-4.600	0.116	0.080
-363.683	485.031	0.101	0.229
-362.669	-57.260	-0.048	0.021
-361.654	-30.111	0.180	0.102
-360.639	29.673	0.085	-0.072
-359.625	800.000	0.042	0.150
-358.610	-200.000	-0.034	0.193
-357.596	38.925	0.188	0.168
-356.581	-78.760	-0.218	0.074
-355.566	398.175	-0.041	-0.085
-354.552	81.177	0.205	0.220
-353.537	800.000	0.020	-0.081
-352.523	122.393	0.117	0.146
-351.508	-200.000	-0.012	0.166
-350.493	610.007	-0.036	-0.090
-349.479	125.021	-0.083	-0.104
-348.464	-200.000	0.007	-0.098
-347.450	269.853	0.111	-0.194
-346.435	-125.253	0.169	-0.026
-345.420	-162.752	0.117	0.006
-344.406	300.035	-0.253	0.464
-343.391	37.506	-0.027	-0.024
-342.377	-85.553	-0.274	-0.085
-341.362	-110.338	-0.066	0.014
-340.348	-88.210	0.140	-0.042
-339.333	-200.000	0.002	-0.170
-338.318	-200.000	0.022	-0.119
-337.304	-68.541	0.238	0.092
-336.289	-200.000	0.004	0.020
-335.275	-200.000	0.045	-0.239
-334.260	-40.690	0.132	-0.068
-333.245	478.153	-0.140	0.316
-332.231	407.430	-0.054	-0.114
-331.216	392.972	0.039	-0.080
-330.202	-119.481	-0.156	-0.027
-329.187	-137.007	-0.187	-0.021
-328.172	-179.255	-0.374	0.008
-327.158	-200.000	0.039	-0.302
-326.143	194.748	-0.162	-0.244
-325.129	-200.000	-0.016	0.159
-324.114	-192.537	0.660	-0.006
-323.099	-63.973	0.108	-0.044
-322.085	800.000	-0.070	-0.292
-321.070	1.354	0.194	0.139
-320.056	31.402	0.285	0.243
-319.041	800.000	-0.085	0.329
-318.026	-200.000	-0.006	-0.183
-317.012	44.714	-0.186	-0.170
-315.997	-38.753	0.082	-0.043
-314.983	-54.492	-0.246	-0.111
-313.968	-122.745	0.273	-0.044
-312.953	82.486	-0.333	0.360
-311.939	-96.397	0.263	-0.069
-310.924	209.399	0.150	-0.233
-309.910	-169.316	-0.343	0.013
-308.895	63.309	-0.285	0.284
-307.880	105.639	-0.089	0.105
-306.866	-200.000	-0.054	-0.460
-305.851	-62.639	-0.159	-0.066
-304.837	-200.000	0.022	-0.132
-303.822	215.232	0.057	0.090
-302.807	256.588	0.144	-0.245
-301.793	800.000	0.078	-0.248
-300.778	-200.000	-0.013	0.112
-299.764	-151.782	0.189	-0.014
-298.749	-74.054	-0.256	0.092
-297.735	800.000	0.086	0.242
-296.720	146.343	0.103	-0.137
-295.705	-120.487	-0.251	-0.042
-294.691	-35.853	-0.160	0.086
-293.676	366.172	-0.065	-0.131
-292.662	800.000	0.007	-0.028
-291.647	-25.673	0.270	0.158
-290.632	-178.454	-0.183	-0.004
-289.618	-84.189	0.101	-0.032
-288.603	-26.261	-0.321	-0.187
-287.589	154.369	-0.090	0.123
-286.574	315.530	-0.135	0.253
-285.559	494.271	-0.095	0.217
-284.545	371.903	0.091	0.184
-283.530	-200.000	-0.019	-0.176
-282.516	-200.000	0.065	0.394
-281.501	800.000	-0.058	0.197
-280.486	800.000	-0.046	0.163
-279.472	684.539	-0.045	0.116
-278.457	1.265	-0.297	0.212
-277.443	-200.000	-0.067	-0.385
-276.428	800.000	-0.078	0.213
-275.413	800.000	-0.106	0.410
-274.399	-187.417	-0.116	-0.002
-273.384	594.649	0.124	-0.305
-272.370	250.037	0.135	-0.228
-271.355	-200.000	-0.020	-0.274
-270.340	31.782	0.073	0.062
-269.326	800.000	-0.056	0.184
-268.311	-14.232	0.419	-0.269
-267.297	-69.253	-0.118	0.045
-266.282	-34.609	0.005	-0.003
-265.267	282.630	-0.178	-0.318
-264.253	800.000	-0.057	0.184
-263.238	202.977	0.187	0.287
-262.224	-107.806	-0.112	0.024
-261.209	-200.000	-0.012	-0.253
-260.195	800.000	-0.066	0.251
-259.180	-59.723	-0.125	-0.053
-258.165	-111.317	-0.114	-0.023
-257.151	87.291	0.090	0.098
-256.136	75.031	-0.147	-0.154
-255.122	781.916	-0.174	0.472
-254.107	-200.000	-0.023	-0.114
-253.092	-42.422	-0.302	-0.153
-252.078	-200.000	0.048	0.335
-251.063	-129.875	0.224	-0.031
-250.049	110.059	0.139	-0.166
-249.034	-200.000	-0.003	-0.032
-248.019	-200.000	-0.052	0.281
-247.005	-111.058	0.211	0.043
-245.990	800.000	0.078	-0.227
-244.976	-200.000	0.051	0.316
-243.961	-200.000	0.025	0.147
-242.946	800.000	-0.031	-0.108
-241.932	570.805	-0.063	0.152
-240.917	-200.000	0.003	-0.193
-239.903	202.044	-0.098	0.149
-238.888	-42.859	-0.158	-0.080
-237.873	-200.000	-0.047	0.312
-236.859	-200.000	-0.072	0.329
-235.844	-88.373	0.450	0.133
-234.830	12.062	-0.116	-0.089
-233.815	779.423	0.021	0.056
-232.800	-138.034	-0.227	-0.025
-231.786	-28.192	-0.205	0.117
-230.771	11.565	0.328	0.250
-229.757	468.534	-0.114	0.253
-228.742	800.000	0.073	0.216
-227.727	411.007	0.015	-0.032
-226.713	749.502	-0.097	-0.259
-225.698	62.921	0.084	0.083
-224.684	-13.804	-0.144	0.092
-223.669	599.971	-0.098	-0.240
-222.655	800.000	0.073	0.223
-221.640	65.785	-0.214	0.215
-220.625	-179.143	-0.516	-0.011
-219.611	50.107	-0.155	-0.145
-218.596	-76.337	0.303	0.106
-217.582	704.845	0.084	-0.220
-216.567	117.869	0.154	-0.188
-215.552	-64.908	0.209	0.084
-214.538	43.957	0.183	-0.166
-213.523	181.660	0.147	-0.214
-212.509	-39.953	0.156	0.081
-211.494	-96.223	0.186	0.049
-210.479	255.437	0.139	-0.235
-209.465	-14.788	-0.228	-0.145
-208.450	-128.005	-0.062	-0.009
-207.436	301.428	-0.043	-0.079
-206.421	-200.000	0.005	0.079
-205.406	-200.000	-0.012	-0.082
-204.392	800.000	-0.017	-0.062
-203.377	-34.838	-0.076	-0.041
-202.363	-90.565	0.250	-0.072
-201.348	-90.138	-0.160	0.046
-200.333	-49.019	0.195	0.093
-199.319	-129.374	-0.089	0.012
-198.304	9.905	-0.151	0.113
-197.290	-0.893	-0.143	0.100
-196.275	44.228	-0.154	0.140
-195.260	36.439	-0.046	0.040
-194.246	-200.000	0.029	0.220
-193.231	-46.488	0.147	-0.072
-192.217	800.000	-0.083	-0.287
-191.202	57.906	-0.122	0.118
-190.187	12.222	0.145	0.111
-189.173	-58.915	0.151	0.065
-188.158	134.295	0.047	0.060
-187.144	301.970	-0.086	0.157
-186.129	28.261	0.252	-0.211
-185.114	-36.881	-0.105	-0.056
-184.100	189.380	-0.187	-0.277
-183.085	-172.158	0.193	0.006
-182.071	59.251	-0.023	-0.023
-181.056	63.738	0.162	-0.161
-180.042	-112.967	-0.330	-0.065
-179.027	-54.796	-0.070	-0.031
-178.012	170.315	0.206	0.291
-176.998	105.265	0.166	0.194
-175.983	-25.171	0.050	-0.030
-174.969	-200.000	0.020	0.142
-173.954	353.092	-0.165	0.324
-172.939	-200.000	-0.012	-0.075
-171.925	-200.000	0.003	0.137
-170.910	-139.286	0.137	0.015
-169.896	71.514	0.098	0.101
-168.881	-200.000	0.009	-0.048
-167.866	115.112	0.228	0.275
-166.852	-44.106	0.237	-0.118
-165.837	152.978	-0.116	-0.157
-164.823	391.884	-0.172	-0.352
-163.808	800.000	-0.147	-0.555
-162.793	788.704	-0.022	0.059
-161.779	-97.001	-0.202	0.052
-160.764	800.000	-0.094	-0.309
-159.750	-200.000	0.015	-0.279
-158.735	-93.687	-0.126	-0.034
-157.720	-200.000	0.009	-0.313
-156.706	-200.000	-0.032	-0.210
-155.691	654.382	0.125	-0.316
-154.677	162.725	0.110	-0.153
-153.662	-114.048	-0.118	0.023
-152.647	748.339	0.075	0.199
-151.633	117.364	0.048	-0.058
-150.618	-113.822	-0.028	0.005
-149.604	102.817	0.159	-0.184
-148.589	19.975	0.213	0.170
-147.574	455.482	0.042	0.092
-146.560	-119.081	-0.116	0.020
-145.545	-39.873	0.157	0.081
-144.531	-68.869	0.058	0.022
-143.516	-116.396	0.263	0.048
-142.502	-200.000	0.028	-0.207
-141.487	-73.656	-0.578	-0.208
-140.472	-137.862	0.143	0.016
-139.458	50.167	-0.164	-0.153
-138.443	-200.000	0.023	0.211
-137.429	-200.000	0.011	0.138
-136.414	800.000	-0.015	-0.047
-135.399	-164.734	0.383	-0.017
-134.385	-125.764	0.269	-0.040
-133.370	173.492	-0.120	0.171
-132.356	800.000	0.046	-0.179
-131.341	49.426	0.230	-0.214
-130.326	-24.105	0.117	0.069
-129.312	-200.000	0.017	0.149
-128.297	-200.000	0.018	0.161
-127.283	81.530	0.231	0.247
-126.268	6.771	-0.106	0.078
-125.253	-91.076	-0.290	0.082
-124.239	114.852	0.042	0.050
-123.224	-109.655	-0.200	-0.042
-122.210	-84.881	0.253	0.078
-121.195	-149.488	-0.497	-0.039
-120.180	13.633	0.265	-0.203
-119.166	-55.106	0.098	-0.043
-118.151	-173.224	-0.337	0.010
-117.137	-200.000	0.005	0.281
-116.122	-133.747	-0.073	0.009
-115.107	-200.000	0.011	0.529
-114.093	445.308	-0.091	0.196
-113.078	521.147	-0.186	0.431
-112.064	-106.629	0.288	-0.063
-111.049	433.588	0.116	0.250
-110.034	316.912	-0.113	0.210
-109.020	-64.753	0.158	0.063
-108.005	307.367	0.128	-0.235
-106.991	443.936	-0.216	0.468
-105.976	85.260	-0.218	0.236
-104.962	674.477	0.126	0.323
-103.947	26.357	-0.175	0.145
-102.932	46.050	-0.236	-0.216
-101.918	82.556	0.132	-0.141
-100.903	619.133	-0.089	-0.219
-99.889	-67.227	-0.191	0.074
-98.874	-15.274	0.051	0.032
-97.859	-35.949	-0.252	-0.134
-96.845	800.000	-0.048	0.191
-95.830	115.301	0.121	0.145
-94.816	290.384	0.046	0.083
-93.801	-200.000	0.049	-0.371
-92.786	-131.971	0.309	-0.040
-91.772	47.180	0.057	-0.052
-90.757	52.015	0.048	-0.045
-89.743	-21.613	0.148	-0.089
-88.728	-81.727	0.290	0.094
-87.713	-140.207	-0.247	-0.026
-86.699	-98.845	0.535	-0.134
-85.684	-23.363	0.209	-0.124
-84.670	-200.000	-0.013	-0.061
-83.655	-186.574	-0.165	0.002
-82.640	-49.524	0.039	0.019
-81.626	30.593	-0.066	0.055
-80.611	-200.000	0.095	0.709
-79.597	800.000	-0.032	0.090
-78.582	-200.000	0.008	-0.046
-77.567	-148.169	-0.183	0.015
-76.553	-135.853	0.116	0.013
-75.538	-11.630	0.127	0.082
-74.524	316.470	-0.114	0.212
-73.509	674.301	-0.018	0.046
-72.494	32.416	0.069	-0.059
-71.480	-83.256	-0.116	-0.037
-70.465	212.760	0.128	0.200
-69.451	-68.294	0.099	-0.038
-68.436	-200.000	-0.003	0.265
-67.422	800.000	0.032	0.118
-66.407	-128.697	-0.131	0.018
-65.392	800.000	-0.083	0.246
-64.378	-54.408	0.248	-0.111
-63.363	-200.000	-0.032	-0.180
-62.349	531.822	0.093	-0.217
-61.334	48.520	-0.880	-0.812
-60.319	56.097	0.695	0.665
-59.305	267.149	-0.618	-1.064
-58.290	800.000	0.446	1.454
-57.276	322.954	0.821	1.541
-56.261	-200.000	113.682	644.202
-55.246	464.139	1506.782	3316.732
-54.232	144.758	2679.510	3526.269
-53.217	93.590	2322.186	2589.362
-52.203	33.652	2070.329	1772.217
-51.188	29.004	1984.372	1656.831
-50.173	27.577	1967.673	1630.070
-49.159	45.971	2025.503	1845.336
-48.144	44.866	2041.206	1849.542
-47.130	29.600	2000.390	1675.347
-46.115	27.265	1990.507	1645.905
-45.100	27.194	1987.835	1642.985
-44.086	27.149	1985.097	1640.250
-43.071	27.084	1982.325	1637.314
-42.057	27.115	1980.212	1635.778
-41.042	27.124	1978.805	1634.632
-40.027	27.102	1976.620	1632.562
-39.013	27.087	1974.716	1630.791
-37.998	27.170	1973.133	1630.169
-36.984	27.207	1971.209	1628.847
-35.969	27.168	1969.364	1626.903
-34.954	27.199	1967.250	1625.371
-33.940	27.193	1966.021	1624.234
-32.925	27.278	1964.248	1623.466
-31.911	27.230	1963.176	1622.088
-30.896	27.226	1961.634	1620.713
-29.881	27.269	1959.967	1619.657
-28.867	27.330	1957.988	1618.499
-27.852	27.352	1955.872	1616.879
-26.838	27.241	1954.523	1614.715
-25.823	27.295	1952.842	1613.741
-24.809	27.300	1951.313	1612.454
-23.794	27.305	1949.258	1610.744
-22.779	27.261	1947.702	1609.005
-21.765	27.257	1945.761	1607.300
-20.750	27.316	1943.785	1606.125
-19.736	27.269	1942.247	1604.371
-18.721	27.294	1940.950	1603.464
-17.706	27.274	1939.356	1601.901
-16.692	27.283	1937.574	1600.445
-15.677	27.270	1936.010	1598.976
-14.663	27.365	1934.314	1598.350
-13.648	27.227	1933.684	1596.555
-12.633	27.165	1932.587	1595.038
-11.619	27.256	1931.028	1594.484
-10.604	27.336	1929.232	1593.645
-9.590	27.291	1927.957	1592.131
-8.575	27.195	1926.964	1590.410
-7.560	27.278	1925.603	1589.948
-6.546	27.279	1924.288	1588.807
-5.531	27.278	1923.019	1587.687
-4.517	27.260	1922.095	1586.706
-3.502	27.246	1920.701	1585.370
-2.487	27.285	1919.044	1584.276
-1.473	27.311	1918.075	1583.644
-0.458	27.331	1913.376	1579.876
0.556	25.468	1893.889	1553.121
1.571	21.357	1875.071	1502.297
2.586	17.469	1897.159	1485.980
3.600	16.509	1931.845	1504.478
4.615	16.380	1926.145	1498.760
5.629	12.930	1824.943	1390.846
6.644	5.036	1708.136	1239.190
7.659	0.580	1672.237	1178.317
8.673	0.167	1669.128	1172.811
9.688	0.152	1667.647	1171.547
10.702	0.113	1666.131	1170.077
11.717	0.078	1662.233	1166.960
12.731	0.620	1661.635	1170.639
13.746	6.418	1674.380	1224.700
14.761	14.185	1689.721	1296.549
15.775	17.152	1693.847	1322.744
16.790	16.985	1691.985	1319.867
17.804	15.820	1689.051	1308.411
18.819	14.830	1685.763	1298.061
19.834	14.325	1683.371	1292.189
20.848	14.054	1681.947	1288.884
21.863	13.787	1680.309	1285.442
22.877	13.576	1678.625	1282.408
23.892	13.279	1677.500	1279.138
24.907	13.192	1676.060	1277.255
25.921	13.316	1674.504	1276.911
26.936	13.187	1674.311	1275.657
27.950	13.245	1673.175	1275.129
28.965	13.346	1672.484	1275.267
29.980	13.392	1671.748	1274.945
30.994	13.349	1671.261	1274.130
32.009	13.495	1669.552	1273.842
33.023	13.444	1669.344	1273.174
34.038	13.415	1668.651	1272.311
35.053	13.486	1666.981	1271.473
36.067	13.389	1665.978	1269.852
37.082	13.459	1664.705	1269.304
38.096	13.414	1663.962	1268.276
39.111	13.395	1663.759	1267.870
40.126	13.378	1663.077	1267.103
41.140	13.399	1661.726	1266.120
42.155	13.306	1660.278	1264.200
43.169	13.167	1659.184	1262.193
44.184	13.217	1657.892	1261.476
45.199	13.210	1656.567	1260.302
46.213	13.182	1655.429	1259.110
47.228	13.230	1654.211	1258.441
48.242	13.234	1653.145	1257.553
49.257	13.263	1652.327	1257.034
50.271	13.314	1650.783	1256.140
51.286	13.337	1649.171	1254.973
52.301	13.367	1647.796	1254.043
53.315	13.317	1646.832	1252.819
54.330	13.425	1644.644	1251.865
55.344	13.243	1643.906	1249.814
56.359	13.215	1642.552	1248.460
57.374	13.218	1640.966	1247.173
58.388	13.223	1639.705	1246.139
59.403	13.142	1638.487	1244.496
60.417	13.158	1636.818	1243.239
61.432	13.147	1635.818	1242.281
62.447	13.192	1634.738	1241.692
63.461	13.150	1633.373	1240.231
64.476	13.034	1632.826	1238.830
65.490	13.133	1631.329	1238.334
66.505	13.146	1630.146	1237.424
67.520	13.143	1628.853	1236.307
68.534	13.088	1628.505	1235.523
69.549	13.207	1626.943	1235.115
70.563	13.200	1625.926	1234.183
71.578	13.121	1624.419	1232.341
72.593	13.098	1623.732	1231.540
73.607	13.092	1622.434	1230.403
74.622	13.123	1621.244	1229.620
75.636	13.113	1619.819	1228.353
76.651	13.079	1619.477	1227.735
77.666	13.017	1618.275	1226.255
78.680	13.058	1617.856	1226.137
79.695	13.068	1616.317	1224.936
80.709	13.217	1615.057	1224.972
81.724	13.128	1614.445	1223.741
82.739	13.122	1613.692	1223.019
83.753	13.172	1612.886	1222.667
84.768	13.213	1611.427	1221.761
85.782	13.317	1610.914	1222.032
86.797	13.281	1609.824	1220.832
87.812	13.287	1608.940	1220.095
88.826	13.272	1607.492	1218.779
89.841	13.299	1606.146	1217.848
90.855	13.302	1604.973	1216.874
91.870	13.314	1604.130	1216.216
92.884	13.360	1603.262	1215.787
93.899	13.342	1602.306	1214.820
94.914	13.308	1601.319	1213.716
95.928	13.365	1600.059	1213.074
96.943	13.389	1598.295	1211.804
97.957	13.376	1597.245	1210.810
98.972	13.449	1595.459	1209.879
99.987	13.346	1594.225	1208.085
101.001	13.394	1592.404	1206.946
102.016	13.433	1591.044	1206.094
103.030	13.480	1589.182	1204.917
104.045	13.342	1588.660	1203.409
105.060	13.351	1587.088	1202.178
106.074	13.340	1585.721	1200.957
107.089	13.301	1583.935	1199.216
108.103	13.276	1582.440	1197.797
109.118	13.096	1581.768	1195.876
110.133	13.105	1580.327	1194.747
111.147	13.097	1578.812	1193.440
112.162	13.098	1577.328	1192.221
113.176	13.219	1575.955	1191.949
114.191	13.159	1575.160	1190.811
115.206	13.316	1573.321	1190.445
116.220	13.302	1572.206	1189.392
117.235	13.241	1571.055	1187.980
118.249	13.240	1569.148	1186.426
119.264	13.251	1567.988	1185.526
120.279	13.206	1566.934	1184.299
121.293	13.239	1565.240	1183.148
122.308	13.170	1564.018	1181.627
123.322	13.161	1562.546	1180.347
124.337	13.151	1561.483	1179.369
125.352	13.157	1559.876	1178.093
126.366	13.211	1558.705	1177.487
127.381	13.187	1557.371	1176.204
128.395	13.205	1556.126	1175.291
129.410	13.144	1555.208	1174.061
130.424	13.133	1553.724	1172.756
131.439	13.177	1552.397	1171.964
132.454	13.205	1550.915	1170.940
133.468	13.291	1549.846	1170.635
134.483	13.251	1548.233	1169.031
135.497	13.211	1546.813	1167.575
136.512	13.282	1545.817	1167.219
137.527	13.381	1544.172	1166.575
138.541	13.237	1543.103	1164.645
139.556	13.274	1541.670	1163.722
140.570	13.416	1539.859	1163.249
141.585	13.330	1538.954	1161.865
142.600	13.413	1537.354	1161.135
143.614	13.477	1536.242	1160.636
144.629	13.553	1534.764	1159.952
145.643	13.492	1533.606	1158.549
146.658	13.534	1531.879	1157.433
147.673	13.520	1530.694	1156.341
148.687	13.544	1529.278	1155.331
149.702	13.521	1527.982	1154.093
150.716	13.444	1526.033	1151.980
151.731	13.395	1524.773	1150.589
152.746	13.415	1523.315	1149.524
153.760	13.421	1522.079	1148.531
154.775	13.460	1520.809	1147.746
155.789	13.535	1519.143	1146.902
156.804	13.492	1518.388	1145.937
157.819	13.594	1517.094	1145.564
158.833	13.514	1515.534	1143.730
159.848	13.656	1514.437	1143.782
160.862	13.622	1513.555	1142.776
161.877	13.575	1512.570	1141.611
162.892	13.611	1511.259	1140.769
163.906	13.563	1509.271	1138.837
164.921	13.450	1508.289	1137.217
165.935	13.574	1506.889	1136.912
166.950	13.555	1506.141	1136.120
167.964	13.588	1505.073	1135.440
168.979	13.625	1503.906	1134.709
169.994	13.642	1502.943	1134.003
171.008	13.622	1501.932	1132.999
172.023	13.607	1500.632	1131.818
173.037	13.638	1499.385	1130.990
174.052	13.697	1498.326	1130.492
175.067	13.695	1497.807	1129.983
176.081	13.544	1496.718	1128.034
177.096	13.651	1495.028	1127.391
178.110	13.615	1493.541	1125.921
179.125	13.589	1492.622	1124.953
180.140	13.660	1491.458	1124.459
181.154	13.639	1490.592	1123.564
182.169	13.649	1489.466	1122.684
183.183	13.753	1488.224	1122.356
184.198	13.807	1487.055	1121.738
185.213	13.839	1485.932	1121.009
186.227	13.901	1484.758	1120.438
187.242	13.799	1483.846	1118.963
188.256	13.814	1482.446	1117.909
189.271	13.935	1481.578	1117.972
190.286	13.881	1480.626	1116.790
191.300	13.885	1479.345	1115.754
192.315	13.782	1478.071	1114.004
193.329	13.686	1476.808	1112.308
194.344	13.791	1475.186	1111.693
195.359	13.790	1474.514	1111.079
196.373	13.793	1473.510	1110.244
197.388	13.846	1472.377	1109.651
198.402	13.922	1471.429	1109.344
199.417	13.959	1470.244	1108.600
200.432	14.057	1469.069	1108.271
201.446	14.047	1468.320	1107.535
202.461	14.019	1467.359	1106.527
203.475	14.083	1466.058	1105.873
204.490	14.060	1465.109	1104.906
205.504	14.095	1463.858	1104.097
206.519	14.031	1462.839	1102.811
207.534	14.055	1461.622	1101.955
208.548	14.090	1460.530	1101.264
209.563	14.076	1459.288	1100.140
210.577	14.141	1458.516	1099.891
211.592	14.102	1458.101	1099.221
212.607	14.200	1456.796	1098.788
213.621	14.205	1456.532	1098.521
214.636	14.166	1455.552	1097.426
215.650	14.225	1454.619	1097.016
216.665	14.178	1453.602	1095.841
217.680	14.309	1452.716	1095.939
218.694	14.229	1452.154	1094.897
219.709	14.291	1450.893	1094.252
220.723	14.334	1450.059	1093.809
221.738	14.304	1448.990	1092.711
222.753	14.302	1447.882	1091.767
223.767	14.282	1447.341	1091.129
224.782	14.259	1446.272	1090.073
225.796	14.364	1444.803	1089.562
226.811	14.441	1444.236	1089.540
227.826	14.398	1443.767	1088.808
228.840	14.458	1442.650	1088.259
229.855	14.384	1441.748	1087.004
230.869	14.330	1440.898	1085.915
231.884	14.389	1439.601	1085.221
232.899	14.397	1438.271	1084.174
233.913	14.361	1437.490	1083.258
234.928	14.332	1436.593	1082.297
235.942	14.368	1435.271	1081.442
236.957	14.362	1434.049	1080.381
237.972	14.373	1432.678	1079.326
238.986	14.411	1431.451	1078.550
240.001	14.355	1430.590	1077.444
241.015	14.507	1429.499	1077.513
242.030	14.384	1428.743	1076.051
243.045	14.539	1427.300	1075.870
244.059	14.587	1426.823	1075.727
245.074	14.559	1425.983	1074.819
246.088	14.548	1425.149	1074.020
247.103	14.632	1424.103	1073.679
248.117	14.688	1423.289	1073.332
249.132	14.573	1422.867	1072.177
250.147	14.607	1422.391	1071.942
251.161	14.753	1421.507	1072.115
252.176	14.921	1420.033	1071.991
253.190	14.819	1420.186	1071.356
254.205	14.808	1419.379	1070.580
255.220	14.920	1418.511	1070.550
256.234	14.808	1417.769	1069.176
257.249	14.936	1416.676	1069.075
258.263	15.004	1415.342	1068.412
259.278	14.901	1414.930	1067.347
260.293	14.902	1414.260	1066.756
261.307	14.959	1413.452	1066.411
262.322	15.011	1412.488	1065.924
263.336	15.008	1411.768	1065.266
264.351	15.037	1410.695	1064.545
265.366	15.033	1409.822	1063.769
266.380	15.133	1408.591	1063.379
267.395	15.178	1407.614	1062.833
268.409	15.202	1407.058	1062.475
269.424	15.100	1406.108	1061.013
270.439	15.092	1404.817	1059.900
271.453	15.120	1403.893	1059.281
272.468	15.125	1402.967	1058.519
273.482	15.111	1402.257	1057.801
274.497	15.141	1401.719	1057.492
275.512	15.118	1401.014	1056.724
276.526	15.099	1399.877	1055.655
277.541	15.068	1398.996	1054.698
278.555	15.155	1398.226	1054.575
279.570	15.167	1397.310	1053.867
280.585	15.222	1395.954	1053.094
281.599	15.292	1395.387	1053.014
282.614	15.256	1394.475	1052.003
283.628	15.224	1393.329	1050.850
284.643	15.268	1392.232	1050.203
285.657	15.182	1391.459	1048.987
286.672	15.246	1390.333	1048.449
287.687	15.365	1389.007	1048.096
288.701	15.414	1388.158	1047.667
289.716	15.312	1387.431	1046.394
290.730	15.242	1386.887	1045.454
291.745	15.289	1385.899	1044.907
292.760	15.348	1384.652	1044.242
293.774	15.393	1383.504	1043.566
294.789	15.385	1382.472	1042.645
295.803	15.427	1382.127	1042.552
296.818	15.494	1381.125	1042.123
297.833	15.380	1380.394	1040.769
298.847	15.447	1379.390	1040.334
299.862	15.437	1377.681	1038.894
300.876	15.487	1377.218	1038.764
301.891	15.449	1376.156	1037.634
302.906	15.491	1375.393	1037.227
303.920	15.577	1374.728	1037.167
304.935	15.513	1374.157	1036.244
305.949	15.666	1372.714	1036.013
306.964	15.721	1372.226	1035.889
307.979	15.633	1371.875	1034.991
308.993	15.642	1370.556	1033.961
310.008	15.628	1369.789	1033.200
311.022	15.680	1368.268	1032.282
312.037	15.726	1367.434	1031.847
313.052	15.749	1366.372	1031.091
314.066	15.809	1365.112	1030.419
315.081	15.693	1364.660	1029.279
316.095	15.623	1363.638	1027.984
317.110	15.651	1362.131	1026.931
318.125	15.620	1361.069	1025.851
319.139	15.691	1360.305	1025.614
320.154	15.757	1359.454	1025.283
321.168	15.649	1358.765	1024.018
322.183	15.736	1357.629	1023.601
323.197	15.755	1356.748	1022.962
324.212	15.781	1356.045	1022.498
325.227	15.715	1355.616	1021.682
326.241	15.798	1354.634	1021.359
327.256	15.806	1353.415	1020.393
328.270	15.773	1352.860	1019.684
329.285	15.832	1351.807	1019.163
330.300	15.821	1350.852	1018.283
331.314	15.923	1349.278	1017.622
332.329	15.805	1349.107	1016.690
333.343	15.795	1348.397	1016.009
334.358	15.789	1347.093	1014.895
335.373	15.956	1346.338	1015.248
336.387	15.979	1345.314	1014.524
337.402	15.996	1344.670	1014.049
338.416	16.044	1343.887	1013.658
339.431	15.987	1343.759	1013.128
340.446	16.009	1343.070	1012.654
341.460	16.049	1341.813	1011.852
342.475	16.114	1340.938	1011.497
343.489	16.166	1340.197	1011.161
344.504	16.093	1339.065	1009.779
345.519	16.184	1338.289	1009.646
346.533	16.187	1337.416	1008.919
347.548	16.334	1335.936	1008.591
348.562	16.186	1335.569	1007.339
349.577	16.246	1335.005	1007.183
350.592	16.162	1334.110	1005.916
351.606	16.177	1333.500	1005.458
352.621	16.178	1332.164	1004.367
353.635	16.238	1330.606	1003.460
354.650	16.178	1329.976	1002.542
355.665	16.070	1329.657	1001.568
356.679	16.207	1327.802	1000.897
357.694	16.239	1326.751	1000.203
358.708	16.396	1325.334	999.976
359.723	16.319	1324.876	999.090
360.738	16.342	1324.182	998.614
361.752	16.233	1323.387	997.278
362.767	16.329	1321.971	996.695
363.781	16.372	1320.935	996.076
364.796	16.336	1320.457	995.418
365.810	16.411	1319.536	995.075
366.825	16.402	1318.815	994.390
367.840	16.505	1318.324	994.538
368.854	16.471	1317.273	993.458
369.869	16.497	1317.418	993.630
370.883	16.656	1315.853	993.295
371.898	16.572	1315.623	992.545
372.913	16.539	1314.811	991.648
373.927	16.628	1313.445	991.054
374.942	16.537	1312.934	990.044
375.956	16.549	1312.309	989.556
376.971	16.660	1311.125	989.228
377.986	16.586	1310.519	988.246
379.000	16.557	1309.825	987.467
380.015	16.703	1308.837	987.487
381.029	16.746	1308.044	987.051
382.044	16.747	1307.477	986.545
383.059	16.807	1306.689	986.213
384.073	16.859	1306.276	986.113
385.088	16.822	1306.032	985.629
386.102	16.864	1305.150	985.121
387.117	16.867	1304.287	984.401
388.132	16.891	1303.174	983.610
389.146	16.808	1302.752	982.721
390.161	16.744	1301.830	981.570
391.175	16.856	1300.776	981.339
392.190	16.817	1300.033	980.463
393.205	16.824	1299.540	980.047
394.219	16.884	1298.232	979.318
395.234	16.936	1296.707	978.382
396.248	16.858	1295.508	976.940
397.263	16.944	1294.343	976.471
398.278	16.941	1293.408	975.663
399.292	16.937	1291.923	974.431
400.307	16.969	1290.643	973.565
401.321	16.843	1289.853	972.159
402.336	16.926	1289.198	972.056
403.350	16.911	1288.027	971.004
404.365	16.929	1286.886	970.161
405.380	16.908	1286.236	969.463
406.394	16.901	1285.564	968.830
407.409	16.999	1284.611	968.585
408.423	16.999	1283.936	967.989
409.438	17.161	1283.418	968.437
410.453	17.071	1282.874	967.432
411.467	17.113	1282.005	966.925
412.482	17.198	1281.518	966.958
413.496	17.345	1280.628	967.035
414.511	17.327	1279.423	965.940
415.526	17.259	1278.970	965.125
416.540	17.267	1278.606	964.808
417.555	17.399	1277.678	964.777
418.569	17.334	1277.294	964.032
419.584	17.336	1276.416	963.292
420.599	17.240	1276.419	962.668
421.613	97.348	1354.953	1478.524
422.628	95.098	1366.312	1478.637
