DTS Sentinel unit serial number:	SN413079Multiplexer serial number:	ORYXHardware model number:	OX4-SRSoftware version number:	ORYX F/W v4.00 Oryx Data Collector v3.7.2.0data status	okinstallation	princeton_trtdifferential loss correction	single-endedforward channel	channel 4reverse channel	N/Adate	2019/09/13time	21:45:35forward acquisition time	60.00reverse acquisition time	0.00gamma	496.2192k internal	0.2319k external	0.2319temperature offset calibration	1.0123default loss term (dB/km)	0.3790temperature slope calibration	1.0000multiplexer offset coefficient	1.0000multiplexer slope coefficient	1.0000fibre end	0.00T internal ref (°C)	28.12T ext. ref 1 (°C)	3.03T ext. ref 2 (°C)	22.80length (m)	temperature (°C)	Stokes	anti-Stokes-747.200	-200.000	0.020	0.107
-746.185	800.000	-0.068	0.201
-745.171	329.961	0.240	-0.468
-744.156	-35.928	0.089	0.049
-743.142	-200.000	-0.038	-0.300
-742.127	800.000	-0.109	0.432
-741.112	800.000	-0.026	0.098
-740.098	665.672	-0.102	0.267
-739.083	-8.865	-0.199	0.135
-738.069	-96.410	-0.168	-0.045
-737.054	502.285	0.111	0.259
-736.039	-26.836	-0.250	0.148
-735.025	11.822	-0.109	0.085
-734.010	783.439	-0.036	-0.099
-732.996	514.813	-0.224	-0.528
-731.981	61.070	-0.143	0.143
-730.966	-200.000	0.037	-0.179
-729.952	1.684	0.053	0.039
-728.937	-200.000	-0.030	-0.461
-727.923	-34.010	0.143	0.080
-726.908	-60.680	-0.219	-0.094
-725.894	-82.094	-0.075	0.025
-724.879	800.000	-0.038	-0.116
-723.864	-200.000	-0.020	0.137
-722.850	-107.863	-0.233	-0.051
-721.835	30.540	0.157	0.135
-720.821	61.369	0.046	-0.046
-719.806	-23.961	0.205	-0.124
-718.791	-157.232	0.174	-0.011
-717.777	117.610	-0.081	0.101
-716.762	-70.883	-0.412	-0.157
-715.748	-200.000	-0.020	-0.157
-714.733	-78.330	-0.107	-0.037
-713.718	53.555	0.192	-0.186
-712.704	-54.867	0.182	-0.083
-711.689	380.209	-0.071	-0.146
-710.675	-115.745	-0.145	0.027
-709.660	-101.844	0.159	0.039
-708.645	276.014	0.107	0.192
-707.631	343.758	-0.112	-0.221
-706.616	598.697	-0.151	-0.377
-705.602	410.341	-0.119	-0.254
-704.587	-200.000	-0.031	-0.514
-703.572	224.616	0.071	0.116
-702.558	-112.920	-0.048	-0.010
-701.543	75.215	0.104	0.111
-700.529	-70.539	-0.166	0.064
-699.514	800.000	-0.059	-0.250
-698.499	231.411	-0.153	-0.253
-697.485	-47.665	-0.144	-0.071
-696.470	137.725	0.128	0.169
-695.456	7.496	-0.129	-0.098
-694.441	-111.582	0.354	-0.073
-693.426	572.455	0.111	-0.272
-692.412	800.000	0.058	-0.209
-691.397	255.640	-0.049	-0.085
-690.383	-160.783	-0.574	0.031
-689.368	23.933	0.053	-0.044
-688.354	-36.736	0.082	-0.044
-687.339	-200.000	0.018	-0.360
-686.324	-73.212	-0.255	0.094
-685.310	48.645	-0.112	-0.106
-684.295	-200.000	0.070	-0.330
-683.281	-166.198	-0.378	-0.016
-682.266	800.000	-0.053	0.209
-681.251	-33.957	0.137	-0.076
-680.237	-51.067	0.172	0.081
-679.222	19.043	0.289	-0.234
-678.208	-168.188	-0.261	0.010
-677.193	-33.697	-0.221	0.123
-676.178	-200.000	-0.006	-0.406
-675.164	-200.000	-0.058	-0.421
-674.149	178.993	0.175	-0.258
-673.135	-200.000	-0.021	0.141
-672.120	236.312	-0.030	-0.050
-671.105	-7.554	-0.107	-0.073
-670.091	555.231	-0.089	-0.216
-669.076	800.000	0.108	-0.359
-668.062	-10.695	-0.247	-0.165
-667.047	-200.000	-0.010	0.295
-666.032	-50.824	-0.257	-0.122
-665.018	-28.070	0.281	0.164
-664.003	-102.494	-0.187	-0.045
-662.989	-52.205	-0.185	-0.086
-661.974	800.000	-0.048	-0.165
-660.959	-156.025	0.040	0.003
-659.945	196.057	0.091	-0.140
-658.930	45.262	0.027	-0.025
-657.916	-168.547	-0.054	0.002
-656.901	36.894	-0.200	-0.178
-655.886	584.723	0.120	0.297
-654.872	-61.496	0.094	-0.040
-653.857	-63.446	-0.201	0.083
-652.843	-200.000	0.011	-0.094
-651.828	-99.665	-0.103	-0.026
-650.814	136.825	0.179	-0.236
-649.799	8.484	-0.249	0.189
-648.784	-24.180	0.421	-0.253
-647.770	-76.356	0.389	-0.138
-646.755	-125.017	0.363	-0.056
-645.741	3.214	-0.236	0.173
-644.726	-120.894	0.150	0.025
-643.711	5.521	0.150	0.111
-642.697	-131.792	0.310	0.041
-641.682	29.108	0.068	-0.058
-640.668	-93.575	0.186	-0.052
-639.653	-152.928	-0.339	0.024
-638.638	517.778	0.120	0.283
-637.624	-100.146	0.245	-0.061
-636.609	-38.975	0.104	0.055
-635.595	-200.000	0.000	0.136
-634.580	-200.000	0.019	0.130
-633.565	-66.920	-0.176	-0.070
-632.551	-56.837	0.102	-0.046
-631.536	-200.000	0.021	-0.272
-630.522	-22.242	-0.195	0.119
-629.507	-38.055	0.151	-0.081
-628.492	800.000	0.062	-0.262
-627.478	321.474	0.056	-0.108
-626.463	331.919	-0.101	-0.197
-625.449	-136.569	-0.075	0.009
-624.434	5.030	0.273	0.202
-623.419	-19.192	0.160	-0.100
-622.405	316.182	0.005	-0.009
-621.390	-181.429	0.143	-0.003
-620.376	-133.006	-0.134	-0.017
-619.361	-200.000	0.016	0.129
-618.346	-200.000	0.021	0.229
-617.332	-200.000	-0.007	0.364
-616.317	694.825	-0.068	-0.181
-615.303	-143.776	-0.297	0.028
-614.288	524.956	0.058	-0.138
-613.273	469.331	-0.099	0.223
-612.259	283.815	-0.131	-0.238
-611.244	29.075	0.254	0.217
-610.230	43.499	0.221	0.204
-609.215	-200.000	0.006	-0.100
-608.201	-40.955	-0.093	-0.048
-607.186	242.161	-0.061	-0.103
-606.171	800.000	-0.044	0.163
-605.157	-115.936	0.314	-0.059
-604.142	523.378	-0.097	0.230
-603.128	64.909	0.127	-0.129
-602.113	-72.774	0.285	-0.106
-601.098	-157.952	-0.110	-0.007
-600.084	-114.562	-0.274	-0.053
-599.069	-146.491	0.360	0.032
-598.055	390.218	-0.099	0.206
-597.040	-81.091	-0.123	0.041
-596.025	354.950	-0.054	-0.107
-595.011	-124.492	0.230	0.036
-593.996	401.330	-0.133	-0.281
-592.982	328.937	-0.193	-0.373
-591.967	-124.465	0.300	0.047
-590.952	-200.000	-0.008	0.073
-589.938	-200.000	-0.025	-0.120
-588.923	63.200	-0.131	-0.132
-587.909	602.593	-0.058	0.145
-586.894	-200.000	0.016	0.309
-585.879	-74.914	-0.320	-0.115
-584.865	-158.635	-0.287	-0.017
-583.850	-85.339	-0.122	-0.038
-582.836	-125.293	0.106	-0.016
-581.821	344.528	0.156	-0.308
-580.806	438.661	0.060	-0.131
-579.792	-200.000	-0.019	-0.159
-578.777	-200.000	-0.005	-0.185
-577.763	-21.469	-0.030	-0.018
-576.748	185.159	-0.128	-0.191
-575.733	109.890	-0.139	0.168
-574.719	363.499	0.043	0.087
-573.704	-200.000	0.053	0.273
-572.690	-200.000	-0.025	-0.129
-571.675	578.656	-0.033	-0.082
-570.661	6.616	0.033	-0.025
-569.646	-42.847	-0.188	-0.096
-568.631	204.542	0.147	-0.228
-567.617	78.923	-0.214	0.230
-566.602	-75.063	-0.127	0.046
-565.588	-200.000	-0.045	-0.288
-564.573	-68.526	-0.214	-0.083
-563.558	-200.000	0.047	0.354
-562.544	186.179	0.112	0.168
-561.529	-26.320	0.227	-0.134
-560.515	-200.000	-0.047	-0.350
-559.500	68.569	-0.140	-0.145
-558.485	-24.632	-0.041	0.024
-557.471	767.998	-0.065	0.179
-556.456	124.660	0.078	-0.098
-555.442	144.364	-0.106	0.142
-554.427	-41.594	-0.256	0.132
-553.412	54.065	0.257	-0.248
-552.398	800.000	-0.084	-0.305
-551.383	-165.320	-0.427	0.019
-550.369	-49.187	-0.278	0.133
-549.354	32.908	0.242	0.211
-548.339	-200.000	-0.052	-0.241
-547.325	550.141	0.033	0.080
-546.310	-39.440	0.072	-0.038
-545.296	-1.395	0.090	-0.064
-544.281	83.455	0.152	0.167
-543.266	800.000	0.074	-0.238
-542.252	-6.788	0.252	-0.172
-541.237	-4.777	-0.258	-0.178
-540.223	-185.735	0.355	-0.005
-539.208	800.000	-0.028	0.108
-538.193	-156.334	-0.465	0.029
-537.179	234.664	-0.079	0.131
-536.164	-200.000	0.044	0.268
-535.150	800.000	-0.039	0.134
-534.135	-187.058	0.214	0.003
-533.121	306.904	-0.071	0.133
-532.106	44.122	-0.095	-0.087
-531.091	13.398	0.235	0.183
-530.077	-47.959	-0.253	-0.123
-529.062	-51.491	0.223	-0.105
-528.048	-95.909	-0.313	0.084
-527.033	-31.537	-0.335	0.189
-526.018	367.241	0.053	-0.106
-525.004	800.000	0.052	0.222
-523.989	-144.435	0.242	-0.023
-522.975	800.000	-0.129	0.389
-521.960	-200.000	-0.042	0.249
-520.945	-25.574	0.389	-0.230
-519.931	448.338	-0.165	-0.365
-518.916	127.541	0.169	0.215
-517.902	-164.549	-0.160	-0.007
-516.887	-200.000	0.020	0.209
-515.872	64.763	-0.122	0.124
-514.858	-135.041	-0.147	0.018
-513.843	-200.000	-0.038	0.192
-512.829	-107.832	-0.196	0.043
-511.814	159.132	0.159	-0.221
-510.799	800.000	-0.106	-0.401
-509.785	226.789	0.064	0.104
-508.770	-53.243	0.284	-0.131
-507.756	-19.937	0.144	-0.089
-506.741	140.833	-0.065	0.086
-505.726	217.395	0.212	-0.339
-504.712	202.080	0.018	-0.028
-503.697	-17.722	-0.332	0.209
-502.683	208.937	-0.065	-0.102
-501.668	-109.870	0.267	0.056
-500.653	800.000	0.065	-0.181
-499.639	-6.813	0.226	-0.154
-498.624	-200.000	0.013	0.218
-497.610	380.711	0.061	-0.126
-496.595	78.539	-0.060	-0.064
-495.581	20.587	-0.142	0.115
-494.566	-118.388	-0.167	-0.030
-493.551	5.848	-0.339	0.252
-492.537	64.121	0.026	-0.027
-491.522	47.629	-0.263	0.246
-490.508	-56.380	-0.233	0.103
-489.493	-150.667	0.336	-0.026
-488.478	-100.619	-0.189	-0.047
-487.464	209.227	-0.095	0.149
-486.449	-91.233	-0.203	0.058
-485.435	-200.000	-0.034	-0.155
-484.420	-118.534	-0.198	0.035
-483.405	-47.434	-0.375	-0.183
-482.391	-34.777	-0.128	-0.070
-481.376	495.244	0.101	0.233
-480.362	137.397	0.058	-0.075
-479.347	304.622	-0.162	0.301
-478.332	-98.619	0.344	0.088
-477.318	89.701	0.147	-0.164
-476.303	-200.000	0.013	-0.091
-475.289	107.676	-0.217	0.259
-474.274	-139.760	0.197	0.021
-473.259	185.156	-0.121	-0.180
-472.245	-89.177	0.410	-0.121
-471.230	43.407	0.206	-0.188
-470.216	61.541	0.116	0.115
-469.201	264.817	0.006	-0.010
-468.186	552.935	0.058	-0.140
-467.172	800.000	-0.056	0.183
-466.157	127.282	-0.212	-0.270
-465.143	-111.749	-0.060	0.012
-464.128	800.000	-0.043	0.138
-463.113	591.157	0.044	0.107
-462.099	-110.650	-0.467	0.097
-461.084	142.030	0.293	0.389
-460.070	-200.000	-0.032	-0.291
-459.055	492.900	0.069	0.157
-458.040	10.037	-0.244	-0.185
-457.026	-57.973	0.126	-0.055
-456.011	259.163	-0.044	0.075
-454.997	18.333	-0.064	0.051
-453.982	-63.086	-0.138	-0.057
-452.968	63.329	-0.143	-0.143
-451.953	75.130	0.141	0.149
-450.938	640.266	-0.091	-0.231
-449.924	800.000	0.019	-0.083
-448.909	-58.069	-0.191	0.083
-447.895	194.912	-0.175	0.266
-446.880	-80.453	0.110	-0.037
-445.865	-18.460	-0.157	0.098
-444.851	-93.353	0.158	0.044
-443.836	739.540	0.045	-0.122
-442.822	-72.830	-0.577	0.212
-441.807	-101.910	-0.193	0.047
-440.792	733.456	-0.086	-0.230
-439.778	-78.067	0.411	-0.142
-438.763	-133.739	-0.095	0.012
-437.749	57.649	0.094	0.091
-436.734	51.201	0.131	-0.124
-435.719	-200.000	0.015	-0.083
-434.705	-200.000	0.059	0.308
-433.690	800.000	-0.027	0.102
-432.676	137.083	-0.059	-0.077
-431.661	-137.286	-0.158	0.018
-430.646	800.000	0.072	0.240
-429.632	-162.412	0.347	-0.017
-428.617	298.925	-0.028	0.052
-427.603	-200.000	0.050	-0.277
-426.588	280.129	0.171	-0.305
-425.573	-200.000	0.033	-0.201
-424.559	-200.000	0.063	-0.461
-423.544	303.815	-0.125	-0.232
-422.530	-69.478	0.265	-0.101
-421.515	-123.408	0.202	0.032
-420.500	281.022	0.161	0.289
-419.486	-124.709	-0.088	0.014
-418.471	210.504	0.146	-0.229
-417.457	-152.559	-0.155	-0.011
-416.442	-9.402	-0.020	0.013
-415.428	361.750	0.158	-0.317
-414.413	-165.867	0.142	-0.006
-413.398	297.401	-0.030	0.055
-412.384	-5.047	0.233	0.160
-411.369	-200.000	-0.059	-0.292
-410.355	800.000	-0.031	0.099
-409.340	270.376	-0.059	0.103
-408.325	107.261	0.075	0.089
-407.311	2.390	-0.100	0.072
-406.296	800.000	-0.088	-0.277
-405.282	-70.005	0.163	-0.062
-404.267	-103.647	0.115	-0.027
-403.252	44.050	-0.100	-0.092
-402.238	291.632	0.163	-0.295
-401.223	-200.000	0.005	-0.134
-400.209	167.154	0.144	0.205
-399.194	-81.051	0.053	0.018
-398.179	444.397	0.100	0.218
-397.165	-69.728	0.192	-0.073
-396.150	-73.551	0.262	0.095
-395.136	45.017	0.092	0.085
-394.121	22.019	-0.297	0.242
-393.106	-200.000	-0.038	0.232
-392.092	115.350	0.060	0.073
-391.077	316.105	0.037	-0.070
-390.063	-84.610	0.280	0.088
-389.048	-18.311	0.155	-0.097
-388.033	-59.583	-0.317	-0.136
-387.019	43.395	0.088	0.080
-386.004	-57.351	-0.052	0.023
-384.990	-101.269	0.141	0.034
-383.975	-93.140	0.147	0.041
-382.960	-200.000	-0.010	0.084
-381.946	129.135	-0.171	-0.218
-380.931	164.323	0.084	0.118
-379.917	-80.939	-0.010	0.003
-378.902	543.575	0.107	-0.255
-377.888	-200.000	-0.012	-0.156
-376.873	-200.000	0.024	-0.462
-375.858	-71.713	-0.066	0.024
-374.844	133.835	-0.038	-0.050
-373.829	-200.000	0.021	0.146
-372.815	556.021	-0.045	0.108
-371.800	97.397	-0.127	-0.145
-370.785	-149.609	0.049	0.004
-369.771	-200.000	0.046	-0.405
-368.756	72.756	-0.207	0.216
-367.742	-200.000	-0.006	0.335
-366.727	180.506	-0.224	0.327
-365.712	-200.000	0.007	0.135
-364.698	-177.125	0.351	-0.009
-363.683	104.282	-0.180	0.211
-362.669	211.561	-0.022	-0.035
-361.654	120.517	0.066	0.081
-360.639	245.898	-0.137	0.231
-359.625	447.522	-0.144	0.317
-358.610	-59.066	0.197	0.085
-357.596	21.611	0.084	-0.068
-356.581	800.000	0.087	0.306
-355.566	-200.000	-0.007	-0.093
-354.552	564.636	0.057	-0.137
-353.537	-50.226	0.294	0.138
-352.523	-8.773	-0.150	0.100
-351.508	-117.350	-0.067	-0.012
-350.493	800.000	-0.034	-0.145
-349.479	210.427	0.088	-0.138
-348.464	190.387	0.125	0.187
-347.450	-7.314	-0.358	-0.242
-346.435	-200.000	0.267	0.000
-345.420	-199.176	0.308	-0.002
-344.406	-200.000	-0.018	-0.268
-343.391	545.776	0.138	0.328
-342.377	90.132	-0.167	-0.186
-341.362	-114.540	-0.076	-0.015
-340.348	-74.755	-0.386	-0.138
-339.333	-163.948	0.102	0.005
-338.318	-90.062	-0.135	-0.039
-337.304	16.463	0.124	-0.097
-336.289	148.010	0.315	0.423
-335.275	123.179	0.103	-0.128
-334.260	-48.659	0.265	-0.127
-333.245	-61.221	-0.184	-0.077
-332.231	303.816	0.294	-0.542
-331.216	185.945	-0.154	-0.228
-330.202	-200.000	0.013	0.091
-329.187	577.185	-0.014	-0.034
-328.172	65.748	-0.256	0.258
-327.158	800.000	-0.077	-0.296
-326.143	800.000	-0.028	-0.081
-325.129	99.685	0.036	-0.041
-324.114	-32.610	0.183	-0.101
-323.099	500.537	-0.016	0.036
-322.085	759.769	0.116	0.312
-321.070	-137.232	-0.104	-0.012
-320.056	-161.319	-0.264	-0.014
-319.041	-200.000	0.047	0.295
-318.026	-34.332	-0.052	-0.029
-317.012	-200.000	-0.016	0.375
-315.997	-200.000	0.012	-0.113
-314.983	64.432	-0.180	-0.180
-313.968	32.546	-0.105	0.090
-312.953	-62.608	-0.080	-0.033
-311.939	579.556	0.020	-0.050
-310.924	708.831	-0.151	-0.397
-309.910	-200.000	0.004	0.028
-308.895	82.687	0.102	0.110
-307.880	80.759	-0.252	0.270
-306.866	433.707	-0.011	0.024
-305.851	671.567	-0.044	0.114
-304.837	-200.000	-0.014	-0.163
-303.822	-167.677	0.515	-0.020
-302.807	-181.613	0.153	0.003
-301.793	800.000	-0.072	0.199
-300.778	-200.000	-0.003	0.186
-299.764	-200.000	-0.026	-0.141
-298.749	91.983	-0.283	0.317
-297.735	-2.166	-0.036	-0.025
-296.720	47.845	0.228	-0.212
-295.705	800.000	-0.123	-0.391
-294.691	800.000	-0.068	0.256
-293.676	800.000	-0.117	0.466
-292.662	52.944	-0.236	0.225
-291.647	-23.214	-0.044	0.027
-290.632	46.252	-0.357	0.329
-289.618	-158.776	0.255	-0.015
-288.603	-57.391	0.245	0.107
-287.589	-26.899	0.197	-0.114
-286.574	372.012	-0.070	-0.142
-285.559	-200.000	-0.050	-0.236
-284.545	119.665	-0.163	0.200
-283.530	159.974	0.146	-0.202
-282.516	101.982	-0.098	0.114
-281.501	-3.797	-0.191	0.132
-280.486	34.001	0.136	0.118
-279.472	249.181	0.181	0.304
-278.457	-200.000	0.036	-0.573
-277.443	-100.023	-0.142	-0.035
-276.428	-59.530	-0.047	-0.020
-275.413	800.000	-0.039	-0.126
-274.399	-200.000	-0.023	-0.134
-273.384	-110.834	0.147	0.030
-272.370	-11.319	-0.105	0.068
-271.355	-52.871	-0.232	0.106
-270.340	-91.832	-0.271	-0.076
-269.326	-56.644	0.237	-0.104
-268.311	-200.000	0.019	-0.338
-267.297	-122.063	0.121	0.020
-266.282	-200.000	0.044	0.192
-265.267	-46.088	0.254	0.124
-264.253	11.898	-0.046	-0.035
-263.238	-19.725	-0.256	0.157
-262.224	-126.918	0.304	0.044
-261.209	431.078	-0.035	0.075
-260.195	235.953	0.153	0.250
-259.180	351.950	0.097	-0.191
-258.165	136.366	0.105	-0.136
-257.151	222.838	0.050	-0.079
-256.136	-200.000	-0.000	0.214
-255.122	-183.225	0.373	-0.007
-254.107	-200.000	-0.065	-0.340
-253.092	-158.199	0.141	0.008
-252.078	-79.246	0.379	-0.128
-251.063	-2.611	-0.076	-0.053
-250.049	88.434	0.053	0.058
-249.034	-151.033	0.272	0.020
-248.019	-200.000	-0.015	-0.138
-247.005	-200.000	-0.000	0.045
-245.990	118.758	0.029	0.036
-244.976	553.608	0.091	0.216
-243.961	-196.919	-0.113	0.001
-242.946	-59.457	0.252	0.107
-241.932	-200.000	0.037	0.307
-240.917	72.557	-0.174	-0.180
-239.903	-111.339	-0.127	0.026
-238.888	-148.584	0.456	-0.037
-237.873	293.034	0.141	0.256
-236.859	248.608	-0.086	0.144
-235.844	800.000	0.051	0.154
-234.830	14.354	-0.340	0.263
-233.815	103.225	-0.153	0.178
-232.800	112.928	0.100	0.120
-231.786	168.723	0.215	-0.304
-230.771	263.397	-0.009	-0.016
-229.757	-136.269	-0.328	-0.038
-228.742	800.000	0.089	-0.321
-227.727	-200.000	-0.043	-0.205
-226.713	41.169	-0.217	0.194
-225.698	-41.128	0.301	-0.154
-224.684	-38.481	-0.099	-0.052
-223.669	-116.835	-0.066	-0.012
-222.655	354.523	-0.103	0.202
-221.640	-200.000	0.009	0.341
-220.625	344.505	-0.182	-0.354
-219.611	-53.902	-0.336	0.152
-218.596	800.000	0.109	-0.338
-217.582	656.927	0.126	-0.320
-216.567	-79.437	0.062	-0.021
-215.552	-11.787	0.122	0.079
-214.538	800.000	0.026	-0.076
-213.523	-166.498	0.276	-0.011
-212.509	-97.378	-0.531	0.137
-211.494	-103.597	-0.219	-0.051
-210.479	0.033	-0.164	0.116
-209.465	-200.000	-0.033	-0.150
-208.450	-143.303	0.175	0.017
-207.436	-76.370	-0.150	0.052
-206.421	-200.000	0.029	-0.334
-205.406	12.423	-0.186	-0.142
-204.392	-79.665	-0.233	0.078
-203.377	15.865	0.119	0.093
-202.363	113.899	0.172	0.207
-201.348	481.939	-0.047	-0.105
-200.333	-101.835	-0.223	-0.054
-199.319	-14.257	-0.498	-0.318
-198.304	-65.285	-0.122	0.048
-197.290	363.092	0.083	-0.164
-196.275	35.969	-0.178	0.155
-195.260	-72.999	0.245	0.089
-194.246	-139.932	-0.224	-0.023
-193.231	-55.425	-0.362	-0.161
-192.217	133.534	-0.106	0.136
-191.202	-42.238	0.234	0.119
-190.187	-20.748	0.304	0.185
-189.173	144.591	0.079	0.104
-188.158	57.878	0.168	-0.163
-187.144	-200.000	0.025	-0.163
-186.129	666.880	0.063	-0.161
-185.114	-29.552	-0.240	0.136
-184.100	-167.515	-0.300	0.012
-183.085	62.464	0.086	0.085
-182.071	219.912	-0.229	0.362
-181.056	800.000	0.068	-0.262
-180.042	800.000	0.082	-0.238
-179.027	-21.596	-0.202	0.122
-178.012	-8.929	0.228	0.151
-176.998	-138.790	0.422	-0.046
-175.983	-200.000	-0.007	0.092
-174.969	-38.419	0.327	-0.171
-173.954	-55.208	0.141	0.063
-172.939	-200.000	-0.011	0.232
-171.925	39.906	-0.206	-0.183
-170.910	-81.862	-0.079	-0.026
-169.896	2.658	-0.212	-0.152
-168.881	427.635	0.075	-0.159
-167.866	674.421	-0.177	0.455
-166.852	800.000	-0.072	0.305
-165.837	-80.689	-0.265	-0.087
-164.823	-175.937	0.253	0.007
-163.808	-139.050	-0.156	-0.017
-162.793	800.000	-0.052	0.212
-161.779	99.707	0.301	0.345
-160.764	-200.000	-0.037	-0.174
-159.750	-177.899	0.382	-0.009
-158.735	-76.238	0.194	-0.067
-157.720	90.209	-0.241	-0.266
-156.706	785.186	-0.089	0.242
-155.691	-31.882	0.057	0.032
-154.677	-100.543	0.220	-0.054
-153.662	-61.129	-0.471	-0.197
-152.647	97.241	-0.190	0.216
-151.633	-13.836	-0.183	-0.117
-150.618	28.163	-0.319	-0.266
-149.604	-56.278	0.159	-0.070
-148.589	24.407	0.083	-0.068
-147.574	94.301	-0.168	-0.189
-146.560	42.526	-0.065	0.059
-145.545	173.801	-0.117	0.167
-144.531	-98.673	-0.256	0.064
-143.516	-200.000	-0.064	-0.336
-142.502	66.277	0.148	-0.149
-141.487	211.741	-0.043	-0.067
-140.472	-200.000	0.018	0.350
-139.458	-72.990	-0.229	0.083
-138.443	293.214	-0.080	0.144
-137.429	-4.124	-0.083	-0.057
-136.414	457.361	-0.051	-0.113
-135.399	40.681	0.324	-0.289
-134.385	-128.443	0.223	0.031
-133.370	648.874	0.105	0.265
-132.356	-107.019	-0.148	0.032
-131.341	-200.000	0.025	-0.120
-130.326	600.077	-0.074	-0.182
-129.312	-68.691	0.205	0.078
-128.297	-30.316	-0.098	0.055
-127.283	97.895	0.072	-0.082
-126.268	-32.885	0.100	0.055
-125.253	800.000	0.095	-0.270
-124.239	-19.992	0.084	-0.051
-123.224	20.589	-0.127	-0.102
-122.210	23.979	0.325	0.264
-121.195	-200.000	0.067	0.392
-120.180	-138.512	0.145	-0.016
-119.166	-81.956	0.428	-0.138
-118.151	-200.000	0.002	0.064
-117.137	-73.522	-0.096	0.034
-116.122	800.000	0.032	0.106
-115.107	31.498	-0.202	0.171
-114.093	-200.000	0.052	0.239
-113.078	-200.000	0.095	-0.591
-112.064	-17.134	0.217	-0.135
-111.049	0.981	0.178	0.126
-110.034	-23.086	-0.329	0.195
-109.020	-130.119	-0.319	-0.043
-108.005	18.264	-0.201	-0.159
-106.991	786.542	0.104	-0.283
-105.976	-200.000	0.000	-0.158
-104.962	800.000	-0.095	0.363
-103.947	-200.000	-0.021	0.203
-102.932	378.062	0.094	0.189
-101.918	203.579	-0.346	-0.527
-100.903	62.940	0.066	-0.065
-99.889	57.734	-0.131	-0.127
-98.874	-22.592	-0.274	0.164
-97.859	-200.000	-0.006	0.095
-96.845	-200.000	0.033	-0.284
-95.830	-200.000	-0.033	-0.177
-94.816	-110.343	0.105	-0.022
-93.801	-42.731	0.121	-0.061
-92.786	800.000	-0.120	0.330
-91.772	-77.043	-0.165	-0.057
-90.757	800.000	-0.091	-0.257
-89.743	-87.210	0.249	-0.075
-88.728	-200.000	0.018	0.092
-87.713	-17.683	-0.047	0.029
-86.699	9.744	-0.125	0.093
-85.684	-60.190	-0.316	0.133
-84.670	19.418	0.097	-0.077
-83.655	-31.823	-0.152	-0.084
-82.640	-62.972	0.245	0.100
-81.626	-43.693	0.289	-0.143
-80.611	-94.729	0.326	0.087
-79.597	120.015	-0.146	-0.178
-78.582	-17.795	0.425	0.263
-77.567	-132.686	0.307	0.039
-76.553	-134.817	-0.283	0.034
-75.538	-133.563	0.048	-0.006
-74.524	-200.000	0.015	0.094
-73.509	-200.000	0.043	-0.387
-72.494	4.033	-0.336	0.242
-71.480	-27.123	-0.091	0.052
-70.465	-200.000	-0.052	0.233
-69.451	-37.828	-0.092	-0.048
-68.436	146.525	0.195	0.258
-67.422	-101.111	-0.361	-0.087
-66.407	411.861	0.110	0.230
-65.392	10.353	-0.252	0.189
-64.378	-99.333	-0.115	-0.029
-63.363	-127.635	0.327	-0.047
-62.349	-37.587	0.164	-0.086
-61.334	228.248	-0.794	-1.273
-60.319	41.273	0.514	0.457
-59.305	-200.000	-0.018	-1.074
-58.290	151.129	0.750	1.005
-57.276	486.702	0.586	1.316
-56.261	-200.000	114.025	669.178
-55.246	550.540	1514.617	3577.587
-54.232	176.055	2688.947	3843.597
-53.217	103.156	2317.411	2674.260
-52.203	34.880	2064.912	1778.877
-51.188	29.967	1980.407	1662.043
-50.173	28.497	1963.399	1634.609
-49.159	47.646	2023.491	1858.386
-48.144	46.503	2038.279	1861.573
-47.130	30.502	1996.564	1680.179
-46.115	28.164	1986.323	1650.432
-45.100	28.043	1983.751	1647.136
-44.086	28.074	1980.839	1644.935
-43.071	27.959	1979.066	1642.368
-42.057	27.938	1976.405	1639.906
-41.042	27.970	1974.879	1638.858
-40.027	27.930	1973.910	1637.635
-39.013	28.033	1971.471	1636.465
-37.998	28.058	1969.568	1635.039
-36.984	28.078	1967.651	1633.563
-35.969	28.087	1965.474	1631.770
-34.954	28.005	1964.253	1629.965
-33.940	28.012	1963.115	1629.021
-32.925	28.088	1960.944	1627.826
-31.911	28.127	1959.788	1627.147
-30.896	28.203	1957.380	1625.760
-29.881	28.108	1956.426	1624.065
-28.867	28.286	1954.017	1623.572
-27.852	28.196	1952.863	1621.759
-26.838	28.187	1951.459	1620.448
-25.823	28.101	1949.835	1618.273
-24.809	28.126	1947.936	1616.853
-23.794	28.161	1945.852	1615.368
-22.779	28.118	1944.076	1613.449
-21.765	28.094	1942.368	1611.760
-20.750	28.170	1940.517	1610.825
-19.736	28.178	1939.020	1609.587
-18.721	28.139	1937.578	1607.986
-17.706	28.210	1935.914	1607.165
-16.692	28.121	1934.410	1605.074
-15.677	28.147	1932.921	1604.002
-14.663	28.146	1932.149	1603.284
-13.648	28.109	1930.441	1601.485
-12.633	28.131	1929.164	1600.550
-11.619	28.165	1928.048	1599.856
-10.604	28.196	1925.880	1598.266
-9.590	28.128	1925.572	1597.352
-8.575	28.112	1923.936	1595.797
-7.560	28.117	1922.475	1594.565
-6.546	28.190	1920.977	1593.892
-5.531	28.169	1919.821	1592.685
-4.517	28.107	1918.620	1591.089
-3.502	28.113	1917.469	1590.121
-2.487	28.125	1916.296	1589.188
-1.473	28.163	1915.166	1588.521
-0.458	28.183	1910.227	1584.532
0.556	28.768	1890.083	1556.024
1.571	24.301	1871.336	1502.897
2.586	20.214	1894.399	1486.335
3.600	19.273	1928.968	1505.111
4.615	18.740	1922.027	1494.923
5.629	14.184	1821.694	1379.075
6.644	6.632	1707.253	1233.472
7.659	3.255	1673.895	1183.335
8.673	3.043	1670.925	1179.512
9.688	2.908	1670.208	1177.861
10.702	3.136	1667.654	1177.706
11.717	3.022	1665.055	1174.894
12.731	3.456	1663.751	1177.182
13.746	8.463	1676.349	1224.425
14.761	16.353	1693.068	1297.361
15.775	20.152	1699.408	1331.337
16.790	20.352	1698.299	1331.887
17.804	19.314	1695.495	1321.616
18.819	18.392	1692.197	1311.868
19.834	17.890	1689.632	1305.920
20.848	17.560	1688.531	1302.430
21.863	17.490	1686.826	1300.471
22.877	17.240	1685.856	1297.695
23.892	17.061	1684.429	1295.120
24.907	16.988	1683.702	1293.884
25.921	16.989	1682.486	1292.849
26.936	16.990	1681.180	1291.736
27.950	17.075	1680.116	1291.450
28.965	17.008	1679.863	1290.631
29.980	17.095	1679.254	1290.711
30.994	17.135	1678.384	1290.235
32.009	17.266	1676.939	1289.999
33.023	17.354	1676.120	1289.925
34.038	17.419	1674.970	1289.419
35.053	17.365	1674.011	1288.159
36.067	17.260	1672.604	1286.164
37.082	17.164	1671.565	1284.523
38.096	17.240	1670.348	1284.051
39.111	17.199	1670.147	1283.478
40.126	17.295	1669.145	1283.314
41.140	17.322	1668.174	1282.656
42.155	17.052	1666.470	1279.201
43.169	16.834	1665.300	1276.550
44.184	16.750	1663.947	1274.764
45.199	16.811	1662.243	1273.804
46.213	16.818	1661.024	1272.811
47.228	16.850	1660.178	1272.291
48.242	17.109	1659.053	1273.260
49.257	17.096	1658.531	1272.646
50.271	17.185	1656.991	1272.023
51.286	17.004	1656.166	1269.916
52.301	17.127	1654.254	1269.259
53.315	17.131	1653.085	1268.283
54.330	17.031	1651.378	1266.117
55.344	17.001	1649.601	1264.414
56.359	16.817	1648.477	1262.070
57.374	16.911	1647.332	1261.780
58.388	16.887	1646.111	1260.559
59.403	16.912	1644.163	1259.141
60.417	16.784	1643.132	1257.291
61.432	16.795	1642.078	1256.455
62.447	16.742	1641.030	1255.149
63.461	16.664	1640.188	1253.816
64.476	16.573	1638.652	1251.854
65.490	16.583	1637.598	1251.015
66.505	16.529	1636.175	1249.418
67.520	16.586	1635.676	1249.346
68.534	16.625	1634.396	1248.543
69.549	16.686	1633.487	1248.191
70.563	16.674	1632.015	1246.865
71.578	16.654	1630.610	1245.537
72.593	16.633	1629.397	1244.343
73.607	16.425	1628.767	1242.227
74.622	16.427	1627.387	1241.073
75.636	16.434	1626.537	1240.372
76.651	16.543	1625.925	1240.591
77.666	16.528	1624.872	1239.567
78.680	16.575	1623.679	1238.893
79.695	16.533	1623.885	1238.636
80.709	16.637	1622.264	1238.051
81.724	16.670	1621.936	1237.934
82.739	16.710	1621.103	1237.480
83.753	16.899	1619.840	1237.783
84.768	16.892	1619.458	1237.333
85.782	16.999	1618.907	1237.586
86.797	17.084	1618.348	1237.666
87.812	17.143	1617.194	1237.103
88.826	17.152	1615.649	1235.875
89.841	17.053	1614.561	1234.218
90.855	17.002	1613.908	1233.236
91.870	17.142	1612.655	1233.190
92.884	17.332	1611.330	1233.441
93.899	17.195	1610.891	1232.000
94.914	17.227	1609.685	1231.206
95.928	17.280	1608.336	1230.449
96.943	17.328	1606.964	1229.637
97.957	17.269	1605.396	1227.901
98.972	17.267	1603.783	1226.541
99.987	17.122	1602.466	1224.382
101.001	17.205	1600.777	1223.581
102.016	17.146	1599.530	1222.094
103.030	17.214	1597.889	1221.220
104.045	17.233	1596.602	1220.267
105.060	17.233	1595.184	1219.079
106.074	17.106	1594.030	1217.178
107.089	17.010	1592.263	1215.032
108.103	16.808	1590.131	1211.853
109.118	16.756	1588.610	1210.213
110.133	16.597	1587.413	1208.058
111.147	16.612	1586.376	1207.268
112.162	16.611	1585.510	1206.497
113.176	16.615	1583.872	1205.173
114.191	16.782	1581.880	1204.740
115.206	16.786	1581.152	1204.105
116.220	16.785	1579.966	1203.092
117.235	16.794	1578.778	1202.141
118.249	16.722	1577.136	1200.279
119.264	16.780	1575.704	1199.487
120.279	16.702	1574.247	1197.722
121.293	16.692	1572.993	1196.590
122.308	16.585	1571.290	1194.432
123.322	16.593	1569.554	1193.064
124.337	16.498	1568.443	1191.447
125.352	16.516	1567.055	1190.416
126.366	16.497	1566.276	1189.585
127.381	16.579	1564.313	1188.562
128.395	16.506	1563.563	1187.376
129.410	16.518	1562.413	1186.485
130.424	16.478	1561.282	1185.235
131.439	16.582	1559.644	1184.619
132.454	16.670	1558.243	1184.062
133.468	16.706	1557.118	1183.353
134.483	16.748	1556.052	1182.733
135.497	16.777	1554.267	1181.473
136.512	16.791	1553.334	1180.762
137.527	16.801	1551.949	1179.669
138.541	16.779	1550.686	1178.452
139.556	16.948	1549.318	1178.483
140.570	16.913	1548.398	1177.436
141.585	16.959	1547.277	1176.800
142.600	17.092	1545.817	1176.505
143.614	17.184	1544.615	1176.124
144.629	17.235	1543.899	1175.826
145.643	17.332	1542.594	1175.400
146.658	17.204	1541.444	1173.537
147.673	17.206	1539.497	1171.968
148.687	17.084	1537.542	1169.534
149.702	16.973	1536.518	1167.889
150.716	16.937	1534.460	1165.973
151.731	16.887	1532.998	1164.418
152.746	16.866	1532.657	1163.908
153.760	16.847	1531.012	1162.424
154.775	16.957	1529.586	1161.995
155.789	16.997	1528.413	1161.272
156.804	17.110	1527.089	1160.936
157.819	17.076	1526.429	1160.103
158.833	17.200	1524.644	1159.487
159.848	17.200	1524.086	1158.962
160.862	17.332	1523.076	1158.989
161.877	17.402	1521.783	1158.381
162.892	17.255	1520.503	1156.302
163.906	16.963	1518.840	1152.954
164.921	16.844	1517.542	1151.057
165.935	16.901	1516.622	1150.646
166.950	16.939	1515.002	1149.572
167.964	16.992	1514.227	1149.238
168.979	17.206	1512.847	1149.539
169.994	17.013	1512.223	1147.660
171.008	17.057	1511.190	1147.068
172.023	17.125	1509.809	1146.378
173.037	17.134	1508.758	1145.541
174.052	17.231	1508.082	1145.581
175.067	17.290	1507.178	1145.189
176.081	17.267	1505.818	1143.899
177.096	17.067	1503.940	1141.028
178.110	17.027	1502.321	1139.432
179.125	17.011	1501.416	1138.536
180.140	17.029	1500.823	1138.106
181.154	17.082	1499.768	1137.559
182.169	17.131	1498.433	1136.771
183.183	17.186	1498.054	1136.754
184.198	17.324	1496.643	1136.502
185.213	17.405	1495.601	1136.153
186.227	17.377	1494.948	1135.373
187.242	17.414	1493.677	1134.552
188.256	17.490	1492.644	1134.174
189.271	17.590	1491.638	1133.974
190.286	17.583	1490.839	1133.217
191.300	17.514	1489.977	1132.004
192.315	17.268	1488.380	1129.060
193.329	17.003	1486.426	1125.720
194.344	16.949	1485.813	1124.798
195.359	17.048	1484.370	1124.260
196.373	17.128	1483.815	1124.271
197.388	17.203	1482.786	1123.885
198.402	17.306	1482.013	1123.883
199.417	17.417	1481.111	1123.831
200.432	17.558	1479.882	1123.731
201.446	17.652	1479.637	1124.065
202.461	17.650	1478.911	1123.398
203.475	17.784	1477.527	1123.131
204.490	17.885	1476.257	1122.733
205.504	17.702	1475.731	1121.031
206.519	17.611	1473.979	1118.999
207.534	17.555	1472.526	1117.430
208.548	17.475	1471.876	1116.316
209.563	17.432	1470.715	1115.054
210.577	17.552	1469.439	1114.775
211.592	17.576	1468.795	1114.341
212.607	17.511	1468.307	1113.447
213.621	17.659	1467.736	1113.882
214.636	17.907	1466.627	1114.565
215.650	17.802	1465.420	1112.863
216.665	17.676	1465.103	1111.703
217.680	17.824	1464.079	1111.791
218.694	17.815	1463.420	1111.138
219.709	18.025	1462.365	1111.602
220.723	17.990	1461.222	1110.410
221.738	17.921	1460.459	1109.282
222.753	17.856	1459.941	1108.366
223.767	17.913	1458.603	1107.620
224.782	17.822	1457.854	1106.365
225.796	17.897	1456.827	1105.975
226.811	18.065	1456.023	1106.353
227.826	18.102	1454.986	1105.705
228.840	17.995	1454.438	1104.504
229.855	17.970	1453.053	1103.191
230.869	17.785	1452.790	1101.699
231.884	17.751	1451.667	1100.527
232.899	17.909	1449.556	1099.850
233.913	17.716	1448.927	1098.035
234.928	17.707	1447.610	1096.880
235.942	17.660	1446.717	1095.804
236.957	17.664	1444.828	1094.301
237.972	17.645	1443.669	1093.202
238.986	17.644	1442.968	1092.569
240.001	17.735	1442.149	1092.438
241.015	17.674	1441.470	1091.434
242.030	17.754	1439.961	1090.709
243.045	17.779	1439.373	1090.328
244.059	17.897	1438.180	1090.082
245.074	17.970	1437.422	1089.874
246.088	17.860	1436.809	1088.609
247.103	17.947	1436.209	1088.614
248.117	18.171	1434.690	1088.795
249.132	18.064	1434.596	1087.948
250.147	18.220	1434.215	1088.552
251.161	18.470	1433.120	1089.215
252.176	18.591	1432.789	1089.633
253.190	18.692	1432.123	1089.675
254.205	18.624	1431.230	1088.469
255.220	18.619	1430.693	1087.929
256.234	18.729	1429.838	1087.881
257.249	18.784	1428.883	1087.409
258.263	18.709	1428.260	1086.359
259.278	18.614	1427.296	1084.933
260.293	18.636	1426.052	1084.025
261.307	18.687	1425.430	1083.782
262.322	18.822	1424.545	1083.862
263.336	18.770	1423.960	1082.992
264.351	18.823	1422.796	1082.351
265.366	18.787	1422.020	1081.435
266.380	18.818	1421.017	1080.774
267.395	18.956	1420.027	1080.789
268.409	18.871	1419.124	1079.474
269.424	18.703	1418.619	1077.940
270.439	18.730	1417.217	1076.949
271.453	18.658	1416.018	1075.489
272.468	18.712	1414.737	1074.760
273.482	18.626	1414.173	1073.699
274.497	18.573	1413.381	1072.670
275.512	18.617	1412.646	1072.295
276.526	18.508	1411.919	1070.962
277.541	18.645	1410.353	1070.538
278.555	18.640	1409.998	1070.141
279.570	18.760	1408.957	1070.008
280.585	18.780	1407.943	1069.265
281.599	18.834	1407.562	1069.217
282.614	18.889	1406.682	1068.798
283.628	18.786	1405.487	1067.152
284.643	18.788	1403.948	1065.905
285.657	18.731	1402.800	1064.586
286.672	18.756	1402.284	1064.250
287.687	18.752	1401.550	1063.577
288.701	18.710	1400.187	1062.191
289.716	18.766	1399.718	1062.087
290.730	18.760	1398.756	1061.225
291.745	18.782	1397.600	1060.389
292.760	18.844	1396.673	1059.977
293.774	18.816	1395.868	1059.100
294.789	18.875	1394.819	1058.568
295.803	18.969	1393.879	1058.341
296.818	19.116	1392.834	1058.358
297.833	18.961	1392.288	1056.896
298.847	18.908	1391.340	1055.762
299.862	18.868	1390.103	1054.483
300.876	18.979	1389.081	1054.296
301.891	18.913	1388.151	1053.092
302.906	18.971	1387.720	1053.029
303.920	19.133	1386.903	1053.305
304.935	19.074	1386.651	1052.658
305.949	19.149	1385.724	1052.319
306.964	19.377	1384.679	1052.827
307.979	19.396	1383.985	1052.322
308.993	19.232	1382.917	1050.415
310.008	19.320	1381.909	1050.094
311.022	19.250	1380.861	1048.775
312.037	19.358	1380.175	1048.819
313.052	19.363	1378.703	1047.641
314.066	19.266	1378.304	1046.652
315.081	19.161	1377.202	1045.088
316.095	19.081	1375.522	1043.238
317.110	18.892	1375.077	1041.658
318.125	18.937	1373.777	1040.859
319.139	19.095	1372.679	1040.890
320.154	18.910	1372.140	1039.268
321.168	18.936	1370.887	1038.382
322.183	19.029	1369.858	1038.071
323.197	19.062	1369.037	1037.557
324.212	18.992	1368.365	1036.534
325.227	19.017	1367.581	1036.002
326.241	19.222	1366.484	1036.314
327.256	19.219	1365.320	1035.317
328.270	19.055	1364.975	1033.979
329.285	19.119	1363.901	1033.457
330.300	19.051	1363.123	1032.369
331.314	19.063	1362.521	1031.898
332.329	19.097	1361.397	1031.157
333.343	19.088	1360.493	1030.327
334.358	19.094	1359.535	1029.547
335.373	19.276	1358.733	1029.935
336.387	19.304	1357.957	1029.424
337.402	19.288	1357.232	1028.687
338.416	19.378	1356.539	1028.609
339.431	19.471	1356.296	1028.886
340.446	19.414	1355.551	1027.891
341.460	19.626	1354.183	1028.025
342.475	19.630	1353.315	1027.296
343.489	19.703	1353.115	1027.490
344.504	19.774	1351.629	1026.694
345.519	19.798	1351.281	1026.478
346.533	19.799	1350.345	1025.683
347.548	19.860	1349.197	1025.083
348.562	19.888	1348.281	1024.462
349.577	19.959	1347.776	1024.406
350.592	19.792	1347.101	1022.814
351.606	19.753	1345.446	1021.241
352.621	19.604	1344.295	1019.395
353.635	19.630	1343.113	1018.564
354.650	19.481	1342.234	1016.928
355.665	19.482	1341.343	1016.169
356.679	19.586	1340.469	1016.028
357.694	19.501	1339.599	1014.777
358.708	19.606	1338.496	1014.472
359.723	19.785	1337.333	1014.550
360.738	19.670	1336.821	1013.397
361.752	19.801	1335.447	1013.031
362.767	19.760	1334.411	1011.918
363.781	19.816	1333.644	1011.576
364.796	19.857	1332.770	1011.060
365.810	19.805	1332.371	1010.366
366.825	19.892	1331.713	1010.285
367.840	19.996	1331.638	1010.748
368.854	19.977	1330.650	1009.793
369.869	20.133	1330.006	1010.127
370.883	20.224	1329.252	1009.992
371.898	20.064	1328.641	1008.512
372.913	20.079	1327.416	1007.575
373.927	20.017	1326.254	1006.249
374.942	20.062	1325.838	1006.101
375.956	20.191	1324.851	1006.012
376.971	20.179	1324.299	1005.434
377.986	20.078	1323.541	1004.186
379.000	20.140	1322.842	1003.925
380.015	20.286	1321.726	1003.834
381.029	20.256	1321.375	1003.307
382.044	20.397	1320.587	1003.432
383.059	20.447	1319.768	1003.009
384.073	20.400	1319.496	1002.446
385.088	20.412	1318.245	1001.475
386.102	20.215	1317.960	1000.032
387.117	20.367	1317.480	1000.454
388.132	20.441	1316.036	999.698
389.146	20.110	1315.377	997.202
390.161	20.087	1314.269	996.144
391.175	20.220	1312.854	995.744
392.190	20.079	1312.698	994.733
393.205	20.174	1311.871	994.561
394.219	20.299	1311.380	994.818
395.234	20.369	1309.896	994.004
396.248	20.345	1308.188	992.483
397.263	20.227	1307.123	990.914
398.278	20.215	1305.461	989.498
399.292	20.350	1304.319	989.313
400.307	20.109	1303.621	987.322
401.321	20.100	1302.283	986.170
402.336	20.058	1301.299	985.101
403.350	20.130	1300.037	984.467
404.365	20.137	1299.102	983.710
405.380	20.131	1298.330	983.008
406.394	20.271	1297.746	983.268
407.409	20.228	1296.977	982.359
408.423	20.301	1296.818	982.562
409.438	20.461	1296.211	982.922
410.453	20.591	1294.896	982.570
411.467	20.559	1294.546	982.039
412.482	20.755	1294.331	982.897
413.496	20.756	1293.620	982.277
414.511	20.764	1292.906	981.690
415.526	20.817	1292.311	981.448
416.540	20.738	1291.911	980.616
417.555	20.839	1291.256	980.599
418.569	21.004	1290.520	980.885
419.584	20.843	1289.777	979.325
420.599	20.842	1288.788	978.481
421.613	144.781	1434.564	1796.539
422.628	139.729	1455.771	1796.640
