DTS Sentinel unit serial number:	SN413079Multiplexer serial number:	ORYXHardware model number:	OX4-SRSoftware version number:	ORYX F/W v4.00 Oryx Data Collector v3.7.2.0data status	okinstallation	princeton_trtdifferential loss correction	single-endedforward channel	channel 4reverse channel	N/Adate	2019/09/11time	16:19:10forward acquisition time	60.00reverse acquisition time	0.00gamma	496.2192k internal	0.2275k external	0.2275temperature offset calibration	1.0016default loss term (dB/km)	0.3790temperature slope calibration	1.0000multiplexer offset coefficient	1.0000multiplexer slope coefficient	1.0000fibre end	0.00T internal ref (°C)	43.44T ext. ref 1 (°C)	1.07T ext. ref 2 (°C)	39.14length (m)	temperature (°C)	Stokes	anti-Stokes-747.200	-101.877	0.169	0.042
-746.185	26.452	0.130	0.112
-745.171	289.034	-0.307	0.573
-744.156	800.000	0.149	0.535
-743.142	-102.127	-0.287	0.071
-742.127	-8.557	0.031	0.022
-741.112	142.791	0.110	0.150
-740.098	-32.930	-0.219	0.125
-739.083	800.000	0.032	-0.109
-738.069	-138.131	-0.421	0.048
-737.054	-120.134	-0.246	-0.043
-736.039	-13.895	0.133	0.088
-735.025	-53.676	-0.164	0.077
-734.010	28.713	0.106	0.093
-732.996	-200.000	-0.004	-0.085
-731.981	-151.360	-0.442	0.034
-730.966	-165.498	-0.150	-0.007
-729.952	120.511	-0.135	0.173
-728.937	-32.277	-0.230	-0.132
-727.923	-47.035	-0.119	0.060
-726.908	-200.000	0.023	-0.228
-725.894	136.743	-0.127	0.171
-724.879	-94.793	0.212	0.059
-723.864	-200.000	-0.004	-0.153
-722.850	447.964	-0.124	-0.282
-721.835	-200.000	0.059	-0.278
-720.821	-200.000	0.006	-0.047
-719.806	455.817	-0.195	0.445
-718.791	-53.884	-0.238	-0.112
-717.777	-68.929	0.179	0.071
-716.762	-200.000	-0.001	0.032
-715.748	319.113	0.165	-0.322
-714.733	-63.705	-0.286	-0.121
-713.718	-80.536	-0.088	0.030
-712.704	-19.917	0.114	-0.073
-711.689	-200.000	0.003	0.135
-710.675	-94.518	-0.208	0.058
-709.660	-162.330	0.087	-0.004
-708.645	-200.000	0.035	0.214
-707.631	-94.709	-0.427	0.119
-706.616	-68.219	-0.132	-0.053
-705.602	95.453	0.142	-0.167
-704.587	148.287	-0.177	-0.246
-703.572	-133.298	-0.198	-0.026
-702.558	-147.365	0.174	0.015
-701.543	-68.728	0.368	0.147
-700.529	-200.000	0.040	0.329
-699.514	-200.000	-0.051	0.248
-698.499	-96.246	0.134	-0.037
-697.485	-3.109	-0.102	0.073
-696.470	-200.000	0.049	-0.263
-695.456	21.839	-0.252	-0.211
-694.441	454.122	0.056	0.127
-693.426	-13.721	0.102	-0.068
-692.412	-200.000	0.068	-0.337
-691.397	24.684	-0.216	-0.184
-690.383	800.000	-0.016	0.052
-689.368	25.410	-0.174	0.149
-688.354	-155.554	0.276	-0.018
-687.339	38.542	-0.136	-0.125
-686.324	800.000	0.036	0.116
-685.310	357.084	-0.129	-0.264
-684.295	18.497	0.244	-0.201
-683.281	-200.000	0.060	-0.420
-682.266	-200.000	-0.012	0.134
-681.251	-11.460	-0.242	-0.164
-680.237	-200.000	0.002	-0.456
-679.222	-1.153	-0.073	-0.053
-678.208	-99.544	-0.228	-0.059
-677.193	-200.000	0.017	0.195
-676.178	-52.582	-0.224	0.107
-675.164	800.000	0.123	0.369
-674.149	-153.158	-0.175	0.013
-673.135	-60.717	-0.131	0.057
-672.120	30.649	0.093	0.082
-671.105	-48.256	-0.185	0.092
-670.091	190.165	0.067	-0.104
-669.076	-17.015	0.313	-0.203
-668.062	217.897	0.044	-0.073
-667.047	-200.000	-0.003	0.177
-666.032	83.603	0.222	0.249
-665.018	98.513	0.111	0.132
-664.003	800.000	-0.073	-0.226
-662.989	-200.000	0.002	-0.013
-661.974	-21.625	-0.221	-0.138
-660.959	-88.633	-0.112	-0.034
-659.945	182.987	-0.053	-0.080
-658.930	212.999	0.052	0.085
-657.916	-95.895	0.070	-0.019
-656.901	-67.744	0.265	0.107
-655.886	-96.280	-0.120	0.033
-654.872	283.469	-0.045	0.083
-653.857	-98.806	-0.173	0.045
-652.843	683.729	-0.045	0.121
-651.828	0.139	-0.031	0.023
-650.814	108.763	-0.078	-0.095
-649.799	45.124	-0.089	0.084
-648.784	368.639	0.206	0.429
-647.770	64.305	-0.152	-0.158
-646.755	-80.492	-0.337	-0.115
-645.741	-116.729	-0.183	0.035
-644.726	-122.075	-0.108	0.018
-643.711	-77.878	0.155	-0.055
-642.697	800.000	0.108	-0.379
-641.682	800.000	0.129	-0.408
-640.668	800.000	-0.122	0.444
-639.653	800.000	-0.042	-0.127
-638.638	191.139	0.035	-0.053
-637.624	-200.000	-0.033	-0.339
-636.609	301.059	0.090	0.171
-635.595	41.959	0.022	-0.020
-634.580	-200.000	-0.020	-0.300
-633.565	-66.872	-0.205	0.083
-632.551	-200.000	0.033	0.232
-631.536	800.000	0.106	-0.407
-630.522	132.453	-0.035	0.046
-629.507	119.476	-0.156	0.198
-628.492	-72.685	-0.271	-0.103
-627.478	28.388	0.090	0.078
-626.463	315.187	-0.068	0.132
-625.449	53.302	0.155	0.152
-624.434	49.778	0.095	-0.092
-623.419	-200.000	-0.023	-0.205
-622.405	800.000	0.037	0.133
-621.390	336.694	-0.089	0.178
-620.376	-93.819	0.235	-0.066
-619.361	-155.682	-0.166	-0.011
-618.346	595.119	0.048	-0.122
-617.332	93.294	0.123	-0.142
-616.317	-47.713	-0.065	0.032
-615.303	-132.340	-0.180	-0.024
-614.288	53.508	0.249	-0.245
-613.273	-53.814	0.437	-0.204
-612.259	754.483	-0.025	0.069
-611.244	-87.365	0.081	0.025
-610.230	110.953	-0.199	-0.246
-609.215	-103.650	0.255	-0.061
-608.201	57.979	0.028	0.028
-607.186	12.506	0.145	-0.115
-606.171	-15.237	-0.142	0.093
-605.157	124.320	-0.344	-0.443
-604.142	-200.000	-0.010	-0.092
-603.128	-200.000	-0.051	-0.414
-602.113	-200.000	0.011	-0.112
-601.098	-109.746	0.065	0.014
-600.084	-163.913	-0.179	0.009
-599.069	-58.911	-0.217	0.096
-598.055	-48.772	-0.349	-0.172
-597.040	-200.000	-0.004	0.383
-596.025	-32.371	0.191	0.109
-595.011	328.715	0.053	0.104
-593.996	526.245	-0.116	0.279
-592.982	-164.663	-0.455	0.021
-591.967	635.112	0.102	-0.264
-590.952	-165.245	-0.159	-0.007
-589.938	36.029	-0.204	-0.184
-588.923	-200.000	0.016	0.224
-587.909	0.398	0.108	-0.079
-586.894	172.710	-0.139	0.206
-585.879	21.958	0.234	0.195
-584.865	-114.123	-0.229	-0.045
-583.850	-200.000	-0.006	-0.037
-582.836	-200.000	0.001	-0.029
-581.821	32.723	0.115	0.102
-580.806	645.018	-0.181	-0.472
-579.792	264.315	-0.124	0.220
-578.777	15.253	-0.166	0.133
-577.763	-145.963	-0.238	0.022
-576.748	49.531	-0.145	0.140
-575.733	66.789	0.222	0.232
-574.719	243.705	-0.087	-0.150
-573.704	-46.755	0.542	0.272
-572.690	15.367	-0.109	0.087
-571.675	-121.401	-0.288	0.049
-570.661	-64.988	0.025	0.010
-569.646	-200.000	0.009	0.169
-568.631	-167.531	-0.289	-0.012
-567.617	418.269	0.129	-0.282
-566.602	-200.000	0.001	0.212
-565.588	-120.717	0.265	0.046
-564.573	-116.813	-0.191	0.036
-563.558	800.000	0.075	-0.284
-562.544	353.406	-0.124	0.252
-561.529	358.773	-0.011	-0.022
-560.515	707.634	0.124	-0.336
-559.500	188.197	0.088	0.135
-558.485	214.078	0.134	-0.217
-557.471	160.631	-0.192	-0.274
-556.456	-60.038	0.132	-0.058
-555.442	800.000	0.009	0.038
-554.427	-200.000	0.046	-0.267
-553.412	800.000	0.011	0.033
-552.398	-200.000	0.002	-0.131
-551.383	800.000	-0.011	0.042
-550.369	-200.000	0.039	-0.225
-549.354	800.000	0.088	-0.270
-548.339	-200.000	-0.009	0.145
-547.325	-200.000	-0.023	0.277
-546.310	198.159	-0.266	0.416
-545.296	49.366	-0.204	-0.196
-544.281	-151.684	-0.066	0.005
-543.266	-200.000	-0.004	-0.128
-542.252	98.017	-0.043	-0.050
-541.237	-125.433	0.091	-0.014
-540.223	-200.000	-0.002	0.249
-539.208	-46.712	-0.206	-0.103
-538.193	-116.057	-0.254	0.048
-537.179	-80.718	-0.257	0.087
-536.164	800.000	-0.030	0.134
-535.150	-81.457	-0.339	-0.114
-534.135	-22.482	-0.203	0.126
-533.121	26.968	-0.082	0.071
-532.106	-25.639	0.255	-0.154
-531.091	800.000	-0.052	-0.188
-530.077	-30.516	0.204	-0.118
-529.062	-165.593	-0.163	0.007
-528.048	-11.862	0.197	-0.132
-527.033	-122.020	0.033	-0.006
-526.018	109.311	-0.270	-0.330
-525.004	-118.729	-0.099	-0.018
-523.989	-119.447	0.509	-0.090
-522.975	16.287	0.098	-0.079
-521.960	-12.193	-0.099	0.066
-520.945	12.238	-0.268	0.211
-519.931	800.000	0.077	0.229
-518.916	-156.227	-0.431	0.028
-517.902	82.502	0.146	-0.162
-516.887	4.116	0.200	0.150
-515.872	46.319	0.230	-0.218
-514.858	-200.000	-0.014	-0.212
-513.843	205.053	0.083	-0.132
-512.829	30.890	0.197	-0.173
-511.814	-77.036	-0.182	-0.065
-510.799	-79.988	0.177	0.061
-509.785	9.822	0.150	-0.116
-508.770	-75.596	0.098	-0.036
-507.756	-200.000	-0.003	0.172
-506.741	800.000	-0.043	-0.133
-505.726	129.079	-0.082	0.106
-504.712	-138.956	0.101	0.011
-503.697	119.744	-0.231	0.292
-502.683	-3.414	-0.183	0.130
-501.668	-32.416	-0.410	0.234
-500.653	29.902	-0.173	-0.151
-499.639	65.055	-0.117	0.121
-498.624	-200.000	-0.023	0.156
-497.610	753.464	-0.021	0.059
-496.595	-24.854	0.155	-0.094
-495.581	16.440	-0.304	-0.245
-494.566	-105.193	-0.073	-0.017
-493.551	330.546	0.073	-0.144
-492.537	-95.643	-0.173	0.047
-491.522	-145.502	0.089	0.008
-490.508	-200.000	-0.021	-0.176
-489.493	800.000	-0.057	-0.213
-488.478	-200.000	0.051	-0.343
-487.464	-200.000	-0.011	0.158
-486.449	-130.818	-0.313	0.043
-485.435	-200.000	-0.050	0.291
-484.420	175.575	-0.077	0.115
-483.405	800.000	-0.070	-0.206
-482.391	-29.470	-0.163	0.095
-481.376	283.060	-0.073	-0.133
-480.362	-123.029	0.111	0.018
-479.347	78.379	0.221	0.240
-478.332	-200.000	0.065	-0.318
-477.318	137.632	-0.130	0.174
-476.303	795.398	-0.024	-0.067
-475.289	-186.557	0.208	0.003
-474.274	-34.715	0.203	-0.113
-473.259	-50.181	-0.069	-0.033
-472.245	51.787	-0.166	-0.161
-471.230	252.479	0.040	-0.069
-470.216	-164.823	0.233	0.011
-469.201	-200.000	0.000	0.139
-468.186	50.402	-0.243	-0.234
-467.172	-200.000	0.009	-0.251
-466.157	-19.406	0.265	0.167
-465.143	-166.445	0.483	0.021
-464.128	800.000	-0.019	-0.059
-463.113	-200.000	0.012	0.068
-462.099	-200.000	-0.016	-0.377
-461.084	-200.000	-0.028	-0.364
-460.070	800.000	-0.035	-0.116
-459.055	81.623	-0.217	0.239
-458.040	-200.000	-0.032	-0.183
-457.026	-43.105	-0.143	0.074
-456.011	7.107	-0.241	0.183
-454.997	-200.000	0.038	0.274
-453.982	-47.474	0.211	-0.104
-452.968	532.321	-0.020	0.049
-451.953	200.280	-0.106	0.166
-450.938	58.427	-0.064	0.064
-449.924	-120.815	0.081	0.014
-448.909	-200.000	0.020	-0.152
-447.895	-32.449	-0.092	-0.052
-446.880	-162.690	-0.263	-0.013
-445.865	-74.663	-0.237	-0.087
-444.851	-144.536	0.322	-0.030
-443.836	135.078	0.158	0.209
-442.822	-30.572	-0.196	-0.113
-441.807	-98.473	0.120	-0.031
-440.792	-200.000	0.006	0.041
-439.778	-171.988	0.319	-0.011
-438.763	-200.000	0.026	0.153
-437.749	289.208	0.047	-0.086
-436.734	-68.329	0.463	-0.183
-435.719	24.179	0.120	0.101
-434.705	-22.935	-0.233	-0.143
-433.690	60.128	-0.084	0.085
-432.676	111.695	-0.277	0.341
-431.661	-177.988	0.215	-0.005
-430.646	-186.986	0.112	-0.002
-429.632	-56.625	-0.192	-0.087
-428.617	37.666	0.047	0.042
-427.603	800.000	-0.131	0.514
-426.588	-64.217	-0.079	0.033
-425.573	-113.999	0.112	0.022
-424.559	-21.477	0.350	-0.217
-423.544	-200.000	-0.046	-0.209
-422.530	84.828	0.160	0.179
-421.515	68.764	0.262	0.274
-420.500	-85.308	0.081	0.026
-419.486	-66.697	-0.137	-0.055
-418.471	-58.253	0.258	0.114
-417.457	443.655	-0.041	0.091
-416.442	800.000	-0.014	0.061
-415.428	72.361	-0.117	0.124
-414.413	-35.164	0.045	-0.025
-413.398	800.000	-0.015	-0.054
-412.384	800.000	-0.068	-0.293
-411.369	465.275	0.076	-0.173
-410.355	381.890	-0.154	-0.322
-409.340	-54.216	0.212	-0.098
-408.325	-200.000	-0.014	0.343
-407.311	30.648	-0.157	-0.136
-406.296	800.000	0.055	-0.224
-405.282	-200.000	0.007	0.067
-404.267	297.087	-0.081	0.151
-403.252	-160.016	0.211	-0.012
-402.238	677.799	0.028	0.074
-401.223	139.744	-0.021	0.029
-400.209	-155.451	-0.062	-0.004
-399.194	84.971	-0.317	-0.354
-398.179	-200.000	-0.018	0.256
-397.165	753.128	0.161	0.442
-396.150	-181.919	-0.179	0.003
-395.136	3.931	-0.085	0.064
-394.121	-38.325	0.129	0.069
-393.106	-106.898	-0.146	0.033
-392.092	19.588	0.191	-0.156
-391.077	-152.995	0.304	0.022
-390.063	33.329	-0.238	-0.210
-389.048	-72.887	-0.336	0.125
-388.033	-172.881	0.264	0.008
-387.019	291.494	0.172	0.319
-386.004	-200.000	0.024	-0.178
-384.990	800.000	0.092	-0.261
-383.975	800.000	0.075	0.215
-382.960	23.081	-0.156	0.131
-381.946	-5.411	0.301	0.210
-380.931	-200.000	0.001	0.031
-379.917	122.749	0.089	0.114
-378.902	800.000	-0.070	0.288
-377.888	-200.000	0.023	0.196
-376.873	70.580	0.103	0.109
-375.858	253.830	-0.050	0.087
-374.844	-200.000	0.011	0.370
-373.829	419.252	0.153	0.332
-372.815	-172.552	-0.328	-0.011
-371.800	161.553	0.124	-0.176
-370.785	78.337	0.068	0.073
-369.771	-200.000	0.071	-0.369
-368.756	-200.000	0.024	-0.214
-367.742	92.115	0.083	0.095
-366.727	154.526	0.062	0.086
-365.712	-67.482	-0.319	0.127
-364.698	-200.000	0.040	-0.297
-363.683	-125.670	-0.517	-0.080
-362.669	-162.323	0.373	-0.019
-361.654	442.502	0.153	-0.339
-360.639	457.151	-0.117	-0.264
-359.625	-200.000	0.011	-0.303
-358.610	351.677	-0.093	0.187
-357.596	-106.968	0.085	-0.019
-356.581	150.832	-0.115	-0.159
-355.566	-130.045	0.340	0.047
-354.552	64.699	0.035	0.036
-353.537	-200.000	-0.004	-0.045
-352.523	800.000	0.030	-0.118
-351.508	-40.341	-0.019	0.010
-350.493	129.970	-0.147	-0.191
-349.479	-200.000	0.010	0.133
-348.464	145.530	-0.108	-0.147
-347.450	290.241	0.133	0.246
-346.435	-78.616	0.211	-0.073
-345.420	-7.778	0.284	-0.195
-344.406	-67.424	0.206	-0.082
-343.391	-200.000	-0.045	0.258
-342.377	800.000	-0.025	0.088
-341.362	183.591	0.062	-0.092
-340.348	-200.000	-0.009	-0.146
-339.333	201.398	0.050	-0.078
-338.318	236.068	0.148	0.249
-337.304	800.000	0.045	0.151
-336.289	-200.000	-0.003	-0.143
-335.275	689.322	-0.105	-0.279
-334.260	16.818	0.087	0.070
-333.245	-200.000	0.022	0.192
-332.231	-141.136	0.022	-0.002
-331.216	244.990	0.061	0.105
-330.202	38.339	-0.179	0.161
-329.187	-200.000	0.009	0.195
-328.172	-200.000	-0.042	0.191
-327.158	800.000	0.080	0.303
-326.143	222.585	0.086	0.140
-325.129	39.501	-0.112	0.102
-324.114	-117.144	0.196	-0.036
-323.099	-200.000	-0.027	-0.192
-322.085	126.347	-0.245	0.315
-321.070	-200.000	-0.024	0.121
-320.056	-59.045	-0.091	-0.040
-319.041	-43.727	0.197	0.101
-318.026	65.671	-0.049	0.050
-317.012	223.266	0.036	0.059
-315.997	86.234	0.104	0.116
-314.983	-200.000	0.026	0.310
-313.968	-21.852	-0.041	-0.025
-312.953	-200.000	0.012	-0.289
-311.939	70.999	-0.133	-0.140
-310.924	-116.392	-0.145	0.027
-309.910	15.362	0.135	0.107
-308.895	230.463	-0.108	-0.179
-307.880	-179.671	-0.493	-0.011
-306.866	-138.890	0.166	-0.018
-305.851	645.075	-0.118	0.305
-304.837	63.224	0.179	-0.182
-303.822	228.596	-0.236	0.391
-302.807	640.078	-0.171	0.441
-301.793	-27.070	-0.133	-0.079
-300.778	-200.000	-0.030	0.265
-299.764	-45.988	0.294	0.147
-298.749	6.937	0.333	0.252
-297.735	-200.000	0.015	0.147
-296.720	-134.714	0.091	0.011
-295.705	-77.940	-0.027	0.009
-294.691	-26.458	-0.127	0.076
-293.676	-55.918	-0.180	0.081
-292.662	22.427	-0.226	-0.187
-291.647	-200.000	0.009	-0.528
-290.632	581.740	-0.019	0.047
-289.618	800.000	-0.033	0.145
-288.603	24.403	-0.142	-0.119
-287.589	-73.442	0.264	-0.098
-286.574	-23.318	0.183	0.111
-285.559	155.321	-0.098	0.137
-284.545	503.095	0.089	-0.209
-283.530	19.860	-0.226	0.184
-282.516	603.689	0.109	0.275
-281.501	800.000	0.043	-0.171
-280.486	-101.163	0.230	-0.057
-279.472	-112.963	-0.039	0.008
-278.457	-79.504	0.053	-0.018
-277.443	-109.493	0.189	-0.040
-276.428	28.368	0.081	-0.069
-275.413	-154.497	0.442	0.030
-274.399	-47.177	0.158	0.078
-273.384	-84.119	-0.374	0.120
-272.370	-200.000	-0.070	-0.320
-271.355	-132.000	0.062	0.008
-270.340	-101.529	0.231	0.057
-269.326	-200.000	-0.026	0.289
-268.311	800.000	0.063	-0.250
-267.297	-200.000	0.009	0.112
-266.282	-65.584	0.155	0.063
-265.267	294.739	0.048	0.089
-264.253	-146.866	0.399	-0.035
-263.238	-89.114	0.293	-0.088
-262.224	800.000	0.008	-0.032
-261.209	224.699	-0.133	0.217
-260.195	0.796	-0.051	-0.037
-259.180	-141.298	-0.170	0.017
-258.165	129.528	0.064	0.082
-257.151	-200.000	0.004	-0.149
-256.136	92.713	0.186	-0.212
-255.122	536.535	0.016	-0.038
-254.107	-68.606	-0.145	-0.057
-253.092	135.040	0.030	0.040
-252.078	89.733	0.176	-0.199
-251.063	-200.000	-0.045	-0.259
-250.049	546.065	-0.131	0.317
-249.034	-2.279	-0.128	0.091
-248.019	-95.800	0.187	0.050
-247.005	-200.000	0.018	-0.082
-245.990	33.286	-0.139	-0.122
-244.976	5.635	-0.184	-0.138
-243.961	84.853	-0.156	-0.173
-242.946	127.921	0.071	-0.091
-241.932	-200.000	-0.012	0.094
-240.917	-60.849	0.121	-0.052
-239.903	-104.038	-0.391	-0.092
-238.888	101.137	0.031	-0.037
-237.873	-200.000	0.017	0.419
-236.859	446.332	0.101	0.225
-235.844	31.446	0.128	-0.112
-234.830	57.118	0.124	-0.122
-233.815	-100.622	0.178	0.045
-232.800	505.365	-0.187	-0.438
-231.786	-145.859	-0.138	0.012
-230.771	25.780	0.152	0.128
-229.757	-142.681	-0.253	0.025
-228.742	-200.000	0.000	0.026
-227.727	265.386	0.066	-0.117
-226.713	108.330	-0.073	0.089
-225.698	46.859	0.112	0.106
-224.684	-42.576	-0.272	-0.140
-223.669	10.143	-0.292	-0.224
-222.655	-138.448	0.177	-0.020
-221.640	800.000	-0.075	0.317
-220.625	-66.214	0.279	0.112
-219.611	160.181	-0.275	0.387
-218.596	28.531	-0.237	0.203
-217.582	-39.677	0.250	-0.132
-216.567	-64.066	0.249	-0.103
-215.552	-122.641	0.088	0.014
-214.538	-60.722	-0.061	0.026
-213.523	76.985	-0.283	-0.303
-212.509	-93.339	0.221	0.062
-211.494	41.902	-0.184	-0.169
-210.479	179.709	0.211	-0.313
-209.465	260.398	-0.042	0.074
-208.450	121.301	-0.146	-0.183
-207.436	146.315	-0.175	0.237
-206.421	264.172	0.149	-0.262
-205.406	-187.868	-0.286	0.004
-204.392	-24.113	-0.246	0.148
-203.377	105.548	0.210	-0.251
-202.363	800.000	-0.077	-0.306
-201.348	759.989	-0.080	0.219
-200.333	163.625	0.254	0.361
-199.319	-72.621	-0.118	-0.044
-198.304	-186.519	-0.091	0.001
-197.290	550.500	0.130	0.314
-196.275	90.164	0.091	-0.103
-195.260	65.122	0.088	0.090
-194.246	4.216	0.153	-0.113
-193.231	282.270	0.192	0.347
-192.217	-126.212	0.230	0.035
-191.202	531.443	-0.052	0.124
-190.187	58.667	-0.098	0.097
-189.173	266.117	0.180	-0.317
-188.158	33.718	-0.060	-0.053
-187.144	-97.258	0.281	-0.074
-186.129	-127.756	0.145	0.021
-185.114	10.738	-0.193	0.149
-184.100	-42.874	0.091	-0.047
-183.085	224.584	0.102	-0.167
-182.071	-78.659	0.194	-0.067
-181.056	800.000	-0.056	0.195
-180.042	800.000	-0.063	-0.185
-179.027	-200.000	-0.023	-0.459
-178.012	-109.617	0.339	-0.072
-176.998	800.000	-0.063	-0.185
-175.983	-200.000	0.017	-0.215
-174.969	-172.073	0.235	-0.008
-173.954	-184.445	-0.215	0.004
-172.939	800.000	-0.100	0.279
-171.925	515.313	0.073	0.172
-170.910	19.880	0.135	0.110
-169.896	611.682	-0.074	0.187
-168.881	333.269	-0.067	-0.130
-167.866	-167.755	0.401	0.016
-166.852	453.574	0.026	0.059
-165.837	-6.877	-0.259	-0.178
-164.823	386.690	0.040	0.083
-163.808	-128.322	0.267	-0.038
-162.793	-200.000	-0.039	-0.197
-161.779	800.000	-0.048	0.162
-160.764	187.287	0.045	0.068
-159.750	800.000	0.101	0.350
-158.735	-88.365	-0.342	-0.103
-157.720	-164.681	-0.227	0.010
-156.706	733.407	-0.094	-0.253
-155.691	-176.406	0.566	0.015
-154.677	579.726	-0.040	-0.098
-153.662	-163.665	-0.306	-0.015
-152.647	-200.000	0.039	0.460
-151.633	769.294	0.069	0.190
-150.618	90.395	0.166	-0.188
-149.604	149.175	0.090	-0.122
-148.589	800.000	-0.049	-0.139
-147.574	282.358	0.058	0.104
-146.560	-51.021	-0.163	-0.077
-145.545	-78.287	-0.058	0.020
-144.531	-84.610	0.226	-0.072
-143.516	-200.000	0.013	-0.179
-142.502	-55.059	-0.124	0.056
-141.487	481.351	-0.101	0.230
-140.472	-200.000	0.014	-0.247
-139.458	-158.321	-0.164	0.010
-138.443	-137.707	-0.278	0.031
-137.429	263.613	-0.144	0.252
-136.414	92.293	0.152	0.172
-135.399	-102.461	0.245	0.059
-134.385	17.427	-0.143	0.114
-133.370	800.000	-0.036	-0.100
-132.356	800.000	0.057	-0.236
-131.341	561.042	0.054	-0.132
-130.326	-86.176	0.029	-0.009
-129.312	-200.000	-0.037	0.244
-128.297	-200.000	-0.017	0.120
-127.283	139.398	0.100	-0.132
-126.268	190.917	0.181	-0.275
-125.253	-106.895	0.108	0.024
-124.239	101.214	0.169	-0.197
-123.224	800.000	0.137	0.394
-122.210	1.651	-0.204	0.148
-121.195	-58.923	-0.055	0.024
-120.180	-200.000	-0.011	0.133
-119.166	-129.891	0.290	-0.040
-118.151	33.019	-0.253	-0.220
-117.137	242.283	0.075	0.126
-116.122	-90.280	0.188	-0.055
-115.107	391.580	0.083	-0.173
-114.093	-148.331	0.221	-0.018
-113.078	-90.985	-0.069	0.020
-112.064	-200.000	0.020	-0.189
-111.049	-119.943	0.238	0.041
-110.034	795.038	-0.112	0.309
-109.020	-200.000	-0.012	-0.221
-108.005	-100.679	0.212	-0.053
-106.991	45.804	0.032	-0.029
-105.976	800.000	-0.071	0.265
-104.962	401.501	0.140	0.296
-103.947	456.254	-0.055	0.124
-102.932	-21.278	-0.183	0.113
-101.918	-96.393	0.239	-0.064
-100.903	86.903	0.073	-0.081
-99.889	77.256	-0.132	-0.141
-98.874	263.211	0.063	-0.109
-97.859	-36.073	-0.375	0.204
-96.845	-200.000	0.015	-0.110
-95.830	86.768	-0.158	0.176
-94.816	113.256	0.063	-0.077
-93.801	412.148	0.139	-0.296
-92.786	-200.000	-0.006	-0.063
-91.772	78.936	-0.160	0.172
-90.757	304.106	-0.146	-0.272
-89.743	-68.768	-0.203	0.079
-88.728	195.879	-0.048	-0.073
-87.713	-137.009	-0.162	-0.019
-86.699	-200.000	-0.031	0.243
-85.684	-87.705	0.402	0.122
-84.670	261.799	0.076	0.133
-83.655	-63.458	0.088	0.036
-82.640	78.711	-0.088	-0.095
-81.626	264.642	0.149	-0.260
-80.611	800.000	0.065	0.269
-79.597	142.580	0.023	-0.030
-78.582	228.432	-0.113	0.185
-77.567	69.569	0.252	0.260
-76.553	-87.933	0.135	0.041
-75.538	-200.000	-0.014	-0.086
-74.524	-129.515	0.406	-0.056
-73.509	-14.889	-0.059	-0.038
-72.494	-68.169	-0.217	-0.085
-71.480	121.152	0.185	0.232
-70.465	102.159	0.315	-0.370
-69.451	167.318	-0.160	-0.229
-68.436	-200.000	-0.019	0.142
-67.422	-200.000	-0.018	0.165
-66.407	-61.264	-0.237	0.100
-65.392	800.000	0.040	0.134
-64.378	297.262	-0.060	-0.111
-63.363	261.322	0.041	0.072
-62.349	800.000	0.076	0.254
-61.334	165.923	-0.590	-0.838
-60.319	656.401	0.066	0.170
-59.305	800.000	-0.181	-0.775
-58.290	152.519	0.481	0.660
-57.276	793.737	0.623	1.721
-56.261	-200.000	71.955	525.247
-55.246	589.618	1277.053	3159.538
-54.232	145.424	2501.191	3361.030
-53.217	112.703	2367.397	2876.856
-52.203	50.973	2106.335	2003.486
-51.188	45.666	2013.075	1866.528
-50.173	43.669	1993.424	1830.190
-49.159	55.743	2028.690	1972.722
-48.144	61.359	2049.791	2044.291
-47.130	46.441	2014.540	1874.648
-46.115	43.441	2004.344	1837.844
-45.100	43.437	2001.263	1834.914
-44.086	43.447	1999.038	1832.889
-43.071	43.327	1996.618	1829.510
-42.057	43.325	1994.530	1827.509
-41.042	43.211	1992.971	1824.976
-40.027	43.376	1990.665	1824.283
-39.013	43.358	1988.388	1821.957
-37.998	43.322	1987.353	1820.614
-36.984	43.359	1985.440	1819.125
-35.969	43.335	1983.491	1817.048
-34.954	43.365	1981.882	1815.771
-33.940	43.418	1979.910	1814.369
-32.925	43.516	1978.030	1813.455
-31.911	43.466	1976.515	1811.544
-30.896	43.400	1975.001	1809.501
-29.881	43.437	1973.314	1808.208
-28.867	43.553	1971.370	1807.392
-27.852	43.580	1969.855	1806.171
-26.838	43.512	1967.638	1803.464
-25.823	43.467	1966.191	1801.664
-24.809	43.487	1964.354	1800.087
-23.794	43.420	1963.098	1798.270
-22.779	43.503	1961.119	1797.126
-21.765	43.496	1959.199	1795.232
-20.750	43.415	1958.182	1793.509
-19.736	43.434	1956.485	1792.053
-18.721	43.413	1955.025	1790.459
-17.706	43.570	1952.548	1789.509
-16.692	43.471	1951.369	1787.477
-15.677	43.452	1949.703	1785.715
-14.663	43.470	1948.244	1784.470
-13.648	43.441	1947.416	1783.379
-12.633	43.454	1945.926	1782.060
-11.619	43.393	1944.631	1780.263
-10.604	43.418	1943.112	1779.025
-9.590	43.475	1941.332	1777.828
-8.575	43.467	1940.112	1776.565
-7.560	43.415	1938.821	1774.862
-6.546	43.394	1937.632	1773.515
-5.531	43.451	1935.961	1772.418
-4.517	43.457	1934.875	1771.401
-3.502	43.494	1933.748	1770.623
-2.487	43.437	1932.051	1768.502
-1.473	43.463	1931.849	1768.475
-0.458	43.595	1927.607	1765.674
0.556	42.950	1909.155	1743.040
1.571	39.127	1889.533	1692.140
2.586	34.550	1909.531	1669.955
3.600	32.901	1946.005	1686.979
4.615	31.850	1942.915	1674.771
5.629	23.847	1836.739	1515.201
6.644	9.581	1702.344	1290.684
7.659	1.853	1656.344	1195.265
8.673	1.178	1651.756	1186.564
9.688	1.143	1649.325	1184.440
10.702	1.086	1648.036	1182.969
11.717	0.854	1645.957	1179.560
12.731	1.231	1645.390	1181.989
13.746	9.128	1664.679	1257.794
14.761	20.316	1689.907	1365.241
15.775	24.640	1696.493	1404.503
16.790	24.803	1696.178	1405.395
17.804	24.940	1695.383	1405.691
18.819	24.958	1694.394	1404.883
19.834	25.076	1693.607	1405.035
20.848	25.135	1693.774	1405.515
21.863	25.321	1692.081	1405.435
22.877	25.248	1691.513	1404.274
23.892	25.225	1690.382	1403.026
24.907	25.224	1689.779	1402.397
25.921	25.264	1688.698	1401.690
26.936	25.212	1687.628	1400.270
27.950	25.314	1686.046	1399.629
28.965	25.180	1686.228	1398.613
29.980	25.228	1684.957	1397.805
30.994	25.232	1683.743	1396.704
32.009	25.318	1682.489	1396.211
33.023	25.358	1681.178	1395.308
34.038	25.268	1680.566	1393.978
35.053	25.266	1679.884	1393.279
36.067	25.245	1678.853	1392.134
37.082	25.293	1677.824	1391.530
38.096	25.317	1676.892	1390.818
39.111	25.322	1675.974	1389.973
40.126	25.229	1675.657	1388.871
41.140	25.231	1674.981	1388.198
42.155	25.255	1673.674	1387.178
43.169	25.252	1672.274	1385.876
44.184	25.260	1671.631	1385.283
45.199	25.189	1670.569	1383.728
46.213	25.290	1669.258	1383.299
47.228	25.243	1668.144	1381.891
48.242	25.255	1666.572	1380.562
49.257	25.184	1666.101	1379.504
50.271	25.259	1664.662	1378.763
51.286	25.294	1663.161	1377.668
52.301	25.224	1661.828	1375.904
53.315	25.194	1661.032	1374.893
54.330	25.182	1659.843	1373.700
55.344	25.156	1658.413	1372.189
56.359	25.212	1656.867	1371.224
57.374	25.207	1656.054	1370.386
58.388	25.308	1654.520	1369.769
59.403	25.257	1654.208	1369.000
60.417	25.246	1652.646	1367.499
61.432	25.291	1651.490	1366.767
62.447	25.293	1650.269	1365.651
63.461	25.235	1649.729	1364.638
64.476	25.271	1648.738	1363.974
65.490	25.275	1647.575	1362.922
66.505	25.227	1646.561	1361.596
67.520	25.319	1645.767	1361.521
68.534	25.191	1644.932	1359.734
69.549	25.243	1643.840	1359.109
70.563	25.355	1642.141	1358.433
71.578	25.259	1641.458	1357.022
72.593	25.392	1640.241	1356.896
73.607	25.324	1639.578	1355.720
74.622	25.263	1638.523	1354.265
75.636	25.334	1637.871	1354.140
76.651	25.320	1636.865	1353.086
77.666	25.293	1636.112	1352.138
78.680	25.346	1634.961	1351.464
79.695	25.202	1634.635	1349.993
80.709	25.367	1633.396	1350.092
81.724	25.352	1632.349	1348.997
82.739	25.271	1632.098	1348.061
83.753	25.265	1630.937	1346.933
84.768	25.228	1630.120	1345.864
85.782	25.288	1628.941	1345.221
86.797	25.205	1628.166	1343.841
87.812	25.271	1627.692	1343.824
88.826	25.331	1626.236	1342.954
89.841	25.287	1625.327	1341.751
90.855	25.320	1624.433	1341.142
91.870	25.392	1623.022	1340.400
92.884	25.384	1621.963	1339.343
93.899	25.318	1621.131	1338.047
94.914	25.361	1620.216	1337.492
95.928	25.323	1619.351	1336.382
96.943	25.365	1617.583	1335.115
97.957	25.378	1616.413	1334.124
98.972	25.410	1615.256	1333.289
99.987	25.303	1613.774	1331.155
101.001	25.343	1612.217	1330.052
102.016	25.312	1610.912	1328.626
103.030	25.357	1609.204	1327.436
104.045	25.291	1608.716	1326.423
105.060	25.327	1607.197	1325.324
106.074	25.304	1605.998	1324.049
107.089	25.380	1604.563	1323.309
108.103	25.398	1603.825	1322.710
109.118	25.374	1602.650	1321.449
110.133	25.402	1601.035	1320.205
111.147	25.433	1599.706	1319.226
112.162	25.369	1599.360	1318.349
113.176	25.440	1597.731	1317.410
114.191	25.375	1596.921	1316.153
115.206	25.387	1595.820	1315.215
116.220	25.309	1594.972	1313.824
117.235	25.409	1593.106	1312.903
118.249	25.352	1592.855	1312.168
119.264	25.395	1591.130	1310.944
120.279	25.279	1590.467	1309.433
121.293	25.409	1589.142	1309.178
122.308	25.399	1588.287	1308.284
123.322	25.450	1587.044	1307.512
124.337	25.435	1585.407	1305.937
125.352	25.421	1584.675	1305.116
126.366	25.440	1583.462	1304.143
127.381	25.457	1582.916	1303.701
128.395	25.546	1581.573	1303.122
129.410	25.465	1580.855	1301.832
130.424	25.528	1579.263	1300.865
131.439	25.457	1578.623	1299.702
132.454	25.485	1577.175	1298.599
133.468	25.416	1576.146	1297.142
134.483	25.537	1574.546	1296.585
135.497	25.584	1573.182	1295.680
136.512	25.517	1572.208	1294.284
137.527	25.537	1571.030	1293.345
138.541	25.532	1570.303	1292.593
139.556	25.560	1569.169	1291.746
140.570	25.386	1568.465	1289.804
141.585	25.486	1566.621	1288.889
142.600	25.571	1565.031	1288.080
143.614	25.518	1564.136	1286.846
144.629	25.495	1563.572	1286.108
145.643	25.564	1561.833	1285.053
146.658	25.510	1560.743	1283.660
147.673	25.529	1559.573	1282.720
148.687	25.400	1558.351	1280.681
149.702	25.609	1556.897	1280.859
150.716	25.361	1556.439	1278.605
151.731	25.494	1554.716	1278.020
152.746	25.459	1554.044	1277.110
153.760	25.503	1552.389	1275.947
154.775	25.401	1552.015	1274.800
155.789	25.564	1550.493	1274.596
156.804	25.524	1549.551	1273.427
157.819	25.529	1548.518	1272.499
158.833	25.521	1547.631	1271.601
159.848	25.544	1546.355	1270.598
160.862	25.518	1545.740	1269.803
161.877	25.541	1544.453	1268.795
162.892	25.567	1543.366	1267.968
163.906	25.600	1542.588	1267.455
164.921	25.582	1541.736	1266.514
165.935	25.499	1540.921	1265.147
166.950	25.580	1540.064	1264.905
167.964	25.560	1538.665	1263.497
168.979	25.672	1537.428	1263.156
169.994	25.614	1537.115	1262.380
171.008	25.610	1536.192	1261.488
172.023	25.639	1535.066	1260.652
173.037	25.627	1534.339	1259.858
174.052	25.594	1532.986	1258.408
175.067	25.592	1532.225	1257.653
176.081	25.615	1531.040	1256.732
177.096	25.606	1530.121	1255.803
178.110	25.573	1528.884	1254.447
179.125	25.561	1528.149	1253.647
180.140	25.670	1526.572	1253.006
181.154	25.562	1526.395	1251.993
182.169	25.620	1525.876	1251.862
183.183	25.641	1524.597	1250.853
184.198	25.624	1523.740	1249.917
185.213	25.691	1522.631	1249.360
186.227	25.687	1521.918	1248.638
187.242	25.685	1521.369	1248.067
188.256	25.654	1520.489	1247.019
189.271	25.707	1519.423	1246.400
190.286	25.681	1518.481	1245.340
191.300	25.774	1517.421	1245.000
192.315	25.757	1516.996	1244.421
193.329	25.633	1515.560	1242.281
194.344	25.709	1514.838	1242.099
195.359	25.712	1514.490	1241.727
196.373	25.717	1513.720	1241.021
197.388	25.753	1512.545	1240.198
198.402	25.605	1511.488	1238.200
199.417	25.651	1510.541	1237.634
200.432	25.626	1509.622	1236.598
201.446	25.631	1509.282	1236.246
202.461	25.726	1508.115	1235.830
203.475	25.602	1507.208	1234.124
204.490	25.659	1506.250	1233.623
205.504	25.670	1505.364	1232.866
206.519	25.639	1505.073	1232.306
207.534	25.735	1503.826	1231.832
208.548	25.779	1503.092	1231.426
209.563	25.841	1502.134	1230.954
210.577	25.825	1501.079	1229.868
211.592	25.741	1500.631	1228.821
212.607	25.755	1499.751	1228.086
213.621	25.928	1499.019	1228.557
214.636	25.881	1498.706	1227.872
215.650	25.774	1497.727	1226.233
216.665	25.864	1496.663	1225.865
217.680	25.802	1496.430	1225.143
218.694	25.755	1495.666	1224.093
219.709	25.904	1494.264	1223.846
220.723	25.853	1493.259	1222.568
221.738	25.787	1492.865	1221.694
222.753	25.826	1491.998	1221.137
223.767	25.790	1490.848	1219.845
224.782	25.774	1489.488	1218.518
225.796	25.841	1489.012	1218.470
226.811	25.876	1488.395	1218.096
227.826	25.882	1487.887	1217.613
228.840	25.901	1486.682	1216.649
229.855	25.846	1486.243	1215.807
230.869	25.794	1485.556	1214.790
231.884	25.800	1484.990	1214.258
232.899	25.964	1483.001	1213.628
233.913	25.905	1482.577	1212.777
234.928	25.799	1481.497	1211.071
235.942	25.951	1480.450	1211.133
236.957	25.867	1479.898	1210.007
237.972	25.942	1478.329	1209.120
238.986	25.940	1477.174	1208.057
240.001	25.934	1476.492	1207.357
241.015	26.061	1475.344	1207.160
242.030	26.156	1474.346	1206.867
243.045	26.127	1473.291	1205.701
244.059	26.049	1472.581	1204.494
245.074	26.040	1471.809	1203.701
246.088	25.979	1471.450	1202.889
247.103	26.033	1470.628	1202.471
248.117	26.109	1469.450	1201.909
249.132	26.060	1468.730	1200.885
250.147	26.063	1468.163	1200.337
251.161	26.147	1467.296	1200.080
252.176	26.258	1466.625	1200.161
253.190	26.201	1465.853	1199.046
254.205	26.129	1465.227	1197.954
255.220	26.122	1464.645	1197.326
256.234	26.114	1463.790	1196.465
257.249	26.096	1463.006	1195.600
258.263	26.272	1462.328	1196.101
259.278	26.166	1461.443	1194.577
260.293	26.137	1460.462	1193.476
261.307	26.244	1459.480	1193.274
262.322	26.260	1458.732	1192.661
263.336	26.266	1458.529	1192.427
264.351	26.272	1457.517	1191.534
265.366	26.184	1456.390	1189.931
266.380	26.210	1455.605	1189.352
267.395	26.214	1454.711	1188.546
268.409	26.171	1454.208	1187.747
269.424	26.243	1453.153	1187.253
270.439	26.262	1451.970	1186.304
271.453	26.171	1451.357	1185.101
272.468	26.289	1450.606	1185.160
273.482	26.284	1449.659	1184.249
274.497	26.283	1448.827	1183.456
275.512	26.271	1448.117	1182.691
276.526	26.223	1447.690	1181.928
277.541	26.305	1446.347	1181.262
278.555	26.304	1445.812	1180.715
279.570	26.406	1444.833	1180.474
280.585	26.391	1444.125	1179.695
281.599	26.330	1443.320	1178.534
282.614	26.382	1442.244	1177.891
283.628	26.320	1441.269	1176.587
284.643	26.368	1440.480	1176.148
285.657	26.370	1439.531	1175.282
286.672	26.430	1438.623	1174.826
287.687	26.349	1437.927	1173.627
288.701	26.182	1437.740	1172.291
289.716	26.389	1436.322	1172.369
290.730	26.411	1435.862	1172.038
291.745	26.473	1434.740	1171.418
292.760	26.491	1434.059	1170.872
293.774	26.389	1433.570	1169.714
294.789	26.357	1432.382	1168.429
295.803	26.390	1431.940	1168.184
296.818	26.491	1430.866	1167.856
297.833	26.506	1430.156	1167.270
298.847	26.489	1429.060	1166.156
299.862	26.521	1428.001	1165.399
300.876	26.553	1427.391	1165.002
301.891	26.530	1426.480	1164.010
302.906	26.566	1425.862	1163.631
303.920	26.581	1425.412	1163.258
304.935	26.608	1424.270	1162.398
305.949	26.585	1423.699	1161.684
306.964	26.652	1422.915	1161.365
307.979	26.624	1421.828	1160.198
308.993	26.667	1421.113	1159.790
310.008	26.600	1420.454	1158.720
311.022	26.759	1419.412	1158.780
312.037	26.678	1418.377	1157.316
313.052	26.646	1417.512	1156.306
314.066	26.653	1416.604	1155.505
315.081	26.719	1415.721	1155.107
316.095	26.754	1414.541	1154.265
317.110	26.743	1414.012	1153.658
318.125	26.762	1413.098	1152.933
319.139	26.713	1412.670	1152.171
320.154	26.778	1411.407	1151.452
321.168	26.667	1410.512	1149.913
322.183	26.744	1409.713	1149.649
323.197	26.786	1408.795	1149.064
324.212	26.754	1408.074	1148.173
325.227	26.741	1407.716	1147.694
326.241	26.752	1406.643	1146.789
327.256	26.766	1406.137	1146.362
328.270	26.894	1405.112	1146.233
329.285	26.833	1404.281	1145.071
330.300	26.779	1403.739	1144.184
331.314	26.769	1402.887	1143.327
332.329	26.846	1402.106	1143.076
333.343	26.860	1401.169	1142.302
334.358	26.833	1400.709	1141.654
335.373	26.872	1399.939	1141.169
336.387	26.918	1399.186	1140.742
337.402	26.999	1398.080	1140.249
338.416	27.028	1397.627	1139.961
339.431	26.943	1397.351	1139.102
340.446	27.046	1396.446	1138.912
341.460	27.056	1395.626	1138.202
342.475	27.059	1394.417	1137.138
343.489	26.968	1393.804	1135.967
344.504	27.006	1393.290	1135.682
345.519	27.038	1391.947	1134.687
346.533	27.033	1391.035	1133.814
347.548	27.078	1390.280	1133.378
348.562	27.085	1389.578	1132.748
349.577	27.078	1388.984	1132.120
350.592	27.088	1388.033	1131.306
351.606	26.953	1387.355	1129.817
352.621	27.028	1386.467	1129.458
353.635	27.070	1385.155	1128.552
354.650	27.101	1384.952	1128.476
355.665	26.987	1384.284	1127.127
356.679	27.147	1382.725	1126.747
357.694	27.214	1381.503	1126.067
358.708	27.221	1380.218	1124.963
359.723	27.241	1379.238	1124.193
360.738	27.117	1378.515	1122.735
361.752	27.072	1377.535	1121.559
362.767	27.129	1376.396	1120.888
363.781	27.154	1375.558	1120.259
364.796	27.262	1374.759	1120.171
365.810	27.201	1374.427	1119.430
366.825	27.180	1373.681	1118.595
367.840	27.195	1373.009	1118.039
368.854	27.190	1372.434	1117.438
369.869	27.284	1371.957	1117.531
370.883	27.373	1370.931	1117.145
371.898	27.293	1370.242	1115.990
372.913	27.291	1369.717	1115.455
373.927	27.351	1368.663	1114.861
374.942	27.278	1368.150	1113.903
375.956	27.409	1367.128	1113.771
376.971	27.370	1366.535	1112.947
377.986	27.375	1365.893	1112.359
379.000	27.302	1365.068	1111.146
380.015	27.306	1364.614	1110.698
381.029	27.429	1363.633	1110.556
382.044	27.403	1362.858	1109.669
383.059	27.416	1362.185	1109.101
384.073	27.475	1361.328	1108.664
385.088	27.469	1361.277	1108.483
386.102	27.412	1360.548	1107.448
387.117	27.496	1359.702	1107.170
388.132	27.546	1359.272	1107.024
389.146	27.452	1358.405	1105.653
390.161	27.515	1357.680	1105.344
391.175	27.481	1356.851	1104.367
392.190	27.555	1356.150	1104.145
393.205	27.585	1355.156	1103.425
394.219	27.622	1354.582	1103.083
395.234	27.573	1353.553	1101.847
396.248	27.573	1352.949	1101.262
397.263	27.621	1351.629	1100.380
398.278	27.662	1350.155	1099.327
399.292	27.764	1349.287	1099.140
400.307	27.635	1348.707	1097.793
401.321	27.700	1347.724	1097.285
402.336	27.693	1347.039	1096.587
403.350	27.661	1346.076	1095.514
404.365	27.560	1345.070	1093.991
405.380	27.744	1344.026	1094.149
406.394	27.636	1343.472	1092.958
407.409	27.801	1342.758	1093.268
408.423	27.827	1342.313	1092.961
409.438	27.881	1341.524	1092.550
410.453	27.833	1340.996	1091.733
411.467	27.861	1340.332	1091.262
412.482	27.812	1339.706	1090.364
413.496	27.809	1339.130	1089.783
414.511	27.789	1338.439	1089.006
415.526	27.795	1337.738	1088.375
416.540	27.729	1337.229	1087.466
417.555	27.846	1335.539	1086.694
418.569	27.800	1335.737	1086.486
419.584	27.858	1334.857	1086.021
420.599	27.972	1334.340	1086.179
421.613	71.198	1311.614	1312.930
422.628	71.845	1308.322	1313.063
