DTS Sentinel unit serial number:	SN413079Multiplexer serial number:	ORYXHardware model number:	OX4-SRSoftware version number:	ORYX F/W v4.00 Oryx Data Collector v3.7.2.0data status	okinstallation	princeton_trtdifferential loss correction	single-endedforward channel	channel 4reverse channel	N/Adate	2019/09/17time	09:25:35forward acquisition time	60.00reverse acquisition time	0.00gamma	496.2192k internal	0.2313k external	0.2313temperature offset calibration	0.9973default loss term (dB/km)	0.3790temperature slope calibration	1.0000multiplexer offset coefficient	1.0000multiplexer slope coefficient	1.0000fibre end	0.00T internal ref (°C)	28.84T ext. ref 1 (°C)	0.16T ext. ref 2 (°C)	25.65length (m)	temperature (°C)	Stokes	anti-Stokes-747.200	-127.735	0.107	0.016
-746.185	-7.792	-0.094	0.064
-745.171	-94.592	-0.236	0.065
-744.156	213.239	0.088	0.141
-743.142	-200.000	-0.005	0.329
-742.127	800.000	-0.149	0.646
-741.112	-200.000	-0.001	0.011
-740.098	279.225	-0.146	0.263
-739.083	15.621	-0.252	0.201
-738.069	-200.000	-0.039	0.302
-737.054	313.854	-0.110	0.209
-736.039	-84.543	-0.155	-0.049
-735.025	48.992	0.228	0.217
-734.010	45.040	-0.134	0.125
-732.996	-200.000	0.020	-0.328
-731.981	24.398	-0.206	-0.173
-730.966	-200.000	0.003	-0.084
-729.952	-19.014	-0.331	-0.209
-728.937	326.902	0.020	-0.039
-727.923	-1.407	-0.220	0.157
-726.908	568.066	0.091	0.224
-725.894	800.000	-0.018	0.070
-724.879	-25.725	0.102	0.061
-723.864	217.700	0.161	0.260
-722.850	-71.771	-0.325	-0.123
-721.835	-105.380	-0.282	-0.065
-720.821	92.270	-0.141	-0.161
-719.806	674.418	-0.095	-0.250
-718.791	-19.751	-0.310	-0.194
-717.777	145.560	0.129	-0.175
-716.762	77.839	0.201	0.217
-715.748	137.033	-0.209	0.277
-714.733	-80.388	0.104	-0.035
-713.718	-200.000	-0.003	-0.164
-712.704	302.963	0.080	0.150
-711.689	260.367	-0.128	0.224
-710.675	98.489	0.060	-0.070
-709.660	37.316	-0.249	0.223
-708.645	-64.402	-0.128	0.053
-707.631	-23.974	0.110	0.067
-706.616	89.105	-0.016	0.018
-705.602	-150.504	0.200	-0.016
-704.587	-80.267	-0.159	-0.054
-703.572	-200.000	-0.019	0.197
-702.558	-200.000	0.011	-0.112
-701.543	85.699	-0.140	-0.156
-700.529	800.000	0.020	0.083
-699.514	16.840	0.223	0.179
-698.499	40.632	0.137	-0.125
-697.485	34.859	0.060	0.053
-696.470	705.670	-0.128	-0.343
-695.456	-46.233	-0.276	0.137
-694.441	-49.002	0.054	0.026
-693.426	-118.480	-0.255	-0.046
-692.412	800.000	0.060	-0.169
-691.397	675.199	-0.025	-0.065
-690.383	207.252	-0.198	-0.313
-689.368	175.519	0.082	-0.120
-688.354	-200.000	-0.042	0.232
-687.339	135.760	0.094	-0.124
-686.324	-94.870	0.252	0.069
-685.310	-34.847	-0.095	0.053
-684.295	800.000	-0.106	0.347
-683.281	-200.000	0.018	-0.169
-682.266	6.580	-0.111	0.083
-681.251	-200.000	-0.024	-0.132
-680.237	-86.057	-0.153	-0.048
-679.222	-200.000	-0.013	-0.143
-678.208	-31.268	-0.169	-0.096
-677.193	59.222	-0.198	-0.197
-676.178	-9.253	-0.244	-0.165
-675.164	-1.054	-0.062	0.045
-674.149	44.517	0.039	-0.037
-673.135	111.941	-0.140	-0.171
-672.120	-200.000	0.020	0.239
-671.105	-200.000	0.037	0.214
-670.091	1.951	-0.154	0.113
-669.076	-83.951	-0.208	-0.067
-668.062	800.000	0.046	0.200
-667.047	-148.094	-0.263	0.022
-666.032	72.143	0.253	0.267
-665.018	41.111	0.346	-0.316
-664.003	-200.000	0.009	-0.228
-662.989	432.711	0.070	0.154
-661.974	-107.800	-0.087	0.019
-660.959	-86.678	-0.174	-0.054
-659.945	699.278	0.050	-0.134
-658.930	277.430	-0.019	0.034
-657.916	119.970	0.077	0.097
-656.901	800.000	0.004	-0.016
-655.886	-158.400	-0.253	-0.015
-654.872	96.998	-0.088	-0.102
-653.857	800.000	0.079	-0.311
-652.843	-200.000	0.051	-0.489
-651.828	-67.212	-0.091	-0.036
-650.814	-107.050	-0.382	-0.085
-649.799	-44.404	0.055	-0.028
-648.784	-200.000	-0.036	-0.201
-647.770	23.616	0.214	-0.178
-646.755	800.000	-0.059	-0.192
-645.741	247.998	0.219	0.374
-644.726	-27.128	0.097	0.057
-643.711	22.829	0.486	-0.402
-642.697	283.301	-0.128	-0.231
-641.682	800.000	-0.093	-0.279
-640.668	246.490	-0.164	0.279
-639.653	281.470	0.065	-0.117
-638.638	800.000	-0.060	-0.196
-637.624	162.610	-0.096	-0.136
-636.609	2.069	0.089	-0.065
-635.595	800.000	-0.052	-0.180
-634.580	3.450	0.106	-0.078
-633.565	19.291	-0.143	-0.116
-632.551	143.531	-0.153	-0.206
-631.536	-200.000	0.040	0.232
-630.522	14.289	0.166	-0.131
-629.507	-200.000	-0.055	-0.341
-628.492	359.481	-0.094	0.189
-627.478	-93.706	-0.184	0.051
-626.463	-79.682	-0.070	-0.024
-625.449	-73.917	0.082	0.030
-624.434	-82.440	-0.183	0.060
-623.419	-33.599	-0.256	0.143
-622.405	-147.079	-0.197	-0.017
-621.390	727.637	0.065	0.176
-620.376	90.433	-0.203	-0.230
-619.361	-35.195	0.042	-0.023
-618.346	6.596	-0.393	-0.295
-617.332	-116.652	0.466	0.086
-616.317	508.055	-0.105	0.245
-615.303	-200.000	0.028	0.229
-614.288	-26.094	-0.171	0.102
-613.273	-102.109	0.176	0.043
-612.259	632.682	-0.046	0.117
-611.244	800.000	0.024	0.070
-610.230	-136.856	-0.055	-0.006
-609.215	-200.000	-0.043	-0.233
-608.201	-200.000	0.033	-0.239
-607.186	18.300	0.193	-0.156
-606.171	800.000	-0.062	-0.267
-605.157	4.636	-0.070	-0.052
-604.142	-200.000	-0.039	-0.220
-603.128	-73.905	0.143	0.052
-602.113	-28.990	-0.379	0.219
-601.098	-95.743	0.083	0.022
-600.084	304.335	-0.078	-0.146
-599.069	190.486	0.049	0.075
-598.055	85.958	-0.079	-0.088
-597.040	9.555	0.161	-0.123
-596.025	-98.542	-0.185	0.048
-595.011	214.553	0.059	0.094
-593.996	-148.113	0.224	0.019
-592.982	76.582	-0.107	0.114
-591.967	70.736	-0.058	0.061
-590.952	-16.246	0.124	-0.079
-589.938	479.572	0.136	0.310
-588.923	-116.043	-0.389	0.073
-587.909	-200.000	-0.066	-0.301
-586.894	631.091	0.030	-0.076
-585.879	304.616	0.072	0.134
-584.865	49.036	-0.130	-0.123
-583.850	154.803	-0.315	0.436
-582.836	-46.929	-0.352	-0.174
-581.821	19.107	-0.099	-0.080
-580.806	-34.788	-0.155	0.085
-579.792	156.972	-0.128	-0.179
-578.777	138.775	-0.293	0.388
-577.763	309.081	-0.113	-0.213
-576.748	800.000	0.190	0.534
-575.733	-132.442	-0.048	-0.006
-574.719	32.945	0.212	-0.185
-573.704	7.171	-0.101	0.076
-572.690	15.039	0.051	-0.040
-571.675	119.780	0.214	-0.267
-570.661	-23.602	0.201	0.122
-569.646	204.776	-0.121	-0.188
-568.631	211.315	-0.131	-0.208
-567.617	522.231	0.085	-0.202
-566.602	-196.131	0.357	0.003
-565.588	-9.474	0.168	0.113
-564.573	79.711	-0.027	0.029
-563.558	800.000	0.099	-0.422
-562.544	-83.167	-0.363	-0.117
-561.529	-200.000	-0.008	0.109
-560.515	-200.000	-0.008	0.222
-559.500	-127.859	0.500	0.073
-558.485	-151.325	-0.259	0.019
-557.471	-93.577	-0.112	0.031
-556.456	23.324	-0.252	-0.209
-555.442	-180.871	-0.206	0.004
-554.427	-101.327	-0.116	-0.028
-553.412	32.147	0.196	0.170
-552.398	265.596	-0.019	0.033
-551.383	-149.726	-0.246	0.019
-550.369	-142.608	0.110	-0.011
-549.354	-112.241	0.072	-0.015
-548.339	184.115	-0.218	-0.324
-547.325	-8.257	0.089	0.060
-546.310	447.440	-0.106	0.235
-545.296	-200.000	0.047	0.359
-544.281	-200.000	-0.031	0.310
-543.266	361.771	0.072	0.145
-542.252	414.637	-0.018	0.039
-541.237	-200.000	0.037	-0.198
-540.223	119.524	-0.132	0.164
-539.208	-15.746	-0.094	0.060
-538.193	-200.000	-0.001	-0.015
-537.179	60.385	0.275	-0.274
-536.164	-51.500	0.208	-0.098
-535.150	-60.917	-0.236	-0.101
-534.135	16.956	0.183	-0.146
-533.121	-200.000	0.033	-0.153
-532.106	-86.236	0.235	-0.073
-531.091	-200.000	-0.012	0.127
-530.077	800.000	0.043	-0.186
-529.062	-38.822	-0.077	0.041
-528.048	-51.702	0.417	0.196
-527.033	-88.484	-0.175	-0.052
-526.018	-7.727	-0.184	-0.125
-525.004	-200.000	-0.032	-0.372
-523.989	800.000	0.042	-0.184
-522.975	-200.000	-0.005	-0.113
-521.960	-53.562	0.207	0.095
-520.945	163.984	0.062	0.088
-519.931	113.701	-0.118	-0.144
-518.916	-44.084	0.442	-0.223
-517.902	-119.513	-0.334	-0.058
-516.887	110.398	0.101	0.122
-515.872	-103.809	-0.315	0.074
-514.858	800.000	-0.059	0.216
-513.843	-200.000	-0.022	-0.138
-512.829	223.784	-0.144	-0.233
-511.814	25.571	-0.083	0.069
-510.799	19.167	-0.069	-0.055
-509.785	155.022	0.071	0.099
-508.770	258.152	-0.072	-0.125
-507.756	-200.000	-0.018	0.079
-506.741	-84.859	0.050	0.016
-505.726	800.000	-0.145	-0.484
-504.712	800.000	-0.074	-0.261
-503.697	191.687	-0.144	0.218
-502.683	-200.000	0.000	0.030
-501.668	-89.235	-0.206	-0.061
-500.653	165.271	0.205	-0.291
-499.639	133.296	-0.062	0.080
-498.624	-9.256	-0.208	0.140
-497.610	219.181	0.185	-0.298
-496.595	-77.933	0.208	0.072
-495.581	-200.000	-0.028	0.238
-494.566	-167.349	0.190	-0.008
-493.551	-100.139	-0.407	0.102
-492.537	-90.159	0.079	0.023
-491.522	199.717	0.128	0.197
-490.508	-200.000	0.068	0.437
-489.493	-200.000	-0.015	0.228
-488.478	70.050	0.085	-0.088
-487.464	-200.000	0.009	0.109
-486.449	90.334	-0.148	0.166
-485.435	-200.000	0.054	-0.255
-484.420	-200.000	0.015	0.298
-483.405	44.256	0.177	0.163
-482.391	541.004	-0.102	-0.243
-481.376	-82.193	-0.181	-0.059
-480.362	800.000	-0.051	0.145
-479.347	23.420	-0.100	-0.083
-478.332	-98.209	-0.272	-0.070
-477.318	9.169	0.217	0.165
-476.303	545.400	0.005	0.013
-475.289	-154.064	0.270	-0.018
-474.274	-42.233	0.108	-0.055
-473.259	-123.064	-0.401	-0.065
-472.245	-0.803	-0.232	0.165
-471.230	800.000	0.056	-0.190
-470.216	136.801	-0.212	-0.278
-469.201	-200.000	0.025	-0.146
-468.186	-45.213	-0.084	-0.042
-467.172	-89.386	0.453	0.134
-466.157	26.306	0.348	0.292
-465.143	800.000	0.029	-0.111
-464.128	-39.317	-0.079	-0.042
-463.113	800.000	0.012	-0.054
-462.099	15.853	-0.193	-0.152
-461.084	-152.638	0.205	-0.015
-460.070	800.000	0.042	-0.141
-459.055	-200.000	-0.020	-0.098
-458.040	-200.000	-0.019	0.168
-457.026	310.879	0.108	0.202
-456.011	154.840	0.247	-0.340
-454.997	37.487	0.132	-0.118
-453.982	800.000	-0.104	0.421
-452.968	-128.170	-0.343	-0.049
-451.953	-101.293	-0.145	-0.036
-450.938	-200.000	0.021	0.448
-449.924	-37.949	-0.155	-0.082
-448.909	149.706	-0.051	-0.069
-447.895	-142.256	-0.179	-0.018
-446.880	15.062	-0.159	-0.125
-445.865	475.239	0.096	0.216
-444.851	0.871	0.172	-0.124
-443.836	-199.276	0.120	0.001
-442.822	-44.788	0.146	0.073
-441.807	800.000	-0.066	0.213
-440.792	-20.592	-0.164	0.101
-439.778	160.440	0.159	0.223
-438.763	-106.194	0.092	0.021
-437.749	-17.822	-0.131	-0.082
-436.734	-39.530	0.222	-0.116
-435.719	-107.070	-0.190	-0.042
-434.705	-200.000	-0.001	-0.064
-433.690	-164.272	0.207	0.010
-432.676	221.345	-0.079	0.127
-431.661	-96.207	-0.277	-0.074
-430.646	-108.514	0.227	0.049
-429.632	-166.830	-0.233	-0.010
-428.617	208.196	0.098	-0.153
-427.603	49.128	0.172	-0.162
-426.588	-122.369	0.165	-0.027
-425.573	-57.984	0.067	-0.029
-424.559	-200.000	0.018	-0.184
-423.544	22.350	0.195	0.159
-422.530	96.117	-0.131	-0.150
-421.515	-127.928	-0.076	0.011
-420.500	800.000	-0.125	-0.383
-419.486	-49.196	0.313	-0.150
-418.471	-200.000	0.006	0.284
-417.457	-200.000	0.019	0.151
-416.442	497.286	0.179	0.412
-415.428	-200.000	0.019	0.122
-414.413	32.899	0.261	-0.226
-413.398	-200.000	-0.031	-0.152
-412.384	-0.603	-0.279	-0.198
-411.369	800.000	0.065	0.235
-410.355	800.000	-0.061	-0.255
-409.340	181.822	-0.079	-0.117
-408.325	142.152	-0.077	0.102
-407.311	-100.521	0.219	0.054
-406.296	3.483	-0.079	-0.058
-405.282	154.486	0.206	-0.283
-404.267	-200.000	-0.039	0.325
-403.252	-200.000	0.060	0.368
-402.238	-200.000	0.048	0.530
-401.223	-97.848	-0.258	-0.067
-400.209	-125.091	-0.113	0.017
-399.194	800.000	0.044	-0.152
-398.179	113.440	-0.178	-0.216
-397.165	94.750	0.288	-0.328
-396.150	86.933	-0.229	-0.253
-395.136	-28.244	0.506	-0.292
-394.121	-72.653	0.261	0.096
-393.106	146.952	0.124	-0.167
-392.092	-175.443	-0.385	0.011
-391.077	68.089	-0.119	0.122
-390.063	52.101	0.059	-0.057
-389.048	-200.000	-0.044	0.249
-388.033	145.167	0.072	0.096
-387.019	800.000	0.011	-0.034
-386.004	800.000	0.022	0.090
-384.990	-0.044	-0.088	-0.063
-383.975	-65.860	-0.294	0.118
-382.960	12.509	0.255	-0.197
-381.946	-72.333	-0.186	0.069
-380.931	153.508	0.260	0.356
-379.917	-200.000	-0.024	-0.278
-378.902	-113.858	-0.293	0.057
-377.888	152.728	0.208	0.284
-376.873	800.000	0.036	0.138
-375.858	-2.155	-0.277	-0.194
-374.844	-57.418	0.241	-0.106
-373.829	-126.898	-0.118	0.017
-372.815	36.413	0.126	0.111
-371.800	-200.000	-0.009	-0.167
-370.785	368.994	0.031	0.064
-369.771	-126.440	-0.263	0.039
-368.756	-200.000	0.083	-0.370
-367.742	800.000	0.021	-0.061
-366.727	800.000	-0.044	0.137
-365.712	232.467	0.073	0.119
-364.698	-200.000	-0.003	0.195
-363.683	140.701	0.078	-0.104
-362.669	19.506	0.272	-0.218
-361.654	-10.826	-0.176	-0.116
-360.639	800.000	0.033	0.137
-359.625	-145.800	-0.232	0.021
-358.610	-46.626	-0.077	-0.038
-357.596	150.676	-0.144	-0.195
-356.581	161.058	-0.076	0.106
-355.566	37.365	-0.105	0.093
-354.552	-200.000	-0.023	-0.134
-353.537	589.018	0.076	0.187
-352.523	-89.074	-0.186	0.055
-351.508	-59.081	0.078	0.034
-350.493	-0.014	0.070	0.050
-349.479	0.425	-0.159	0.114
-348.464	270.706	0.045	0.080
-347.450	37.002	-0.137	-0.121
-346.435	-200.000	0.035	0.208
-345.420	53.803	0.140	-0.135
-344.406	-174.532	0.261	0.007
-343.391	-140.935	-0.127	-0.013
-342.377	-181.119	-0.385	-0.008
-341.362	-45.754	0.270	0.133
-340.348	-54.901	-0.293	0.132
-339.333	285.489	-0.206	0.371
-338.318	-88.451	-0.236	-0.070
-337.304	151.408	0.069	0.094
-336.289	800.000	0.108	-0.305
-335.275	-103.785	-0.231	-0.054
-334.260	89.585	0.133	0.148
-333.245	612.628	-0.098	0.244
-332.231	520.437	0.093	0.218
-331.216	250.452	0.123	0.208
-330.202	9.646	0.362	0.274
-329.187	-200.000	0.002	0.192
-328.172	89.901	-0.115	-0.128
-327.158	-200.000	-0.010	-0.162
-326.143	-55.022	-0.356	-0.160
-325.129	3.599	-0.343	0.249
-324.114	-200.000	0.024	-0.294
-323.099	36.568	0.209	0.184
-322.085	-176.183	-0.089	-0.002
-321.070	800.000	0.049	-0.152
-320.056	-103.063	-0.268	0.063
-319.041	-31.271	0.131	-0.074
-318.026	-200.000	-0.044	-0.224
-317.012	-200.000	-0.041	-0.240
-315.997	-161.545	-0.091	0.005
-314.983	-200.000	0.026	-0.171
-313.968	-21.222	-0.180	0.110
-312.953	58.613	0.206	0.202
-311.939	-82.290	0.319	-0.103
-310.924	-200.000	-0.039	0.423
-309.910	139.847	0.039	0.051
-308.895	37.924	0.070	0.062
-307.880	-200.000	0.001	0.035
-306.866	-124.578	0.128	0.020
-305.851	0.778	-0.198	0.141
-304.837	-200.000	-0.065	-0.332
-303.822	12.847	0.199	0.154
-302.807	-88.377	0.180	0.054
-301.793	79.187	0.247	0.264
-300.778	-24.612	0.121	0.072
-299.764	-107.044	-0.236	-0.052
-298.749	179.703	0.274	0.401
-297.735	239.400	-0.137	-0.227
-296.720	74.020	-0.224	-0.234
-295.705	-200.000	-0.047	0.310
-294.691	-131.814	0.049	0.006
-293.676	4.052	0.041	0.030
-292.662	-200.000	-0.028	0.173
-291.647	-73.946	-0.180	0.065
-290.632	800.000	-0.044	0.180
-289.618	-38.995	-0.296	0.155
-288.603	130.791	0.085	-0.109
-287.589	-200.000	-0.006	0.149
-286.574	-200.000	-0.059	0.294
-285.559	371.483	0.109	0.220
-284.545	-67.021	-0.148	0.058
-283.530	-200.000	-0.025	0.228
-282.516	-200.000	0.021	-0.515
-281.501	211.813	-0.057	0.090
-280.486	-25.339	-0.297	-0.175
-279.472	-200.000	-0.007	0.135
-278.457	-200.000	-0.005	-0.284
-277.443	-200.000	0.039	-0.269
-276.428	-133.583	-0.470	0.059
-275.413	277.208	0.123	0.218
-274.399	800.000	-0.044	0.157
-273.384	55.792	0.120	-0.115
-272.370	800.000	-0.042	0.124
-271.355	-59.045	0.064	-0.027
-270.340	135.441	0.055	0.072
-269.326	-200.000	0.035	0.159
-268.311	-125.827	0.326	-0.049
-267.297	68.673	-0.223	0.228
-266.282	50.112	0.120	0.113
-265.267	800.000	-0.014	-0.050
-264.253	-128.232	0.286	0.041
-263.238	-200.000	-0.012	-0.088
-262.224	-147.249	0.317	0.027
-261.209	-200.000	0.002	0.136
-260.195	-36.779	-0.193	-0.103
-259.180	177.034	-0.036	-0.052
-258.165	-104.654	0.107	-0.024
-257.151	-112.023	0.255	0.051
-256.136	-137.420	-0.183	0.021
-255.122	-200.000	0.011	-0.279
-254.107	204.494	0.133	-0.206
-253.092	-55.858	0.083	-0.037
-252.078	31.839	-0.087	0.075
-251.063	-31.414	-0.253	0.142
-250.049	-49.168	0.096	-0.046
-249.034	-80.184	-0.377	-0.126
-248.019	-200.000	-0.003	-0.179
-247.005	-20.355	0.263	-0.161
-245.990	-200.000	0.043	0.324
-244.976	51.072	0.220	0.208
-243.961	-200.000	0.000	0.124
-242.946	459.478	-0.096	-0.213
-241.932	-200.000	-0.059	0.292
-240.917	47.801	-0.165	0.154
-239.903	-200.000	-0.005	0.452
-238.888	-52.571	0.329	-0.151
-237.873	800.000	-0.064	-0.189
-236.859	-73.983	0.210	-0.076
-235.844	-116.683	0.210	0.038
-234.830	25.608	-0.163	-0.135
-233.815	-26.770	-0.471	0.274
-232.800	-111.499	-0.413	0.084
-231.786	-31.396	-0.154	-0.086
-230.771	0.459	0.108	0.077
-229.757	56.031	-0.113	-0.109
-228.742	800.000	-0.028	0.117
-227.727	-88.936	-0.030	-0.009
-226.713	102.029	0.317	0.368
-225.698	-200.000	-0.043	-0.249
-224.684	-86.137	0.147	-0.045
-223.669	322.312	-0.101	0.191
-222.655	454.178	0.058	0.128
-221.640	-103.507	0.239	-0.056
-220.625	-2.975	0.238	-0.165
-219.611	130.838	0.068	-0.086
-218.596	-200.000	-0.021	-0.165
-217.582	-97.416	0.390	-0.101
-216.567	33.810	-0.143	-0.123
-215.552	376.238	-0.109	-0.220
-214.538	503.462	-0.040	0.093
-213.523	-94.736	-0.278	-0.075
-212.509	-29.192	0.031	0.018
-211.494	86.404	0.031	0.034
-210.479	-112.892	0.213	0.042
-209.465	21.836	0.179	0.145
-208.450	134.126	-0.073	0.094
-207.436	-130.905	0.200	0.027
-206.421	-200.000	0.039	-0.203
-205.406	107.766	-0.109	-0.129
-204.392	126.905	-0.121	-0.152
-203.377	-200.000	-0.085	-0.438
-202.363	446.606	-0.138	0.300
-201.348	-87.810	0.091	0.027
-200.333	-200.000	0.019	0.348
-199.319	-196.088	0.168	0.001
-198.304	113.992	-0.108	0.131
-197.290	800.000	-0.039	-0.117
-196.275	-200.000	-0.037	-0.160
-195.260	383.767	0.100	-0.205
-194.246	-41.311	-0.298	-0.152
-193.231	-96.395	0.091	0.024
-192.217	73.091	-0.058	-0.060
-191.202	-200.000	-0.014	-0.273
-190.187	15.201	0.047	-0.036
-189.173	-200.000	0.046	0.362
-188.158	55.298	0.297	0.285
-187.144	-76.221	0.437	-0.153
-186.129	-200.000	-0.007	0.065
-185.114	71.371	-0.274	0.282
-184.100	28.759	-0.261	0.219
-183.085	664.909	0.032	0.081
-182.071	-81.647	-0.093	0.030
-181.056	-107.423	0.231	0.050
-180.042	172.495	0.271	0.387
-179.027	-112.270	-0.254	0.051
-178.012	-200.000	-0.004	-0.275
-176.998	13.847	0.446	-0.344
-175.983	48.980	0.082	-0.077
-174.969	5.170	0.206	-0.151
-173.954	-101.918	0.405	0.097
-172.939	-114.583	-0.280	0.053
-171.925	215.295	0.124	-0.196
-170.910	34.537	-0.292	-0.253
-169.896	3.505	0.453	-0.328
-168.881	-20.235	0.264	-0.161
-167.866	-154.602	-0.132	-0.009
-166.852	-39.188	0.279	0.145
-165.837	-200.000	0.050	-0.359
-164.823	21.625	0.142	-0.115
-163.808	148.063	0.094	0.126
-162.793	-13.132	-0.006	0.004
-161.779	-72.280	0.309	0.113
-160.764	800.000	-0.067	0.184
-159.750	401.092	-0.076	-0.158
-158.735	172.254	0.113	0.161
-157.720	472.515	0.067	0.151
-156.706	-114.167	-0.100	-0.019
-155.691	-200.000	0.052	0.278
-154.677	-200.000	0.016	0.237
-153.662	-100.650	0.052	0.013
-152.647	340.059	-0.177	-0.343
-151.633	75.395	0.107	-0.112
-150.618	-111.356	0.271	-0.055
-149.604	4.468	0.247	0.180
-148.589	-130.899	-0.335	0.044
-147.574	-123.933	0.139	-0.022
-146.560	-200.000	-0.033	-0.155
-145.545	-16.991	0.181	-0.113
-144.531	-115.613	0.154	0.029
-143.516	179.876	-0.149	-0.216
-142.502	-200.000	0.018	0.230
-141.487	-200.000	0.076	0.457
-140.472	100.406	0.159	0.182
-139.458	-121.518	0.411	-0.068
-138.443	-103.320	0.103	-0.024
-137.429	129.851	-0.076	0.097
-136.414	369.537	0.130	-0.261
-135.399	800.000	0.076	0.286
-134.385	800.000	-0.135	-0.400
-133.370	14.190	-0.165	0.127
-132.356	-200.000	-0.018	-0.131
-131.341	-105.825	0.138	0.031
-130.326	-200.000	-0.093	-0.444
-129.312	-78.906	-0.178	0.060
-128.297	-30.777	0.164	0.092
-127.283	800.000	0.045	0.145
-126.268	125.915	0.210	-0.263
-125.253	-103.408	-0.050	0.012
-124.239	31.396	-0.109	0.093
-123.224	-11.932	0.152	0.099
-122.210	800.000	-0.013	-0.040
-121.195	52.624	0.080	0.076
-120.180	-110.632	-0.369	0.076
-119.166	-113.697	0.112	-0.022
-118.151	-83.196	-0.327	-0.104
-117.137	800.000	-0.046	-0.192
-116.122	443.042	0.011	-0.023
-115.107	175.075	-0.225	-0.322
-114.093	-45.019	0.145	-0.071
-113.078	345.508	-0.055	-0.106
-112.064	-200.000	0.301	0.001
-111.049	774.344	-0.135	-0.363
-110.034	333.041	0.013	0.025
-109.020	43.072	0.146	-0.132
-108.005	-61.102	-0.082	0.034
-106.991	-68.454	0.099	-0.038
-105.976	-80.805	-0.140	-0.046
-104.962	-119.372	-0.256	-0.044
-103.947	-200.000	-0.039	-0.308
-102.932	-10.959	0.183	0.120
-101.918	80.913	-0.126	0.134
-100.903	-200.000	-0.033	0.248
-99.889	-32.765	0.217	-0.120
-98.874	-200.000	0.029	-0.214
-97.859	65.935	0.106	0.106
-96.845	528.849	-0.132	0.309
-95.830	34.643	0.311	0.269
-94.816	-200.000	0.003	0.099
-93.801	-101.362	0.118	0.028
-92.786	-68.977	-0.057	0.022
-91.772	28.709	0.053	0.044
-90.757	-200.000	-0.148	-0.000
-89.743	-93.446	0.199	-0.054
-88.728	15.064	0.105	-0.081
-87.713	205.142	-0.103	-0.158
-86.699	-200.000	-0.009	-0.228
-85.684	-178.454	0.298	-0.007
-84.670	-200.000	0.001	-0.044
-83.655	-200.000	-0.038	-0.454
-82.640	-200.000	-0.005	0.343
-81.626	-200.000	0.012	0.061
-80.611	-95.977	0.250	0.066
-79.597	262.841	0.062	0.106
-78.582	463.811	0.169	0.373
-77.567	704.333	0.122	-0.317
-76.553	80.573	-0.247	-0.263
-75.538	5.150	0.101	-0.073
-74.524	98.962	0.035	0.040
-73.509	373.522	0.111	0.222
-72.494	-84.882	-0.128	-0.040
-71.480	427.716	0.165	0.352
-70.465	177.231	-0.107	-0.154
-69.451	800.000	0.026	-0.088
-68.436	-200.000	0.002	0.441
-67.422	-112.442	0.196	0.039
-66.407	116.505	0.096	0.116
-65.392	-13.912	-0.097	-0.062
-64.378	-79.430	-0.057	0.019
-63.363	14.661	-0.306	-0.236
-62.349	85.207	0.208	-0.225
-61.334	133.081	-1.031	-1.315
-60.319	190.598	0.299	0.444
-59.305	800.000	-0.448	-1.437
-58.290	227.335	0.718	1.152
-57.276	620.436	0.686	1.703
-56.261	-200.000	108.126	579.479
-55.246	424.833	1493.942	3173.992
-54.232	141.837	2690.860	3520.414
-53.217	93.932	2336.119	2614.633
-52.203	35.019	2085.004	1802.074
-51.188	30.498	2001.207	1688.605
-50.173	29.165	1983.911	1661.927
-49.159	44.627	2041.753	1852.516
-48.144	44.759	2058.052	1868.439
-47.130	31.125	2016.573	1707.040
-46.115	28.866	2005.697	1677.183
-45.100	28.752	2003.065	1673.881
-44.086	28.807	2000.672	1672.312
-43.071	28.680	1997.830	1668.716
-42.057	28.655	1995.913	1666.821
-41.042	28.725	1993.730	1665.566
-40.027	28.731	1992.637	1664.646
-39.013	28.796	1989.651	1662.668
-37.998	28.757	1988.240	1661.077
-36.984	28.782	1986.251	1659.572
-35.969	28.727	1984.050	1657.169
-34.954	28.793	1982.883	1656.723
-33.940	28.827	1981.312	1655.648
-32.925	28.804	1979.539	1653.897
-31.911	28.850	1977.324	1652.396
-30.896	28.902	1975.696	1651.440
-29.881	28.842	1974.819	1650.100
-28.867	28.870	1973.483	1649.172
-27.852	28.864	1971.490	1647.385
-26.838	28.966	1969.343	1646.435
-25.823	28.918	1967.594	1644.480
-24.809	28.871	1965.899	1642.580
-23.794	28.744	1964.690	1640.368
-22.779	28.863	1962.502	1639.539
-21.765	28.876	1960.962	1638.305
-20.750	28.926	1959.275	1637.273
-19.736	28.807	1957.746	1634.873
-18.721	28.864	1955.909	1633.782
-17.706	28.872	1954.401	1632.529
-16.692	28.880	1952.426	1630.879
-15.677	28.880	1951.045	1629.661
-14.663	28.795	1949.856	1627.853
-13.648	28.848	1948.513	1627.139
-12.633	28.899	1947.224	1626.446
-11.619	28.884	1945.981	1625.212
-10.604	28.831	1944.985	1623.851
-9.590	28.895	1943.046	1622.726
-8.575	28.783	1942.426	1621.161
-7.560	28.930	1940.208	1620.536
-6.546	28.911	1939.174	1619.445
-5.531	28.868	1938.385	1618.346
-4.517	28.946	1936.222	1617.160
-3.502	28.843	1935.831	1615.863
-2.487	28.851	1934.242	1614.543
-1.473	28.832	1933.588	1613.762
-0.458	29.026	1928.192	1610.899
0.556	27.185	1909.379	1585.926
1.571	23.367	1891.600	1537.951
2.586	19.855	1915.369	1526.216
3.600	19.161	1952.095	1549.098
4.615	19.003	1947.557	1543.945
5.629	14.745	1844.629	1425.941
6.644	5.704	1724.189	1260.291
7.659	0.659	1686.130	1192.611
8.673	0.263	1682.414	1186.757
9.688	0.193	1681.395	1185.385
10.702	0.112	1680.011	1183.665
11.717	0.052	1676.251	1180.439
12.731	0.725	1675.229	1184.896
13.746	6.894	1689.847	1243.788
14.761	14.948	1705.401	1318.869
15.775	17.448	1708.286	1340.704
16.790	16.868	1706.472	1334.594
17.804	15.844	1703.169	1323.844
18.819	14.896	1699.848	1313.698
19.834	14.390	1697.317	1307.659
20.848	14.022	1695.678	1303.396
21.863	13.812	1693.948	1300.300
22.877	13.513	1692.751	1296.928
23.892	13.302	1691.251	1294.010
24.907	13.198	1689.822	1291.992
25.921	13.178	1688.938	1291.042
26.936	13.168	1688.305	1290.370
27.950	13.219	1687.084	1289.717
28.965	13.274	1686.665	1289.713
29.980	13.209	1686.245	1288.774
30.994	13.309	1685.173	1288.616
32.009	13.393	1683.962	1288.231
33.023	13.519	1683.207	1288.523
34.038	13.453	1681.908	1286.902
35.053	13.413	1680.959	1285.748
36.067	13.376	1679.841	1284.491
37.082	13.380	1678.804	1283.619
38.096	13.435	1677.767	1283.137
39.111	13.364	1677.150	1281.997
40.126	13.470	1676.039	1281.861
41.140	13.390	1674.856	1280.222
42.155	13.211	1674.133	1278.169
43.169	13.260	1671.861	1276.705
44.184	13.199	1671.330	1275.714
45.199	13.207	1669.936	1274.601
46.213	13.169	1668.848	1273.361
47.228	13.190	1667.595	1272.451
48.242	13.232	1666.722	1271.997
49.257	13.327	1665.542	1271.716
50.271	13.374	1664.128	1270.883
51.286	13.298	1663.312	1269.565
52.301	13.367	1661.252	1268.411
53.315	13.352	1660.708	1267.772
54.330	13.386	1658.731	1266.405
55.344	13.255	1657.266	1264.178
56.359	13.224	1655.922	1262.805
57.374	13.233	1654.748	1261.860
58.388	13.286	1653.476	1261.184
59.403	13.292	1651.727	1259.785
60.417	13.175	1650.705	1258.005
61.432	13.134	1650.014	1257.058
62.447	13.258	1648.407	1256.663
63.461	13.160	1647.566	1255.166
64.476	13.119	1646.042	1253.582
65.490	13.191	1644.874	1253.126
66.505	13.125	1643.997	1251.845
67.520	13.195	1642.692	1251.272
68.534	13.140	1641.692	1249.983
69.549	13.222	1640.911	1249.895
70.563	13.217	1639.417	1248.612
71.578	13.213	1638.400	1247.700
72.593	13.190	1636.603	1246.044
73.607	13.070	1636.562	1245.002
74.622	13.010	1635.062	1243.297
75.636	13.009	1634.566	1242.805
76.651	12.987	1632.870	1241.238
77.666	13.067	1631.772	1240.890
78.680	13.036	1631.129	1240.064
79.695	13.113	1629.830	1239.539
80.709	13.153	1629.064	1239.146
81.724	13.170	1628.151	1238.475
82.739	13.160	1627.226	1237.587
83.753	13.185	1626.354	1237.002
84.768	13.260	1625.423	1236.743
85.782	13.330	1624.374	1236.356
86.797	13.321	1623.384	1235.429
87.812	13.332	1622.390	1234.642
88.826	13.363	1620.947	1233.668
89.841	13.219	1620.373	1232.048
90.855	13.235	1619.233	1231.191
91.870	13.290	1618.244	1230.739
92.884	13.264	1617.374	1229.778
93.899	13.377	1616.051	1229.504
94.914	13.309	1614.854	1227.975
95.928	13.343	1613.914	1227.409
96.943	13.343	1612.007	1225.847
97.957	13.356	1610.911	1224.999
98.972	13.387	1609.623	1224.140
99.987	13.351	1608.046	1222.567
101.001	13.324	1606.241	1220.889
102.016	13.245	1604.777	1219.086
103.030	13.254	1604.004	1218.455
104.045	13.343	1602.302	1217.710
105.060	13.378	1600.632	1216.594
106.074	13.330	1599.714	1215.437
107.089	13.318	1597.796	1213.781
108.103	13.169	1596.660	1211.717
109.118	13.168	1595.038	1210.373
110.133	13.138	1593.556	1208.924
111.147	13.172	1591.675	1207.634
112.162	13.141	1590.495	1206.411
113.176	13.137	1589.531	1205.540
114.191	13.319	1587.654	1205.340
115.206	13.250	1586.977	1204.214
116.220	13.260	1585.545	1203.097
117.235	13.283	1584.102	1202.063
118.249	13.227	1582.962	1200.685
119.264	13.226	1581.096	1199.151
120.279	13.237	1579.886	1198.207
121.293	13.192	1578.828	1196.971
122.308	13.226	1576.745	1195.537
123.322	13.177	1575.259	1193.948
124.337	13.200	1574.009	1193.060
125.352	13.205	1572.368	1191.751
126.366	13.158	1571.442	1190.605
127.381	13.153	1570.741	1189.930
128.395	13.118	1569.554	1188.673
129.410	13.176	1567.936	1187.762
130.424	13.199	1566.390	1186.648
131.439	13.204	1565.274	1185.734
132.454	13.289	1564.202	1185.430
133.468	13.343	1562.079	1184.102
134.483	13.175	1561.354	1182.244
135.497	13.290	1559.703	1181.712
136.512	13.296	1558.236	1180.541
137.527	13.290	1556.887	1179.367
138.541	13.304	1555.701	1178.466
139.556	13.308	1554.144	1177.209
140.570	13.392	1552.522	1176.472
141.585	13.327	1551.121	1174.848
142.600	13.385	1549.989	1174.301
143.614	13.493	1548.502	1173.831
144.629	13.499	1547.284	1172.845
145.643	13.500	1546.259	1171.977
146.658	13.521	1544.721	1170.855
147.673	13.491	1543.401	1169.534
148.687	13.429	1541.826	1167.801
149.702	13.463	1540.388	1166.850
150.716	13.359	1538.608	1164.665
151.731	13.379	1536.762	1163.305
152.746	13.445	1535.889	1163.007
153.760	13.438	1534.234	1161.599
154.775	13.381	1533.104	1160.241
155.789	13.510	1531.807	1160.066
156.804	13.470	1530.728	1158.864
157.819	13.516	1529.206	1157.928
158.833	13.566	1528.156	1157.380
159.848	13.541	1527.136	1156.331
160.862	13.582	1525.852	1155.545
161.877	13.652	1524.071	1154.579
162.892	13.657	1522.818	1153.567
163.906	13.565	1521.733	1152.002
164.921	13.544	1520.388	1150.736
165.935	13.555	1519.313	1149.891
166.950	13.547	1518.380	1149.028
167.964	13.655	1516.728	1148.428
168.979	13.566	1516.001	1147.162
169.994	13.543	1515.554	1146.560
171.008	13.538	1513.859	1145.142
172.023	13.544	1513.182	1144.571
173.037	13.512	1512.389	1143.645
174.052	13.724	1510.774	1143.786
175.067	13.656	1509.891	1142.548
176.081	13.647	1508.332	1141.209
177.096	13.684	1506.913	1140.290
178.110	13.647	1505.662	1138.982
179.125	13.657	1504.507	1138.078
180.140	13.559	1503.647	1136.658
181.154	13.713	1502.089	1136.431
182.169	13.626	1501.769	1135.497
183.183	13.848	1499.612	1135.282
184.198	13.774	1499.056	1134.252
185.213	13.785	1497.998	1133.427
186.227	13.781	1496.897	1132.471
187.242	13.856	1495.507	1131.827
188.256	13.908	1494.403	1131.247
189.271	13.908	1493.527	1130.483
190.286	14.010	1491.962	1129.894
191.300	13.945	1491.246	1128.807
192.315	13.691	1490.331	1126.288
193.329	13.764	1488.770	1125.504
194.344	13.704	1487.516	1124.052
195.359	13.761	1486.864	1123.847
196.373	13.763	1485.501	1122.732
197.388	13.853	1485.204	1123.017
198.402	13.896	1483.585	1121.983
199.417	13.962	1482.498	1121.507
200.432	13.961	1481.590	1120.711
201.446	14.012	1480.832	1120.386
202.461	13.917	1479.901	1118.941
203.475	14.051	1478.301	1118.533
204.490	14.050	1477.355	1117.712
205.504	14.064	1476.359	1116.952
206.519	14.162	1474.845	1116.365
207.534	14.084	1473.894	1115.025
208.548	14.028	1472.918	1113.811
209.563	14.119	1471.855	1113.518
210.577	13.973	1471.203	1111.954
211.592	14.172	1469.776	1112.108
212.607	14.093	1469.625	1111.364
213.621	14.140	1468.616	1110.819
214.636	14.206	1468.043	1110.724
215.650	14.208	1466.871	1109.756
216.665	14.151	1465.663	1108.360
217.680	14.183	1465.287	1108.193
218.694	14.261	1464.365	1107.917
219.709	14.347	1463.162	1107.482
220.723	14.278	1462.326	1106.289
221.738	14.239	1461.448	1105.270
222.753	14.273	1460.405	1104.609
223.767	14.357	1459.377	1104.287
224.782	14.328	1458.485	1103.324
225.796	14.364	1457.451	1102.687
226.811	14.340	1456.927	1102.031
227.826	14.392	1455.692	1101.345
228.840	14.432	1454.941	1100.943
229.855	14.338	1453.945	1099.468
230.869	14.355	1453.245	1098.958
231.884	14.360	1452.242	1098.134
232.899	14.369	1450.847	1097.038
233.913	14.333	1449.754	1095.883
234.928	14.312	1448.708	1094.853
235.942	14.352	1447.385	1094.020
236.957	14.388	1445.855	1093.003
237.972	14.312	1444.723	1091.555
238.986	14.399	1444.072	1091.535
240.001	14.463	1442.835	1090.923
241.015	14.386	1442.078	1089.746
242.030	14.388	1441.235	1089.031
243.045	14.421	1439.815	1088.074
244.059	14.506	1438.715	1087.702
245.074	14.467	1438.141	1086.920
246.088	14.497	1437.409	1086.462
247.103	14.494	1437.119	1086.131
248.117	14.602	1435.830	1085.759
249.132	14.584	1435.019	1084.935
250.147	14.676	1433.953	1084.633
251.161	14.821	1433.619	1085.222
252.176	14.799	1432.901	1084.444
253.190	14.838	1432.040	1083.949
254.205	14.888	1431.117	1083.475
255.220	14.831	1430.622	1082.635
256.234	14.860	1429.709	1082.034
257.249	14.996	1428.376	1081.812
258.263	14.985	1427.824	1081.225
259.278	14.986	1426.797	1080.358
260.293	14.931	1426.459	1079.654
261.307	14.980	1425.391	1079.068
262.322	14.952	1424.614	1078.201
263.336	15.093	1423.712	1078.331
264.351	15.065	1422.608	1077.220
265.366	14.980	1421.582	1075.798
266.380	15.176	1420.842	1076.404
267.395	15.077	1420.162	1075.161
268.409	15.084	1419.174	1074.363
269.424	15.150	1417.774	1073.631
270.439	15.119	1416.776	1072.577
271.453	15.106	1416.201	1071.969
272.468	15.136	1415.309	1071.387
273.482	15.091	1414.271	1070.219
274.497	15.046	1413.826	1069.499
275.512	15.035	1412.198	1068.104
276.526	15.020	1412.069	1067.814
277.541	15.105	1411.162	1067.580
278.555	15.118	1410.036	1066.718
279.570	15.105	1409.369	1066.030
280.585	15.346	1407.495	1066.056
281.599	15.286	1406.775	1065.032
282.614	15.268	1406.457	1064.584
283.628	15.293	1405.549	1063.960
284.643	15.199	1404.640	1062.581
285.657	15.254	1403.153	1061.714
286.672	15.325	1401.982	1061.180
287.687	15.304	1401.355	1060.480
288.701	15.379	1400.165	1059.957
289.716	15.339	1399.722	1059.277
290.730	15.303	1399.046	1058.446
291.745	15.303	1397.776	1057.393
292.760	15.291	1396.812	1056.493
293.774	15.383	1395.751	1056.172
294.789	15.441	1394.476	1055.484
295.803	15.394	1394.305	1054.961
296.818	15.531	1393.025	1054.760
297.833	15.399	1392.470	1053.417
298.847	15.364	1391.726	1052.543
299.862	15.504	1389.868	1051.921
300.876	15.440	1389.260	1050.969
301.891	15.407	1388.431	1050.043
302.906	15.511	1387.776	1050.105
303.920	15.664	1386.609	1050.083
304.935	15.661	1385.971	1049.489
305.949	15.628	1385.056	1048.496
306.964	15.661	1384.354	1048.082
307.979	15.764	1383.520	1047.997
308.993	15.685	1382.231	1046.434
310.008	15.700	1381.779	1046.094
311.022	15.664	1380.950	1045.150
312.037	15.723	1379.599	1044.399
313.052	15.791	1378.364	1043.797
314.066	15.655	1378.258	1042.781
315.081	15.671	1376.976	1041.814
316.095	15.642	1375.879	1040.713
317.110	15.610	1375.183	1039.902
318.125	15.621	1373.816	1038.841
319.139	15.712	1372.649	1038.430
320.154	15.613	1372.067	1037.283
321.168	15.735	1370.788	1036.981
322.183	15.695	1370.083	1036.111
323.197	15.666	1368.972	1034.996
324.212	15.775	1367.780	1034.678
325.227	15.748	1367.436	1034.155
326.241	15.821	1366.421	1033.747
327.256	15.785	1365.331	1032.608
328.270	15.817	1364.929	1032.408
329.285	15.862	1363.866	1031.790
330.300	15.840	1362.905	1030.837
331.314	15.845	1361.929	1030.042
332.329	15.829	1361.672	1029.654
333.343	15.841	1360.134	1028.478
334.358	15.872	1359.362	1027.989
335.373	15.876	1358.757	1027.468
336.387	15.865	1358.136	1026.840
337.402	15.949	1356.980	1026.383
338.416	15.980	1356.421	1026.059
339.431	15.998	1355.939	1025.714
340.446	15.967	1355.050	1024.762
341.460	16.062	1353.747	1024.263
342.475	16.125	1352.747	1023.801
343.489	16.177	1351.846	1023.343
344.504	16.123	1351.326	1022.528
345.519	16.222	1349.957	1022.003
346.533	16.234	1349.116	1021.348
347.548	16.251	1348.422	1020.834
348.562	16.242	1347.333	1019.867
349.577	16.265	1347.095	1019.732
350.592	16.279	1345.895	1018.823
351.606	16.226	1345.350	1018.000
352.621	16.228	1344.218	1017.066
353.635	16.228	1342.983	1016.042
354.650	16.241	1342.182	1015.422
355.665	16.244	1341.053	1014.497
356.679	16.210	1340.034	1013.434
357.694	16.159	1339.050	1012.292
358.708	16.218	1338.240	1011.942
359.723	16.299	1337.134	1011.502
360.738	16.245	1336.123	1010.325
361.752	16.337	1335.155	1010.055
362.767	16.300	1333.980	1008.858
363.781	16.386	1333.064	1008.586
364.796	16.391	1332.218	1007.889
365.810	16.444	1331.496	1007.570
366.825	16.480	1330.775	1007.146
367.840	16.411	1330.419	1006.379
368.854	16.449	1329.479	1005.805
369.869	16.581	1328.921	1006.077
370.883	16.560	1328.087	1005.231
371.898	16.524	1327.349	1004.374
372.913	16.598	1326.597	1004.155
373.927	16.538	1325.518	1002.893
374.942	16.378	1325.259	1001.657
375.956	16.712	1323.935	1002.545
376.971	16.681	1322.677	1001.322
377.986	16.725	1322.231	1001.156
379.000	16.583	1322.157	1000.172
380.015	16.680	1321.047	999.815
381.029	16.680	1320.371	999.214
382.044	16.676	1319.591	998.511
383.059	16.754	1318.640	998.165
384.073	16.776	1317.929	997.668
385.088	16.846	1317.178	997.422
386.102	16.764	1317.134	996.820
387.117	16.904	1316.064	996.745
388.132	16.900	1315.122	995.918
389.146	16.724	1314.480	994.309
390.161	16.815	1313.313	993.872
391.175	16.810	1313.087	993.589
392.190	16.750	1312.318	992.567
393.205	16.818	1310.884	991.792
394.219	16.892	1309.964	991.441
395.234	16.930	1308.644	990.575
396.248	16.962	1307.328	989.676
397.263	16.852	1306.165	988.071
398.278	16.901	1304.911	987.317
399.292	16.947	1303.465	986.405
400.307	16.848	1302.489	985.002
401.321	16.825	1301.578	984.092
402.336	16.926	1300.684	983.917
403.350	16.790	1300.225	982.693
404.365	16.863	1298.961	982.074
405.380	16.976	1297.500	981.539
406.394	16.969	1297.049	981.067
407.409	16.998	1296.729	980.905
408.423	16.998	1296.051	980.309
409.438	17.168	1295.130	980.507
410.453	17.163	1294.352	979.799
411.467	17.166	1293.755	979.277
412.482	17.172	1293.141	978.764
413.496	17.310	1292.239	978.789
414.511	17.206	1291.796	977.764
415.526	17.316	1290.407	977.263
416.540	17.404	1289.978	977.357
417.555	17.347	1289.721	976.750
418.569	17.318	1288.886	975.862
419.584	17.308	1288.649	975.537
420.599	17.293	1287.920	974.814
421.613	95.474	1354.318	1472.593
422.628	93.595	1363.927	1472.716
