DTS Sentinel unit serial number:	SN413079Multiplexer serial number:	ORYXHardware model number:	OX4-SRSoftware version number:	ORYX F/W v4.00 Oryx Data Collector v3.7.2.0data status	okinstallation	princeton_trtdifferential loss correction	single-endedforward channel	channel 4reverse channel	N/Adate	2019/09/17time	21:05:35forward acquisition time	60.00reverse acquisition time	0.00gamma	496.2192k internal	0.2325k external	0.2325temperature offset calibration	0.9990default loss term (dB/km)	0.3790temperature slope calibration	1.0000multiplexer offset coefficient	1.0000multiplexer slope coefficient	1.0000fibre end	0.00T internal ref (°C)	28.36T ext. ref 1 (°C)	0.19T ext. ref 2 (°C)	19.93length (m)	temperature (°C)	Stokes	anti-Stokes-747.200	43.236	0.157	-0.145
-746.185	-200.000	-0.006	0.078
-745.171	800.000	0.036	0.109
-744.156	-200.000	-0.054	0.300
-743.142	-80.306	-0.125	0.042
-742.127	-200.000	-0.040	0.250
-741.112	-59.443	-0.483	-0.209
-740.098	-74.921	0.088	-0.032
-739.083	69.765	0.032	0.033
-738.069	-200.000	0.031	0.362
-737.054	12.290	-0.101	-0.079
-736.039	-54.379	-0.311	-0.142
-735.025	248.190	0.227	0.387
-734.010	56.533	0.108	-0.105
-732.996	-57.920	-0.102	0.045
-731.981	-144.836	0.050	0.005
-730.966	20.718	0.061	-0.050
-729.952	800.000	0.042	0.164
-728.937	-200.000	-0.023	-0.184
-727.923	-156.909	0.056	0.003
-726.908	70.019	0.119	0.124
-725.894	-200.000	0.038	0.259
-724.879	27.310	-0.243	-0.206
-723.864	129.185	-0.054	-0.069
-722.850	522.026	0.113	-0.267
-721.835	-121.417	-0.224	-0.038
-720.821	107.264	-0.083	-0.100
-719.806	-100.226	0.243	0.061
-718.791	441.120	0.059	0.130
-717.777	624.004	-0.050	0.128
-716.762	-115.174	0.118	-0.023
-715.748	17.770	-0.105	-0.084
-714.733	-50.333	-0.183	-0.087
-713.718	-200.000	-0.014	-0.108
-712.704	27.200	0.228	-0.193
-711.689	-186.571	-0.189	0.003
-710.675	-152.825	-0.191	0.014
-709.660	51.753	-0.296	0.284
-708.645	800.000	0.059	-0.236
-707.631	152.215	-0.092	0.126
-706.616	183.739	0.031	0.046
-705.602	800.000	-0.095	0.351
-704.587	-200.000	-0.003	-0.178
-703.572	-43.360	-0.449	0.229
-702.558	-113.366	0.318	-0.063
-701.543	172.262	-0.147	0.213
-700.529	53.817	0.172	0.166
-699.514	459.827	-0.076	0.170
-698.499	-7.281	0.119	-0.081
-697.485	180.610	0.009	-0.014
-696.470	-122.959	0.322	-0.052
-695.456	636.919	0.081	-0.206
-694.441	252.964	0.030	0.051
-693.426	770.932	0.053	0.144
-692.412	117.142	0.137	-0.170
-691.397	292.413	-0.157	0.288
-690.383	-200.000	0.004	0.187
-689.368	-126.266	-0.132	-0.020
-688.354	-83.920	0.225	0.072
-687.339	290.373	0.239	0.437
-686.324	-200.000	-0.076	-0.395
-685.310	-47.353	-0.112	-0.055
-684.295	568.690	-0.119	0.291
-683.281	800.000	0.082	0.286
-682.266	253.839	0.042	0.072
-681.251	316.774	-0.152	-0.289
-680.237	-135.589	0.203	-0.024
-679.222	-200.000	-0.043	-0.199
-678.208	78.688	-0.276	-0.298
-677.193	120.929	0.098	0.123
-676.178	272.593	0.126	-0.224
-675.164	788.419	-0.079	-0.218
-674.149	61.186	-0.223	-0.223
-673.135	-200.000	0.030	-0.205
-672.120	10.975	0.291	-0.224
-671.105	-200.000	-0.016	0.088
-670.091	-7.663	0.265	0.180
-669.076	-53.118	0.371	0.171
-668.062	68.786	-0.142	-0.146
-667.047	-52.596	0.153	0.071
-666.032	-200.000	0.034	0.198
-665.018	89.398	-0.196	0.220
-664.003	-91.280	0.200	0.058
-662.989	-67.673	-0.266	-0.105
-661.974	24.768	0.270	0.225
-660.959	-70.385	-0.122	-0.047
-659.945	197.846	-0.098	0.151
-658.930	-32.242	-0.267	0.150
-657.916	-15.054	0.189	-0.122
-656.901	-115.449	0.180	-0.034
-655.886	-114.771	0.123	-0.024
-654.872	-165.256	0.061	0.003
-653.857	17.907	-0.196	-0.157
-652.843	181.031	0.042	0.061
-651.828	433.902	0.134	-0.293
-650.814	-111.484	-0.384	-0.079
-649.799	157.281	-0.100	-0.139
-648.784	496.458	0.086	-0.199
-647.770	-200.000	-0.051	0.239
-646.755	-106.734	0.233	-0.052
-645.741	-24.799	-0.059	0.035
-644.726	43.361	-0.180	-0.165
-643.711	117.729	-0.220	-0.272
-642.697	-152.450	0.064	0.005
-641.682	-200.000	0.007	0.272
-640.668	103.501	0.085	-0.100
-639.653	-200.000	-0.298	-0.000
-638.638	800.000	-0.045	0.148
-637.624	27.857	0.207	-0.176
-636.609	272.593	0.232	-0.411
-635.595	156.617	-0.191	0.265
-634.580	84.127	0.096	-0.105
-633.565	-11.751	0.101	-0.066
-632.551	-200.000	-0.023	0.104
-631.536	6.146	-0.247	0.184
-630.522	41.510	0.197	-0.180
-629.507	-200.000	-0.004	0.113
-628.492	297.965	0.246	-0.454
-627.478	100.681	0.072	0.084
-626.463	-200.000	-0.038	0.258
-625.449	-3.892	-0.046	0.032
-624.434	90.648	-0.057	-0.064
-623.419	-126.570	-0.205	0.031
-622.405	46.841	-0.069	-0.064
-621.390	248.956	0.149	-0.253
-620.376	-200.000	0.018	-0.406
-619.361	-77.747	-0.052	-0.018
-618.346	-65.469	0.351	0.141
-617.332	-87.199	-0.159	0.049
-616.317	-14.935	0.138	-0.089
-615.303	-126.304	0.133	-0.020
-614.288	606.641	-0.117	0.294
-613.273	-200.000	-0.000	-0.298
-612.259	-36.385	-0.324	-0.175
-611.244	-41.559	-0.120	0.062
-610.230	800.000	-0.085	-0.308
-609.215	80.252	0.083	-0.089
-608.201	52.381	0.139	-0.133
-607.186	800.000	0.088	-0.375
-606.171	-38.362	-0.182	0.097
-605.157	262.100	-0.078	-0.135
-604.142	-200.000	0.024	-0.205
-603.128	-200.000	0.098	-0.484
-602.113	82.201	0.204	-0.222
-601.098	57.630	-0.138	0.136
-600.084	-14.075	-0.094	0.061
-599.069	22.949	0.167	0.137
-598.055	13.401	0.189	-0.147
-597.040	-106.961	0.234	0.052
-596.025	800.000	0.090	0.332
-595.011	611.736	0.111	-0.279
-593.996	30.518	0.093	0.080
-592.982	800.000	0.020	-0.073
-591.967	146.230	-0.232	-0.312
-590.952	-200.000	0.017	0.088
-589.938	55.146	-0.058	-0.056
-588.923	-162.853	0.400	0.020
-587.909	-190.238	0.352	0.004
-586.894	6.844	0.125	-0.094
-585.879	-83.650	-0.095	0.030
-584.865	800.000	0.113	-0.350
-583.850	34.960	-0.159	-0.139
-582.836	-200.000	0.048	0.256
-581.821	-200.000	0.002	-0.350
-580.806	-13.449	-0.221	-0.144
-579.792	542.082	-0.158	-0.377
-578.777	-81.110	0.240	0.080
-577.763	519.456	0.119	-0.279
-576.748	74.808	-0.140	0.148
-575.733	59.136	-0.255	-0.251
-574.719	-45.430	-0.161	-0.080
-573.704	800.000	-0.094	0.356
-572.690	-88.412	-0.052	-0.015
-571.675	-56.491	0.193	-0.086
-570.661	-60.619	0.111	-0.047
-569.646	-55.116	-0.142	0.064
-568.631	211.631	-0.043	0.067
-567.617	195.744	-0.079	0.121
-566.602	-200.000	0.007	-0.066
-565.588	800.000	-0.059	0.250
-564.573	150.112	-0.335	-0.455
-563.558	22.884	0.205	0.168
-562.544	800.000	-0.079	-0.338
-561.529	21.642	-0.038	0.031
-560.515	800.000	0.046	0.141
-559.500	109.163	0.227	0.272
-558.485	-200.000	0.040	-0.242
-557.471	-80.221	-0.116	-0.039
-556.456	800.000	-0.053	0.158
-555.442	-54.705	-0.163	0.074
-554.427	-90.082	-0.176	0.051
-553.412	612.302	-0.094	0.236
-552.398	98.062	0.277	0.319
-551.383	26.387	0.123	-0.103
-550.369	-132.924	-0.141	-0.018
-549.354	800.000	0.053	-0.193
-548.339	4.668	0.110	0.081
-547.325	800.000	0.053	-0.171
-546.310	-200.000	0.010	0.119
-545.296	56.719	0.124	0.121
-544.281	23.337	-0.085	-0.070
-543.266	-5.074	-0.120	0.083
-542.252	-25.135	0.125	-0.074
-541.237	-77.398	0.212	-0.074
-540.223	-68.159	-0.182	0.071
-539.208	152.289	0.031	-0.042
-538.193	371.312	-0.051	-0.104
-537.179	-196.273	0.092	0.001
-536.164	102.568	-0.107	0.125
-535.150	-200.000	-0.301	-0.001
-534.135	361.643	-0.097	0.196
-533.121	49.239	0.207	-0.195
-532.106	-93.160	-0.170	-0.047
-531.091	207.056	-0.278	0.433
-530.077	221.822	-0.178	0.286
-529.062	-160.685	-0.186	-0.010
-528.048	40.428	0.267	-0.240
-527.033	-136.292	-0.251	-0.029
-526.018	-200.000	-0.051	-0.435
-525.004	-141.859	-0.323	0.032
-523.989	31.454	-0.226	0.194
-522.975	-200.000	0.027	0.233
-521.960	134.838	-0.152	0.198
-520.945	-200.000	0.034	0.302
-519.931	100.119	0.186	-0.216
-518.916	800.000	0.100	0.336
-517.902	64.632	-0.124	0.125
-516.887	-58.088	-0.265	0.116
-515.872	326.246	0.081	0.156
-514.858	178.065	0.148	-0.216
-513.843	800.000	-0.074	0.268
-512.829	800.000	-0.031	-0.093
-511.814	-24.202	-0.330	0.197
-510.799	467.105	0.099	0.222
-509.785	-200.000	-0.029	-0.176
-508.770	-104.213	0.095	-0.022
-507.756	117.403	-0.100	0.122
-506.741	-200.000	-0.012	0.165
-505.726	-200.000	-0.035	-0.223
-504.712	616.983	-0.116	-0.292
-503.697	400.468	0.076	-0.159
-502.683	238.467	-0.034	0.057
-501.668	-110.928	0.149	-0.031
-500.653	-102.544	0.246	-0.059
-499.639	-105.039	-0.148	-0.034
-498.624	-135.659	-0.249	0.030
-497.610	579.718	0.167	0.410
-496.595	240.446	-0.046	0.077
-495.581	-200.000	-0.033	-0.247
-494.566	800.000	0.028	0.087
-493.551	800.000	-0.074	0.244
-492.537	25.050	-0.202	0.168
-491.522	368.224	0.139	-0.280
-490.508	800.000	-0.065	-0.200
-489.493	24.868	-0.197	-0.163
-488.478	-127.295	0.258	0.038
-487.464	-70.337	-0.228	0.087
-486.449	54.392	-0.025	0.024
-485.435	285.445	-0.128	-0.231
-484.420	-104.204	-0.111	-0.026
-483.405	-200.000	-0.015	0.204
-482.391	-120.175	-0.324	-0.055
-481.376	-167.432	0.222	0.009
-480.362	-94.055	-0.073	-0.020
-479.347	91.109	-0.190	0.212
-478.332	401.182	-0.104	-0.217
-477.318	-107.778	0.155	0.034
-476.303	-200.000	-0.034	0.180
-475.289	-111.699	0.198	-0.040
-474.274	800.000	-0.045	0.150
-473.259	-80.888	-0.312	-0.103
-472.245	-40.618	0.159	0.082
-471.230	-66.651	0.061	0.024
-470.216	800.000	-0.040	-0.143
-469.201	-32.448	-0.088	0.049
-468.186	800.000	0.038	-0.128
-467.172	-200.000	0.016	-0.161
-466.157	353.269	0.031	-0.062
-465.143	2.533	-0.051	0.037
-464.128	531.514	-0.074	-0.175
-463.113	-200.000	0.042	0.258
-462.099	-106.824	-0.284	-0.063
-461.084	516.018	0.111	0.259
-460.070	-88.699	-0.187	0.056
-459.055	-200.000	0.000	0.068
-458.040	172.321	0.044	0.063
-457.026	800.000	-0.052	0.192
-456.011	800.000	-0.037	-0.123
-454.997	519.603	-0.086	0.201
-453.982	-200.000	-0.009	-0.121
-452.968	-22.325	-0.191	0.116
-451.953	-155.124	-0.140	-0.009
-450.938	93.393	-0.309	-0.348
-449.924	619.946	-0.108	-0.272
-448.909	-54.489	0.310	-0.140
-447.895	-23.948	0.159	-0.095
-446.880	27.071	0.284	-0.238
-445.865	341.554	-0.156	0.303
-444.851	-84.089	0.309	-0.098
-443.836	-38.200	-0.278	-0.147
-442.822	800.000	-0.108	-0.412
-441.807	685.164	0.022	-0.057
-440.792	800.000	0.034	0.129
-439.778	800.000	-0.049	0.202
-438.763	-122.348	0.229	-0.037
-437.749	-27.760	0.241	-0.140
-436.734	360.711	0.076	-0.152
-435.719	-159.478	0.094	0.005
-434.705	-45.198	0.199	0.099
-433.690	83.430	-0.124	-0.135
-432.676	97.224	0.163	-0.187
-431.661	0.475	-0.121	0.086
-430.646	-108.827	0.311	0.066
-429.632	-200.000	0.005	-0.208
-428.617	201.516	0.272	0.418
-427.603	-47.254	-0.036	0.018
-426.588	-121.584	0.256	-0.042
-425.573	102.874	0.252	0.294
-424.559	800.000	0.105	0.334
-423.544	-12.530	-0.279	0.182
-422.530	107.491	0.059	-0.070
-421.515	-2.417	0.050	-0.035
-420.500	228.647	-0.181	0.294
-419.486	-56.088	-0.056	-0.025
-418.471	-200.000	0.010	0.295
-417.457	-200.000	-0.007	0.087
-416.442	800.000	0.091	-0.345
-415.428	-200.000	0.013	-0.216
-414.413	187.210	0.157	-0.233
-413.398	-127.330	-0.253	-0.037
-412.384	71.429	-0.267	0.276
-411.369	-5.343	0.228	-0.156
-410.355	-200.000	0.032	0.144
-409.340	-121.395	0.054	0.009
-408.325	-59.531	0.231	-0.099
-407.311	-27.020	0.147	-0.085
-406.296	-200.000	0.018	0.185
-405.282	-99.377	-0.121	-0.030
-404.267	800.000	-0.123	-0.374
-403.252	-143.193	0.607	0.058
-402.238	452.455	-0.067	0.148
-401.223	-200.000	-0.003	-0.145
-400.209	6.209	0.210	-0.155
-399.194	-33.382	-0.219	0.121
-398.179	-43.654	-0.384	0.193
-397.165	231.105	0.030	-0.048
-396.150	-103.123	0.153	0.036
-395.136	216.554	0.033	0.053
-394.121	-123.098	-0.258	-0.041
-393.106	-66.138	0.302	0.120
-392.092	286.160	0.155	0.279
-391.077	74.969	-0.030	0.031
-390.063	35.780	0.228	-0.199
-389.048	800.000	-0.103	-0.378
-388.033	-60.488	0.083	-0.035
-387.019	-26.084	-0.212	0.124
-386.004	-177.169	-0.251	0.006
-384.990	-200.000	0.012	-0.268
-383.975	-49.478	0.081	-0.038
-382.960	571.297	0.149	0.362
-381.946	-94.308	-0.211	0.058
-380.931	-146.310	0.109	0.010
-379.917	-200.000	-0.023	0.475
-378.902	-24.745	-0.144	-0.085
-377.888	800.000	-0.056	0.183
-376.873	180.372	-0.196	-0.286
-375.858	172.420	-0.081	0.116
-374.844	-200.000	-0.041	0.339
-373.829	-41.914	0.228	-0.116
-372.815	744.776	-0.051	-0.138
-371.800	10.713	-0.303	-0.230
-370.785	177.587	0.113	0.164
-369.771	-200.000	0.005	-0.196
-368.756	-134.617	-0.127	-0.015
-367.742	-24.655	0.179	0.106
-366.727	241.458	-0.115	-0.191
-365.712	-200.000	-0.303	-0.001
-364.698	-80.325	-0.084	0.028
-363.683	800.000	-0.061	0.206
-362.669	55.475	0.274	-0.264
-361.654	141.109	0.105	0.138
-360.639	800.000	-0.045	0.125
-359.625	-30.838	0.189	-0.106
-358.610	-194.902	-0.121	0.001
-357.596	68.618	-0.130	0.133
-356.581	800.000	-0.046	0.152
-355.566	8.572	-0.049	0.036
-354.552	32.296	0.051	-0.044
-353.537	78.445	-0.306	-0.325
-352.523	-117.414	-0.138	0.025
-351.508	-152.067	-0.199	-0.014
-350.493	-200.000	-0.039	-0.194
-349.479	-200.000	-0.043	-0.346
-348.464	114.744	0.068	0.082
-347.450	-121.520	-0.111	-0.018
-346.435	-100.257	0.076	-0.019
-345.420	-200.000	0.174	0.000
-344.406	-59.513	-0.086	0.037
-343.391	-61.305	0.389	0.163
-342.377	-96.472	-0.290	-0.076
-341.362	673.632	-0.023	-0.059
-340.348	800.000	-0.095	0.293
-339.333	-105.681	0.113	-0.026
-338.318	-100.369	-0.045	0.011
-337.304	70.031	0.241	0.247
-336.289	17.884	-0.151	-0.119
-335.275	-97.609	0.338	0.087
-334.260	800.000	0.021	-0.070
-333.245	-1.830	-0.136	0.095
-332.231	-23.001	0.095	0.057
-331.216	800.000	-0.090	-0.308
-330.202	57.636	-0.272	-0.264
-329.187	-63.580	-0.306	0.125
-328.172	83.863	-0.301	0.326
-327.158	77.559	0.161	-0.170
-326.143	-200.000	0.009	-0.103
-325.129	-61.995	0.170	0.071
-324.114	321.295	0.026	0.049
-323.099	-69.355	-0.247	0.094
-322.085	-62.707	0.077	-0.032
-321.070	-91.636	-0.390	0.110
-320.056	-200.000	0.072	0.388
-319.041	134.370	0.031	0.040
-318.026	-70.969	0.161	0.060
-317.012	404.253	-0.150	0.314
-315.997	309.739	0.097	0.181
-314.983	-133.581	-0.198	0.025
-313.968	-200.000	-0.016	0.070
-312.953	-139.583	-0.259	0.027
-311.939	491.687	0.094	-0.213
-310.924	47.632	-0.226	-0.209
-309.910	-133.603	-0.190	-0.024
-308.895	100.431	0.108	-0.125
-307.880	800.000	0.034	0.104
-306.866	-198.147	0.126	0.001
-305.851	-73.182	0.395	-0.144
-304.837	-132.849	-0.440	0.056
-303.822	101.023	-0.077	-0.089
-302.807	800.000	0.156	-0.499
-301.793	-55.730	-0.445	-0.197
-300.778	-200.000	-0.012	0.143
-299.764	-104.785	0.188	-0.043
-298.749	11.140	-0.168	0.127
-297.735	800.000	-0.029	0.103
-296.720	-75.810	0.273	0.096
-295.705	-15.380	-0.422	-0.268
-294.691	-168.894	-0.235	-0.009
-293.676	349.711	0.127	0.249
-292.662	623.831	-0.151	-0.377
-291.647	163.163	0.231	-0.322
-290.632	370.609	-0.024	0.048
-289.618	46.680	0.357	0.328
-288.603	800.000	-0.056	0.234
-287.589	83.558	-0.125	-0.135
-286.574	800.000	-0.073	-0.222
-285.559	-63.038	0.182	0.075
-284.545	105.431	-0.177	-0.208
-283.530	-61.865	0.259	-0.107
-282.516	-100.000	0.538	-0.133
-281.501	741.901	0.086	-0.228
-280.486	176.040	-0.060	-0.087
-279.472	-131.611	0.200	0.026
-278.457	800.000	-0.025	-0.074
-277.443	-200.000	0.075	0.380
-276.428	-200.000	-0.057	0.310
-275.413	-44.418	-0.352	-0.175
-274.399	-60.735	0.158	-0.066
-273.384	-82.233	0.182	-0.059
-272.370	-67.754	0.237	-0.092
-271.355	-116.624	0.182	0.033
-270.340	-200.000	-0.009	-0.310
-269.326	-118.885	0.081	-0.014
-268.311	-154.885	-0.073	-0.005
-267.297	-82.860	0.182	0.058
-266.282	-32.890	-0.263	0.145
-265.267	-200.000	0.012	0.070
-264.253	192.066	0.088	-0.132
-263.238	199.017	0.115	0.174
-262.224	-35.503	0.145	-0.078
-261.209	-156.821	0.076	0.005
-260.195	800.000	0.049	0.184
-259.180	-73.391	0.305	-0.110
-258.165	-22.845	0.243	0.145
-257.151	-200.000	0.004	0.096
-256.136	-25.509	0.158	-0.092
-255.122	-12.849	-0.167	0.108
-254.107	-104.624	0.198	-0.045
-253.092	-200.000	-0.001	-0.161
-252.078	797.472	-0.162	0.443
-251.063	153.043	-0.056	0.076
-250.049	-136.157	0.114	0.013
-249.034	-200.000	-0.295	0.001
-248.019	-92.479	-0.431	-0.120
-247.005	800.000	-0.010	0.045
-245.990	800.000	0.125	0.399
-244.976	250.359	0.133	-0.223
-243.961	61.459	-0.314	0.309
-242.946	13.363	-0.060	-0.046
-241.932	-200.000	-0.009	0.161
-240.917	-200.000	0.019	-0.379
-239.903	25.824	0.092	0.076
-238.888	-200.000	-0.004	0.394
-237.873	558.253	-0.119	-0.284
-236.859	-200.000	-0.039	0.246
-235.844	-29.050	-0.249	0.141
-234.830	800.000	-0.094	0.262
-233.815	-31.133	-0.128	-0.071
-232.800	-22.627	0.069	0.041
-231.786	98.964	0.127	0.145
-230.771	-138.517	0.271	-0.029
-229.757	-50.653	0.026	-0.012
-228.742	-61.676	-0.194	-0.080
-227.727	-165.269	0.217	0.009
-226.713	-22.434	0.204	0.122
-225.698	-29.368	0.238	-0.135
-224.684	-200.000	0.248	-0.000
-223.669	70.211	0.144	0.147
-222.655	-200.000	-0.034	-0.283
-221.640	-92.545	-0.123	-0.034
-220.625	-200.000	-0.031	0.284
-219.611	-200.000	0.012	0.301
-218.596	736.072	0.168	0.444
-217.582	800.000	-0.041	-0.172
-216.567	127.175	0.139	-0.174
-215.552	-200.000	-0.001	-0.114
-214.538	-133.975	-0.325	-0.040
-213.523	-181.286	0.281	-0.005
-212.509	39.970	0.038	-0.034
-211.494	800.000	-0.062	0.168
-210.479	-53.495	0.357	-0.162
-209.465	-44.133	0.320	-0.159
-208.450	621.892	0.037	0.091
-207.436	-34.463	0.184	-0.099
-206.421	328.875	-0.148	0.281
-205.406	-200.000	-0.043	-0.191
-204.392	417.597	0.186	-0.393
-203.377	-74.473	-0.185	-0.066
-202.363	-188.405	-0.056	-0.001
-201.348	-200.000	-0.018	-0.327
-200.333	-200.000	-0.038	0.276
-199.319	-200.000	-0.025	-0.140
-198.304	601.897	0.111	0.272
-197.290	-200.000	-0.022	0.247
-196.275	-37.196	0.227	-0.120
-195.260	-137.670	0.342	0.038
-194.246	-61.123	0.124	0.051
-193.231	173.539	-0.031	0.044
-192.217	-24.744	0.029	0.017
-191.202	-118.209	0.153	-0.027
-190.187	-105.452	-0.247	-0.056
-189.173	-200.000	-0.049	0.317
-188.158	-150.761	0.394	-0.030
-187.144	800.000	0.058	-0.233
-186.129	34.442	-0.274	0.236
-185.114	-200.000	0.010	0.146
-184.100	800.000	0.024	-0.068
-183.085	51.391	-0.244	-0.229
-182.071	393.434	0.037	0.075
-181.056	360.601	-0.054	0.107
-180.042	630.674	-0.086	0.215
-179.027	-157.289	-0.171	0.010
-178.012	-99.739	-0.254	0.063
-176.998	-40.016	0.149	0.077
-175.983	-34.886	-0.198	0.107
-174.969	-96.123	0.305	-0.080
-173.954	18.980	-0.136	0.107
-172.939	-171.739	0.105	0.003
-171.925	-200.000	0.043	0.186
-170.910	-27.191	0.103	-0.059
-169.896	346.852	-0.094	0.183
-168.881	80.284	0.172	-0.183
-167.866	77.076	0.166	0.174
-166.852	768.997	0.105	0.281
-165.837	-47.906	-0.063	-0.030
-164.823	-45.784	0.274	0.133
-163.808	-45.123	0.084	0.041
-162.793	-12.394	0.235	-0.152
-161.779	489.704	-0.087	-0.197
-160.764	800.000	0.030	0.086
-159.750	800.000	-0.112	0.365
-158.735	542.560	0.145	-0.342
-157.720	183.950	0.103	-0.151
-156.706	-197.672	-0.100	-0.001
-155.691	42.878	-0.209	0.187
-154.677	-48.640	-0.326	0.154
-153.662	-200.000	-0.009	0.073
-152.647	-109.414	-0.198	-0.041
-151.633	-170.561	0.429	0.015
-150.618	317.864	-0.038	0.071
-149.604	41.306	-0.096	-0.085
-148.589	-27.167	0.276	0.158
-147.574	14.208	-0.212	0.163
-146.560	137.670	0.161	-0.208
-145.545	337.237	-0.069	0.131
-144.531	147.957	-0.099	0.131
-143.516	113.395	0.160	-0.192
-142.502	87.949	0.122	0.134
-141.487	-143.566	-0.145	-0.014
-140.472	26.143	-0.052	-0.042
-139.458	800.000	-0.067	0.212
-138.443	95.583	-0.108	-0.121
-137.429	345.077	-0.141	0.274
-136.414	240.338	-0.076	0.124
-135.399	45.126	-0.292	-0.265
-134.385	327.231	-0.256	0.484
-133.370	-158.753	0.266	0.015
-132.356	-154.536	0.131	-0.009
-131.341	-200.000	-0.054	-0.311
-130.326	-200.000	-0.017	-0.277
-129.312	-200.000	-0.027	0.209
-128.297	-200.000	0.050	0.536
-127.283	175.500	0.266	0.379
-126.268	83.868	0.250	-0.269
-125.253	75.563	0.160	-0.167
-124.239	579.580	-0.089	0.216
-123.224	465.424	-0.077	-0.169
-122.210	638.350	0.126	0.315
-121.195	-200.000	-0.007	0.167
-120.180	-147.697	-0.068	-0.006
-119.166	-200.000	0.005	0.213
-118.151	-127.286	-0.588	0.084
-117.137	-14.529	0.097	-0.062
-116.122	-117.743	-0.156	-0.028
-115.107	307.956	0.237	0.436
-114.093	-48.903	-0.398	0.188
-113.078	-107.496	-0.162	-0.035
-112.064	-13.028	0.290	0.186
-111.049	112.053	-0.193	0.230
-110.034	-154.128	-0.082	-0.005
-109.020	8.370	0.027	-0.020
-108.005	-58.620	0.113	0.048
-106.991	-120.361	-0.266	0.045
-105.976	107.913	-0.132	-0.155
-104.962	-70.149	0.235	0.088
-103.947	-115.919	0.221	0.041
-102.932	629.869	-0.078	0.195
-101.918	-200.000	-0.026	-0.342
-100.903	-123.997	0.462	0.071
-99.889	-20.704	0.102	-0.062
-98.874	74.863	0.100	-0.104
-97.859	-69.624	-0.142	0.054
-96.845	26.989	-0.120	0.099
-95.830	-42.133	-0.144	0.073
-94.816	-128.629	0.076	0.011
-93.801	387.254	0.121	0.247
-92.786	-200.000	-0.008	0.058
-91.772	-59.386	-0.215	0.091
-90.757	1.492	0.559	-0.396
-89.743	36.309	0.135	0.117
-88.728	-38.397	-0.375	0.195
-87.713	-98.626	0.131	0.033
-86.699	-200.000	0.060	-0.295
-85.684	-75.516	-0.133	-0.046
-84.670	55.568	-0.152	-0.145
-83.655	-36.919	-0.245	-0.129
-82.640	691.787	-0.098	-0.253
-81.626	-6.309	0.247	-0.166
-80.611	-200.000	0.014	0.097
-79.597	-37.348	-0.078	-0.041
-78.582	-69.015	-0.331	0.125
-77.567	200.256	-0.202	0.305
-76.553	114.196	-0.142	0.170
-75.538	-38.765	0.275	-0.143
-74.524	701.659	0.109	-0.281
-73.509	-200.000	0.035	-0.218
-72.494	181.461	-0.144	-0.209
-71.480	-108.032	0.107	-0.023
-70.465	54.055	-0.140	-0.133
-69.451	-55.421	0.096	-0.042
-68.436	-115.586	-0.122	-0.022
-67.422	-71.131	-0.192	-0.071
-66.407	800.000	-0.064	0.213
-65.392	800.000	-0.046	-0.167
-64.378	-0.121	-0.134	0.094
-63.363	144.269	-0.222	-0.291
-62.349	-200.000	-0.010	-0.076
-61.334	137.098	-0.958	-1.231
-60.319	8.937	0.759	0.562
-59.305	186.516	-0.740	-1.083
-58.290	401.542	0.652	1.345
-57.276	388.882	0.834	1.696
-56.261	-200.000	111.898	652.529
-55.246	506.503	1471.562	3351.536
-54.232	151.387	2636.847	3526.310
-53.217	95.989	2297.406	2577.958
-52.203	34.660	2051.544	1761.094
-51.188	30.220	1967.779	1649.729
-50.173	28.797	1950.851	1622.919
-49.159	46.830	2008.382	1832.841
-48.144	46.364	2024.623	1843.412
-47.130	30.678	1984.627	1667.700
-46.115	28.429	1974.414	1638.970
-45.100	28.338	1971.477	1635.649
-44.086	28.279	1969.424	1633.355
-43.071	28.199	1967.025	1630.592
-42.057	28.154	1965.455	1628.823
-41.042	28.181	1963.346	1627.252
-40.027	28.226	1961.067	1625.695
-39.013	28.273	1959.335	1624.614
-37.998	28.297	1957.405	1623.162
-36.984	28.309	1955.598	1621.707
-35.969	28.237	1954.274	1619.907
-34.954	28.274	1952.402	1618.615
-33.940	28.328	1950.514	1617.467
-32.925	28.380	1949.040	1616.634
-31.911	28.392	1947.366	1615.295
-30.896	28.404	1945.364	1613.670
-29.881	28.342	1944.067	1611.986
-28.867	28.355	1942.435	1610.685
-27.852	28.363	1941.043	1609.537
-26.838	28.432	1939.087	1608.455
-25.823	28.462	1937.399	1607.257
-24.809	28.358	1935.864	1605.008
-23.794	28.435	1933.404	1603.573
-22.779	28.351	1932.427	1601.969
-21.765	28.346	1930.615	1600.357
-20.750	28.394	1928.455	1598.922
-19.736	28.371	1927.313	1597.708
-18.721	28.479	1925.438	1597.035
-17.706	28.287	1924.505	1594.530
-16.692	28.321	1922.845	1593.383
-15.677	28.426	1920.750	1592.500
-14.663	28.384	1919.388	1590.943
-13.648	28.388	1918.358	1590.059
-12.633	28.383	1916.988	1588.815
-11.619	28.325	1916.055	1587.479
-10.604	28.414	1914.028	1586.506
-9.590	28.352	1913.075	1585.113
-8.575	28.393	1911.369	1583.990
-7.560	28.356	1910.238	1582.674
-6.546	28.472	1908.066	1581.808
-5.531	28.375	1907.477	1580.424
-4.517	28.363	1906.332	1579.310
-3.502	28.331	1905.228	1578.060
-2.487	28.367	1903.595	1576.954
-1.473	28.307	1903.273	1576.107
-0.458	28.324	1897.769	1571.632
0.556	25.976	1877.079	1538.423
1.571	20.797	1855.771	1477.013
2.586	16.113	1875.315	1452.196
3.600	14.646	1908.830	1465.150
4.615	14.350	1902.102	1457.268
5.629	11.112	1805.899	1356.510
6.644	4.417	1693.108	1219.242
7.659	0.633	1658.196	1164.849
8.673	0.226	1655.360	1159.621
9.688	0.205	1653.627	1158.144
10.702	0.222	1651.971	1157.012
11.717	0.127	1648.309	1153.621
12.731	0.531	1647.708	1156.190
13.746	5.627	1658.264	1202.703
14.761	13.065	1672.818	1270.586
15.775	16.714	1678.640	1303.023
16.790	16.912	1677.609	1303.633
17.804	15.908	1674.475	1293.378
18.819	14.978	1671.230	1283.622
19.834	14.359	1668.915	1276.990
20.848	14.075	1667.380	1273.527
21.863	13.878	1665.736	1270.647
22.877	13.641	1664.085	1267.466
23.892	13.297	1663.176	1264.027
24.907	13.217	1661.495	1262.032
25.921	13.287	1660.022	1261.330
26.936	13.262	1659.220	1260.420
27.950	13.306	1658.591	1260.169
28.965	13.292	1658.619	1259.974
29.980	13.417	1657.683	1260.103
30.994	13.435	1656.568	1259.274
32.009	13.531	1655.400	1259.007
33.023	13.425	1655.604	1258.249
34.038	13.524	1654.079	1257.728
35.053	13.515	1652.952	1256.690
36.067	13.573	1651.978	1256.278
37.082	13.509	1650.674	1254.692
38.096	13.394	1649.823	1253.063
39.111	13.449	1649.184	1252.881
40.126	13.521	1648.196	1252.567
41.140	13.458	1647.400	1251.371
42.155	13.508	1645.504	1250.201
43.169	13.364	1643.991	1247.856
44.184	13.324	1643.312	1246.929
45.199	13.221	1642.416	1245.358
46.213	13.241	1641.497	1244.701
47.228	13.228	1639.690	1243.130
48.242	13.298	1638.457	1242.608
49.257	13.343	1637.788	1242.331
50.271	13.367	1636.018	1241.054
51.286	13.387	1634.574	1239.998
52.301	13.409	1633.787	1239.457
53.315	13.409	1631.825	1237.862
54.330	13.428	1630.563	1236.935
55.344	13.192	1629.736	1234.434
56.359	13.301	1627.713	1233.606
57.374	13.284	1626.817	1232.694
58.388	13.343	1625.147	1231.760
59.403	13.291	1623.851	1230.282
60.417	13.334	1622.263	1229.287
61.432	13.233	1621.509	1227.855
62.447	13.209	1620.475	1226.787
63.461	13.123	1619.322	1225.167
64.476	13.186	1618.134	1224.630
65.490	13.174	1616.673	1223.321
66.505	13.170	1616.144	1222.784
67.520	13.158	1615.019	1221.739
68.534	13.185	1614.127	1221.159
69.549	13.303	1612.398	1220.613
70.563	13.181	1611.717	1219.085
71.578	13.227	1610.241	1218.198
72.593	13.164	1608.960	1216.657
73.607	13.096	1608.291	1215.547
74.622	13.251	1606.204	1215.004
75.636	13.102	1606.588	1214.088
76.651	13.194	1604.628	1213.176
77.666	13.162	1603.490	1211.969
78.680	13.175	1603.295	1211.815
79.695	13.199	1602.007	1210.910
80.709	13.278	1600.630	1210.339
81.724	13.201	1600.945	1209.905
82.739	13.168	1599.588	1208.530
83.753	13.220	1598.402	1207.908
84.768	13.285	1597.011	1207.224
85.782	13.422	1596.213	1207.513
86.797	13.332	1595.927	1206.538
87.812	13.384	1594.804	1205.961
88.826	13.327	1593.261	1204.271
89.841	13.327	1592.134	1203.313
90.855	13.297	1591.335	1202.384
91.870	13.296	1590.286	1201.474
92.884	13.258	1589.728	1200.676
93.899	13.406	1588.300	1200.563
94.914	13.414	1586.690	1199.298
95.928	13.452	1585.693	1198.714
96.943	13.455	1584.235	1197.529
97.957	13.454	1583.337	1196.737
98.972	13.374	1581.637	1194.764
99.987	13.419	1580.246	1193.931
101.001	13.445	1578.325	1192.561
102.016	13.392	1577.086	1191.145
103.030	13.342	1576.185	1189.995
104.045	13.390	1574.879	1189.252
105.060	13.416	1573.135	1188.016
106.074	13.342	1571.582	1186.202
107.089	13.353	1569.995	1184.983
108.103	13.260	1568.714	1183.247
109.118	13.277	1567.238	1182.147
110.133	13.242	1566.009	1180.867
111.147	13.244	1564.656	1179.755
112.162	13.246	1563.291	1178.633
113.176	13.292	1561.842	1177.769
114.191	13.268	1560.807	1176.715
115.206	13.351	1559.418	1176.152
116.220	13.328	1558.605	1175.271
117.235	13.327	1556.679	1173.708
118.249	13.258	1555.591	1172.291
119.264	13.289	1554.179	1171.342
120.279	13.270	1553.108	1170.297
121.293	13.223	1551.881	1168.937
122.308	13.299	1550.064	1168.006
123.322	13.215	1549.030	1166.530
124.337	13.202	1547.569	1165.235
125.352	13.264	1545.948	1164.345
126.366	13.191	1545.013	1163.025
127.381	13.339	1543.410	1162.753
128.395	13.179	1542.895	1161.139
129.410	13.234	1541.322	1160.241
130.424	13.272	1539.933	1159.360
131.439	13.318	1538.566	1158.547
132.454	13.359	1537.220	1157.721
133.468	13.355	1535.875	1156.575
134.483	13.382	1533.996	1155.248
135.497	13.420	1532.976	1154.640
136.512	13.444	1531.529	1153.619
137.527	13.372	1530.163	1151.987
138.541	13.399	1528.912	1151.130
139.556	13.317	1527.890	1149.689
140.570	13.392	1526.451	1149.028
141.585	13.384	1525.440	1148.109
142.600	13.456	1524.044	1147.454
143.614	13.498	1522.813	1146.719
144.629	13.544	1521.087	1145.630
145.643	13.640	1519.686	1145.141
146.658	13.494	1519.141	1143.623
147.673	13.627	1516.961	1142.793
148.687	13.485	1515.871	1140.895
149.702	13.527	1514.112	1139.755
150.716	13.393	1513.041	1137.927
151.731	13.452	1511.356	1136.966
152.746	13.437	1510.135	1135.843
153.760	13.460	1508.713	1134.833
154.775	13.486	1506.809	1133.477
155.789	13.526	1505.871	1132.943
156.804	13.654	1504.877	1132.973
157.819	13.633	1503.409	1131.625
158.833	13.693	1502.345	1131.134
159.848	13.683	1500.847	1129.839
160.862	13.780	1499.673	1129.513
161.877	13.761	1498.843	1128.659
162.892	13.689	1497.744	1127.242
163.906	13.687	1496.247	1126.003
164.921	13.535	1495.236	1124.111
165.935	13.505	1494.170	1123.004
166.950	13.646	1492.820	1122.849
167.964	13.631	1491.728	1121.824
168.979	13.669	1490.710	1121.214
169.994	13.692	1489.890	1120.655
171.008	13.677	1488.554	1119.447
172.023	13.644	1487.947	1118.671
173.037	13.666	1486.838	1117.887
174.052	13.734	1485.467	1117.217
175.067	13.831	1484.169	1116.791
176.081	13.761	1483.264	1115.544
177.096	13.755	1481.751	1114.263
178.110	13.680	1480.974	1113.084
179.125	13.709	1479.540	1112.097
180.140	13.788	1478.357	1111.641
181.154	13.794	1477.125	1110.654
182.169	13.744	1476.596	1109.825
183.183	13.729	1475.492	1108.794
184.198	13.832	1474.446	1108.600
185.213	13.892	1472.907	1107.748
186.227	13.884	1471.754	1106.726
187.242	13.959	1470.564	1106.231
188.256	13.979	1469.824	1105.715
189.271	13.947	1468.972	1104.760
190.286	14.065	1467.544	1104.371
191.300	13.997	1466.596	1103.108
192.315	13.860	1465.575	1101.336
193.329	13.747	1464.325	1099.553
194.344	13.820	1463.357	1099.211
195.359	13.731	1462.679	1098.012
196.373	13.854	1461.394	1097.766
197.388	13.918	1460.399	1097.347
198.402	13.956	1459.272	1096.651
199.417	14.010	1458.164	1096.078
200.432	14.110	1457.007	1095.768
201.446	14.149	1455.811	1095.032
202.461	14.155	1455.065	1094.408
203.475	14.193	1453.730	1093.559
204.490	14.259	1452.514	1092.984
205.504	14.261	1451.601	1092.212
206.519	14.239	1450.479	1091.127
207.534	14.119	1449.704	1089.659
208.548	14.115	1448.559	1088.677
209.563	14.098	1447.658	1087.790
210.577	14.134	1446.710	1087.217
211.592	14.277	1445.352	1087.040
212.607	14.265	1445.191	1086.741
213.621	14.295	1444.368	1086.222
214.636	14.384	1443.012	1085.683
215.650	14.177	1442.809	1084.088
216.665	14.316	1441.495	1083.910
217.680	14.347	1440.572	1083.322
218.694	14.324	1439.733	1082.446
219.709	14.487	1438.654	1082.595
220.723	14.369	1437.951	1081.206
221.738	14.368	1437.013	1080.397
222.753	14.359	1436.675	1079.992
223.767	14.432	1435.457	1079.452
224.782	14.510	1433.759	1078.582
225.796	14.453	1433.564	1077.972
226.811	14.528	1432.183	1077.322
227.826	14.503	1431.641	1076.658
228.840	14.563	1430.806	1076.327
229.855	14.407	1429.919	1074.554
230.869	14.417	1428.954	1073.799
231.884	14.412	1427.912	1072.892
232.899	14.551	1426.580	1072.690
233.913	14.493	1425.618	1071.498
234.928	14.447	1424.598	1070.343
235.942	14.446	1423.435	1069.365
236.957	14.468	1421.734	1068.136
237.972	14.494	1420.815	1067.516
238.986	14.422	1420.216	1066.511
240.001	14.398	1419.387	1065.639
241.015	14.439	1418.163	1064.891
242.030	14.497	1416.836	1064.169
243.045	14.577	1415.673	1063.713
244.059	14.594	1415.058	1063.265
245.074	14.484	1414.626	1062.145
246.088	14.610	1413.807	1062.238
247.103	14.659	1412.978	1061.830
248.117	14.612	1412.201	1060.855
249.132	14.735	1411.144	1060.750
250.147	14.841	1410.000	1060.470
251.161	14.824	1409.855	1060.157
252.176	14.801	1409.652	1059.765
253.190	14.955	1408.111	1059.487
254.205	14.942	1407.465	1058.822
255.220	15.001	1406.932	1058.704
256.234	14.965	1405.731	1057.475
257.249	14.945	1404.786	1056.548
258.263	14.981	1404.189	1056.232
259.278	15.068	1403.137	1055.899
260.293	15.094	1402.144	1055.221
261.307	15.043	1401.571	1054.373
262.322	15.041	1401.309	1054.072
263.336	15.199	1400.521	1054.380
264.351	15.094	1399.120	1052.573
265.366	15.112	1398.311	1051.981
266.380	15.157	1397.179	1051.321
267.395	15.151	1396.539	1050.707
268.409	15.195	1395.504	1050.111
269.424	15.148	1394.683	1049.105
270.439	15.220	1393.319	1048.436
271.453	15.126	1392.580	1047.201
272.468	15.181	1391.660	1046.761
273.482	15.188	1390.635	1045.938
274.497	15.190	1390.010	1045.388
275.512	15.221	1389.293	1044.949
276.526	15.196	1388.356	1044.002
277.541	15.203	1387.329	1043.179
278.555	15.174	1386.063	1041.951
279.570	15.355	1385.646	1042.671
280.585	15.367	1384.051	1041.455
281.599	15.287	1383.956	1040.796
282.614	15.425	1382.806	1040.693
283.628	15.350	1381.406	1039.083
284.643	15.411	1380.511	1038.693
285.657	15.357	1379.575	1037.568
286.672	15.372	1378.774	1036.966
287.687	15.410	1378.317	1036.766
288.701	15.425	1376.959	1035.745
289.716	15.422	1376.214	1035.074
290.730	15.488	1375.340	1034.728
291.745	15.394	1374.478	1033.411
292.760	15.400	1373.749	1032.807
293.774	15.409	1372.468	1031.809
294.789	15.447	1371.193	1030.992
295.803	15.451	1370.595	1030.477
296.818	15.655	1369.195	1030.584
297.833	15.554	1368.813	1029.585
298.847	15.543	1367.730	1028.614
299.862	15.559	1366.488	1027.687
300.876	15.595	1365.318	1026.935
301.891	15.631	1364.678	1026.581
302.906	15.621	1363.973	1025.899
303.920	15.635	1363.502	1025.544
304.935	15.658	1362.806	1025.070
305.949	15.702	1362.178	1024.772
306.964	15.801	1361.205	1024.554
307.979	15.749	1360.277	1023.446
308.993	15.696	1359.305	1022.303
310.008	15.789	1358.432	1022.121
311.022	15.706	1357.546	1020.861
312.037	15.854	1356.388	1020.794
313.052	15.669	1355.839	1019.173
314.066	15.867	1354.310	1019.133
315.081	15.764	1353.589	1017.875
316.095	15.788	1352.193	1016.882
317.110	15.730	1351.621	1016.008
318.125	15.811	1350.141	1015.295
319.139	15.808	1349.144	1014.441
320.154	15.778	1348.479	1013.668
321.168	15.794	1347.510	1012.946
322.183	15.786	1346.484	1012.034
323.197	15.796	1345.548	1011.303
324.212	15.702	1345.161	1010.358
325.227	15.964	1344.250	1011.160
326.241	15.860	1343.451	1009.842
327.256	15.882	1342.448	1009.129
328.270	15.903	1341.730	1008.626
329.285	15.951	1340.681	1008.040
330.300	15.848	1339.636	1006.549
331.314	15.994	1338.740	1006.657
332.329	15.943	1337.990	1005.702
333.343	16.025	1337.283	1005.571
334.358	15.954	1336.609	1004.552
335.373	16.082	1335.214	1004.177
336.387	16.033	1334.570	1003.310
337.402	16.030	1333.885	1002.686
338.416	16.066	1333.415	1002.463
339.431	16.108	1332.748	1002.117
340.446	16.055	1332.455	1001.497
341.460	16.087	1331.291	1000.725
342.475	16.136	1329.969	999.933
343.489	16.179	1329.429	999.688
344.504	16.279	1327.990	999.111
345.519	16.317	1327.083	998.565
346.533	16.319	1326.475	998.034
347.548	16.280	1325.638	997.083
348.562	16.342	1325.316	997.121
349.577	16.345	1324.198	996.207
350.592	16.330	1323.545	995.539
351.606	16.266	1322.886	994.582
352.621	16.262	1321.830	993.673
353.635	16.356	1320.221	992.930
354.650	16.337	1319.113	991.896
355.665	16.348	1317.967	991.013
356.679	16.345	1317.277	990.386
357.694	16.383	1316.136	989.661
358.708	16.393	1314.888	988.697
359.723	16.291	1314.455	987.688
360.738	16.406	1313.550	987.594
361.752	16.501	1312.198	987.040
362.767	16.406	1311.088	985.569
363.781	16.387	1310.454	984.890
364.796	16.420	1309.733	984.453
365.810	16.496	1309.248	984.445
366.825	16.558	1308.335	984.030
367.840	16.633	1307.680	983.888
368.854	16.578	1307.235	983.150
369.869	16.638	1306.487	982.847
370.883	16.654	1306.053	982.526
371.898	16.666	1304.655	981.455
372.913	16.735	1303.807	981.132
373.927	16.702	1303.452	980.589
374.942	16.754	1302.346	979.969
375.956	16.730	1301.407	979.036
376.971	16.716	1301.023	978.583
377.986	16.691	1299.956	977.549
379.000	16.767	1299.108	977.259
380.015	16.833	1298.329	976.968
381.029	16.834	1297.884	976.553
382.044	16.780	1297.360	975.764
383.059	16.855	1296.178	975.218
384.073	16.943	1295.933	975.455
385.088	16.851	1295.378	974.422
386.102	17.034	1294.006	974.354
387.117	16.980	1293.451	973.537
388.132	16.911	1292.912	972.650
389.146	16.931	1292.096	972.069
390.161	16.998	1291.018	971.555
391.175	16.927	1290.457	970.639
392.190	16.968	1289.366	969.967
393.205	17.017	1288.717	969.674
394.219	16.968	1288.111	968.850
395.234	17.044	1286.707	968.143
396.248	17.028	1285.470	967.035
397.263	17.014	1284.404	966.067
398.278	17.036	1282.844	964.932
399.292	17.009	1281.925	964.005
400.307	16.977	1281.156	963.161
401.321	16.953	1279.862	961.966
402.336	17.025	1278.924	961.582
403.350	17.047	1277.576	960.609
404.365	17.080	1277.242	960.461
405.380	17.007	1276.657	959.521
406.394	17.006	1275.460	958.529
407.409	17.066	1275.024	958.458
408.423	17.127	1274.417	958.258
409.438	17.201	1273.574	957.960
410.453	17.303	1272.599	957.718
411.467	17.260	1271.918	956.874
412.482	17.336	1271.359	956.799
413.496	17.247	1270.999	955.944
414.511	17.348	1269.725	955.469
415.526	17.361	1269.002	954.912
416.540	17.280	1268.611	954.077
417.555	17.416	1267.688	954.060
418.569	17.433	1267.203	953.710
419.584	17.580	1266.279	953.754
420.599	17.538	1265.657	952.963
421.613	98.373	1354.626	1478.583
422.628	95.805	1367.521	1478.712
