DTS Sentinel unit serial number:	SN413079Multiplexer serial number:	ORYXHardware model number:	OX4-SRSoftware version number:	ORYX F/W v4.00 Oryx Data Collector v3.7.2.0data status	okinstallation	princeton_trtdifferential loss correction	single-endedforward channel	channel 4reverse channel	N/Adate	2019/09/18time	07:29:35forward acquisition time	60.00reverse acquisition time	0.00gamma	496.2192k internal	0.2333k external	0.2333temperature offset calibration	1.0000default loss term (dB/km)	0.3790temperature slope calibration	1.0000multiplexer offset coefficient	1.0000multiplexer slope coefficient	1.0000fibre end	0.00T internal ref (°C)	23.19T ext. ref 1 (°C)	0.18T ext. ref 2 (°C)	17.56length (m)	temperature (°C)	Stokes	anti-Stokes-747.200	370.631	-0.182	0.372
-746.185	-200.000	0.018	0.238
-745.171	-200.000	-0.006	0.133
-744.156	503.565	-0.129	0.299
-743.142	-54.807	-0.132	0.060
-742.127	-200.000	0.007	0.255
-741.112	41.279	-0.184	-0.167
-740.098	-2.603	-0.365	-0.257
-739.083	-200.000	0.012	-0.155
-738.069	146.319	-0.088	-0.118
-737.054	-83.190	0.173	0.056
-736.039	-192.957	-0.236	-0.002
-735.025	-150.017	0.100	-0.008
-734.010	-125.087	0.198	-0.030
-732.996	-163.125	-0.297	-0.014
-731.981	23.130	0.145	0.120
-730.966	-26.716	-0.113	0.067
-729.952	-71.145	-0.198	0.075
-728.937	237.999	-0.090	0.149
-727.923	-114.400	0.396	-0.077
-726.908	-41.892	0.095	0.049
-725.894	23.120	0.022	-0.018
-724.879	-81.695	-0.132	-0.044
-723.864	-85.129	-0.212	-0.067
-722.850	-5.725	0.324	-0.223
-721.835	33.139	-0.118	-0.103
-720.821	-23.687	-0.214	-0.129
-719.806	-200.000	-0.071	0.325
-718.791	-86.372	0.272	0.084
-717.777	-90.783	0.186	-0.054
-716.762	608.475	-0.050	-0.126
-715.748	-29.911	-0.251	-0.144
-714.733	119.012	-0.179	0.222
-713.718	67.963	0.143	0.147
-712.704	-200.000	0.020	0.132
-711.689	-68.968	-0.275	0.106
-710.675	-151.115	0.161	-0.012
-709.660	463.891	-0.088	0.198
-708.645	116.171	0.142	-0.174
-707.631	-139.663	-0.332	-0.036
-706.616	37.872	-0.192	0.171
-705.602	800.000	0.053	0.180
-704.587	338.907	0.063	-0.124
-703.572	19.053	-0.096	0.078
-702.558	800.000	-0.050	0.150
-701.543	800.000	0.105	-0.299
-700.529	-120.152	-0.450	-0.077
-699.514	199.998	0.057	-0.089
-698.499	-200.000	0.166	-0.000
-697.485	114.088	0.130	-0.159
-696.470	400.603	-0.096	-0.202
-695.456	34.895	0.192	0.169
-694.441	-57.958	-0.238	0.104
-693.426	800.000	0.036	0.103
-692.412	-99.406	-0.136	0.034
-691.397	17.213	0.225	0.179
-690.383	116.299	0.042	-0.052
-689.368	800.000	-0.111	-0.321
-688.354	24.224	0.150	0.124
-687.339	-40.026	0.130	-0.068
-686.324	-78.367	0.163	0.056
-685.310	-198.548	-0.094	0.001
-684.295	-200.000	0.001	-0.129
-683.281	-95.119	0.092	-0.025
-682.266	-200.000	0.001	-0.195
-681.251	-127.602	-0.228	-0.033
-680.237	310.133	-0.007	0.014
-679.222	-78.901	0.106	0.036
-678.208	101.543	0.114	0.134
-677.193	686.275	-0.075	0.197
-676.178	497.644	-0.063	0.146
-675.164	9.488	-0.159	0.121
-674.149	407.955	0.112	0.238
-673.135	-74.392	-0.259	0.094
-672.120	138.827	-0.092	0.121
-671.105	14.579	-0.122	-0.096
-670.091	194.392	-0.147	-0.224
-669.076	-200.000	0.005	-0.371
-668.062	-123.388	-0.303	-0.049
-667.047	42.190	-0.084	0.076
-666.032	800.000	-0.048	-0.180
-665.018	83.025	0.330	-0.359
-664.003	103.213	-0.261	0.306
-662.989	-200.000	-0.031	-0.298
-661.974	-200.000	0.050	-0.422
-660.959	-27.757	-0.165	-0.096
-659.945	121.870	0.148	0.185
-658.930	-61.492	-0.234	-0.098
-657.916	-200.000	-0.045	0.473
-656.901	-106.396	0.272	0.061
-655.886	-200.000	-0.047	-0.348
-654.872	-121.389	-0.213	-0.036
-653.857	-85.660	0.295	-0.092
-652.843	-24.251	0.194	-0.116
-651.828	800.000	-0.097	-0.271
-650.814	358.701	-0.039	0.079
-649.799	-72.489	-0.244	0.090
-648.784	-19.552	-0.087	0.054
-647.770	-102.538	-0.208	-0.050
-646.755	-82.547	0.136	0.044
-645.741	-162.893	-0.149	-0.007
-644.726	-200.000	0.022	0.155
-643.711	91.815	0.025	0.028
-642.697	-69.732	0.412	0.158
-641.682	800.000	0.095	-0.381
-640.668	-200.000	-0.037	0.207
-639.653	-42.803	0.294	-0.150
-638.638	-200.000	-0.008	-0.118
-637.624	-141.384	-0.399	-0.040
-636.609	-153.277	-0.324	0.023
-635.595	-200.000	-0.058	-0.286
-634.580	-168.327	0.179	0.007
-633.565	-200.000	-0.001	0.151
-632.551	224.660	-0.182	0.294
-631.536	-75.688	-0.070	-0.025
-630.522	800.000	0.082	-0.299
-629.507	-200.000	-0.017	-0.310
-628.492	51.858	0.144	-0.137
-627.478	134.616	0.193	-0.251
-626.463	-30.381	-0.085	-0.048
-625.449	-200.000	-0.022	0.000
-624.434	780.861	0.092	0.253
-623.419	396.921	-0.046	-0.097
-622.405	11.663	-0.206	0.158
-621.390	-63.616	-0.282	0.116
-620.376	43.236	0.271	-0.248
-619.361	800.000	-0.050	-0.191
-618.346	449.978	-0.040	-0.089
-617.332	-110.844	-0.188	-0.039
-616.317	-23.108	-0.415	0.250
-615.303	204.980	-0.098	0.152
-614.288	-200.000	0.012	0.571
-613.273	-4.285	-0.104	0.072
-612.259	11.664	-0.162	-0.124
-611.244	-20.649	0.101	-0.062
-610.230	-158.099	0.089	-0.005
-609.215	601.967	0.035	-0.088
-608.201	-16.813	0.131	0.083
-607.186	800.000	0.039	-0.160
-606.171	800.000	-0.079	0.337
-605.157	-104.263	0.334	0.078
-604.142	-200.000	0.008	-0.110
-603.128	-97.071	0.541	-0.142
-602.113	234.494	-0.172	-0.283
-601.098	-200.000	0.032	-0.241
-600.084	-59.686	0.103	0.044
-599.069	89.909	0.184	0.206
-598.055	-200.000	-0.015	-0.195
-597.040	134.474	0.172	-0.224
-596.025	-137.534	-0.089	0.010
-595.011	-132.276	-0.311	0.040
-593.996	-200.000	0.013	0.239
-592.982	-200.000	0.065	0.337
-591.967	32.696	-0.206	0.178
-590.952	-34.924	-0.075	0.041
-589.938	589.895	-0.115	-0.283
-588.923	-200.000	0.014	-0.319
-587.909	-200.000	-0.019	0.163
-586.894	-177.749	-0.214	-0.005
-585.879	-116.575	-0.258	0.047
-584.865	153.215	-0.248	0.340
-583.850	191.850	0.174	-0.262
-582.836	125.475	-0.273	-0.345
-581.821	-39.004	0.381	0.200
-580.806	-200.000	0.004	0.063
-579.792	21.087	-0.085	0.069
-578.777	88.096	-0.246	-0.272
-577.763	166.290	0.095	0.135
-576.748	87.366	-0.088	-0.098
-575.733	-200.000	-0.031	-0.227
-574.719	-51.936	-0.212	-0.099
-573.704	-14.367	-0.091	-0.059
-572.690	-12.652	-0.110	0.072
-571.675	-77.081	-0.116	-0.040
-570.661	17.461	-0.345	-0.273
-569.646	-200.000	-0.011	-0.078
-568.631	-200.000	0.012	0.085
-567.617	86.715	0.146	0.161
-566.602	-200.000	0.046	-0.345
-565.588	259.834	0.149	0.257
-564.573	-200.000	-0.024	0.185
-563.558	800.000	0.095	0.303
-562.544	-200.000	-0.011	0.162
-561.529	-17.639	0.330	-0.207
-560.515	-200.000	0.010	-0.320
-559.500	-96.478	0.229	-0.060
-558.485	-141.275	0.120	0.012
-557.471	310.930	-0.227	-0.424
-556.456	-114.403	-0.285	0.055
-555.442	-176.015	0.193	-0.005
-554.427	-200.000	-0.006	-0.158
-553.412	14.866	0.265	-0.207
-552.398	-119.681	-0.184	-0.032
-551.383	-130.313	-0.143	-0.019
-550.369	466.248	-0.083	0.186
-549.354	5.088	-0.315	0.231
-548.339	-97.982	0.195	-0.050
-547.325	-20.439	0.054	0.033
-546.310	-200.000	-0.024	-0.308
-545.296	328.446	-0.116	0.223
-544.281	53.125	-0.174	-0.166
-543.266	595.473	-0.030	-0.074
-542.252	-167.343	-0.206	-0.008
-541.237	-59.796	-0.177	0.076
-540.223	800.000	-0.095	0.307
-539.208	392.105	-0.120	0.250
-538.193	-129.757	-0.043	-0.006
-537.179	-60.360	-0.113	0.048
-536.164	89.414	-0.320	0.356
-535.150	-107.537	-0.554	0.121
-534.135	-200.000	0.027	0.170
-533.121	-79.744	-0.262	0.088
-532.106	-200.000	-0.002	-0.084
-531.091	186.141	-0.109	-0.162
-530.077	-13.153	0.348	0.226
-529.062	575.562	-0.072	0.176
-528.048	-90.460	-0.234	-0.067
-527.033	36.574	0.110	0.096
-526.018	-200.000	-0.033	0.203
-525.004	57.086	-0.095	-0.092
-523.989	-153.578	0.183	-0.013
-522.975	106.977	-0.102	-0.121
-521.960	-176.111	0.265	-0.007
-520.945	-23.063	-0.238	0.143
-519.931	-130.423	0.180	0.024
-518.916	-200.000	-0.006	0.038
-517.902	-151.130	0.224	-0.017
-516.887	77.528	-0.378	-0.401
-515.872	-124.213	0.358	-0.056
-514.858	-200.000	-0.004	-0.050
-513.843	1.112	-0.235	-0.168
-512.829	800.000	0.098	0.270
-511.814	95.944	0.163	0.186
-510.799	265.554	-0.081	0.141
-509.785	-200.000	0.026	-0.159
-508.770	540.717	-0.103	-0.245
-507.756	-200.000	-0.037	-0.209
-506.741	-117.981	0.086	0.015
-505.726	-114.803	0.193	0.037
-504.712	389.954	-0.112	0.231
-503.697	-200.000	-0.019	0.290
-502.683	-28.593	0.254	-0.146
-501.668	-200.000	-0.113	-0.501
-500.653	453.981	-0.143	0.316
-499.639	-60.939	0.383	0.161
-498.624	-200.000	-0.065	0.413
-497.610	-200.000	0.013	-0.246
-496.595	-200.000	0.060	0.306
-495.581	-43.349	-0.353	0.178
-494.566	800.000	-0.024	-0.094
-493.551	-57.425	0.198	-0.087
-492.537	-55.197	-0.348	-0.156
-491.522	-154.186	-0.223	0.015
-490.508	331.272	-0.151	-0.290
-489.493	379.912	-0.075	-0.153
-488.478	151.000	0.070	-0.094
-487.464	90.957	-0.122	-0.136
-486.449	-90.756	0.118	0.034
-485.435	-102.388	-0.077	0.018
-484.420	-200.000	0.000	0.050
-483.405	-118.317	-0.072	-0.013
-482.391	217.046	0.102	-0.162
-481.376	-83.656	0.043	0.014
-480.362	-200.000	0.035	0.157
-479.347	-69.609	-0.316	0.121
-478.332	252.471	-0.188	-0.319
-477.318	-200.000	-0.014	0.192
-476.303	87.059	0.173	-0.191
-475.289	146.541	0.190	0.253
-474.274	322.784	-0.208	-0.395
-473.259	520.083	-0.092	-0.215
-472.245	-129.276	0.220	0.031
-471.230	34.089	0.246	0.214
-470.216	298.063	0.115	0.210
-469.201	800.000	-0.143	-0.479
-468.186	-200.000	0.096	0.456
-467.172	21.348	0.187	-0.151
-466.157	-150.745	0.082	0.006
-465.143	297.622	0.135	0.247
-464.128	800.000	0.019	-0.058
-463.113	669.664	0.060	-0.154
-462.099	800.000	0.057	-0.161
-461.084	-179.650	-0.239	-0.005
-460.070	-99.369	0.241	-0.060
-459.055	247.064	-0.125	0.210
-458.040	-92.591	-0.167	-0.047
-457.026	800.000	0.070	0.251
-456.011	-17.422	-0.390	0.244
-454.997	800.000	0.103	0.285
-453.982	-23.267	-0.094	0.056
-452.968	734.314	-0.109	0.290
-451.953	-110.120	0.183	-0.038
-450.938	-200.000	-0.024	0.105
-449.924	-200.000	-0.108	0.494
-448.909	89.660	-0.197	0.218
-447.895	-200.000	0.038	-0.194
-446.880	34.193	0.237	-0.206
-445.865	460.716	-0.147	-0.326
-444.851	215.994	0.223	0.352
-443.836	223.795	0.095	0.152
-442.822	454.096	-0.013	-0.028
-441.807	-157.746	0.026	-0.002
-440.792	57.378	0.206	-0.199
-439.778	-29.515	0.220	-0.125
-438.763	221.148	0.054	0.086
-437.749	-120.987	-0.215	0.036
-436.734	800.000	-0.067	0.258
-435.719	-24.539	0.028	0.016
-434.705	-32.871	-0.052	-0.029
-433.690	800.000	0.061	0.258
-432.676	269.023	-0.099	0.173
-431.661	747.459	0.078	0.208
-430.646	-52.928	-0.059	0.027
-429.632	182.968	-0.117	0.172
-428.617	10.612	0.107	0.081
-427.603	-136.705	-0.601	0.069
-426.588	76.703	-0.079	-0.084
-425.573	800.000	0.060	0.205
-424.559	9.688	-0.268	-0.202
-423.544	-4.194	-0.256	0.176
-422.530	-200.000	0.014	0.109
-421.515	800.000	0.022	0.089
-420.500	433.750	0.202	0.435
-419.486	-155.328	-0.087	0.006
-418.471	-200.000	-0.010	0.059
-417.457	546.418	0.074	0.177
-416.442	-169.927	-0.489	0.017
-415.428	630.151	-0.045	0.113
-414.413	-138.347	-0.161	0.018
-413.398	-97.539	0.154	0.040
-412.384	676.165	-0.045	-0.116
-411.369	91.082	-0.272	-0.303
-410.355	-121.896	0.237	0.039
-409.340	270.191	-0.088	0.153
-408.325	103.066	-0.216	0.251
-407.311	139.496	0.044	0.058
-406.296	73.484	0.046	-0.047
-405.282	605.267	-0.130	-0.321
-404.267	-42.635	0.241	-0.122
-403.252	132.886	-0.125	-0.160
-402.238	-176.299	0.045	-0.001
-401.223	-200.000	0.007	-0.227
-400.209	38.861	0.095	-0.084
-399.194	597.906	0.029	-0.072
-398.179	-149.539	-0.064	-0.005
-397.165	-44.405	0.116	-0.057
-396.150	-200.000	0.027	-0.230
-395.136	1.199	0.197	0.140
-394.121	-23.924	-0.185	-0.110
-393.106	-200.000	0.025	-0.318
-392.092	95.523	0.102	0.115
-391.077	800.000	0.046	0.149
-390.063	350.533	0.115	-0.225
-389.048	800.000	0.091	0.250
-388.033	-200.000	-0.004	0.066
-387.019	-43.543	0.246	-0.123
-386.004	45.788	0.309	-0.283
-384.990	745.869	0.111	-0.296
-383.975	131.482	-0.068	0.086
-382.960	-32.479	0.185	0.102
-381.946	-127.722	-0.040	-0.006
-380.931	-49.539	0.351	-0.166
-379.917	-32.812	-0.335	-0.184
-378.902	-53.874	0.210	-0.095
-377.888	258.029	-0.110	-0.187
-376.873	443.722	0.072	0.157
-375.858	117.881	0.271	-0.331
-374.844	-150.775	-0.283	0.021
-373.829	800.000	0.118	0.333
-372.815	-200.000	0.045	0.343
-371.800	-200.000	-0.005	-0.211
-370.785	-76.677	0.180	-0.062
-369.771	800.000	-0.052	-0.166
-368.756	103.882	-0.056	-0.066
-367.742	53.663	0.209	0.199
-366.727	96.460	0.291	-0.330
-365.712	800.000	-0.033	-0.093
-364.698	67.422	0.219	0.221
-363.683	-77.954	-0.210	0.072
-362.669	473.041	0.131	0.292
-361.654	-66.023	0.270	0.107
-360.639	-89.091	-0.155	-0.045
-359.625	-6.841	0.172	0.116
-358.610	140.168	-0.187	-0.244
-357.596	-7.057	0.110	-0.074
-356.581	-77.245	-0.231	-0.080
-355.566	-107.438	0.107	-0.023
-354.552	590.490	0.095	-0.233
-353.537	-14.490	0.305	0.194
-352.523	-64.716	0.068	-0.027
-351.508	170.297	0.177	-0.252
-350.493	-3.815	0.161	0.111
-349.479	37.823	-0.110	-0.097
-348.464	-109.301	-0.468	0.098
-347.450	800.000	-0.042	0.161
-346.435	23.518	-0.148	0.121
-345.420	-64.778	0.327	-0.131
-344.406	-200.000	0.010	-0.236
-343.391	221.573	-0.141	0.224
-342.377	185.042	-0.048	-0.071
-341.362	-200.000	-0.002	-0.138
-340.348	-97.035	0.403	-0.105
-339.333	25.604	0.090	0.074
-338.318	-129.784	0.320	-0.044
-337.304	-117.659	0.545	0.097
-336.289	-72.466	-0.317	0.116
-335.275	-200.000	0.082	-0.378
-334.260	800.000	-0.050	-0.139
-333.245	17.189	0.355	0.279
-332.231	800.000	-0.022	0.083
-331.216	-151.754	0.191	-0.014
-330.202	800.000	0.050	-0.151
-329.187	-108.304	-0.245	0.052
-328.172	-68.858	-0.171	-0.065
-327.158	442.740	0.076	0.164
-326.143	800.000	0.099	-0.315
-325.129	743.392	0.182	-0.485
-324.114	-57.681	0.078	0.034
-323.099	-39.828	-0.142	0.073
-322.085	24.524	0.245	0.201
-321.070	-48.534	0.163	-0.078
-320.056	-73.895	0.266	-0.096
-319.041	-92.341	0.139	-0.039
-318.026	205.796	-0.137	-0.210
-317.012	-200.000	-0.018	0.151
-315.997	280.000	-0.138	0.244
-314.983	-19.029	-0.153	0.094
-313.968	-173.267	-0.140	-0.004
-312.953	400.376	-0.075	-0.156
-311.939	-64.472	0.229	0.092
-310.924	-159.560	0.246	-0.013
-309.910	238.846	-0.153	-0.251
-308.895	800.000	-0.065	0.254
-307.880	-141.992	-0.173	0.017
-306.866	52.538	0.222	0.209
-305.851	800.000	-0.018	0.074
-304.837	-149.416	-0.185	-0.015
-303.822	-87.194	0.221	0.066
-302.807	800.000	0.026	0.074
-301.793	800.000	-0.062	-0.216
-300.778	247.282	-0.096	0.160
-299.764	669.201	0.057	-0.145
-298.749	800.000	0.091	-0.255
-297.735	-32.068	-0.217	-0.120
-296.720	335.212	-0.163	0.313
-295.705	210.054	0.228	0.353
-294.691	-117.923	-0.368	0.065
-293.676	580.082	-0.144	-0.348
-292.662	302.832	0.093	0.171
-291.647	636.908	0.116	-0.290
-290.632	-15.397	-0.211	-0.134
-289.618	800.000	0.032	0.089
-288.603	561.886	-0.073	0.174
-287.589	800.000	-0.092	0.318
-286.574	118.418	0.102	-0.125
-285.559	-158.104	0.329	0.019
-284.545	-48.057	0.309	-0.148
-283.530	-46.809	-0.143	-0.069
-282.516	-76.639	0.418	0.145
-281.501	-163.010	0.156	-0.007
-280.486	-200.000	-0.073	0.316
-279.472	555.315	0.082	-0.194
-278.457	-73.131	-0.593	0.215
-277.443	-17.743	0.367	-0.227
-276.428	681.807	-0.027	0.069
-275.413	-88.052	0.065	-0.019
-274.399	250.515	-0.182	-0.305
-273.384	-11.938	-0.286	0.185
-272.370	-16.064	0.033	0.021
-271.355	652.318	0.085	-0.216
-270.340	39.664	-0.116	-0.102
-269.326	73.900	-0.186	-0.193
-268.311	-200.000	-0.059	-0.315
-267.297	-147.103	-0.131	0.011
-266.282	67.736	-0.356	0.359
-265.267	-43.445	0.150	0.075
-264.253	-200.000	0.047	-0.350
-263.238	-131.739	-0.462	0.060
-262.224	-98.800	-0.083	0.021
-261.209	79.275	0.294	-0.311
-260.195	-200.000	0.015	-0.220
-259.180	-79.680	0.223	0.074
-258.165	201.410	-0.336	0.511
-257.151	-102.383	0.356	0.084
-256.136	218.105	0.132	0.208
-255.122	-200.000	-0.035	-0.206
-254.107	-200.000	0.038	0.351
-253.092	0.743	-0.018	0.013
-252.078	-200.000	-0.025	-0.134
-251.063	10.545	0.225	-0.169
-250.049	46.745	0.039	-0.036
-249.034	97.246	-0.198	0.225
-248.019	382.590	-0.053	0.107
-247.005	-147.739	0.032	0.003
-245.990	521.697	0.094	-0.218
-244.976	-143.087	-0.202	-0.019
-243.961	800.000	-0.069	0.207
-242.946	596.181	0.045	0.111
-241.932	-200.000	0.003	-0.290
-240.917	49.123	-0.225	-0.209
-239.903	-127.305	0.262	0.038
-238.888	159.629	0.195	0.268
-237.873	-0.114	-0.359	-0.252
-236.859	5.558	0.246	0.179
-235.844	-200.000	0.013	0.087
-234.830	-134.007	0.109	0.013
-233.815	-43.917	-0.210	0.104
-232.800	-200.000	0.036	-0.289
-231.786	417.429	0.076	-0.161
-230.771	-141.133	0.153	0.015
-229.757	-200.000	0.014	0.355
-228.742	-26.238	-0.240	-0.139
-227.727	33.057	0.072	-0.062
-226.713	33.188	-0.158	0.135
-225.698	-42.528	0.201	-0.101
-224.684	-106.519	0.198	0.044
-223.669	338.539	-0.255	0.489
-222.655	-200.000	0.035	-0.342
-221.640	800.000	0.056	-0.223
-220.625	-152.127	0.163	-0.012
-219.611	-146.786	0.145	-0.012
-218.596	-10.741	0.053	0.034
-217.582	800.000	-0.067	-0.254
-216.567	95.269	0.048	-0.054
-215.552	278.162	-0.159	0.279
-214.538	13.012	0.146	-0.112
-213.523	-200.000	-0.016	0.086
-212.509	-200.000	0.029	-0.150
-211.494	-126.950	0.066	0.010
-210.479	-133.053	0.067	0.008
-209.465	800.000	0.114	-0.346
-208.450	-200.000	0.005	-0.066
-207.436	-146.682	0.082	0.007
-206.421	-20.301	-0.203	0.123
-205.406	800.000	0.119	-0.395
-204.392	-93.207	-0.400	-0.109
-203.377	-111.506	0.035	-0.007
-202.363	-43.564	0.334	-0.166
-201.348	-200.000	-0.060	0.297
-200.333	-200.000	0.141	0.000
-199.319	-94.436	0.257	-0.069
-198.304	12.652	-0.132	-0.100
-197.290	262.891	-0.065	0.111
-196.275	-156.316	0.191	-0.012
-195.260	-0.368	0.271	0.190
-194.246	45.689	0.134	0.121
-193.231	11.219	0.138	-0.104
-192.217	-103.949	-0.216	0.050
-191.202	436.228	0.094	-0.201
-190.187	-200.000	0.022	-0.267
-189.173	334.270	0.169	0.323
-188.158	23.752	-0.307	0.249
-187.144	-68.758	0.139	0.053
-186.129	800.000	0.065	-0.210
-185.114	561.364	-0.147	0.350
-184.100	597.165	-0.117	-0.285
-183.085	-42.020	-0.023	0.012
-182.071	-200.000	-0.002	-0.106
-181.056	-28.441	-0.129	-0.073
-180.042	617.651	0.118	0.291
-179.027	53.632	0.233	0.220
-178.012	89.597	0.208	-0.228
-176.998	-108.472	-0.233	-0.049
-175.983	-19.604	0.310	0.189
-174.969	50.485	0.115	-0.107
-173.954	-66.448	-0.211	-0.082
-172.939	6.211	-0.129	0.094
-171.925	-200.000	0.060	-0.395
-170.910	-70.747	-0.111	-0.041
-169.896	565.119	0.063	0.150
-168.881	-83.796	-0.176	-0.055
-167.866	255.868	0.151	0.255
-166.852	14.534	0.211	-0.162
-165.837	355.685	0.088	-0.172
-164.823	-200.000	0.021	0.200
-163.808	-154.034	-0.399	0.027
-162.793	448.425	-0.153	0.332
-161.779	800.000	0.055	0.211
-160.764	-200.000	0.031	-0.212
-159.750	60.648	0.112	-0.109
-158.735	36.234	0.141	-0.122
-157.720	800.000	0.086	0.240
-156.706	224.204	0.158	-0.251
-155.691	38.849	-0.050	0.044
-154.677	231.146	0.021	0.035
-153.662	38.875	-0.030	0.026
-152.647	-200.000	-0.037	0.179
-151.633	336.912	-0.159	0.303
-150.618	201.162	-0.113	0.171
-149.604	205.904	0.186	0.284
-148.589	272.883	0.125	0.216
-147.574	-97.201	-0.213	-0.055
-146.560	74.211	-0.298	-0.308
-145.545	-138.621	-0.260	0.028
-144.531	682.848	0.109	-0.280
-143.516	24.625	0.115	0.094
-142.502	-29.040	0.199	0.112
-141.487	-129.816	-0.290	-0.039
-140.472	650.915	-0.119	-0.299
-139.458	287.807	0.280	-0.498
-138.443	172.013	0.169	0.238
-137.429	1.115	0.341	0.241
-136.414	108.283	0.131	-0.153
-135.399	128.173	-0.168	0.210
-134.385	-72.478	-0.103	-0.037
-133.370	-111.549	-0.373	0.074
-132.356	398.532	-0.048	0.099
-131.341	800.000	-0.087	0.293
-130.326	-200.000	0.045	-0.458
-129.312	-34.309	0.249	-0.134
-128.297	4.610	0.359	0.258
-127.283	-155.539	-0.114	0.007
-126.268	15.052	-0.166	0.127
-125.253	-68.553	0.353	-0.134
-124.239	161.765	-0.296	0.407
-123.224	69.255	-0.378	0.382
-122.210	84.730	-0.281	-0.302
-121.195	506.515	0.068	0.154
-120.180	378.383	0.141	0.283
-119.166	120.384	0.138	0.168
-118.151	32.267	0.140	-0.118
-117.137	63.576	-0.153	0.151
-116.122	-200.000	-0.057	0.307
-115.107	70.765	0.362	-0.368
-114.093	777.075	0.053	-0.143
-113.078	-0.252	0.279	0.194
-112.064	-85.201	0.227	0.070
-111.049	304.518	0.262	0.477
-110.034	-82.448	-0.352	0.112
-109.020	215.107	0.103	0.160
-108.005	800.000	-0.123	0.348
-106.991	-24.669	-0.122	0.071
-105.976	-200.000	-0.008	-0.433
-104.962	-133.411	-0.368	0.045
-103.947	403.757	0.104	0.215
-102.932	-40.578	0.229	0.116
-101.918	20.198	0.093	-0.074
-100.903	251.563	-0.105	-0.175
-99.889	274.405	0.126	0.219
-98.874	-44.842	0.105	0.051
-97.859	800.000	-0.084	-0.304
-96.845	145.367	0.093	-0.122
-95.830	254.408	-0.046	-0.077
-94.816	-25.750	0.378	0.218
-93.801	22.871	0.061	0.049
-92.786	99.139	0.204	0.231
-91.772	148.103	-0.079	0.105
-90.757	-200.000	-0.024	0.106
-89.743	-7.711	0.325	0.215
-88.728	-200.000	-0.039	0.253
-87.713	-49.434	-0.177	0.083
-86.699	-27.117	0.320	-0.183
-85.684	59.010	0.161	-0.155
-84.670	123.753	-0.063	0.077
-83.655	800.000	0.020	0.079
-82.640	-200.000	-0.026	0.191
-81.626	800.000	0.070	0.196
-80.611	14.667	0.145	0.111
-79.597	407.652	-0.079	0.163
-78.582	37.878	-0.275	0.239
-77.567	-49.641	0.555	0.259
-76.553	95.083	-0.033	0.037
-75.538	-200.000	0.010	0.183
-74.524	800.000	0.101	-0.278
-73.509	800.000	0.023	-0.097
-72.494	-29.286	0.138	0.077
-71.480	50.502	0.098	0.091
-70.465	-130.765	-0.207	-0.027
-69.451	118.525	0.154	0.187
-68.436	800.000	-0.068	0.192
-67.422	-10.286	0.094	0.061
-66.407	-200.000	-0.033	-0.293
-65.392	-51.861	0.275	-0.125
-64.378	-153.169	-0.514	0.035
-63.363	-74.807	0.208	-0.073
-62.349	675.011	-0.046	0.116
-61.334	66.313	-1.195	-1.188
-60.319	79.312	0.692	0.727
-59.305	396.034	-0.480	-0.982
-58.290	328.112	0.752	1.414
-57.276	536.229	0.686	1.594
-56.261	-200.000	124.441	645.121
-55.246	400.005	1576.867	3236.291
-54.232	138.524	2751.193	3535.191
-53.217	85.989	2347.806	2529.078
-52.203	29.736	2091.114	1742.670
-51.188	24.888	2006.250	1627.913
-50.173	23.706	1989.611	1603.680
-49.159	41.795	2062.345	1829.738
-48.144	39.957	2074.437	1823.453
-47.130	25.346	2027.045	1648.733
-46.115	23.187	2016.217	1620.118
-45.100	23.146	2012.965	1617.064
-44.086	23.052	2010.735	1614.349
-43.071	23.064	2008.222	1612.377
-42.057	22.951	2006.622	1610.001
-41.042	23.094	2004.104	1609.216
-40.027	23.095	2002.401	1607.793
-39.013	23.136	1999.950	1606.137
-37.998	23.113	1999.138	1605.211
-36.984	23.086	1997.181	1603.334
-35.969	23.117	1994.738	1601.587
-34.954	23.039	1993.788	1600.054
-33.940	23.084	1992.085	1599.036
-32.925	23.243	1989.892	1598.645
-31.911	23.199	1988.430	1597.010
-30.896	23.190	1987.314	1595.964
-29.881	23.179	1986.019	1594.763
-28.867	23.219	1984.254	1593.642
-27.852	23.182	1982.720	1592.016
-26.838	23.303	1980.084	1590.925
-25.823	23.210	1978.439	1588.709
-24.809	23.206	1976.707	1587.212
-23.794	23.157	1975.157	1585.470
-22.779	23.232	1973.088	1584.412
-21.765	23.244	1971.730	1583.369
-20.750	23.315	1970.011	1582.557
-19.736	23.281	1968.553	1581.025
-18.721	23.273	1967.427	1579.987
-17.706	23.269	1965.604	1578.419
-16.692	23.186	1964.006	1576.339
-15.677	23.173	1962.266	1574.762
-14.663	23.184	1960.837	1573.648
-13.648	23.207	1959.582	1572.786
-12.633	23.132	1958.805	1571.433
-11.619	23.213	1957.131	1570.746
-10.604	23.208	1955.380	1569.238
-9.590	23.193	1954.263	1568.140
-8.575	23.150	1953.158	1566.811
-7.560	23.172	1951.923	1565.956
-6.546	23.249	1950.207	1565.199
-5.531	23.253	1949.361	1564.496
-4.517	23.190	1948.377	1563.081
-3.502	23.215	1947.078	1562.200
-2.487	23.184	1945.439	1560.548
-1.473	23.253	1944.139	1560.051
-0.458	23.243	1939.142	1555.897
0.556	21.580	1918.796	1527.393
1.571	17.389	1899.701	1475.774
2.586	13.656	1923.071	1460.955
3.600	12.721	1958.713	1479.510
4.615	12.719	1951.241	1473.713
5.629	9.975	1850.241	1373.995
6.644	3.887	1736.916	1240.996
7.659	0.633	1703.720	1191.536
8.673	0.172	1701.831	1186.473
9.688	0.259	1699.917	1185.725
10.702	0.185	1698.996	1184.389
11.717	0.114	1694.279	1180.444
12.731	0.588	1693.333	1183.393
13.746	5.249	1703.321	1226.943
14.761	12.305	1717.846	1293.029
15.775	16.275	1724.207	1329.022
16.790	16.691	1724.154	1332.138
17.804	15.869	1721.434	1323.453
18.819	14.939	1718.228	1313.575
19.834	14.410	1715.735	1307.404
20.848	14.082	1713.985	1303.379
21.863	13.917	1712.486	1300.831
22.877	13.641	1711.172	1297.563
23.892	13.384	1709.498	1294.167
24.907	13.238	1708.951	1292.493
25.921	13.276	1707.366	1291.482
26.936	13.215	1706.012	1289.863
27.950	13.305	1705.140	1289.798
28.965	13.288	1705.145	1289.554
29.980	13.463	1703.579	1289.616
30.994	13.480	1703.177	1289.328
32.009	13.467	1702.070	1288.278
33.023	13.511	1701.386	1287.986
34.038	13.531	1700.494	1287.355
35.053	13.549	1699.153	1286.362
36.067	13.464	1698.549	1285.131
37.082	13.464	1697.474	1284.206
38.096	13.506	1696.433	1283.634
39.111	13.456	1695.573	1282.477
40.126	13.504	1694.723	1282.091
41.140	13.502	1693.672	1281.174
42.155	13.450	1692.070	1279.440
43.169	13.331	1690.779	1277.437
44.184	13.312	1689.967	1276.561
45.199	13.296	1688.293	1275.061
46.213	13.284	1687.142	1273.988
47.228	13.278	1686.423	1273.285
48.242	13.326	1684.528	1272.109
49.257	13.337	1683.991	1271.676
50.271	13.365	1682.470	1270.628
51.286	13.394	1680.931	1269.578
52.301	13.429	1679.710	1268.815
53.315	13.455	1678.160	1267.728
54.330	13.419	1677.088	1266.526
55.344	13.385	1675.311	1264.818
56.359	13.331	1674.140	1263.411
57.374	13.348	1672.793	1262.409
58.388	13.377	1671.764	1261.742
59.403	13.348	1670.271	1260.280
60.417	13.304	1668.644	1258.609
61.432	13.277	1668.354	1258.074
62.447	13.338	1666.413	1256.962
63.461	13.236	1665.806	1255.621
64.476	13.256	1664.407	1254.605
65.490	13.289	1663.380	1253.970
66.505	13.257	1661.438	1252.155
67.520	13.230	1661.209	1251.662
68.534	13.228	1660.085	1250.688
69.549	13.352	1658.505	1250.330
70.563	13.290	1657.085	1248.677
71.578	13.310	1655.636	1247.626
72.593	13.240	1654.644	1246.244
73.607	13.241	1653.982	1245.643
74.622	13.185	1652.779	1244.201
75.636	13.185	1651.559	1243.171
76.651	13.140	1651.022	1242.322
77.666	13.204	1649.758	1241.737
78.680	13.233	1648.525	1240.923
79.695	13.169	1647.838	1239.812
80.709	13.283	1646.600	1239.628
81.724	13.282	1645.935	1239.012
82.739	13.295	1644.641	1238.023
83.753	13.272	1644.065	1237.309
84.768	13.334	1642.997	1236.860
85.782	13.282	1642.569	1236.037
86.797	13.464	1641.236	1236.286
87.812	13.516	1639.476	1235.236
88.826	13.420	1638.543	1233.713
89.841	13.498	1637.380	1233.305
90.855	13.359	1636.738	1231.676
91.870	13.350	1635.934	1230.899
92.884	13.303	1634.527	1229.382
93.899	13.414	1633.585	1229.388
94.914	13.395	1632.402	1228.245
95.928	13.436	1631.237	1227.568
96.943	13.458	1629.997	1226.687
97.957	13.560	1627.860	1225.723
98.972	13.442	1626.714	1223.880
99.987	13.400	1625.478	1222.532
101.001	13.432	1623.456	1221.143
102.016	13.437	1622.049	1220.010
103.030	13.431	1620.782	1218.902
104.045	13.439	1619.874	1218.172
105.060	13.506	1618.074	1217.207
106.074	13.507	1616.712	1216.082
107.089	13.394	1615.419	1214.168
108.103	13.287	1614.184	1212.352
109.118	13.383	1612.148	1211.418
110.133	13.304	1611.060	1209.913
111.147	13.321	1609.781	1208.972
112.162	13.282	1608.806	1207.844
113.176	13.326	1607.080	1206.766
114.191	13.372	1605.412	1205.740
115.206	13.395	1604.515	1205.130
116.220	13.351	1603.206	1203.722
117.235	13.446	1601.529	1203.043
118.249	13.329	1600.890	1201.609
119.264	13.303	1599.506	1200.275
120.279	13.342	1597.763	1199.141
121.293	13.269	1596.660	1197.679
122.308	13.400	1594.630	1196.998
123.322	13.412	1593.034	1195.781
124.337	13.346	1592.160	1194.546
125.352	13.421	1590.395	1193.652
126.366	13.374	1589.495	1192.531
127.381	13.369	1588.497	1191.643
128.395	13.357	1587.009	1190.338
129.410	13.279	1585.544	1188.571
130.424	13.298	1584.535	1187.849
131.439	13.323	1582.925	1186.716
132.454	13.407	1581.787	1186.357
133.468	13.388	1580.220	1184.944
134.483	13.395	1579.094	1184.042
135.497	13.428	1577.573	1183.036
136.512	13.408	1576.270	1181.808
137.527	13.406	1574.736	1180.538
138.541	13.421	1573.337	1179.490
139.556	13.470	1571.979	1178.723
140.570	13.342	1570.909	1176.905
141.585	13.495	1569.190	1176.597
142.600	13.494	1568.412	1175.903
143.614	13.580	1567.163	1175.473
144.629	13.515	1565.246	1173.467
145.643	13.667	1564.070	1173.559
146.658	13.595	1562.639	1171.875
147.673	13.575	1561.471	1170.751
148.687	13.644	1559.672	1169.787
149.702	13.575	1558.086	1168.009
150.716	13.509	1556.967	1166.599
151.731	13.600	1555.201	1165.812
152.746	13.605	1554.048	1164.886
153.760	13.582	1552.697	1163.607
154.775	13.549	1551.649	1162.484
155.789	13.714	1549.915	1162.239
156.804	13.649	1548.867	1160.896
157.819	13.710	1547.917	1160.509
158.833	13.765	1546.239	1159.530
159.848	13.730	1545.209	1158.413
160.862	13.725	1544.176	1157.499
161.877	13.776	1542.707	1156.651
162.892	13.797	1541.876	1156.073
163.906	13.627	1540.826	1154.001
164.921	13.738	1539.507	1153.680
165.935	13.667	1538.091	1152.023
166.950	13.614	1537.175	1150.869
167.964	13.727	1535.229	1150.095
168.979	13.681	1534.673	1149.258
169.994	13.773	1533.503	1148.917
171.008	13.855	1532.477	1148.611
172.023	13.755	1531.504	1147.093
173.037	13.761	1530.608	1146.360
174.052	13.849	1528.946	1145.620
175.067	13.847	1528.069	1144.850
176.081	13.760	1527.400	1143.648
177.096	13.782	1525.159	1142.017
178.110	13.841	1524.493	1141.825
179.125	13.875	1523.062	1140.889
180.140	13.859	1522.437	1140.205
181.154	13.891	1521.344	1139.505
182.169	13.945	1519.925	1138.714
183.183	13.962	1517.998	1137.288
184.198	14.001	1516.882	1136.618
185.213	14.064	1516.013	1136.297
186.227	13.957	1515.220	1134.871
187.242	14.011	1514.095	1134.296
188.256	13.964	1513.144	1133.163
189.271	14.078	1511.872	1132.885
190.286	14.103	1510.751	1132.113
191.300	14.017	1509.563	1130.540
192.315	13.950	1508.519	1129.204
193.329	13.910	1507.004	1127.696
194.344	13.897	1506.290	1126.974
195.359	13.921	1505.249	1126.261
196.373	13.991	1504.002	1125.699
197.388	14.105	1502.868	1125.520
198.402	14.088	1501.836	1124.539
199.417	14.110	1500.946	1123.922
200.432	14.103	1499.724	1122.854
201.446	14.208	1498.751	1122.735
202.461	14.254	1497.380	1121.924
203.475	14.203	1496.718	1120.985
204.490	14.197	1495.582	1119.995
205.504	14.334	1494.096	1119.705
206.519	14.215	1493.281	1118.192
207.534	14.215	1492.416	1117.443
208.548	14.174	1491.170	1116.140
209.563	14.249	1489.734	1115.471
210.577	14.189	1489.087	1114.485
211.592	14.310	1487.688	1114.145
212.607	14.279	1487.224	1113.493
213.621	14.387	1486.422	1113.515
214.636	14.453	1485.664	1113.290
215.650	14.270	1484.438	1111.050
216.665	14.365	1483.315	1110.745
217.680	14.413	1482.490	1110.347
218.694	14.496	1481.752	1110.249
219.709	14.472	1480.947	1109.389
220.723	14.586	1479.494	1108.962
221.738	14.500	1478.807	1107.776
222.753	14.465	1478.212	1107.000
223.767	14.394	1477.086	1105.592
224.782	14.455	1476.188	1105.227
225.796	14.508	1475.230	1104.762
226.811	14.552	1474.099	1104.108
227.826	14.513	1473.651	1103.417
228.840	14.645	1472.178	1103.086
229.855	14.543	1471.625	1101.900
230.869	14.567	1470.464	1101.094
231.884	14.549	1469.456	1100.125
232.899	14.549	1468.463	1099.281
233.913	14.541	1466.902	1097.966
234.928	14.515	1465.824	1096.887
235.942	14.493	1464.923	1095.974
236.957	14.446	1463.917	1094.814
237.972	14.637	1461.787	1094.377
238.986	14.629	1460.918	1093.579
240.001	14.562	1460.386	1092.643
241.015	14.615	1459.307	1092.084
242.030	14.651	1457.991	1091.238
243.045	14.606	1457.223	1090.275
244.059	14.653	1456.339	1089.822
245.074	14.633	1455.620	1089.057
246.088	14.721	1454.717	1088.857
247.103	14.766	1453.885	1088.435
248.117	14.816	1452.716	1087.786
249.132	14.764	1452.564	1087.239
250.147	14.831	1451.352	1086.672
251.161	14.962	1450.732	1086.963
252.176	14.955	1450.161	1086.393
253.190	14.909	1449.759	1085.696
254.205	15.053	1448.531	1085.616
255.220	15.090	1447.170	1084.738
256.234	15.144	1446.125	1084.209
257.249	15.010	1446.111	1083.233
258.263	15.065	1445.030	1082.685
259.278	15.042	1444.106	1081.750
260.293	15.075	1442.918	1080.977
261.307	15.095	1442.091	1080.391
262.322	15.121	1441.368	1079.923
263.336	15.256	1440.468	1080.018
264.351	15.167	1439.604	1078.707
265.366	15.243	1438.326	1078.139
266.380	15.178	1437.675	1077.136
267.395	15.329	1436.586	1077.197
268.409	15.263	1435.961	1076.212
269.424	15.292	1434.997	1075.579
270.439	15.297	1433.837	1074.646
271.453	15.202	1433.091	1073.383
272.468	15.241	1432.259	1072.915
273.482	15.298	1430.733	1072.038
274.497	15.359	1429.966	1071.758
275.512	15.294	1429.306	1070.758
276.526	15.330	1428.218	1070.076
277.541	15.370	1427.191	1069.469
278.555	15.339	1426.504	1068.663
279.570	15.373	1425.450	1067.993
280.585	15.318	1424.842	1067.092
281.599	15.410	1424.209	1067.110
282.614	15.446	1423.022	1066.355
283.628	15.469	1421.471	1065.244
284.643	15.356	1420.980	1064.062
285.657	15.472	1419.467	1063.571
286.672	15.516	1418.798	1063.254
287.687	15.553	1417.381	1062.332
288.701	15.530	1416.526	1061.452
289.716	15.469	1415.972	1060.562
290.730	15.468	1415.751	1060.296
291.745	15.667	1413.978	1060.130
292.760	15.612	1412.788	1058.793
293.774	15.594	1412.264	1058.193
294.789	15.542	1411.274	1057.031
295.803	15.496	1410.738	1056.247
296.818	15.602	1409.561	1055.939
297.833	15.593	1408.598	1055.070
298.847	15.604	1407.644	1054.329
299.862	15.662	1406.482	1053.732
300.876	15.598	1405.787	1052.715
301.891	15.757	1404.405	1052.583
302.906	15.614	1403.696	1051.064
303.920	15.830	1402.846	1051.685
304.935	15.823	1402.002	1050.914
305.949	15.789	1401.536	1050.260
306.964	15.882	1400.430	1049.919
307.979	15.899	1399.553	1049.269
308.993	15.926	1398.342	1048.437
310.008	15.844	1397.557	1047.250
311.022	15.891	1396.581	1046.716
312.037	15.818	1395.924	1045.679
313.052	15.935	1394.894	1045.539
314.066	15.950	1393.618	1044.584
315.081	15.881	1392.510	1043.234
316.095	15.802	1391.891	1042.188
317.110	15.877	1390.702	1041.672
318.125	15.930	1389.515	1041.015
319.139	15.879	1388.444	1039.808
320.154	15.871	1388.053	1039.370
321.168	16.049	1386.612	1039.300
322.183	15.938	1385.891	1037.980
323.197	15.954	1384.914	1037.254
324.212	15.946	1384.096	1036.507
325.227	15.911	1383.652	1035.863
326.241	15.949	1382.549	1035.181
327.256	15.942	1381.804	1034.488
328.270	16.040	1380.292	1033.864
329.285	16.069	1379.442	1033.314
330.300	15.991	1378.849	1032.302
331.314	16.041	1378.338	1032.135
332.329	16.041	1376.860	1030.934
333.343	16.035	1376.195	1030.313
334.358	16.083	1375.399	1029.918
335.373	16.095	1374.509	1029.235
336.387	16.079	1373.818	1028.526
337.402	16.262	1372.532	1028.590
338.416	16.106	1372.313	1027.381
339.431	16.190	1371.589	1027.261
340.446	16.251	1370.902	1027.024
341.460	16.111	1369.799	1025.256
342.475	16.255	1369.061	1025.488
343.489	16.316	1368.095	1025.046
344.504	16.405	1366.876	1024.579
345.519	16.359	1366.420	1023.868
346.533	16.398	1365.056	1022.994
347.548	16.378	1364.539	1022.397
348.562	16.374	1363.730	1021.673
349.577	16.477	1362.550	1021.322
350.592	16.456	1361.724	1020.483
351.606	16.405	1360.816	1019.408
352.621	16.429	1359.797	1018.696
353.635	16.448	1358.717	1017.911
354.650	16.417	1357.915	1017.036
355.665	16.439	1356.996	1016.388
356.679	16.445	1355.722	1015.381
357.694	16.394	1355.033	1014.471
358.708	16.398	1353.971	1013.608
359.723	16.436	1353.062	1013.068
360.738	16.562	1351.552	1012.598
361.752	16.612	1350.298	1011.869
362.767	16.549	1349.187	1010.575
363.781	16.499	1348.516	1009.683
364.796	16.508	1347.846	1009.147
365.810	16.533	1347.189	1008.713
366.825	16.578	1346.525	1008.396
367.840	16.653	1345.634	1008.085
368.854	16.706	1345.076	1007.893
369.869	16.702	1344.497	1007.347
370.883	16.773	1343.385	1006.847
371.898	16.874	1342.668	1006.821
372.913	16.822	1341.982	1005.904
373.927	16.784	1341.060	1004.904
374.942	16.820	1339.907	1004.161
375.956	16.826	1339.560	1003.849
376.971	16.875	1338.650	1003.370
377.986	16.888	1337.587	1002.557
379.000	16.887	1336.827	1001.894
380.015	16.855	1336.241	1001.176
381.029	16.814	1335.833	1000.542
382.044	16.946	1335.165	1000.731
383.059	16.983	1334.255	1000.180
384.073	16.934	1333.474	999.218
385.088	16.961	1333.064	998.981
386.102	16.987	1332.251	998.437
387.117	17.041	1331.262	997.920
388.132	17.068	1330.656	997.540
389.146	16.948	1329.868	996.158
390.161	16.993	1328.965	995.656
391.175	16.975	1327.883	994.650
392.190	17.010	1326.970	994.086
393.205	16.919	1326.402	993.040
394.219	17.069	1325.306	993.006
395.234	17.083	1324.101	992.100
396.248	17.154	1322.722	991.390
397.263	17.188	1320.831	990.082
398.278	17.083	1320.093	988.830
399.292	17.168	1319.049	988.459
400.307	17.092	1318.312	987.376
401.321	17.082	1317.114	986.331
402.336	17.132	1316.119	985.788
403.350	17.094	1315.515	985.029
404.365	17.138	1314.281	984.275
405.380	17.058	1313.203	982.914
406.394	17.140	1312.347	982.662
407.409	17.125	1311.576	981.914
408.423	17.218	1311.086	981.995
409.438	17.270	1310.843	982.027
410.453	17.352	1309.389	981.322
411.467	17.306	1308.964	980.654
412.482	17.409	1308.277	980.647
413.496	17.449	1307.810	980.438
414.511	17.438	1306.943	979.641
415.526	17.518	1305.838	979.185
416.540	17.469	1304.938	978.144
417.555	17.520	1304.598	978.094
418.569	17.567	1303.749	977.639
419.584	17.609	1303.495	977.604
420.599	17.590	1302.803	976.891
421.613	99.873	1362.039	1488.066
422.628	98.159	1370.609	1488.127
