DTS Sentinel unit serial number:	SN413079Multiplexer serial number:	ORYXHardware model number:	OX4-SRSoftware version number:	ORYX F/W v4.00 Oryx Data Collector v3.7.2.0data status	okinstallation	princeton_trtdifferential loss correction	single-endedforward channel	channel 4reverse channel	N/Adate	2019/09/16time	14:41:35forward acquisition time	60.00reverse acquisition time	0.00gamma	496.2192k internal	0.2288k external	0.2288temperature offset calibration	0.9938default loss term (dB/km)	0.3790temperature slope calibration	1.0000multiplexer offset coefficient	1.0000multiplexer slope coefficient	1.0000fibre end	0.00T internal ref (°C)	41.64T ext. ref 1 (°C)	14.31T ext. ref 2 (°C)	35.83length (m)	temperature (°C)	Stokes	anti-Stokes-747.200	644.439	0.071	0.185
-746.185	167.082	0.152	0.222
-745.171	-110.050	-0.149	0.032
-744.156	-49.415	-0.243	0.119
-743.142	-200.000	0.012	0.461
-742.127	742.088	0.118	0.325
-741.112	108.085	0.217	0.266
-740.098	-138.168	0.095	-0.011
-739.083	-200.000	-0.029	0.180
-738.069	401.142	0.211	0.454
-737.054	-33.616	-0.352	-0.199
-736.039	-71.667	-0.145	0.055
-735.025	184.779	0.098	0.149
-734.010	-134.318	-0.337	-0.042
-732.996	487.676	-0.194	-0.453
-731.981	800.000	-0.063	-0.230
-730.966	256.012	-0.109	0.192
-729.952	-137.367	0.256	0.030
-728.937	-200.000	0.071	-0.321
-727.923	-200.000	0.019	-0.115
-726.908	71.010	-0.148	-0.157
-725.894	-53.668	0.214	0.100
-724.879	154.825	-0.046	0.065
-723.864	114.179	0.042	0.053
-722.850	-103.329	-0.158	-0.038
-721.835	-69.419	0.161	-0.063
-720.821	800.000	-0.040	-0.131
-719.806	800.000	-0.071	-0.222
-718.791	386.380	0.022	0.046
-717.777	-178.989	-0.279	0.006
-716.762	-200.000	0.037	-0.181
-715.748	-53.773	-0.190	-0.089
-714.733	-50.208	-0.140	-0.068
-713.718	-75.904	-0.266	-0.097
-712.704	-200.000	-0.028	-0.262
-711.689	32.911	-0.243	-0.215
-710.675	71.612	-0.071	-0.076
-709.660	-119.569	-0.229	-0.041
-708.645	2.506	-0.077	-0.057
-707.631	-127.296	-0.152	0.023
-706.616	-200.000	-0.056	0.363
-705.602	-56.716	0.282	-0.128
-704.587	190.663	0.101	0.155
-703.572	424.427	-0.095	-0.209
-702.558	86.755	-0.186	0.211
-701.543	-65.401	0.112	0.046
-700.529	150.314	0.016	0.022
-699.514	-200.000	0.019	-0.113
-698.499	-200.000	0.032	-0.508
-697.485	209.878	-0.058	-0.093
-696.470	-92.663	-0.248	0.071
-695.456	92.690	-0.087	0.101
-694.441	-200.000	0.065	0.360
-693.426	-73.208	0.385	0.144
-692.412	-157.421	0.262	0.016
-691.397	800.000	0.096	-0.276
-690.383	419.096	-0.130	-0.285
-689.368	-200.000	-0.011	-0.100
-688.354	-200.000	0.015	0.296
-687.339	191.607	-0.133	0.205
-686.324	-200.000	0.007	-0.164
-685.310	473.352	-0.063	0.146
-684.295	-23.138	0.088	0.054
-683.281	-144.833	-0.309	-0.029
-682.266	591.934	-0.070	0.177
-681.251	-200.000	0.002	-0.154
-680.237	-62.077	-0.337	0.144
-679.222	-132.326	0.200	0.026
-678.208	-27.829	0.089	0.053
-677.193	34.669	0.177	-0.158
-676.178	-140.837	-0.204	0.021
-675.164	7.300	0.306	-0.233
-674.149	-95.217	-0.198	0.055
-673.135	-137.639	0.339	0.039
-672.120	-85.786	-0.152	0.048
-671.105	-200.000	-0.028	0.210
-670.091	-82.306	-0.314	0.105
-669.076	800.000	-0.071	0.272
-668.062	-200.000	-0.001	0.101
-667.047	800.000	0.051	0.199
-666.032	21.884	-0.221	-0.184
-665.018	800.000	0.164	-0.498
-664.003	485.442	-0.041	0.094
-662.989	800.000	-0.052	-0.229
-661.974	-124.958	0.155	-0.024
-660.959	-200.000	0.034	-0.271
-659.945	207.488	0.093	0.148
-658.930	-99.194	0.043	0.011
-657.916	127.331	-0.085	-0.110
-656.901	-200.000	0.037	-0.250
-655.886	-98.692	0.178	-0.046
-654.872	-200.000	-0.010	0.270
-653.857	-200.000	0.015	0.247
-652.843	-200.000	-0.088	0.000
-651.828	-200.000	0.036	-0.171
-650.814	6.083	0.125	-0.095
-649.799	-188.706	0.127	0.002
-648.784	-200.000	0.008	-0.224
-647.770	-94.756	-0.513	-0.142
-646.755	-200.000	-0.031	-0.413
-645.741	-100.517	-0.108	0.027
-644.726	548.207	-0.116	-0.283
-643.711	-14.204	-0.148	-0.097
-642.697	80.341	-0.212	0.234
-641.682	329.136	0.106	0.208
-640.668	800.000	0.073	0.261
-639.653	-91.638	-0.307	-0.089
-638.638	-26.802	-0.180	0.108
-637.624	448.346	-0.050	0.112
-636.609	53.168	-0.163	-0.159
-635.595	65.259	0.294	0.303
-634.580	322.976	0.081	-0.158
-633.565	800.000	-0.055	0.230
-632.551	142.014	-0.123	-0.167
-631.536	-82.116	0.198	0.066
-630.522	-58.877	-0.165	-0.073
-629.507	-200.000	-0.007	-0.162
-628.492	140.874	-0.110	-0.148
-627.478	141.472	0.141	-0.191
-626.463	44.950	0.250	0.235
-625.449	800.000	-0.117	-0.382
-624.434	138.599	-0.134	-0.180
-623.419	-200.000	0.012	-0.205
-622.405	-89.684	-0.124	0.037
-621.390	-200.000	0.048	-0.217
-620.376	227.795	0.159	0.264
-619.361	19.945	-0.177	0.145
-618.346	72.528	0.142	0.151
-617.332	-90.227	-0.227	-0.067
-616.317	13.903	0.196	-0.156
-615.303	-28.468	0.340	0.200
-614.288	318.934	0.164	0.317
-613.273	38.735	-0.239	-0.218
-612.259	-34.024	0.192	-0.108
-611.244	-157.250	-0.298	-0.018
-610.230	218.571	0.117	-0.191
-609.215	800.000	0.083	-0.287
-608.201	478.512	-0.137	0.316
-607.186	369.922	-0.074	0.153
-606.171	-128.074	0.032	0.005
-605.157	-154.941	-0.358	-0.024
-604.142	-200.000	0.002	-0.108
-603.128	800.000	-0.040	0.120
-602.113	124.024	-0.273	-0.350
-601.098	-97.679	-0.228	-0.060
-600.084	-200.000	0.009	-0.299
-599.069	-104.753	-0.179	0.042
-598.055	-58.862	0.180	0.079
-597.040	14.109	0.188	0.149
-596.025	-124.979	-0.145	-0.023
-595.011	-44.054	-0.253	0.129
-593.996	-200.000	-0.000	0.010
-592.982	82.437	-0.027	-0.030
-591.967	-200.000	0.060	-0.450
-590.952	42.664	-0.073	0.068
-589.938	45.374	0.116	0.109
-588.923	-11.832	-0.210	0.140
-587.909	800.000	-0.049	0.154
-586.894	-97.067	-0.188	0.050
-585.879	-127.724	0.116	-0.017
-584.865	-5.272	-0.226	0.159
-583.850	-45.331	0.224	-0.113
-582.836	37.885	0.078	0.071
-581.821	-200.000	0.005	-0.319
-580.806	-50.274	-0.301	-0.145
-579.792	81.834	-0.225	0.248
-578.777	-49.716	-0.251	0.122
-577.763	-77.165	-0.247	-0.088
-576.748	241.918	-0.064	-0.109
-575.733	-152.237	0.286	0.021
-574.719	-200.000	0.007	-0.127
-573.704	-61.111	0.321	0.138
-572.690	-200.000	-0.038	-0.170
-571.675	-200.000	-0.004	-0.193
-570.661	-200.000	0.037	-0.253
-569.646	-200.000	-0.000	-0.133
-568.631	118.872	-0.105	0.132
-567.617	800.000	-0.063	-0.240
-566.602	-77.838	0.227	-0.080
-565.588	55.548	0.174	-0.172
-564.573	70.016	0.159	0.167
-563.558	-200.000	0.026	-0.327
-562.544	-200.000	0.042	-0.337
-561.529	800.000	0.058	-0.256
-560.515	-20.640	0.207	-0.130
-559.500	-200.000	-0.010	-0.447
-558.485	-76.392	0.128	-0.046
-557.471	85.248	-0.286	-0.319
-556.456	245.180	-0.105	0.180
-555.442	463.512	-0.060	-0.137
-554.427	-197.334	0.213	-0.001
-553.412	206.334	0.139	-0.220
-552.398	-65.155	0.358	0.147
-551.383	800.000	-0.179	0.533
-550.369	-200.000	-0.021	0.151
-549.354	113.020	0.121	0.149
-548.339	-163.929	0.082	-0.004
-547.325	-200.000	-0.024	-0.137
-546.310	-200.000	0.046	-0.271
-545.296	800.000	-0.035	0.129
-544.281	-101.202	-0.191	0.048
-543.266	800.000	-0.096	-0.299
-542.252	-142.357	-0.210	-0.021
-541.237	-114.116	0.046	0.009
-540.223	0.936	0.277	0.202
-539.208	800.000	-0.061	0.193
-538.193	-105.526	0.082	0.019
-537.179	-113.857	0.078	0.015
-536.164	-113.967	0.237	-0.047
-535.150	397.874	0.103	-0.219
-534.135	-89.274	-0.274	-0.082
-533.121	-87.457	-0.045	-0.014
-532.106	-147.877	-0.367	-0.031
-531.091	-127.791	-0.223	0.033
-530.077	794.246	0.112	-0.314
-529.062	-200.000	0.015	-0.198
-528.048	800.000	0.150	-0.564
-527.033	-200.000	0.015	-0.245
-526.018	-92.024	-0.057	-0.016
-525.004	-12.229	0.258	-0.171
-523.989	105.386	0.072	-0.087
-522.975	800.000	0.104	-0.362
-521.960	-33.031	-0.211	0.119
-520.945	76.264	-0.052	-0.056
-519.931	25.966	-0.075	0.063
-518.916	-59.112	-0.072	-0.031
-517.902	108.865	0.071	0.087
-516.887	16.812	0.161	-0.129
-515.872	-200.000	-0.008	0.053
-514.858	31.134	0.137	0.119
-513.843	51.336	-0.119	-0.115
-512.829	465.215	0.100	0.228
-511.814	800.000	0.069	-0.195
-510.799	105.504	-0.105	-0.126
-509.785	-18.686	-0.422	0.267
-508.770	-100.283	-0.388	0.098
-507.756	-200.000	0.018	-0.126
-506.741	127.473	-0.200	-0.258
-505.726	800.000	0.089	-0.378
-504.712	110.118	-0.246	0.300
-503.697	126.540	0.057	0.073
-502.683	123.546	0.113	0.144
-501.668	472.853	-0.064	0.146
-500.653	-141.640	0.106	0.011
-499.639	800.000	0.039	0.160
-498.624	26.562	-0.105	0.089
-497.610	-72.682	-0.235	-0.088
-496.595	128.245	0.098	0.127
-495.581	-200.000	0.042	-0.228
-494.566	-61.361	-0.030	0.013
-493.551	-43.501	-0.181	-0.093
-492.537	111.689	-0.131	0.160
-491.522	509.889	0.105	-0.249
-490.508	-108.183	0.230	-0.050
-489.493	50.638	0.145	-0.139
-488.478	271.513	-0.074	-0.132
-487.464	-83.546	0.230	-0.075
-486.449	-74.533	0.230	-0.084
-485.435	-61.448	0.023	0.010
-484.420	-200.000	-0.032	-0.179
-483.405	1.996	0.293	-0.214
-482.391	66.344	-0.098	0.101
-481.376	17.507	0.109	-0.088
-480.362	251.442	-0.153	0.264
-479.347	-92.297	0.233	0.067
-478.332	-73.643	0.065	-0.024
-477.318	-200.000	0.045	0.264
-476.303	-200.000	-0.034	-0.173
-475.289	1.562	-0.393	0.287
-474.274	-200.000	0.013	-0.331
-473.259	-111.624	0.432	-0.089
-472.245	-200.000	0.014	-0.198
-471.230	-200.000	0.022	-0.097
-470.216	-73.820	0.132	-0.049
-469.201	686.956	0.074	-0.195
-468.186	-200.000	-0.043	-0.255
-467.172	-84.588	-0.095	-0.030
-466.157	79.478	0.086	0.094
-465.143	-63.354	0.214	0.089
-464.128	-34.945	-0.150	-0.083
-463.113	100.653	-0.215	0.253
-462.099	395.478	-0.092	-0.195
-461.084	-173.390	-0.324	-0.010
-460.070	463.599	0.086	0.194
-459.055	-200.000	-0.042	-0.206
-458.040	-200.000	-0.016	0.354
-457.026	10.191	0.349	0.269
-456.011	-11.369	-0.190	-0.127
-454.997	227.133	-0.142	0.234
-453.982	116.636	0.135	-0.168
-452.968	-180.835	-0.395	0.008
-451.953	-97.930	-0.328	0.086
-450.938	-200.000	-0.019	-0.234
-449.924	225.337	0.075	-0.124
-448.909	118.413	-0.045	0.056
-447.895	242.845	-0.080	-0.136
-446.880	-75.755	-0.239	0.086
-445.865	-82.716	-0.084	-0.028
-444.851	-200.000	-0.018	0.134
-443.836	307.420	-0.043	0.082
-442.822	203.512	0.065	-0.103
-441.807	800.000	0.022	0.070
-440.792	800.000	0.139	-0.467
-439.778	310.320	-0.024	0.045
-438.763	46.768	-0.109	-0.103
-437.749	-9.840	0.262	-0.177
-436.734	-50.926	0.040	0.019
-435.719	-156.779	-0.537	0.034
-434.705	221.083	-0.123	0.199
-433.690	-126.446	-0.234	-0.035
-432.676	800.000	-0.101	-0.322
-431.661	17.799	-0.189	0.153
-430.646	56.389	-0.122	0.120
-429.632	-87.202	-0.135	0.041
-428.617	21.211	0.289	0.238
-427.603	381.214	-0.065	-0.136
-426.588	-3.013	-0.177	0.125
-425.573	-121.663	0.349	0.059
-424.559	-200.000	0.025	-0.389
-423.544	-138.995	0.241	-0.026
-422.530	5.479	-0.196	0.146
-421.515	572.393	0.082	0.202
-420.500	-200.000	-0.009	-0.273
-419.486	82.351	-0.242	-0.265
-418.471	-200.000	0.037	0.285
-417.457	135.497	0.166	-0.218
-416.442	289.960	0.178	-0.327
-415.428	777.416	0.033	0.091
-414.413	-157.033	0.161	-0.010
-413.398	-1.139	-0.295	0.211
-412.384	196.541	0.228	0.352
-411.369	-100.388	0.112	0.028
-410.355	-70.884	-0.228	0.087
-409.340	577.387	-0.146	0.362
-408.325	-73.497	0.251	-0.093
-407.311	66.586	-0.186	0.191
-406.296	800.000	-0.068	-0.239
-405.282	518.987	-0.131	0.311
-404.267	-147.903	-0.170	0.014
-403.252	-200.000	-0.018	-0.152
-402.238	-26.543	0.282	0.167
-401.223	137.344	-0.135	-0.178
-400.209	-144.368	0.230	0.022
-399.194	288.893	0.104	0.190
-398.179	-68.882	0.169	-0.066
-397.165	-200.000	0.043	0.272
-396.150	120.040	0.293	0.368
-395.136	-169.425	0.102	0.004
-394.121	-68.131	-0.278	-0.110
-393.106	151.983	0.133	0.184
-392.092	-80.831	-0.164	0.055
-391.077	127.665	-0.056	-0.072
-390.063	55.659	-0.085	0.084
-389.048	-8.789	0.294	0.200
-388.033	458.867	-0.030	-0.068
-387.019	-54.214	-0.381	0.175
-386.004	-35.633	-0.252	-0.138
-384.990	-94.936	0.305	0.083
-383.975	800.000	0.056	-0.198
-382.960	-124.544	-0.366	-0.057
-381.946	498.002	0.140	0.325
-380.931	-200.000	0.017	-0.155
-379.917	24.058	0.193	0.161
-378.902	586.947	-0.056	-0.139
-377.888	-200.000	-0.003	-0.075
-376.873	54.598	-0.038	0.037
-375.858	800.000	0.042	0.183
-374.844	75.005	0.092	0.098
-373.829	-76.006	-0.193	0.069
-372.815	-48.094	-0.081	-0.039
-371.800	81.088	-0.070	-0.076
-370.785	49.896	0.005	0.005
-369.771	-200.000	-0.022	-0.169
-368.756	-70.702	0.130	-0.049
-367.742	-149.226	-0.472	-0.038
-366.727	-200.000	-0.019	-0.179
-365.712	-200.000	0.005	-0.164
-364.698	44.735	0.185	-0.172
-363.683	-125.346	0.232	-0.036
-362.669	-200.000	-0.008	0.262
-361.654	-98.691	0.210	-0.054
-360.639	-140.244	-0.305	0.032
-359.625	108.105	-0.084	-0.101
-358.610	-143.380	0.280	0.027
-357.596	29.062	0.086	0.073
-356.581	-200.000	0.007	-0.139
-355.566	86.274	0.145	0.161
-354.552	-200.000	0.021	0.115
-353.537	463.061	0.104	-0.233
-352.523	-106.485	-0.344	0.078
-351.508	-42.665	0.193	0.099
-350.493	-64.934	0.108	-0.044
-349.479	-200.000	-0.033	-0.243
-348.464	-112.062	-0.174	-0.035
-347.450	-83.352	-0.442	-0.143
-346.435	-79.718	-0.246	-0.084
-345.420	-200.000	-0.007	0.132
-344.406	-22.923	-0.048	0.029
-343.391	247.794	0.070	-0.119
-342.377	-179.456	0.371	0.008
-341.362	-128.334	0.171	0.025
-340.348	-9.505	0.071	-0.048
-339.333	-200.000	-0.016	-0.346
-338.318	113.848	-0.356	-0.437
-337.304	-131.909	-0.094	-0.012
-336.289	-33.041	0.338	-0.189
-335.275	800.000	-0.063	0.251
-334.260	-200.000	0.001	-0.085
-333.245	203.218	0.258	-0.402
-332.231	-200.000	0.076	0.756
-331.216	-200.000	0.039	0.175
-330.202	61.275	0.089	-0.089
-329.187	-200.000	0.016	-0.087
-328.172	-78.367	0.297	0.103
-327.158	-59.179	0.286	-0.125
-326.143	58.669	-0.199	0.198
-325.129	8.560	0.126	0.096
-324.114	-87.867	-0.114	0.035
-323.099	-125.373	0.328	-0.050
-322.085	-44.380	0.129	0.065
-321.070	-200.000	0.022	-0.171
-320.056	-200.000	-0.024	0.259
-319.041	-200.000	-0.003	0.363
-318.026	231.023	-0.017	0.028
-317.012	140.147	-0.092	-0.122
-315.997	117.039	0.166	-0.206
-314.983	-118.847	-0.325	0.058
-313.968	247.928	0.035	0.060
-312.953	-84.721	0.041	0.013
-311.939	121.312	0.208	0.261
-310.924	-200.000	0.003	0.148
-309.910	52.715	-0.221	0.213
-308.895	109.500	0.182	0.220
-307.880	-78.193	0.381	-0.132
-306.866	88.726	0.114	0.128
-305.851	72.789	-0.070	-0.074
-304.837	-123.427	0.318	-0.051
-303.822	800.000	0.058	0.192
-302.807	-200.000	-0.080	0.418
-301.793	319.625	0.257	0.491
-300.778	90.931	-0.116	0.131
-299.764	630.917	-0.151	-0.385
-298.749	172.849	0.219	-0.318
-297.735	-131.489	0.220	0.029
-296.720	229.708	0.104	0.172
-295.705	-200.000	0.003	0.306
-294.691	27.301	0.132	0.112
-293.676	800.000	-0.115	-0.335
-292.662	-59.097	-0.230	0.100
-291.647	800.000	0.064	0.182
-290.632	800.000	-0.035	0.134
-289.618	-45.978	-0.338	-0.168
-288.603	553.655	0.135	-0.326
-287.589	10.947	-0.106	0.082
-286.574	-61.534	0.138	-0.058
-285.559	-200.000	-0.031	0.185
-284.545	-84.350	-0.285	-0.091
-283.530	121.029	-0.134	0.168
-282.516	400.676	-0.117	-0.248
-281.501	76.434	-0.260	0.277
-280.486	-60.546	-0.167	-0.071
-279.472	174.733	-0.203	0.296
-278.457	800.000	-0.038	0.138
-277.443	-25.267	0.110	0.066
-276.428	319.449	-0.119	-0.227
-275.413	-48.017	0.253	0.123
-274.399	-78.308	-0.125	0.043
-273.384	-200.000	0.025	-0.288
-272.370	-153.946	-0.321	0.022
-271.355	317.371	0.201	0.382
-270.340	-108.737	0.327	0.071
-269.326	-19.184	0.033	0.021
-268.311	-55.462	0.236	0.106
-267.297	-75.188	0.085	0.031
-266.282	-200.000	-0.025	-0.191
-265.267	800.000	0.113	-0.432
-264.253	-39.098	0.046	0.024
-263.238	185.290	-0.316	0.472
-262.224	121.701	-0.161	-0.202
-261.209	-170.710	-0.101	-0.003
-260.195	800.000	0.102	0.349
-259.180	22.324	-0.062	-0.051
-258.165	-122.755	0.113	-0.018
-257.151	-66.029	-0.076	-0.030
-256.136	773.764	0.169	0.463
-255.122	800.000	0.061	0.247
-254.107	110.909	0.247	0.299
-253.092	286.237	-0.122	-0.222
-252.078	777.365	-0.130	0.358
-251.063	448.914	0.100	-0.222
-250.049	471.058	-0.059	-0.133
-249.034	-182.640	0.359	0.007
-248.019	728.456	-0.051	-0.137
-247.005	-150.164	-0.374	-0.029
-245.990	76.238	0.284	0.303
-244.976	800.000	-0.101	0.353
-243.961	329.861	0.229	-0.443
-242.946	-146.013	0.248	-0.022
-241.932	5.953	-0.069	0.051
-240.917	-5.928	0.034	-0.023
-239.903	407.281	0.103	0.220
-238.888	265.522	0.124	0.218
-237.873	265.553	0.050	0.088
-236.859	180.122	-0.059	0.087
-235.844	-122.882	-0.079	0.013
-234.830	-200.000	-0.033	-0.166
-233.815	405.218	-0.082	0.173
-232.800	428.435	0.077	-0.166
-231.786	-144.407	0.074	0.007
-230.771	-200.000	0.009	0.086
-229.757	-200.000	-0.034	0.245
-228.742	800.000	-0.121	0.352
-227.727	800.000	0.107	-0.364
-226.713	-161.122	0.064	-0.003
-225.698	-9.716	-0.345	-0.231
-224.684	-120.751	0.201	0.034
-223.669	219.152	-0.156	0.251
-222.655	184.981	0.208	0.310
-221.640	800.000	-0.043	-0.129
-220.625	8.664	0.217	-0.164
-219.611	157.674	-0.180	0.250
-218.596	800.000	-0.082	0.361
-217.582	-134.790	0.142	-0.017
-216.567	214.851	0.073	-0.117
-215.552	-123.892	0.233	-0.037
-214.538	-179.483	0.238	0.005
-213.523	134.993	0.027	-0.035
-212.509	-24.553	0.074	-0.044
-211.494	88.112	-0.137	-0.153
-210.479	-144.857	0.312	0.029
-209.465	-200.000	-0.085	0.416
-208.450	-113.633	0.362	0.071
-207.436	498.105	-0.083	0.192
-206.421	300.319	0.095	-0.175
-205.406	-200.000	0.003	-0.158
-204.392	-200.000	-0.007	-0.229
-203.377	107.295	-0.097	0.116
-202.363	-200.000	0.005	-0.135
-201.348	167.229	0.065	-0.092
-200.333	-121.272	-0.168	-0.028
-199.319	-200.000	0.023	0.296
-198.304	800.000	-0.057	0.200
-197.290	-165.675	0.088	0.004
-196.275	-15.616	-0.064	-0.041
-195.260	-60.096	0.262	-0.112
-194.246	-33.568	-0.107	0.059
-193.231	-4.799	0.112	0.077
-192.217	-2.288	0.029	0.021
-191.202	-25.151	-0.164	0.097
-190.187	67.307	0.166	0.170
-189.173	-60.840	0.281	0.119
-188.158	-191.414	-0.284	0.003
-187.144	-108.567	-0.197	-0.042
-186.129	-137.905	0.335	-0.038
-185.114	-56.308	-0.215	0.096
-184.100	-86.914	-0.213	0.065
-183.085	-200.000	0.002	0.073
-182.071	-144.438	0.096	-0.009
-181.056	-19.521	0.144	0.090
-180.042	724.878	0.106	0.284
-179.027	111.421	0.057	0.069
-178.012	-69.231	-0.426	0.164
-176.998	499.299	0.136	-0.314
-175.983	-200.000	0.022	-0.315
-174.969	151.801	0.160	0.218
-173.954	210.526	0.097	-0.152
-172.939	25.507	-0.043	0.036
-171.925	139.481	-0.067	0.089
-170.910	-18.974	0.406	0.253
-169.896	94.343	0.042	0.048
-168.881	136.444	0.101	0.132
-167.866	101.318	-0.101	0.118
-166.852	-42.070	-0.166	0.085
-165.837	59.771	-0.091	0.090
-164.823	-108.487	0.180	0.039
-163.808	82.116	-0.095	-0.104
-162.793	-80.534	-0.132	0.044
-161.779	800.000	-0.133	0.428
-160.764	99.861	0.117	-0.135
-159.750	-200.000	0.032	-0.237
-158.735	94.501	-0.083	-0.095
-157.720	-40.107	0.321	-0.168
-156.706	-54.821	-0.163	0.074
-155.691	110.060	-0.125	-0.151
-154.677	193.104	0.121	-0.183
-153.662	-200.000	-0.011	0.105
-152.647	-200.000	0.021	-0.135
-151.633	-200.000	0.025	0.223
-150.618	-200.000	0.025	0.271
-149.604	-133.821	-0.122	-0.015
-148.589	800.000	-0.046	0.141
-147.574	-90.953	-0.451	0.130
-146.560	-51.051	-0.209	0.098
-145.545	128.239	0.298	-0.380
-144.531	-20.371	-0.087	-0.053
-143.516	156.791	0.094	-0.131
-142.502	800.000	0.070	0.248
-141.487	800.000	-0.103	0.289
-140.472	134.701	-0.140	-0.182
-139.458	-111.676	-0.476	0.097
-138.443	444.560	0.222	-0.488
-137.429	738.757	-0.074	-0.200
-136.414	-52.067	-0.125	0.058
-135.399	54.095	0.071	0.068
-134.385	-200.000	0.014	0.194
-133.370	-105.665	0.183	0.042
-132.356	444.667	-0.103	-0.226
-131.341	2.901	0.040	-0.029
-130.326	-200.000	0.076	-0.438
-129.312	327.924	0.097	0.186
-128.297	-33.642	-0.208	-0.115
-127.283	-19.208	-0.255	-0.158
-126.268	-129.204	-0.221	0.031
-125.253	-134.812	-0.110	0.013
-124.239	271.464	0.170	-0.300
-123.224	266.185	-0.173	-0.302
-122.210	-122.280	0.428	0.070
-121.195	-109.352	-0.126	-0.027
-120.180	167.550	-0.208	-0.296
-119.166	258.470	0.057	-0.099
-118.151	211.576	-0.208	0.327
-117.137	800.000	-0.075	-0.252
-116.122	-200.000	0.053	-0.346
-115.107	-137.073	-0.154	0.018
-114.093	-113.251	0.116	-0.023
-113.078	-88.027	-0.136	0.041
-112.064	800.000	-0.038	0.144
-111.049	7.767	0.263	0.197
-110.034	417.493	-0.129	0.276
-109.020	130.228	-0.070	0.090
-108.005	187.024	0.073	-0.109
-106.991	-186.684	-0.152	0.002
-105.976	-86.861	-0.156	0.048
-104.962	-200.000	-0.022	-0.278
-103.947	-34.526	-0.112	-0.061
-102.932	-75.355	0.244	-0.087
-101.918	-135.024	0.360	0.043
-100.903	114.622	0.089	0.109
-99.889	800.000	0.078	0.234
-98.874	-200.000	-0.051	0.348
-97.859	800.000	-0.190	0.575
-96.845	-68.185	-0.237	-0.092
-95.830	-200.000	0.077	0.648
-94.816	297.985	0.087	-0.160
-93.801	73.897	0.079	-0.083
-92.786	4.775	-0.327	0.240
-91.772	-62.556	0.108	0.045
-90.757	800.000	-0.095	-0.279
-89.743	-200.000	0.015	0.094
-88.728	-66.745	0.061	0.024
-87.713	-200.000	-0.015	0.275
-86.699	-118.971	0.073	-0.013
-85.684	351.286	0.129	0.255
-84.670	-77.857	-0.258	-0.089
-83.655	800.000	0.009	0.027
-82.640	656.806	0.059	0.150
-81.626	117.823	-0.100	-0.122
-80.611	-45.209	-0.077	-0.038
-79.597	-200.000	0.012	0.326
-78.582	-129.779	-0.156	0.021
-77.567	-102.764	0.172	0.041
-76.553	-200.000	-0.004	-0.115
-75.538	-48.341	0.163	0.079
-74.524	-90.348	0.111	-0.032
-73.509	-34.136	-0.062	0.034
-72.494	-67.544	0.137	-0.054
-71.480	-12.350	0.151	-0.098
-70.465	-36.746	0.039	-0.021
-69.451	-158.574	0.263	-0.015
-68.436	241.868	-0.063	0.106
-67.422	41.220	-0.016	-0.014
-66.407	38.885	-0.217	-0.194
-65.392	279.846	-0.096	0.171
-64.378	98.959	0.258	-0.298
-63.363	34.415	-0.157	-0.137
-62.349	545.674	0.193	0.462
-61.334	129.227	-0.765	-0.975
-60.319	-200.000	0.007	0.162
-59.305	-200.000	-0.124	-0.882
-58.290	-200.000	0.047	0.764
-57.276	407.694	0.698	1.472
-56.261	-200.000	76.206	526.546
-55.246	533.614	1322.778	3127.331
-54.232	144.415	2558.615	3409.551
-53.217	109.965	2383.240	2853.877
-52.203	48.762	2121.725	1986.068
-51.188	43.494	2027.868	1850.072
-50.173	41.726	2009.034	1816.765
-49.159	54.165	2046.715	1964.994
-48.144	58.848	2066.529	2026.821
-47.130	44.479	2031.575	1862.186
-46.115	41.692	2020.113	1826.183
-45.100	41.538	2016.961	1821.848
-44.086	41.509	2014.786	1819.549
-43.071	41.508	2012.144	1817.080
-42.057	41.474	2010.138	1814.894
-41.042	41.530	2008.184	1813.565
-40.027	41.539	2006.188	1811.772
-39.013	41.521	2004.377	1809.904
-37.998	41.542	2002.230	1808.079
-36.984	41.604	2000.390	1806.905
-35.969	41.614	1998.661	1805.365
-34.954	41.616	1997.007	1803.813
-33.940	41.507	1995.896	1801.755
-32.925	41.573	1993.504	1800.123
-31.911	41.677	1991.921	1799.554
-30.896	41.686	1990.264	1798.069
-29.881	41.563	1988.920	1795.676
-28.867	41.651	1987.341	1794.969
-27.852	41.761	1985.040	1793.809
-26.838	41.719	1983.108	1791.619
-25.823	41.665	1981.331	1789.460
-24.809	41.685	1979.731	1788.117
-23.794	41.763	1977.693	1786.901
-22.779	41.727	1976.750	1785.660
-21.765	41.675	1974.726	1783.292
-20.750	41.614	1972.980	1781.105
-19.736	41.623	1971.672	1779.931
-18.721	41.655	1969.406	1778.098
-17.706	41.658	1967.761	1776.570
-16.692	41.701	1965.941	1775.246
-15.677	41.665	1964.721	1773.748
-14.663	41.608	1963.702	1772.252
-13.648	41.634	1962.199	1771.059
-12.633	41.666	1960.612	1769.842
-11.619	41.665	1959.747	1768.976
-10.604	41.629	1958.041	1767.046
-9.590	41.648	1956.766	1765.993
-8.575	41.708	1955.251	1765.086
-7.560	41.654	1953.648	1763.097
-6.546	41.700	1952.430	1762.331
-5.531	41.672	1951.310	1761.002
-4.517	41.601	1949.874	1759.016
-3.502	41.598	1949.006	1758.133
-2.487	41.646	1947.595	1757.217
-1.473	41.688	1946.201	1756.258
-0.458	41.651	1942.106	1752.166
0.556	38.801	1921.816	1722.228
1.571	33.884	1898.993	1658.828
2.586	28.921	1917.983	1631.365
3.600	27.253	1954.384	1647.089
4.615	26.253	1951.732	1635.656
5.629	23.101	1857.444	1529.298
6.644	17.885	1743.285	1392.739
7.659	14.751	1705.141	1337.097
8.673	14.442	1701.518	1331.665
9.688	14.327	1700.417	1329.771
10.702	14.337	1698.018	1327.852
11.717	14.154	1696.056	1324.747
12.731	14.594	1694.111	1326.604
13.746	17.996	1702.459	1360.162
14.761	20.649	1707.077	1384.876
15.775	19.127	1700.735	1367.529
16.790	17.073	1695.341	1346.792
17.804	15.838	1691.904	1334.157
18.819	14.790	1688.366	1322.959
19.834	14.218	1685.459	1316.041
20.848	13.687	1684.228	1310.771
21.863	13.429	1682.336	1307.144
22.877	13.115	1680.594	1303.197
23.892	12.947	1679.470	1300.885
24.907	12.760	1678.470	1298.519
25.921	12.900	1676.965	1298.339
26.936	12.799	1676.633	1297.180
27.950	12.870	1675.433	1296.689
28.965	12.911	1674.705	1296.337
29.980	13.008	1673.716	1296.216
30.994	12.995	1672.585	1295.125
32.009	13.038	1671.627	1294.604
33.023	13.105	1670.138	1293.865
34.038	13.144	1669.857	1293.835
35.053	13.084	1668.257	1292.010
36.067	13.089	1667.135	1291.068
37.082	13.028	1666.216	1289.763
38.096	13.023	1665.182	1288.812
39.111	12.963	1664.339	1287.579
40.126	13.138	1663.365	1288.075
41.140	13.074	1662.152	1286.524
42.155	12.975	1660.911	1284.674
43.169	12.846	1659.460	1282.441
44.184	12.789	1658.447	1281.098
45.199	12.756	1657.223	1279.782
46.213	12.815	1655.920	1279.124
47.228	12.867	1654.484	1278.306
48.242	12.918	1653.705	1277.979
49.257	12.936	1652.259	1276.889
50.271	12.970	1651.246	1276.261
51.286	12.895	1650.560	1275.032
52.301	12.941	1648.904	1273.998
53.315	12.941	1647.737	1272.983
54.330	12.956	1645.923	1271.586
55.344	12.906	1644.260	1269.803
56.359	12.872	1643.013	1268.469
57.374	12.837	1641.762	1267.123
58.388	12.873	1640.428	1266.253
59.403	12.861	1639.143	1265.057
60.417	12.754	1638.023	1263.265
61.432	12.801	1636.569	1262.386
62.447	12.774	1635.359	1261.135
63.461	12.779	1634.298	1260.241
64.476	12.725	1633.138	1258.828
65.490	12.708	1632.485	1258.079
66.505	12.709	1630.878	1256.743
67.520	12.693	1630.125	1255.926
68.534	12.723	1629.069	1255.233
69.549	12.747	1628.212	1254.645
70.563	12.936	1626.252	1254.457
71.578	12.823	1625.523	1252.924
72.593	12.745	1624.496	1251.431
73.607	12.745	1623.213	1250.335
74.622	12.680	1622.522	1249.194
75.636	12.597	1621.659	1247.792
76.651	12.715	1620.373	1247.588
77.666	12.625	1619.910	1246.433
78.680	12.711	1619.168	1246.403
79.695	12.700	1617.608	1245.016
80.709	12.728	1617.422	1244.970
81.724	12.719	1616.502	1244.087
82.739	12.796	1615.883	1244.080
83.753	12.800	1614.994	1243.315
84.768	12.893	1614.010	1243.145
85.782	12.927	1613.116	1242.605
86.797	12.905	1613.098	1242.314
87.812	13.003	1611.159	1241.453
88.826	12.962	1609.640	1239.860
89.841	12.927	1608.672	1238.740
90.855	12.950	1607.466	1237.877
91.870	13.000	1606.632	1237.500
92.884	13.004	1605.426	1236.496
93.899	12.988	1604.740	1235.734
94.914	13.014	1603.630	1234.963
95.928	13.076	1602.258	1234.264
96.943	13.098	1600.900	1233.270
97.957	13.096	1599.103	1231.761
98.972	12.990	1597.972	1229.996
99.987	12.915	1596.926	1228.522
101.001	12.962	1595.031	1227.302
102.016	12.984	1593.460	1226.153
103.030	13.025	1592.220	1225.394
104.045	13.060	1591.088	1224.670
105.060	12.935	1589.951	1222.760
106.074	12.925	1588.401	1221.388
107.089	12.929	1586.594	1219.923
108.103	12.838	1585.432	1218.247
109.118	12.797	1583.821	1216.594
110.133	12.801	1582.318	1215.366
111.147	12.819	1580.963	1214.350
112.162	12.792	1579.465	1212.890
113.176	12.835	1578.256	1212.171
114.191	12.909	1576.832	1211.516
115.206	12.890	1575.598	1210.319
116.220	12.876	1574.952	1209.618
117.235	12.805	1573.735	1208.051
118.249	12.843	1571.904	1206.820
119.264	12.815	1570.081	1205.110
120.279	12.800	1569.395	1204.366
121.293	12.825	1568.088	1203.435
122.308	12.865	1566.852	1202.677
123.322	12.838	1564.841	1200.826
124.337	12.826	1563.625	1199.704
125.352	12.817	1562.004	1198.287
126.366	12.811	1560.998	1197.366
127.381	12.839	1560.207	1196.858
128.395	12.843	1559.193	1195.998
129.410	12.763	1558.073	1194.455
130.424	12.852	1556.652	1193.905
131.439	12.885	1555.023	1192.788
132.454	12.870	1553.874	1191.693
133.468	12.979	1552.186	1191.080
134.483	13.044	1550.859	1190.422
135.497	12.920	1549.909	1188.695
136.512	12.898	1548.185	1187.115
137.527	12.951	1546.989	1186.470
138.541	12.872	1545.841	1184.920
139.556	13.045	1543.969	1184.618
140.570	12.953	1542.781	1182.940
141.585	13.104	1541.436	1182.886
142.600	13.070	1540.657	1181.945
143.614	13.198	1539.079	1181.545
144.629	13.142	1537.651	1179.945
145.643	13.212	1536.168	1179.201
146.658	13.229	1535.069	1178.375
147.673	13.184	1533.248	1176.552
148.687	13.119	1531.785	1174.860
149.702	13.081	1530.362	1173.399
150.716	13.039	1528.574	1171.620
151.731	13.021	1527.189	1170.334
152.746	13.042	1526.105	1169.544
153.760	13.071	1524.579	1168.476
154.775	13.054	1523.510	1167.438
155.789	13.090	1522.200	1166.583
156.804	13.067	1521.333	1165.649
157.819	13.054	1520.041	1164.467
158.833	13.175	1519.070	1164.471
159.848	13.232	1517.517	1163.578
160.862	13.253	1516.340	1162.725
161.877	13.200	1515.257	1161.419
162.892	13.193	1514.078	1160.362
163.906	13.080	1513.087	1158.705
164.921	13.119	1511.891	1157.964
165.935	13.049	1510.586	1156.373
166.950	13.126	1509.204	1155.745
167.964	13.238	1508.443	1155.845
168.979	13.186	1507.384	1154.569
169.994	13.195	1506.081	1153.529
171.008	13.238	1504.877	1152.807
172.023	13.246	1503.794	1151.930
173.037	13.192	1502.704	1150.615
174.052	13.285	1501.609	1150.327
175.067	13.377	1500.848	1150.278
176.081	13.337	1499.273	1148.696
177.096	13.330	1497.804	1147.417
178.110	13.190	1496.675	1145.481
179.125	13.273	1495.381	1144.962
180.140	13.330	1494.275	1144.408
181.154	13.309	1493.477	1143.554
182.169	13.347	1492.494	1142.961
183.183	13.330	1491.057	1141.643
184.198	13.485	1489.672	1141.551
185.213	13.431	1489.160	1140.682
186.227	13.383	1487.925	1139.307
187.242	13.562	1486.594	1139.417
188.256	13.544	1485.300	1138.205
189.271	13.454	1484.876	1137.156
190.286	13.532	1483.861	1136.815
191.300	13.492	1482.706	1135.556
192.315	13.381	1481.184	1133.528
193.329	13.285	1479.623	1131.579
194.344	13.293	1478.531	1130.698
195.359	13.417	1478.173	1131.171
196.373	13.380	1476.787	1129.761
197.388	13.318	1476.235	1128.811
198.402	13.472	1475.290	1129.038
199.417	13.585	1473.390	1128.253
200.432	13.652	1472.286	1127.768
201.446	13.686	1471.843	1127.555
202.461	13.698	1470.549	1126.548
203.475	13.684	1469.629	1125.653
204.490	13.792	1468.311	1125.276
205.504	13.741	1467.116	1123.909
206.519	13.805	1466.028	1123.414
207.534	13.685	1465.325	1121.961
208.548	13.678	1464.296	1121.026
209.563	13.726	1462.690	1120.020
210.577	13.694	1461.712	1118.961
211.592	13.620	1461.242	1117.998
212.607	13.702	1460.548	1117.923
213.621	13.816	1459.827	1118.038
214.636	13.889	1458.925	1117.740
215.650	13.796	1457.789	1116.148
216.665	13.882	1456.823	1115.889
217.680	13.882	1455.947	1115.120
218.694	13.902	1455.439	1114.766
219.709	13.992	1454.294	1114.393
220.723	13.988	1453.330	1113.528
221.738	13.945	1452.656	1112.626
222.753	13.919	1451.664	1111.593
223.767	13.946	1450.845	1111.047
224.782	13.990	1449.564	1110.262
225.796	13.997	1448.903	1109.705
226.811	14.041	1448.068	1109.259
227.826	13.989	1447.543	1108.413
228.840	14.004	1446.414	1107.553
229.855	14.101	1445.137	1107.122
230.869	14.046	1444.286	1106.006
231.884	14.090	1443.023	1105.236
232.899	14.062	1441.799	1104.014
233.913	13.952	1441.349	1102.840
234.928	13.952	1439.865	1101.609
235.942	13.902	1438.665	1100.261
236.957	13.957	1437.252	1099.446
237.972	13.989	1436.186	1098.743
238.986	13.935	1435.183	1097.523
240.001	13.961	1434.173	1096.823
241.015	13.988	1433.263	1096.207
242.030	14.059	1432.081	1095.677
243.045	14.086	1430.709	1094.709
244.059	14.058	1430.266	1094.088
245.074	14.272	1428.311	1093.903
246.088	14.182	1428.324	1093.225
247.103	14.154	1428.079	1092.753
248.117	14.183	1427.040	1092.053
249.132	14.195	1426.260	1091.437
250.147	14.236	1425.702	1091.182
251.161	14.361	1424.942	1091.328
252.176	14.408	1424.481	1091.184
253.190	14.480	1423.809	1091.045
254.205	14.513	1422.600	1090.237
255.220	14.459	1422.114	1089.416
256.234	14.536	1420.884	1088.879
257.249	14.495	1420.548	1088.258
258.263	14.548	1419.488	1087.691
259.278	14.569	1418.084	1086.661
260.293	14.615	1417.102	1086.109
261.307	14.598	1416.469	1085.420
262.322	14.596	1415.792	1084.792
263.336	14.705	1414.885	1084.710
264.351	14.639	1413.927	1083.452
265.366	14.682	1413.214	1083.084
266.380	14.688	1412.455	1082.444
267.395	14.740	1411.359	1081.847
268.409	14.683	1410.676	1080.863
269.424	14.803	1409.159	1080.375
270.439	14.683	1408.067	1078.669
271.453	14.702	1407.335	1078.135
272.468	14.791	1406.306	1077.824
273.482	14.591	1406.055	1076.246
274.497	14.671	1404.822	1075.724
275.512	14.711	1403.733	1075.056
276.526	14.730	1402.945	1074.477
277.541	14.766	1401.852	1073.778
278.555	14.732	1401.079	1072.870
279.570	14.737	1400.502	1072.364
280.585	14.785	1399.426	1071.757
281.599	14.792	1398.023	1070.629
282.614	14.896	1397.462	1070.773
283.628	14.780	1396.875	1069.484
284.643	14.792	1395.193	1068.181
285.657	14.901	1394.231	1068.044
286.672	14.889	1393.082	1066.992
287.687	14.971	1391.933	1066.541
288.701	14.855	1391.512	1065.384
289.716	14.950	1390.752	1065.314
290.730	14.937	1389.867	1064.459
291.745	14.969	1388.399	1063.446
292.760	14.944	1387.786	1062.720
293.774	14.928	1387.065	1061.977
294.789	14.944	1386.004	1061.171
295.803	15.012	1385.041	1060.768
296.818	15.111	1384.283	1060.723
297.833	15.063	1383.505	1059.728
298.847	15.007	1382.569	1058.562
299.862	15.070	1381.421	1057.987
300.876	15.015	1380.539	1056.871
301.891	15.108	1379.486	1056.562
302.906	15.040	1378.615	1055.370
303.920	15.237	1377.742	1055.853
304.935	15.127	1377.389	1054.795
305.949	15.131	1376.497	1054.043
306.964	15.355	1375.551	1054.633
307.979	15.353	1374.529	1053.745
308.993	15.383	1373.045	1052.698
310.008	15.315	1372.154	1051.500
311.022	15.266	1371.995	1050.978
312.037	15.305	1370.631	1050.084
313.052	15.401	1369.682	1049.864
314.066	15.289	1368.878	1048.455
315.081	15.327	1367.589	1047.611
316.095	15.225	1366.656	1046.168
317.110	15.235	1365.418	1045.192
318.125	15.249	1364.659	1044.604
319.139	15.290	1363.720	1044.045
320.154	15.311	1362.778	1043.363
321.168	15.322	1361.907	1042.672
322.183	15.377	1360.549	1041.880
323.197	15.265	1360.317	1040.919
324.212	15.388	1359.156	1040.701
325.227	15.390	1358.259	1039.934
326.241	15.457	1357.287	1039.512
327.256	15.394	1356.484	1038.416
328.270	15.397	1355.710	1037.747
329.285	15.394	1354.389	1036.628
330.300	15.360	1353.957	1035.997
331.314	15.392	1353.016	1035.382
332.329	15.432	1352.028	1034.783
333.343	15.444	1351.290	1034.197
334.358	15.530	1350.205	1033.804
335.373	15.457	1349.922	1033.048
336.387	15.530	1348.651	1032.431
337.402	15.626	1347.759	1032.249
338.416	15.531	1347.525	1031.394
339.431	15.540	1346.815	1030.815
340.446	15.699	1345.688	1030.836
341.460	15.662	1344.788	1029.828
342.475	15.782	1343.698	1029.639
343.489	15.802	1343.299	1029.365
344.504	15.794	1341.841	1028.104
345.519	15.792	1341.340	1027.617
346.533	15.832	1340.626	1027.223
347.548	15.838	1339.804	1026.543
348.562	15.930	1338.562	1026.057
349.577	15.902	1338.223	1025.537
350.592	15.911	1336.993	1024.559
351.606	15.818	1336.627	1023.624
352.621	15.836	1335.241	1022.579
353.635	15.755	1334.287	1021.269
354.650	15.869	1333.266	1021.089
355.665	15.779	1332.376	1019.769
356.679	15.822	1331.130	1018.984
357.694	15.801	1330.103	1017.984
358.708	15.911	1329.035	1017.742
359.723	15.957	1328.166	1017.261
360.738	15.962	1327.046	1016.346
361.752	15.989	1325.804	1015.464
362.767	16.021	1324.590	1014.641
363.781	15.933	1324.071	1013.619
364.796	15.864	1323.752	1012.874
365.810	15.972	1322.913	1012.788
366.825	16.093	1321.943	1012.688
367.840	16.127	1321.330	1012.329
368.854	16.117	1320.461	1011.512
369.869	16.115	1320.023	1011.077
370.883	16.182	1319.424	1010.934
371.898	16.185	1318.650	1010.264
372.913	16.104	1318.054	1009.239
373.927	16.189	1317.069	1008.902
374.942	16.136	1316.069	1007.731
375.956	16.195	1315.330	1007.429
376.971	16.267	1314.633	1007.231
377.986	16.187	1313.961	1006.153
379.000	16.168	1313.268	1005.418
380.015	16.323	1312.303	1005.516
381.029	16.356	1311.530	1005.029
382.044	16.384	1310.819	1004.561
383.059	16.478	1309.922	1004.345
384.073	16.326	1309.644	1003.139
385.088	16.371	1308.884	1002.737
386.102	16.434	1307.844	1002.223
387.117	16.475	1307.294	1001.956
388.132	16.512	1306.251	1001.285
389.146	16.409	1305.639	1000.119
390.161	16.463	1304.561	999.526
391.175	16.439	1303.981	998.848
392.190	16.412	1303.308	998.087
393.205	16.501	1302.371	997.809
394.219	16.487	1301.365	996.867
395.234	16.524	1300.457	996.300
396.248	16.498	1298.730	994.732
397.263	16.610	1297.266	994.182
398.278	16.630	1295.765	993.065
399.292	16.480	1295.214	991.671
400.307	16.435	1294.252	990.588
401.321	16.470	1293.120	989.835
402.336	16.518	1292.040	989.203
403.350	16.527	1291.073	988.424
404.365	16.534	1290.048	987.596
405.380	16.429	1289.601	986.551
406.394	16.525	1288.414	986.116
407.409	16.627	1287.747	986.112
408.423	16.675	1287.172	985.867
409.438	16.734	1286.293	985.449
410.453	16.761	1285.880	985.203
411.467	16.756	1285.194	984.562
412.482	16.722	1284.741	983.926
413.496	16.908	1283.894	984.274
414.511	16.747	1283.579	983.008
415.526	16.916	1282.649	983.193
416.540	16.901	1281.636	982.241
417.555	16.929	1281.168	981.955
418.569	16.917	1280.615	981.377
419.584	16.949	1280.051	981.042
420.599	16.967	1279.612	980.724
421.613	77.448	1322.600	1361.449
422.628	76.330	1328.849	1361.583
