DTS Sentinel unit serial number:	SN413079Multiplexer serial number:	ORYXHardware model number:	OX4-SRSoftware version number:	ORYX F/W v4.00 Oryx Data Collector v3.7.2.0data status	okinstallation	princeton_trtdifferential loss correction	single-endedforward channel	channel 4reverse channel	N/Adate	2019/09/13time	09:37:35forward acquisition time	60.00reverse acquisition time	0.00gamma	496.2192k internal	0.2311k external	0.2311temperature offset calibration	1.0193default loss term (dB/km)	0.3790temperature slope calibration	1.0000multiplexer offset coefficient	1.0000multiplexer slope coefficient	1.0000fibre end	0.00T internal ref (°C)	29.62T ext. ref 1 (°C)	4.43T ext. ref 2 (°C)	26.03length (m)	temperature (°C)	Stokes	anti-Stokes-747.200	-200.000	-0.083	-0.390
-746.185	197.612	0.024	0.037
-745.171	-43.875	0.061	0.031
-744.156	725.715	-0.148	0.399
-743.142	-36.090	0.296	-0.162
-742.127	73.514	-0.207	0.220
-741.112	60.339	0.122	-0.123
-740.098	126.195	0.109	0.140
-739.083	27.926	-0.275	-0.235
-738.069	15.433	0.085	0.068
-737.054	-200.000	-0.020	-0.604
-736.039	-92.808	0.091	-0.026
-735.025	800.000	0.056	-0.171
-734.010	-45.026	0.173	0.087
-732.996	11.615	-0.204	0.159
-731.981	67.311	0.138	-0.143
-730.966	-158.344	0.124	0.007
-729.952	-102.469	-0.201	-0.049
-728.937	86.140	0.228	-0.254
-727.923	800.000	-0.048	-0.186
-726.908	-79.428	-0.077	-0.026
-725.894	-115.515	-0.340	0.065
-724.879	-7.430	-0.194	-0.133
-723.864	280.949	-0.054	0.099
-722.850	-155.195	0.285	-0.019
-721.835	-200.000	0.001	0.263
-720.821	251.326	-0.218	-0.376
-719.806	800.000	-0.044	-0.132
-718.791	-37.751	-0.061	0.033
-717.777	163.769	-0.124	-0.177
-716.762	305.884	0.110	-0.208
-715.748	34.153	-0.097	-0.086
-714.733	76.216	0.021	-0.023
-713.718	-200.000	0.041	-0.224
-712.704	710.374	-0.078	0.209
-711.689	-200.000	-0.043	-0.246
-710.675	-43.121	0.162	0.083
-709.660	113.779	-0.078	-0.095
-708.645	-200.000	0.025	-0.274
-707.631	-138.225	0.358	0.040
-706.616	110.868	0.111	0.136
-705.602	-42.942	-0.196	0.101
-704.587	-91.047	-0.235	0.068
-703.572	800.000	0.048	0.177
-702.558	-7.167	-0.333	-0.229
-701.543	-66.367	0.140	0.057
-700.529	-200.000	0.001	0.003
-699.514	-38.259	0.108	0.058
-698.499	25.859	0.129	-0.109
-697.485	-22.624	0.103	-0.063
-696.470	-49.260	0.182	-0.088
-695.456	-94.706	0.155	0.043
-694.441	224.008	0.083	-0.135
-693.426	-58.303	-0.308	0.136
-692.412	83.067	-0.230	-0.253
-691.397	198.645	-0.026	-0.041
-690.383	209.367	0.127	-0.201
-689.368	-75.309	0.186	0.067
-688.354	-175.531	0.172	-0.005
-687.339	25.525	0.070	0.059
-686.324	-23.979	-0.097	-0.059
-685.310	-90.721	0.423	0.124
-684.295	-83.176	0.186	0.061
-683.281	321.147	0.221	-0.425
-682.266	76.383	0.138	0.148
-681.251	79.106	0.196	0.213
-680.237	800.000	-0.056	0.240
-679.222	-108.524	-0.135	-0.029
-678.208	-137.954	0.104	-0.012
-677.193	-154.553	-0.051	-0.003
-676.178	-116.006	-0.131	0.025
-675.164	-200.000	-0.015	0.218
-674.149	24.382	-0.096	0.080
-673.135	34.809	-0.107	-0.095
-672.120	-86.463	-0.077	-0.024
-671.105	80.454	-0.061	-0.067
-670.091	-109.975	-0.306	0.065
-669.076	-145.360	-0.318	0.029
-668.062	111.620	-0.212	-0.259
-667.047	-22.393	0.173	0.106
-666.032	-20.115	-0.325	0.203
-665.018	157.819	0.183	0.257
-664.003	73.435	0.041	-0.044
-662.989	72.864	-0.089	-0.094
-661.974	213.794	-0.098	0.157
-660.959	41.547	0.162	-0.148
-659.945	-38.254	-0.052	-0.028
-658.930	-200.000	-0.082	0.394
-657.916	-55.262	0.234	0.106
-656.901	225.021	0.018	-0.030
-655.886	66.884	-0.140	-0.144
-654.872	-200.000	0.043	0.301
-653.857	122.600	0.172	-0.217
-652.843	37.284	0.098	-0.088
-651.828	-118.714	-0.062	0.011
-650.814	-79.804	0.199	-0.068
-649.799	15.845	0.248	0.197
-648.784	-63.080	-0.319	0.133
-647.770	-73.064	-0.300	0.111
-646.755	-21.331	-0.024	-0.015
-645.741	-120.130	-0.233	0.040
-644.726	84.047	-0.142	-0.157
-643.711	-29.492	0.113	0.065
-642.697	-113.277	-0.121	0.024
-641.682	-61.866	0.515	-0.218
-640.668	-107.907	-0.222	-0.049
-639.653	800.000	0.028	-0.108
-638.638	2.108	0.172	-0.125
-637.624	-3.978	-0.134	0.094
-636.609	35.828	0.291	0.259
-635.595	-200.000	-0.041	-0.202
-634.580	-63.498	-0.313	-0.130
-633.565	-135.323	-0.381	0.046
-632.551	-52.288	0.341	-0.160
-631.536	90.065	0.252	-0.284
-630.522	521.875	-0.174	-0.413
-629.507	153.031	0.109	-0.151
-628.492	-200.000	-0.031	0.161
-627.478	-12.752	0.181	-0.119
-626.463	19.008	0.262	0.212
-625.449	800.000	0.091	-0.325
-624.434	-7.144	-0.089	-0.061
-623.419	-200.000	0.025	0.127
-622.405	45.968	0.094	0.088
-621.390	800.000	-0.125	-0.351
-620.376	-94.748	0.213	0.058
-619.361	-121.234	-0.230	0.039
-618.346	-119.587	0.131	-0.023
-617.332	800.000	-0.076	-0.270
-616.317	-146.289	-0.215	-0.019
-615.303	-22.509	-0.127	0.078
-614.288	18.890	-0.185	0.149
-613.273	-93.215	-0.227	-0.064
-612.259	-200.000	0.004	-0.062
-611.244	-200.000	0.016	-0.211
-610.230	-139.374	0.209	0.023
-609.215	-28.151	0.069	-0.040
-608.201	-8.989	-0.176	0.119
-607.186	-134.851	-0.253	-0.031
-606.171	204.785	-0.312	0.489
-605.157	28.666	-0.053	-0.045
-604.142	-56.849	0.160	-0.071
-603.128	-63.502	-0.351	-0.145
-602.113	43.250	-0.259	0.239
-601.098	-35.665	0.200	-0.109
-600.084	176.697	0.022	-0.032
-599.069	-137.503	-0.303	0.035
-598.055	-75.670	-0.061	0.022
-597.040	43.547	0.120	0.111
-596.025	184.201	0.191	0.285
-595.011	-48.902	-0.209	-0.101
-593.996	79.356	0.173	-0.187
-592.982	47.720	0.220	0.207
-591.967	598.064	-0.028	-0.070
-590.952	252.423	-0.077	0.133
-589.938	-60.732	-0.265	0.113
-588.923	720.781	-0.115	-0.309
-587.909	-135.804	0.232	-0.028
-586.894	-200.000	-0.017	-0.106
-585.879	-200.000	-0.019	0.139
-584.865	800.000	-0.055	0.197
-583.850	286.691	-0.071	-0.129
-582.836	275.283	0.159	-0.284
-581.821	-73.610	0.279	-0.103
-580.806	-117.451	-0.073	-0.013
-579.792	-132.787	-0.036	-0.005
-578.777	-40.408	0.409	-0.214
-577.763	-30.559	-0.238	0.136
-576.748	131.733	0.287	0.372
-575.733	66.577	0.184	-0.189
-574.719	31.653	0.369	-0.320
-573.704	72.771	0.081	-0.085
-572.690	292.673	0.051	0.094
-571.675	15.097	-0.145	0.115
-570.661	-22.100	0.194	-0.119
-569.646	141.234	0.200	-0.267
-568.631	-200.000	0.003	-0.389
-567.617	-135.901	-0.185	-0.022
-566.602	-62.303	-0.250	-0.105
-565.588	-146.496	-0.107	-0.009
-564.573	344.545	-0.163	-0.322
-563.558	800.000	0.183	-0.539
-562.544	800.000	-0.025	-0.074
-561.529	-200.000	-0.019	0.121
-560.515	-85.512	0.319	-0.100
-559.500	-56.890	-0.124	0.055
-558.485	800.000	-0.030	0.132
-557.471	-200.000	-0.022	-0.335
-556.456	-48.919	-0.123	0.060
-555.442	0.146	-0.145	-0.104
-554.427	73.422	0.103	0.108
-553.412	-156.592	-0.077	-0.005
-552.398	-155.550	0.231	-0.015
-551.383	30.214	-0.244	-0.209
-550.369	-200.000	-0.085	0.629
-549.354	800.000	-0.085	-0.297
-548.339	-140.606	0.520	-0.054
-547.325	43.606	0.281	0.259
-546.310	-39.412	0.192	0.101
-545.296	-192.371	-0.042	0.000
-544.281	225.005	-0.104	0.170
-543.266	-37.057	0.101	0.054
-542.252	264.893	0.040	0.070
-541.237	55.199	-0.283	0.276
-540.223	800.000	-0.110	0.335
-539.208	51.640	0.075	-0.072
-538.193	587.535	-0.036	-0.090
-537.179	-200.000	-0.023	-0.307
-536.164	-19.157	0.325	0.203
-535.150	82.910	-0.153	0.167
-534.135	-177.054	0.505	-0.013
-533.121	361.920	-0.076	-0.154
-532.106	-122.783	0.149	-0.024
-531.091	800.000	0.084	-0.309
-530.077	-200.000	-0.507	0.001
-529.062	-16.079	-0.232	-0.149
-528.048	-198.444	0.204	-0.001
-527.033	41.427	-0.204	0.185
-526.018	205.079	0.111	0.173
-525.004	33.122	0.221	0.193
-523.989	-186.271	-0.245	0.004
-522.975	800.000	-0.045	-0.163
-521.960	-146.396	0.314	0.028
-520.945	800.000	-0.024	-0.094
-519.931	344.902	0.107	-0.211
-518.916	-149.116	0.196	-0.016
-517.902	-200.000	0.025	-0.137
-516.887	30.157	-0.155	-0.133
-515.872	-88.509	0.072	-0.022
-514.858	22.457	0.279	-0.230
-513.843	18.796	0.055	-0.044
-512.829	-200.000	-0.012	-0.174
-511.814	487.050	-0.142	0.325
-510.799	573.555	0.123	0.302
-509.785	-200.000	-0.004	0.107
-508.770	-200.000	0.044	0.198
-507.756	-64.892	-0.103	-0.042
-506.741	-122.756	-0.209	0.034
-505.726	-116.637	0.146	0.027
-504.712	-200.000	-0.077	0.501
-503.697	-96.298	-0.197	-0.053
-502.683	-55.276	-0.091	0.041
-501.668	-188.124	0.151	0.002
-500.653	-135.172	0.191	-0.023
-499.639	174.346	0.068	0.099
-498.624	147.602	0.279	0.378
-497.610	-200.000	-0.015	-0.165
-496.595	-82.944	0.064	-0.021
-495.581	129.832	-0.111	-0.142
-494.566	-15.138	0.368	0.237
-493.551	-113.174	-0.093	-0.018
-492.537	-167.954	0.080	-0.003
-491.522	-90.183	0.008	-0.002
-490.508	30.596	0.244	-0.209
-489.493	70.352	0.153	0.159
-488.478	-10.344	-0.101	-0.067
-487.464	-89.748	-0.105	0.031
-486.449	36.927	-0.206	-0.184
-485.435	-200.000	-0.046	0.380
-484.420	3.567	0.098	0.072
-483.405	135.693	-0.151	-0.198
-482.391	507.079	-0.083	0.194
-481.376	-63.975	0.072	0.030
-480.362	253.193	0.052	-0.089
-479.347	-200.000	0.020	-0.132
-478.332	-200.000	-0.018	-0.380
-477.318	364.465	0.010	0.019
-476.303	-109.290	0.105	-0.022
-475.289	344.391	-0.037	-0.073
-474.274	-200.000	0.046	0.481
-473.259	71.100	0.157	-0.164
-472.245	-200.000	0.008	-0.046
-471.230	-144.853	0.293	-0.027
-470.216	-110.518	-0.164	0.034
-469.201	248.303	-0.009	0.016
-468.186	692.434	0.012	0.030
-467.172	-18.421	-0.337	0.211
-466.157	26.937	0.070	-0.059
-465.143	-200.000	-0.046	0.342
-464.128	233.140	-0.041	0.068
-463.113	207.222	0.149	-0.233
-462.099	0.454	0.134	0.096
-461.084	-147.949	-0.167	-0.014
-460.070	-32.240	-0.185	0.104
-459.055	-200.000	0.066	0.328
-458.040	-94.893	-0.276	0.075
-457.026	-33.822	-0.413	0.229
-456.011	63.511	0.247	0.248
-454.997	738.304	0.078	-0.211
-453.982	75.333	-0.150	0.159
-452.968	183.279	0.163	-0.242
-451.953	-127.968	0.241	-0.035
-450.938	-38.701	0.096	-0.051
-449.924	800.000	-0.142	0.425
-448.909	694.845	-0.042	0.112
-447.895	800.000	-0.061	0.268
-446.880	-200.000	0.053	-0.485
-445.865	-101.480	0.105	-0.026
-444.851	635.636	-0.077	0.196
-443.836	305.715	-0.159	0.297
-442.822	28.835	-0.218	-0.186
-441.807	80.294	-0.125	-0.135
-440.792	800.000	0.033	0.103
-439.778	-200.000	0.055	-0.366
-438.763	-136.349	-0.093	0.011
-437.749	269.987	0.030	-0.052
-436.734	-119.963	0.130	0.022
-435.719	800.000	-0.042	-0.173
-434.705	119.220	-0.093	0.116
-433.690	64.029	0.027	-0.027
-432.676	-110.047	-0.251	-0.053
-431.661	43.274	-0.158	0.144
-430.646	-134.293	-0.242	0.030
-429.632	-81.409	-0.196	0.065
-428.617	-200.000	0.086	0.409
-427.603	800.000	0.054	0.193
-426.588	-36.977	-0.167	-0.090
-425.573	60.181	0.143	-0.142
-424.559	-147.046	0.107	0.009
-423.544	437.974	-0.059	0.130
-422.530	-82.428	-0.269	-0.088
-421.515	-200.000	0.038	0.263
-420.500	-62.067	-0.237	-0.099
-419.486	168.144	0.090	0.128
-418.471	-41.949	-0.136	0.070
-417.457	63.820	-0.200	0.201
-416.442	-0.743	-0.151	0.107
-415.428	-85.681	-0.262	-0.081
-414.413	-93.093	0.251	0.070
-413.398	-73.637	0.223	0.082
-412.384	568.835	-0.048	0.117
-411.369	14.996	0.165	-0.129
-410.355	-200.000	-0.001	-0.201
-409.340	-126.082	-0.166	0.025
-408.325	701.205	0.146	-0.385
-407.311	282.823	-0.165	-0.297
-406.296	-85.221	0.110	0.034
-405.282	-35.535	0.215	-0.117
-404.267	-100.783	-0.290	0.072
-403.252	-25.966	0.073	0.043
-402.238	-16.044	-0.173	0.110
-401.223	-81.061	0.228	-0.075
-400.209	-96.149	-0.249	0.066
-399.194	-78.520	0.237	0.081
-398.179	-126.955	0.172	-0.025
-397.165	-149.793	0.241	-0.019
-396.150	400.854	-0.046	-0.098
-395.136	-200.000	0.029	0.213
-394.121	115.156	-0.206	-0.252
-393.106	-33.464	-0.139	0.077
-392.092	81.693	-0.059	-0.064
-391.077	800.000	-0.044	-0.176
-390.063	36.625	0.219	-0.194
-389.048	-53.207	-0.111	-0.051
-388.033	-200.000	-0.033	0.242
-387.019	-139.652	0.299	0.032
-386.004	800.000	-0.051	0.183
-384.990	-116.599	0.260	-0.048
-383.975	93.020	0.101	0.114
-382.960	-41.105	0.417	-0.215
-381.946	-85.270	-0.036	-0.011
-380.931	180.589	-0.115	-0.168
-379.917	57.477	-0.215	0.210
-378.902	476.002	0.057	-0.128
-377.888	-65.476	-0.276	0.111
-376.873	196.089	0.124	0.189
-375.858	-30.084	-0.134	-0.076
-374.844	-200.000	-0.028	0.296
-373.829	-200.000	0.001	0.066
-372.815	-164.796	-0.091	0.004
-371.800	-31.341	-0.123	-0.069
-370.785	800.000	-0.092	-0.259
-369.771	748.433	-0.107	-0.289
-368.756	67.865	0.212	-0.217
-367.742	-2.831	0.347	-0.243
-366.727	11.883	-0.214	-0.165
-365.712	32.063	0.182	0.157
-364.698	-166.049	-0.163	0.007
-363.683	45.024	0.179	0.165
-362.669	-137.521	0.545	0.062
-361.654	272.514	0.063	-0.111
-360.639	800.000	0.067	-0.189
-359.625	800.000	0.027	0.103
-358.610	130.915	0.103	0.132
-357.596	800.000	-0.019	-0.081
-356.581	22.587	0.080	-0.065
-355.566	-132.453	0.343	-0.044
-354.552	257.502	0.130	0.223
-353.537	15.895	0.278	0.219
-352.523	44.688	0.339	-0.312
-351.508	731.806	0.080	0.215
-350.493	-9.092	0.103	0.069
-349.479	-73.249	-0.397	-0.145
-348.464	-200.000	-0.013	-0.224
-347.450	-106.448	0.178	0.040
-346.435	-130.871	-0.174	-0.023
-345.420	58.296	0.003	-0.003
-344.406	-51.870	-0.219	-0.102
-343.391	378.077	-0.057	0.117
-342.377	439.932	0.051	0.112
-341.362	178.940	0.097	-0.142
-340.348	8.892	0.177	0.133
-339.333	71.260	0.292	-0.302
-338.318	-119.129	0.107	0.019
-337.304	800.000	0.074	-0.243
-336.289	29.255	0.233	-0.198
-335.275	58.879	-0.120	0.118
-334.260	-0.193	-0.222	0.158
-333.245	-200.000	-0.005	-0.199
-332.231	-14.092	-0.347	-0.224
-331.216	30.883	-0.313	-0.268
-330.202	-154.786	-0.262	0.017
-329.187	487.130	0.072	0.164
-328.172	-101.639	0.035	0.008
-327.158	127.292	0.175	0.222
-326.143	216.747	0.231	0.367
-325.129	800.000	0.034	-0.131
-324.114	-27.016	-0.123	-0.072
-323.099	-200.000	0.098	0.444
-322.085	350.442	-0.062	0.122
-321.070	-200.000	0.026	0.202
-320.056	41.287	-0.166	-0.150
-319.041	-200.000	0.035	-0.200
-318.026	-142.499	0.289	0.028
-317.012	-200.000	-0.042	0.183
-315.997	-200.000	-0.008	0.111
-314.983	144.743	-0.066	0.087
-313.968	-114.029	0.326	0.063
-312.953	628.655	-0.182	0.459
-311.939	210.879	-0.158	-0.247
-310.924	-100.893	0.505	0.124
-309.910	800.000	-0.057	0.174
-308.895	-145.184	0.049	-0.004
-307.880	-200.000	-0.004	0.017
-306.866	-109.443	-0.356	-0.075
-305.851	-200.000	0.040	-0.416
-304.837	-25.000	0.202	-0.120
-303.822	9.174	-0.228	0.172
-302.807	-200.000	-0.002	-0.172
-301.793	-122.358	0.105	-0.017
-300.778	-200.000	-0.014	0.420
-299.764	98.360	0.107	-0.123
-298.749	-200.000	0.015	-0.174
-297.735	800.000	-0.047	0.160
-296.720	-52.819	-0.253	-0.116
-295.705	-89.330	-0.245	-0.072
-294.691	-58.613	-0.170	-0.074
-293.676	166.024	0.066	0.093
-292.662	-0.885	0.152	0.107
-291.647	164.086	-0.136	-0.191
-290.632	-46.360	0.157	0.077
-289.618	429.534	-0.043	0.093
-288.603	143.624	-0.038	-0.050
-287.589	-54.083	-0.105	0.048
-286.574	-14.949	-0.182	-0.116
-285.559	800.000	0.085	-0.339
-284.545	645.510	-0.095	-0.241
-283.530	524.742	0.131	0.307
-282.516	-85.452	0.121	-0.038
-281.501	-92.529	0.252	-0.071
-280.486	-35.825	-0.146	-0.079
-279.472	800.000	-0.027	-0.100
-278.457	-200.000	-0.036	-0.177
-277.443	-138.903	-0.561	-0.061
-276.428	-200.000	-0.054	0.286
-275.413	-159.677	-0.142	0.008
-274.399	-200.000	-0.016	0.094
-273.384	684.857	-0.042	-0.110
-272.370	-200.000	0.029	0.255
-271.355	-134.583	0.273	0.033
-270.340	-101.520	0.236	-0.057
-269.326	89.589	-0.092	0.103
-268.311	-28.980	0.353	0.202
-267.297	215.717	-0.048	-0.076
-266.282	116.945	0.044	-0.053
-265.267	328.740	0.076	-0.146
-264.253	-99.807	-0.119	0.030
-263.238	116.189	-0.111	-0.135
-262.224	18.339	0.071	0.057
-261.209	-165.237	0.221	-0.010
-260.195	-166.812	-0.220	-0.009
-259.180	-200.000	-0.010	0.349
-258.165	21.200	-0.086	0.070
-257.151	87.529	0.204	0.225
-256.136	-78.386	0.353	0.121
-255.122	709.145	0.082	-0.216
-254.107	-124.303	0.098	-0.015
-253.092	331.209	0.163	-0.312
-252.078	14.835	-0.185	-0.144
-251.063	-122.223	0.012	0.002
-250.049	-9.594	0.197	0.131
-249.034	-63.830	0.253	-0.103
-248.019	-200.000	0.044	-0.222
-247.005	11.822	0.235	0.179
-245.990	334.480	0.110	-0.212
-244.976	-200.000	0.012	0.144
-243.961	-102.401	0.154	-0.037
-242.946	-102.489	-0.291	-0.069
-241.932	-68.466	-0.367	0.142
-240.917	800.000	-0.084	0.245
-239.903	82.382	-0.169	-0.183
-238.888	361.904	0.109	0.218
-237.873	232.819	-0.092	-0.151
-236.859	-107.007	0.210	0.046
-235.844	562.291	0.167	-0.403
-234.830	428.666	-0.092	0.199
-233.815	161.221	0.178	0.247
-232.800	-200.000	0.043	-0.369
-231.786	503.077	-0.133	-0.305
-230.771	800.000	-0.042	-0.163
-229.757	-30.169	0.114	0.065
-228.742	-40.162	0.425	0.220
-227.727	800.000	0.003	-0.008
-226.713	30.315	-0.261	0.222
-225.698	97.021	-0.120	-0.136
-224.684	800.000	0.021	0.057
-223.669	-200.000	0.045	0.225
-222.655	389.693	-0.138	-0.284
-221.640	800.000	-0.134	0.411
-220.625	-46.496	0.256	0.125
-219.611	-38.444	-0.258	0.136
-218.596	613.455	-0.056	0.138
-217.582	-149.782	0.173	0.014
-216.567	3.151	-0.240	0.173
-215.552	-12.500	-0.295	-0.192
-214.538	-149.858	-0.363	-0.028
-213.523	-191.183	0.089	0.001
-212.509	-22.177	-0.171	-0.103
-211.494	319.314	-0.141	0.266
-210.479	80.468	-0.228	0.244
-209.465	-130.989	0.268	0.036
-208.450	-106.444	-0.352	-0.078
-207.436	350.101	-0.146	0.288
-206.421	365.825	0.038	-0.075
-205.406	-128.602	0.139	0.020
-204.392	-200.000	-0.004	-0.367
-203.377	-200.000	-0.013	0.101
-202.363	800.000	0.046	-0.155
-201.348	-5.497	-0.127	0.086
-200.333	-107.515	-0.175	-0.038
-199.319	800.000	-0.022	0.095
-198.304	130.733	-0.167	0.213
-197.290	121.214	-0.155	-0.192
-196.275	169.527	-0.132	0.188
-195.260	-137.468	-0.169	-0.019
-194.246	-200.000	-0.060	-0.381
-193.231	345.857	-0.036	-0.069
-192.217	-200.000	0.010	0.100
-191.202	-148.381	0.235	-0.019
-190.187	110.664	-0.108	-0.129
-189.173	164.274	0.177	-0.248
-188.158	-25.032	-0.165	-0.097
-187.144	-200.000	-0.022	0.127
-186.129	75.712	-0.059	0.061
-185.114	-200.000	-0.041	-0.341
-184.100	-102.229	0.079	0.019
-183.085	-127.640	0.105	0.015
-182.071	-200.000	-0.029	0.313
-181.056	-77.539	-0.353	0.121
-180.042	800.000	-0.147	-0.513
-179.027	-70.330	0.173	0.065
-178.012	-200.000	-0.015	-0.161
-176.998	-109.192	0.362	-0.076
-175.983	72.290	-0.152	-0.158
-174.969	390.543	-0.117	0.241
-173.954	-124.596	0.349	0.054
-172.939	-95.340	-0.289	-0.077
-171.925	-105.062	0.183	-0.041
-170.910	-200.000	0.020	0.138
-169.896	166.024	0.036	0.050
-168.881	194.390	0.067	0.100
-167.866	83.465	0.060	0.065
-166.852	627.684	-0.057	0.143
-165.837	-131.346	-0.201	0.026
-164.823	800.000	0.068	-0.232
-163.808	86.544	0.194	0.212
-162.793	800.000	0.067	0.212
-161.779	800.000	-0.026	-0.093
-160.764	800.000	-0.116	-0.339
-159.750	-59.930	-0.040	-0.017
-158.735	800.000	-0.085	0.369
-157.720	133.873	-0.116	0.149
-156.706	-200.000	0.035	0.248
-155.691	-100.859	0.135	0.033
-154.677	800.000	0.018	-0.056
-153.662	-22.544	-0.149	-0.089
-152.647	-59.615	-0.255	-0.108
-151.633	-16.253	0.041	0.026
-150.618	-116.910	-0.250	0.045
-149.604	65.855	0.071	-0.072
-148.589	-196.801	0.111	-0.001
-147.574	-72.196	0.210	0.077
-146.560	233.651	0.137	0.223
-145.545	-42.769	0.155	0.078
-144.531	173.400	0.190	-0.272
-143.516	25.003	0.238	0.196
-142.502	-90.903	-0.241	-0.069
-141.487	332.220	0.050	0.095
-140.472	-48.392	-0.251	-0.120
-139.458	-22.071	0.328	0.198
-138.443	800.000	-0.104	-0.292
-137.429	-28.268	0.045	-0.026
-136.414	428.155	-0.111	0.237
-135.399	237.035	-0.181	0.297
-134.385	-200.000	-0.024	0.133
-133.370	-19.822	0.048	0.029
-132.356	673.231	-0.120	0.309
-131.341	-141.475	0.177	0.018
-130.326	-61.777	0.216	0.090
-129.312	587.435	0.120	-0.292
-128.297	-200.000	0.054	0.234
-127.283	314.372	0.211	0.393
-126.268	-75.616	0.066	0.023
-125.253	-148.345	0.202	0.016
-124.239	-39.209	-0.106	-0.055
-123.224	-50.321	-0.414	-0.194
-122.210	-50.688	-0.146	-0.068
-121.195	800.000	0.044	0.156
-120.180	-200.000	0.000	-0.185
-119.166	92.919	0.212	0.237
-118.151	226.016	-0.200	0.321
-117.137	-82.957	0.351	-0.112
-116.122	453.778	-0.141	-0.308
-115.107	-28.183	-0.455	0.261
-114.093	-63.956	0.264	0.107
-113.078	195.779	0.103	-0.156
-112.064	-17.428	-0.292	-0.182
-111.049	800.000	-0.045	-0.159
-110.034	79.881	0.080	-0.085
-109.020	-64.134	-0.313	-0.127
-108.005	549.305	-0.072	0.172
-106.991	800.000	0.071	0.212
-105.976	-200.000	-0.022	-0.248
-104.962	-200.000	0.007	0.103
-103.947	-170.447	-0.164	0.006
-102.932	800.000	0.124	-0.360
-101.918	-173.986	0.327	0.010
-100.903	-82.498	0.285	0.092
-99.889	-200.000	-0.042	0.204
-98.874	-10.033	0.227	-0.149
-97.859	128.238	-0.172	-0.216
-96.845	-62.220	-0.470	0.194
-95.830	800.000	-0.155	0.482
-94.816	-86.255	0.202	0.062
-93.801	13.513	-0.242	-0.186
-92.786	-34.934	0.129	0.070
-91.772	-12.782	0.113	-0.073
-90.757	260.657	0.178	-0.304
-89.743	800.000	-0.053	-0.176
-88.728	-26.711	-0.183	-0.106
-87.713	-200.000	-0.029	-0.162
-86.699	800.000	-0.122	0.402
-85.684	271.247	-0.027	-0.047
-84.670	-177.039	-0.175	-0.004
-83.655	-58.990	0.296	0.126
-82.640	-200.000	0.017	0.296
-81.626	3.463	-0.204	-0.147
-80.611	-74.709	-0.049	-0.017
-79.597	-200.000	0.001	-0.210
-78.582	-61.311	0.260	0.108
-77.567	-49.586	-0.314	0.148
-76.553	800.000	-0.032	0.114
-75.538	-200.000	-0.030	0.144
-74.524	-200.000	-0.082	0.421
-73.509	-139.105	0.135	-0.014
-72.494	-19.197	0.385	-0.236
-71.480	800.000	-0.055	0.237
-70.465	9.181	-0.165	0.123
-69.451	224.016	-0.169	0.269
-68.436	800.000	0.076	0.316
-67.422	-64.717	-0.268	-0.107
-66.407	63.190	-0.092	-0.091
-65.392	-81.772	0.466	0.151
-64.378	-84.585	0.114	0.035
-63.363	57.301	0.304	0.293
-62.349	800.000	-0.066	0.263
-61.334	-16.923	-0.970	-0.606
-60.319	168.086	0.305	0.429
-59.305	355.622	-0.439	-0.862
-58.290	258.867	0.590	1.004
-57.276	800.000	0.425	1.357
-56.261	-200.000	104.239	577.803
-55.246	498.156	1473.928	3353.389
-54.232	174.737	2687.031	3841.552
-53.217	101.969	2341.370	2699.905
-52.203	35.954	2090.001	1816.820
-51.188	31.275	2003.067	1698.742
-50.173	29.857	1986.295	1671.655
-49.159	45.593	2041.709	1862.904
-48.144	45.802	2058.931	1880.468
-47.130	31.950	2016.999	1716.469
-46.115	29.675	2006.921	1687.080
-45.100	29.575	2003.764	1683.454
-44.086	29.522	2001.608	1681.087
-43.071	29.434	1999.005	1678.034
-42.057	29.446	1996.908	1676.322
-41.042	29.469	1995.117	1674.962
-40.027	29.448	1993.313	1673.191
-39.013	29.536	1990.803	1671.811
-37.998	29.505	1989.620	1670.473
-36.984	29.560	1987.380	1669.022
-35.969	29.596	1984.895	1667.194
-34.954	29.579	1983.366	1665.687
-33.940	29.640	1982.003	1665.030
-32.925	29.615	1980.346	1663.340
-31.911	29.668	1978.383	1662.102
-30.896	29.628	1976.443	1660.051
-29.881	29.591	1975.678	1659.006
-28.867	29.659	1973.888	1658.055
-27.852	29.668	1972.030	1656.504
-26.838	29.711	1969.591	1654.774
-25.823	29.692	1968.140	1653.321
-24.809	29.633	1966.213	1651.109
-23.794	29.660	1964.577	1649.912
-22.779	29.645	1962.835	1648.249
-21.765	29.628	1961.101	1646.578
-20.750	29.593	1959.956	1645.238
-19.736	29.672	1957.831	1644.094
-18.721	29.704	1956.254	1642.989
-17.706	29.675	1954.086	1640.841
-16.692	29.641	1952.939	1639.510
-15.677	29.732	1951.161	1638.759
-14.663	29.642	1949.674	1636.654
-13.648	29.617	1949.008	1635.808
-12.633	29.629	1947.445	1634.531
-11.619	29.658	1946.357	1633.814
-10.604	29.616	1944.853	1632.112
-9.590	29.541	1944.074	1630.729
-8.575	29.630	1942.244	1629.918
-7.560	29.659	1940.740	1628.844
-6.546	29.641	1939.462	1627.554
-5.531	29.632	1938.607	1626.693
-4.517	29.657	1936.976	1625.477
-3.502	29.650	1935.796	1624.361
-2.487	29.640	1934.846	1623.414
-1.473	29.669	1933.501	1622.473
-0.458	29.737	1928.931	1619.174
0.556	31.993	1908.962	1593.627
1.571	27.630	1890.577	1541.351
2.586	23.730	1913.844	1526.730
3.600	22.744	1950.374	1547.093
4.615	21.870	1943.861	1534.150
5.629	17.114	1841.526	1413.755
6.644	8.823	1724.891	1259.178
7.659	4.665	1689.425	1201.125
8.673	4.370	1686.147	1196.416
9.688	4.484	1685.095	1196.440
10.702	4.468	1683.961	1195.403
11.717	4.378	1680.315	1192.024
12.731	4.966	1680.259	1196.391
13.746	10.494	1693.076	1248.062
14.761	18.540	1710.285	1322.966
15.775	22.186	1716.297	1355.670
16.790	22.396	1715.055	1356.186
17.804	21.499	1712.351	1347.026
18.819	20.476	1709.387	1336.706
19.834	19.908	1707.418	1330.686
20.848	19.765	1705.860	1328.255
21.863	19.752	1704.521	1326.998
22.877	19.571	1703.157	1324.424
23.892	19.418	1702.092	1322.306
24.907	19.310	1700.992	1320.510
25.921	19.287	1699.699	1319.214
26.936	19.283	1698.840	1318.398
27.950	19.267	1697.755	1317.321
28.965	19.294	1697.548	1317.248
29.980	19.320	1696.370	1316.413
30.994	19.547	1695.118	1317.056
32.009	19.571	1694.556	1316.689
33.023	19.700	1693.918	1317.063
34.038	19.737	1692.672	1316.260
35.053	19.644	1691.766	1314.730
36.067	19.508	1690.350	1312.477
37.082	19.433	1689.135	1310.846
38.096	19.475	1688.068	1310.221
39.111	19.510	1687.582	1309.997
40.126	19.609	1686.887	1310.090
41.140	19.595	1685.605	1308.873
42.155	19.228	1684.031	1304.756
43.169	19.055	1682.433	1302.091
44.184	18.936	1680.988	1299.960
45.199	18.913	1679.825	1298.774
46.213	18.971	1678.603	1298.152
47.228	19.017	1678.046	1297.954
48.242	19.169	1676.881	1298.084
49.257	19.356	1676.404	1299.007
50.271	19.384	1674.511	1297.639
51.286	19.327	1673.499	1296.311
52.301	19.276	1672.089	1294.720
53.315	19.401	1670.353	1294.200
54.330	19.260	1669.082	1292.041
55.344	19.117	1667.253	1289.440
56.359	19.125	1665.825	1288.279
57.374	19.080	1664.799	1287.038
58.388	19.134	1663.697	1286.478
59.403	19.038	1662.465	1284.688
60.417	18.862	1661.244	1282.323
61.432	18.900	1660.109	1281.616
62.447	18.843	1658.641	1279.946
63.461	18.787	1657.835	1278.790
64.476	18.780	1656.287	1277.429
65.490	18.708	1654.867	1275.691
66.505	18.669	1654.066	1274.671
67.520	18.683	1653.187	1273.981
68.534	18.762	1652.104	1273.620
69.549	18.797	1651.180	1273.059
70.563	18.789	1649.900	1271.899
71.578	18.748	1648.470	1270.379
72.593	18.627	1647.376	1268.525
73.607	18.543	1646.406	1267.052
74.622	18.479	1645.111	1265.469
75.636	18.530	1644.286	1265.096
76.651	18.649	1643.137	1264.978
77.666	18.635	1642.528	1264.294
78.680	18.615	1641.983	1263.612
79.695	18.708	1641.346	1263.702
80.709	18.840	1640.269	1263.726
81.724	18.889	1639.711	1263.547
82.739	18.898	1639.539	1263.367
83.753	19.035	1638.529	1263.487
84.768	19.109	1637.444	1263.078
85.782	19.287	1637.397	1264.237
86.797	19.498	1636.220	1264.762
87.812	19.550	1635.563	1264.523
88.826	19.538	1634.104	1263.196
89.841	19.415	1633.201	1261.488
90.855	19.395	1632.054	1260.346
91.870	19.474	1630.817	1259.855
92.884	19.583	1630.106	1259.990
93.899	19.584	1629.466	1259.387
94.914	19.624	1628.109	1258.518
95.928	19.679	1626.769	1257.771
96.943	19.712	1625.527	1256.943
97.957	19.669	1624.016	1255.347
98.972	19.493	1623.071	1253.230
99.987	19.539	1620.783	1251.683
101.001	19.477	1619.426	1250.077
102.016	19.496	1618.052	1249.046
103.030	19.495	1616.453	1247.690
104.045	19.411	1616.091	1246.695
105.060	19.527	1614.308	1246.047
106.074	19.443	1613.059	1244.366
107.089	19.206	1611.182	1241.100
108.103	18.866	1608.962	1236.835
109.118	18.787	1607.448	1234.993
110.133	18.799	1606.197	1234.012
111.147	18.719	1604.708	1232.185
112.162	18.798	1603.686	1231.852
113.176	18.877	1602.164	1231.144
114.191	18.823	1601.278	1229.963
115.206	19.021	1599.420	1229.847
116.220	19.021	1598.451	1228.995
117.235	18.974	1596.962	1227.400
118.249	18.913	1596.058	1226.164
119.264	18.932	1594.882	1225.290
120.279	18.800	1593.038	1222.823
121.293	18.755	1591.663	1221.342
122.308	18.731	1590.340	1220.047
123.322	18.637	1588.382	1217.772
124.337	18.617	1587.008	1216.467
125.352	18.511	1585.831	1214.705
126.366	18.544	1584.235	1213.612
127.381	18.553	1583.092	1212.689
128.395	18.546	1582.561	1212.124
129.410	18.455	1581.113	1210.265
130.424	18.492	1579.843	1209.449
131.439	18.609	1578.520	1209.153
132.454	18.718	1577.400	1208.959
133.468	18.873	1575.510	1208.494
134.483	18.865	1574.631	1207.652
135.497	18.960	1573.144	1207.074
136.512	18.949	1571.957	1205.980
137.527	18.904	1571.073	1204.880
138.541	18.969	1570.045	1204.437
139.556	18.976	1568.323	1203.063
140.570	19.059	1567.276	1202.734
141.585	19.216	1565.439	1202.310
142.600	19.202	1564.871	1201.671
143.614	19.388	1563.728	1201.985
144.629	19.444	1562.784	1201.541
145.643	19.516	1561.295	1200.789
146.658	19.578	1559.955	1200.087
147.673	19.406	1558.467	1197.641
148.687	19.249	1556.853	1195.201
149.702	19.223	1554.999	1193.493
150.716	19.022	1553.598	1190.920
151.731	19.079	1551.980	1189.970
152.746	19.010	1550.289	1188.096
153.760	18.980	1549.142	1186.900
154.775	19.089	1548.273	1186.886
155.789	19.160	1547.610	1186.758
156.804	19.260	1545.957	1186.074
157.819	19.274	1544.993	1185.327
158.833	19.301	1543.962	1184.616
159.848	19.346	1543.452	1184.432
160.862	19.564	1541.915	1184.639
161.877	19.683	1540.739	1184.448
162.892	19.515	1539.169	1181.985
163.906	19.186	1537.499	1178.349
164.921	19.076	1535.887	1176.258
165.935	19.056	1535.082	1175.399
166.950	19.089	1534.147	1174.806
167.964	19.279	1532.573	1174.791
168.979	19.254	1532.209	1174.238
169.994	19.168	1531.112	1172.706
171.008	19.147	1529.821	1171.476
172.023	19.110	1529.084	1170.550
173.037	19.071	1528.292	1169.579
174.052	19.409	1526.648	1170.511
175.067	19.515	1525.948	1170.587
176.081	19.418	1524.622	1168.814
177.096	19.164	1522.610	1165.449
178.110	19.090	1521.668	1164.122
179.125	19.001	1520.653	1162.640
180.140	19.162	1519.371	1162.648
181.154	19.147	1518.501	1161.772
182.169	19.305	1517.296	1161.815
183.183	19.487	1516.408	1162.258
184.198	19.602	1515.373	1162.136
185.213	19.566	1514.740	1161.307
186.227	19.569	1513.780	1160.490
187.242	19.635	1512.449	1159.807
188.256	19.637	1511.426	1158.930
189.271	19.795	1510.274	1159.009
190.286	19.720	1509.563	1157.854
191.300	19.706	1508.743	1157.028
192.315	19.343	1506.870	1153.068
193.329	19.033	1504.780	1149.294
194.344	19.068	1503.789	1148.665
195.359	19.149	1502.831	1148.372
196.373	19.195	1502.271	1148.151
197.388	19.278	1501.560	1148.058
198.402	19.355	1500.270	1147.483
199.417	19.602	1499.358	1148.325
200.432	19.752	1498.800	1148.793
201.446	19.918	1497.983	1149.173
202.461	20.038	1497.138	1149.214
203.475	20.188	1495.640	1148.959
204.490	20.115	1495.147	1147.996
205.504	19.957	1493.904	1145.897
206.519	19.686	1492.490	1142.913
207.534	19.529	1491.489	1141.013
208.548	19.572	1489.806	1139.907
209.563	19.613	1488.505	1139.081
210.577	19.602	1487.839	1138.396
211.592	19.660	1486.877	1137.941
212.607	19.620	1486.339	1137.165
213.621	19.746	1486.377	1137.921
214.636	19.949	1485.082	1138.165
215.650	19.831	1483.943	1136.418
216.665	19.795	1483.032	1135.384
217.680	19.934	1482.483	1135.773
218.694	20.000	1482.309	1135.976
219.709	20.161	1480.996	1135.921
220.723	20.092	1480.001	1134.607
221.738	20.043	1479.026	1133.436
222.753	20.030	1478.179	1132.601
223.767	19.977	1477.028	1131.274
224.782	19.950	1476.248	1130.402
225.796	20.041	1475.424	1130.262
226.811	20.176	1474.470	1130.313
227.826	20.188	1474.270	1130.142
228.840	20.139	1473.054	1128.788
229.855	19.899	1471.920	1126.256
230.869	19.898	1471.210	1125.610
231.884	19.914	1469.936	1124.635
232.899	19.909	1468.698	1123.558
233.913	19.801	1467.256	1121.653
234.928	19.717	1465.927	1119.996
235.942	19.769	1464.185	1118.899
236.957	19.642	1463.153	1117.193
237.972	19.510	1462.575	1115.800
238.986	19.691	1460.714	1115.449
240.001	19.577	1460.287	1114.289
241.015	19.674	1459.033	1113.858
242.030	19.632	1458.110	1112.784
243.045	19.769	1457.129	1112.820
244.059	19.967	1456.242	1113.317
245.074	20.037	1455.771	1113.309
246.088	19.992	1454.577	1112.009
247.103	20.045	1454.233	1111.985
248.117	20.095	1453.503	1111.649
249.132	20.282	1452.935	1112.317
250.147	20.320	1452.593	1112.203
251.161	20.538	1452.171	1113.176
252.176	20.857	1451.791	1114.828
253.190	20.903	1450.648	1114.147
254.205	20.877	1449.831	1113.252
255.220	20.927	1449.398	1113.141
256.234	21.029	1448.364	1112.897
257.249	20.983	1447.692	1111.991
258.263	20.918	1446.541	1110.594
259.278	20.925	1445.938	1110.076
260.293	20.927	1444.671	1109.020
261.307	20.810	1444.097	1107.737
262.322	20.936	1443.632	1108.085
263.336	21.012	1442.662	1107.722
264.351	21.082	1441.907	1107.487
265.366	21.052	1440.903	1106.432
266.380	21.135	1439.812	1106.022
267.395	21.161	1438.507	1105.087
268.409	21.107	1437.393	1103.793
269.424	20.992	1436.866	1102.559
270.439	20.868	1435.885	1100.927
271.453	20.854	1434.544	1099.715
272.468	20.866	1433.244	1098.695
273.482	20.728	1432.959	1097.512
274.497	20.659	1431.727	1096.035
275.512	20.669	1430.471	1095.040
276.526	20.647	1430.322	1094.691
277.541	20.662	1428.906	1093.599
278.555	20.772	1428.253	1093.699
279.570	20.707	1427.508	1092.618
280.585	20.768	1426.246	1091.942
281.599	21.022	1426.001	1093.251
282.614	21.131	1425.201	1093.225
283.628	21.038	1423.992	1091.617
284.643	20.962	1422.141	1089.623
285.657	20.929	1421.002	1088.448
286.672	20.783	1420.401	1086.980
287.687	20.762	1419.410	1085.995
288.701	20.856	1418.304	1085.637
289.716	20.818	1418.178	1085.208
290.730	20.857	1416.846	1084.336
291.745	20.938	1415.526	1083.736
292.760	20.863	1414.971	1082.748
293.774	20.880	1414.406	1082.326
294.789	20.926	1413.304	1081.676
295.803	21.109	1412.624	1082.191
296.818	21.306	1411.329	1082.325
297.833	21.077	1410.030	1079.813
298.847	20.896	1409.705	1078.348
299.862	20.857	1408.855	1077.365
300.876	20.895	1407.838	1076.728
301.891	21.047	1406.845	1076.811
302.906	21.122	1406.033	1076.558
303.920	21.093	1405.600	1075.951
304.935	21.318	1404.738	1076.579
305.949	21.409	1404.176	1076.617
306.964	21.556	1403.721	1077.076
307.979	21.549	1402.399	1075.920
308.993	21.367	1401.610	1074.105
310.008	21.361	1400.324	1072.986
311.022	21.440	1398.925	1072.306
312.037	21.356	1398.355	1071.256
313.052	21.463	1397.670	1071.294
314.066	21.412	1396.319	1069.848
315.081	21.237	1394.995	1067.673
316.095	21.060	1393.634	1065.453
317.110	20.966	1392.438	1063.876
318.125	20.822	1391.757	1062.383
319.139	20.969	1390.882	1062.514
320.154	20.910	1389.800	1061.237
321.168	20.972	1388.511	1060.532
322.183	20.978	1387.961	1060.056
323.197	21.022	1386.887	1059.409
324.212	21.048	1386.162	1058.920
325.227	21.093	1385.318	1058.454
326.241	21.167	1384.696	1058.333
327.256	21.112	1384.047	1057.413
328.270	21.097	1382.921	1056.364
329.285	21.047	1381.757	1055.080
330.300	21.103	1380.496	1054.366
331.314	21.069	1379.528	1053.328
332.329	21.035	1378.969	1052.598
333.343	21.047	1378.168	1051.966
334.358	21.222	1377.220	1052.209
335.373	21.245	1376.938	1052.034
336.387	21.293	1375.870	1051.415
337.402	21.391	1375.585	1051.695
338.416	21.541	1374.557	1051.715
339.431	21.530	1373.822	1050.998
340.446	21.616	1373.404	1051.100
341.460	21.625	1372.829	1050.619
342.475	21.717	1371.526	1050.083
343.489	21.844	1371.067	1050.395
344.504	21.901	1370.221	1049.996
345.519	21.913	1369.266	1049.245
346.533	21.999	1368.272	1048.903
347.548	22.116	1367.510	1048.923
348.562	22.095	1366.540	1047.967
349.577	22.086	1366.019	1047.420
350.592	21.919	1364.985	1045.535
351.606	21.789	1363.674	1043.664
352.621	21.670	1362.155	1041.706
353.635	21.509	1361.364	1040.047
354.650	21.460	1360.028	1038.649
355.665	21.413	1359.116	1037.580
356.679	21.506	1358.233	1037.363
357.694	21.595	1356.862	1036.753
358.708	21.599	1356.480	1036.391
359.723	21.672	1355.319	1035.847
360.738	21.769	1354.273	1035.531
361.752	21.743	1353.314	1034.551
362.767	21.680	1352.239	1033.262
363.781	21.756	1351.051	1032.713
364.796	21.845	1350.332	1032.599
365.810	21.944	1349.863	1032.729
366.825	21.964	1349.856	1032.751
367.840	22.171	1349.372	1033.504
368.854	22.314	1348.481	1033.572
369.869	22.355	1348.151	1033.470
370.883	22.448	1347.130	1033.141
371.898	22.393	1346.336	1032.118
372.913	22.153	1345.576	1030.036
373.927	22.078	1344.421	1028.622
374.942	22.185	1343.075	1028.127
375.956	22.154	1343.014	1027.805
376.971	22.346	1342.566	1028.499
377.986	22.106	1341.386	1026.100
379.000	22.188	1340.521	1025.829
380.015	22.258	1339.599	1025.438
381.029	22.436	1338.844	1025.804
382.044	22.493	1338.308	1025.638
383.059	22.520	1337.673	1025.217
384.073	22.450	1337.057	1024.244
385.088	22.430	1335.984	1023.219
386.102	22.541	1335.281	1023.235
387.117	22.550	1334.742	1022.781
388.132	22.414	1333.662	1021.077
389.146	22.230	1332.700	1019.183
390.161	22.121	1331.607	1017.626
391.175	22.073	1330.885	1016.703
392.190	22.047	1330.007	1015.793
393.205	22.243	1328.972	1016.045
394.219	22.318	1328.430	1015.978
395.234	22.456	1327.373	1015.872
396.248	22.341	1325.961	1014.041
397.263	22.207	1324.735	1012.242
398.278	22.270	1323.330	1011.440
399.292	22.152	1321.931	1009.603
400.307	21.970	1320.966	1007.733
401.321	21.956	1319.702	1006.599
402.336	21.931	1318.692	1005.598
403.350	21.956	1317.563	1004.791
404.365	21.983	1316.473	1004.022
405.380	22.011	1315.678	1003.490
406.394	22.130	1315.160	1003.684
407.409	22.281	1314.593	1004.023
408.423	22.254	1314.012	1003.338
409.438	22.499	1313.500	1004.256
410.453	22.534	1313.034	1004.010
411.467	22.607	1312.553	1003.969
412.482	22.735	1311.839	1004.063
413.496	22.696	1311.241	1003.294
414.511	22.801	1310.203	1003.007
415.526	22.873	1309.750	1002.982
416.540	22.920	1308.738	1002.384
417.555	23.062	1308.677	1003.051
418.569	23.095	1307.594	1002.322
419.584	23.010	1307.119	1001.387
420.599	22.930	1306.462	1000.346
421.613	145.643	1434.515	1794.706
422.628	141.184	1453.157	1794.834
