DTS Sentinel unit serial number:	SN413079Multiplexer serial number:	ORYXHardware model number:	OX4-SRSoftware version number:	ORYX F/W v4.00 Oryx Data Collector v3.7.2.0data status	okinstallation	princeton_trtdifferential loss correction	single-endedforward channel	channel 4reverse channel	N/Adate	2019/09/13time	21:17:35forward acquisition time	60.00reverse acquisition time	0.00gamma	496.2192k internal	0.2319k external	0.2319temperature offset calibration	1.0130default loss term (dB/km)	0.3790temperature slope calibration	1.0000multiplexer offset coefficient	1.0000multiplexer slope coefficient	1.0000fibre end	0.00T internal ref (°C)	28.44T ext. ref 1 (°C)	3.12T ext. ref 2 (°C)	22.98length (m)	temperature (°C)	Stokes	anti-Stokes-747.200	112.693	0.224	-0.274
-746.185	190.818	0.168	0.255
-745.171	729.276	-0.154	-0.417
-744.156	-119.979	-0.339	0.059
-743.142	174.431	0.079	0.115
-742.127	338.314	-0.175	0.344
-741.112	79.583	0.181	0.197
-740.098	-200.000	0.010	-0.189
-739.083	-137.730	0.335	0.038
-738.069	234.256	-0.211	0.351
-737.054	-193.001	0.470	-0.004
-736.039	800.000	-0.026	0.087
-735.025	-200.000	-0.012	0.470
-734.010	-45.374	0.249	0.125
-732.996	-15.473	-0.409	0.264
-731.981	-200.000	0.014	-0.131
-730.966	-200.000	0.002	0.161
-729.952	-47.356	-0.331	-0.163
-728.937	173.492	0.155	0.226
-727.923	680.479	-0.296	-0.778
-726.908	-200.000	0.006	-0.152
-725.894	-66.413	0.129	-0.052
-724.879	-90.488	0.326	-0.096
-723.864	-58.829	-0.177	0.077
-722.850	161.396	-0.197	-0.278
-721.835	-200.000	-0.021	-0.168
-720.821	248.154	0.099	-0.169
-719.806	0.359	-0.127	0.092
-718.791	-58.825	0.076	-0.033
-717.777	-176.795	-0.387	-0.010
-716.762	-174.122	0.137	0.004
-715.748	23.561	-0.066	0.054
-714.733	189.352	0.075	0.113
-713.718	-109.617	-0.291	-0.062
-712.704	230.960	0.140	0.232
-711.689	-181.567	-0.106	-0.002
-710.675	-200.000	0.118	-0.567
-709.660	373.801	0.087	0.179
-708.645	-176.908	0.048	0.001
-707.631	-200.000	0.004	0.317
-706.616	459.841	-0.041	0.093
-705.602	800.000	0.031	-0.103
-704.587	-70.442	0.205	0.078
-703.572	-175.939	0.188	-0.005
-702.558	-200.000	-0.026	-0.251
-701.543	67.042	-0.120	0.124
-700.529	109.572	0.153	-0.186
-699.514	-200.000	0.041	-0.184
-698.499	-24.145	0.302	0.182
-697.485	-84.027	-0.241	-0.077
-696.470	114.408	0.268	-0.330
-695.456	-65.212	0.134	0.054
-694.441	-108.212	-0.194	-0.042
-693.426	-150.492	-0.188	-0.015
-692.412	-20.834	0.221	-0.137
-691.397	-91.052	-0.175	-0.051
-690.383	555.742	-0.066	0.160
-689.368	-84.905	0.255	-0.081
-688.354	-73.681	-0.259	0.095
-687.339	-61.026	0.341	0.145
-686.324	-5.195	0.122	-0.085
-685.310	-200.000	0.019	-0.273
-684.295	-200.000	0.012	-0.098
-683.281	20.990	0.310	0.254
-682.266	6.659	0.226	0.170
-681.251	800.000	-0.032	-0.109
-680.237	214.324	-0.096	0.154
-679.222	-200.000	-0.014	0.120
-678.208	-200.000	-0.097	-0.443
-677.193	-200.000	-0.006	0.102
-676.178	280.252	-0.046	0.084
-675.164	-192.690	0.240	-0.002
-674.149	8.540	0.170	-0.129
-673.135	-55.159	0.197	0.089
-672.120	-200.000	-0.065	0.337
-671.105	-200.000	0.017	0.132
-670.091	282.226	-0.209	-0.378
-669.076	26.554	-0.264	-0.223
-668.062	-200.000	-0.004	-0.066
-667.047	-47.029	-0.063	-0.031
-666.032	737.857	0.020	-0.055
-665.018	-30.201	-0.165	0.095
-664.003	424.579	0.013	0.028
-662.989	-63.882	0.056	-0.023
-661.974	-200.000	-0.021	0.163
-660.959	582.381	-0.165	-0.407
-659.945	-85.582	-0.170	-0.053
-658.930	22.036	0.135	0.111
-657.916	224.895	0.066	-0.107
-656.901	190.658	-0.214	-0.325
-655.886	-18.906	-0.389	0.244
-654.872	81.921	-0.122	-0.133
-653.857	38.145	-0.339	0.304
-652.843	-200.000	-0.026	-0.176
-651.828	40.133	0.102	0.092
-650.814	29.642	0.208	-0.179
-649.799	-76.059	-0.370	-0.132
-648.784	-200.000	0.036	0.417
-647.770	87.955	-0.215	-0.241
-646.755	79.646	-0.065	0.070
-645.741	-200.000	-0.038	-0.219
-644.726	12.411	-0.430	-0.334
-643.711	800.000	-0.037	0.139
-642.697	-64.162	-0.171	-0.070
-641.682	301.720	-0.092	0.172
-640.668	-14.438	-0.150	-0.097
-639.653	234.952	0.115	0.191
-638.638	442.982	0.073	-0.160
-637.624	-89.007	-0.072	-0.021
-636.609	-161.811	0.258	-0.013
-635.595	276.491	-0.139	0.248
-634.580	39.671	-0.085	0.077
-633.565	275.011	0.146	-0.261
-632.551	726.913	-0.058	-0.155
-631.536	-41.705	-0.247	0.128
-630.522	774.714	0.063	0.173
-629.507	176.693	-0.022	-0.032
-628.492	-200.000	-0.005	0.048
-627.478	-31.250	-0.170	-0.096
-626.463	100.192	-0.192	0.225
-625.449	171.696	0.130	0.188
-624.434	319.198	-0.148	0.283
-623.419	-2.382	-0.281	-0.198
-622.405	-46.638	-0.195	0.096
-621.390	-80.777	0.399	0.133
-620.376	1.680	-0.144	-0.104
-619.361	-200.000	0.029	0.256
-618.346	67.211	-0.020	0.021
-617.332	-200.000	0.089	-0.506
-616.317	-72.037	-0.375	0.140
-615.303	22.956	0.245	-0.202
-614.288	-28.082	0.419	0.244
-613.273	673.175	-0.048	0.126
-612.259	106.563	-0.125	-0.149
-611.244	199.212	-0.376	-0.579
-610.230	-186.972	-0.266	-0.004
-609.215	-50.552	-0.197	0.094
-608.201	-200.000	0.036	0.319
-607.186	-92.429	-0.243	-0.069
-606.171	-63.087	-0.060	-0.025
-605.157	417.027	-0.052	0.111
-604.142	43.696	0.220	-0.203
-603.128	-87.138	0.246	0.075
-602.113	-200.000	0.021	-0.293
-601.098	-109.434	-0.451	0.096
-600.084	-33.672	0.125	0.069
-599.069	800.000	-0.057	0.230
-598.055	266.824	-0.175	-0.308
-597.040	800.000	-0.044	0.146
-596.025	87.181	0.011	-0.012
-595.011	203.515	-0.056	0.088
-593.996	282.487	0.026	0.047
-592.982	800.000	0.013	-0.038
-591.967	-200.000	0.023	0.219
-590.952	800.000	-0.078	0.253
-589.938	800.000	0.057	-0.192
-588.923	489.412	0.127	-0.292
-587.909	-115.451	-0.217	0.041
-586.894	-200.000	-0.025	0.134
-585.879	-18.101	-0.183	-0.115
-584.865	800.000	0.009	-0.029
-583.850	-75.437	0.143	-0.051
-582.836	-21.321	0.207	-0.127
-581.821	-125.821	-0.200	0.030
-580.806	800.000	0.057	0.221
-579.792	800.000	0.170	0.537
-578.777	-88.766	-0.101	-0.030
-577.763	-101.599	-0.116	0.028
-576.748	52.769	-0.101	-0.097
-575.733	212.810	-0.265	-0.420
-574.719	457.012	0.063	0.141
-573.704	10.005	0.184	-0.141
-572.690	36.758	0.169	-0.150
-571.675	-200.000	0.048	0.214
-570.661	167.907	0.089	0.127
-569.646	80.226	-0.298	0.322
-568.631	222.483	-0.213	0.344
-567.617	-94.939	-0.253	-0.069
-566.602	-36.178	0.272	0.147
-565.588	-79.633	0.112	0.038
-564.573	-200.000	0.043	-0.320
-563.558	22.133	0.137	0.112
-562.544	-80.439	-0.303	0.101
-561.529	-67.771	0.184	0.072
-560.515	-200.000	-0.056	-0.361
-559.500	-54.088	0.266	-0.122
-558.485	-200.000	0.011	-0.078
-557.471	-117.231	0.266	0.049
-556.456	-35.855	0.136	0.074
-555.442	-200.000	-0.030	0.209
-554.427	800.000	0.048	0.149
-553.412	109.505	0.141	-0.170
-552.398	699.952	-0.069	-0.183
-551.383	-7.326	-0.193	-0.131
-550.369	800.000	-0.049	-0.176
-549.354	-100.361	-0.154	0.038
-548.339	71.281	-0.118	0.123
-547.325	-19.982	-0.083	-0.051
-546.310	-75.848	0.049	0.017
-545.296	-200.000	0.045	0.236
-544.281	105.199	0.206	-0.244
-543.266	294.585	0.148	-0.272
-542.252	-68.764	-0.184	0.071
-541.237	-36.195	-0.250	-0.136
-540.223	-132.184	-0.226	-0.029
-539.208	800.000	-0.006	-0.018
-538.193	-2.719	0.107	0.075
-537.179	18.200	-0.107	0.086
-536.164	-200.000	0.049	-0.231
-535.150	510.418	-0.030	0.070
-534.135	-137.143	0.193	-0.022
-533.121	-21.812	-0.085	0.052
-532.106	-135.546	0.112	-0.013
-531.091	-59.527	-0.116	0.050
-530.077	-200.000	0.053	-0.426
-529.062	-189.462	0.228	-0.003
-528.048	76.655	0.139	-0.148
-527.033	80.052	-0.056	0.060
-526.018	-200.000	0.048	0.244
-525.004	-104.213	-0.105	0.024
-523.989	116.954	-0.127	-0.157
-522.975	636.367	0.013	0.032
-521.960	79.787	0.246	-0.265
-520.945	-66.919	0.126	0.050
-519.931	14.547	0.277	-0.217
-518.916	-77.220	0.137	0.048
-517.902	-71.938	-0.144	0.054
-516.887	-200.000	-0.008	0.197
-515.872	800.000	0.033	0.137
-514.858	-41.751	-0.151	0.078
-513.843	120.480	0.194	-0.242
-512.829	593.385	-0.057	-0.140
-511.814	800.000	0.053	0.175
-510.799	423.762	0.138	0.296
-509.785	-200.000	0.027	0.250
-508.770	-66.945	-0.171	0.068
-507.756	-84.594	-0.127	0.040
-506.741	97.857	-0.121	0.140
-505.726	95.838	-0.180	0.206
-504.712	-56.840	0.139	-0.061
-503.697	-63.469	0.322	-0.133
-502.683	330.809	-0.088	-0.169
-501.668	-33.994	-0.084	0.046
-500.653	-137.698	-0.287	0.032
-499.639	427.935	0.040	0.086
-498.624	-106.602	0.074	0.016
-497.610	-135.094	0.237	0.029
-496.595	-116.527	0.309	-0.057
-495.581	800.000	0.105	0.363
-494.566	-147.855	-0.245	-0.020
-493.551	-87.880	-0.210	0.063
-492.537	150.689	0.285	0.387
-491.522	-200.000	0.025	0.180
-490.508	-112.070	0.134	-0.027
-489.493	10.374	-0.219	-0.167
-488.478	-23.133	0.080	0.048
-487.464	-40.151	-0.288	0.150
-486.449	592.845	-0.095	-0.236
-485.435	154.625	-0.276	-0.380
-484.420	-78.402	0.438	-0.150
-483.405	97.385	-0.187	-0.215
-482.391	-200.000	0.005	0.085
-481.376	15.846	-0.051	-0.040
-480.362	19.962	-0.309	0.249
-479.347	-79.154	-0.120	-0.041
-478.332	25.487	-0.259	0.215
-477.318	-200.000	0.010	-0.146
-476.303	-167.678	0.138	0.005
-475.289	-200.000	-0.022	0.380
-474.274	311.602	-0.089	0.168
-473.259	66.699	0.225	-0.229
-472.245	-165.758	0.340	-0.015
-471.230	97.065	-0.032	-0.036
-470.216	174.542	-0.206	-0.298
-469.201	-200.000	-0.056	-0.273
-468.186	800.000	-0.013	0.054
-467.172	317.596	0.188	0.355
-466.157	5.986	-0.136	-0.100
-465.143	184.292	-0.026	0.039
-464.128	-108.373	0.138	-0.030
-463.113	-157.192	-0.211	0.013
-462.099	103.661	0.162	-0.191
-461.084	10.902	-0.301	-0.230
-460.070	96.694	0.147	0.168
-459.055	-153.106	-0.107	-0.008
-458.040	-200.000	-0.056	-0.269
-457.026	-71.158	-0.098	-0.037
-456.011	-68.938	-0.103	-0.040
-454.997	-125.539	-0.160	-0.024
-453.982	-200.000	-0.015	-0.293
-452.968	-123.220	-0.082	-0.013
-451.953	-113.544	0.108	-0.021
-450.938	-200.000	0.008	0.064
-449.924	44.356	0.201	-0.184
-448.909	-200.000	-0.232	0.000
-447.895	-125.459	-0.185	0.028
-446.880	800.000	0.138	-0.519
-445.865	-169.069	-0.411	0.015
-444.851	183.679	0.092	0.136
-443.836	182.991	-0.031	0.046
-442.822	-163.305	-0.350	-0.017
-441.807	90.258	-0.166	-0.186
-440.792	41.478	0.148	-0.134
-439.778	800.000	0.057	-0.208
-438.763	-165.980	0.371	-0.016
-437.749	4.867	-0.180	-0.132
-436.734	-162.748	-0.099	-0.005
-435.719	-200.000	0.058	0.271
-434.705	800.000	0.046	-0.155
-433.690	415.606	-0.111	0.235
-432.676	-137.185	-0.282	0.032
-431.661	458.593	-0.070	0.155
-430.646	800.000	0.038	-0.136
-429.632	109.697	-0.136	-0.163
-428.617	-89.299	-0.412	-0.121
-427.603	56.577	0.227	0.220
-426.588	161.786	0.057	-0.080
-425.573	342.057	0.052	0.103
-424.559	273.340	-0.035	0.062
-423.544	800.000	0.053	0.168
-422.530	800.000	0.089	0.353
-421.515	-200.000	0.017	-0.237
-420.500	-68.615	0.316	0.122
-419.486	-200.000	0.031	0.219
-418.471	-64.195	-0.190	-0.077
-417.457	-70.547	-0.088	0.033
-416.442	-146.224	-0.052	-0.005
-415.428	334.957	-0.118	0.229
-414.413	-116.339	0.427	0.079
-413.398	-104.001	-0.405	-0.094
-412.384	52.508	0.282	0.269
-411.369	-2.068	0.072	-0.050
-410.355	51.677	-0.090	-0.086
-409.340	-82.333	-0.258	-0.084
-408.325	13.236	0.210	-0.162
-407.311	-64.410	0.260	-0.105
-406.296	-24.102	-0.312	0.186
-405.282	412.932	-0.089	-0.189
-404.267	800.000	-0.087	0.265
-403.252	-60.089	0.228	0.097
-402.238	61.208	0.149	0.147
-401.223	24.288	0.195	0.161
-400.209	-200.000	-0.019	-0.385
-399.194	-200.000	-0.007	0.108
-398.179	-111.018	-0.162	0.033
-397.165	681.690	0.052	0.136
-396.150	-59.214	0.301	0.129
-395.136	-200.000	0.016	0.185
-394.121	108.118	-0.285	-0.339
-393.106	-190.767	0.113	0.001
-392.092	309.472	0.044	-0.082
-391.077	-19.858	-0.095	-0.059
-390.063	-111.593	-0.105	-0.021
-389.048	171.578	0.147	-0.211
-388.033	457.683	0.162	-0.359
-387.019	-57.735	-0.261	0.114
-386.004	-200.000	0.019	0.347
-384.990	-200.000	-0.052	-0.331
-383.975	-132.939	0.272	-0.035
-382.960	285.454	-0.086	0.155
-381.946	-85.767	0.234	-0.072
-380.931	159.291	0.126	0.175
-379.917	-116.811	-0.137	0.025
-378.902	-109.601	-0.224	-0.047
-377.888	800.000	0.036	-0.133
-376.873	-200.000	-0.035	0.239
-375.858	-118.167	0.222	-0.039
-374.844	-136.678	-0.050	-0.006
-373.829	-135.562	0.278	-0.033
-372.815	800.000	-0.096	-0.272
-371.800	-49.906	-0.179	-0.085
-370.785	227.750	-0.048	-0.078
-369.771	800.000	-0.062	-0.172
-368.756	-200.000	-0.027	-0.290
-367.742	-61.336	-0.248	-0.104
-366.727	97.248	-0.216	0.247
-365.712	217.658	-0.140	0.223
-364.698	-15.360	0.222	-0.141
-363.683	-3.356	-0.254	0.177
-362.669	86.836	-0.243	-0.268
-361.654	147.750	0.239	0.321
-360.639	800.000	0.029	0.113
-359.625	-14.499	0.102	0.065
-358.610	171.040	0.220	0.314
-357.596	74.208	0.165	0.173
-356.581	500.550	0.040	-0.091
-355.566	253.516	-0.105	0.178
-354.552	93.926	0.079	-0.090
-353.537	-69.045	-0.065	0.025
-352.523	800.000	0.046	0.140
-351.508	-33.735	0.639	0.351
-350.493	-45.752	-0.179	-0.088
-349.479	-124.242	0.580	-0.090
-348.464	-23.418	-0.320	0.192
-347.450	13.632	0.233	-0.180
-346.435	800.000	0.108	0.468
-345.420	-140.345	-0.074	-0.008
-344.406	-127.130	0.281	-0.041
-343.391	-2.883	0.090	-0.062
-342.377	800.000	0.062	0.258
-341.362	-145.140	-0.147	-0.013
-340.348	-200.000	-0.022	0.181
-339.333	-150.439	-0.235	0.018
-338.318	138.534	0.269	-0.352
-337.304	800.000	-0.050	-0.156
-336.289	-200.000	-0.023	-0.144
-335.275	-18.848	0.146	-0.091
-334.260	-200.000	0.002	-0.171
-333.245	67.666	-0.220	-0.224
-332.231	415.645	-0.116	-0.245
-331.216	5.748	0.428	0.315
-330.202	66.981	0.110	0.112
-329.187	-140.873	-0.350	0.036
-328.172	-200.000	-0.088	0.408
-327.158	-163.175	0.311	0.015
-326.143	800.000	-0.041	-0.130
-325.129	32.150	0.185	0.159
-324.114	75.139	-0.220	-0.231
-323.099	21.406	-0.137	0.111
-322.085	800.000	0.020	0.078
-321.070	114.038	0.283	0.342
-320.056	768.254	-0.079	0.214
-319.041	-154.462	0.211	-0.014
-318.026	187.864	0.084	-0.124
-317.012	39.028	-0.135	-0.120
-315.997	-200.000	-0.017	-0.217
-314.983	-78.833	-0.119	-0.040
-313.968	-112.576	0.232	0.046
-312.953	-24.460	-0.106	-0.063
-311.939	-134.211	-0.264	0.032
-310.924	-143.807	0.131	0.012
-309.910	9.533	0.140	0.105
-308.895	-114.801	0.280	-0.053
-307.880	88.713	-0.078	0.086
-306.866	-167.367	0.213	0.009
-305.851	-93.654	0.085	0.023
-304.837	123.920	-0.135	0.169
-303.822	800.000	-0.092	0.302
-302.807	-111.786	-0.171	0.034
-301.793	-200.000	0.015	-0.130
-300.778	148.189	0.177	0.238
-299.764	47.046	0.165	0.153
-298.749	19.573	-0.084	0.067
-297.735	356.277	0.189	0.374
-296.720	222.629	0.055	0.088
-295.705	-5.623	-0.180	-0.122
-294.691	-186.113	0.324	-0.005
-293.676	57.734	-0.205	-0.199
-292.662	800.000	0.044	-0.165
-291.647	-200.000	0.007	-0.129
-290.632	-200.000	0.030	0.224
-289.618	-47.012	0.230	-0.112
-288.603	-200.000	-0.011	0.048
-287.589	-37.166	0.288	-0.153
-286.574	800.000	-0.061	0.172
-285.559	608.725	-0.087	-0.216
-284.545	800.000	0.138	-0.396
-283.530	82.309	0.117	-0.126
-282.516	27.145	0.145	0.121
-281.501	-156.213	-0.366	-0.023
-280.486	800.000	0.066	-0.259
-279.472	294.333	-0.081	0.147
-278.457	389.911	-0.229	0.471
-277.443	800.000	-0.043	0.128
-276.428	-17.660	-0.074	-0.046
-275.413	383.570	0.180	0.368
-274.399	54.242	0.059	0.056
-273.384	-29.136	-0.115	0.065
-272.370	-113.346	0.203	-0.040
-271.355	415.766	-0.023	0.049
-270.340	14.906	-0.141	-0.110
-269.326	-78.318	0.267	-0.091
-268.311	187.170	-0.132	-0.195
-267.297	-76.180	0.295	-0.103
-266.282	-45.006	0.287	-0.142
-265.267	-29.708	0.178	0.101
-264.253	-79.215	0.167	-0.056
-263.238	66.911	-0.209	-0.211
-262.224	13.519	-0.373	0.287
-261.209	-200.000	0.126	0.000
-260.195	-95.661	-0.220	-0.058
-259.180	544.443	-0.005	0.011
-258.165	-84.703	0.216	0.067
-257.151	-200.000	-0.019	-0.088
-256.136	28.875	0.328	-0.276
-255.122	-200.000	0.002	0.217
-254.107	547.449	0.059	0.140
-253.092	-84.080	-0.265	0.083
-252.078	128.432	-0.214	-0.270
-251.063	150.690	-0.028	0.038
-250.049	-200.000	0.016	-0.230
-249.034	-8.214	-0.142	-0.095
-248.019	47.082	-0.094	-0.087
-247.005	-200.000	-0.006	0.194
-245.990	706.072	-0.018	-0.047
-244.976	-127.228	0.364	0.053
-243.961	8.312	-0.025	-0.019
-242.946	-117.249	0.357	0.064
-241.932	-119.856	-0.275	-0.047
-240.917	-200.000	0.009	-0.131
-239.903	800.000	0.062	-0.203
-238.888	635.346	0.117	-0.295
-237.873	496.986	-0.116	0.265
-236.859	541.216	-0.142	0.335
-235.844	76.451	0.109	0.115
-234.830	80.326	0.172	-0.184
-233.815	-86.462	0.076	-0.023
-232.800	49.133	-0.145	-0.135
-231.786	427.465	-0.105	0.224
-230.771	-24.275	0.084	0.050
-229.757	291.957	-0.057	0.102
-228.742	-18.210	0.213	0.132
-227.727	-52.614	0.330	0.151
-226.713	800.000	-0.064	0.201
-225.698	466.685	0.050	0.112
-224.684	-200.000	0.007	-0.363
-223.669	-121.276	0.221	-0.037
-222.655	-54.593	-0.171	-0.077
-221.640	800.000	-0.029	0.117
-220.625	-25.137	-0.087	-0.051
-219.611	171.978	-0.052	0.075
-218.596	-73.911	0.443	-0.159
-217.582	-54.612	-0.436	0.196
-216.567	110.751	-0.120	-0.143
-215.552	-101.108	-0.083	0.020
-214.538	-200.000	0.046	-0.317
-213.523	800.000	-0.100	0.311
-212.509	379.756	0.062	-0.126
-211.494	800.000	0.053	-0.178
-210.479	24.960	0.289	0.237
-209.465	-0.384	-0.051	0.036
-208.450	-77.110	0.150	0.052
-207.436	-104.671	-0.117	0.027
-206.421	-132.618	-0.272	-0.035
-205.406	12.513	-0.206	-0.157
-204.392	-200.000	0.017	-0.212
-203.377	-200.000	-0.011	0.186
-202.363	424.783	0.062	0.132
-201.348	0.121	0.070	-0.050
-200.333	-200.000	0.007	-0.254
-199.319	117.907	0.107	-0.130
-198.304	-114.155	0.307	-0.059
-197.290	-162.212	-0.283	0.014
-196.275	200.391	-0.120	-0.183
-195.260	-200.000	0.002	-0.157
-194.246	255.231	0.244	-0.415
-193.231	392.919	0.095	0.195
-192.217	-22.528	0.234	-0.140
-191.202	-84.066	-0.274	0.086
-190.187	-200.000	-0.040	-0.349
-189.173	-127.455	-0.111	0.016
-188.158	264.992	0.093	0.161
-187.144	800.000	-0.033	0.134
-186.129	182.455	0.192	0.280
-185.114	-200.000	0.023	-0.127
-184.100	-138.773	-0.159	0.017
-183.085	-43.470	0.093	0.047
-182.071	35.141	0.195	-0.169
-181.056	337.321	0.037	0.071
-180.042	-1.617	0.192	-0.134
-179.027	-61.773	0.151	0.063
-178.012	-73.322	-0.181	0.066
-176.998	-116.349	-0.248	0.045
-175.983	69.822	0.201	-0.205
-174.969	-200.000	0.035	-0.158
-173.954	-165.192	-0.098	-0.004
-172.939	-200.000	0.047	-0.231
-171.925	670.725	0.035	0.088
-170.910	-50.276	0.242	0.113
-169.896	449.365	-0.109	0.238
-168.881	-200.000	0.023	0.238
-167.866	800.000	0.040	-0.133
-166.852	-11.978	-0.187	0.121
-165.837	800.000	0.089	-0.336
-164.823	-15.401	0.266	-0.168
-163.808	-90.621	0.144	0.041
-162.793	-200.000	-0.021	0.109
-161.779	-27.720	-0.227	0.130
-160.764	800.000	-0.025	-0.104
-159.750	-8.037	0.254	-0.169
-158.735	800.000	0.012	0.039
-157.720	1.556	-0.201	0.143
-156.706	-200.000	-0.029	-0.188
-155.691	-135.295	0.264	-0.031
-154.677	38.515	-0.224	-0.197
-153.662	-151.010	-0.217	-0.016
-152.647	-103.568	0.197	0.046
-151.633	-176.173	-0.057	0.001
-150.618	103.466	-0.161	0.186
-149.604	-65.488	0.349	0.138
-148.589	-158.610	0.059	-0.003
-147.574	-200.000	-0.030	0.148
-146.560	130.568	-0.219	0.278
-145.545	-17.433	-0.187	0.116
-144.531	-88.978	0.112	-0.033
-143.516	-62.575	-0.256	0.105
-142.502	13.560	0.312	0.239
-141.487	-46.583	-0.188	-0.091
-140.472	257.697	0.039	0.067
-139.458	-55.920	0.213	-0.094
-138.443	-119.017	-0.093	-0.016
-137.429	-200.000	0.011	-0.095
-136.414	-67.905	-0.203	-0.078
-135.399	-200.000	0.063	-0.321
-134.385	490.462	0.093	-0.210
-133.370	-61.059	-0.389	0.162
-132.356	-88.683	-0.259	-0.076
-131.341	-132.471	0.078	-0.010
-130.326	800.000	0.077	0.264
-129.312	48.925	-0.237	-0.220
-128.297	-25.475	-0.095	0.056
-127.283	-77.727	0.244	0.083
-126.268	94.276	0.120	0.134
-125.253	652.750	-0.019	0.048
-124.239	4.853	-0.148	0.108
-123.224	-80.105	-0.069	0.023
-122.210	-200.000	-0.004	0.061
-121.195	45.836	0.175	-0.160
-120.180	-71.737	-0.238	-0.088
-119.166	800.000	-0.007	-0.030
-118.151	-144.986	0.157	0.014
-117.137	308.548	0.065	0.119
-116.122	175.653	0.125	0.180
-115.107	479.608	0.140	0.313
-114.093	-186.495	-0.256	0.004
-113.078	-167.238	-0.015	-0.001
-112.064	-128.726	-0.150	0.021
-111.049	339.713	-0.025	0.048
-110.034	-200.000	-0.000	0.015
-109.020	-89.241	0.074	0.022
-108.005	3.141	-0.124	0.089
-106.991	121.769	0.077	0.095
-105.976	-47.681	0.255	-0.122
-104.962	-80.264	0.085	-0.028
-103.947	-200.000	0.007	-0.350
-102.932	800.000	-0.108	-0.417
-101.918	-137.294	0.172	-0.019
-100.903	-200.000	-0.001	0.181
-99.889	199.211	0.110	0.166
-98.874	-200.000	-0.038	0.184
-97.859	57.623	0.081	0.078
-96.845	347.222	-0.082	-0.159
-95.830	-200.000	-0.011	0.095
-94.816	111.250	0.132	-0.157
-93.801	800.000	-0.041	0.140
-92.786	-71.632	0.043	0.016
-91.772	61.797	0.095	0.093
-90.757	25.414	-0.077	0.063
-89.743	125.994	-0.178	0.222
-88.728	-33.607	0.376	0.204
-87.713	186.751	-0.067	0.099
-86.699	150.752	0.277	0.372
-85.684	800.000	0.026	0.101
-84.670	66.816	0.097	-0.097
-83.655	-123.818	0.412	-0.064
-82.640	349.130	0.091	0.177
-81.626	800.000	0.064	0.180
-80.611	395.673	0.107	-0.219
-79.597	-115.470	0.179	0.033
-78.582	27.533	-0.019	-0.015
-77.567	800.000	-0.045	0.157
-76.553	-91.950	0.164	0.046
-75.538	12.405	0.226	-0.172
-74.524	94.815	-0.128	0.144
-73.509	717.765	-0.127	-0.332
-72.494	800.000	0.056	-0.189
-71.480	-164.699	-0.069	-0.003
-70.465	-200.000	0.000	-0.236
-69.451	-98.232	-0.413	0.104
-68.436	74.056	-0.138	0.143
-67.422	-118.201	0.136	0.024
-66.407	-115.010	0.123	-0.023
-65.392	242.934	0.259	0.427
-64.378	786.173	0.013	0.035
-63.363	12.611	0.264	0.201
-62.349	122.822	-0.182	0.224
-61.334	-3.527	-1.291	-0.885
-60.319	207.281	0.454	0.697
-59.305	246.759	-0.564	-0.937
-58.290	192.813	0.992	1.475
-57.276	459.731	0.704	1.543
-56.261	-200.000	112.809	659.263
-55.246	536.204	1515.660	3542.454
-54.232	174.969	2695.499	3843.102
-53.217	102.306	2317.746	2666.978
-52.203	35.174	2064.214	1781.219
-51.188	30.379	1980.735	1666.206
-50.173	28.792	1964.598	1638.424
-49.159	47.026	2023.968	1853.474
-48.144	46.386	2039.442	1861.788
-47.130	30.791	1997.742	1683.973
-46.115	28.410	1987.636	1653.936
-45.100	28.364	1984.270	1650.648
-44.086	28.433	1981.658	1649.032
-43.071	28.342	1979.187	1646.095
-42.057	28.149	1978.226	1643.492
-41.042	28.232	1976.761	1642.961
-40.027	28.368	1974.132	1641.923
-39.013	28.332	1972.235	1639.961
-37.998	28.342	1970.612	1638.641
-36.984	28.387	1968.141	1636.915
-35.969	28.340	1966.771	1635.294
-34.954	28.296	1965.148	1633.486
-33.940	28.444	1963.707	1633.542
-32.925	28.519	1962.104	1632.813
-31.911	28.467	1960.180	1630.688
-30.896	28.445	1958.763	1629.243
-29.881	28.422	1957.488	1627.919
-28.867	28.504	1955.862	1627.227
-27.852	28.533	1953.980	1625.852
-26.838	28.525	1952.447	1624.442
-25.823	28.496	1950.870	1622.814
-24.809	28.424	1948.720	1620.318
-23.794	28.426	1947.170	1618.990
-22.779	28.497	1944.941	1617.698
-21.765	28.438	1943.567	1615.966
-20.750	28.427	1942.219	1614.686
-19.736	28.451	1940.591	1613.479
-18.721	28.448	1938.691	1611.805
-17.706	28.507	1937.421	1611.211
-16.692	28.429	1935.772	1609.084
-15.677	28.484	1933.547	1607.653
-14.663	28.448	1932.871	1606.711
-13.648	28.490	1931.611	1605.975
-12.633	28.434	1930.331	1604.351
-11.619	28.485	1928.844	1603.496
-10.604	28.435	1927.774	1602.114
-9.590	28.387	1926.611	1600.664
-8.575	28.425	1924.719	1599.361
-7.560	28.470	1923.228	1598.449
-6.546	28.496	1921.766	1597.398
-5.531	28.449	1920.980	1596.268
-4.517	28.397	1919.909	1594.860
-3.502	28.407	1919.160	1594.261
-2.487	28.411	1917.665	1592.991
-1.473	28.443	1916.166	1591.962
-0.458	28.415	1911.473	1587.757
0.556	29.115	1891.881	1559.600
1.571	24.740	1872.861	1507.005
2.586	20.734	1894.718	1490.234
3.600	19.633	1929.653	1507.966
4.615	19.036	1923.017	1497.458
5.629	14.375	1822.093	1380.216
6.644	6.723	1707.925	1233.997
7.659	3.340	1674.186	1183.552
8.673	3.080	1671.046	1179.239
9.688	3.133	1669.517	1178.461
10.702	3.139	1667.928	1177.277
11.717	3.128	1665.327	1175.255
12.731	3.535	1663.817	1177.194
13.746	8.507	1675.837	1223.723
14.761	16.476	1692.745	1297.350
15.775	20.393	1699.016	1332.155
16.790	20.436	1698.297	1331.800
17.804	19.503	1695.312	1322.204
18.819	18.532	1691.780	1311.903
19.834	17.875	1689.742	1305.185
20.848	17.715	1688.557	1302.931
21.863	17.636	1686.730	1300.805
22.877	17.453	1685.255	1298.151
23.892	17.234	1684.194	1295.553
24.907	17.150	1683.348	1294.146
25.921	17.147	1681.942	1292.933
26.936	17.023	1681.396	1291.448
27.950	17.153	1679.911	1291.182
28.965	17.192	1679.336	1290.922
29.980	17.272	1678.763	1290.979
30.994	17.397	1677.410	1290.768
32.009	17.452	1676.363	1290.265
33.023	17.502	1675.682	1290.010
34.038	17.489	1675.136	1289.380
35.053	17.507	1673.459	1288.105
36.067	17.339	1672.419	1285.923
37.082	17.351	1670.892	1284.724
38.096	17.275	1670.155	1283.472
39.111	17.346	1669.469	1283.369
40.126	17.435	1668.686	1283.322
41.140	17.328	1668.060	1281.921
42.155	17.190	1665.873	1279.090
43.169	16.975	1664.711	1276.461
44.184	16.905	1663.409	1274.828
45.199	16.992	1661.522	1273.918
46.213	16.947	1660.783	1272.904
47.228	16.977	1659.432	1271.984
48.242	17.012	1659.006	1271.806
49.257	17.224	1657.978	1272.494
50.271	17.253	1656.641	1271.568
51.286	17.214	1655.375	1270.192
52.301	17.255	1653.876	1269.239
53.315	17.247	1652.467	1267.986
54.330	17.220	1651.135	1266.646
55.344	17.154	1648.832	1264.281
56.359	17.067	1647.677	1262.632
57.374	17.057	1646.531	1261.572
58.388	17.088	1645.419	1260.837
59.403	17.004	1643.914	1258.948
60.417	16.842	1642.749	1256.744
61.432	16.902	1641.816	1256.362
62.447	16.871	1640.277	1254.844
63.461	16.770	1639.374	1253.296
64.476	16.732	1638.590	1252.302
65.490	16.750	1637.152	1251.226
66.505	16.753	1635.695	1250.027
67.520	16.783	1634.969	1249.583
68.534	16.842	1633.644	1248.891
69.549	16.845	1632.717	1248.095
70.563	16.837	1631.554	1247.037
71.578	16.711	1630.418	1245.131
72.593	16.643	1629.444	1243.777
73.607	16.704	1627.740	1242.818
74.622	16.614	1626.929	1241.424
75.636	16.610	1626.100	1240.656
76.651	16.546	1625.588	1239.686
77.666	16.714	1624.234	1239.770
78.680	16.625	1623.784	1238.670
79.695	16.677	1623.021	1238.359
80.709	16.809	1621.794	1238.279
81.724	16.867	1620.889	1237.902
82.739	17.021	1619.907	1238.163
83.753	16.929	1619.738	1237.252
84.768	17.075	1618.344	1237.145
85.782	17.171	1618.204	1237.627
86.797	17.292	1617.189	1237.622
87.812	17.435	1616.410	1237.955
88.826	17.318	1615.155	1236.031
89.841	17.230	1613.775	1234.233
90.855	17.247	1612.443	1233.228
91.870	17.254	1612.557	1233.251
92.884	17.368	1611.119	1232.875
93.899	17.423	1609.761	1232.119
94.914	17.359	1609.115	1231.058
95.928	17.430	1607.229	1230.015
96.943	17.459	1606.339	1229.434
97.957	17.391	1604.640	1227.536
98.972	17.385	1603.193	1226.276
99.987	17.266	1602.318	1224.642
101.001	17.377	1600.127	1223.656
102.016	17.361	1598.783	1222.408
103.030	17.343	1597.599	1221.267
104.045	17.294	1596.615	1220.052
105.060	17.284	1595.031	1218.661
106.074	17.296	1593.774	1217.683
107.089	17.153	1591.951	1215.159
108.103	16.887	1589.717	1211.441
109.118	16.754	1588.436	1209.410
110.133	16.831	1587.128	1208.858
111.147	16.764	1585.980	1207.398
112.162	16.861	1584.542	1206.889
113.176	16.772	1583.373	1205.255
114.191	16.875	1581.886	1204.749
115.206	16.904	1580.987	1204.165
116.220	16.988	1579.574	1203.576
117.235	16.862	1578.654	1201.875
118.249	16.967	1576.562	1200.921
119.264	16.899	1575.425	1199.471
120.279	16.834	1574.344	1198.077
121.293	16.835	1572.280	1196.409
122.308	16.847	1570.628	1195.131
123.322	16.694	1569.635	1193.191
124.337	16.671	1567.813	1191.539
125.352	16.556	1566.731	1189.800
126.366	16.582	1565.898	1189.247
127.381	16.704	1564.263	1188.757
128.395	16.641	1563.376	1187.535
129.410	16.606	1562.267	1186.342
130.424	16.721	1560.438	1185.657
131.439	16.683	1559.544	1184.606
132.454	16.773	1558.555	1184.376
133.468	16.855	1557.119	1183.752
134.483	16.952	1554.999	1182.717
135.497	16.874	1554.229	1181.484
136.512	16.902	1553.289	1180.859
137.527	16.981	1551.755	1180.138
138.541	16.947	1550.686	1178.981
139.556	16.964	1549.602	1178.170
140.570	17.011	1548.212	1177.340
141.585	17.173	1546.378	1176.959
142.600	17.229	1545.593	1176.645
143.614	17.349	1544.592	1176.609
144.629	17.331	1543.564	1175.599
145.643	17.410	1542.938	1175.562
146.658	17.392	1541.388	1174.153
147.673	17.313	1539.799	1172.297
148.687	17.245	1538.081	1170.415
149.702	17.178	1536.362	1168.544
150.716	17.100	1534.425	1166.432
151.731	17.047	1533.275	1165.089
152.746	17.002	1532.412	1164.022
153.760	17.073	1530.472	1162.931
154.775	17.064	1529.774	1162.240
155.789	17.204	1528.736	1162.305
156.804	17.276	1527.258	1161.566
157.819	17.324	1526.271	1161.047
158.833	17.280	1525.474	1160.037
159.848	17.382	1523.684	1159.266
160.862	17.516	1523.006	1159.562
161.877	17.539	1522.047	1158.885
162.892	17.425	1520.783	1157.042
163.906	17.193	1518.908	1153.938
164.921	17.115	1517.388	1152.155
165.935	17.115	1516.484	1151.367
166.950	17.186	1515.338	1150.874
167.964	17.165	1514.911	1150.307
168.979	17.175	1513.455	1149.164
169.994	17.198	1512.943	1148.827
171.008	17.244	1511.430	1147.889
172.023	17.181	1510.361	1146.556
173.037	17.329	1509.076	1146.471
174.052	17.469	1507.844	1146.381
175.067	17.546	1506.753	1145.967
176.081	17.284	1505.934	1143.480
177.096	17.219	1504.067	1141.528
178.110	17.138	1502.727	1139.864
179.125	17.196	1501.694	1139.369
180.140	17.214	1500.907	1138.792
181.154	17.214	1499.934	1137.953
182.169	17.242	1498.854	1137.218
183.183	17.327	1497.973	1137.015
184.198	17.412	1496.741	1136.553
185.213	17.508	1495.882	1136.440
186.227	17.513	1495.081	1135.760
187.242	17.581	1493.769	1135.119
188.256	17.552	1492.868	1134.137
189.271	17.657	1491.683	1133.837
190.286	17.716	1490.922	1133.550
191.300	17.749	1489.670	1132.718
192.315	17.335	1488.407	1128.913
193.329	17.110	1486.659	1125.992
194.344	17.147	1485.148	1124.992
195.359	17.230	1484.420	1124.894
196.373	17.310	1483.564	1124.670
197.388	17.414	1482.520	1124.470
198.402	17.513	1481.593	1124.318
199.417	17.634	1480.835	1124.443
200.432	17.696	1480.128	1124.220
201.446	17.860	1478.919	1124.282
202.461	17.931	1478.303	1124.182
203.475	17.909	1477.764	1123.528
204.490	18.058	1476.199	1123.217
205.504	17.913	1474.839	1121.132
206.519	17.760	1473.368	1118.908
207.534	17.698	1471.948	1117.327
208.548	17.636	1470.812	1115.956
209.563	17.615	1470.399	1115.405
210.577	17.734	1469.260	1115.226
211.592	17.715	1468.911	1114.738
212.607	17.676	1468.018	1113.704
213.621	17.875	1466.850	1114.021
214.636	17.987	1466.597	1114.456
215.650	17.822	1465.794	1112.674
216.665	17.877	1464.550	1111.992
217.680	17.864	1463.853	1111.277
218.694	18.056	1462.916	1111.715
219.709	18.080	1462.543	1111.490
220.723	18.085	1461.331	1110.502
221.738	18.070	1460.416	1109.613
222.753	17.998	1459.470	1108.327
223.767	17.984	1458.389	1107.320
224.782	17.890	1457.636	1106.041
225.796	18.051	1456.327	1105.993
226.811	18.134	1456.047	1106.220
227.826	18.158	1455.127	1105.577
228.840	18.237	1453.663	1104.874
229.855	18.063	1452.883	1103.063
230.869	17.957	1452.164	1101.738
231.884	18.003	1450.897	1100.971
232.899	17.937	1449.632	1099.494
233.913	17.920	1448.338	1098.303
234.928	17.852	1447.115	1096.842
235.942	17.865	1445.990	1095.972
236.957	17.766	1444.698	1094.263
237.972	17.852	1443.421	1093.751
238.986	17.797	1442.536	1092.634
240.001	17.836	1441.717	1092.165
241.015	17.878	1440.536	1091.444
242.030	17.894	1439.197	1090.434
243.045	18.061	1438.083	1090.560
244.059	18.161	1437.378	1090.567
245.074	18.013	1437.160	1089.361
246.088	18.032	1436.349	1088.769
247.103	18.135	1435.532	1088.710
248.117	18.186	1434.823	1088.398
249.132	18.222	1434.057	1087.952
250.147	18.372	1433.951	1088.729
251.161	18.527	1433.299	1089.120
252.176	18.730	1432.519	1089.719
253.190	18.810	1431.988	1089.726
254.205	18.772	1430.954	1088.601
255.220	18.834	1430.380	1088.460
256.234	18.825	1429.371	1087.544
257.249	18.861	1428.741	1087.192
258.263	18.790	1427.376	1085.608
259.278	18.812	1426.545	1085.022
260.293	18.791	1425.524	1084.019
261.307	18.701	1425.281	1083.168
262.322	18.921	1424.087	1083.553
263.336	18.951	1423.697	1083.349
264.351	18.934	1422.767	1082.437
265.366	18.994	1421.826	1082.002
266.380	18.898	1421.352	1080.941
267.395	19.014	1419.859	1080.438
268.409	19.008	1418.675	1079.403
269.424	18.822	1418.074	1077.686
270.439	18.935	1416.572	1077.160
271.453	18.904	1415.241	1075.855
272.468	18.863	1414.687	1075.083
273.482	18.828	1413.410	1073.800
274.497	18.755	1413.184	1073.079
275.512	18.725	1411.974	1071.875
276.526	18.798	1411.414	1071.814
277.541	18.804	1410.192	1070.828
278.555	18.755	1409.434	1069.849
279.570	18.881	1408.362	1069.725
280.585	18.934	1407.493	1069.298
281.599	19.126	1406.569	1069.697
282.614	19.052	1406.204	1068.865
283.628	18.976	1404.789	1067.221
284.643	18.890	1403.480	1065.602
285.657	18.867	1402.538	1064.653
286.672	18.933	1401.681	1064.313
287.687	18.840	1401.033	1063.150
288.701	18.948	1399.549	1062.602
289.716	18.975	1398.939	1062.211
290.730	18.951	1398.187	1061.395
291.745	19.013	1396.656	1060.523
292.760	18.980	1396.262	1059.924
293.774	18.989	1395.242	1059.113
294.789	19.006	1394.652	1058.676
295.803	19.078	1393.732	1058.328
296.818	19.195	1392.771	1058.220
297.833	19.141	1391.618	1056.921
298.847	19.036	1390.742	1055.517
299.862	19.063	1389.741	1054.833
300.876	19.051	1388.739	1053.900
301.891	19.043	1387.734	1053.001
302.906	19.089	1387.317	1052.872
303.920	19.234	1386.728	1053.215
304.935	19.352	1385.642	1053.020
305.949	19.280	1385.222	1052.169
306.964	19.417	1385.110	1052.826
307.979	19.544	1383.366	1052.181
308.993	19.415	1382.436	1050.594
310.008	19.372	1381.380	1049.439
311.022	19.395	1380.641	1048.923
312.037	19.351	1379.729	1047.870
313.052	19.542	1378.636	1048.107
314.066	19.412	1377.301	1046.213
315.081	19.278	1376.448	1044.660
316.095	19.184	1375.114	1042.987
317.110	19.048	1374.395	1041.525
318.125	19.037	1373.436	1040.635
319.139	19.076	1372.690	1040.217
320.154	19.122	1371.236	1039.297
321.168	19.271	1370.177	1039.306
322.183	19.170	1369.128	1037.808
323.197	19.324	1368.091	1037.859
324.212	19.211	1367.839	1036.895
325.227	19.218	1367.080	1036.270
326.241	19.350	1366.157	1036.271
327.256	19.308	1364.937	1035.004
328.270	19.265	1364.282	1034.154
329.285	19.315	1363.263	1033.591
330.300	19.337	1362.056	1032.714
331.314	19.249	1361.336	1031.551
332.329	19.223	1360.866	1030.950
333.343	19.345	1359.372	1030.456
334.358	19.326	1359.227	1030.144
335.373	19.423	1358.453	1030.041
336.387	19.440	1357.573	1029.383
337.402	19.481	1356.801	1028.953
338.416	19.440	1356.251	1028.198
339.431	19.571	1355.565	1028.370
340.446	19.562	1354.955	1027.763
341.460	19.660	1353.952	1027.496
342.475	19.672	1352.890	1026.669
343.489	19.894	1352.115	1027.307
344.504	19.954	1351.080	1026.785
345.519	19.895	1350.430	1025.848
346.533	20.015	1349.579	1025.827
347.548	19.978	1348.777	1024.902
348.562	20.074	1347.936	1024.742
349.577	20.181	1346.698	1024.344
350.592	20.012	1346.306	1022.956
351.606	19.858	1345.029	1020.985
352.621	19.733	1344.030	1019.399
353.635	19.724	1342.646	1018.208
354.650	19.567	1341.659	1016.446
355.665	19.600	1341.000	1016.051
356.679	19.630	1340.000	1015.377
357.694	19.778	1338.970	1015.376
358.708	19.775	1337.990	1014.526
359.723	19.834	1336.978	1014.014
360.738	19.913	1335.758	1013.462
361.752	19.871	1334.850	1012.437
362.767	19.807	1333.917	1011.267
363.781	19.871	1333.538	1011.265
364.796	19.834	1332.635	1010.275
365.810	19.981	1331.463	1010.154
366.825	20.106	1331.025	1010.463
367.840	20.239	1330.356	1010.639
368.854	20.273	1329.520	1010.110
369.869	20.247	1329.502	1009.862
370.883	20.332	1328.449	1009.461
371.898	20.355	1327.807	1009.021
372.913	20.266	1327.057	1007.846
373.927	20.141	1326.165	1006.351
374.942	20.226	1325.268	1006.076
375.956	20.294	1324.801	1006.026
376.971	20.295	1323.715	1005.119
377.986	20.235	1322.970	1004.118
379.000	20.212	1322.430	1003.482
380.015	20.288	1321.534	1003.153
381.029	20.508	1320.516	1003.566
382.044	20.544	1319.917	1003.227
383.059	20.499	1319.501	1002.564
384.073	20.460	1318.583	1001.555
385.088	20.464	1317.790	1000.882
386.102	20.520	1316.956	1000.487
387.117	20.582	1316.528	1000.430
388.132	20.415	1315.789	998.820
389.146	20.363	1314.299	997.300
390.161	20.224	1313.894	996.103
391.175	20.349	1313.020	996.071
392.190	20.218	1312.486	994.825
393.205	20.362	1311.332	994.689
394.219	20.432	1310.459	994.341
395.234	20.520	1309.438	993.983
396.248	20.472	1308.350	992.794
397.263	20.415	1306.316	990.838
398.278	20.444	1304.720	989.706
399.292	20.312	1303.565	987.986
400.307	20.276	1302.623	986.983
401.321	20.213	1301.694	985.834
402.336	20.131	1300.609	984.461
403.350	20.207	1299.856	984.231
404.365	20.250	1298.717	983.526
405.380	20.292	1297.900	983.059
406.394	20.316	1297.383	982.718
407.409	20.423	1297.005	982.951
408.423	20.388	1296.494	982.277
409.438	20.602	1295.582	982.710
410.453	20.697	1294.674	982.470
411.467	20.638	1294.531	981.939
412.482	20.824	1294.016	982.514
413.496	20.884	1292.744	981.800
414.511	20.934	1291.962	981.400
415.526	20.969	1291.387	981.071
416.540	20.948	1291.568	981.003
417.555	21.059	1290.495	980.724
418.569	21.009	1290.037	980.009
419.584	21.033	1289.238	979.451
420.599	20.899	1288.704	978.205
421.613	144.840	1434.777	1796.127
422.628	139.780	1456.000	1796.217
