DTS Sentinel unit serial number:	SN413079Multiplexer serial number:	ORYXHardware model number:	OX4-SRSoftware version number:	ORYX F/W v4.00 Oryx Data Collector v3.7.2.0data status	okinstallation	princeton_trtdifferential loss correction	single-endedforward channel	channel 4reverse channel	N/Adate	2019/09/14time	23:21:35forward acquisition time	60.00reverse acquisition time	0.00gamma	496.2192k internal	0.2306k external	0.2306temperature offset calibration	1.0055default loss term (dB/km)	0.3790temperature slope calibration	1.0000multiplexer offset coefficient	1.0000multiplexer slope coefficient	1.0000fibre end	0.00T internal ref (°C)	32.37T ext. ref 1 (°C)	4.64T ext. ref 2 (°C)	27.41length (m)	temperature (°C)	Stokes	anti-Stokes-747.200	33.577	0.251	0.222
-746.185	-78.248	-0.147	0.051
-745.171	491.430	0.112	0.261
-744.156	-59.985	-0.391	0.170
-743.142	-148.812	0.373	0.031
-742.127	-127.754	-0.254	0.037
-741.112	478.256	-0.104	-0.239
-740.098	-200.000	-0.056	0.414
-739.083	135.690	-0.170	0.225
-738.069	-200.000	0.042	-0.323
-737.054	270.993	0.038	0.069
-736.039	800.000	0.115	-0.448
-735.025	125.802	-0.086	-0.111
-734.010	626.224	-0.080	-0.205
-732.996	199.994	-0.009	0.014
-731.981	-200.000	0.017	0.127
-730.966	-89.815	0.178	-0.053
-729.952	-107.904	0.308	0.068
-728.937	-27.565	-0.196	-0.116
-727.923	800.000	-0.098	0.315
-726.908	-33.563	-0.297	0.167
-725.894	151.835	-0.277	-0.384
-724.879	-200.000	-0.015	-0.137
-723.864	-104.523	-0.038	0.009
-722.850	-126.913	0.030	0.004
-721.835	-52.040	0.132	0.062
-720.821	-200.000	-0.079	-0.448
-719.806	-103.762	0.111	-0.026
-718.791	554.521	0.031	-0.075
-717.777	-7.059	0.416	-0.287
-716.762	800.000	0.056	-0.218
-715.748	-200.000	0.014	-0.152
-714.733	295.469	-0.090	0.167
-713.718	11.532	0.080	-0.062
-712.704	800.000	0.012	-0.050
-711.689	132.406	-0.102	-0.133
-710.675	153.489	-0.054	0.074
-709.660	-54.539	0.219	-0.101
-708.645	13.736	0.083	0.066
-707.631	800.000	0.066	0.225
-706.616	-200.000	-0.047	-0.308
-705.602	-38.493	-0.166	-0.089
-704.587	-54.389	-0.208	-0.096
-703.572	-200.000	0.001	0.322
-702.558	441.171	0.092	0.205
-701.543	-61.694	-0.334	0.142
-700.529	-153.122	0.285	-0.020
-699.514	-14.213	0.222	0.145
-698.499	-187.387	0.033	-0.000
-697.485	-20.606	0.127	0.079
-696.470	467.092	0.206	-0.469
-695.456	-68.761	0.107	0.042
-694.441	220.012	0.178	-0.289
-693.426	159.570	-0.112	0.158
-692.412	246.788	-0.145	-0.248
-691.397	-25.357	0.071	-0.043
-690.383	-46.342	-0.047	-0.024
-689.368	16.729	-0.066	0.053
-688.354	-38.967	0.148	0.079
-687.339	93.940	-0.060	-0.069
-686.324	800.000	0.168	-0.489
-685.310	203.387	0.045	-0.071
-684.295	-153.799	0.249	0.017
-683.281	793.243	-0.110	0.308
-682.266	-39.429	-0.068	-0.036
-681.251	-82.068	0.221	0.073
-680.237	-200.000	0.036	0.299
-679.222	100.333	0.079	-0.092
-678.208	-49.356	-0.233	0.113
-677.193	-123.056	0.383	-0.062
-676.178	-142.458	-0.143	-0.014
-675.164	800.000	0.053	-0.223
-674.149	-200.000	0.008	-0.201
-673.135	3.250	0.278	-0.205
-672.120	-200.000	0.015	0.100
-671.105	-200.000	0.006	-0.152
-670.091	-191.710	-0.132	0.001
-669.076	2.228	0.167	0.123
-668.062	195.455	-0.056	0.087
-667.047	95.458	0.115	-0.133
-666.032	-86.523	0.275	0.086
-665.018	-140.458	0.390	0.041
-664.003	-28.663	0.393	-0.229
-662.989	-62.574	-0.098	0.041
-661.974	800.000	0.040	-0.147
-660.959	-68.014	-0.037	0.014
-659.945	98.206	-0.128	0.149
-658.930	-48.990	-0.100	0.049
-657.916	-70.078	0.179	0.069
-656.901	-70.962	-0.092	-0.035
-655.886	-1.569	0.066	0.047
-654.872	157.735	0.172	-0.242
-653.857	23.940	0.181	-0.151
-652.843	-200.000	0.022	-0.307
-651.828	21.943	-0.066	0.054
-650.814	53.413	-0.125	-0.122
-649.799	132.555	0.190	-0.249
-648.784	243.779	-0.199	0.338
-647.770	301.452	0.107	0.201
-646.755	-23.219	-0.288	-0.176
-645.741	117.813	-0.161	0.201
-644.726	62.835	0.192	0.194
-643.711	-182.280	0.283	0.005
-642.697	-102.010	0.191	0.047
-641.682	251.271	0.026	-0.046
-640.668	-66.471	-0.076	-0.031
-639.653	-152.988	-0.175	-0.012
-638.638	14.949	0.261	0.207
-637.624	800.000	0.045	0.192
-636.609	517.081	-0.095	-0.225
-635.595	-22.220	0.145	-0.089
-634.580	-200.000	0.079	-0.428
-633.565	800.000	0.025	-0.087
-632.551	-129.098	0.389	-0.055
-631.536	-138.632	-0.511	-0.057
-630.522	-69.503	-0.293	-0.114
-629.507	-83.104	-0.214	0.070
-628.492	41.527	-0.171	0.157
-627.478	-51.593	0.100	0.047
-626.463	-168.534	-0.225	-0.009
-625.449	20.968	0.404	0.331
-624.434	-17.525	0.247	-0.157
-623.419	-142.679	0.119	-0.012
-622.405	202.703	0.119	-0.187
-621.390	654.003	0.122	-0.317
-620.376	105.233	0.051	0.061
-619.361	800.000	-0.024	0.081
-618.346	190.265	-0.342	0.519
-617.332	-123.228	0.060	0.010
-616.317	-110.121	0.237	0.050
-615.303	-66.983	-0.255	0.102
-614.288	-87.779	0.279	-0.085
-613.273	-200.000	-0.054	0.246
-612.259	178.581	0.068	0.100
-611.244	-2.104	0.371	0.264
-610.230	-200.000	0.013	0.076
-609.215	705.902	0.113	0.303
-608.201	97.541	0.252	-0.293
-607.186	702.193	-0.060	-0.161
-606.171	288.445	0.085	0.155
-605.157	-200.000	-0.009	-0.096
-604.142	-200.000	0.027	0.152
-603.128	-89.015	0.206	0.062
-602.113	-142.545	0.344	0.034
-601.098	0.651	-0.224	-0.162
-600.084	281.946	-0.148	-0.268
-599.069	33.819	0.069	-0.061
-598.055	-90.776	0.173	-0.051
-597.040	88.047	-0.047	-0.052
-596.025	321.294	-0.112	-0.216
-595.011	104.271	-0.126	-0.150
-593.996	23.680	0.061	-0.051
-592.982	-8.493	-0.139	0.095
-591.967	104.314	-0.144	-0.171
-590.952	28.014	-0.135	0.115
-589.938	315.882	-0.145	-0.277
-588.923	104.496	-0.283	-0.337
-587.909	92.967	0.026	0.030
-586.894	22.088	-0.046	0.038
-585.879	-200.000	-0.001	0.178
-584.865	-121.191	0.350	0.059
-583.850	624.786	0.045	0.116
-582.836	491.430	0.061	0.141
-581.821	-167.776	0.325	0.013
-580.806	389.802	-0.082	0.171
-579.792	-200.000	-0.027	-0.208
-578.777	24.917	0.130	-0.109
-577.763	-98.527	-0.196	-0.051
-576.748	19.561	0.137	0.112
-575.733	-64.578	0.166	0.068
-574.719	149.374	-0.126	-0.173
-573.704	25.588	-0.122	0.103
-572.690	-84.661	-0.437	0.139
-571.675	114.850	-0.131	-0.161
-570.661	-200.000	-0.041	0.209
-569.646	-200.000	-0.031	0.180
-568.631	-78.715	0.047	-0.016
-567.617	487.846	-0.087	-0.201
-566.602	314.240	-0.110	0.209
-565.588	-200.000	0.036	-0.246
-564.573	-67.956	0.250	0.098
-563.558	364.232	0.029	0.059
-562.544	112.635	-0.185	-0.226
-561.529	-24.504	-0.290	-0.174
-560.515	-76.055	-0.277	0.099
-559.500	67.111	-0.067	-0.068
-558.485	-200.000	-0.058	-0.386
-557.471	800.000	0.088	-0.270
-556.456	-55.444	0.180	0.081
-555.442	-107.720	0.527	0.116
-554.427	235.494	0.088	0.147
-553.412	-200.000	-0.001	-0.149
-552.398	-2.612	-0.177	-0.125
-551.383	154.697	0.174	-0.242
-550.369	181.823	-0.115	-0.171
-549.354	-123.989	0.253	0.040
-548.339	346.671	0.090	0.180
-547.325	-42.122	-0.085	-0.044
-546.310	-68.208	-0.310	-0.122
-545.296	-200.000	0.040	0.234
-544.281	16.947	0.048	0.039
-543.266	800.000	-0.048	0.156
-542.252	97.105	-0.192	0.222
-541.237	278.821	0.114	-0.206
-540.223	30.249	-0.362	-0.312
-539.208	-82.838	0.275	-0.090
-538.193	712.062	-0.069	0.184
-537.179	15.201	-0.350	0.277
-536.164	237.021	-0.226	-0.378
-535.150	293.023	-0.044	0.081
-534.135	261.473	0.048	0.083
-533.121	-200.000	-0.037	-0.275
-532.106	-199.565	0.115	-0.001
-531.091	-200.000	0.030	-0.137
-530.077	-59.326	0.131	-0.057
-529.062	-82.468	0.206	0.067
-528.048	-200.000	-0.038	-0.209
-527.033	-114.365	0.119	0.023
-526.018	-90.782	0.141	-0.041
-525.004	59.329	0.160	-0.158
-523.989	213.319	-0.078	-0.124
-522.975	-43.539	-0.358	0.182
-521.960	507.967	-0.055	-0.128
-520.945	-49.305	0.361	-0.174
-519.931	4.040	-0.097	0.072
-518.916	800.000	-0.072	-0.295
-517.902	11.438	0.251	-0.194
-516.887	-200.000	0.008	-0.192
-515.872	31.676	-0.144	-0.125
-514.858	-16.139	0.192	0.123
-513.843	228.555	0.080	-0.132
-512.829	-200.000	-0.024	0.190
-511.814	691.306	-0.039	0.103
-510.799	-21.746	-0.082	-0.050
-509.785	-200.000	-0.022	-0.106
-508.770	-47.955	-0.193	-0.094
-507.756	800.000	-0.118	-0.401
-506.741	523.564	-0.027	0.064
-505.726	159.744	0.146	0.204
-504.712	-200.000	0.008	0.249
-503.697	28.229	0.316	0.269
-502.683	800.000	0.084	0.280
-501.668	-200.000	-0.047	0.265
-500.653	-200.000	0.060	0.407
-499.639	800.000	0.084	0.284
-498.624	-12.771	-0.279	0.183
-497.610	-125.678	0.470	-0.072
-496.595	78.861	-0.217	0.234
-495.581	-2.281	0.152	-0.107
-494.566	104.184	0.059	-0.069
-493.551	-63.033	0.247	-0.103
-492.537	-75.533	-0.272	-0.097
-491.522	800.000	0.010	-0.040
-490.508	-37.198	-0.072	0.039
-489.493	513.017	-0.091	0.214
-488.478	-56.678	0.305	-0.136
-487.464	-151.367	0.273	0.020
-486.449	-103.718	0.130	-0.031
-485.435	-99.164	0.095	-0.024
-484.420	133.791	-0.183	-0.238
-483.405	800.000	-0.097	0.342
-482.391	335.747	0.024	0.048
-481.376	-118.860	-0.421	0.074
-480.362	137.604	0.205	-0.270
-479.347	67.197	0.134	-0.137
-478.332	-94.541	0.090	-0.025
-477.318	-42.885	-0.259	-0.133
-476.303	319.484	0.058	-0.111
-475.289	-39.226	0.196	-0.104
-474.274	237.579	-0.162	0.270
-473.259	72.627	0.139	-0.146
-472.245	-107.981	-0.131	-0.029
-471.230	-115.376	0.032	-0.006
-470.216	7.031	-0.132	-0.099
-469.201	-103.682	-0.167	-0.039
-468.186	-79.104	-0.262	0.090
-467.172	299.747	-0.277	-0.514
-466.157	800.000	-0.101	-0.355
-465.143	109.270	0.162	-0.196
-464.128	-200.000	-0.039	0.184
-463.113	800.000	-0.143	0.401
-462.099	4.484	-0.216	-0.159
-461.084	-77.386	0.112	0.039
-460.070	-200.000	-0.006	0.250
-459.055	365.095	0.132	-0.267
-458.040	800.000	-0.049	-0.166
-457.026	10.189	-0.296	-0.227
-456.011	516.142	0.129	0.303
-454.997	240.092	0.114	-0.191
-453.982	67.432	-0.039	0.040
-452.968	-101.371	-0.175	-0.043
-451.953	666.577	0.151	0.392
-450.938	120.350	-0.075	-0.094
-449.924	-197.815	0.133	0.001
-448.909	432.232	0.193	0.421
-447.895	73.090	0.192	-0.202
-446.880	-16.981	-0.156	0.099
-445.865	-114.492	-0.532	-0.103
-444.851	-107.986	-0.052	0.011
-443.836	-99.385	-0.252	-0.064
-442.822	107.721	-0.057	-0.069
-441.807	800.000	0.074	-0.265
-440.792	-160.961	-0.115	-0.006
-439.778	800.000	-0.077	0.238
-438.763	-147.573	0.068	-0.006
-437.749	-59.968	0.236	-0.101
-436.734	88.043	-0.195	-0.218
-435.719	-200.000	-0.025	0.265
-434.705	41.049	-0.191	0.173
-433.690	-73.713	0.296	-0.108
-432.676	-64.397	-0.482	-0.197
-431.661	-200.000	-0.043	0.280
-430.646	-58.377	-0.077	0.034
-429.632	-131.561	0.116	-0.015
-428.617	176.041	-0.085	-0.124
-427.603	40.375	0.062	0.056
-426.588	209.016	-0.161	-0.254
-425.573	-39.768	0.279	0.146
-424.559	270.758	0.149	-0.263
-423.544	-24.243	-0.145	-0.087
-422.530	700.475	0.076	-0.202
-421.515	273.111	-0.130	-0.230
-420.500	800.000	0.088	0.362
-419.486	-96.908	-0.199	0.052
-418.471	-116.618	0.283	-0.052
-417.457	67.051	-0.121	0.124
-416.442	288.440	-0.122	0.221
-415.428	-82.933	-0.268	-0.087
-414.413	800.000	0.044	-0.164
-413.398	75.557	0.221	-0.235
-412.384	-63.372	-0.188	-0.078
-411.369	10.395	0.297	0.227
-410.355	-200.000	0.025	0.294
-409.340	-86.333	0.056	-0.017
-408.325	-47.823	-0.107	-0.052
-407.311	-71.200	-0.298	0.112
-406.296	345.702	0.012	-0.025
-405.282	7.454	0.187	0.141
-404.267	523.254	-0.107	0.253
-403.252	191.971	0.268	0.406
-402.238	196.803	-0.145	0.221
-401.223	-200.000	-0.002	0.056
-400.209	119.150	0.130	-0.162
-399.194	557.089	0.047	-0.112
-398.179	-200.000	0.005	0.064
-397.165	800.000	-0.095	-0.328
-396.150	-27.273	0.116	-0.068
-395.136	800.000	-0.088	-0.278
-394.121	318.248	-0.149	-0.283
-393.106	-178.817	0.276	0.006
-392.092	101.007	0.222	0.259
-391.077	343.665	0.109	-0.214
-390.063	800.000	-0.096	-0.290
-389.048	-131.405	0.121	0.016
-388.033	-200.000	0.003	-0.067
-387.019	256.388	-0.172	-0.297
-386.004	-96.924	-0.290	-0.076
-384.990	-49.209	-0.188	0.090
-383.975	-43.151	0.155	-0.079
-382.960	-109.684	-0.125	0.026
-381.946	-11.293	0.155	-0.102
-380.931	13.031	-0.035	0.027
-379.917	-95.055	0.486	-0.132
-378.902	-200.000	0.039	0.285
-377.888	-65.891	-0.216	-0.087
-376.873	-57.183	-0.460	0.203
-375.858	384.450	0.065	0.133
-374.844	-149.826	0.280	-0.022
-373.829	223.748	-0.243	0.394
-372.815	313.795	-0.089	-0.168
-371.800	91.213	0.068	0.077
-370.785	800.000	0.014	0.053
-369.771	-14.143	-0.155	0.100
-368.756	-98.791	-0.338	0.086
-367.742	95.251	-0.085	-0.097
-366.727	-60.413	-0.351	0.150
-365.712	-200.000	0.035	-0.166
-364.698	-51.037	0.119	0.056
-363.683	-200.000	-0.006	-0.243
-362.669	-98.039	0.242	0.062
-361.654	55.441	0.065	-0.063
-360.639	-113.673	0.056	0.011
-359.625	-102.992	-0.213	-0.051
-358.610	404.122	-0.125	0.263
-357.596	109.592	0.054	-0.065
-356.581	-154.491	-0.193	0.013
-355.566	744.392	-0.040	-0.108
-354.552	-90.228	-0.020	0.006
-353.537	-200.000	-0.058	0.000
-352.523	286.260	0.136	0.245
-351.508	299.488	0.185	0.342
-350.493	169.201	-0.207	-0.296
-349.479	191.243	0.084	-0.126
-348.464	800.000	0.048	-0.163
-347.450	-3.246	-0.077	-0.053
-346.435	-131.664	0.166	-0.022
-345.420	-200.000	-0.032	-0.395
-344.406	-48.810	0.242	0.116
-343.391	135.970	-0.092	0.120
-342.377	-200.000	-0.038	-0.422
-341.362	-59.639	0.250	-0.107
-340.348	-200.000	0.034	-0.405
-339.333	94.701	0.085	0.097
-338.318	-200.000	-0.095	-0.611
-337.304	266.002	0.216	0.377
-336.289	-107.361	-0.269	0.059
-335.275	-76.014	0.256	0.091
-334.260	-66.551	-0.101	0.040
-333.245	53.092	0.161	0.154
-332.231	72.270	0.142	0.148
-331.216	376.408	0.061	-0.125
-330.202	-85.392	-0.232	-0.072
-329.187	246.185	0.084	0.142
-328.172	-92.389	-0.173	-0.049
-327.158	-122.962	-0.063	0.010
-326.143	-75.913	-0.383	-0.136
-325.129	800.000	0.037	-0.143
-324.114	-69.503	-0.064	-0.025
-323.099	-47.825	0.103	0.050
-322.085	-55.045	0.469	0.212
-321.070	-22.843	-0.182	0.110
-320.056	136.909	0.117	0.153
-319.041	56.730	0.120	-0.117
-318.026	800.000	-0.040	-0.128
-317.012	-9.997	-0.300	0.200
-315.997	-0.190	-0.136	0.097
-314.983	-120.917	0.203	0.034
-313.968	-200.000	-0.068	0.400
-312.953	132.130	0.224	0.289
-311.939	247.417	-0.025	-0.043
-310.924	-77.360	0.289	-0.100
-309.910	-200.000	-0.028	0.392
-308.895	-160.423	-0.149	0.008
-307.880	194.847	-0.091	0.139
-306.866	122.237	-0.164	0.205
-305.851	86.638	-0.081	0.089
-304.837	-14.804	0.114	0.073
-303.822	-200.000	-0.024	-0.357
-302.807	395.957	-0.248	0.518
-301.793	-50.163	0.351	-0.166
-300.778	-30.032	0.164	0.093
-299.764	1.023	0.176	-0.126
-298.749	-200.000	0.016	0.149
-297.735	170.652	-0.125	-0.179
-296.720	27.314	-0.129	-0.109
-295.705	59.030	0.134	0.132
-294.691	-104.787	0.050	0.012
-293.676	29.440	-0.295	-0.250
-292.662	-200.000	-0.008	-0.041
-291.647	4.035	0.136	0.100
-290.632	-74.198	0.110	0.040
-289.618	2.689	-0.157	-0.114
-288.603	800.000	0.069	-0.215
-287.589	-81.831	0.238	0.078
-286.574	-128.231	-0.230	-0.033
-285.559	479.030	-0.016	-0.035
-284.545	-200.000	-0.023	-0.233
-283.530	-98.477	0.021	0.005
-282.516	-66.997	0.232	0.092
-281.501	-97.069	0.267	0.070
-280.486	750.390	0.084	-0.226
-279.472	81.497	-0.076	-0.082
-278.457	800.000	-0.045	0.136
-277.443	-35.756	0.015	0.008
-276.428	472.872	-0.053	0.119
-275.413	-200.000	-0.045	-0.474
-274.399	24.396	-0.038	-0.031
-273.384	504.421	-0.084	-0.195
-272.370	-56.882	-0.400	0.177
-271.355	-44.791	-0.368	0.183
-270.340	-40.528	-0.305	-0.158
-269.326	278.191	0.095	0.169
-268.311	284.517	-0.064	0.115
-267.297	-200.000	-0.017	0.277
-266.282	333.806	-0.058	-0.111
-265.267	-34.753	0.158	-0.086
-264.253	-65.433	-0.170	0.068
-263.238	-2.065	0.256	-0.180
-262.224	91.202	-0.138	-0.155
-261.209	541.587	-0.151	0.359
-260.195	-200.000	0.023	0.175
-259.180	11.544	0.155	0.119
-258.165	-83.491	0.254	-0.081
-257.151	800.000	0.051	-0.212
-256.136	-61.728	0.286	-0.120
-255.122	-74.576	-0.273	-0.098
-254.107	-200.000	-0.073	0.471
-253.092	-54.109	-0.174	-0.079
-252.078	800.000	-0.074	-0.282
-251.063	-29.223	0.120	0.069
-250.049	17.788	0.120	-0.095
-249.034	23.771	-0.148	0.122
-248.019	-127.684	0.139	-0.020
-247.005	-56.870	0.140	0.062
-245.990	-33.416	0.073	-0.040
-244.976	-200.000	0.008	-0.202
-243.961	-87.188	0.253	0.077
-242.946	486.985	-0.102	0.231
-241.932	207.370	-0.089	-0.139
-240.917	25.195	0.318	0.263
-239.903	31.413	0.310	-0.265
-238.888	-130.115	-0.323	0.044
-237.873	780.155	0.061	0.166
-236.859	-200.000	0.036	0.333
-235.844	296.523	-0.075	0.137
-234.830	-155.944	-0.413	0.026
-233.815	398.031	0.136	0.283
-232.800	62.888	0.078	0.078
-231.786	800.000	0.064	-0.185
-230.771	11.666	0.319	-0.244
-229.757	409.731	0.163	0.345
-228.742	-200.000	-0.018	-0.291
-227.727	-200.000	-0.003	-0.146
-226.713	-200.000	0.008	-0.240
-225.698	-200.000	-0.061	0.331
-224.684	-54.932	-0.177	0.079
-223.669	-149.512	0.442	0.035
-222.655	-200.000	0.032	-0.139
-221.640	-67.962	0.133	0.052
-220.625	-112.404	-0.235	-0.047
-219.611	800.000	-0.115	-0.350
-218.596	-109.818	0.263	-0.055
-217.582	58.524	0.244	0.239
-216.567	-200.000	0.002	0.017
-215.552	-120.165	0.434	-0.074
-214.538	161.215	-0.273	0.380
-213.523	23.958	0.151	-0.124
-212.509	-133.450	0.257	0.032
-211.494	83.144	-0.203	0.220
-210.479	-200.000	-0.020	-0.204
-209.465	171.426	-0.204	-0.291
-208.450	366.354	0.204	0.410
-207.436	-200.000	-0.046	0.286
-206.421	187.437	0.169	0.251
-205.406	-59.145	0.319	-0.137
-204.392	-116.189	0.141	-0.026
-203.377	-149.886	0.204	-0.016
-202.363	-118.980	-0.091	0.016
-201.348	-59.189	-0.227	0.097
-200.333	-15.437	-0.127	-0.081
-199.319	82.001	0.137	0.148
-198.304	-200.000	-0.018	-0.196
-197.290	800.000	-0.083	-0.333
-196.275	-111.826	0.328	0.066
-195.260	800.000	-0.023	0.066
-194.246	-200.000	-0.014	0.185
-193.231	800.000	-0.025	-0.106
-192.217	279.237	-0.100	0.177
-191.202	-82.927	-0.228	0.073
-190.187	-17.927	0.196	-0.122
-189.173	800.000	-0.055	0.227
-188.158	-27.804	0.179	-0.103
-187.144	-48.636	0.168	-0.080
-186.129	-39.460	-0.282	0.147
-185.114	-44.774	-0.184	-0.092
-184.100	273.334	-0.145	0.255
-183.085	-10.090	0.261	-0.172
-182.071	122.558	0.104	0.129
-181.056	615.540	0.134	0.334
-180.042	-76.479	0.124	-0.043
-179.027	600.256	-0.112	-0.275
-178.012	-133.310	0.220	0.028
-176.998	-105.209	-0.504	-0.115
-175.983	-200.000	-0.009	0.087
-174.969	800.000	0.048	0.188
-173.954	-131.339	-0.119	0.016
-172.939	359.674	-0.081	-0.161
-171.925	-5.854	0.303	0.206
-170.910	-200.000	-0.069	0.385
-169.896	-69.078	-0.295	0.113
-168.881	-200.000	0.059	0.317
-167.866	303.778	0.054	-0.099
-166.852	748.407	-0.116	-0.312
-165.837	44.243	-0.268	0.244
-164.823	148.388	-0.082	0.110
-163.808	-8.543	0.081	0.054
-162.793	-169.765	-0.195	-0.007
-161.779	-200.000	0.009	-0.156
-160.764	98.739	-0.136	0.156
-159.750	566.745	0.112	-0.271
-158.735	-200.000	-0.054	-0.476
-157.720	-47.335	-0.181	-0.087
-156.706	800.000	0.019	0.071
-155.691	-200.000	-0.215	-0.001
-154.677	-73.369	-0.083	-0.030
-153.662	60.657	0.297	0.293
-152.647	-103.951	0.152	-0.035
-151.633	-9.595	-0.323	-0.214
-150.618	-198.160	-0.253	0.001
-149.604	-200.000	0.068	0.309
-148.589	-154.176	-0.165	0.011
-147.574	247.007	-0.143	-0.240
-146.560	22.382	-0.174	-0.142
-145.545	-43.161	-0.144	0.073
-144.531	800.000	0.066	-0.245
-143.516	-198.794	0.258	-0.001
-142.502	-200.000	-0.022	0.107
-141.487	-121.106	0.445	0.074
-140.472	-90.237	-0.356	0.103
-139.458	-24.390	0.247	-0.146
-138.443	-104.793	-0.101	-0.023
-137.429	82.348	0.244	0.263
-136.414	485.997	0.042	-0.095
-135.399	-200.000	-0.049	-0.224
-134.385	-141.825	0.213	-0.021
-133.370	184.939	-0.072	-0.106
-132.356	-102.239	-0.326	0.078
-131.341	443.984	0.072	0.156
-130.326	186.150	0.151	0.223
-129.312	22.710	-0.170	0.138
-128.297	-103.115	0.067	-0.016
-127.283	-150.198	-0.182	0.014
-126.268	-1.733	0.045	-0.032
-125.253	-200.000	-0.034	-0.173
-124.239	70.223	-0.176	-0.181
-123.224	-200.000	0.223	-0.000
-122.210	-200.000	-0.024	0.143
-121.195	32.447	0.319	-0.273
-120.180	32.052	0.276	0.236
-119.166	350.739	-0.163	0.321
-118.151	-92.611	-0.050	0.014
-117.137	-84.756	0.141	0.044
-116.122	17.261	-0.290	-0.228
-115.107	-200.000	-0.054	0.330
-114.093	173.988	0.059	-0.085
-113.078	-76.290	-0.113	-0.040
-112.064	-183.853	-0.230	-0.004
-111.049	-36.265	-0.136	-0.073
-110.034	41.577	0.173	-0.155
-109.020	-132.298	-0.231	0.030
-108.005	-108.885	0.248	-0.053
-106.991	-73.549	0.209	0.076
-105.976	-166.139	0.310	-0.013
-104.962	-127.950	-0.164	0.023
-103.947	-200.000	-0.002	-0.413
-102.932	-67.253	0.038	-0.015
-101.918	-34.375	-0.280	0.152
-100.903	-118.360	0.547	-0.096
-99.889	-62.289	0.339	-0.140
-98.874	-200.000	-0.059	-0.367
-97.859	-2.538	-0.178	0.123
-96.845	-64.514	-0.266	0.107
-95.830	39.279	0.161	0.143
-94.816	131.232	-0.159	0.202
-93.801	-200.000	0.069	0.335
-92.786	-7.060	-0.073	0.049
-91.772	231.288	-0.153	-0.248
-90.757	-200.000	0.053	0.234
-89.743	-162.579	0.376	0.018
-88.728	173.614	0.100	-0.143
-87.713	-86.176	0.390	-0.119
-86.699	-97.737	-0.116	-0.030
-85.684	-139.123	-0.076	-0.008
-84.670	-151.432	0.261	-0.019
-83.655	381.861	-0.141	-0.287
-82.640	398.904	0.101	-0.209
-81.626	250.187	0.053	-0.090
-80.611	-200.000	-0.009	0.118
-79.597	800.000	0.095	-0.325
-78.582	37.423	0.467	0.411
-77.567	-200.000	0.002	0.059
-76.553	291.839	0.075	-0.135
-75.538	-11.337	0.381	0.249
-74.524	-37.288	-0.232	-0.123
-73.509	-43.380	-0.359	-0.180
-72.494	464.509	0.136	0.302
-71.480	358.927	0.091	-0.181
-70.465	-103.898	0.111	0.026
-69.451	794.289	0.099	0.269
-68.436	-136.391	-0.271	0.031
-67.422	-154.576	-0.238	-0.016
-66.407	68.799	0.200	0.203
-65.392	215.508	0.099	-0.156
-64.378	34.526	0.190	0.165
-63.363	-200.000	-0.017	0.158
-62.349	87.293	-0.067	-0.073
-61.334	94.349	-0.965	-1.085
-60.319	-78.434	0.359	0.122
-59.305	800.000	-0.295	-1.180
-58.290	310.128	0.620	1.149
-57.276	800.000	0.506	1.600
-56.261	-200.000	95.498	587.283
-55.246	651.070	1369.783	3473.901
-54.232	195.888	2550.527	3841.413
-53.217	110.389	2300.544	2736.849
-52.203	39.097	2063.633	1827.032
-51.188	34.134	1978.925	1707.571
-50.173	32.638	1960.890	1678.631
-49.159	47.269	2010.058	1852.985
-48.144	48.621	2028.197	1881.844
-47.130	34.722	1990.152	1722.288
-46.115	32.391	1979.886	1692.396
-45.100	32.294	1976.855	1688.870
-44.086	32.245	1974.917	1686.709
-43.071	32.187	1972.050	1683.674
-42.057	32.164	1969.238	1680.993
-41.042	32.197	1967.329	1679.595
-40.027	32.244	1965.562	1678.444
-39.013	32.191	1963.673	1676.286
-37.998	32.265	1961.709	1675.201
-36.984	32.353	1959.822	1674.309
-35.969	32.294	1958.016	1672.175
-34.954	32.372	1956.506	1671.514
-33.940	32.319	1955.230	1669.884
-32.925	32.436	1953.300	1669.212
-31.911	32.454	1951.870	1668.076
-30.896	32.374	1950.445	1666.088
-29.881	32.344	1949.225	1664.718
-28.867	32.402	1947.183	1663.413
-27.852	32.453	1945.043	1661.971
-26.838	32.434	1942.888	1659.898
-25.823	32.484	1940.869	1658.546
-24.809	32.413	1939.406	1656.604
-23.794	32.330	1938.230	1654.807
-22.779	32.321	1936.822	1653.461
-21.765	32.297	1934.591	1651.277
-20.750	32.381	1932.781	1650.408
-19.736	32.442	1931.071	1649.413
-18.721	32.327	1930.187	1647.589
-17.706	32.396	1928.315	1646.527
-16.692	32.416	1926.382	1644.989
-15.677	32.458	1924.970	1644.080
-14.663	32.472	1922.905	1642.372
-13.648	32.420	1922.407	1641.430
-12.633	32.455	1921.345	1640.763
-11.619	32.432	1920.130	1639.457
-10.604	32.367	1918.608	1637.529
-9.590	32.407	1916.774	1636.246
-8.575	32.389	1915.610	1635.031
-7.560	32.416	1914.492	1634.251
-6.546	32.369	1913.304	1632.763
-5.531	32.320	1911.989	1631.151
-4.517	32.467	1910.553	1631.132
-3.502	32.372	1909.992	1629.766
-2.487	32.202	1908.860	1627.263
-1.473	32.397	1907.461	1627.697
-0.458	32.496	1903.012	1624.686
0.556	31.948	1883.523	1597.018
1.571	27.847	1864.355	1545.987
2.586	24.009	1886.763	1531.474
3.600	22.984	1921.859	1550.834
4.615	22.357	1916.943	1541.239
5.629	17.354	1816.903	1419.039
6.644	8.923	1699.719	1261.330
7.659	5.034	1664.007	1204.726
8.673	4.719	1661.039	1200.037
9.688	4.640	1659.415	1198.150
10.702	4.574	1658.071	1196.564
11.717	4.638	1654.682	1194.509
12.731	5.089	1653.937	1197.328
13.746	10.613	1667.176	1249.435
14.761	17.799	1682.464	1316.426
15.775	19.740	1684.679	1333.026
16.790	18.910	1681.788	1324.231
17.804	17.750	1678.257	1312.412
18.819	16.839	1674.814	1302.601
19.834	16.198	1672.325	1295.631
20.848	15.845	1670.849	1291.662
21.863	15.693	1668.965	1288.930
22.877	15.355	1667.578	1285.151
23.892	15.234	1666.591	1283.353
24.907	15.161	1665.283	1281.675
25.921	15.019	1664.595	1279.950
26.936	15.175	1663.126	1279.898
27.950	15.182	1662.631	1279.457
28.965	15.179	1662.005	1278.833
29.980	15.282	1660.949	1278.695
30.994	15.352	1659.701	1278.155
32.009	15.454	1659.081	1278.340
33.023	15.466	1658.104	1277.565
34.038	15.445	1657.567	1276.878
35.053	15.418	1656.014	1275.370
36.067	15.397	1654.866	1274.209
37.082	15.324	1653.643	1272.599
38.096	15.276	1652.729	1271.421
39.111	15.352	1652.273	1271.535
40.126	15.426	1651.064	1271.050
41.140	15.319	1650.999	1270.079
42.155	15.193	1649.390	1267.776
43.169	15.069	1647.797	1265.499
44.184	14.993	1646.590	1263.891
45.199	15.006	1645.059	1262.704
46.213	15.041	1644.115	1262.125
47.228	15.070	1643.089	1261.448
48.242	15.132	1642.752	1261.542
49.257	15.205	1641.034	1260.659
50.271	15.193	1639.745	1259.469
51.286	15.207	1638.644	1258.616
52.301	15.295	1636.675	1257.658
53.315	15.241	1635.695	1256.382
54.330	15.228	1634.260	1255.073
55.344	15.167	1632.567	1253.206
56.359	15.098	1631.341	1251.642
57.374	15.121	1629.894	1250.591
58.388	15.156	1628.635	1249.772
59.403	15.070	1627.681	1248.291
60.417	15.028	1626.420	1246.898
61.432	15.026	1624.822	1245.552
62.447	15.001	1624.002	1244.622
63.461	14.988	1622.608	1243.347
64.476	14.961	1621.766	1242.394
65.490	14.887	1620.688	1240.912
66.505	14.833	1619.369	1239.389
67.520	14.906	1618.430	1239.102
68.534	14.910	1617.403	1238.233
69.549	15.001	1616.274	1237.933
70.563	14.924	1614.900	1236.205
71.578	14.990	1613.415	1235.444
72.593	14.942	1612.622	1234.373
73.607	14.873	1611.689	1233.038
74.622	14.779	1610.257	1231.144
75.636	14.802	1610.162	1231.130
76.651	14.821	1608.781	1230.110
77.666	14.879	1607.921	1229.766
78.680	14.837	1607.152	1228.763
79.695	14.885	1606.233	1228.306
80.709	14.903	1605.427	1227.714
81.724	14.991	1604.213	1227.316
82.739	15.055	1602.966	1226.724
83.753	15.042	1602.395	1226.085
84.768	15.150	1601.806	1226.314
85.782	15.182	1601.767	1226.416
86.797	15.330	1600.536	1226.442
87.812	15.266	1599.666	1225.203
88.826	15.205	1598.148	1223.484
89.841	15.190	1596.886	1222.301
90.855	15.219	1596.108	1221.804
91.870	15.297	1594.737	1221.215
92.884	15.283	1594.094	1220.519
93.899	15.324	1593.306	1220.101
94.914	15.291	1591.632	1218.476
95.928	15.384	1590.542	1218.208
96.943	15.414	1589.413	1217.454
97.957	15.389	1588.222	1216.250
98.972	15.322	1586.774	1214.551
99.987	15.277	1584.995	1212.753
101.001	15.292	1583.455	1211.575
102.016	15.309	1582.282	1210.696
103.030	15.287	1580.926	1209.390
104.045	15.326	1580.074	1208.912
105.060	15.336	1578.300	1207.519
106.074	15.270	1576.849	1205.829
107.089	15.209	1575.659	1204.374
108.103	15.083	1573.771	1201.922
109.118	15.047	1572.150	1200.317
110.133	15.007	1570.945	1199.003
111.147	14.924	1569.717	1197.365
112.162	14.944	1568.582	1196.537
113.176	14.937	1567.265	1195.379
114.191	15.003	1565.940	1194.731
115.206	15.037	1564.406	1193.699
116.220	15.057	1563.435	1192.994
117.235	15.066	1562.171	1191.987
118.249	15.003	1560.375	1190.065
119.264	15.065	1559.047	1189.392
120.279	14.985	1558.096	1187.991
121.293	14.906	1556.853	1186.376
122.308	14.941	1555.073	1185.163
123.322	14.932	1553.455	1183.763
124.337	14.882	1552.309	1182.432
125.352	14.872	1550.866	1181.154
126.366	14.864	1549.788	1180.177
127.381	14.915	1548.448	1179.408
128.395	14.900	1547.340	1178.356
129.410	14.828	1546.481	1177.090
130.424	14.977	1544.709	1176.684
131.439	14.898	1543.647	1175.219
132.454	14.937	1542.226	1174.302
133.468	14.986	1540.836	1173.485
134.483	15.106	1538.991	1172.816
135.497	15.089	1537.998	1171.835
136.512	15.103	1536.712	1170.851
137.527	15.161	1535.275	1170.059
138.541	15.115	1534.061	1168.707
139.556	15.113	1532.549	1167.440
140.570	15.147	1531.563	1166.820
141.585	15.146	1530.440	1165.860
142.600	15.254	1529.175	1165.540
143.614	15.352	1527.860	1165.118
144.629	15.553	1526.079	1165.046
145.643	15.411	1525.381	1163.428
146.658	15.484	1523.695	1162.542
147.673	15.445	1522.842	1161.525
148.687	15.409	1520.791	1159.604
149.702	15.271	1519.562	1157.613
150.716	15.224	1518.067	1156.046
151.731	15.231	1516.611	1154.885
152.746	15.266	1515.082	1153.860
153.760	15.288	1514.036	1153.110
154.775	15.320	1512.671	1152.194
155.789	15.371	1511.236	1151.349
156.804	15.338	1510.229	1150.253
157.819	15.401	1509.059	1149.692
158.833	15.501	1507.795	1149.312
159.848	15.524	1507.027	1148.776
160.862	15.520	1505.763	1147.686
161.877	15.496	1504.843	1146.722
162.892	15.487	1503.535	1145.558
163.906	15.340	1502.405	1143.596
164.921	15.241	1500.928	1141.697
165.935	15.366	1499.494	1141.352
166.950	15.330	1499.119	1140.721
167.964	15.423	1497.672	1140.154
168.979	15.413	1497.060	1139.522
169.994	15.405	1496.120	1138.646
171.008	15.335	1495.147	1137.331
172.023	15.465	1493.580	1136.923
173.037	15.497	1492.608	1136.297
174.052	15.520	1491.372	1135.412
175.067	15.602	1490.489	1135.189
176.081	15.506	1489.328	1133.556
177.096	15.434	1487.804	1131.812
178.110	15.234	1486.825	1129.621
179.125	15.465	1485.204	1129.846
180.140	15.502	1484.618	1129.548
181.154	15.540	1483.370	1128.753
182.169	15.523	1482.809	1128.114
183.183	15.651	1481.433	1127.823
184.198	15.512	1480.891	1126.380
185.213	15.727	1479.151	1126.395
186.227	15.766	1477.712	1125.464
187.242	15.681	1477.157	1124.372
188.256	15.731	1475.994	1123.717
189.271	15.771	1475.043	1123.166
190.286	15.724	1474.319	1122.198
191.300	15.781	1472.812	1121.334
192.315	15.548	1471.523	1118.703
193.329	15.411	1470.384	1116.824
194.344	15.378	1469.192	1115.602
195.359	15.410	1468.193	1114.958
196.373	15.591	1467.074	1115.209
197.388	15.621	1466.434	1114.821
198.402	15.633	1465.399	1114.019
199.417	15.768	1464.441	1114.082
200.432	15.895	1463.097	1113.802
201.446	15.939	1462.412	1113.474
202.461	15.953	1461.568	1112.823
203.475	16.024	1460.199	1112.155
204.490	16.031	1459.391	1111.484
205.504	15.981	1458.083	1110.060
206.519	15.938	1456.783	1108.691
207.534	15.907	1455.920	1107.732
208.548	15.866	1454.388	1106.202
209.563	15.996	1453.213	1106.062
210.577	15.838	1452.879	1104.674
211.592	15.906	1451.998	1104.349
212.607	15.944	1450.985	1103.734
213.621	16.013	1450.690	1103.861
214.636	16.131	1449.589	1103.701
215.650	15.991	1448.552	1101.899
216.665	16.017	1447.798	1101.393
217.680	16.067	1446.813	1100.873
218.694	16.103	1446.079	1100.452
219.709	16.225	1445.496	1100.707
220.723	16.214	1444.454	1099.748
221.738	16.214	1443.808	1099.157
222.753	16.188	1442.495	1097.888
223.767	16.181	1441.829	1097.243
224.782	16.099	1440.798	1095.827
225.796	16.226	1439.859	1095.840
226.811	16.282	1438.777	1095.283
227.826	16.306	1438.137	1094.852
228.840	16.269	1437.353	1093.918
229.855	16.187	1436.367	1092.541
230.869	16.155	1435.216	1091.361
231.884	16.192	1434.398	1090.885
232.899	16.275	1432.466	1089.855
233.913	16.189	1431.858	1088.739
234.928	16.001	1431.096	1086.852
235.942	16.127	1429.609	1086.438
236.957	16.063	1428.716	1085.250
237.972	16.075	1427.337	1084.182
238.986	16.057	1426.031	1082.983
240.001	16.167	1425.230	1082.982
241.015	16.176	1424.164	1082.134
242.030	16.184	1422.990	1081.196
243.045	16.226	1422.696	1081.149
244.059	16.249	1421.595	1080.365
245.074	16.251	1420.820	1079.692
246.088	16.380	1419.977	1079.777
247.103	16.379	1418.903	1078.860
248.117	16.439	1418.506	1078.845
249.132	16.482	1417.335	1078.137
250.147	16.573	1417.122	1078.457
251.161	16.694	1416.436	1078.611
252.176	16.757	1415.768	1078.409
253.190	16.795	1415.256	1078.166
254.205	16.805	1414.290	1077.400
255.220	16.938	1413.520	1077.559
256.234	16.895	1412.637	1076.518
257.249	16.904	1411.451	1075.579
258.263	16.948	1410.454	1074.998
259.278	16.919	1409.592	1074.064
260.293	16.908	1408.876	1073.353
261.307	16.871	1408.075	1072.413
262.322	16.908	1407.764	1072.319
263.336	16.927	1407.282	1071.974
264.351	17.031	1405.722	1071.351
265.366	17.090	1404.641	1070.805
266.380	17.072	1403.589	1069.794
267.395	17.081	1402.879	1069.213
268.409	17.181	1401.521	1068.711
269.424	17.105	1400.498	1067.359
270.439	17.078	1399.607	1066.417
271.453	16.918	1399.003	1064.857
272.468	17.048	1398.064	1064.863
273.482	16.990	1396.911	1063.531
274.497	16.903	1397.044	1062.989
275.512	16.928	1395.375	1061.781
276.526	16.999	1394.334	1061.341
277.541	16.974	1393.587	1060.523
278.555	17.007	1393.109	1060.269
279.570	17.083	1392.047	1059.843
280.585	17.077	1391.135	1059.016
281.599	17.112	1390.157	1058.397
282.614	17.137	1389.871	1058.243
283.628	17.103	1388.481	1056.881
284.643	17.120	1387.245	1055.953
285.657	17.097	1386.047	1054.805
286.672	17.103	1385.300	1054.176
287.687	17.085	1384.330	1053.237
288.701	17.162	1382.926	1052.550
289.716	17.189	1382.444	1052.259
290.730	17.147	1381.941	1051.519
291.745	17.121	1380.768	1050.373
292.760	17.260	1379.816	1050.415
293.774	17.245	1378.796	1049.455
294.789	17.238	1378.033	1048.739
295.803	17.300	1377.612	1048.710
296.818	17.274	1376.419	1047.548
297.833	17.282	1375.564	1046.854
298.847	17.201	1374.308	1045.304
299.862	17.305	1373.644	1045.348
300.876	17.326	1372.435	1044.464
301.891	17.297	1371.676	1043.614
302.906	17.353	1370.928	1043.300
303.920	17.400	1370.523	1043.187
304.935	17.428	1369.813	1042.722
305.949	17.488	1368.868	1042.280
306.964	17.626	1367.953	1042.334
307.979	17.617	1367.118	1041.552
308.993	17.613	1366.028	1040.604
310.008	17.472	1365.434	1039.198
311.022	17.687	1364.107	1039.410
312.037	17.582	1363.459	1038.185
313.052	17.647	1362.747	1037.945
314.066	17.615	1361.208	1036.485
315.081	17.498	1360.112	1034.850
316.095	17.458	1359.130	1033.768
317.110	17.456	1357.992	1032.798
318.125	17.445	1356.985	1031.876
319.139	17.488	1356.372	1031.577
320.154	17.496	1355.446	1030.830
321.168	17.495	1353.986	1029.623
322.183	17.583	1353.283	1029.530
323.197	17.488	1352.430	1028.217
324.212	17.506	1351.672	1027.656
325.227	17.637	1350.771	1027.672
326.241	17.631	1349.573	1026.634
327.256	17.656	1348.819	1026.120
328.270	17.516	1348.488	1024.934
329.285	17.579	1347.272	1024.296
330.300	17.542	1346.183	1023.155
331.314	17.574	1345.402	1022.663
332.329	17.599	1344.541	1022.068
333.343	17.606	1343.548	1021.264
334.358	17.582	1342.761	1020.436
335.373	17.632	1342.155	1020.179
336.387	17.735	1341.083	1019.893
337.402	17.787	1340.690	1019.814
338.416	17.856	1339.606	1019.311
339.431	17.847	1339.220	1018.872
340.446	17.787	1338.610	1017.964
341.460	17.974	1337.360	1018.036
342.475	17.996	1336.376	1017.327
343.489	17.999	1335.810	1016.827
344.504	18.038	1334.944	1016.309
345.519	18.117	1333.471	1015.564
346.533	18.155	1333.068	1015.392
347.548	18.228	1331.722	1014.715
348.562	18.245	1331.289	1014.395
349.577	18.279	1330.416	1013.838
350.592	18.243	1329.246	1012.645
351.606	18.109	1328.589	1011.261
352.621	17.993	1327.645	1009.767
353.635	17.934	1326.359	1008.351
354.650	17.875	1325.752	1007.455
355.665	17.947	1324.694	1006.988
356.679	17.976	1323.947	1006.499
357.694	18.024	1322.829	1005.842
358.708	18.073	1321.594	1005.104
359.723	18.074	1320.496	1004.183
360.738	18.176	1319.337	1003.816
361.752	18.199	1318.319	1003.086
362.767	18.129	1317.586	1002.028
363.781	18.103	1316.791	1001.182
364.796	18.153	1316.039	1000.816
365.810	18.269	1315.177	1000.753
366.825	18.308	1314.624	1000.468
367.840	18.488	1313.832	1000.829
368.854	18.473	1313.237	1000.201
369.869	18.402	1312.947	999.478
370.883	18.489	1312.209	999.334
371.898	18.583	1311.293	999.094
372.913	18.478	1310.206	997.564
373.927	18.417	1309.317	996.446
374.942	18.478	1308.746	996.278
375.956	18.473	1308.032	995.618
376.971	18.567	1307.122	995.380
377.986	18.429	1306.149	993.753
379.000	18.436	1305.567	993.261
380.015	18.573	1305.058	993.584
381.029	18.519	1304.330	992.629
382.044	18.686	1303.534	992.900
383.059	18.558	1303.183	991.805
384.073	18.742	1301.815	991.741
385.088	18.625	1301.554	990.777
386.102	18.621	1301.118	990.332
387.117	18.662	1300.284	989.845
388.132	18.676	1298.781	988.696
389.146	18.551	1298.402	987.599
390.161	18.554	1297.273	986.669
391.175	18.579	1296.609	986.220
392.190	18.526	1295.873	985.270
393.205	18.558	1295.224	984.873
394.219	18.732	1294.004	984.859
395.234	18.734	1292.683	983.776
396.248	18.752	1291.480	982.877
397.263	18.716	1290.036	981.482
398.278	18.787	1288.711	980.797
399.292	18.635	1287.543	978.955
400.307	18.550	1286.951	977.933
401.321	18.672	1285.098	977.130
402.336	18.509	1284.771	975.869
403.350	18.631	1283.484	975.500
404.365	18.585	1282.683	974.539
405.380	18.648	1281.856	974.188
406.394	18.585	1281.160	973.214
407.409	18.678	1280.445	973.108
408.423	18.693	1279.896	972.693
409.438	18.920	1279.151	973.326
410.453	19.018	1278.649	973.410
411.467	18.922	1277.931	972.239
412.482	18.978	1277.486	972.130
413.496	19.125	1276.502	972.126
414.511	19.099	1275.807	971.359
415.526	19.037	1275.369	970.595
416.540	19.172	1274.199	970.377
417.555	19.167	1273.884	970.024
418.569	19.165	1273.113	969.341
419.584	19.104	1272.771	968.649
420.599	19.110	1272.210	968.169
421.613	140.640	1431.914	1794.063
422.628	135.211	1455.154	1794.186
