DTS Sentinel unit serial number:	SN413079Multiplexer serial number:	ORYXHardware model number:	OX4-SRSoftware version number:	ORYX F/W v4.00 Oryx Data Collector v3.7.2.0data status	okinstallation	princeton_trtdifferential loss correction	single-endedforward channel	channel 4reverse channel	N/Adate	2019/09/15time	08:49:35forward acquisition time	60.00reverse acquisition time	0.00gamma	496.2192k internal	0.2303k external	0.2303temperature offset calibration	1.0019default loss term (dB/km)	0.3790temperature slope calibration	1.0000multiplexer offset coefficient	1.0000multiplexer slope coefficient	1.0000fibre end	0.00T internal ref (°C)	32.34T ext. ref 1 (°C)	4.97T ext. ref 2 (°C)	29.72length (m)	temperature (°C)	Stokes	anti-Stokes-747.200	800.000	-0.025	0.098
-746.185	116.506	0.145	0.181
-745.171	15.646	-0.114	0.091
-744.156	-200.000	0.048	0.432
-743.142	448.509	-0.035	-0.080
-742.127	-95.465	-0.138	0.038
-741.112	238.124	-0.209	-0.354
-740.098	112.483	0.182	0.225
-739.083	61.512	0.066	-0.067
-738.069	-70.589	0.233	0.090
-737.054	-105.407	-0.219	0.051
-736.039	-70.559	0.169	0.065
-735.025	-144.794	0.072	-0.007
-734.010	800.000	-0.039	0.116
-732.996	-140.168	0.121	0.013
-731.981	50.582	-0.105	0.101
-730.966	61.119	-0.107	0.109
-729.952	-200.000	0.034	-0.223
-728.937	-200.000	-0.031	-0.161
-727.923	155.762	0.145	-0.204
-726.908	-67.989	0.050	0.020
-725.894	-52.823	-0.208	-0.098
-724.879	94.740	-0.082	0.095
-723.864	-78.718	0.122	0.042
-722.850	800.000	0.037	0.132
-721.835	7.803	0.080	0.061
-720.821	-64.699	-0.273	0.113
-719.806	65.624	-0.250	-0.258
-718.791	68.555	-0.163	-0.170
-717.777	-200.000	-0.010	-0.162
-716.762	310.911	-0.181	-0.345
-715.748	44.236	-0.226	0.211
-714.733	-82.116	0.451	-0.150
-713.718	-45.944	0.345	0.173
-712.704	800.000	-0.033	-0.114
-711.689	-200.000	0.024	-0.207
-710.675	-92.125	-0.354	-0.102
-709.660	-200.000	0.025	-0.126
-708.645	32.730	0.015	0.013
-707.631	-200.000	0.050	0.301
-706.616	246.259	-0.173	-0.296
-705.602	201.604	-0.140	0.219
-704.587	-106.602	-0.126	-0.029
-703.572	30.870	0.186	0.162
-702.558	145.962	-0.032	-0.044
-701.543	-79.753	-0.190	0.065
-700.529	146.432	-0.153	-0.210
-699.514	-167.303	-0.251	-0.010
-698.499	321.013	-0.019	-0.037
-697.485	500.345	-0.158	-0.370
-696.470	-4.780	-0.203	0.142
-695.456	114.017	-0.167	0.207
-694.441	800.000	0.137	0.391
-693.426	-200.000	-0.044	0.285
-692.412	-200.000	0.430	-0.002
-691.397	84.248	-0.277	-0.308
-690.383	734.807	0.140	-0.380
-689.368	-200.000	-0.026	-0.220
-688.354	80.319	0.105	0.115
-687.339	-118.063	-0.175	0.032
-686.324	674.898	0.052	-0.138
-685.310	-109.225	0.173	0.037
-684.295	26.705	0.339	-0.289
-683.281	800.000	0.050	-0.159
-682.266	-200.000	-0.053	-0.243
-681.251	-200.000	0.016	-0.086
-680.237	-121.520	-0.144	-0.024
-679.222	-96.469	-0.040	0.011
-678.208	-108.428	0.156	0.034
-677.193	-44.651	0.100	-0.051
-676.178	99.318	0.204	0.240
-675.164	122.198	0.103	0.131
-674.149	-200.000	0.021	0.140
-673.135	-24.516	-0.423	-0.256
-672.120	-71.621	0.248	0.094
-671.105	-36.605	-0.218	0.119
-670.091	-71.171	0.182	-0.069
-669.076	-46.516	0.023	0.012
-668.062	220.140	-0.091	0.148
-667.047	-94.415	0.144	0.040
-666.032	55.192	-0.031	-0.030
-665.018	-200.000	0.019	-0.141
-664.003	30.508	-0.077	0.066
-662.989	800.000	0.038	0.107
-661.974	336.301	-0.060	-0.118
-660.959	-85.247	-0.125	0.040
-659.945	88.024	-0.086	-0.097
-658.930	-174.964	0.008	0.000
-657.916	-200.000	-0.024	0.114
-656.901	189.552	0.182	-0.277
-655.886	-200.000	-0.031	0.407
-654.872	-103.088	0.439	-0.106
-653.857	709.005	-0.041	-0.110
-652.843	-97.976	-0.189	0.049
-651.828	-78.086	-0.169	0.059
-650.814	-149.731	-0.222	0.018
-649.799	492.120	-0.043	-0.100
-648.784	113.151	0.035	-0.043
-647.770	428.391	0.101	-0.221
-646.755	626.543	-0.074	-0.191
-645.741	-36.798	0.053	-0.029
-644.726	-137.328	0.112	0.013
-643.711	-95.894	0.186	-0.050
-642.697	-200.000	-0.009	-0.156
-641.682	-200.000	0.052	-0.418
-640.668	352.561	-0.024	0.048
-639.653	-200.000	-0.014	-0.136
-638.638	192.157	0.171	0.262
-637.624	87.292	-0.309	-0.347
-636.609	-131.082	-0.195	0.026
-635.595	41.231	0.228	0.209
-634.580	121.263	-0.108	0.136
-633.565	47.168	0.275	-0.259
-632.551	-39.051	-0.235	-0.125
-631.536	800.000	0.068	0.195
-630.522	29.126	0.116	-0.100
-629.507	800.000	0.059	-0.236
-628.492	264.136	-0.063	0.110
-627.478	35.302	-0.023	0.020
-626.463	800.000	0.086	-0.281
-625.449	11.817	-0.094	0.073
-624.434	-32.251	-0.027	0.015
-623.419	136.940	-0.086	0.114
-622.405	168.294	0.127	-0.183
-621.390	-200.000	0.014	-0.132
-620.376	46.387	0.107	0.101
-619.361	-118.532	-0.168	-0.030
-618.346	-122.345	0.281	0.047
-617.332	-4.586	0.060	-0.042
-616.317	-120.730	-0.242	0.042
-615.303	110.131	-0.168	0.205
-614.288	264.166	0.044	0.078
-613.273	299.951	0.196	-0.366
-612.259	-72.525	-0.242	-0.091
-611.244	365.678	0.048	-0.098
-610.230	392.175	0.092	0.194
-609.215	370.336	0.043	-0.089
-608.201	246.442	0.139	0.238
-607.186	-102.856	-0.429	-0.103
-606.171	800.000	-0.059	0.201
-605.157	222.271	0.253	0.412
-604.142	-62.169	0.234	0.099
-603.128	-131.228	0.339	0.046
-602.113	800.000	-0.051	-0.191
-601.098	-175.600	-0.076	-0.002
-600.084	-11.919	-0.248	0.165
-599.069	-15.523	-0.321	-0.207
-598.055	150.547	-0.112	-0.154
-597.040	-81.617	0.196	0.065
-596.025	-119.176	0.065	0.012
-595.011	-200.000	-0.001	-0.029
-593.996	-136.327	0.202	-0.024
-592.982	800.000	-0.081	0.240
-591.967	266.057	-0.033	-0.059
-590.952	-56.166	0.444	0.200
-589.938	601.406	-0.034	0.087
-588.923	800.000	0.057	-0.172
-587.909	-164.532	-0.299	0.014
-586.894	-86.850	-0.356	0.110
-585.879	-200.000	0.074	-0.533
-584.865	-200.000	0.428	-0.001
-583.850	-127.499	-0.378	-0.056
-582.836	242.097	-0.067	-0.113
-581.821	-200.000	-0.051	-0.396
-580.806	303.434	-0.154	-0.289
-579.792	98.749	-0.253	0.295
-578.777	190.652	-0.184	-0.280
-577.763	-35.459	-0.090	-0.049
-576.748	116.347	-0.218	0.271
-575.733	-200.000	0.199	-0.001
-574.719	-74.075	-0.065	0.024
-573.704	18.852	-0.044	-0.036
-572.690	800.000	0.018	0.068
-571.675	-155.562	0.193	0.013
-570.661	-200.000	0.030	-0.339
-569.646	-66.317	0.180	-0.073
-568.631	-82.828	-0.093	0.030
-567.617	15.155	0.104	-0.083
-566.602	-80.843	-0.178	0.060
-565.588	-200.000	-0.021	-0.237
-564.573	-24.131	-0.176	-0.106
-563.558	80.790	0.258	0.281
-562.544	-34.963	-0.168	-0.092
-561.529	-56.629	-0.284	-0.127
-560.515	-104.047	0.139	-0.033
-559.500	800.000	0.042	0.123
-558.485	249.166	0.034	0.059
-557.471	-200.000	0.002	0.063
-556.456	-200.000	-0.013	0.115
-555.442	-17.768	-0.108	-0.069
-554.427	79.339	0.276	0.299
-553.412	-95.109	-0.254	0.069
-552.398	219.672	0.145	-0.234
-551.383	-200.000	-0.003	-0.099
-550.369	-200.000	-0.020	0.253
-549.354	79.506	0.152	0.165
-548.339	30.890	-0.221	-0.191
-547.325	800.000	0.002	-0.005
-546.310	2.697	-0.047	-0.034
-545.296	698.191	-0.072	0.192
-544.281	770.413	-0.107	0.294
-543.266	-25.317	0.235	-0.141
-542.252	-102.260	-0.230	-0.056
-541.237	-7.233	-0.061	0.042
-540.223	-200.000	-0.045	-0.444
-539.208	-200.000	-0.057	-0.320
-538.193	-200.000	0.005	-0.145
-537.179	192.615	-0.143	0.218
-536.164	-200.000	0.003	-0.022
-535.150	-200.000	0.001	-0.165
-534.135	-83.772	-0.021	-0.007
-533.121	-99.226	-0.232	-0.059
-532.106	-200.000	-0.007	-0.042
-531.091	347.518	-0.173	-0.344
-530.077	395.299	0.073	0.153
-529.062	-103.169	0.400	0.096
-528.048	85.453	0.104	-0.116
-527.033	-200.000	-0.030	-0.324
-526.018	275.894	0.116	0.207
-525.004	-118.365	0.340	-0.061
-523.989	-25.973	0.183	0.109
-522.975	22.828	0.136	0.113
-521.960	-200.000	-0.020	-0.090
-520.945	83.707	-0.073	-0.081
-519.931	-184.877	-0.232	-0.004
-518.916	226.486	-0.056	-0.093
-517.902	-86.275	0.077	-0.024
-516.887	14.221	-0.311	-0.245
-515.872	-57.220	-0.037	0.017
-514.858	-49.721	-0.323	-0.155
-513.843	-62.060	0.147	-0.062
-512.829	800.000	0.038	-0.107
-511.814	-200.000	0.012	0.114
-510.799	-200.000	0.017	0.335
-509.785	318.447	0.072	0.137
-508.770	-57.199	0.206	-0.091
-507.756	-117.103	0.242	-0.045
-506.741	159.197	0.204	-0.287
-505.726	62.700	0.092	0.092
-504.712	-97.253	-0.145	0.038
-503.697	170.598	0.155	0.224
-502.683	800.000	0.055	-0.158
-501.668	-138.801	0.117	-0.013
-500.653	-24.532	-0.062	0.037
-499.639	-4.668	-0.257	0.179
-498.624	-29.720	0.247	0.142
-497.610	-200.000	0.038	0.170
-496.595	-3.577	-0.303	-0.213
-495.581	-78.819	-0.363	-0.125
-494.566	-69.952	0.150	-0.058
-493.551	-62.633	-0.191	0.080
-492.537	-200.000	-0.009	0.213
-491.522	-28.486	0.203	0.118
-490.508	89.435	-0.048	0.054
-489.493	-94.921	0.124	-0.034
-488.478	-30.993	-0.135	-0.077
-487.464	-143.170	-0.318	-0.031
-486.449	-72.058	-0.354	0.133
-485.435	800.000	-0.005	-0.016
-484.420	-35.969	0.193	-0.105
-483.405	297.162	0.185	0.342
-482.391	151.786	0.084	-0.115
-481.376	-97.086	0.144	0.038
-480.362	-120.870	-0.187	-0.032
-479.347	-200.000	-0.009	0.275
-478.332	800.000	-0.074	0.243
-477.318	128.003	0.038	-0.049
-476.303	-26.083	0.095	-0.056
-475.289	-78.127	0.398	-0.138
-474.274	339.856	0.087	0.170
-473.259	-2.832	0.173	-0.122
-472.245	-200.000	0.074	-0.375
-471.230	130.443	0.075	0.096
-470.216	-200.000	-0.002	-0.264
-469.201	800.000	-0.054	0.181
-468.186	-23.590	-0.216	-0.131
-467.172	-131.141	0.495	-0.066
-466.157	177.856	-0.105	0.154
-465.143	-141.387	0.192	-0.020
-464.128	-117.512	-0.271	-0.049
-463.113	-158.655	0.077	-0.004
-462.099	-100.644	0.184	0.046
-461.084	108.901	-0.156	0.188
-460.070	-200.000	-0.007	0.655
-459.055	800.000	0.004	0.015
-458.040	-107.763	-0.174	0.038
-457.026	-60.360	0.429	-0.184
-456.011	-200.000	0.007	0.219
-454.997	-134.964	-0.205	0.025
-453.982	-168.082	-0.241	0.009
-452.968	178.466	-0.114	0.168
-451.953	-97.177	0.234	0.062
-450.938	-200.000	0.017	0.356
-449.924	-119.319	0.328	0.058
-448.909	36.516	-0.069	0.062
-447.895	-121.325	0.109	-0.018
-446.880	-169.821	0.406	-0.015
-445.865	584.745	0.111	0.275
-444.851	182.177	0.053	0.079
-443.836	-39.435	0.206	0.109
-442.822	677.292	-0.060	-0.157
-441.807	-200.000	0.036	0.469
-440.792	-30.273	-0.146	-0.083
-439.778	124.909	-0.277	-0.351
-438.763	-138.519	0.326	-0.036
-437.749	0.546	-0.119	0.085
-436.734	-200.000	0.036	-0.217
-435.719	138.037	0.116	-0.153
-434.705	4.578	0.094	-0.069
-433.690	-29.319	-0.055	0.032
-432.676	-89.854	-0.225	-0.066
-431.661	-110.125	0.498	-0.105
-430.646	65.000	-0.083	-0.084
-429.632	2.529	-0.176	0.128
-428.617	706.900	-0.058	-0.154
-427.603	-187.204	-0.059	-0.001
-426.588	-111.960	-0.290	0.059
-425.573	134.727	0.189	0.247
-424.559	-200.000	-0.019	-0.104
-423.544	69.525	0.061	0.063
-422.530	-178.760	-0.213	0.005
-421.515	516.684	-0.086	0.202
-420.500	-200.000	0.003	-0.339
-419.486	-41.757	-0.127	0.065
-418.471	-44.331	0.503	-0.254
-417.457	800.000	-0.053	-0.183
-416.442	444.029	0.109	0.240
-415.428	-146.757	-0.257	0.022
-414.413	-16.648	-0.353	-0.225
-413.398	-200.000	0.039	-0.226
-412.384	235.169	0.077	0.128
-411.369	-200.000	-0.006	-0.177
-410.355	-5.830	0.046	0.032
-409.340	800.000	0.055	-0.209
-408.325	66.076	-0.184	-0.187
-407.311	-155.629	0.197	0.013
-406.296	444.936	-0.132	0.291
-405.282	800.000	-0.075	-0.215
-404.267	-200.000	-0.001	-0.007
-403.252	219.546	0.163	0.262
-402.238	111.678	-0.064	-0.077
-401.223	-145.312	-0.282	0.026
-400.209	-116.102	-0.451	-0.084
-399.194	-74.519	0.085	-0.031
-398.179	306.186	-0.074	-0.138
-397.165	64.601	-0.157	0.159
-396.150	35.104	0.126	0.111
-395.136	-200.000	0.008	-0.178
-394.121	-155.985	0.296	-0.019
-393.106	259.440	0.156	0.270
-392.092	-93.781	-0.140	-0.039
-391.077	-74.895	-0.136	0.049
-390.063	140.330	-0.240	0.318
-389.048	800.000	0.085	-0.255
-388.033	-122.825	-0.281	-0.046
-387.019	70.135	0.289	-0.300
-386.004	-70.945	0.133	0.050
-384.990	-200.000	-0.011	0.304
-383.975	69.993	-0.155	-0.161
-382.960	-200.000	0.017	-0.246
-381.946	800.000	0.071	0.287
-380.931	-138.549	-0.142	0.016
-379.917	705.544	-0.104	-0.277
-378.902	-122.208	0.206	0.034
-377.888	-200.000	0.003	0.177
-376.873	-129.865	0.075	0.010
-375.858	-68.483	-0.230	0.089
-374.844	-156.470	0.170	0.011
-373.829	3.566	-0.170	-0.125
-372.815	-82.182	0.135	-0.044
-371.800	800.000	-0.059	0.241
-370.785	-200.000	-0.025	0.274
-369.771	-176.304	-0.260	0.007
-368.756	-20.437	0.324	0.200
-367.742	211.478	0.158	-0.250
-366.727	-200.000	-0.007	0.143
-365.712	-134.563	0.384	0.047
-364.698	-200.000	-0.034	0.262
-363.683	152.231	-0.100	-0.137
-362.669	532.477	0.198	-0.471
-361.654	149.667	0.225	-0.305
-360.639	118.836	-0.238	0.295
-359.625	-111.105	0.182	-0.037
-358.610	27.702	0.220	-0.186
-357.596	-79.685	0.337	0.114
-356.581	-200.000	0.029	0.389
-355.566	-200.000	0.014	0.166
-354.552	-37.459	-0.214	-0.115
-353.537	-32.343	0.203	-0.114
-352.523	-83.410	-0.114	-0.037
-351.508	800.000	0.088	-0.247
-350.493	11.114	0.107	-0.082
-349.479	-200.000	-0.101	0.000
-348.464	-73.392	0.154	-0.056
-347.450	423.170	-0.084	-0.182
-346.435	442.603	0.189	0.415
-345.420	-200.000	0.020	-0.360
-344.406	86.706	0.005	0.006
-343.391	26.206	0.211	0.177
-342.377	-24.995	0.124	-0.074
-341.362	25.862	-0.143	-0.119
-340.348	-200.000	-0.028	-0.170
-339.333	-200.000	-0.034	0.222
-338.318	89.937	0.206	0.231
-337.304	139.422	-0.250	0.330
-336.289	800.000	0.056	0.171
-335.275	106.209	0.062	-0.074
-334.260	-100.904	-0.361	0.089
-333.245	-33.404	-0.135	0.075
-332.231	-75.999	0.355	0.126
-331.216	-68.290	-0.116	0.045
-330.202	95.006	-0.113	-0.128
-329.187	800.000	0.067	0.291
-328.172	760.392	0.087	0.236
-327.158	-200.000	-0.004	-0.049
-326.143	800.000	0.033	-0.104
-325.129	63.933	-0.215	0.217
-324.114	-200.000	-0.013	0.183
-323.099	-30.464	-0.349	-0.198
-322.085	-176.057	0.239	0.006
-321.070	-56.209	-0.153	0.068
-320.056	46.403	0.206	-0.192
-319.041	-200.000	0.023	0.241
-318.026	800.000	-0.084	-0.255
-317.012	-200.000	0.019	0.347
-315.997	-26.375	0.308	0.181
-314.983	48.524	-0.051	0.047
-313.968	-78.570	0.114	-0.039
-312.953	218.035	-0.037	0.060
-311.939	-73.753	0.100	-0.036
-310.924	237.669	-0.019	-0.032
-309.910	563.589	0.082	-0.200
-308.895	309.948	-0.077	0.145
-307.880	198.520	0.104	-0.160
-306.866	-7.677	-0.166	-0.113
-305.851	185.403	0.191	-0.284
-304.837	-56.419	-0.152	-0.068
-303.822	25.648	0.129	-0.107
-302.807	-200.000	-0.003	0.109
-301.793	-22.680	-0.289	0.175
-300.778	-200.000	-0.024	-0.205
-299.764	-139.873	-0.058	0.006
-298.749	128.379	-0.047	0.060
-297.735	-3.689	0.211	-0.147
-296.720	800.000	-0.016	0.056
-295.705	35.568	0.173	0.152
-294.691	-154.822	-0.146	-0.010
-293.676	3.607	0.396	0.289
-292.662	-75.192	-0.143	-0.051
-291.647	-200.000	-0.066	0.312
-290.632	27.878	0.321	0.271
-289.618	-38.411	-0.152	0.081
-288.603	232.186	-0.077	0.127
-287.589	800.000	0.077	-0.242
-286.574	-82.987	-0.301	0.097
-285.559	151.562	-0.043	-0.059
-284.545	291.537	0.095	0.173
-283.530	800.000	0.011	0.031
-282.516	-80.514	-0.273	-0.091
-281.501	-30.946	0.133	0.075
-280.486	78.326	-0.055	-0.058
-279.472	79.817	-0.350	-0.376
-278.457	184.100	-0.192	-0.285
-277.443	-200.000	-0.002	-0.136
-276.428	-76.575	-0.394	0.138
-275.413	-98.491	-0.193	-0.049
-274.399	-200.000	-0.026	-0.286
-273.384	-22.311	0.230	-0.139
-272.370	-147.742	0.248	-0.021
-271.355	800.000	-0.043	0.162
-270.340	187.415	-0.259	0.387
-269.326	-37.618	-0.375	0.200
-268.311	-156.383	0.270	0.017
-267.297	-118.638	-0.168	0.030
-266.282	89.135	0.055	0.061
-265.267	133.160	0.038	0.049
-264.253	120.933	0.147	-0.183
-263.238	-134.649	-0.167	-0.020
-262.224	-108.221	-0.198	-0.043
-261.209	800.000	0.058	0.245
-260.195	-108.310	-0.366	-0.079
-259.180	-51.441	-0.322	0.150
-258.165	-200.000	0.007	-0.285
-257.151	-74.119	-0.289	0.105
-256.136	415.073	-0.102	0.217
-255.122	-92.458	0.270	-0.076
-254.107	110.428	0.110	-0.132
-253.092	-172.115	-0.435	0.014
-252.078	-27.773	0.046	0.027
-251.063	-87.348	-0.179	0.054
-250.049	-72.450	0.276	0.102
-249.034	12.444	-0.284	-0.219
-248.019	-97.553	-0.312	-0.081
-247.005	-31.608	0.221	-0.124
-245.990	-159.623	0.529	-0.029
-244.976	-85.991	-0.039	-0.012
-243.961	576.020	0.039	0.094
-242.946	-200.000	-0.024	-0.123
-241.932	-200.000	0.036	-0.228
-240.917	800.000	-0.170	0.513
-239.903	286.216	0.057	0.102
-238.888	-74.963	0.147	0.053
-237.873	416.849	0.135	0.289
-236.859	-109.229	0.262	-0.056
-235.844	-131.800	0.291	-0.038
-234.830	48.621	-0.258	0.241
-233.815	800.000	0.080	0.251
-232.800	800.000	0.051	-0.143
-231.786	62.022	-0.098	0.097
-230.771	257.207	-0.078	-0.133
-229.757	484.389	-0.036	-0.081
-228.742	167.166	-0.180	-0.254
-227.727	-200.000	-0.011	0.082
-226.713	336.397	0.127	0.246
-225.698	167.814	-0.034	-0.048
-224.684	-36.464	-0.238	-0.128
-223.669	-33.731	-0.338	-0.186
-222.655	800.000	0.020	0.082
-221.640	197.567	-0.142	0.216
-220.625	800.000	0.081	0.301
-219.611	-107.778	0.393	-0.086
-218.596	-22.168	-0.250	-0.151
-217.582	-82.449	0.304	0.098
-216.567	-50.268	-0.144	-0.068
-215.552	334.612	-0.099	-0.190
-214.538	800.000	0.077	-0.284
-213.523	-44.081	-0.085	-0.042
-212.509	-131.779	0.197	-0.026
-211.494	-192.247	-0.093	0.001
-210.479	800.000	-0.065	0.218
-209.465	800.000	0.142	0.391
-208.450	-53.559	-0.274	-0.125
-207.436	-32.674	0.177	0.098
-206.421	-13.031	-0.158	0.103
-205.406	164.659	-0.133	-0.187
-204.392	149.173	0.041	-0.055
-203.377	800.000	-0.064	-0.207
-202.363	54.269	0.232	-0.223
-201.348	-21.539	-0.115	-0.070
-200.333	64.775	-0.163	-0.164
-199.319	58.557	0.263	-0.258
-198.304	-100.133	-0.036	-0.009
-197.290	-1.696	0.457	-0.321
-196.275	-200.000	0.035	0.281
-195.260	-200.000	-0.066	0.400
-194.246	-200.000	-0.002	0.163
-193.231	306.484	-0.149	0.277
-192.217	800.000	-0.058	0.222
-191.202	-200.000	0.015	-0.078
-190.187	-19.542	-0.038	-0.023
-189.173	-77.747	0.122	-0.042
-188.158	-24.317	0.194	0.115
-187.144	-25.116	0.038	0.023
-186.129	-144.163	0.367	-0.034
-185.114	800.000	0.023	-0.082
-184.100	274.367	-0.015	0.027
-183.085	316.835	0.092	0.174
-182.071	-200.000	0.080	0.607
-181.056	-142.033	0.142	-0.014
-180.042	-167.643	-0.245	-0.010
-179.027	-200.000	0.035	-0.274
-178.012	800.000	0.045	0.126
-176.998	-171.462	-0.438	0.015
-175.983	-115.270	-0.159	-0.030
-174.969	-55.369	0.128	0.057
-173.954	211.853	-0.101	0.158
-172.939	-128.148	0.037	0.005
-171.925	489.209	0.086	-0.197
-170.910	-127.649	0.247	0.036
-169.896	69.294	-0.215	-0.220
-168.881	58.643	-0.054	0.053
-167.866	-200.000	-0.057	-0.321
-166.852	800.000	0.097	0.269
-165.837	-200.000	0.006	0.245
-164.823	-136.470	-0.118	0.014
-163.808	-1.120	0.076	-0.054
-162.793	106.559	-0.146	0.172
-161.779	800.000	0.082	-0.231
-160.764	551.113	0.028	0.066
-159.750	139.945	0.026	0.034
-158.735	82.771	0.175	-0.189
-157.720	-134.432	0.173	-0.021
-156.706	-26.781	-0.263	0.153
-155.691	480.723	-0.019	-0.044
-154.677	-169.390	0.321	0.012
-153.662	-200.000	0.021	-0.358
-152.647	370.209	-0.176	-0.356
-151.633	200.716	-0.098	-0.151
-150.618	-41.141	-0.102	0.053
-149.604	800.000	-0.085	-0.333
-148.589	-76.177	-0.346	0.122
-147.574	553.989	0.061	-0.146
-146.560	-10.620	-0.084	-0.056
-145.545	100.814	-0.112	-0.129
-144.531	-98.178	0.033	-0.008
-143.516	216.470	-0.192	0.304
-142.502	-157.111	0.243	-0.015
-141.487	238.006	-0.138	0.228
-140.472	-26.912	-0.359	0.209
-139.458	-200.000	-0.016	-0.144
-138.443	498.102	0.118	0.269
-137.429	-128.437	0.136	-0.019
-136.414	-200.000	0.013	-0.294
-135.399	-12.945	-0.032	-0.021
-134.385	-25.188	-0.172	-0.101
-133.370	-22.723	0.092	0.055
-132.356	189.511	-0.014	0.021
-131.341	-150.550	-0.198	0.015
-130.326	19.064	0.030	-0.024
-129.312	-104.963	0.189	-0.043
-128.297	-106.186	0.167	-0.037
-127.283	781.410	-0.058	0.158
-126.268	-25.856	-0.223	-0.131
-125.253	-200.000	0.066	0.339
-124.239	336.969	0.110	0.213
-123.224	800.000	-0.125	0.431
-122.210	47.622	0.175	0.162
-121.195	-137.585	-0.067	0.008
-120.180	39.384	0.076	-0.068
-119.166	15.538	0.176	-0.137
-118.151	-126.211	-0.250	0.037
-117.137	-130.430	-0.174	-0.023
-116.122	393.346	-0.162	0.335
-115.107	-59.134	0.232	-0.099
-114.093	-50.063	0.377	0.178
-113.078	-200.000	-0.015	0.089
-112.064	622.569	-0.132	-0.331
-111.049	-64.496	-0.324	-0.131
-110.034	-200.000	-0.004	-0.034
-109.020	-169.800	-0.276	0.010
-108.005	198.862	-0.015	0.023
-106.991	-40.002	0.249	0.129
-105.976	-48.169	-0.224	0.107
-104.962	-58.550	-0.104	-0.045
-103.947	191.154	-0.058	0.086
-102.932	624.203	-0.036	-0.090
-101.918	182.195	0.045	0.065
-100.903	-171.715	-0.406	-0.013
-99.889	-25.124	-0.095	0.056
-98.874	-132.088	0.237	0.031
-97.859	800.000	0.118	0.335
-96.845	399.378	0.068	-0.141
-95.830	-174.037	0.132	0.004
-94.816	-2.047	0.270	0.188
-93.801	-98.863	0.106	-0.027
-92.786	10.111	0.164	-0.124
-91.772	-4.238	0.193	0.133
-90.757	-96.626	-0.209	0.055
-89.743	281.398	0.188	-0.335
-88.728	-3.095	-0.054	-0.037
-87.713	193.228	-0.168	0.252
-86.699	23.935	0.332	-0.272
-85.684	-125.325	-0.319	0.048
-84.670	-200.000	-0.049	0.453
-83.655	372.349	-0.126	0.253
-82.640	-200.000	-0.022	0.174
-81.626	269.368	-0.060	-0.105
-80.611	-123.771	-0.252	0.040
-79.597	397.960	0.079	0.163
-78.582	-200.000	0.068	0.329
-77.567	-114.872	0.202	0.038
-76.553	308.297	0.031	-0.058
-75.538	538.576	0.054	-0.127
-74.524	515.120	0.185	0.430
-73.509	-0.374	-0.401	-0.283
-72.494	302.789	-0.043	0.079
-71.480	-37.654	0.020	0.011
-70.465	-200.000	0.698	0.002
-69.451	-64.967	0.101	0.041
-68.436	-200.000	-0.001	-0.303
-67.422	-81.543	-0.356	0.116
-66.407	-84.577	0.166	-0.052
-65.392	-200.000	-0.016	0.340
-64.378	99.612	-0.240	0.276
-63.363	121.471	0.104	-0.128
-62.349	128.787	-0.063	-0.079
-61.334	22.705	-0.827	-0.672
-60.319	800.000	0.179	0.499
-59.305	800.000	-0.250	-1.016
-58.290	207.692	0.679	1.052
-57.276	672.507	0.538	1.384
-56.261	-200.000	97.449	593.664
-55.246	625.145	1411.921	3531.496
-54.232	185.713	2606.278	3840.656
-53.217	109.927	2328.297	2770.081
-52.203	39.044	2080.964	1844.896
-51.188	34.067	1994.809	1723.494
-50.173	32.520	1976.753	1693.925
-49.159	48.205	2026.195	1879.384
-48.144	49.337	2043.977	1906.106
-47.130	34.745	2005.819	1738.904
-46.115	32.380	1994.837	1707.872
-45.100	32.354	1991.725	1704.904
-44.086	32.163	1989.954	1701.591
-43.071	32.007	1987.219	1697.778
-42.057	32.120	1984.961	1696.798
-41.042	32.127	1982.957	1695.081
-40.027	32.204	1980.776	1693.849
-39.013	32.198	1978.958	1692.172
-37.998	32.272	1976.991	1691.090
-36.984	32.265	1975.612	1689.775
-35.969	32.278	1973.494	1688.014
-34.954	32.309	1971.845	1686.812
-33.940	32.321	1970.510	1685.714
-32.925	32.370	1968.960	1684.763
-31.911	32.402	1966.900	1683.213
-30.896	32.357	1965.546	1681.586
-29.881	32.430	1963.845	1680.722
-28.867	32.348	1962.883	1679.099
-27.852	32.352	1960.638	1677.150
-26.838	32.405	1958.162	1675.432
-25.823	32.396	1956.729	1674.061
-24.809	32.343	1955.132	1672.157
-23.794	32.317	1953.909	1670.819
-22.779	32.367	1951.744	1669.343
-21.765	32.396	1949.663	1667.747
-20.750	32.368	1948.125	1666.118
-19.736	32.353	1946.843	1664.827
-18.721	32.395	1944.809	1663.396
-17.706	32.361	1943.723	1662.101
-16.692	32.399	1941.169	1660.182
-15.677	32.413	1939.547	1658.853
-14.663	32.423	1938.523	1657.997
-13.648	32.372	1937.797	1656.862
-12.633	32.291	1936.813	1655.241
-11.619	32.296	1935.706	1654.278
-10.604	32.365	1933.648	1653.057
-9.590	32.363	1932.332	1651.852
-8.575	32.349	1930.487	1650.084
-7.560	32.370	1929.523	1649.381
-6.546	32.318	1928.343	1647.852
-5.531	32.367	1927.325	1647.339
-4.517	32.380	1925.603	1645.922
-3.502	32.397	1924.673	1645.203
-2.487	32.385	1923.106	1643.696
-1.473	32.411	1922.177	1643.068
-0.458	32.483	1918.090	1640.130
0.556	31.663	1899.467	1616.529
1.571	28.015	1881.083	1569.490
2.586	24.515	1904.947	1558.766
3.600	23.595	1941.356	1580.229
4.615	23.029	1936.024	1570.720
5.629	17.824	1834.775	1444.494
6.644	9.311	1716.534	1283.587
7.659	5.319	1680.520	1225.295
8.673	5.029	1677.094	1220.421
9.688	5.002	1675.423	1218.887
10.702	5.001	1674.275	1217.937
11.717	4.838	1671.121	1214.264
12.731	5.335	1670.730	1217.743
13.746	11.107	1684.557	1272.949
14.761	18.000	1699.432	1338.260
15.775	19.466	1699.352	1349.547
16.790	18.267	1695.617	1337.098
17.804	17.129	1692.210	1325.416
18.819	16.079	1689.313	1314.849
19.834	15.458	1686.516	1307.720
20.848	15.132	1685.315	1304.136
21.863	14.928	1683.508	1301.035
22.877	14.724	1681.580	1297.846
23.892	14.510	1680.460	1295.200
24.907	14.466	1679.304	1293.857
25.921	14.366	1678.677	1292.480
26.936	14.402	1677.274	1291.567
27.950	14.437	1676.791	1291.347
28.965	14.413	1676.107	1290.521
29.980	14.535	1675.440	1290.841
30.994	14.626	1674.285	1290.541
32.009	14.682	1672.783	1289.703
33.023	14.677	1672.408	1289.259
34.038	14.670	1671.142	1288.117
35.053	14.710	1669.680	1287.180
36.067	14.673	1668.333	1285.744
37.082	14.575	1667.685	1284.378
38.096	14.599	1666.808	1283.773
39.111	14.641	1666.093	1283.435
40.126	14.641	1665.003	1282.480
41.140	14.649	1663.964	1281.629
42.155	14.471	1662.251	1278.825
43.169	14.349	1661.071	1276.868
44.184	14.296	1660.378	1275.823
45.199	14.330	1658.596	1274.596
46.213	14.278	1658.028	1273.651
47.228	14.344	1656.296	1272.709
48.242	14.450	1654.999	1272.413
49.257	14.495	1654.666	1272.385
50.271	14.488	1653.405	1271.248
51.286	14.462	1651.737	1269.654
52.301	14.515	1650.660	1269.119
53.315	14.524	1649.367	1268.084
54.330	14.538	1647.488	1266.631
55.344	14.347	1646.067	1263.980
56.359	14.401	1644.145	1262.803
57.374	14.411	1643.448	1262.226
58.388	14.404	1642.202	1261.111
59.403	14.346	1641.068	1259.686
60.417	14.341	1639.493	1258.325
61.432	14.274	1638.600	1257.022
62.447	14.284	1637.510	1256.152
63.461	14.171	1636.646	1254.527
64.476	14.159	1635.640	1253.553
65.490	14.162	1634.471	1252.573
66.505	14.201	1633.011	1251.633
67.520	14.249	1631.722	1250.897
68.534	14.257	1630.795	1250.134
69.549	14.286	1629.740	1249.432
70.563	14.277	1628.525	1248.326
71.578	14.370	1627.021	1247.761
72.593	14.189	1626.555	1245.932
73.607	14.153	1625.362	1244.639
74.622	14.143	1624.059	1243.455
75.636	14.149	1623.380	1242.871
76.651	14.109	1622.167	1241.536
77.666	14.089	1621.833	1241.018
78.680	14.125	1621.051	1240.578
79.695	14.130	1620.039	1239.733
80.709	14.227	1618.920	1239.492
81.724	14.265	1618.018	1238.972
82.739	14.348	1616.987	1238.691
83.753	14.330	1616.795	1238.299
84.768	14.474	1615.538	1238.302
85.782	14.474	1615.038	1237.806
86.797	14.542	1614.228	1237.579
87.812	14.565	1613.484	1237.071
88.826	14.498	1611.749	1235.132
89.841	14.514	1610.518	1234.202
90.855	14.545	1609.672	1233.669
91.870	14.518	1608.800	1232.698
92.884	14.557	1607.966	1232.238
93.899	14.683	1606.668	1232.060
94.914	14.606	1605.712	1230.652
95.928	14.606	1604.643	1229.725
96.943	14.690	1603.058	1229.017
97.957	14.655	1601.985	1227.828
98.972	14.522	1600.781	1225.822
99.987	14.607	1598.814	1224.830
101.001	14.589	1596.989	1223.193
102.016	14.579	1595.454	1221.836
103.030	14.509	1594.466	1220.454
104.045	14.541	1593.263	1219.660
105.060	14.598	1592.135	1219.109
106.074	14.521	1590.184	1216.943
107.089	14.530	1588.579	1215.673
108.103	14.320	1587.561	1213.254
109.118	14.284	1585.773	1211.521
110.133	14.267	1584.478	1210.304
111.147	14.207	1583.210	1208.792
112.162	14.362	1581.651	1208.617
113.176	14.358	1579.917	1207.160
114.191	14.346	1578.865	1206.155
115.206	14.325	1577.573	1204.913
116.220	14.394	1576.726	1204.661
117.235	14.371	1574.646	1202.794
118.249	14.264	1574.041	1201.452
119.264	14.267	1572.654	1200.311
120.279	14.358	1571.118	1199.690
121.293	14.285	1569.286	1197.661
122.308	14.288	1567.806	1196.446
123.322	14.272	1566.235	1195.024
124.337	14.277	1564.523	1193.651
125.352	14.167	1563.704	1192.134
126.366	14.191	1562.853	1191.548
127.381	14.261	1561.257	1190.724
128.395	14.221	1560.698	1189.912
129.410	14.197	1559.010	1188.342
130.424	14.224	1557.807	1187.518
131.439	14.317	1556.155	1186.814
132.454	14.399	1554.920	1186.348
133.468	14.393	1553.490	1185.116
134.483	14.433	1551.911	1184.090
135.497	14.367	1550.815	1182.679
136.512	14.420	1549.372	1181.849
137.527	14.358	1548.059	1180.307
138.541	14.457	1546.617	1179.801
139.556	14.506	1545.513	1179.201
140.570	14.531	1543.919	1178.055
141.585	14.511	1542.835	1176.981
142.600	14.527	1541.763	1176.173
143.614	14.671	1540.394	1176.043
144.629	14.686	1538.742	1174.779
145.643	14.670	1538.330	1174.253
146.658	14.692	1536.535	1172.931
147.673	14.709	1534.994	1171.771
148.687	14.631	1533.624	1170.075
149.702	14.600	1532.338	1168.774
150.716	14.500	1530.603	1166.642
151.731	14.540	1529.549	1166.015
152.746	14.543	1528.076	1164.813
153.760	14.555	1526.531	1163.619
154.775	14.550	1525.579	1162.750
155.789	14.581	1524.075	1161.716
156.804	14.660	1522.813	1161.208
157.819	14.705	1522.020	1160.810
158.833	14.672	1520.840	1159.576
159.848	14.701	1519.869	1158.937
160.862	14.770	1518.263	1158.087
161.877	14.907	1516.974	1157.948
162.892	14.685	1516.227	1155.739
163.906	14.639	1514.605	1154.082
164.921	14.556	1513.667	1152.695
165.935	14.592	1512.436	1151.901
166.950	14.670	1510.905	1151.173
167.964	14.671	1509.823	1150.255
168.979	14.698	1509.166	1149.834
169.994	14.706	1508.095	1148.977
171.008	14.626	1507.371	1147.768
172.023	14.806	1506.094	1147.932
173.037	14.709	1505.037	1146.365
174.052	14.860	1503.677	1146.260
175.067	14.868	1502.717	1145.483
176.081	14.821	1501.766	1144.336
177.096	14.715	1500.380	1142.450
178.110	14.737	1498.989	1141.441
179.125	14.693	1497.953	1140.249
180.140	14.754	1496.758	1139.655
181.154	14.803	1495.473	1138.912
182.169	14.728	1494.744	1137.743
183.183	14.814	1494.139	1137.766
184.198	14.921	1492.871	1137.427
185.213	14.931	1491.234	1136.147
186.227	15.003	1490.265	1135.800
187.242	14.939	1489.567	1134.735
188.256	14.955	1488.441	1133.886
189.271	15.064	1487.074	1133.481
190.286	15.116	1486.318	1133.154
191.300	15.043	1485.015	1131.569
192.315	14.887	1483.735	1129.438
193.329	14.695	1482.451	1127.063
194.344	14.683	1481.431	1126.111
195.359	14.720	1480.485	1125.537
196.373	14.851	1479.737	1125.753
197.388	15.012	1478.741	1125.981
198.402	15.008	1477.643	1125.016
199.417	15.077	1476.509	1124.519
200.432	15.196	1475.643	1124.557
201.446	15.262	1474.680	1124.167
202.461	15.254	1473.632	1123.212
203.475	15.312	1472.690	1122.789
204.490	15.348	1471.737	1122.200
205.504	15.283	1470.491	1120.714
206.519	15.256	1469.412	1119.615
207.534	15.151	1468.105	1117.822
208.548	15.157	1467.130	1117.022
209.563	15.203	1466.142	1116.472
210.577	15.214	1464.994	1115.575
211.592	15.193	1464.190	1114.724
212.607	15.307	1463.156	1114.594
213.621	15.333	1462.960	1114.523
214.636	15.385	1461.609	1113.734
215.650	15.333	1460.905	1112.757
216.665	15.361	1459.280	1111.609
217.680	15.337	1459.157	1111.258
218.694	15.484	1458.319	1111.494
219.709	15.567	1457.474	1111.301
220.723	15.417	1456.618	1109.558
221.738	15.462	1455.614	1108.993
222.753	15.493	1454.850	1108.518
223.767	15.415	1453.519	1106.891
224.782	15.548	1452.590	1106.960
225.796	15.486	1451.983	1105.990
226.811	15.537	1451.560	1105.908
227.826	15.585	1450.623	1105.411
228.840	15.575	1449.302	1104.238
229.855	15.499	1448.321	1102.894
230.869	15.516	1447.181	1102.044
231.884	15.457	1446.202	1100.813
232.899	15.516	1445.086	1100.251
233.913	15.476	1444.160	1099.186
234.928	15.468	1442.757	1097.968
235.942	15.364	1441.650	1096.350
236.957	15.394	1440.073	1095.253
237.972	15.382	1438.853	1094.147
238.986	15.372	1438.124	1093.432
240.001	15.485	1436.993	1093.208
241.015	15.443	1436.239	1092.264
242.030	15.490	1434.830	1091.405
243.045	15.437	1434.390	1090.629
244.059	15.517	1433.367	1090.276
245.074	15.749	1431.798	1090.488
246.088	15.527	1431.962	1089.080
247.103	15.657	1431.099	1089.168
248.117	15.752	1430.017	1088.859
249.132	15.846	1429.219	1088.763
250.147	15.824	1428.513	1087.987
251.161	15.865	1428.302	1087.998
252.176	16.048	1427.557	1088.513
253.190	16.115	1426.706	1088.205
254.205	16.073	1425.700	1087.068
255.220	16.270	1424.214	1087.109
256.234	16.169	1424.245	1086.384
257.249	16.217	1422.933	1085.600
258.263	16.225	1422.331	1085.092
259.278	16.229	1421.282	1084.225
260.293	16.188	1420.367	1083.163
261.307	16.210	1419.642	1082.657
262.322	16.271	1419.022	1082.482
263.336	16.367	1417.890	1082.135
264.351	16.368	1416.777	1081.197
265.366	16.313	1416.176	1080.289
266.380	16.306	1415.889	1079.932
267.395	16.356	1414.461	1079.069
268.409	16.355	1413.404	1078.159
269.424	16.326	1412.561	1077.237
270.439	16.280	1411.218	1075.825
271.453	16.223	1410.614	1074.901
272.468	16.332	1409.751	1074.846
273.482	16.273	1408.839	1073.680
274.497	16.314	1407.560	1072.867
275.512	16.257	1407.744	1072.554
276.526	16.327	1405.961	1071.543
277.541	16.287	1405.075	1070.521
278.555	16.405	1404.046	1070.390
279.570	16.402	1403.394	1069.777
280.585	16.396	1402.190	1068.730
281.599	16.486	1401.926	1068.998
282.614	16.545	1400.921	1068.513
283.628	16.551	1399.478	1067.356
284.643	16.369	1398.803	1065.599
285.657	16.389	1397.443	1064.595
286.672	16.394	1396.767	1064.013
287.687	16.408	1395.788	1063.263
288.701	16.390	1394.924	1062.398
289.716	16.433	1394.273	1062.081
290.730	16.441	1393.652	1061.562
291.745	16.502	1392.344	1060.854
292.760	16.523	1391.111	1059.952
293.774	16.623	1390.184	1059.782
294.789	16.565	1389.022	1058.434
295.803	16.617	1388.580	1058.330
296.818	16.599	1387.687	1057.443
297.833	16.630	1386.357	1056.534
298.847	16.552	1385.603	1055.381
299.862	16.579	1384.473	1054.591
300.876	16.564	1383.807	1053.897
301.891	16.604	1382.900	1053.365
302.906	16.618	1382.099	1052.745
303.920	16.774	1381.688	1053.309
304.935	16.791	1380.928	1052.745
305.949	16.796	1380.142	1052.081
306.964	16.806	1379.272	1051.387
307.979	16.971	1378.001	1051.351
308.993	16.897	1376.850	1049.916
310.008	16.878	1376.250	1049.254
311.022	16.820	1375.241	1048.030
312.037	16.995	1373.771	1047.900
313.052	16.945	1373.236	1047.089
314.066	16.948	1372.410	1046.384
315.081	16.780	1371.490	1044.553
316.095	16.755	1370.104	1043.253
317.110	16.909	1368.764	1043.088
318.125	16.717	1368.298	1041.458
319.139	16.722	1367.164	1040.532
320.154	16.813	1366.254	1040.306
321.168	16.732	1365.278	1038.976
322.183	16.756	1364.677	1038.573
323.197	16.826	1363.585	1038.078
324.212	16.778	1363.051	1037.290
325.227	16.794	1362.078	1036.555
326.241	16.822	1360.877	1035.722
327.256	16.992	1359.839	1035.873
328.270	16.981	1359.023	1035.094
329.285	16.924	1358.093	1033.948
330.300	16.904	1357.463	1033.257
331.314	16.950	1356.470	1032.689
332.329	16.946	1355.818	1032.077
333.343	16.999	1354.511	1031.312
334.358	17.020	1353.732	1030.756
335.373	16.916	1353.102	1029.553
336.387	17.014	1352.469	1029.572
337.402	17.007	1351.766	1028.905
338.416	17.095	1350.778	1028.597
339.431	17.132	1350.502	1028.516
340.446	17.133	1349.446	1027.632
341.460	17.216	1348.320	1027.186
342.475	17.229	1347.352	1026.433
343.489	17.333	1346.716	1026.486
344.504	17.412	1345.819	1026.188
345.519	17.392	1344.879	1025.262
346.533	17.330	1343.789	1023.963
347.548	17.465	1342.961	1024.056
348.562	17.444	1342.124	1023.200
349.577	17.433	1341.371	1022.470
350.592	17.445	1340.728	1021.959
351.606	17.442	1339.318	1020.776
352.621	17.308	1338.641	1019.371
353.635	17.177	1337.771	1017.829
354.650	17.230	1336.574	1017.150
355.665	17.260	1335.577	1016.480
356.679	17.297	1334.547	1015.827
357.694	17.398	1333.237	1015.342
358.708	17.357	1332.501	1014.446
359.723	17.435	1331.425	1014.002
360.738	17.579	1329.973	1013.665
361.752	17.512	1329.033	1012.461
362.767	17.528	1327.706	1011.451
363.781	17.472	1327.147	1010.603
364.796	17.489	1326.584	1010.186
365.810	17.516	1326.303	1010.047
366.825	17.556	1325.614	1009.667
367.840	17.686	1324.574	1009.557
368.854	17.745	1323.676	1009.130
369.869	17.771	1323.100	1008.757
370.883	17.811	1322.724	1008.621
371.898	17.837	1321.796	1007.975
372.913	17.673	1321.261	1006.509
373.927	17.677	1320.052	1005.520
374.942	17.642	1319.616	1004.898
375.956	17.668	1318.391	1004.030
376.971	17.739	1317.554	1003.721
377.986	17.802	1316.955	1003.544
379.000	17.743	1316.324	1002.629
380.015	17.887	1315.239	1002.559
381.029	17.913	1314.562	1002.105
382.044	17.889	1314.012	1001.459
383.059	17.906	1313.471	1001.055
384.073	18.087	1312.330	1001.157
385.088	18.010	1311.790	1000.207
386.102	18.001	1311.311	999.699
387.117	17.962	1310.497	998.764
388.132	17.945	1309.460	997.786
389.146	17.866	1308.795	996.728
390.161	17.913	1308.090	996.378
391.175	17.832	1307.128	995.083
392.190	17.863	1306.146	994.428
393.205	17.938	1305.682	994.424
394.219	18.052	1304.057	993.765
395.234	18.104	1303.205	993.325
396.248	18.003	1302.132	991.836
397.263	18.034	1300.455	990.652
398.278	18.029	1299.268	989.632
399.292	18.049	1297.950	988.653
400.307	17.947	1296.881	987.163
401.321	17.800	1296.456	985.905
402.336	17.973	1294.857	985.599
403.350	17.915	1294.145	984.633
404.365	17.919	1293.290	983.920
405.380	18.010	1292.324	983.622
406.394	17.976	1291.675	982.842
407.409	17.999	1291.131	982.479
408.423	18.165	1290.271	982.688
409.438	18.153	1289.584	982.008
410.453	18.352	1288.816	982.481
411.467	18.327	1288.174	981.756
412.482	18.401	1287.805	981.817
413.496	18.276	1287.324	980.645
414.511	18.378	1286.090	980.204
415.526	18.470	1284.946	979.772
416.540	18.501	1284.588	979.588
417.555	18.554	1284.038	979.384
418.569	18.529	1283.542	978.778
419.584	18.474	1283.023	977.981
420.599	18.505	1282.263	977.492
421.613	138.633	1432.198	1793.322
422.628	133.577	1454.020	1793.418
