DTS Sentinel unit serial number:	SN413079Multiplexer serial number:	ORYXHardware model number:	OX4-SRSoftware version number:	ORYX F/W v4.00 Oryx Data Collector v3.7.2.0data status	okinstallation	princeton_trtdifferential loss correction	single-endedforward channel	channel 4reverse channel	N/Adate	2019/09/13time	13:45:35forward acquisition time	60.00reverse acquisition time	0.00gamma	496.2192k internal	0.2296k external	0.2296temperature offset calibration	1.0212default loss term (dB/km)	0.3790temperature slope calibration	1.0000multiplexer offset coefficient	1.0000multiplexer slope coefficient	1.0000fibre end	0.00T internal ref (°C)	35.12T ext. ref 1 (°C)	4.58T ext. ref 2 (°C)	31.00length (m)	temperature (°C)	Stokes	anti-Stokes-747.200	137.268	0.232	-0.310
-746.185	-200.000	-0.042	0.321
-745.171	-152.857	0.353	0.026
-744.156	-46.458	0.136	-0.068
-743.142	800.000	-0.071	-0.290
-742.127	-22.864	-0.449	0.277
-741.112	-98.038	-0.083	-0.022
-740.098	-145.233	0.152	0.014
-739.083	-200.000	0.008	-0.238
-738.069	47.974	-0.080	0.077
-737.054	110.383	0.067	-0.083
-736.039	-172.331	-0.558	-0.018
-735.025	-100.866	-0.260	-0.065
-734.010	-20.864	0.257	-0.161
-732.996	-200.000	0.016	-0.105
-731.981	-200.000	0.003	-0.388
-730.966	15.620	-0.169	0.136
-729.952	-18.177	-0.051	-0.033
-728.937	38.490	-0.255	-0.232
-727.923	-200.000	0.073	-0.000
-726.908	-200.000	-0.008	0.121
-725.894	-33.267	-0.215	0.122
-724.879	415.569	0.093	0.202
-723.864	136.233	0.066	0.088
-722.850	200.932	0.140	0.219
-721.835	800.000	-0.069	-0.285
-720.821	87.289	-0.200	-0.226
-719.806	-200.000	-0.003	-0.115
-718.791	-54.276	0.170	-0.079
-717.777	1.286	-0.170	-0.125
-716.762	800.000	0.067	0.187
-715.748	8.066	-0.328	-0.251
-714.733	-51.066	-0.250	0.120
-713.718	44.319	0.043	-0.041
-712.704	-79.212	-0.103	-0.036
-711.689	-200.000	-0.032	-0.286
-710.675	54.193	-0.103	0.101
-709.660	41.000	0.022	-0.020
-708.645	-200.000	0.016	-0.178
-707.631	-95.447	-0.297	-0.081
-706.616	-78.191	0.239	0.084
-705.602	-43.784	-0.161	-0.083
-704.587	-116.272	-0.323	-0.061
-703.572	-163.098	0.215	0.011
-702.558	-4.430	-0.213	0.150
-701.543	-6.960	0.046	-0.032
-700.529	-14.691	-0.060	0.039
-699.514	-31.578	-0.416	-0.239
-698.499	-200.000	0.010	0.072
-697.485	-200.000	-0.032	-0.356
-696.470	12.137	0.224	0.176
-695.456	800.000	-0.038	0.116
-694.441	-38.743	-0.132	-0.071
-693.426	-105.091	0.091	0.021
-692.412	-108.826	-0.485	-0.106
-691.397	-172.384	0.327	0.011
-690.383	-200.000	-0.037	-0.242
-689.368	-200.000	-0.004	-0.449
-688.354	475.240	0.041	0.095
-687.339	-43.030	0.091	-0.047
-686.324	800.000	-0.079	0.246
-685.310	-48.002	-0.267	-0.132
-684.295	-200.000	0.003	0.238
-683.281	30.897	0.106	-0.093
-682.266	-138.069	-0.212	-0.024
-681.251	-40.652	0.348	0.184
-680.237	-0.424	-0.210	-0.152
-679.222	505.415	-0.062	0.147
-678.208	-200.000	-0.279	0.001
-677.193	-120.622	0.305	-0.053
-676.178	-93.076	0.084	-0.024
-675.164	-34.876	-0.100	-0.056
-674.149	-200.000	0.022	-0.329
-673.135	-17.620	0.091	-0.059
-672.120	8.097	0.169	0.129
-671.105	68.977	-0.156	-0.164
-670.091	136.124	-0.213	-0.284
-669.076	736.369	-0.162	-0.444
-668.062	147.193	-0.061	-0.084
-667.047	800.000	-0.032	0.125
-666.032	-26.301	0.289	-0.173
-665.018	65.435	-0.170	0.175
-664.003	-144.704	0.388	-0.036
-662.989	-66.972	0.139	0.056
-661.974	45.627	-0.082	0.077
-660.959	280.808	-0.063	-0.115
-659.945	36.344	0.050	-0.045
-658.930	600.513	0.064	-0.162
-657.916	-200.000	-0.003	0.122
-656.901	-121.259	0.194	-0.033
-655.886	206.152	-0.156	-0.247
-654.872	800.000	0.071	-0.210
-653.857	338.125	-0.076	-0.150
-652.843	-96.460	0.120	0.032
-651.828	158.447	0.073	-0.103
-650.814	11.534	0.347	-0.271
-649.799	-200.000	0.012	0.121
-648.784	-200.000	0.001	-0.088
-647.770	800.000	-0.025	-0.095
-646.755	-81.034	-0.099	0.033
-645.741	-169.014	0.344	0.013
-644.726	-46.077	0.281	0.141
-643.711	-88.242	-0.400	-0.122
-642.697	571.634	-0.165	-0.409
-641.682	-89.493	-0.284	0.085
-640.668	-10.148	0.174	-0.117
-639.653	800.000	0.066	-0.185
-638.638	-20.784	-0.200	0.125
-637.624	333.992	-0.070	-0.138
-636.609	-56.810	0.031	0.014
-635.595	-200.000	0.020	-0.128
-634.580	475.932	0.088	-0.203
-633.565	800.000	-0.093	-0.328
-632.551	430.872	-0.056	0.123
-631.536	-145.762	-0.514	0.047
-630.522	-103.105	-0.223	-0.054
-629.507	104.269	-0.049	0.058
-628.492	664.659	-0.098	-0.258
-627.478	23.420	0.186	0.156
-626.463	-109.662	-0.418	-0.090
-625.449	-169.417	-0.083	-0.003
-624.434	365.577	-0.073	0.150
-623.419	-52.370	0.333	-0.157
-622.405	-117.241	-0.165	-0.030
-621.390	-200.000	0.033	0.291
-620.376	-52.220	-0.081	0.038
-619.361	-200.000	0.107	0.503
-618.346	-81.217	0.427	-0.143
-617.332	800.000	0.003	-0.012
-616.317	-19.607	-0.184	0.116
-615.303	-109.948	-0.300	0.064
-614.288	-200.000	-0.108	0.529
-613.273	443.719	-0.090	-0.201
-612.259	-3.298	0.262	0.185
-611.244	-117.136	-0.065	0.012
-610.230	800.000	-0.026	-0.108
-609.215	507.830	-0.094	0.223
-608.201	122.814	-0.131	-0.167
-607.186	-200.000	-0.011	0.103
-606.171	-37.043	-0.068	0.037
-605.157	-200.000	-0.043	0.277
-604.142	-7.051	0.156	-0.108
-603.128	-17.865	0.393	-0.250
-602.113	-200.000	0.007	0.241
-601.098	35.906	-0.073	0.066
-600.084	-200.000	0.006	0.133
-599.069	-70.976	0.407	0.156
-598.055	650.203	-0.054	-0.141
-597.040	-138.796	-0.189	-0.021
-596.025	726.720	0.087	-0.235
-595.011	59.169	-0.192	-0.192
-593.996	597.368	0.026	-0.065
-592.982	-89.968	0.333	-0.099
-591.967	-49.397	-0.202	0.098
-590.952	800.000	0.099	0.308
-589.938	22.824	-0.139	0.116
-588.923	-8.304	0.152	0.104
-587.909	-200.000	0.008	-0.173
-586.894	311.396	-0.028	0.053
-585.879	344.549	0.138	0.274
-584.865	-70.807	0.383	-0.147
-583.850	513.779	-0.055	-0.131
-582.836	-86.028	0.182	0.057
-581.821	371.346	-0.112	-0.231
-580.806	26.595	-0.187	-0.159
-579.792	-6.240	-0.062	0.043
-578.777	-200.000	0.117	0.000
-577.763	19.549	-0.365	-0.298
-576.748	-47.272	-0.095	-0.047
-575.733	30.522	-0.232	-0.202
-574.719	-134.095	-0.129	0.016
-573.704	-200.000	0.023	-0.349
-572.690	119.932	0.038	0.048
-571.675	-200.000	0.035	-0.301
-570.661	-24.278	0.311	-0.188
-569.646	-108.083	-0.067	0.015
-568.631	-4.205	0.208	0.146
-567.617	45.068	-0.276	0.258
-566.602	-16.831	-0.274	-0.176
-565.588	124.889	0.144	0.184
-564.573	-41.120	-0.310	-0.163
-563.558	-200.000	0.036	-0.218
-562.544	800.000	-0.070	-0.197
-561.529	204.531	0.009	-0.014
-560.515	-75.861	-0.305	-0.109
-559.500	29.665	0.269	-0.232
-558.485	-55.880	-0.046	-0.021
-557.471	-185.059	-0.248	-0.004
-556.456	-43.695	-0.170	-0.087
-555.442	-64.819	-0.122	-0.050
-554.427	58.087	-0.231	-0.230
-553.412	-29.329	0.097	-0.057
-552.398	315.207	0.117	-0.223
-551.383	-200.000	0.055	0.373
-550.369	398.819	0.035	0.075
-549.354	642.580	-0.116	-0.301
-548.339	241.646	-0.117	0.198
-547.325	800.000	-0.037	-0.159
-546.310	-200.000	-0.026	0.300
-545.296	166.496	-0.026	-0.037
-544.281	339.397	0.229	0.453
-543.266	91.070	0.246	0.280
-542.252	577.709	-0.133	0.330
-541.237	-200.000	0.059	0.268
-540.223	62.742	-0.027	0.028
-539.208	-65.377	0.182	0.074
-538.193	-88.707	0.449	-0.135
-537.179	46.819	0.198	0.187
-536.164	134.739	0.135	0.178
-535.150	-82.990	0.154	-0.050
-534.135	177.968	-0.121	-0.179
-533.121	20.046	-0.363	-0.297
-532.106	-60.856	-0.701	-0.301
-531.091	408.977	0.047	-0.102
-530.077	598.827	-0.095	-0.239
-529.062	-200.000	-0.056	-0.254
-528.048	-86.222	0.167	-0.052
-527.033	-200.000	-0.018	0.092
-526.018	-200.000	0.061	0.275
-525.004	267.690	-0.126	0.224
-523.989	-172.727	-0.216	0.007
-522.975	147.548	-0.213	0.291
-521.960	-200.000	0.013	0.060
-520.945	22.797	0.188	0.156
-519.931	-93.723	-0.073	-0.020
-518.916	719.443	0.047	-0.128
-517.902	800.000	-0.146	-0.538
-516.887	-94.388	-0.297	-0.082
-515.872	83.101	0.205	-0.226
-514.858	-200.000	-0.060	-0.347
-513.843	19.043	-0.133	-0.108
-512.829	79.034	-0.148	-0.161
-511.814	-156.492	0.103	-0.006
-510.799	6.994	0.040	-0.030
-509.785	-110.795	-0.450	0.094
-508.770	-75.283	0.321	-0.116
-507.756	163.945	-0.145	0.207
-506.741	-200.000	-0.029	-0.198
-505.726	189.257	-0.086	-0.131
-504.712	783.789	-0.137	0.380
-503.697	800.000	0.066	0.213
-502.683	-166.095	0.257	0.011
-501.668	-125.490	0.126	-0.019
-500.653	29.092	-0.152	0.131
-499.639	-21.377	-0.076	-0.047
-498.624	-8.988	0.113	0.077
-497.610	-158.825	-0.111	0.006
-496.595	-78.203	-0.312	-0.108
-495.581	-90.299	-0.083	0.024
-494.566	-160.233	0.318	0.017
-493.551	-200.000	-0.002	-0.135
-492.537	198.131	-0.064	0.100
-491.522	-200.000	0.002	0.075
-490.508	488.965	0.022	-0.050
-489.493	121.909	0.113	-0.143
-488.478	-200.000	-0.000	0.066
-487.464	425.384	0.053	-0.116
-486.449	35.721	0.144	0.128
-485.435	800.000	-0.056	0.244
-484.420	-120.364	-0.054	-0.009
-483.405	-40.735	0.262	0.137
-482.391	-73.774	0.357	-0.131
-481.376	-200.000	-0.033	-0.161
-480.362	-200.000	0.009	0.091
-479.347	-200.000	0.250	0.001
-478.332	84.265	0.162	-0.179
-477.318	19.146	0.162	0.132
-476.303	-60.455	0.022	0.010
-475.289	-68.105	0.251	-0.099
-474.274	-115.999	-0.093	-0.018
-473.259	328.652	0.097	0.188
-472.245	-200.000	-0.020	-0.165
-471.230	3.705	-0.246	-0.181
-470.216	800.000	0.064	0.206
-469.201	-75.697	-0.156	-0.056
-468.186	-142.303	-0.238	0.024
-467.172	40.331	0.372	0.338
-466.157	284.671	0.071	0.130
-465.143	511.954	-0.079	0.185
-464.128	-200.000	-0.006	0.272
-463.113	-200.000	0.328	-0.000
-462.099	115.967	-0.224	-0.277
-461.084	-95.131	0.210	-0.057
-460.070	79.394	-0.210	0.227
-459.055	-88.605	-0.032	-0.010
-458.040	-166.461	-0.279	0.012
-457.026	271.120	-0.023	-0.040
-456.011	-6.421	-0.150	-0.103
-454.997	-169.957	0.192	-0.007
-453.982	-200.000	0.032	0.390
-452.968	-121.250	0.172	0.029
-451.953	219.071	-0.141	-0.228
-450.938	-16.239	0.212	-0.136
-449.924	800.000	-0.065	-0.241
-448.909	-34.761	0.087	0.048
-447.895	800.000	0.040	0.150
-446.880	-200.000	0.000	0.043
-445.865	800.000	-0.059	-0.233
-444.851	-200.000	0.030	-0.224
-443.836	-7.146	0.231	0.158
-442.822	-78.507	-0.338	0.117
-441.807	-59.761	0.266	-0.115
-440.792	800.000	0.029	0.089
-439.778	49.515	0.230	0.219
-438.763	-123.771	-0.526	-0.084
-437.749	-9.157	0.157	-0.106
-436.734	-95.764	0.287	-0.077
-435.719	248.730	-0.126	0.215
-434.705	248.877	0.089	0.152
-433.690	224.762	0.146	0.239
-432.676	233.542	0.098	-0.162
-431.661	-127.586	0.204	0.030
-430.646	-173.857	-0.312	-0.009
-429.632	-90.510	0.161	-0.047
-428.617	-111.403	0.194	0.040
-427.603	-92.504	-0.306	-0.087
-426.588	121.272	-0.237	-0.298
-425.573	16.321	-0.342	-0.273
-424.559	800.000	-0.021	0.066
-423.544	-200.000	0.012	0.108
-422.530	-107.158	0.084	-0.019
-421.515	-200.000	0.016	0.155
-420.500	23.200	0.024	0.020
-419.486	-200.000	0.024	0.262
-418.471	-15.883	-0.075	-0.048
-417.457	-100.327	0.223	-0.056
-416.442	181.983	0.051	0.076
-415.428	-105.322	0.086	-0.020
-414.413	-136.253	0.272	-0.032
-413.398	-16.646	0.121	-0.077
-412.384	-88.606	-0.158	-0.047
-411.369	-106.591	-0.311	0.070
-410.355	-62.697	-0.075	0.031
-409.340	449.145	0.109	-0.242
-408.325	800.000	0.034	-0.138
-407.311	-32.687	0.383	-0.215
-406.296	446.799	0.067	-0.148
-405.282	-153.170	0.186	-0.013
-404.267	2.336	-0.183	0.133
-403.252	-90.510	0.130	0.038
-402.238	550.398	0.125	0.301
-401.223	183.071	0.093	-0.139
-400.209	136.077	-0.080	-0.105
-399.194	-40.152	0.033	-0.017
-398.179	-200.000	-0.002	-0.072
-397.165	77.594	0.199	0.214
-396.150	90.150	-0.070	0.078
-395.136	58.990	-0.166	-0.165
-394.121	-131.279	0.148	0.020
-393.106	800.000	0.040	-0.137
-392.092	-159.075	0.235	0.013
-391.077	-36.623	0.145	0.079
-390.063	800.000	-0.088	0.249
-389.048	188.229	0.105	-0.158
-388.033	-104.209	0.285	-0.067
-387.019	48.767	0.056	0.053
-386.004	19.003	-0.043	-0.035
-384.990	-198.716	0.040	-0.000
-383.975	-71.638	-0.286	0.107
-382.960	-113.147	0.362	0.072
-381.946	588.300	0.083	0.206
-380.931	-200.000	-0.033	-0.229
-379.917	-104.485	0.361	0.084
-378.902	-5.239	0.369	0.256
-377.888	-33.405	0.379	-0.211
-376.873	398.156	-0.126	0.266
-375.858	144.100	0.075	-0.101
-374.844	800.000	0.023	0.067
-373.829	101.527	0.178	0.209
-372.815	-199.714	-0.303	0.002
-371.800	267.180	-0.204	-0.359
-370.785	81.375	0.093	-0.101
-369.771	-200.000	-0.114	0.000
-368.756	-200.000	-0.037	0.216
-367.742	-200.000	0.087	0.430
-366.727	69.416	-0.234	0.242
-365.712	-71.600	-0.085	-0.032
-364.698	10.016	0.270	0.206
-363.683	-74.914	-0.093	0.034
-362.669	-200.000	0.052	-0.342
-361.654	-168.880	-0.180	-0.007
-360.639	-30.328	-0.383	0.219
-359.625	-145.221	-0.240	-0.022
-358.610	21.301	-0.211	-0.173
-357.596	-47.188	0.238	0.117
-356.581	-43.441	-0.305	-0.155
-355.566	-15.398	0.207	0.133
-354.552	800.000	0.062	-0.180
-353.537	-114.243	0.350	0.068
-352.523	145.047	-0.087	-0.117
-351.508	-200.000	-0.064	-0.354
-350.493	-142.517	0.125	0.012
-349.479	-47.360	0.286	-0.140
-348.464	-200.000	-0.024	0.528
-347.450	-200.000	0.028	-0.270
-346.435	220.932	0.067	-0.109
-345.420	40.828	0.156	0.142
-344.406	-178.684	0.261	-0.006
-343.391	-102.139	-0.276	-0.067
-342.377	102.359	-0.114	-0.133
-341.362	138.236	0.114	-0.150
-340.348	-118.434	-0.378	0.067
-339.333	3.295	-0.256	-0.187
-338.318	800.000	0.102	-0.404
-337.304	-165.133	0.465	-0.021
-336.289	-148.433	-0.122	-0.010
-335.275	183.560	0.206	-0.306
-334.260	21.320	-0.221	0.181
-333.245	-74.292	-0.237	0.086
-332.231	800.000	0.061	0.263
-331.216	202.770	0.072	-0.111
-330.202	-200.000	-0.015	0.161
-329.187	-87.589	0.100	0.030
-328.172	-29.858	0.184	0.105
-327.158	-170.108	-0.184	0.007
-326.143	505.901	0.095	0.222
-325.129	-200.000	0.004	0.207
-324.114	-102.677	0.166	-0.040
-323.099	164.895	0.301	0.427
-322.085	-200.000	-0.093	-0.000
-321.070	359.617	0.035	0.070
-320.056	-141.803	0.281	0.028
-319.041	-155.503	0.025	-0.002
-318.026	240.004	0.068	-0.113
-317.012	97.317	0.025	-0.028
-315.997	85.950	0.092	0.102
-314.983	800.000	-0.118	-0.392
-313.968	286.272	-0.104	-0.188
-312.953	-13.998	-0.194	0.126
-311.939	-68.458	-0.089	-0.035
-310.924	7.413	0.043	-0.032
-309.910	-200.000	-0.018	-0.165
-308.895	586.011	-0.035	0.086
-307.880	-146.568	-0.308	0.027
-306.866	296.284	0.116	-0.214
-305.851	-200.000	0.012	-0.179
-304.837	532.668	0.022	-0.052
-303.822	-102.099	-0.070	0.017
-302.807	127.983	0.191	-0.244
-301.793	-100.351	-0.174	0.043
-300.778	396.383	-0.185	-0.389
-299.764	-106.948	0.095	0.021
-298.749	-38.558	0.061	-0.032
-297.735	-147.260	-0.326	-0.028
-296.720	-74.572	-0.204	-0.074
-295.705	95.442	-0.077	-0.089
-294.691	-200.000	0.005	-0.044
-293.676	-125.764	0.206	-0.031
-292.662	38.513	0.219	-0.196
-291.647	-200.000	0.004	-0.158
-290.632	-37.310	-0.323	0.173
-289.618	-153.613	0.125	-0.009
-288.603	-88.752	0.054	-0.016
-287.589	-105.960	-0.113	-0.026
-286.574	153.228	0.037	-0.050
-285.559	63.398	0.229	0.230
-284.545	295.293	0.114	-0.209
-283.530	5.505	0.438	0.324
-282.516	-200.000	-0.065	0.304
-281.501	-200.000	-0.066	0.361
-280.486	-200.000	-0.029	0.264
-279.472	251.543	0.068	0.116
-278.457	220.343	0.288	0.463
-277.443	-99.689	-0.180	0.045
-276.428	-59.963	0.134	-0.058
-275.413	-24.125	0.114	-0.068
-274.399	-112.650	-0.365	-0.073
-273.384	-48.415	0.216	-0.105
-272.370	151.863	0.042	0.057
-271.355	-200.000	-0.035	-0.403
-270.340	-200.000	-0.022	0.118
-269.326	-143.157	0.125	0.012
-268.311	173.210	-0.151	0.218
-267.297	800.000	-0.069	0.285
-266.282	29.821	0.043	-0.037
-265.267	-68.788	-0.232	0.090
-264.253	88.882	-0.049	0.055
-263.238	84.088	0.223	0.244
-262.224	91.823	-0.162	-0.183
-261.209	36.150	0.264	-0.233
-260.195	12.989	-0.130	-0.101
-259.180	127.539	-0.088	0.112
-258.165	800.000	-0.101	0.309
-257.151	-52.204	0.244	0.113
-256.136	186.506	-0.274	-0.408
-255.122	800.000	-0.081	0.228
-254.107	-200.000	0.056	0.296
-253.092	-25.503	-0.264	0.156
-252.078	-20.735	-0.091	0.056
-251.063	800.000	0.042	0.145
-250.049	-150.249	-0.260	-0.020
-249.034	-33.095	0.310	-0.172
-248.019	-130.652	-0.135	-0.018
-247.005	800.000	-0.034	0.136
-245.990	-200.000	-0.018	-0.132
-244.976	227.681	0.111	-0.181
-243.961	612.869	-0.086	-0.216
-242.946	6.478	-0.202	-0.151
-241.932	170.273	0.157	-0.225
-240.917	56.718	-0.136	0.133
-239.903	-173.378	-0.277	-0.008
-238.888	81.141	-0.381	-0.412
-237.873	-200.000	0.012	0.089
-236.859	-107.980	-0.049	0.011
-235.844	-32.770	-0.310	0.173
-234.830	434.048	0.096	0.210
-233.815	-172.402	-0.113	0.004
-232.800	22.098	0.184	0.151
-231.786	-12.112	-0.268	0.176
-230.771	800.000	-0.057	-0.160
-229.757	-52.261	0.126	0.059
-228.742	800.000	0.059	-0.177
-227.727	-34.876	0.440	0.241
-226.713	800.000	-0.033	-0.098
-225.698	800.000	-0.086	-0.317
-224.684	-200.000	-0.047	0.325
-223.669	34.074	-0.045	-0.039
-222.655	-143.538	-0.276	-0.026
-221.640	-125.204	0.106	0.016
-220.625	57.598	-0.038	0.038
-219.611	7.441	-0.299	0.224
-218.596	80.552	-0.252	0.272
-217.582	-87.541	-0.587	-0.178
-216.567	-34.720	-0.241	-0.132
-215.552	-111.760	0.241	0.049
-214.538	-79.636	0.099	-0.033
-213.523	-134.168	-0.309	0.038
-212.509	-125.009	-0.269	-0.041
-211.494	-23.718	0.217	-0.130
-210.479	131.934	-0.076	0.098
-209.465	-23.882	-0.176	0.105
-208.450	93.463	-0.197	0.223
-207.436	-135.333	0.053	-0.006
-206.421	140.836	-0.138	-0.183
-205.406	140.322	-0.134	0.176
-204.392	-200.000	0.027	-0.156
-203.377	-24.762	0.262	0.156
-202.363	-73.090	0.466	0.171
-201.348	-2.862	0.107	0.075
-200.333	-200.000	-0.001	-0.099
-199.319	11.546	-0.180	0.138
-198.304	-30.522	0.322	-0.183
-197.290	767.033	0.116	0.316
-196.275	-17.276	0.143	0.090
-195.260	36.789	0.147	-0.130
-194.246	-33.959	0.085	-0.047
-193.231	-63.056	0.295	0.122
-192.217	-149.775	0.286	-0.022
-191.202	-15.585	0.312	-0.199
-190.187	-17.039	0.167	-0.105
-189.173	-117.030	0.257	-0.047
-188.158	71.245	0.158	-0.163
-187.144	800.000	-0.104	-0.325
-186.129	-200.000	0.003	-0.057
-185.114	-78.140	0.233	-0.080
-184.100	-200.000	-0.004	0.155
-183.085	-97.804	0.130	-0.034
-182.071	-200.000	-0.066	-0.000
-181.056	800.000	0.012	-0.038
-180.042	-134.225	-0.168	0.021
-179.027	-42.155	-0.240	-0.123
-178.012	800.000	0.037	-0.119
-176.998	11.083	-0.148	0.113
-175.983	10.870	-0.042	-0.032
-174.969	101.797	0.161	0.188
-173.954	-200.000	-0.009	-0.078
-172.939	257.680	0.094	0.162
-171.925	348.316	-0.053	0.105
-170.910	141.851	0.066	0.088
-169.896	-167.668	-0.260	0.010
-168.881	159.481	-0.092	0.128
-167.866	426.929	-0.015	-0.032
-166.852	800.000	-0.072	-0.244
-165.837	117.705	0.053	-0.066
-164.823	-45.544	0.181	-0.090
-163.808	-200.000	0.003	0.143
-162.793	284.627	-0.027	0.048
-161.779	47.892	-0.081	-0.075
-160.764	-59.811	-0.071	-0.030
-159.750	-59.385	0.147	-0.063
-158.735	98.763	-0.071	0.081
-157.720	-200.000	-0.043	0.240
-156.706	19.373	-0.106	0.085
-155.691	756.312	-0.070	-0.189
-154.677	-152.970	-0.127	0.009
-153.662	-85.477	0.211	-0.066
-152.647	0.531	-0.123	0.088
-151.633	-41.998	0.242	0.124
-150.618	-126.452	-0.426	0.063
-149.604	-72.759	-0.278	-0.102
-148.589	-54.040	0.042	0.019
-147.574	171.815	-0.064	0.092
-146.560	800.000	0.076	0.286
-145.545	800.000	-0.038	-0.149
-144.531	198.162	-0.104	-0.158
-143.516	-83.557	0.094	0.030
-142.502	153.356	0.151	0.207
-141.487	-200.000	0.046	0.207
-140.472	305.497	0.186	-0.346
-139.458	-182.404	0.374	-0.007
-138.443	-200.000	-0.010	0.100
-137.429	-200.000	-0.075	-0.384
-136.414	-200.000	0.013	0.180
-135.399	-145.710	0.137	0.012
-134.385	234.072	-0.310	0.509
-133.370	5.074	-0.306	-0.225
-132.356	-167.753	-0.308	-0.012
-131.341	-114.897	0.506	0.096
-130.326	-200.000	0.011	-0.195
-129.312	-109.734	-0.258	-0.054
-128.297	-47.978	-0.285	-0.138
-127.283	-159.028	0.201	-0.011
-126.268	-200.000	0.005	-0.256
-125.253	373.641	0.043	-0.088
-124.239	-7.554	-0.253	0.171
-123.224	504.813	-0.055	-0.127
-122.210	800.000	0.023	-0.092
-121.195	800.000	-0.056	0.172
-120.180	217.971	-0.191	-0.304
-119.166	800.000	-0.058	0.191
-118.151	-26.982	0.091	0.053
-117.137	-15.302	-0.086	-0.055
-116.122	156.114	0.114	-0.157
-115.107	800.000	-0.100	0.321
-114.093	800.000	-0.115	-0.395
-113.078	-200.000	-0.011	-0.161
-112.064	71.650	0.155	-0.160
-111.049	800.000	0.056	-0.237
-110.034	-140.307	0.128	0.013
-109.020	323.153	0.160	0.305
-108.005	203.547	-0.187	-0.288
-106.991	-48.492	0.531	0.255
-105.976	-30.196	0.194	0.110
-104.962	-47.391	-0.226	0.110
-103.947	-200.000	0.051	0.355
-102.932	-167.871	-0.237	0.009
-101.918	272.636	0.029	0.052
-100.903	-161.805	0.286	0.014
-99.889	-200.000	-0.024	-0.169
-98.874	-129.873	0.193	-0.026
-97.859	125.431	0.283	0.355
-96.845	-110.444	0.246	0.051
-95.830	289.160	-0.104	-0.188
-94.816	-146.569	0.093	0.008
-93.801	-108.666	-0.163	-0.035
-92.786	-144.380	0.137	-0.013
-91.772	-109.216	-0.165	-0.035
-90.757	-31.543	0.117	-0.065
-89.743	-22.728	-0.088	-0.053
-88.728	-117.697	-0.217	-0.039
-87.713	800.000	-0.067	0.190
-86.699	95.737	-0.033	-0.038
-85.684	-1.651	-0.248	0.174
-84.670	-200.000	-0.022	0.160
-83.655	299.699	-0.098	-0.179
-82.640	800.000	-0.048	0.154
-81.626	800.000	0.053	-0.175
-80.611	144.863	0.036	0.048
-79.597	462.451	-0.060	-0.133
-78.582	150.221	0.040	-0.055
-77.567	-59.787	0.182	-0.078
-76.553	2.365	-0.209	-0.150
-75.538	249.352	-0.037	0.062
-74.524	17.707	0.287	0.227
-73.509	-38.176	-0.269	-0.142
-72.494	-187.447	-0.139	0.002
-71.480	23.091	-0.127	-0.104
-70.465	9.214	0.174	0.131
-69.451	785.152	0.049	-0.133
-68.436	133.455	-0.108	-0.139
-67.422	-9.182	0.277	-0.184
-66.407	126.097	0.086	-0.108
-65.392	-200.000	-0.018	0.140
-64.378	66.574	-0.092	0.094
-63.363	800.000	-0.136	0.439
-62.349	-139.312	-0.091	0.010
-61.334	250.500	-0.554	-0.937
-60.319	16.484	0.480	-0.377
-59.305	718.621	-0.498	-1.317
-58.290	285.396	0.436	0.782
-57.276	777.833	0.495	1.345
-56.261	-200.000	95.043	561.305
-55.246	630.614	1383.216	3481.802
-54.232	183.088	2611.540	3836.131
-53.217	113.077	2353.441	2838.318
-52.203	41.999	2100.881	1896.258
-51.188	36.905	2012.486	1770.010
-50.173	35.236	1994.259	1738.787
-49.159	48.895	2045.479	1909.329
-48.144	51.823	2064.620	1954.064
-47.130	37.583	2021.686	1784.042
-46.115	35.151	2010.193	1751.620
-45.100	34.920	2007.940	1747.483
-44.086	34.963	2005.502	1745.679
-43.071	34.885	2002.557	1742.339
-42.057	34.860	2000.420	1740.180
-41.042	34.921	1998.214	1738.743
-40.027	34.965	1996.394	1737.490
-39.013	35.009	1994.151	1735.869
-37.998	35.038	1991.817	1734.035
-36.984	35.120	1989.880	1733.023
-35.969	35.048	1988.348	1730.964
-34.954	35.022	1986.591	1729.133
-33.940	35.049	1985.425	1728.292
-32.925	35.193	1983.412	1727.771
-31.911	35.126	1982.046	1725.913
-30.896	35.057	1980.052	1723.485
-29.881	35.134	1978.435	1722.699
-28.867	35.179	1976.809	1721.626
-27.852	35.131	1974.927	1719.481
-26.838	35.216	1973.203	1718.673
-25.823	35.210	1971.268	1716.869
-24.809	35.152	1969.438	1714.685
-23.794	35.154	1967.674	1713.101
-22.779	35.115	1966.440	1711.609
-21.765	35.165	1964.401	1710.211
-20.750	35.149	1962.579	1708.422
-19.736	35.186	1961.401	1707.653
-18.721	35.196	1959.764	1706.246
-17.706	35.123	1958.310	1704.268
-16.692	35.141	1956.256	1702.575
-15.677	35.139	1954.390	1700.866
-14.663	35.199	1952.663	1699.820
-13.648	35.132	1951.801	1698.413
-12.633	35.172	1950.648	1697.695
-11.619	35.163	1949.412	1696.475
-10.604	35.138	1947.410	1694.443
-9.590	35.142	1946.665	1693.761
-8.575	35.035	1945.640	1691.856
-7.560	35.146	1943.811	1691.183
-6.546	35.200	1942.297	1690.273
-5.531	35.129	1941.283	1688.692
-4.517	35.172	1939.786	1687.709
-3.502	35.226	1938.392	1686.905
-2.487	35.162	1937.610	1685.595
-1.473	35.141	1936.693	1684.539
-0.458	35.175	1932.616	1681.230
0.556	37.795	1912.540	1653.982
1.571	33.163	1891.514	1596.652
2.586	28.351	1912.955	1573.397
3.600	26.777	1948.184	1588.450
4.615	25.335	1941.369	1570.155
5.629	19.497	1838.916	1438.647
6.644	9.961	1718.315	1269.557
7.659	4.998	1679.040	1202.237
8.673	4.526	1675.804	1196.183
9.688	4.604	1674.030	1195.412
10.702	4.629	1673.054	1194.803
11.717	4.550	1670.708	1192.414
12.731	5.315	1670.462	1197.995
13.746	11.951	1685.673	1259.995
14.761	20.322	1704.001	1338.403
15.775	22.903	1707.489	1360.935
16.790	22.468	1704.910	1355.413
17.804	21.512	1702.192	1345.784
18.819	20.585	1698.755	1335.831
19.834	19.872	1696.761	1328.671
20.848	19.609	1695.347	1325.427
21.863	19.606	1693.556	1323.889
22.877	19.381	1692.323	1321.084
23.892	19.224	1690.696	1318.493
24.907	19.168	1689.955	1317.373
25.921	19.188	1688.981	1316.650
26.936	19.057	1687.566	1314.428
27.950	19.072	1686.899	1313.906
28.965	19.148	1686.169	1313.802
29.980	19.183	1686.027	1313.843
30.994	19.226	1685.146	1313.370
32.009	19.463	1683.073	1313.444
33.023	19.505	1682.785	1313.421
34.038	19.499	1681.736	1312.437
35.053	19.494	1680.542	1311.355
36.067	19.348	1679.097	1308.999
37.082	19.304	1677.827	1307.565
38.096	19.268	1677.035	1306.557
39.111	19.405	1676.284	1306.889
40.126	19.396	1675.790	1306.322
41.140	19.385	1674.759	1305.321
42.155	19.271	1672.960	1302.942
43.169	18.919	1671.095	1298.717
44.184	18.933	1669.750	1297.660
45.199	18.846	1669.325	1296.563
46.213	18.899	1667.557	1295.469
47.228	18.836	1666.839	1294.325
48.242	19.039	1665.791	1294.923
49.257	19.261	1665.145	1295.974
50.271	19.250	1663.639	1294.609
51.286	19.175	1662.729	1293.222
52.301	19.284	1661.004	1292.584
53.315	19.330	1659.592	1291.714
54.330	19.123	1658.196	1288.960
55.344	19.092	1656.558	1287.343
56.359	18.960	1654.865	1284.928
57.374	18.966	1653.916	1284.122
58.388	19.029	1652.545	1283.413
59.403	18.884	1651.365	1281.302
60.417	18.890	1649.756	1279.990
61.432	18.771	1649.182	1278.541
62.447	18.743	1648.231	1277.481
63.461	18.697	1646.650	1275.802
64.476	18.635	1645.475	1274.323
65.490	18.703	1644.296	1273.801
66.505	18.555	1642.925	1271.526
67.520	18.662	1642.290	1271.717
68.534	18.752	1640.924	1271.215
69.549	18.749	1640.045	1270.393
70.563	18.700	1639.077	1269.170
71.578	18.656	1637.777	1267.728
72.593	18.528	1636.559	1265.725
73.607	18.506	1635.348	1264.516
74.622	18.433	1634.413	1263.147
75.636	18.472	1633.470	1262.590
76.651	18.497	1632.508	1261.920
77.666	18.559	1631.480	1261.470
78.680	18.565	1630.830	1260.901
79.695	18.634	1630.224	1260.827
80.709	18.741	1629.263	1260.754
81.724	18.730	1628.764	1260.182
82.739	18.924	1627.712	1260.678
83.753	18.963	1626.928	1260.245
84.768	19.038	1626.227	1260.140
85.782	19.300	1625.484	1261.370
86.797	19.267	1625.246	1260.826
87.812	19.406	1624.119	1260.857
88.826	19.322	1623.119	1259.358
89.841	19.228	1621.722	1257.479
90.855	19.168	1620.925	1256.313
91.870	19.296	1619.572	1256.086
92.884	19.431	1618.647	1256.240
93.899	19.448	1618.052	1255.786
94.914	19.431	1616.992	1254.730
95.928	19.482	1615.312	1253.685
96.943	19.503	1613.947	1252.669
97.957	19.370	1612.709	1250.631
98.972	19.396	1611.130	1249.487
99.987	19.353	1609.268	1247.619
101.001	19.355	1607.650	1246.268
102.016	19.419	1606.246	1245.537
103.030	19.296	1605.674	1244.093
104.045	19.424	1604.155	1243.730
105.060	19.378	1602.752	1242.202
106.074	19.230	1601.355	1239.943
107.089	19.143	1599.114	1237.470
108.103	18.749	1598.271	1233.881
109.118	18.675	1596.125	1231.583
110.133	18.627	1594.499	1229.878
111.147	18.594	1593.499	1228.758
112.162	18.699	1591.546	1227.894
113.176	18.753	1590.330	1227.235
114.191	18.823	1589.291	1226.820
115.206	18.841	1588.493	1226.229
116.220	18.832	1587.123	1225.000
117.235	18.769	1585.645	1223.301
118.249	18.755	1584.645	1222.321
119.264	18.746	1583.221	1221.052
120.279	18.720	1581.891	1219.732
121.293	18.685	1579.833	1217.786
122.308	18.650	1578.956	1216.759
123.322	18.603	1576.903	1214.735
124.337	18.568	1575.308	1213.153
125.352	18.476	1574.457	1211.734
126.366	18.483	1573.433	1210.887
127.381	18.512	1571.666	1209.627
128.395	18.488	1571.460	1209.192
129.410	18.524	1569.900	1208.138
130.424	18.440	1568.639	1206.470
131.439	18.535	1567.642	1206.264
132.454	18.695	1566.191	1206.167
133.468	18.732	1565.066	1205.451
134.483	18.873	1563.229	1204.918
135.497	18.942	1561.761	1204.163
136.512	18.878	1560.408	1202.568
137.527	18.965	1559.227	1202.162
138.541	18.897	1557.992	1200.624
139.556	18.939	1556.809	1199.901
140.570	18.913	1555.862	1198.883
141.585	19.168	1553.854	1199.003
142.600	19.214	1553.318	1198.806
143.614	19.201	1552.406	1197.908
144.629	19.276	1551.475	1197.602
145.643	19.370	1549.889	1196.929
146.658	19.532	1548.528	1196.894
147.673	19.489	1546.808	1195.156
148.687	19.207	1545.290	1191.926
149.702	19.159	1543.391	1190.024
150.716	19.019	1542.092	1187.954
151.731	18.958	1540.542	1186.236
152.746	18.996	1539.344	1185.471
153.760	19.013	1537.905	1184.374
154.775	18.938	1536.874	1182.959
155.789	19.184	1535.534	1183.510
156.804	19.203	1535.042	1183.161
157.819	19.178	1533.789	1181.918
158.833	19.172	1532.898	1181.082
159.848	19.291	1531.635	1180.824
160.862	19.462	1530.847	1181.280
161.877	19.520	1529.372	1180.435
162.892	19.393	1527.664	1178.144
163.906	19.102	1526.400	1175.077
164.921	18.917	1525.442	1172.976
165.935	18.991	1523.913	1172.202
166.950	19.027	1522.628	1171.353
167.964	19.126	1521.863	1171.336
168.979	19.159	1521.166	1170.921
169.994	19.114	1520.136	1169.720
171.008	19.112	1518.776	1168.552
172.023	19.130	1517.963	1167.949
173.037	19.243	1516.710	1167.643
174.052	19.322	1515.944	1167.485
175.067	19.451	1515.089	1167.597
176.081	19.312	1513.783	1165.550
177.096	19.192	1511.680	1163.018
178.110	19.083	1510.829	1161.523
179.125	19.045	1509.718	1160.309
180.140	19.218	1508.389	1160.353
181.154	19.135	1507.842	1159.272
182.169	19.195	1506.753	1158.734
183.183	19.392	1505.559	1159.034
184.198	19.380	1504.966	1158.396
185.213	19.490	1504.006	1158.291
186.227	19.492	1502.731	1157.220
187.242	19.505	1501.803	1156.494
188.256	19.540	1500.561	1155.667
189.271	19.596	1500.077	1155.571
190.286	19.683	1499.060	1155.265
191.300	19.633	1497.698	1153.778
192.315	19.401	1495.766	1150.642
193.329	19.040	1494.238	1146.960
194.344	18.995	1493.450	1145.950
195.359	18.997	1492.685	1145.276
196.373	19.102	1491.748	1145.152
197.388	19.257	1490.863	1145.402
198.402	19.336	1489.856	1145.053
199.417	19.538	1489.000	1145.633
200.432	19.608	1488.293	1145.456
201.446	19.791	1486.986	1145.556
202.461	19.891	1486.419	1145.683
203.475	19.988	1485.250	1145.322
204.490	20.013	1484.768	1145.011
205.504	19.885	1483.400	1143.012
206.519	19.673	1481.720	1140.217
207.534	19.594	1480.851	1138.927
208.548	19.633	1479.363	1137.939
209.563	19.488	1478.472	1136.200
210.577	19.630	1477.476	1136.268
211.592	19.548	1476.933	1135.211
212.607	19.666	1475.897	1135.089
213.621	19.797	1475.383	1135.454
214.636	19.964	1474.339	1135.643
215.650	19.795	1473.526	1133.811
216.665	19.770	1472.397	1132.675
217.680	19.814	1472.054	1132.600
218.694	19.975	1471.089	1132.814
219.709	20.073	1470.618	1132.990
220.723	20.076	1469.208	1131.822
221.738	19.949	1469.181	1130.874
222.753	19.960	1467.406	1129.479
223.767	19.916	1466.641	1128.502
224.782	19.903	1465.393	1127.353
225.796	19.979	1464.654	1127.182
226.811	20.197	1463.841	1127.875
227.826	20.204	1463.125	1127.271
228.840	20.117	1461.718	1125.519
229.855	19.993	1460.969	1124.043
230.869	19.848	1460.172	1122.389
231.884	19.967	1458.802	1122.005
232.899	19.895	1457.864	1120.718
233.913	19.706	1456.814	1118.590
234.928	19.692	1455.204	1117.165
235.942	19.711	1453.910	1116.192
236.957	19.729	1452.161	1114.866
237.972	19.622	1451.504	1113.577
238.986	19.572	1450.378	1112.292
240.001	19.613	1449.904	1112.095
241.015	19.758	1448.391	1111.764
242.030	19.759	1447.174	1110.742
243.045	19.770	1446.397	1110.118
244.059	19.974	1445.341	1110.515
245.074	19.986	1445.067	1110.287
246.088	19.955	1444.527	1109.570
247.103	20.043	1443.675	1109.386
248.117	20.117	1443.085	1109.305
249.132	20.145	1442.270	1108.758
250.147	20.292	1441.822	1109.258
251.161	20.532	1441.575	1110.502
252.176	20.693	1440.960	1110.961
253.190	20.731	1440.364	1110.646
254.205	20.728	1439.644	1109.970
255.220	20.859	1438.566	1109.873
256.234	20.935	1437.780	1109.658
257.249	20.950	1436.997	1109.047
258.263	20.824	1435.932	1107.330
259.278	20.817	1435.250	1106.659
260.293	20.778	1434.307	1105.584
261.307	20.753	1433.558	1104.752
262.322	20.874	1432.482	1104.595
263.336	20.944	1432.092	1104.635
264.351	20.997	1430.983	1104.023
265.366	20.927	1430.106	1102.802
266.380	20.991	1429.297	1102.490
267.395	21.023	1428.262	1101.795
268.409	20.981	1427.137	1100.560
269.424	20.888	1426.285	1099.224
270.439	20.730	1424.844	1097.018
271.453	20.885	1423.491	1096.856
272.468	20.802	1423.016	1095.871
273.482	20.767	1422.030	1094.795
274.497	20.579	1421.341	1092.986
275.512	20.657	1420.023	1092.366
276.526	20.737	1419.032	1092.009
277.541	20.691	1418.474	1091.191
278.555	20.740	1417.512	1090.664
279.570	20.687	1416.821	1089.702
280.585	20.859	1415.639	1089.771
281.599	20.929	1415.149	1089.738
282.614	21.140	1414.211	1090.238
283.628	21.003	1412.813	1088.208
284.643	20.803	1412.093	1086.308
285.657	20.774	1410.853	1085.076
286.672	20.816	1409.622	1084.297
287.687	20.827	1408.810	1083.646
288.701	20.840	1407.959	1082.977
289.716	20.856	1406.862	1082.136
290.730	20.848	1406.241	1081.511
291.745	20.892	1405.531	1081.141
292.760	20.842	1404.251	1079.753
293.774	20.933	1403.457	1079.613
294.789	20.930	1402.350	1078.642
295.803	21.079	1402.428	1079.535
296.818	21.096	1401.162	1078.565
297.833	21.011	1400.006	1077.057
298.847	20.904	1398.811	1075.381
299.862	20.999	1397.516	1074.877
300.876	20.875	1397.019	1073.637
301.891	20.942	1396.207	1073.329
302.906	20.987	1395.278	1072.795
303.920	21.052	1394.596	1072.580
304.935	21.172	1394.234	1072.943
305.949	21.302	1393.412	1073.013
306.964	21.479	1392.424	1073.244
307.979	21.519	1391.666	1072.809
308.993	21.433	1390.725	1071.464
310.008	21.300	1389.526	1069.628
311.022	21.349	1388.563	1069.090
312.037	21.399	1387.542	1068.517
313.052	21.431	1386.885	1068.115
314.066	21.413	1385.877	1067.133
315.081	21.140	1384.551	1064.348
316.095	21.023	1383.053	1062.394
317.110	20.954	1382.012	1061.077
318.125	21.017	1380.861	1060.487
319.139	20.937	1380.303	1059.474
320.154	20.902	1379.761	1058.751
321.168	20.959	1378.629	1058.140
322.183	21.030	1376.960	1057.194
323.197	21.019	1375.915	1056.233
324.212	21.050	1375.468	1055.981
325.227	21.120	1374.738	1055.750
326.241	21.153	1373.568	1054.958
327.256	21.162	1373.291	1054.708
328.270	21.120	1372.305	1053.603
329.285	21.174	1371.092	1052.907
330.300	21.110	1370.129	1051.685
331.314	21.112	1369.545	1051.156
332.329	21.086	1368.721	1050.273
333.343	21.063	1367.855	1049.379
334.358	21.214	1366.722	1049.323
335.373	21.231	1366.650	1049.276
336.387	21.351	1365.786	1049.245
337.402	21.403	1364.857	1048.748
338.416	21.433	1364.143	1048.284
339.431	21.580	1363.416	1048.514
340.446	21.533	1362.289	1047.272
341.460	21.671	1361.442	1047.354
342.475	21.788	1360.759	1047.439
343.489	21.849	1360.273	1047.335
344.504	21.847	1358.810	1046.100
345.519	21.956	1358.258	1046.237
346.533	21.952	1357.513	1045.546
347.548	22.027	1356.296	1044.959
348.562	22.022	1355.818	1044.469
349.577	22.074	1355.366	1044.339
350.592	22.064	1354.097	1043.208
351.606	21.723	1352.752	1040.056
352.621	21.633	1351.477	1038.455
353.635	21.545	1350.435	1037.037
354.650	21.465	1349.435	1035.705
355.665	21.482	1348.469	1034.972
356.679	21.534	1347.942	1034.783
357.694	21.562	1346.806	1033.985
358.708	21.673	1345.534	1033.572
359.723	21.713	1344.979	1033.294
360.738	21.752	1343.728	1032.466
361.752	21.750	1342.895	1031.726
362.767	21.782	1341.552	1030.790
363.781	21.637	1341.160	1029.547
364.796	21.812	1339.923	1029.532
365.810	21.882	1339.260	1029.342
366.825	22.074	1338.709	1029.953
367.840	22.029	1338.325	1029.302
368.854	22.195	1338.139	1030.043
369.869	22.382	1337.338	1030.426
370.883	22.395	1336.572	1029.822
371.898	22.237	1335.845	1028.247
372.913	22.285	1334.850	1027.672
373.927	22.228	1333.678	1026.349
374.942	22.194	1332.666	1025.278
375.956	22.257	1332.294	1025.269
376.971	22.326	1331.468	1024.942
377.986	22.195	1331.095	1023.803
379.000	22.223	1329.744	1022.836
380.015	22.365	1329.105	1023.078
381.029	22.465	1328.258	1022.919
382.044	22.405	1328.095	1022.354
383.059	22.473	1327.019	1021.828
384.073	22.433	1326.212	1020.886
385.088	22.380	1325.626	1020.039
386.102	22.451	1325.010	1019.882
387.117	22.497	1324.144	1019.395
388.132	22.435	1323.555	1018.494
389.146	22.207	1322.343	1016.154
390.161	22.154	1321.458	1015.079
391.175	22.125	1320.646	1014.196
392.190	22.121	1319.993	1013.581
393.205	22.167	1319.033	1013.020
394.219	22.337	1317.848	1012.997
395.234	22.556	1316.863	1013.412
396.248	22.402	1315.845	1011.655
397.263	22.329	1314.176	1009.864
398.278	22.310	1312.467	1008.347
399.292	22.259	1311.635	1007.329
400.307	22.172	1310.535	1005.898
401.321	22.020	1309.600	1004.222
402.336	21.967	1308.814	1003.227
403.350	22.077	1307.603	1002.837
404.365	22.021	1306.332	1001.456
405.380	22.040	1305.877	1001.126
406.394	22.227	1305.047	1001.468
407.409	22.257	1304.359	1001.018
408.423	22.376	1304.138	1001.438
409.438	22.487	1303.339	1001.369
410.453	22.588	1302.691	1001.355
411.467	22.664	1301.908	1001.098
412.482	22.763	1301.544	1001.292
413.496	22.697	1301.355	1000.680
414.511	22.892	1300.279	1000.873
415.526	23.005	1298.932	1000.386
416.540	22.972	1298.795	1000.002
417.555	22.951	1298.513	999.579
418.569	23.028	1297.592	999.217
419.584	22.883	1297.189	998.001
420.599	22.911	1295.859	997.046
421.613	143.349	1431.720	1788.401
422.628	138.652	1451.530	1788.512
