DTS Sentinel unit serial number:	SN413079Multiplexer serial number:	ORYXHardware model number:	OX4-SRSoftware version number:	ORYX F/W v4.00 Oryx Data Collector v3.7.2.0data status	okinstallation	princeton_trtdifferential loss correction	single-endedforward channel	channel 4reverse channel	N/Adate	2019/09/17time	21:49:35forward acquisition time	60.00reverse acquisition time	0.00gamma	496.2192k internal	0.2328k external	0.2328temperature offset calibration	0.9995default loss term (dB/km)	0.3790temperature slope calibration	1.0000multiplexer offset coefficient	1.0000multiplexer slope coefficient	1.0000fibre end	0.00T internal ref (°C)	26.39T ext. ref 1 (°C)	0.18T ext. ref 2 (°C)	19.03length (m)	temperature (°C)	Stokes	anti-Stokes-747.200	800.000	-0.080	0.228
-746.185	800.000	-0.081	0.305
-745.171	248.647	-0.165	0.281
-744.156	-26.640	-0.406	0.240
-743.142	-200.000	-0.026	0.297
-742.127	800.000	0.092	0.360
-741.112	-9.582	0.191	0.129
-740.098	-200.000	-0.043	0.233
-739.083	800.000	0.086	0.310
-738.069	232.608	-0.361	0.597
-737.054	144.011	0.098	-0.132
-736.039	-104.153	-0.211	0.049
-735.025	213.554	-0.051	0.081
-734.010	-105.937	-0.115	0.026
-732.996	148.031	0.120	-0.162
-731.981	27.842	-0.134	-0.113
-730.966	264.315	0.055	0.097
-729.952	11.771	-0.312	-0.242
-728.937	37.378	-0.203	0.182
-727.923	208.181	-0.142	-0.223
-726.908	273.608	0.031	-0.055
-725.894	-10.382	-0.228	0.153
-724.879	23.916	0.274	0.228
-723.864	-80.772	-0.342	0.115
-722.850	-150.714	-0.328	-0.025
-721.835	-200.000	-0.044	0.327
-720.821	275.407	0.085	0.151
-719.806	578.490	-0.049	-0.122
-718.791	132.606	0.176	-0.228
-717.777	-44.514	0.116	0.058
-716.762	800.000	0.048	-0.134
-715.748	137.698	-0.020	0.026
-714.733	43.514	-0.169	0.156
-713.718	21.407	0.297	-0.243
-712.704	7.027	-0.179	-0.134
-711.689	127.891	-0.088	0.113
-710.675	145.829	0.136	-0.183
-709.660	-200.000	0.112	-0.579
-708.645	96.635	-0.314	-0.362
-707.631	319.824	0.168	0.320
-706.616	-44.428	0.229	-0.115
-705.602	800.000	-0.107	0.371
-704.587	-200.000	-0.062	0.339
-703.572	-50.001	-0.194	0.093
-702.558	221.111	-0.180	0.291
-701.543	-91.336	-0.301	-0.087
-700.529	-200.000	-0.022	-0.231
-699.514	-79.907	0.279	0.094
-698.499	519.166	-0.072	-0.169
-697.485	-200.000	0.064	-0.296
-696.470	-92.755	-0.241	0.068
-695.456	307.787	-0.232	0.435
-694.441	651.528	0.125	-0.323
-693.426	448.070	0.109	0.242
-692.412	800.000	-0.072	-0.287
-691.397	-101.959	0.278	0.067
-690.383	66.230	-0.331	0.338
-689.368	-99.716	-0.136	0.034
-688.354	116.617	-0.088	0.108
-687.339	-200.000	0.019	0.260
-686.324	-200.000	0.003	0.295
-685.310	-108.036	-0.209	-0.046
-684.295	548.160	0.081	-0.194
-683.281	800.000	-0.149	-0.428
-682.266	800.000	0.103	0.357
-681.251	-150.513	-0.357	0.028
-680.237	632.367	0.144	-0.366
-679.222	203.792	-0.182	-0.282
-678.208	231.683	-0.162	0.267
-677.193	-105.329	0.203	-0.047
-676.178	-45.966	-0.084	-0.042
-675.164	-200.000	-0.001	-0.121
-674.149	190.207	-0.247	-0.373
-673.135	-77.316	-0.143	-0.050
-672.120	26.197	-0.196	0.165
-671.105	-200.000	-0.061	0.341
-670.091	-200.000	-0.007	-0.060
-669.076	800.000	-0.037	0.139
-668.062	759.480	0.102	0.278
-667.047	-97.992	0.272	0.070
-666.032	800.000	-0.086	-0.317
-665.018	-126.285	0.318	0.048
-664.003	-17.990	-0.200	-0.126
-662.989	800.000	-0.100	0.316
-661.974	-81.729	-0.260	-0.086
-660.959	-200.000	0.057	0.366
-659.945	28.767	-0.118	-0.100
-658.930	529.510	-0.076	-0.180
-657.916	-200.000	-0.176	0.000
-656.901	202.620	0.106	-0.165
-655.886	59.181	-0.120	-0.118
-654.872	-29.048	-0.039	-0.022
-653.857	800.000	0.076	-0.319
-652.843	491.620	0.102	0.235
-651.828	-69.493	0.334	-0.129
-650.814	4.055	-0.143	0.105
-649.799	78.672	0.183	-0.197
-648.784	-200.000	-0.031	0.416
-647.770	-167.438	0.191	0.008
-646.755	-98.931	0.213	0.054
-645.741	77.604	0.056	-0.060
-644.726	-79.016	-0.026	0.009
-643.711	-60.416	-0.340	0.145
-642.697	-11.268	0.114	0.075
-641.682	-77.199	0.430	0.150
-640.668	221.499	0.055	-0.089
-639.653	249.496	0.036	0.062
-638.638	-200.000	0.042	-0.184
-637.624	273.777	-0.185	0.329
-636.609	800.000	0.128	-0.488
-635.595	-200.000	0.041	0.218
-634.580	-30.254	-0.048	-0.028
-633.565	-65.640	0.120	0.048
-632.551	-169.577	0.194	-0.007
-631.536	-200.000	-0.010	0.236
-630.522	-79.354	0.162	0.055
-629.507	-148.884	0.105	-0.009
-628.492	-200.000	-0.004	0.034
-627.478	155.558	-0.121	-0.168
-626.463	800.000	-0.041	-0.173
-625.449	238.849	-0.139	0.233
-624.434	289.913	-0.064	-0.117
-623.419	-200.000	0.032	-0.338
-622.405	161.163	0.075	-0.105
-621.390	-58.309	-0.073	-0.032
-620.376	-48.635	-0.042	0.020
-619.361	-39.836	-0.072	-0.038
-618.346	168.810	-0.071	0.102
-617.332	800.000	0.068	-0.231
-616.317	-130.322	0.227	0.031
-615.303	-7.017	-0.231	-0.157
-614.288	-65.787	-0.357	0.143
-613.273	45.073	-0.122	0.113
-612.259	-117.516	0.244	0.044
-611.244	-200.000	-0.027	0.128
-610.230	-46.012	0.152	-0.075
-609.215	-37.533	-0.188	0.101
-608.201	-184.245	0.030	0.000
-607.186	-74.164	-0.224	-0.081
-606.171	118.314	-0.225	-0.278
-605.157	724.258	-0.049	0.130
-604.142	-13.916	-0.195	-0.127
-603.128	29.795	0.060	-0.051
-602.113	-116.870	0.219	0.040
-601.098	113.554	0.276	-0.336
-600.084	-123.957	0.124	0.019
-599.069	133.538	0.131	0.170
-598.055	-46.895	-0.255	0.125
-597.040	-127.870	-0.367	0.053
-596.025	195.719	0.189	-0.288
-595.011	56.933	0.138	-0.135
-593.996	-127.324	-0.095	0.014
-592.982	-55.565	0.143	0.064
-591.967	-64.997	0.320	0.130
-590.952	206.176	-0.115	0.179
-589.938	129.037	0.047	0.059
-588.923	-200.000	-0.041	-0.315
-587.909	101.773	-0.073	0.085
-586.894	286.912	0.092	-0.166
-585.879	550.138	-0.125	-0.300
-584.865	117.181	-0.111	-0.136
-583.850	-96.379	0.101	-0.027
-582.836	-200.000	-0.010	0.086
-581.821	58.940	-0.194	-0.191
-580.806	-200.000	-0.006	0.082
-579.792	294.600	0.097	-0.178
-578.777	102.265	0.149	-0.174
-577.763	-200.000	-0.006	-0.121
-576.748	-24.855	0.189	-0.112
-575.733	136.399	-0.076	0.099
-574.719	800.000	-0.067	-0.217
-573.704	442.758	0.052	-0.115
-572.690	208.804	0.222	0.348
-571.675	-15.123	0.371	0.238
-570.661	-35.924	-0.225	0.122
-569.646	247.227	0.055	0.092
-568.631	269.394	-0.199	0.349
-567.617	91.638	-0.213	0.240
-566.602	486.064	-0.182	0.415
-565.588	9.228	0.122	-0.092
-564.573	180.661	0.127	0.187
-563.558	-93.667	-0.153	-0.042
-562.544	65.024	-0.094	-0.095
-561.529	54.786	-0.118	0.114
-560.515	800.000	-0.077	0.273
-559.500	-196.513	0.095	0.001
-558.485	-200.000	0.010	-0.144
-557.471	24.606	-0.069	0.057
-556.456	-200.000	-0.046	-0.204
-555.442	29.479	-0.179	0.152
-554.427	464.724	0.048	-0.107
-553.412	181.703	-0.066	-0.098
-552.398	-200.000	0.033	0.395
-551.383	-108.625	-0.307	0.066
-550.369	800.000	-0.046	-0.130
-549.354	491.287	-0.042	-0.096
-548.339	25.384	0.151	0.126
-547.325	-29.682	0.194	0.111
-546.310	-200.000	0.007	0.035
-545.296	-123.985	0.224	0.035
-544.281	87.677	-0.102	0.113
-543.266	-200.000	-0.052	-0.269
-542.252	794.934	0.128	0.353
-541.237	-48.705	0.182	0.087
-540.223	-110.713	0.144	-0.030
-539.208	7.013	-0.314	-0.234
-538.193	4.217	0.156	0.114
-537.179	-200.000	0.042	-0.213
-536.164	-75.303	-0.058	-0.021
-535.150	-200.000	0.042	0.256
-534.135	107.083	0.138	-0.163
-533.121	-47.017	-0.149	0.073
-532.106	344.005	-0.135	-0.265
-531.091	280.889	-0.160	-0.287
-530.077	-116.945	0.108	-0.020
-529.062	289.706	-0.026	0.048
-528.048	90.035	-0.079	-0.088
-527.033	-87.245	0.144	0.044
-526.018	-155.561	-0.245	-0.016
-525.004	-60.090	0.091	0.039
-523.989	-200.000	0.003	-0.044
-522.975	-169.094	0.093	0.003
-521.960	794.819	0.038	-0.105
-520.945	-93.922	-0.283	-0.078
-519.931	-38.498	-0.131	0.069
-518.916	86.878	0.086	-0.095
-517.902	315.733	0.105	-0.197
-516.887	-76.717	-0.209	0.073
-515.872	-3.211	-0.147	-0.102
-514.858	260.918	-0.103	-0.177
-513.843	-60.936	-0.252	-0.106
-512.829	-104.792	-0.121	0.028
-511.814	800.000	0.050	-0.198
-510.799	-200.000	-0.023	-0.240
-509.785	-181.067	0.367	-0.007
-508.770	81.545	-0.122	-0.132
-507.756	800.000	0.073	0.232
-506.741	-200.000	0.012	-0.138
-505.726	-200.000	-0.025	0.450
-504.712	-200.000	-0.030	-0.173
-503.697	-200.000	-0.012	0.052
-502.683	800.000	-0.075	0.291
-501.668	-200.000	0.024	0.335
-500.653	-200.000	-0.036	-0.338
-499.639	-125.314	-0.321	-0.049
-498.624	-136.847	0.334	0.038
-497.610	-94.209	0.085	0.023
-496.595	800.000	-0.046	-0.156
-495.581	-169.224	0.090	-0.003
-494.566	-93.876	-0.209	-0.057
-493.551	800.000	0.052	0.223
-492.537	45.131	0.116	-0.106
-491.522	400.173	0.078	0.164
-490.508	-56.421	0.459	-0.203
-489.493	490.609	0.041	0.094
-488.478	-160.932	-0.176	0.009
-487.464	60.952	0.217	0.215
-486.449	6.035	0.100	0.074
-485.435	-76.088	0.254	-0.089
-484.420	-21.738	0.110	0.067
-483.405	-200.000	-0.073	-0.365
-482.391	-96.726	-0.384	0.101
-481.376	-200.000	-0.008	0.154
-480.362	-111.603	0.051	0.010
-479.347	-139.283	0.193	0.021
-478.332	-45.448	0.352	-0.174
-477.318	680.022	-0.047	0.123
-476.303	169.983	-0.221	0.315
-475.289	-151.004	0.327	-0.025
-474.274	-200.000	-0.016	0.186
-473.259	231.874	-0.216	0.353
-472.245	28.027	-0.074	0.062
-471.230	-117.246	-0.290	-0.052
-470.216	-101.534	-0.301	0.073
-469.201	-200.000	0.033	-0.148
-468.186	-106.744	-0.173	-0.038
-467.172	184.265	-0.101	0.149
-466.157	225.318	0.223	-0.360
-465.143	-200.000	0.024	-0.219
-464.128	-13.900	-0.295	0.190
-463.113	-200.000	0.026	-0.288
-462.099	-129.721	0.169	-0.023
-461.084	-44.615	-0.153	0.076
-460.070	93.887	0.152	0.172
-459.055	124.809	0.193	0.242
-458.040	-200.000	-0.012	0.308
-457.026	-61.374	0.179	0.075
-456.011	-200.000	0.001	-0.173
-454.997	8.640	-0.067	-0.050
-453.982	421.322	-0.079	0.169
-452.968	-200.000	0.041	0.227
-451.953	-200.000	0.086	0.408
-450.938	319.768	0.122	0.231
-449.924	800.000	0.073	0.214
-448.909	31.329	0.162	-0.139
-447.895	-200.000	0.015	-0.321
-446.880	378.585	0.100	0.204
-445.865	228.271	-0.070	0.114
-444.851	-73.134	-0.343	0.125
-443.836	443.502	0.123	0.268
-442.822	800.000	-0.080	0.300
-441.807	-39.880	0.143	0.074
-440.792	-72.134	-0.110	-0.041
-439.778	662.288	-0.138	-0.354
-438.763	182.079	0.183	-0.268
-437.749	-12.531	0.409	-0.266
-436.734	-200.000	0.016	-0.087
-435.719	63.364	-0.043	0.043
-434.705	-134.992	-0.312	-0.037
-433.690	-153.701	-0.424	-0.029
-432.676	800.000	-0.040	-0.136
-431.661	-118.495	-0.183	0.032
-430.646	82.526	0.257	-0.278
-429.632	12.164	-0.334	0.256
-428.617	-200.000	-0.045	0.304
-427.603	134.926	0.127	-0.164
-426.588	-128.969	-0.392	-0.055
-425.573	-48.112	0.118	0.057
-424.559	-135.366	0.381	-0.045
-423.544	-37.396	-0.196	0.104
-422.530	10.079	-0.179	-0.135
-421.515	378.528	0.157	-0.320
-420.500	-93.122	0.180	-0.050
-419.486	-104.853	0.218	0.050
-418.471	-58.496	0.230	-0.099
-417.457	800.000	0.081	0.253
-416.442	0.465	-0.267	0.190
-415.428	-154.237	-0.160	0.011
-414.413	-100.380	-0.210	-0.052
-413.398	-184.800	-0.418	-0.007
-412.384	192.311	0.116	-0.173
-411.369	119.170	-0.151	-0.186
-410.355	143.706	0.302	-0.400
-409.340	-52.825	0.327	-0.150
-408.325	89.404	-0.177	0.197
-407.311	16.133	-0.277	0.217
-406.296	-200.000	-0.023	-0.206
-405.282	800.000	0.088	-0.340
-404.267	105.189	0.108	-0.126
-403.252	-52.513	0.343	0.158
-402.238	-80.170	-0.076	-0.025
-401.223	-1.478	-0.102	0.072
-400.209	43.543	0.234	-0.213
-399.194	139.479	-0.024	0.032
-398.179	-24.353	0.309	0.183
-397.165	9.090	-0.298	-0.224
-396.150	-43.306	0.152	0.077
-395.136	79.092	0.104	-0.111
-394.121	472.869	-0.080	-0.179
-393.106	134.576	0.162	-0.209
-392.092	-99.203	0.156	0.039
-391.077	-49.701	-0.074	0.035
-390.063	-92.722	0.311	0.086
-389.048	128.525	-0.102	-0.129
-388.033	96.554	0.123	-0.140
-387.019	-178.157	0.211	0.005
-386.004	-200.000	0.016	0.076
-384.990	169.164	0.086	0.122
-383.975	139.506	0.207	0.271
-382.960	46.008	0.089	0.081
-381.946	155.250	0.134	0.183
-380.931	-200.000	-0.001	-0.028
-379.917	-55.344	0.138	0.061
-378.902	146.615	0.110	0.147
-377.888	-87.445	-0.256	0.077
-376.873	27.623	0.291	-0.243
-375.858	63.191	0.195	-0.194
-374.844	-196.803	0.084	-0.001
-373.829	800.000	-0.092	-0.293
-372.815	-2.127	0.253	0.177
-371.800	-100.796	-0.413	-0.101
-370.785	-200.000	0.012	-0.341
-369.771	800.000	0.076	0.217
-368.756	800.000	0.045	0.184
-367.742	284.620	0.083	-0.148
-366.727	2.097	0.123	-0.088
-365.712	87.651	0.094	0.104
-364.698	199.701	-0.097	0.148
-363.683	800.000	-0.047	0.187
-362.669	-105.749	-0.379	0.085
-361.654	190.777	-0.060	-0.090
-360.639	800.000	-0.030	0.129
-359.625	270.428	0.129	-0.225
-358.610	-200.000	-0.021	0.415
-357.596	-3.950	-0.241	0.166
-356.581	-103.629	0.391	-0.091
-355.566	-200.000	-0.035	-0.373
-354.552	-200.000	0.002	-0.055
-353.537	125.666	-0.143	0.179
-352.523	81.732	-0.113	0.122
-351.508	800.000	0.113	-0.396
-350.493	-187.845	-0.199	0.003
-349.479	-83.058	-0.182	-0.058
-348.464	535.152	0.069	-0.161
-347.450	-200.000	-0.001	-0.221
-346.435	48.673	0.236	0.219
-345.420	-135.678	0.027	-0.003
-344.406	-200.000	0.025	0.160
-343.391	-20.816	0.214	0.130
-342.377	-63.855	-0.419	0.170
-341.362	-119.147	0.174	-0.030
-340.348	-200.000	-0.016	-0.161
-339.333	800.000	-0.081	0.295
-338.318	800.000	0.071	0.230
-337.304	-2.958	-0.154	0.107
-336.289	-85.965	-0.212	0.065
-335.275	568.134	0.118	-0.284
-334.260	315.073	-0.054	0.100
-333.245	-94.358	-0.167	-0.045
-332.231	51.130	0.156	-0.147
-331.216	800.000	-0.210	-0.579
-330.202	-115.327	0.186	0.035
-329.187	-200.000	-0.032	-0.357
-328.172	600.624	0.041	-0.100
-327.158	-200.000	-0.035	0.176
-326.143	-168.832	0.136	0.005
-325.129	-9.979	0.176	-0.116
-324.114	-2.403	0.168	0.117
-323.099	185.956	-0.139	0.206
-322.085	-32.760	0.049	-0.027
-321.070	-12.407	-0.257	-0.166
-320.056	-200.000	-0.003	0.136
-319.041	249.732	-0.120	0.202
-318.026	37.678	0.172	0.151
-317.012	16.768	-0.149	-0.117
-315.997	-69.133	-0.021	-0.008
-314.983	-77.939	-0.103	-0.035
-313.968	-159.704	-0.227	-0.012
-312.953	175.279	-0.142	-0.204
-311.939	-70.255	0.249	-0.094
-310.924	-184.624	-0.192	0.003
-309.910	-65.041	0.281	-0.112
-308.895	346.147	-0.071	-0.138
-307.880	-135.624	-0.180	0.021
-306.866	800.000	-0.187	-0.524
-305.851	54.102	0.273	0.260
-304.837	800.000	-0.079	-0.285
-303.822	-200.000	-0.020	-0.089
-302.807	50.113	0.176	-0.165
-301.793	-112.916	0.265	0.052
-300.778	-175.304	0.231	-0.006
-299.764	-103.237	-0.107	0.025
-298.749	198.310	0.081	0.123
-297.735	-43.758	0.038	0.019
-296.720	-1.733	0.131	0.092
-295.705	281.095	-0.228	0.405
-294.691	281.181	-0.124	0.219
-293.676	36.984	0.081	0.071
-292.662	-200.000	-0.016	0.255
-291.647	3.532	-0.116	-0.084
-290.632	-0.907	0.134	0.094
-289.618	436.704	-0.082	0.176
-288.603	-48.600	-0.104	-0.050
-287.589	430.548	0.074	0.158
-286.574	800.000	-0.055	-0.189
-285.559	38.809	0.075	0.067
-284.545	-200.000	0.058	-0.278
-283.530	189.414	0.086	-0.128
-282.516	-200.000	0.005	0.065
-281.501	15.720	-0.276	-0.215
-280.486	800.000	-0.025	-0.094
-279.472	-4.973	0.152	-0.103
-278.457	800.000	-0.020	-0.055
-277.443	-165.888	-0.305	0.013
-276.428	-200.000	-0.028	-0.225
-275.413	218.840	0.076	-0.121
-274.399	800.000	0.117	-0.335
-273.384	-200.000	-0.001	-0.024
-272.370	-200.000	-0.007	0.138
-271.355	214.575	-0.035	0.054
-270.340	-135.549	-0.312	-0.037
-269.326	-108.843	0.306	0.065
-268.311	-200.000	0.041	0.225
-267.297	-112.207	0.302	-0.060
-266.282	67.858	-0.237	0.240
-265.267	800.000	-0.024	0.095
-264.253	-116.826	-0.054	-0.010
-263.238	-200.000	0.094	-0.440
-262.224	-80.990	-0.194	0.063
-261.209	-99.947	-0.174	0.043
-260.195	85.994	-0.059	-0.064
-259.180	-200.000	-0.015	-0.290
-258.165	11.774	0.037	0.028
-257.151	607.665	0.103	-0.254
-256.136	-200.000	0.003	0.356
-255.122	-66.859	-0.230	0.090
-254.107	27.289	-0.199	-0.165
-253.092	-200.000	-0.012	-0.124
-252.078	-200.000	0.006	0.150
-251.063	26.094	0.112	-0.093
-250.049	-27.613	-0.153	0.088
-249.034	-90.919	0.333	0.095
-248.019	-177.328	0.083	0.002
-247.005	283.806	0.165	-0.293
-245.990	84.013	-0.086	0.093
-244.976	-189.245	-0.029	0.000
-243.961	-200.000	-0.011	-0.436
-242.946	-45.811	-0.044	0.022
-241.932	532.872	0.109	-0.254
-240.917	571.495	0.048	-0.115
-239.903	42.256	-0.199	-0.179
-238.888	-200.000	-0.012	0.083
-237.873	369.915	-0.080	0.159
-236.859	384.629	-0.088	-0.179
-235.844	800.000	0.062	0.216
-234.830	-145.855	-0.346	0.030
-233.815	178.582	-0.025	0.036
-232.800	94.974	-0.059	0.067
-231.786	80.800	0.130	-0.138
-230.771	-200.000	-0.008	0.068
-229.757	25.434	0.177	0.145
-228.742	638.358	-0.117	0.294
-227.727	205.804	-0.064	0.098
-226.713	-83.372	0.137	-0.043
-225.698	-55.497	-0.329	0.146
-224.684	-129.932	-0.395	-0.053
-223.669	791.465	-0.058	-0.159
-222.655	84.223	-0.069	0.074
-221.640	73.451	-0.151	0.156
-220.625	15.053	0.268	-0.207
-219.611	-39.580	0.260	-0.135
-218.596	800.000	-0.080	0.243
-217.582	211.899	0.098	0.153
-216.567	-151.486	-0.333	0.024
-215.552	-8.038	-0.204	-0.136
-214.538	-82.565	0.474	0.152
-213.523	-200.000	0.035	0.305
-212.509	47.623	-0.239	0.220
-211.494	-200.000	-0.008	-0.037
-210.479	602.829	0.030	0.074
-209.465	-200.000	0.032	0.202
-208.450	-68.640	0.094	-0.036
-207.436	-200.000	0.079	-0.348
-206.421	-26.066	-0.337	-0.196
-205.406	457.213	-0.128	-0.281
-204.392	321.408	0.088	0.165
-203.377	100.304	-0.122	0.140
-202.363	-200.000	-0.060	-0.524
-201.348	800.000	0.046	-0.192
-200.333	22.740	0.158	0.128
-199.319	-200.000	-0.003	-0.073
-198.304	800.000	0.037	-0.104
-197.290	-200.000	0.003	-0.229
-196.275	180.627	-0.028	0.041
-195.260	800.000	0.080	0.238
-194.246	800.000	-0.036	-0.103
-193.231	376.534	0.143	0.287
-192.217	28.186	-0.229	0.191
-191.202	361.373	0.065	0.129
-190.187	12.835	-0.129	0.098
-189.173	-200.000	-0.034	-0.175
-188.158	-55.523	0.005	-0.002
-187.144	184.142	0.029	0.043
-186.129	-26.167	-0.166	0.096
-185.114	-100.015	0.227	-0.056
-184.100	138.939	-0.109	0.142
-183.085	488.229	0.089	0.201
-182.071	-200.000	-0.041	-0.187
-181.056	295.013	0.179	-0.322
-180.042	-200.000	-0.004	-0.473
-179.027	319.806	-0.057	0.106
-178.012	321.103	0.088	0.166
-176.998	800.000	0.031	-0.108
-175.983	136.682	-0.050	0.064
-174.969	800.000	-0.069	0.254
-173.954	-145.571	-0.159	0.014
-172.939	586.132	0.090	0.219
-171.925	64.173	0.034	0.034
-170.910	76.518	-0.220	0.230
-169.896	-98.726	-0.202	0.051
-168.881	800.000	0.056	0.195
-167.866	-200.000	-0.009	0.353
-166.852	-42.719	0.216	-0.108
-165.837	540.305	0.058	0.137
-164.823	-28.674	0.127	0.072
-163.808	-133.930	-0.263	0.032
-162.793	-19.651	-0.403	-0.246
-161.779	416.695	-0.048	0.100
-160.764	90.273	0.048	-0.053
-159.750	-125.256	0.270	0.041
-158.735	-87.339	0.382	0.114
-157.720	-92.351	-0.167	-0.046
-156.706	17.957	0.062	-0.049
-155.691	166.969	0.104	0.146
-154.677	253.157	0.108	0.182
-153.662	-200.000	0.014	-0.084
-152.647	800.000	-0.015	0.058
-151.633	800.000	0.052	0.197
-150.618	-99.232	-0.117	0.029
-149.604	-196.032	-0.251	-0.002
-148.589	6.787	-0.102	-0.075
-147.574	-11.089	-0.159	0.103
-146.560	117.459	-0.057	0.069
-145.545	599.271	0.114	0.278
-144.531	-80.449	0.156	0.051
-143.516	800.000	-0.055	-0.155
-142.502	-16.885	0.243	0.151
-141.487	-89.928	0.095	0.027
-140.472	-200.000	-0.003	-0.031
-139.458	131.585	0.135	0.171
-138.443	-24.372	-0.106	0.062
-137.429	-65.557	-0.048	-0.019
-136.414	-25.238	0.351	-0.204
-135.399	-200.000	0.108	-0.477
-134.385	96.963	0.098	0.110
-133.370	-49.591	0.237	-0.111
-132.356	-149.327	0.301	0.024
-131.341	-109.313	-0.138	-0.029
-130.326	117.948	-0.102	-0.124
-129.312	74.649	-0.038	-0.039
-128.297	-200.000	-0.002	-0.035
-127.283	672.494	0.066	0.167
-126.268	-146.598	0.050	0.004
-125.253	-24.097	0.099	0.058
-124.239	699.031	-0.109	-0.283
-123.224	800.000	-0.078	-0.239
-122.210	4.257	0.210	-0.151
-121.195	-6.774	0.187	0.125
-120.180	767.284	0.149	-0.398
-119.166	-41.875	0.259	0.131
-118.151	101.978	-0.065	0.075
-117.137	588.130	0.071	-0.172
-116.122	-3.865	0.221	0.151
-115.107	1.943	-0.096	-0.068
-114.093	217.017	0.106	0.165
-113.078	-200.000	0.012	0.089
-112.064	14.619	0.164	0.126
-111.049	-94.707	0.394	-0.105
-110.034	-151.534	-0.158	0.012
-109.020	-88.094	-0.056	-0.017
-108.005	-138.670	0.291	0.031
-106.991	-142.301	-0.244	-0.024
-105.976	-200.000	-0.005	-0.121
-104.962	23.159	0.136	-0.110
-103.947	-200.000	0.018	0.424
-102.932	35.930	-0.064	0.055
-101.918	171.183	0.219	-0.308
-100.903	136.717	-0.173	0.222
-99.889	-152.637	0.126	-0.009
-98.874	-84.011	-0.254	-0.079
-97.859	479.554	-0.083	-0.184
-96.845	-4.727	0.126	0.086
-95.830	-19.973	-0.156	0.095
-94.816	-75.218	0.115	0.040
-93.801	800.000	-0.068	-0.278
-92.786	800.000	0.079	0.297
-91.772	32.891	0.056	-0.047
-90.757	-200.000	0.039	0.184
-89.743	800.000	0.011	0.042
-88.728	-177.568	-0.029	-0.001
-87.713	-19.555	-0.166	0.101
-86.699	-60.004	-0.342	-0.144
-85.684	-42.163	-0.377	0.189
-84.670	88.581	-0.082	0.090
-83.655	-200.000	-0.004	0.130
-82.640	-67.375	0.126	0.049
-81.626	800.000	-0.086	-0.273
-80.611	368.755	0.171	0.339
-79.597	-73.863	-0.181	0.065
-78.582	636.795	0.018	0.046
-77.567	-58.978	0.526	-0.223
-76.553	-74.937	-0.318	-0.112
-75.538	-200.000	0.033	0.166
-74.524	-200.000	-0.006	0.162
-73.509	800.000	0.035	0.098
-72.494	-139.394	0.157	0.017
-71.480	-200.000	-0.006	-0.113
-70.465	-194.721	-0.218	0.002
-69.451	216.801	0.137	0.213
-68.436	-39.646	-0.191	0.098
-67.422	-34.760	-0.123	-0.066
-66.407	140.311	0.192	0.248
-65.392	-121.501	-0.204	0.033
-64.378	-67.650	-0.038	-0.015
-63.363	-61.658	0.221	-0.091
-62.349	-200.000	0.019	0.342
-61.334	83.598	-1.072	-1.147
-60.319	107.198	0.323	0.376
-59.305	208.264	-0.716	-1.097
-58.290	-200.000	0.263	1.167
-57.276	390.403	0.694	1.412
-56.261	-200.000	115.319	620.417
-55.246	435.683	1502.504	3206.666
-54.232	147.933	2668.262	3529.309
-53.217	89.479	2294.805	2510.110
-52.203	32.338	2042.641	1729.663
-51.188	28.245	1957.943	1621.701
-50.173	26.855	1941.664	1595.931
-49.159	43.008	2005.444	1793.638
-48.144	42.171	2019.972	1799.049
-47.130	28.606	1976.759	1640.261
-46.115	26.411	1965.980	1611.713
-45.100	26.338	1962.339	1608.013
-44.086	26.271	1960.435	1605.790
-43.071	26.232	1957.994	1603.384
-42.057	26.177	1956.146	1601.317
-41.042	26.286	1953.860	1600.344
-40.027	26.341	1951.949	1599.205
-39.013	26.269	1950.040	1596.945
-37.998	26.292	1948.681	1595.967
-36.984	26.351	1946.770	1594.863
-35.969	26.279	1945.098	1592.793
-34.954	26.230	1943.857	1591.280
-33.940	26.287	1942.053	1590.247
-32.925	26.388	1940.197	1589.554
-31.911	26.380	1938.512	1588.032
-30.896	26.416	1936.779	1586.872
-29.881	26.359	1936.347	1585.951
-28.867	26.512	1933.827	1585.163
-27.852	26.414	1932.571	1583.213
-26.838	26.467	1930.645	1582.039
-25.823	26.449	1929.119	1580.571
-24.809	26.419	1927.600	1578.999
-23.794	26.414	1925.973	1577.561
-22.779	26.435	1923.596	1575.732
-21.765	26.469	1922.043	1574.691
-20.750	26.424	1920.846	1573.257
-19.736	26.439	1918.665	1571.542
-18.721	26.466	1917.507	1570.766
-17.706	26.431	1915.608	1568.843
-16.692	26.377	1914.155	1567.122
-15.677	26.425	1912.158	1565.843
-14.663	26.409	1911.355	1564.983
-13.648	26.435	1909.783	1563.859
-12.633	26.400	1909.069	1562.912
-11.619	26.395	1907.740	1561.720
-10.604	26.443	1906.299	1560.885
-9.590	26.435	1905.211	1559.864
-8.575	26.320	1903.777	1557.643
-7.560	26.374	1902.523	1557.021
-6.546	26.440	1900.709	1556.040
-5.531	26.475	1899.254	1555.089
-4.517	26.395	1898.414	1553.649
-3.502	26.309	1897.687	1552.256
-2.487	26.346	1896.190	1551.288
-1.473	26.414	1895.101	1550.914
-0.458	26.386	1889.995	1546.440
0.556	24.395	1869.483	1515.741
1.571	19.629	1849.252	1459.056
2.586	15.358	1870.613	1439.216
3.600	14.241	1905.317	1456.018
4.615	14.003	1899.210	1449.143
5.629	10.988	1801.886	1349.781
6.644	4.399	1689.928	1214.400
7.659	0.598	1656.189	1160.867
8.673	0.213	1653.402	1155.860
9.688	0.257	1652.056	1155.149
10.702	0.120	1651.127	1153.351
11.717	0.131	1646.820	1150.321
12.731	0.612	1645.719	1153.129
13.746	5.635	1656.602	1199.177
14.761	13.133	1671.019	1267.228
15.775	16.806	1676.344	1299.377
16.790	16.890	1675.728	1299.422
17.804	15.915	1672.614	1289.431
18.819	14.936	1669.736	1279.615
19.834	14.464	1667.006	1273.804
20.848	14.083	1665.917	1269.951
21.863	13.842	1664.362	1266.812
22.877	13.568	1662.521	1263.212
23.892	13.352	1661.550	1260.711
24.907	13.284	1660.399	1259.212
25.921	13.318	1659.162	1258.424
26.936	13.331	1658.171	1257.653
27.950	13.313	1657.213	1256.682
28.965	13.271	1657.093	1256.158
29.980	13.472	1656.203	1256.897
30.994	13.397	1654.833	1255.183
32.009	13.511	1653.904	1255.233
33.023	13.484	1653.623	1254.698
34.038	13.521	1652.472	1253.996
35.053	13.553	1651.719	1253.554
36.067	13.513	1649.992	1251.828
37.082	13.552	1649.333	1251.514
38.096	13.496	1648.184	1250.107
39.111	13.527	1647.604	1249.795
40.126	13.480	1646.494	1248.485
41.140	13.513	1645.905	1248.181
42.155	13.341	1644.609	1245.792
43.169	13.383	1642.752	1244.592
44.184	13.335	1641.601	1243.247
45.199	13.264	1640.980	1242.135
46.213	13.250	1639.861	1241.073
47.228	13.371	1638.370	1240.740
48.242	13.361	1636.565	1239.186
49.257	13.419	1635.779	1238.917
50.271	13.403	1634.571	1237.777
51.286	13.419	1633.093	1236.662
52.301	13.412	1632.172	1235.802
53.315	13.400	1630.548	1234.376
54.330	13.334	1629.167	1232.731
55.344	13.392	1627.055	1231.454
56.359	13.348	1626.102	1230.299
57.374	13.339	1625.402	1229.589
58.388	13.327	1624.099	1228.407
59.403	13.303	1622.800	1227.138
60.417	13.218	1621.356	1225.305
61.432	13.270	1619.845	1224.446
62.447	13.298	1618.633	1223.622
63.461	13.199	1617.310	1221.782
64.476	13.163	1616.855	1221.070
65.490	13.168	1615.402	1219.901
66.505	13.164	1614.148	1218.816
67.520	13.163	1613.354	1218.097
68.534	13.238	1612.084	1217.587
69.549	13.224	1611.278	1216.769
70.563	13.382	1609.630	1216.576
71.578	13.274	1608.441	1214.773
72.593	13.265	1607.551	1213.932
73.607	13.245	1606.100	1212.577
74.622	13.155	1605.215	1211.147
75.636	13.111	1604.384	1210.089
76.651	13.163	1603.305	1209.547
77.666	13.207	1602.184	1208.921
78.680	13.119	1601.497	1207.651
79.695	13.264	1599.771	1207.302
80.709	13.176	1599.317	1206.209
81.724	13.191	1598.470	1205.570
82.739	13.156	1597.972	1204.832
83.753	13.276	1596.967	1204.842
84.768	13.231	1595.973	1203.661
85.782	13.357	1594.857	1203.626
86.797	13.440	1593.976	1203.460
87.812	13.461	1592.590	1202.458
88.826	13.376	1591.562	1200.961
89.841	13.270	1590.534	1199.308
90.855	13.395	1589.830	1199.580
91.870	13.371	1588.540	1198.325
92.884	13.384	1588.057	1197.950
93.899	13.466	1586.849	1197.525
94.914	13.407	1585.783	1196.188
95.928	13.428	1584.542	1195.300
96.943	13.496	1583.370	1194.799
97.957	13.462	1581.702	1193.192
98.972	13.461	1580.217	1191.956
99.987	13.442	1579.008	1190.806
101.001	13.375	1577.607	1189.159
102.016	13.493	1575.539	1188.341
103.030	13.424	1574.360	1186.852
104.045	13.458	1573.612	1186.431
105.060	13.459	1572.190	1185.259
106.074	13.413	1571.079	1183.983
107.089	13.363	1569.057	1181.998
108.103	13.352	1567.604	1180.723
109.118	13.287	1566.328	1179.194
110.133	13.298	1564.761	1177.989
111.147	13.289	1563.367	1176.770
112.162	13.262	1562.377	1175.731
113.176	13.377	1560.374	1174.935
114.191	13.419	1558.980	1174.081
115.206	13.398	1558.175	1173.221
116.220	13.369	1557.454	1172.371
117.235	13.389	1555.814	1171.168
118.249	13.256	1554.646	1169.247
119.264	13.366	1553.112	1168.767
120.279	13.307	1552.059	1167.456
121.293	13.263	1550.601	1165.946
122.308	13.317	1548.738	1164.819
123.322	13.288	1547.253	1163.399
124.337	13.299	1546.064	1162.476
125.352	13.341	1544.573	1161.550
126.366	13.227	1543.860	1160.113
127.381	13.255	1542.749	1159.369
128.395	13.249	1541.231	1158.086
129.410	13.221	1540.181	1156.996
130.424	13.213	1538.878	1155.862
131.439	13.338	1537.384	1155.506
132.454	13.328	1536.020	1154.308
133.468	13.388	1534.789	1153.699
134.483	13.365	1533.442	1152.423
135.497	13.337	1531.979	1151.031
136.512	13.399	1530.576	1150.304
137.527	13.364	1529.241	1148.956
138.541	13.303	1527.951	1147.466
139.556	13.401	1526.314	1146.810
140.570	13.426	1525.082	1145.955
141.585	13.462	1524.190	1145.432
142.600	13.439	1523.366	1144.553
143.614	13.427	1521.810	1143.205
144.629	13.528	1520.217	1142.602
145.643	13.570	1518.928	1141.823
146.658	13.508	1517.917	1140.533
147.673	13.499	1516.022	1138.947
148.687	13.545	1514.495	1138.014
149.702	13.555	1513.052	1136.899
150.716	13.566	1511.438	1135.657
151.731	13.556	1510.084	1134.474
152.746	13.552	1509.216	1133.692
153.760	13.535	1507.325	1132.058
154.775	13.526	1506.367	1131.179
155.789	13.579	1505.006	1130.417
156.804	13.707	1503.493	1130.054
157.819	13.581	1502.709	1128.504
158.833	13.681	1501.555	1128.215
159.848	13.781	1500.021	1127.647
160.862	13.780	1498.943	1126.728
161.877	13.836	1497.578	1125.981
162.892	13.714	1496.916	1124.559
163.906	13.662	1495.855	1123.307
164.921	13.628	1494.461	1121.935
165.935	13.671	1493.368	1121.306
166.950	13.615	1492.324	1120.044
167.964	13.645	1491.330	1119.396
168.979	13.685	1490.143	1118.678
169.994	13.690	1489.416	1118.066
171.008	13.687	1488.227	1117.056
172.023	13.705	1487.353	1116.421
173.037	13.813	1485.973	1116.015
174.052	13.797	1484.931	1115.027
175.067	13.702	1484.148	1113.704
176.081	13.806	1482.990	1113.434
177.096	13.756	1481.757	1112.072
178.110	13.791	1479.899	1110.813
179.125	13.777	1479.029	1109.967
180.140	13.764	1478.141	1109.119
181.154	13.785	1477.065	1108.350
182.169	13.876	1475.703	1107.841
183.183	13.889	1474.351	1106.811
184.198	13.990	1473.438	1106.700
185.213	13.991	1472.187	1105.673
186.227	13.986	1470.983	1104.634
187.242	13.981	1470.446	1104.103
188.256	14.028	1469.462	1103.577
189.271	13.939	1468.501	1102.170
190.286	14.066	1467.516	1102.170
191.300	14.015	1466.223	1100.768
192.315	13.862	1465.213	1098.899
193.329	13.834	1463.991	1097.698
194.344	13.801	1462.629	1096.365
195.359	13.910	1462.058	1096.555
196.373	13.914	1460.833	1095.570
197.388	13.995	1459.956	1095.345
198.402	14.021	1458.826	1094.575
199.417	14.016	1457.940	1093.780
200.432	14.107	1456.531	1093.225
201.446	14.124	1456.052	1092.882
202.461	14.176	1454.563	1092.007
203.475	14.286	1453.164	1091.584
204.490	14.271	1452.332	1090.764
205.504	14.220	1451.230	1089.500
206.519	14.290	1449.852	1088.831
207.534	14.232	1449.020	1087.727
208.548	14.218	1447.863	1086.671
209.563	14.232	1446.757	1085.838
210.577	14.211	1446.113	1085.124
211.592	14.130	1445.474	1084.020
212.607	14.292	1444.210	1084.032
213.621	14.475	1443.131	1084.311
214.636	14.406	1442.060	1082.966
215.650	14.309	1441.392	1081.739
216.665	14.326	1440.713	1081.241
217.680	14.371	1440.129	1080.997
218.694	14.399	1439.187	1080.379
219.709	14.440	1438.366	1079.931
220.723	14.344	1437.566	1078.613
221.738	14.471	1436.624	1078.636
222.753	14.436	1435.688	1077.610
223.767	14.458	1434.601	1076.841
224.782	14.388	1433.874	1075.746
225.796	14.531	1432.461	1075.517
226.811	14.585	1431.419	1074.987
227.826	14.498	1431.105	1074.096
228.840	14.473	1429.857	1072.902
229.855	14.495	1429.318	1072.542
230.869	14.445	1428.102	1071.217
231.884	14.557	1427.118	1071.099
232.899	14.582	1425.885	1070.242
233.913	14.490	1424.962	1068.862
234.928	14.507	1423.832	1068.029
235.942	14.454	1422.411	1066.534
236.957	14.477	1421.387	1065.818
237.972	14.485	1420.068	1064.787
238.986	14.493	1418.960	1063.909
240.001	14.562	1418.469	1063.891
241.015	14.541	1417.308	1062.788
242.030	14.591	1415.996	1062.028
243.045	14.599	1414.795	1061.088
244.059	14.710	1413.966	1061.073
245.074	14.645	1413.185	1059.983
246.088	14.649	1412.756	1059.595
247.103	14.751	1411.739	1059.384
248.117	14.635	1411.419	1058.312
249.132	14.757	1410.501	1058.306
250.147	14.747	1409.599	1057.468
251.161	14.816	1408.975	1057.347
252.176	14.820	1408.496	1056.920
253.190	14.900	1407.772	1056.787
254.205	15.005	1406.671	1056.532
255.220	14.945	1405.739	1055.355
256.234	15.061	1404.767	1055.263
257.249	14.996	1404.275	1054.392
258.263	15.094	1403.265	1054.157
259.278	15.155	1402.347	1053.762
260.293	15.028	1401.535	1052.257
261.307	15.090	1400.518	1051.789
262.322	15.111	1400.352	1051.705
263.336	15.135	1399.326	1050.990
264.351	15.219	1397.629	1050.151
265.366	15.219	1397.163	1049.708
266.380	15.137	1396.289	1048.445
267.395	15.188	1395.447	1048.036
268.409	15.233	1394.564	1047.563
269.424	15.207	1393.243	1046.320
270.439	15.222	1392.819	1046.000
271.453	15.184	1391.600	1044.755
272.468	15.270	1390.450	1044.333
273.482	15.282	1389.966	1043.950
274.497	15.222	1388.961	1042.731
275.512	15.176	1388.285	1041.847
276.526	15.188	1387.517	1041.256
277.541	15.284	1386.413	1040.927
278.555	15.250	1385.814	1040.177
279.570	15.318	1384.555	1039.559
280.585	15.276	1383.762	1038.610
281.599	15.407	1383.032	1038.783
282.614	15.441	1381.734	1037.925
283.628	15.437	1380.955	1037.225
284.643	15.337	1380.298	1036.023
285.657	15.334	1379.595	1035.385
286.672	15.331	1378.332	1034.324
287.687	15.412	1377.265	1033.931
288.701	15.425	1376.576	1033.406
289.716	15.390	1375.697	1032.442
290.730	15.422	1375.135	1032.121
291.745	15.498	1373.543	1031.305
292.760	15.496	1372.944	1030.747
293.774	15.540	1371.856	1030.111
294.789	15.551	1370.861	1029.337
295.803	15.622	1369.710	1028.821
296.818	15.641	1369.038	1028.342
297.833	15.574	1368.424	1027.377
298.847	15.568	1367.242	1026.361
299.862	15.587	1365.804	1025.311
300.876	15.628	1365.366	1025.140
301.891	15.563	1364.546	1024.038
302.906	15.577	1363.980	1023.608
303.920	15.637	1363.108	1023.230
304.935	15.678	1362.401	1022.853
305.949	15.743	1361.221	1022.275
306.964	15.819	1360.312	1021.960
307.979	15.780	1359.732	1021.202
308.993	15.803	1358.455	1020.291
310.008	15.865	1357.904	1020.160
311.022	15.920	1356.555	1019.393
312.037	15.812	1355.564	1017.904
313.052	15.885	1354.898	1017.752
314.066	15.854	1354.113	1016.888
315.081	15.882	1352.837	1016.008
316.095	15.782	1351.755	1014.502
317.110	15.851	1350.811	1014.122
318.125	15.871	1349.594	1013.236
319.139	15.906	1348.664	1012.658
320.154	15.818	1347.917	1011.481
321.168	15.820	1347.071	1010.768
322.183	15.827	1345.877	1009.824
323.197	15.882	1345.233	1009.581
324.212	15.854	1344.497	1008.770
325.227	15.880	1344.039	1008.495
326.241	15.947	1342.795	1007.872
327.256	15.981	1341.782	1007.227
328.270	15.956	1341.360	1006.674
329.285	15.887	1340.393	1005.445
330.300	16.000	1339.044	1005.017
331.314	15.978	1338.170	1004.141
332.329	16.101	1337.448	1004.245
333.343	15.929	1336.874	1002.697
334.358	15.998	1335.892	1002.283
335.373	16.105	1334.798	1002.009
336.387	16.100	1333.934	1001.243
337.402	16.143	1333.485	1001.074
338.416	16.104	1332.860	1000.283
339.431	16.170	1332.194	1000.087
340.446	16.195	1331.559	999.668
341.460	16.291	1330.306	999.208
342.475	16.210	1329.668	998.166
343.489	16.309	1328.803	998.011
344.504	16.319	1328.101	997.456
345.519	16.378	1326.230	996.309
346.533	16.380	1325.302	995.535
347.548	16.362	1325.218	995.276
348.562	16.340	1324.722	994.690
349.577	16.436	1323.291	994.092
350.592	16.329	1322.834	993.028
351.606	16.388	1321.754	992.477
352.621	16.304	1320.613	991.039
353.635	16.243	1319.687	989.898
354.650	16.357	1318.911	989.898
355.665	16.317	1317.730	988.688
356.679	16.476	1316.376	988.514
357.694	16.472	1315.394	987.670
358.708	16.500	1314.298	986.922
359.723	16.437	1313.459	985.835
360.738	16.366	1312.919	984.931
361.752	16.531	1311.552	984.780
362.767	16.429	1310.437	983.260
363.781	16.475	1309.521	982.756
364.796	16.491	1308.790	982.210
365.810	16.488	1308.567	981.939
366.825	16.659	1307.093	981.736
367.840	16.698	1306.459	981.404
368.854	16.687	1306.113	980.988
369.869	16.645	1305.919	980.515
370.883	16.644	1304.972	979.714
371.898	16.751	1304.076	979.571
372.913	16.647	1303.520	978.465
373.927	16.645	1302.737	977.781
374.942	16.706	1301.795	977.338
375.956	16.774	1301.089	977.116
376.971	16.779	1299.986	976.230
377.986	16.855	1299.233	976.013
379.000	16.828	1298.442	975.178
380.015	16.927	1297.662	975.075
381.029	16.930	1296.741	974.312
382.044	16.831	1296.773	973.680
383.059	16.905	1295.904	973.367
384.073	16.922	1295.086	972.763
385.088	17.015	1294.341	972.655
386.102	16.955	1293.893	971.889
387.117	16.855	1293.425	970.875
388.132	17.026	1292.314	970.933
389.146	16.903	1291.444	969.495
390.161	16.901	1290.407	968.618
391.175	16.985	1290.057	968.748
392.190	17.014	1289.198	968.184
393.205	17.068	1288.038	967.535
394.219	16.962	1287.292	966.281
395.234	17.067	1285.937	965.777
396.248	17.055	1284.659	964.664
397.263	16.970	1283.572	963.280
398.278	17.053	1282.074	962.540
399.292	17.002	1280.785	961.200
400.307	16.969	1280.039	960.367
401.321	17.016	1278.768	959.595
402.336	16.993	1278.077	958.864
403.350	17.045	1276.990	958.254
404.365	17.112	1276.084	957.869
405.380	17.099	1275.185	957.035
406.394	17.116	1274.353	956.423
407.409	17.176	1273.670	956.163
408.423	17.188	1273.154	955.761
409.438	17.155	1272.501	955.000
410.453	17.228	1271.940	954.907
411.467	17.335	1270.923	954.654
412.482	17.215	1270.937	953.910
413.496	17.324	1269.834	953.610
414.511	17.431	1268.650	953.236
415.526	17.353	1268.418	952.537
416.540	17.461	1267.800	952.596
417.555	17.523	1266.557	951.922
418.569	17.400	1266.286	950.945
419.584	17.563	1265.726	951.353
420.599	17.430	1265.339	950.238
421.613	99.095	1357.044	1482.124
422.628	96.436	1370.334	1482.223
