DTS Sentinel unit serial number:	SN413079Multiplexer serial number:	ORYXHardware model number:	OX4-SRSoftware version number:	ORYX F/W v4.00 Oryx Data Collector v3.7.2.0data status	okinstallation	princeton_trtdifferential loss correction	single-endedforward channel	channel 4reverse channel	N/Adate	2019/09/18time	14:45:34forward acquisition time	60.00reverse acquisition time	0.00gamma	496.2192k internal	0.2298k external	0.2298temperature offset calibration	0.9998default loss term (dB/km)	0.3790temperature slope calibration	1.0000multiplexer offset coefficient	1.0000multiplexer slope coefficient	1.0000fibre end	0.00T internal ref (°C)	34.94T ext. ref 1 (°C)	0.71T ext. ref 2 (°C)	33.03length (m)	temperature (°C)	Stokes	anti-Stokes-747.200	123.662	0.168	-0.215
-746.185	240.869	0.337	0.575
-745.171	-125.177	0.496	0.078
-744.156	216.387	-0.204	0.331
-743.142	-63.269	0.443	0.186
-742.127	800.000	-0.022	-0.075
-741.112	-11.411	0.072	0.048
-740.098	-200.000	0.015	0.124
-739.083	-200.000	0.027	-0.141
-738.069	-183.596	0.117	0.002
-737.054	-35.883	-0.183	-0.101
-736.039	-200.000	0.014	0.230
-735.025	-86.848	0.309	-0.096
-734.010	128.166	-0.137	0.178
-732.996	-99.172	-0.140	-0.036
-731.981	-128.050	-0.336	-0.049
-730.966	133.079	-0.094	-0.124
-729.952	-90.662	-0.307	-0.090
-728.937	-200.000	0.019	0.223
-727.923	195.324	-0.246	0.381
-726.908	129.574	-0.093	-0.121
-725.894	102.900	0.105	-0.126
-724.879	800.000	-0.024	-0.105
-723.864	72.664	0.089	0.095
-722.850	-15.294	-0.201	-0.131
-721.835	331.392	0.127	0.249
-720.821	116.420	0.156	-0.195
-719.806	-23.322	-0.050	-0.031
-718.791	-200.000	0.001	-0.158
-717.777	342.655	-0.132	-0.263
-716.762	16.244	-0.119	-0.096
-715.748	54.988	-0.036	-0.035
-714.733	-46.243	-0.164	0.082
-713.718	-200.000	0.004	-0.277
-712.704	-123.595	-0.285	-0.046
-711.689	54.209	0.314	-0.308
-710.675	306.233	0.159	0.302
-709.660	-97.929	-0.132	0.035
-708.645	-138.736	0.309	-0.034
-707.631	-108.663	0.299	0.065
-706.616	37.729	0.343	-0.311
-705.602	7.454	0.162	0.123
-704.587	-76.552	-0.168	-0.060
-703.572	-134.860	0.122	0.015
-702.558	-25.066	0.118	-0.071
-701.543	-7.707	-0.158	0.109
-700.529	315.017	-0.113	-0.216
-699.514	316.899	0.136	-0.262
-698.499	-15.467	-0.145	-0.094
-697.485	-200.000	0.045	0.243
-696.470	800.000	0.040	0.127
-695.456	-101.949	0.146	0.036
-694.441	213.539	0.100	0.161
-693.426	233.179	0.050	0.084
-692.412	98.270	-0.151	-0.177
-691.397	-200.000	-0.003	0.113
-690.383	800.000	-0.139	-0.405
-689.368	800.000	0.029	-0.122
-688.354	248.020	-0.274	-0.472
-687.339	-71.261	0.137	-0.052
-686.324	414.553	0.136	-0.296
-685.310	682.899	-0.031	0.082
-684.295	15.620	0.210	-0.168
-683.281	24.502	0.114	-0.096
-682.266	514.700	0.099	-0.236
-681.251	336.954	-0.121	0.239
-680.237	-200.000	-0.004	0.156
-679.222	-200.000	-0.072	-0.361
-678.208	164.688	0.104	-0.149
-677.193	44.044	-0.100	0.093
-676.178	346.962	0.119	-0.239
-675.164	213.356	0.091	-0.146
-674.149	413.380	0.082	-0.177
-673.135	769.037	0.062	0.171
-672.120	421.848	-0.063	0.137
-671.105	431.833	0.089	-0.196
-670.091	-97.755	-0.109	-0.029
-669.076	-67.770	0.156	0.062
-668.062	-75.420	-0.317	0.115
-667.047	-200.000	-0.001	-0.048
-666.032	-108.711	0.324	0.071
-665.018	-71.738	-0.235	-0.089
-664.003	513.026	0.072	0.171
-662.989	-158.517	-0.152	-0.009
-661.974	-52.840	-0.149	0.070
-660.959	111.292	0.195	-0.239
-659.945	-200.000	-0.276	0.001
-658.930	-135.149	0.098	0.012
-657.916	-200.000	-0.029	-0.167
-656.901	239.978	0.151	0.256
-655.886	2.027	0.079	-0.058
-654.872	686.549	-0.122	-0.324
-653.857	247.870	-0.054	-0.093
-652.843	-83.711	-0.322	-0.104
-651.828	210.260	-0.068	0.109
-650.814	-92.924	0.390	-0.111
-649.799	-101.717	0.230	-0.057
-648.784	121.063	-0.113	-0.143
-647.770	4.277	0.140	0.105
-646.755	-102.355	-0.195	-0.048
-645.741	2.902	0.209	0.155
-644.726	-200.000	-0.047	-0.261
-643.711	311.710	-0.107	-0.205
-642.697	800.000	0.064	0.185
-641.682	240.488	0.059	0.100
-640.668	-200.000	-0.037	-0.385
-639.653	-200.000	0.047	-0.297
-638.638	34.204	-0.207	0.184
-637.624	-29.779	-0.428	0.248
-636.609	-4.968	-0.142	0.099
-635.595	-11.792	-0.335	-0.223
-634.580	-200.000	-0.020	0.247
-633.565	272.730	-0.097	0.174
-632.551	86.394	-0.217	0.243
-631.536	364.829	-0.054	0.111
-630.522	800.000	-0.060	0.219
-629.507	55.072	-0.169	-0.166
-628.492	800.000	-0.067	-0.251
-627.478	-83.456	-0.124	-0.040
-626.463	-157.922	0.165	0.010
-625.449	193.045	0.106	-0.162
-624.434	-200.000	-0.018	-0.307
-623.419	177.276	0.213	-0.315
-622.405	-117.275	-0.358	-0.066
-621.390	756.212	0.125	-0.344
-620.376	-200.000	0.006	-0.148
-619.361	-113.858	0.062	0.012
-618.346	-62.270	0.148	-0.062
-617.332	-200.000	-0.029	-0.331
-616.317	800.000	-0.061	0.224
-615.303	30.089	0.124	0.107
-614.288	-199.279	0.134	0.001
-613.273	-200.000	0.043	0.239
-612.259	-112.836	-0.080	-0.016
-611.244	-23.989	-0.147	-0.089
-610.230	29.854	-0.206	0.178
-609.215	800.000	0.063	-0.195
-608.201	-41.518	-0.440	0.230
-607.186	-52.166	0.111	-0.052
-606.171	-139.652	-0.269	-0.029
-605.157	57.816	0.207	0.205
-604.142	-190.824	-0.278	-0.003
-603.128	27.675	0.181	0.155
-602.113	-119.359	0.145	0.026
-601.098	-82.677	0.258	-0.085
-600.084	-92.449	0.173	0.049
-599.069	-200.000	-0.022	-0.204
-598.055	-16.828	0.255	-0.164
-597.040	766.985	-0.028	0.076
-596.025	363.948	-0.056	-0.115
-595.011	-38.270	-0.199	-0.107
-593.996	235.761	-0.115	-0.193
-592.982	800.000	-0.054	0.212
-591.967	-73.835	-0.311	0.115
-590.952	-131.115	0.198	0.027
-589.938	9.542	-0.159	0.122
-588.923	99.503	0.134	-0.157
-587.909	-132.688	-0.152	0.020
-586.894	386.347	0.105	-0.220
-585.879	-33.611	0.059	0.033
-584.865	-100.541	-0.241	-0.061
-583.850	220.255	0.169	0.274
-582.836	-40.091	-0.211	-0.111
-581.821	55.856	0.102	0.100
-580.806	800.000	-0.071	-0.253
-579.792	425.434	-0.050	-0.108
-578.777	657.284	0.084	-0.219
-577.763	800.000	0.096	0.381
-576.748	138.869	0.155	0.206
-575.733	-98.767	0.133	0.034
-574.719	-200.000	0.052	-0.432
-573.704	-120.482	-0.200	-0.034
-572.690	-78.182	-0.448	-0.156
-571.675	490.125	0.075	0.173
-570.661	800.000	-0.071	-0.202
-569.646	-200.000	0.057	-0.359
-568.631	-200.000	0.011	0.061
-567.617	-200.000	-0.001	0.334
-566.602	-35.702	-0.419	0.230
-565.588	-119.390	0.352	-0.062
-564.573	50.759	-0.146	0.140
-563.558	-97.854	0.338	-0.088
-562.544	-200.000	-0.019	-0.142
-561.529	79.960	0.348	0.379
-560.515	-15.061	0.262	-0.170
-559.500	-164.501	0.126	-0.006
-558.485	-31.696	-0.114	-0.065
-557.471	-200.000	-0.009	-0.050
-556.456	-20.335	0.086	-0.054
-555.442	-200.000	0.008	-0.080
-554.427	-167.164	-0.137	-0.006
-553.412	-9.717	-0.125	0.085
-552.398	-200.000	-0.009	0.139
-551.383	92.485	-0.144	-0.164
-550.369	-44.218	0.152	-0.077
-549.354	52.257	-0.179	0.173
-548.339	-135.746	-0.140	0.017
-547.325	800.000	0.051	0.182
-546.310	-16.770	0.161	0.103
-545.296	-200.000	-0.003	0.169
-544.281	-200.000	0.028	-0.283
-543.266	-117.966	0.353	-0.064
-542.252	-79.911	-0.115	-0.039
-541.237	800.000	-0.085	-0.331
-540.223	800.000	0.119	-0.394
-539.208	-151.157	0.092	0.007
-538.193	800.000	-0.042	-0.136
-537.179	1.650	0.276	-0.201
-536.164	-30.331	-0.159	-0.091
-535.150	141.801	-0.306	-0.411
-534.135	-182.561	0.320	-0.006
-533.121	214.752	0.233	0.374
-532.106	-200.000	-0.001	0.041
-531.091	52.029	-0.044	-0.043
-530.077	541.019	0.156	-0.377
-529.062	44.920	-0.211	0.197
-528.048	172.359	0.091	0.133
-527.033	277.939	0.112	0.202
-526.018	213.255	-0.156	-0.250
-525.004	4.858	0.134	-0.100
-523.989	-169.145	-0.332	-0.012
-522.975	-136.823	-0.280	-0.033
-521.960	-200.000	0.026	-0.157
-520.945	-200.000	0.012	0.118
-519.931	-146.787	-0.243	-0.021
-518.916	800.000	-0.021	-0.076
-517.902	221.585	0.039	0.063
-516.887	-25.953	0.347	0.207
-515.872	286.133	0.138	0.252
-514.858	13.156	0.261	0.205
-513.843	-200.000	0.019	0.100
-512.829	152.268	0.179	0.247
-511.814	41.427	0.104	-0.095
-510.799	-97.223	0.175	-0.046
-509.785	-13.096	0.145	-0.095
-508.770	8.461	-0.355	0.270
-507.756	200.401	-0.143	-0.222
-506.741	800.000	-0.078	0.285
-505.726	39.161	-0.082	0.074
-504.712	-116.872	-0.120	-0.022
-503.697	19.977	-0.052	0.042
-502.683	29.524	-0.045	-0.039
-501.668	168.109	-0.083	-0.119
-500.653	-116.726	-0.185	-0.034
-499.639	-45.291	-0.364	0.183
-498.624	-120.596	0.126	-0.022
-497.610	-200.000	0.007	-0.131
-496.595	-150.127	-0.198	0.016
-495.581	96.700	0.038	0.044
-494.566	-19.013	0.193	-0.122
-493.551	102.414	-0.205	-0.243
-492.537	58.465	-0.176	-0.174
-491.522	-159.713	0.184	0.010
-490.508	-119.896	0.402	0.070
-489.493	56.231	-0.215	0.211
-488.478	800.000	-0.099	0.363
-487.464	-35.991	-0.093	0.051
-486.449	-48.044	0.212	-0.104
-485.435	-66.149	-0.039	-0.016
-484.420	-200.000	-0.003	-0.056
-483.405	-56.700	0.109	-0.049
-482.391	-81.736	0.261	0.086
-481.376	-53.717	0.302	-0.139
-480.362	800.000	-0.089	0.252
-479.347	800.000	-0.052	-0.167
-478.332	-200.000	0.091	-0.502
-477.318	-39.129	-0.273	-0.145
-476.303	-200.000	0.000	0.056
-475.289	-106.651	-0.315	0.071
-474.274	-200.000	0.096	-0.454
-473.259	383.200	0.094	-0.195
-472.245	-145.645	-0.118	0.011
-471.230	34.172	0.174	-0.153
-470.216	-147.387	0.085	0.007
-469.201	335.871	0.064	0.126
-468.186	22.973	-0.153	0.127
-467.172	458.049	0.092	0.206
-466.157	230.574	0.171	-0.283
-465.143	-200.000	0.008	-0.063
-464.128	412.471	0.018	-0.039
-463.113	-114.061	-0.177	-0.035
-462.099	-5.417	0.023	0.016
-461.084	-193.030	0.115	0.001
-460.070	-60.896	0.306	-0.131
-459.055	-106.540	-0.334	0.075
-458.040	62.925	-0.248	-0.251
-457.026	-122.166	0.010	-0.002
-456.011	-17.592	-0.208	-0.132
-454.997	89.517	-0.017	0.019
-453.982	-63.449	0.278	0.116
-452.968	-142.230	-0.120	-0.012
-451.953	-37.899	0.330	-0.177
-450.938	47.524	0.126	0.119
-449.924	36.852	0.236	-0.211
-448.909	-200.000	0.010	-0.275
-447.895	-54.270	-0.263	-0.120
-446.880	377.117	-0.164	0.339
-445.865	227.701	0.101	-0.166
-444.851	800.000	0.009	-0.031
-443.836	-200.000	-0.005	-0.226
-442.822	100.581	0.261	-0.305
-441.807	87.228	0.166	-0.185
-440.792	-133.884	-0.095	0.012
-439.778	-200.000	0.006	-0.295
-438.763	185.514	0.195	0.293
-437.749	-200.000	-0.047	0.240
-436.734	-93.198	0.247	-0.069
-435.719	800.000	0.071	-0.252
-434.705	-200.000	0.013	0.136
-433.690	-200.000	0.052	0.378
-432.676	-200.000	-0.028	0.169
-431.661	220.708	0.014	-0.022
-430.646	800.000	-0.064	-0.223
-429.632	-83.458	0.208	0.067
-428.617	176.585	-0.088	0.129
-427.603	25.477	0.087	0.073
-426.588	-43.939	-0.419	-0.213
-425.573	-89.657	-0.088	-0.026
-424.559	-200.000	-0.010	0.205
-423.544	-89.679	0.193	0.057
-422.530	449.797	-0.070	0.156
-421.515	800.000	0.035	0.152
-420.500	800.000	-0.043	0.131
-419.486	36.698	0.052	0.046
-418.471	-30.711	-0.381	-0.217
-417.457	358.806	-0.156	-0.314
-416.442	-112.117	-0.070	-0.014
-415.428	296.698	-0.090	-0.166
-414.413	4.688	-0.071	0.052
-413.398	378.409	-0.039	0.081
-412.384	58.338	0.192	0.190
-411.369	-58.846	0.151	0.066
-410.355	-10.210	-0.227	0.152
-409.340	-106.787	-0.241	0.054
-408.325	2.850	0.251	-0.184
-407.311	-153.416	0.438	0.031
-406.296	-39.262	-0.257	0.136
-405.282	-109.797	0.269	-0.057
-404.267	-118.352	-0.120	0.022
-403.252	-200.000	-0.006	-0.394
-402.238	-95.372	-0.068	-0.019
-401.223	-200.000	-0.060	-0.332
-400.209	119.330	0.253	0.315
-399.194	248.114	0.071	0.121
-398.179	60.155	-0.194	-0.193
-397.165	800.000	0.125	-0.407
-396.150	-147.144	0.305	-0.026
-395.136	-14.657	0.214	0.138
-394.121	181.492	0.170	0.252
-393.106	-66.012	-0.340	0.137
-392.092	-119.017	0.229	0.040
-391.077	-200.000	-0.029	-0.136
-390.063	-4.714	-0.125	-0.087
-389.048	16.473	-0.267	-0.212
-388.033	-36.330	-0.221	-0.120
-387.019	192.693	0.150	-0.228
-386.004	-200.000	-0.041	0.214
-384.990	-49.802	0.234	-0.112
-383.975	262.227	0.081	-0.141
-382.960	-200.000	-0.095	-0.545
-381.946	645.971	-0.130	-0.334
-380.931	-166.243	-0.307	0.013
-379.917	94.675	-0.036	0.042
-378.902	800.000	0.055	-0.152
-377.888	-200.000	0.038	0.288
-376.873	-176.009	-0.450	0.012
-375.858	244.655	-0.130	-0.220
-374.844	586.466	-0.067	0.165
-373.829	365.339	-0.049	-0.099
-372.815	800.000	-0.118	-0.377
-371.800	299.546	0.084	-0.155
-370.785	-121.136	-0.224	0.038
-369.771	800.000	0.071	-0.221
-368.756	-83.958	0.488	-0.156
-367.742	89.840	-0.121	0.136
-366.727	-56.265	-0.498	-0.223
-365.712	246.992	-0.074	0.125
-364.698	286.406	-0.048	0.087
-363.683	-37.457	-0.158	0.085
-362.669	800.000	-0.047	0.180
-361.654	-200.000	0.015	0.166
-360.639	151.602	-0.214	0.293
-359.625	-18.541	-0.005	-0.003
-358.610	244.390	0.083	-0.140
-357.596	-200.000	0.004	-0.094
-356.581	329.588	0.228	0.441
-355.566	-200.000	-0.096	-0.493
-354.552	-200.000	0.018	-0.085
-353.537	-165.866	-0.172	-0.007
-352.523	-33.345	-0.070	0.039
-351.508	-30.554	-0.328	0.187
-350.493	-12.881	0.259	-0.169
-349.479	-200.000	-0.011	-0.191
-348.464	545.051	-0.061	-0.146
-347.450	36.329	0.230	0.204
-346.435	-91.250	0.059	0.017
-345.420	21.887	0.045	-0.037
-344.406	-69.955	-0.159	-0.061
-343.391	81.456	0.046	-0.050
-342.377	86.206	-0.220	0.243
-341.362	-106.528	0.319	0.071
-340.348	-39.783	-0.275	0.144
-339.333	-200.000	-0.027	-0.255
-338.318	37.861	-0.103	-0.092
-337.304	523.701	0.167	0.394
-336.289	-26.434	-0.095	0.056
-335.275	-179.011	-0.046	0.001
-334.260	800.000	-0.027	-0.117
-333.245	800.000	0.064	-0.197
-332.231	-57.707	0.310	0.136
-331.216	-200.000	-0.015	0.119
-330.202	94.191	-0.055	-0.063
-329.187	219.619	-0.176	0.283
-328.172	-36.984	0.156	0.084
-327.158	130.195	-0.200	-0.258
-326.143	800.000	-0.059	-0.172
-325.129	-200.000	0.018	-0.251
-324.114	-200.000	0.045	0.209
-323.099	118.352	-0.151	-0.187
-322.085	-155.395	0.119	-0.008
-321.070	298.328	-0.124	0.228
-320.056	-137.332	-0.370	-0.042
-319.041	-148.748	0.091	-0.007
-318.026	82.959	0.216	-0.236
-317.012	-98.002	-0.150	0.039
-315.997	-98.730	0.184	-0.047
-314.983	-142.256	0.199	-0.020
-313.968	800.000	-0.097	-0.355
-312.953	374.108	0.118	0.241
-311.939	-154.291	0.141	-0.010
-310.924	50.037	0.071	-0.067
-309.910	-83.345	-0.205	0.066
-308.895	-85.754	0.380	-0.118
-307.880	-79.294	-0.280	0.095
-306.866	-14.247	0.119	-0.077
-305.851	800.000	0.049	-0.177
-304.837	-200.000	0.006	0.074
-303.822	-200.000	-0.054	0.252
-302.807	800.000	0.080	0.322
-301.793	744.760	0.017	0.045
-300.778	-39.518	-0.306	-0.161
-299.764	9.854	0.273	-0.208
-298.749	-154.407	0.350	0.024
-297.735	-200.000	-0.004	0.146
-296.720	-95.229	-0.470	-0.127
-295.705	-118.493	-0.290	0.051
-294.691	276.554	0.052	0.092
-293.676	800.000	-0.087	-0.259
-292.662	243.517	-0.107	0.181
-291.647	-164.333	0.020	-0.001
-290.632	113.609	0.200	0.244
-289.618	26.131	0.108	0.090
-288.603	-200.000	0.036	-0.495
-287.589	-200.000	-0.018	0.079
-286.574	-78.257	-0.289	0.099
-285.559	27.995	0.272	-0.230
-284.545	567.480	0.020	0.049
-283.530	-200.000	-0.036	-0.165
-282.516	237.967	-0.102	0.170
-281.501	67.898	0.210	0.215
-280.486	82.730	0.172	-0.187
-279.472	800.000	-0.035	-0.140
-278.457	72.218	0.306	0.320
-277.443	-113.192	-0.487	0.096
-276.428	-200.000	-0.015	-0.177
-275.413	-200.000	0.002	0.215
-274.399	200.547	-0.167	0.258
-273.384	-136.948	0.268	0.031
-272.370	-200.000	-0.044	0.332
-271.355	41.059	0.052	-0.047
-270.340	177.864	-0.099	0.144
-269.326	-200.000	0.022	0.190
-268.311	119.589	-0.186	-0.230
-267.297	-200.000	-0.051	-0.290
-266.282	-150.537	-0.122	0.009
-265.267	-200.000	0.007	-0.056
-264.253	-200.000	0.002	-0.014
-263.238	-200.000	-0.062	-0.373
-262.224	-96.627	-0.149	-0.039
-261.209	-52.611	0.397	0.184
-260.195	97.267	0.087	-0.100
-259.180	-170.752	0.155	-0.005
-258.165	-200.000	0.010	0.632
-257.151	-85.608	0.132	-0.041
-256.136	800.000	0.040	-0.113
-255.122	-200.000	0.016	0.299
-254.107	-84.012	-0.130	0.041
-253.092	65.342	0.307	0.311
-252.078	-77.137	-0.140	-0.049
-251.063	108.333	0.292	0.349
-250.049	800.000	0.117	0.460
-249.034	28.601	-0.051	-0.043
-248.019	-23.072	0.095	0.058
-247.005	-16.205	-0.275	0.175
-245.990	41.547	-0.079	0.071
-244.976	800.000	0.058	0.173
-243.961	-63.876	0.287	0.118
-242.946	220.377	-0.322	0.516
-241.932	135.834	0.347	-0.453
-240.917	800.000	0.128	-0.445
-239.903	172.962	-0.217	0.312
-238.888	2.011	0.188	0.136
-237.873	-46.608	0.144	0.071
-236.859	-200.000	-0.036	0.294
-235.844	-79.311	0.225	0.076
-234.830	-18.574	-0.292	0.182
-233.815	-133.470	0.115	0.014
-232.800	639.607	0.097	0.248
-231.786	800.000	-0.035	0.112
-230.771	13.586	0.162	0.126
-229.757	198.363	-0.169	0.259
-228.742	-77.146	-0.170	-0.059
-227.727	-139.399	0.165	0.018
-226.713	544.000	-0.086	0.205
-225.698	366.377	-0.032	0.065
-224.684	-129.958	-0.583	-0.080
-223.669	283.150	0.018	0.032
-222.655	403.992	-0.062	-0.131
-221.640	-29.090	0.338	-0.194
-220.625	113.696	-0.165	-0.201
-219.611	231.432	-0.064	0.105
-218.596	185.713	0.291	-0.432
-217.582	151.579	-0.109	0.149
-216.567	-113.682	-0.206	-0.040
-215.552	295.096	-0.173	0.317
-214.538	169.289	0.305	0.436
-213.523	-4.979	-0.173	-0.119
-212.509	-200.000	-0.007	0.134
-211.494	91.386	0.430	-0.483
-210.479	-200.000	-0.015	0.209
-209.465	239.172	-0.051	0.085
-208.450	-115.170	0.170	0.032
-207.436	48.731	0.150	0.141
-206.421	-54.837	-0.192	-0.087
-205.406	51.298	-0.245	0.233
-204.392	800.000	-0.066	-0.212
-203.377	22.383	-0.077	0.063
-202.363	251.413	-0.058	-0.098
-201.348	-200.000	-0.025	0.245
-200.333	353.578	-0.089	0.176
-199.319	-200.000	-0.023	-0.202
-198.304	-8.681	-0.051	0.034
-197.290	-12.728	0.115	0.075
-196.275	45.742	-0.225	0.208
-195.260	261.138	0.140	0.241
-194.246	-46.358	0.065	-0.032
-193.231	-82.956	-0.193	0.062
-192.217	28.109	-0.213	-0.180
-191.202	-180.499	0.402	0.008
-190.187	-185.557	0.138	-0.002
-189.173	-44.525	0.049	0.024
-188.158	85.071	-0.123	0.135
-187.144	-123.741	0.204	0.032
-186.129	-90.262	0.246	-0.072
-185.114	-6.388	0.097	0.066
-184.100	125.083	-0.238	0.300
-183.085	352.599	-0.068	0.134
-182.071	127.147	0.171	0.216
-181.056	-89.693	0.225	0.066
-180.042	-173.052	0.115	0.004
-179.027	-200.000	0.041	0.325
-178.012	296.584	0.046	-0.084
-176.998	367.430	0.195	-0.394
-175.983	800.000	0.102	-0.346
-174.969	-54.000	0.439	0.200
-173.954	6.695	-0.167	0.124
-172.939	-101.551	0.078	-0.019
-171.925	147.455	0.180	-0.242
-170.910	-8.650	0.213	0.143
-169.896	9.677	-0.192	-0.146
-168.881	108.660	0.139	-0.166
-167.866	-77.344	0.234	-0.081
-166.852	198.366	0.170	0.260
-165.837	800.000	0.047	0.135
-164.823	-96.942	0.084	-0.022
-163.808	-21.804	0.096	-0.058
-162.793	800.000	-0.079	0.272
-161.779	121.346	-0.070	-0.087
-160.764	800.000	0.023	0.083
-159.750	-112.833	-0.031	-0.006
-158.735	48.486	-0.058	-0.054
-157.720	-200.000	0.013	0.061
-156.706	204.506	-0.087	-0.135
-155.691	30.818	-0.220	0.188
-154.677	33.322	-0.244	0.211
-153.662	800.000	-0.085	0.278
-152.647	116.150	0.130	-0.158
-151.633	800.000	0.073	0.268
-150.618	800.000	0.039	-0.121
-149.604	-114.409	0.332	-0.064
-148.589	178.439	-0.035	0.051
-147.574	-200.000	-0.001	0.070
-146.560	-142.650	0.105	-0.010
-145.545	11.778	-0.128	0.098
-144.531	800.000	-0.012	0.041
-143.516	-24.965	-0.325	-0.192
-142.502	800.000	0.024	-0.101
-141.487	49.138	0.188	-0.176
-140.472	510.332	-0.099	-0.231
-139.458	-33.079	0.324	-0.179
-138.443	22.417	-0.221	0.180
-137.429	-200.000	-0.029	0.152
-136.414	-175.456	0.044	-0.001
-135.399	152.858	-0.107	0.146
-134.385	800.000	-0.097	0.308
-133.370	800.000	-0.074	0.250
-132.356	16.973	-0.038	0.030
-131.341	199.114	-0.255	-0.390
-130.326	295.413	-0.188	0.344
-129.312	-34.899	0.207	0.112
-128.297	65.873	0.138	-0.140
-127.283	308.234	-0.116	-0.215
-126.268	-112.090	-0.290	0.058
-125.253	-200.000	-0.014	-0.176
-124.239	800.000	-0.172	-0.652
-123.224	-70.827	-0.247	0.093
-122.210	-100.410	0.276	-0.068
-121.195	68.728	-0.359	-0.367
-120.180	74.648	0.259	-0.271
-119.166	800.000	0.019	0.069
-118.151	773.743	0.023	0.061
-117.137	-114.542	-0.038	0.007
-116.122	-99.476	0.206	-0.052
-115.107	173.037	-0.112	-0.161
-114.093	184.207	0.216	0.319
-113.078	-116.680	-0.198	0.036
-112.064	-200.000	-0.022	0.169
-111.049	-136.453	-0.511	0.059
-110.034	-56.441	-0.074	0.032
-109.020	800.000	-0.075	0.315
-108.005	175.329	0.147	0.212
-106.991	9.217	0.320	0.241
-105.976	-75.391	0.296	-0.105
-104.962	-200.000	-0.038	-0.331
-103.947	800.000	-0.069	0.237
-102.932	-200.000	-0.004	-0.033
-101.918	-68.135	0.346	0.134
-100.903	424.787	0.254	0.544
-99.889	-200.000	0.005	0.109
-98.874	176.162	-0.174	-0.251
-97.859	113.807	-0.096	-0.116
-96.845	76.785	0.079	-0.084
-95.830	39.647	0.058	-0.052
-94.816	-49.316	0.151	-0.072
-93.801	800.000	-0.021	-0.077
-92.786	-43.290	-0.149	0.075
-91.772	77.982	-0.142	0.151
-90.757	554.919	0.052	-0.124
-89.743	759.014	0.102	0.276
-88.728	64.611	0.090	-0.090
-87.713	800.000	0.062	-0.170
-86.699	254.686	0.145	0.248
-85.684	285.372	0.130	-0.233
-84.670	-181.083	0.223	0.004
-83.655	-200.000	0.102	0.483
-82.640	139.187	0.176	0.230
-81.626	66.676	-0.253	-0.256
-80.611	280.709	0.166	-0.295
-79.597	-59.770	0.353	-0.150
-78.582	402.389	0.219	-0.458
-77.567	583.539	-0.079	0.193
-76.553	137.215	0.249	0.324
-75.538	34.481	0.284	0.247
-74.524	-200.000	0.031	-0.170
-73.509	-37.666	0.134	-0.071
-72.494	-164.091	0.186	0.009
-71.480	46.551	0.156	0.144
-70.465	800.000	0.029	0.084
-69.451	800.000	0.047	0.131
-68.436	-51.828	0.161	-0.075
-67.422	48.959	-0.435	-0.406
-66.407	436.364	-0.051	-0.110
-65.392	230.051	-0.067	-0.109
-64.378	-186.912	-0.138	0.002
-63.363	-83.858	0.164	0.052
-62.349	-96.750	-0.048	-0.012
-61.334	294.576	-0.567	-1.030
-60.319	-78.229	0.507	0.173
-59.305	800.000	-0.228	-0.845
-58.290	252.820	0.635	1.076
-57.276	260.349	0.677	1.163
-56.261	-200.000	94.177	551.622
-55.246	514.683	1407.031	3263.060
-54.232	143.452	2638.162	3490.234
-53.217	103.093	2379.127	2769.896
-52.203	41.550	2122.088	1908.879
-51.188	36.516	2034.124	1783.381
-50.173	34.958	2015.365	1752.599
-49.159	48.073	2065.526	1918.228
-48.144	50.705	2085.477	1961.144
-47.130	37.352	2042.869	1798.505
-46.115	34.931	2031.774	1766.340
-45.100	34.861	2028.533	1762.806
-44.086	34.862	2026.141	1760.671
-43.071	34.764	2023.082	1757.040
-42.057	34.731	2020.960	1754.822
-41.042	34.757	2019.550	1753.771
-40.027	34.768	2017.502	1752.018
-39.013	34.867	2014.235	1750.025
-37.998	34.889	2012.903	1748.992
-36.984	34.810	2011.288	1746.800
-35.969	34.960	2008.951	1746.074
-34.954	34.954	2007.441	1744.638
-33.940	34.923	2005.909	1742.955
-32.925	34.895	2004.573	1741.471
-31.911	34.952	2002.408	1740.034
-30.896	34.915	2001.083	1738.483
-29.881	34.945	1999.202	1737.053
-28.867	34.956	1997.604	1735.689
-27.852	34.935	1995.603	1733.689
-26.838	35.079	1993.623	1733.204
-25.823	34.988	1992.184	1731.065
-24.809	34.946	1990.610	1729.247
-23.794	34.992	1988.329	1727.618
-22.779	34.806	1987.032	1724.741
-21.765	34.981	1985.046	1724.528
-20.750	34.924	1983.534	1722.630
-19.736	34.919	1982.305	1721.449
-18.721	34.965	1980.316	1720.071
-17.706	34.951	1979.133	1718.847
-16.692	34.915	1976.947	1716.556
-15.677	34.873	1975.621	1714.963
-14.663	35.048	1973.613	1714.720
-13.648	34.960	1973.157	1713.462
-12.633	34.984	1971.401	1712.082
-11.619	34.995	1969.876	1710.788
-10.604	35.001	1968.245	1709.359
-9.590	34.931	1967.366	1707.904
-8.575	34.926	1965.961	1706.574
-7.560	35.015	1964.117	1705.700
-6.546	34.892	1963.488	1703.987
-5.531	35.020	1961.756	1703.557
-4.517	34.994	1960.733	1702.368
-3.502	35.034	1959.590	1701.666
-2.487	34.969	1958.236	1699.841
-1.473	34.965	1957.515	1699.119
-0.458	35.089	1953.133	1696.345
0.556	34.073	1934.148	1673.832
1.571	30.240	1914.893	1623.550
2.586	25.729	1936.419	1601.634
3.600	24.024	1971.968	1615.425
4.615	22.986	1965.860	1600.880
5.629	17.673	1861.350	1469.946
6.644	7.199	1735.735	1285.978
7.659	1.332	1693.832	1208.235
8.673	0.832	1689.450	1201.037
9.688	0.763	1688.209	1199.500
10.702	0.693	1686.916	1197.919
11.717	0.572	1683.746	1194.601
12.731	1.110	1683.379	1198.491
13.746	7.824	1698.343	1262.458
14.761	15.976	1714.412	1339.352
15.775	17.921	1716.461	1356.295
16.790	17.266	1713.077	1348.309
17.804	16.306	1710.041	1338.194
18.819	15.328	1706.890	1327.869
19.834	14.706	1704.267	1320.798
20.848	14.418	1702.752	1317.230
21.863	14.100	1701.387	1313.542
22.877	13.784	1699.887	1309.773
23.892	13.612	1698.243	1307.040
24.907	13.473	1696.711	1304.649
25.921	13.433	1696.364	1303.949
26.936	13.488	1694.960	1303.184
27.950	13.589	1693.658	1302.868
28.965	13.496	1693.717	1302.061
29.980	13.564	1693.253	1302.123
30.994	13.677	1691.831	1301.806
32.009	13.635	1690.842	1300.602
33.023	13.708	1690.509	1300.798
34.038	13.669	1689.402	1299.531
35.053	13.744	1687.758	1298.737
36.067	13.738	1687.370	1298.275
37.082	13.697	1685.950	1296.746
38.096	13.627	1684.626	1295.067
39.111	13.635	1684.308	1294.773
40.126	13.706	1683.585	1294.656
41.140	13.593	1682.857	1293.102
42.155	13.642	1680.708	1291.713
43.169	13.533	1679.960	1290.178
44.184	13.489	1678.878	1288.889
45.199	13.415	1677.661	1287.261
46.213	13.460	1676.360	1286.505
47.228	13.550	1675.072	1286.100
48.242	13.497	1674.166	1284.882
49.257	13.591	1672.767	1284.416
50.271	13.606	1671.643	1283.561
51.286	13.546	1670.243	1281.905
52.301	13.549	1668.619	1280.569
53.315	13.611	1667.121	1279.785
54.330	13.518	1665.969	1278.068
55.344	13.527	1664.315	1276.757
56.359	13.542	1662.817	1275.609
57.374	13.553	1661.805	1274.805
58.388	13.557	1660.608	1273.803
59.403	13.485	1659.243	1272.092
60.417	13.495	1657.773	1270.931
61.432	13.478	1656.828	1269.965
62.447	13.432	1655.961	1268.832
63.461	13.480	1654.232	1267.760
64.476	13.423	1653.112	1266.356
65.490	13.401	1652.132	1265.327
66.505	13.428	1650.833	1264.430
67.520	13.447	1649.391	1263.355
68.534	13.359	1649.222	1262.441
69.549	13.432	1647.508	1261.574
70.563	13.504	1646.026	1260.879
71.578	13.435	1645.214	1259.618
72.593	13.393	1644.313	1258.496
73.607	13.378	1642.999	1257.269
74.622	13.373	1641.712	1256.135
75.636	13.310	1640.833	1254.868
76.651	13.296	1639.951	1253.975
77.666	13.464	1638.327	1253.897
78.680	13.368	1637.731	1252.602
79.695	13.349	1637.163	1251.916
80.709	13.432	1636.008	1251.546
81.724	13.351	1635.412	1250.371
82.739	13.450	1633.848	1249.812
83.753	13.540	1633.004	1249.734
84.768	13.502	1631.861	1248.461
85.782	13.565	1631.418	1248.491
86.797	13.597	1630.381	1247.822
87.812	13.527	1629.315	1246.372
88.826	13.587	1627.806	1245.559
89.841	13.471	1626.797	1243.808
90.855	13.464	1625.718	1242.819
91.870	13.458	1624.575	1241.785
92.884	13.594	1623.279	1241.707
93.899	13.561	1622.230	1240.547
94.914	13.526	1621.403	1239.546
95.928	13.709	1620.069	1239.782
96.943	13.711	1618.659	1238.608
97.957	13.652	1617.608	1237.255
98.972	13.571	1615.917	1235.250
99.987	13.642	1614.485	1234.573
101.001	13.712	1612.440	1233.421
102.016	13.577	1611.664	1231.712
103.030	13.675	1609.443	1230.633
104.045	13.570	1608.639	1229.133
105.060	13.697	1607.593	1229.164
106.074	13.565	1605.788	1226.702
107.089	13.519	1604.521	1225.284
108.103	13.466	1602.581	1223.298
109.118	13.498	1601.689	1222.749
110.133	13.441	1600.104	1221.010
111.147	13.520	1598.552	1220.298
112.162	13.457	1596.922	1218.484
113.176	13.458	1595.823	1217.544
114.191	13.522	1594.046	1216.550
115.206	13.629	1592.999	1216.430
116.220	13.597	1591.554	1214.983
117.235	13.507	1590.513	1213.419
118.249	13.482	1589.387	1212.273
119.264	13.436	1588.037	1210.803
120.279	13.505	1586.129	1209.745
121.293	13.471	1584.646	1208.258
122.308	13.421	1583.749	1207.097
123.322	13.496	1581.426	1205.766
124.337	13.576	1579.949	1205.117
125.352	13.524	1578.533	1203.554
126.366	13.502	1577.699	1202.651
127.381	13.449	1576.475	1201.229
128.395	13.527	1575.272	1200.772
129.410	13.479	1573.935	1199.296
130.424	13.520	1572.721	1198.563
131.439	13.515	1571.416	1197.428
132.454	13.518	1570.142	1196.373
133.468	13.581	1568.838	1195.729
134.483	13.643	1567.012	1194.678
135.497	13.583	1565.789	1193.202
136.512	13.562	1564.385	1191.879
137.527	13.616	1562.769	1190.928
138.541	13.634	1561.610	1190.068
139.556	13.628	1560.326	1188.942
140.570	13.640	1559.049	1187.954
141.585	13.698	1557.551	1187.124
142.600	13.760	1556.344	1186.537
143.614	13.716	1555.136	1185.202
144.629	13.791	1553.978	1184.750
145.643	13.860	1552.366	1183.902
146.658	13.757	1551.191	1182.173
147.673	13.729	1549.455	1180.546
148.687	13.839	1547.569	1179.781
149.702	13.723	1546.365	1177.934
150.716	13.735	1544.569	1176.551
151.731	13.671	1543.644	1175.289
152.746	13.599	1542.476	1173.785
153.760	13.803	1540.384	1173.530
154.775	13.775	1539.296	1172.399
155.789	13.785	1538.433	1171.714
156.804	13.785	1537.333	1170.769
157.819	13.841	1535.636	1169.766
158.833	13.871	1534.554	1169.052
159.848	13.848	1533.321	1167.846
160.862	13.803	1532.458	1166.772
161.877	13.850	1531.437	1166.221
162.892	13.980	1529.403	1165.483
163.906	13.826	1528.150	1163.346
164.921	13.791	1527.148	1162.231
165.935	13.797	1526.005	1161.303
166.950	13.838	1524.768	1160.547
167.964	13.935	1523.745	1160.339
168.979	13.902	1522.697	1159.211
169.994	13.971	1521.378	1158.585
171.008	13.912	1520.330	1157.273
172.023	13.836	1519.291	1155.851
173.037	13.940	1517.960	1155.458
174.052	13.901	1517.196	1154.501
175.067	13.974	1516.002	1154.001
176.081	13.944	1514.278	1152.378
177.096	13.941	1512.848	1151.165
178.110	13.957	1512.102	1150.606
179.125	13.899	1510.920	1149.206
180.140	14.022	1509.777	1149.084
181.154	14.044	1508.629	1148.258
182.169	14.010	1507.718	1147.229
183.183	14.000	1506.675	1146.263
184.198	13.974	1505.178	1144.850
185.213	14.061	1504.460	1144.800
186.227	14.162	1502.843	1144.163
187.242	14.122	1502.066	1143.197
188.256	14.156	1501.129	1142.614
189.271	14.259	1499.487	1141.971
190.286	14.232	1498.779	1141.146
191.300	14.136	1497.942	1139.745
192.315	14.047	1496.554	1137.985
193.329	14.055	1495.136	1136.855
194.344	14.079	1494.636	1136.540
195.359	14.139	1493.165	1135.729
196.373	14.057	1492.546	1134.602
197.388	14.100	1491.569	1134.050
198.402	14.189	1489.855	1133.252
199.417	14.276	1488.717	1132.879
200.432	14.359	1487.527	1132.439
201.446	14.364	1486.845	1131.855
202.461	14.347	1486.015	1131.008
203.475	14.431	1484.544	1130.357
204.490	14.384	1483.602	1129.223
205.504	14.396	1482.627	1128.458
206.519	14.387	1481.477	1127.423
207.534	14.416	1479.807	1126.250
208.548	14.351	1479.086	1125.160
209.563	14.300	1478.617	1124.357
210.577	14.379	1477.378	1123.849
211.592	14.383	1476.094	1122.799
212.607	14.385	1475.756	1122.462
213.621	14.462	1474.546	1121.960
214.636	14.610	1473.288	1121.895
215.650	14.483	1472.682	1120.479
216.665	14.461	1471.768	1119.541
217.680	14.508	1471.268	1119.377
218.694	14.531	1470.589	1118.917
219.709	14.596	1469.605	1118.502
220.723	14.582	1468.101	1117.168
221.738	14.615	1467.153	1116.566
222.753	14.618	1466.286	1115.826
223.767	14.622	1465.556	1115.197
224.782	14.554	1464.477	1113.826
225.796	14.638	1463.590	1113.616
226.811	14.623	1462.389	1112.501
227.826	14.778	1461.528	1112.782
228.840	14.679	1460.865	1111.517
229.855	14.694	1460.252	1111.052
230.869	14.728	1459.054	1110.271
231.884	14.625	1458.220	1108.849
232.899	14.695	1456.920	1108.227
233.913	14.757	1455.625	1107.555
234.928	14.728	1454.282	1106.246
235.942	14.657	1453.484	1105.072
236.957	14.586	1452.257	1103.569
237.972	14.660	1450.938	1102.956
238.986	14.701	1449.831	1102.288
240.001	14.702	1449.126	1101.663
241.015	14.671	1448.042	1100.536
242.030	14.795	1446.087	1099.774
243.045	14.778	1445.718	1099.278
244.059	14.836	1444.298	1098.486
245.074	14.882	1444.043	1098.498
246.088	14.825	1443.453	1097.579
247.103	14.832	1442.428	1096.744
248.117	14.869	1441.942	1096.524
249.132	14.899	1440.683	1095.665
250.147	14.946	1440.003	1095.355
251.161	15.053	1439.365	1095.477
252.176	15.128	1438.526	1095.231
253.190	15.121	1437.862	1094.586
254.205	15.183	1436.833	1094.104
255.220	15.168	1435.870	1093.179
256.234	15.162	1435.563	1092.810
257.249	15.196	1434.413	1092.061
258.263	15.135	1433.943	1091.204
259.278	15.255	1432.705	1090.952
260.293	15.198	1431.830	1089.815
261.307	15.228	1430.873	1089.185
262.322	15.226	1430.114	1088.499
263.336	15.244	1429.471	1088.033
264.351	15.344	1428.188	1087.606
265.366	15.291	1427.482	1086.629
266.380	15.475	1426.496	1086.973
267.395	15.396	1424.993	1085.223
268.409	15.366	1424.711	1084.719
269.424	15.421	1423.346	1083.938
270.439	15.377	1422.464	1082.885
271.453	15.307	1421.507	1081.608
272.468	15.391	1420.505	1081.294
273.482	15.436	1419.762	1080.921
274.497	15.339	1419.152	1079.739
275.512	15.336	1418.284	1078.958
276.526	15.440	1416.858	1078.449
277.541	15.384	1416.238	1077.520
278.555	15.425	1415.445	1077.084
279.570	15.502	1414.438	1076.718
280.585	15.455	1413.989	1075.983
281.599	15.561	1412.566	1075.478
282.614	15.447	1412.277	1074.433
283.628	15.591	1410.487	1073.901
284.643	15.481	1409.601	1072.426
285.657	15.503	1408.633	1071.739
286.672	15.660	1407.189	1071.541
287.687	15.571	1406.501	1070.358
288.701	15.534	1405.515	1069.276
289.716	15.524	1404.726	1068.520
290.730	15.724	1403.470	1068.738
291.745	15.668	1402.559	1067.594
292.760	15.696	1401.902	1067.178
293.774	15.700	1400.629	1066.142
294.789	15.731	1399.849	1065.653
295.803	15.747	1398.972	1064.987
296.818	15.708	1398.516	1064.302
297.833	15.801	1397.015	1063.654
298.847	15.701	1396.389	1062.451
299.862	15.632	1395.509	1061.251
300.876	15.714	1394.313	1060.767
301.891	15.788	1393.284	1060.356
302.906	15.852	1392.526	1060.088
303.920	15.894	1391.459	1059.447
304.935	15.892	1391.061	1059.036
305.949	15.909	1390.276	1058.451
306.964	15.952	1389.457	1058.006
307.979	16.007	1388.261	1057.346
308.993	16.007	1387.517	1056.687
310.008	15.954	1386.704	1055.638
311.022	16.098	1385.173	1055.284
312.037	15.897	1384.342	1053.297
313.052	15.957	1383.775	1053.150
314.066	16.037	1382.449	1052.547
315.081	15.924	1381.555	1051.064
316.095	15.982	1380.407	1050.463
317.110	16.042	1379.103	1049.753
318.125	16.056	1378.169	1049.036
319.139	15.995	1377.400	1047.977
320.154	16.009	1376.762	1047.487
321.168	15.981	1375.616	1046.344
322.183	15.938	1375.104	1045.600
323.197	16.069	1373.383	1045.006
324.212	15.987	1372.835	1043.990
325.227	15.995	1372.069	1043.365
326.241	16.071	1371.040	1042.963
327.256	16.109	1370.064	1042.364
328.270	16.136	1369.484	1041.995
329.285	16.203	1368.411	1041.498
330.300	16.170	1367.379	1040.416
331.314	16.162	1366.304	1039.460
332.329	16.048	1365.736	1038.236
333.343	16.173	1364.690	1038.119
334.358	16.134	1363.904	1037.189
335.373	16.185	1362.826	1036.587
336.387	16.178	1362.522	1036.221
337.402	16.220	1361.287	1035.446
338.416	16.285	1360.662	1035.280
339.431	16.258	1360.189	1034.662
340.446	16.332	1359.469	1034.476
341.460	16.308	1358.649	1033.613
342.475	16.348	1357.541	1032.924
343.489	16.481	1356.211	1032.636
344.504	16.503	1355.663	1032.261
345.519	16.441	1354.879	1031.195
346.533	16.503	1353.376	1030.338
347.548	16.501	1352.980	1029.932
348.562	16.549	1352.107	1029.465
349.577	16.559	1351.148	1028.705
350.592	16.552	1350.930	1028.408
351.606	16.535	1349.777	1027.338
352.621	16.536	1348.186	1026.041
353.635	16.520	1347.380	1025.236
354.650	16.592	1346.103	1024.611
355.665	16.503	1345.984	1023.894
356.679	16.517	1344.439	1022.713
357.694	16.650	1343.127	1022.426
358.708	16.644	1342.195	1021.588
359.723	16.538	1341.331	1020.200
360.738	16.533	1340.477	1019.434
361.752	16.680	1339.157	1019.226
362.767	16.682	1338.211	1018.428
363.781	16.713	1337.278	1017.815
364.796	16.726	1336.534	1017.232
365.810	16.675	1335.905	1016.361
366.825	16.864	1334.774	1016.545
367.840	16.702	1334.778	1015.484
368.854	16.720	1334.095	1014.982
369.869	16.812	1333.018	1014.625
370.883	16.918	1332.003	1014.395
371.898	16.913	1331.365	1013.788
372.913	16.883	1330.455	1012.828
373.927	16.911	1329.910	1012.491
374.942	16.911	1329.278	1011.920
375.956	16.859	1328.113	1010.632
376.971	16.867	1327.418	1010.062
377.986	16.891	1326.996	1009.792
379.000	16.990	1325.616	1009.247
380.015	17.048	1324.792	1008.876
381.029	16.983	1324.325	1008.042
382.044	17.044	1323.872	1007.968
383.059	16.991	1323.242	1007.086
384.073	17.047	1322.178	1006.522
385.088	17.096	1321.677	1006.342
386.102	17.087	1321.026	1005.703
387.117	17.044	1320.365	1004.857
388.132	17.055	1319.546	1004.208
389.146	17.129	1318.388	1003.674
390.161	17.088	1317.634	1002.768
391.175	17.189	1316.522	1002.432
392.190	17.022	1316.068	1001.013
393.205	17.160	1314.739	1000.724
394.219	17.166	1313.820	999.971
395.234	17.272	1312.327	999.372
396.248	17.216	1311.632	998.425
397.263	17.114	1310.415	996.811
398.278	17.227	1308.549	995.965
399.292	17.203	1307.488	994.931
400.307	17.139	1306.564	993.765
401.321	17.193	1305.869	993.462
402.336	17.334	1304.225	992.947
403.350	17.192	1303.803	991.712
404.365	17.174	1302.982	990.891
405.380	17.241	1301.525	990.088
406.394	17.335	1300.618	989.855
407.409	17.269	1299.870	988.819
408.423	17.311	1299.751	988.882
409.438	17.436	1298.941	988.906
410.453	17.505	1297.851	988.389
411.467	17.477	1297.058	987.535
412.482	17.437	1297.183	987.308
413.496	17.463	1296.311	986.712
414.511	17.429	1295.391	985.728
415.526	17.518	1294.747	985.665
416.540	17.464	1293.894	984.617
417.555	17.549	1293.273	984.545
418.569	17.681	1292.698	984.781
419.584	17.568	1292.471	983.869
420.599	17.679	1291.232	983.484
421.613	90.345	1346.325	1442.140
422.628	88.819	1354.352	1442.284
