DTS Sentinel unit serial number:	SN413079Multiplexer serial number:	ORYXHardware model number:	OX4-SRSoftware version number:	ORYX F/W v4.00 Oryx Data Collector v3.7.2.0data status	okinstallation	princeton_trtdifferential loss correction	single-endedforward channel	channel 4reverse channel	N/Adate	2019/09/12time	01:03:11forward acquisition time	60.00reverse acquisition time	0.00gamma	496.2192k internal	0.2309k external	0.2309temperature offset calibration	1.0090default loss term (dB/km)	0.3790temperature slope calibration	1.0000multiplexer offset coefficient	1.0000multiplexer slope coefficient	1.0000fibre end	0.00T internal ref (°C)	33.12T ext. ref 1 (°C)	2.08T ext. ref 2 (°C)	27.04length (m)	temperature (°C)	Stokes	anti-Stokes-747.200	256.824	0.128	0.223
-746.185	316.660	-0.163	0.312
-745.171	-200.000	-0.047	0.230
-744.156	-97.975	0.097	0.025
-743.142	-14.265	0.441	-0.289
-742.127	-53.488	-0.314	0.146
-741.112	528.542	-0.061	-0.147
-740.098	328.896	-0.221	0.432
-739.083	522.318	0.090	-0.214
-738.069	-4.596	-0.223	-0.157
-737.054	-15.003	-0.062	0.041
-736.039	-162.124	-0.512	-0.026
-735.025	256.866	0.224	0.392
-734.010	-200.000	-0.002	-0.239
-732.996	-10.473	-0.309	0.208
-731.981	39.545	-0.236	-0.215
-730.966	721.612	0.034	0.093
-729.952	-90.312	-0.458	-0.135
-728.937	-108.523	-0.317	0.069
-727.923	-142.906	-0.240	0.024
-726.908	-71.275	-0.180	0.068
-725.894	209.198	-0.114	-0.182
-724.879	-117.562	-0.068	-0.013
-723.864	-4.989	-0.121	-0.084
-722.850	196.030	0.124	0.192
-721.835	65.472	0.259	-0.266
-720.821	38.354	0.168	0.152
-719.806	-200.000	-0.006	-0.223
-718.791	109.165	-0.107	-0.130
-717.777	-150.697	-0.122	0.009
-716.762	-114.193	-0.102	-0.020
-715.748	-200.000	0.010	-0.182
-714.733	-26.322	0.106	0.063
-713.718	-200.000	-0.046	-0.218
-712.704	-133.799	-0.333	-0.042
-711.689	144.237	-0.096	0.130
-710.675	-2.394	-0.162	0.115
-709.660	-200.000	-0.025	-0.169
-708.645	196.333	-0.047	0.072
-707.631	55.656	-0.167	0.164
-706.616	541.298	0.130	-0.314
-705.602	710.902	-0.031	-0.084
-704.587	-88.749	-0.338	-0.102
-703.572	115.399	-0.047	-0.058
-702.558	-137.115	-0.268	0.031
-701.543	-39.748	0.096	-0.051
-700.529	-200.000	0.136	-0.000
-699.514	242.841	-0.030	-0.051
-698.499	282.260	-0.160	0.291
-697.485	-200.000	0.004	0.053
-696.470	-200.000	0.006	0.047
-695.456	-200.000	0.008	-0.066
-694.441	-200.000	-0.018	0.127
-693.426	670.173	-0.171	0.450
-692.412	-104.221	-0.342	0.081
-691.397	-3.815	-0.263	-0.185
-690.383	57.660	-0.101	-0.100
-689.368	122.526	0.083	-0.105
-688.354	193.109	0.101	-0.155
-687.339	800.000	-0.048	-0.169
-686.324	-200.000	0.038	-0.406
-685.310	533.210	0.057	-0.138
-684.295	310.894	0.074	-0.141
-683.281	-111.195	0.284	0.059
-682.266	-118.135	-0.340	0.061
-681.251	47.488	-0.080	-0.076
-680.237	-44.546	-0.096	-0.048
-679.222	211.270	0.051	-0.082
-678.208	800.000	-0.049	0.143
-677.193	73.582	-0.120	0.128
-676.178	-15.669	-0.023	0.015
-675.164	-171.305	-0.305	0.010
-674.149	-200.000	0.012	0.061
-673.135	800.000	0.116	0.380
-672.120	20.628	-0.062	-0.051
-671.105	126.520	-0.149	-0.191
-670.091	-48.518	-0.221	-0.108
-669.076	-126.088	-0.157	-0.024
-668.062	-36.862	-0.124	-0.067
-667.047	-72.943	-0.333	-0.124
-666.032	-60.953	-0.203	-0.087
-665.018	-200.000	-0.043	0.359
-664.003	800.000	0.064	-0.215
-662.989	-200.000	-0.022	-0.114
-661.974	-200.000	0.015	-0.143
-660.959	118.631	-0.107	-0.133
-659.945	458.026	0.041	-0.092
-658.930	-200.000	0.023	0.315
-657.916	-13.233	0.106	-0.070
-656.901	-200.000	0.048	0.284
-655.886	300.534	0.066	0.123
-654.872	-86.858	-0.181	0.056
-653.857	-118.215	-0.170	-0.031
-652.843	-200.000	0.047	0.248
-651.828	-93.843	-0.215	0.060
-650.814	-71.668	-0.628	-0.237
-649.799	-188.274	-0.354	-0.005
-648.784	-200.000	-0.047	0.269
-647.770	-4.835	0.109	0.076
-646.755	16.734	-0.254	-0.203
-645.741	-200.000	0.049	0.238
-644.726	-137.660	-0.146	-0.017
-643.711	-200.000	0.033	-0.155
-642.697	800.000	0.056	0.163
-641.682	-200.000	0.036	-0.281
-640.668	165.311	-0.138	-0.198
-639.653	-200.000	-0.105	-0.000
-638.638	727.604	0.041	-0.111
-637.624	-200.000	0.015	0.181
-636.609	-200.000	0.027	-0.127
-635.595	-79.590	0.226	-0.077
-634.580	-113.580	-0.143	0.028
-633.565	-200.000	-0.039	-0.256
-632.551	-111.057	-0.167	-0.035
-631.536	263.947	0.052	-0.091
-630.522	-36.065	0.165	0.090
-629.507	-200.000	-0.011	-0.368
-628.492	800.000	0.061	0.205
-627.478	-87.347	0.080	0.025
-626.463	800.000	-0.058	0.185
-625.449	496.104	-0.160	0.373
-624.434	-35.923	-0.216	0.118
-623.419	485.489	-0.092	-0.211
-622.405	-5.879	0.245	0.170
-621.390	36.333	-0.290	-0.258
-620.376	-133.761	0.326	0.041
-619.361	100.527	0.149	0.175
-618.346	205.113	-0.023	-0.036
-617.332	102.223	-0.213	-0.251
-616.317	120.588	0.196	0.246
-615.303	-81.764	-0.276	-0.092
-614.288	-46.440	0.190	0.095
-613.273	-200.000	0.016	0.423
-612.259	-200.000	0.007	0.239
-611.244	29.377	-0.289	0.248
-610.230	-106.680	-0.189	-0.042
-609.215	-200.000	-0.016	-0.385
-608.201	727.415	0.033	-0.088
-607.186	-200.000	0.016	0.135
-606.171	167.068	0.155	0.223
-605.157	169.818	-0.142	0.206
-604.142	719.226	0.107	-0.287
-603.128	-103.093	-0.246	-0.059
-602.113	81.688	0.066	0.072
-601.098	-132.711	0.185	-0.024
-600.084	800.000	-0.066	0.212
-599.069	800.000	0.091	-0.278
-598.055	-65.704	-0.260	0.105
-597.040	-64.153	0.305	-0.125
-596.025	112.449	0.131	-0.160
-595.011	94.212	-0.091	0.104
-593.996	-121.116	-0.170	-0.029
-592.982	-200.000	-0.014	-0.203
-591.967	-112.396	0.200	-0.040
-590.952	-143.337	-0.160	-0.016
-589.938	-165.126	-0.156	-0.007
-588.923	-173.247	-0.324	0.010
-587.909	-200.000	0.001	-0.351
-586.894	-82.937	-0.569	-0.185
-585.879	136.781	-0.199	0.262
-584.865	-108.293	0.595	-0.130
-583.850	-12.060	-0.042	-0.028
-582.836	202.177	-0.149	-0.232
-581.821	289.811	-0.209	0.383
-580.806	-83.800	-0.111	-0.036
-579.792	174.306	-0.111	-0.162
-578.777	492.398	-0.076	-0.176
-577.763	-107.887	0.169	0.037
-576.748	-97.442	-0.407	0.107
-575.733	-110.271	-0.171	-0.036
-574.719	-200.000	-0.017	0.092
-573.704	1.651	0.282	0.205
-572.690	297.626	-0.095	0.176
-571.675	-145.681	0.350	-0.032
-570.661	-104.599	-0.352	0.082
-569.646	44.134	-0.203	0.188
-568.631	-36.549	-0.152	0.083
-567.617	800.000	0.045	0.184
-566.602	-200.000	-0.017	0.286
-565.588	-200.000	0.054	-0.443
-564.573	459.118	-0.097	-0.218
-563.558	-70.523	0.232	0.089
-562.544	773.913	0.087	-0.239
-561.529	-30.357	-0.124	0.071
-560.515	135.333	0.125	-0.165
-559.500	128.281	-0.051	-0.065
-558.485	26.949	0.068	-0.058
-557.471	59.969	0.081	-0.080
-556.456	800.000	0.095	-0.340
-555.442	-128.185	-0.215	0.031
-554.427	-200.000	0.021	0.164
-553.412	800.000	-0.041	0.153
-552.398	-2.653	0.141	0.099
-551.383	181.306	-0.105	0.156
-550.369	-148.403	-0.178	-0.015
-549.354	-120.618	-0.234	-0.040
-548.339	-200.000	-0.038	0.311
-547.325	3.954	0.171	-0.126
-546.310	-111.923	-0.217	0.044
-545.296	-122.820	-0.071	-0.012
-544.281	800.000	0.128	-0.413
-543.266	-200.000	0.020	0.092
-542.252	188.220	0.154	0.232
-541.237	-200.000	-0.000	-0.286
-540.223	-153.585	-0.378	0.026
-539.208	41.605	0.517	-0.472
-538.193	-200.000	0.073	0.341
-537.179	-91.673	-0.217	0.062
-536.164	800.000	0.096	-0.306
-535.150	114.525	-0.053	0.065
-534.135	100.103	-0.160	-0.187
-533.121	-33.853	0.170	-0.094
-532.106	-200.000	0.054	0.307
-531.091	-200.000	0.001	-0.106
-530.077	-58.849	-0.145	-0.063
-529.062	480.149	-0.062	0.143
-528.048	371.984	-0.077	-0.157
-527.033	-133.756	-0.168	-0.021
-526.018	-200.000	0.014	0.124
-525.004	-4.014	0.133	-0.093
-523.989	13.187	0.093	0.073
-522.975	288.820	0.050	0.092
-521.960	192.468	0.116	0.177
-520.945	88.362	0.100	0.112
-519.931	-200.000	-0.000	0.246
-518.916	-26.687	0.166	0.098
-517.902	2.289	-0.136	0.099
-516.887	115.120	-0.206	-0.253
-515.872	800.000	0.027	-0.100
-514.858	799.443	-0.046	0.126
-513.843	-200.000	-0.031	-0.294
-512.829	632.802	-0.088	-0.226
-511.814	-195.334	0.305	0.002
-510.799	-200.000	-0.011	0.150
-509.785	-81.627	-0.291	-0.096
-508.770	40.646	0.130	-0.118
-507.756	112.710	-0.107	-0.130
-506.741	-200.000	0.012	0.192
-505.726	-200.000	0.025	-0.256
-504.712	-20.005	-0.131	0.081
-503.697	-44.609	-0.084	0.042
-502.683	-154.803	-0.189	0.013
-501.668	-200.000	-0.023	-0.140
-500.653	-5.841	-0.226	0.156
-499.639	800.000	-0.046	0.152
-498.624	176.368	-0.280	-0.409
-497.610	-200.000	0.015	0.072
-496.595	76.593	-0.143	0.153
-495.581	76.366	-0.108	-0.115
-494.566	-77.345	0.405	-0.142
-493.551	-5.138	-0.064	-0.044
-492.537	-10.371	0.262	0.175
-491.522	112.638	-0.139	-0.170
-490.508	14.591	-0.397	0.312
-489.493	174.053	-0.065	-0.095
-488.478	171.682	-0.063	0.091
-487.464	-146.569	-0.128	0.011
-486.449	19.462	-0.139	0.113
-485.435	144.082	0.085	-0.114
-484.420	216.741	-0.048	-0.077
-483.405	-80.472	0.142	-0.048
-482.391	212.376	-0.151	0.239
-481.376	-200.000	0.049	0.530
-480.362	-147.115	0.327	0.028
-479.347	235.321	-0.179	0.298
-478.332	76.219	-0.059	0.063
-477.318	200.873	-0.131	0.202
-476.303	-131.601	0.040	0.005
-475.289	98.416	0.087	0.100
-474.274	-200.000	0.082	-0.366
-473.259	-117.672	-0.476	-0.086
-472.245	-136.373	0.066	0.008
-471.230	71.353	-0.377	-0.393
-470.216	-200.000	-0.023	-0.442
-469.201	-64.784	0.092	0.038
-468.186	-200.000	-0.004	-0.413
-467.172	217.181	0.204	-0.326
-466.157	607.759	-0.074	-0.185
-465.143	431.652	-0.100	-0.219
-464.128	-125.940	0.438	0.066
-463.113	247.230	-0.004	-0.007
-462.099	-200.000	-0.040	-0.305
-461.084	52.869	0.202	0.195
-460.070	-46.818	0.289	-0.142
-459.055	-200.000	0.061	-0.457
-458.040	75.812	0.090	0.096
-457.026	279.789	0.110	-0.198
-456.011	-200.000	-0.051	-0.468
-454.997	-200.000	0.015	-0.100
-453.982	-79.746	-0.201	-0.068
-452.968	669.643	0.043	-0.112
-451.953	17.817	0.201	-0.160
-450.938	128.163	0.070	-0.090
-449.924	-200.000	-0.013	0.184
-448.909	535.234	0.026	-0.062
-447.895	-200.000	0.054	0.393
-446.880	380.948	0.173	0.357
-445.865	271.019	-0.237	0.419
-444.851	-1.287	-0.207	-0.147
-443.836	800.000	0.056	-0.170
-442.822	800.000	-0.045	-0.159
-441.807	41.122	0.188	-0.171
-440.792	633.020	0.092	0.233
-439.778	-34.247	0.138	-0.076
-438.763	84.768	-0.190	-0.209
-437.749	611.392	0.150	-0.376
-436.734	-200.000	0.037	-0.240
-435.719	214.034	-0.170	0.270
-434.705	800.000	-0.072	0.210
-433.690	-151.898	0.388	-0.028
-432.676	-200.000	0.042	-0.230
-431.661	-200.000	0.023	-0.218
-430.646	-200.000	0.279	0.001
-429.632	-200.000	-0.018	-0.082
-428.617	139.840	0.085	-0.112
-427.603	-39.152	-0.223	0.118
-426.588	21.351	-0.306	0.250
-425.573	77.894	-0.180	0.193
-424.559	-99.097	-0.300	0.076
-423.544	68.514	-0.201	-0.206
-422.530	-32.905	0.173	-0.096
-421.515	-58.295	-0.124	0.054
-420.500	-108.086	-0.253	0.055
-419.486	800.000	0.064	0.233
-418.471	-68.503	0.033	0.013
-417.457	48.471	-0.111	0.104
-416.442	-73.621	-0.181	0.066
-415.428	-133.230	-0.227	0.029
-414.413	270.532	-0.054	-0.096
-413.398	694.301	-0.115	-0.302
-412.384	105.513	0.174	-0.207
-411.369	-200.000	-0.010	-0.146
-410.355	-10.186	0.210	-0.140
-409.340	-200.000	-0.021	-0.218
-408.325	112.350	0.152	0.185
-407.311	-4.471	-0.210	-0.146
-406.296	-200.000	0.061	0.352
-405.282	139.041	0.160	-0.211
-404.267	73.550	0.092	-0.096
-403.252	262.137	0.155	0.270
-402.238	-147.328	0.128	0.011
-401.223	253.870	-0.085	0.146
-400.209	-28.528	0.305	-0.176
-399.194	-200.000	-0.083	-0.427
-398.179	800.000	-0.093	0.273
-397.165	-155.151	0.283	-0.019
-396.150	-80.473	0.107	-0.036
-395.136	-119.780	-0.378	-0.065
-394.121	-99.003	0.143	0.036
-393.106	-51.086	-0.242	-0.114
-392.092	267.461	-0.060	-0.106
-391.077	-26.677	-0.089	0.052
-390.063	-200.000	0.011	-0.176
-389.048	160.260	-0.254	-0.355
-388.033	-141.464	0.268	-0.027
-387.019	783.479	0.068	0.187
-386.004	-129.588	-0.254	0.035
-384.990	267.488	-0.040	0.070
-383.975	72.927	0.172	-0.180
-382.960	254.238	-0.077	0.132
-381.946	93.546	-0.201	0.228
-380.931	237.509	0.150	-0.248
-379.917	-98.425	-0.028	-0.007
-378.902	-162.000	-0.083	-0.004
-377.888	-143.234	0.250	-0.024
-376.873	47.221	0.315	0.293
-375.858	413.586	-0.080	0.170
-374.844	-200.000	-0.001	-0.120
-373.829	42.796	0.129	0.118
-372.815	109.567	0.141	0.169
-371.800	224.915	0.136	0.220
-370.785	-200.000	0.039	0.393
-369.771	-122.536	0.212	-0.034
-368.756	163.468	0.165	0.232
-367.742	-62.247	-0.191	0.080
-366.727	-78.971	0.137	-0.047
-365.712	55.562	-0.097	0.094
-364.698	800.000	0.039	-0.110
-363.683	281.634	0.041	-0.073
-362.669	375.976	0.049	-0.101
-361.654	-83.743	-0.133	-0.043
-360.639	656.242	-0.075	0.194
-359.625	8.159	0.249	-0.187
-358.610	379.813	-0.072	0.148
-357.596	800.000	-0.090	-0.259
-356.581	800.000	-0.089	-0.264
-355.566	107.003	-0.253	-0.301
-354.552	528.250	-0.118	-0.279
-353.537	621.793	-0.016	-0.039
-352.523	-61.349	-0.326	0.137
-351.508	-7.550	-0.137	0.093
-350.493	248.170	0.016	-0.027
-349.479	-200.000	-0.037	0.402
-348.464	-88.939	-0.280	-0.083
-347.450	-200.000	-0.047	0.216
-346.435	800.000	0.037	0.123
-345.420	10.423	0.091	0.069
-344.406	-167.217	0.173	-0.007
-343.391	-129.827	0.375	0.051
-342.377	160.913	0.086	0.120
-341.362	800.000	0.050	0.194
-340.348	800.000	0.043	-0.145
-339.333	800.000	0.025	-0.109
-338.318	-200.000	-0.033	0.220
-337.304	-200.000	-0.005	0.140
-336.289	459.081	0.104	0.231
-335.275	-200.000	-0.005	0.051
-334.260	85.066	-0.325	0.357
-333.245	-195.555	0.356	-0.003
-332.231	-200.000	-0.071	0.488
-331.216	81.048	0.089	0.097
-330.202	-94.044	-0.119	0.033
-329.187	-94.687	0.259	0.070
-328.172	-120.715	0.196	0.033
-327.158	-24.873	-0.145	0.086
-326.143	314.249	-0.099	0.187
-325.129	-200.000	-0.016	0.255
-324.114	-90.148	-0.452	0.131
-323.099	170.432	0.159	0.227
-322.085	505.595	-0.127	-0.295
-321.070	-200.000	0.029	-0.333
-320.056	50.574	0.106	-0.100
-319.041	-60.699	0.114	-0.048
-318.026	-3.083	-0.072	-0.050
-317.012	284.722	0.117	0.211
-315.997	-13.029	-0.095	0.062
-314.983	-200.000	-0.013	0.090
-313.968	92.144	-0.016	-0.018
-312.953	293.579	-0.069	0.127
-311.939	-149.261	0.181	-0.014
-310.924	28.673	0.215	-0.182
-309.910	494.904	0.061	0.141
-308.895	22.310	0.106	0.086
-307.880	153.766	-0.142	-0.195
-306.866	271.818	0.118	-0.208
-305.851	330.736	-0.096	-0.184
-304.837	82.913	0.088	0.095
-303.822	767.842	-0.136	0.370
-302.807	88.982	-0.076	-0.084
-301.793	468.485	0.144	0.322
-300.778	-8.158	-0.139	-0.093
-299.764	28.549	-0.119	0.101
-298.749	489.195	0.140	0.321
-297.735	-200.000	0.000	0.124
-296.720	29.466	-0.086	-0.073
-295.705	-200.000	-0.070	-0.441
-294.691	-146.097	-0.203	0.018
-293.676	115.676	-0.171	-0.209
-292.662	400.328	0.121	-0.253
-291.647	3.444	-0.094	-0.068
-290.632	-200.000	-0.042	0.261
-289.618	-200.000	0.014	0.326
-288.603	-54.736	-0.094	-0.042
-287.589	-99.777	0.242	-0.060
-286.574	11.396	0.010	0.008
-285.559	-132.198	0.292	-0.038
-284.545	217.967	-0.096	0.153
-283.530	-200.000	-0.041	0.192
-282.516	330.281	0.129	-0.248
-281.501	76.664	0.244	-0.258
-280.486	197.388	0.168	0.255
-279.472	94.843	0.092	0.104
-278.457	-25.707	-0.339	0.199
-277.443	-9.679	0.229	0.152
-276.428	-200.000	0.019	-0.129
-275.413	358.216	-0.033	-0.067
-274.399	-65.549	-0.069	-0.028
-273.384	-70.288	0.246	0.093
-272.370	-19.254	-0.069	0.043
-271.355	-99.036	-0.032	0.008
-270.340	-200.000	0.002	0.129
-269.326	175.126	0.206	0.297
-268.311	31.385	-0.097	0.083
-267.297	-164.989	0.076	0.003
-266.282	-200.000	-0.020	-0.289
-265.267	-45.520	0.281	-0.139
-264.253	-47.160	0.664	-0.323
-263.238	-135.038	0.159	-0.019
-262.224	172.186	-0.140	-0.201
-261.209	-37.887	0.387	-0.205
-260.195	-200.000	-0.004	-0.127
-259.180	-168.953	0.206	0.008
-258.165	77.440	0.114	0.121
-257.151	-48.342	-0.267	0.128
-256.136	800.000	0.063	0.265
-255.122	-87.539	-0.078	0.024
-254.107	73.310	-0.183	0.191
-253.092	-200.000	0.039	0.348
-252.078	-77.662	0.126	0.043
-251.063	-90.299	0.028	-0.008
-250.049	21.973	-0.081	-0.066
-249.034	-99.786	0.188	-0.047
-248.019	174.151	0.110	0.158
-247.005	48.783	0.339	0.317
-245.990	-161.910	-0.230	0.012
-244.976	-200.000	-0.015	-0.181
-243.961	-87.772	0.213	0.064
-242.946	-59.110	0.229	0.099
-241.932	-149.606	-0.133	-0.010
-240.917	-200.000	-0.002	-0.148
-239.903	-104.550	0.273	0.063
-238.888	-200.000	-0.058	0.295
-237.873	-46.759	0.074	-0.036
-236.859	-73.787	0.170	-0.062
-235.844	-200.000	0.008	-0.148
-234.830	-17.363	-0.161	-0.101
-233.815	-95.545	-0.186	0.050
-232.800	119.944	-0.122	0.151
-231.786	-200.000	-0.026	0.359
-230.771	-117.700	0.051	0.009
-229.757	411.215	0.178	0.377
-228.742	13.756	-0.284	-0.220
-227.727	-52.955	0.347	-0.159
-226.713	82.525	0.069	0.075
-225.698	-137.533	-0.230	-0.026
-224.684	71.701	-0.214	-0.221
-223.669	58.397	0.058	0.057
-222.655	52.380	-0.349	-0.332
-221.640	27.596	-0.084	0.070
-220.625	-124.366	0.098	-0.015
-219.611	-66.436	0.257	0.102
-218.596	-200.000	-0.016	0.304
-217.582	-90.209	-0.265	-0.077
-216.567	-74.353	-0.300	-0.108
-215.552	800.000	0.071	0.254
-214.538	20.274	-0.089	0.072
-213.523	14.446	0.369	-0.287
-212.509	-200.000	0.010	-0.317
-211.494	55.829	0.169	-0.163
-210.479	-200.000	-0.022	0.176
-209.465	38.383	-0.193	-0.171
-208.450	-133.500	-0.305	-0.038
-207.436	113.549	-0.033	0.040
-206.421	240.101	0.242	-0.402
-205.406	157.046	0.102	0.140
-204.392	-0.483	-0.064	0.045
-203.377	4.953	0.175	-0.128
-202.363	329.419	-0.084	0.160
-201.348	-200.000	-0.006	-0.168
-200.333	137.022	0.171	0.223
-199.319	-171.598	-0.102	-0.003
-198.304	-200.000	-0.008	0.144
-197.290	-22.946	0.199	0.120
-196.275	-121.848	0.105	-0.017
-195.260	800.000	0.064	0.199
-194.246	-78.334	-0.153	-0.052
-193.231	210.112	0.088	0.138
-192.217	-161.518	0.221	-0.011
-191.202	159.342	0.062	-0.086
-190.187	114.835	0.261	0.316
-189.173	217.247	0.013	0.021
-188.158	-200.000	-0.018	-0.307
-187.144	-200.000	0.026	-0.367
-186.129	-80.819	0.220	0.072
-185.114	-136.232	-0.147	0.017
-184.100	85.780	0.142	-0.155
-183.085	-200.000	-0.034	-0.225
-182.071	543.362	-0.083	0.197
-181.056	-48.886	-0.456	0.218
-180.042	-58.068	0.238	0.103
-179.027	-200.000	0.001	-0.199
-178.012	169.793	-0.249	-0.353
-176.998	94.558	0.200	0.226
-175.983	-107.185	0.267	0.059
-174.969	-200.000	-0.039	0.184
-173.954	-200.000	0.015	-0.200
-172.939	154.858	-0.100	0.136
-171.925	7.665	-0.027	0.020
-170.910	-7.107	0.151	0.102
-169.896	145.740	0.047	-0.063
-168.881	95.043	-0.222	0.251
-167.866	102.810	-0.115	-0.133
-166.852	-31.158	-0.100	0.056
-165.837	-140.372	0.066	-0.007
-164.823	359.964	0.117	0.233
-163.808	476.567	-0.042	0.095
-162.793	800.000	0.031	0.112
-161.779	103.126	0.247	-0.287
-160.764	115.809	0.136	-0.166
-159.750	-26.792	-0.274	-0.159
-158.735	-44.241	0.391	0.195
-157.720	649.388	0.038	-0.097
-156.706	-200.000	0.027	-0.432
-155.691	-200.000	-0.002	0.193
-154.677	3.413	0.243	0.176
-153.662	-159.352	0.330	0.018
-152.647	486.352	0.024	0.054
-151.633	42.060	-0.527	-0.475
-150.618	-200.000	0.047	0.222
-149.604	-200.000	-0.020	-0.232
-148.589	-79.686	-0.321	-0.107
-147.574	-80.423	-0.084	0.028
-146.560	-200.000	-0.027	0.218
-145.545	687.486	-0.113	0.294
-144.531	-54.323	-0.032	-0.014
-143.516	70.547	0.084	-0.087
-142.502	309.085	-0.040	0.075
-141.487	246.088	-0.068	0.114
-140.472	-85.097	-0.041	-0.013
-139.458	194.401	-0.260	0.391
-138.443	380.173	-0.119	-0.243
-137.429	-110.543	0.283	0.058
-136.414	301.086	0.122	0.223
-135.399	100.610	0.163	-0.188
-134.385	40.859	0.177	-0.158
-133.370	94.369	-0.130	-0.146
-132.356	452.922	-0.045	-0.100
-131.341	330.805	-0.042	-0.079
-130.326	358.259	-0.227	-0.450
-129.312	-66.016	0.316	-0.125
-128.297	800.000	-0.065	-0.251
-127.283	41.864	0.256	-0.231
-126.268	800.000	0.032	0.133
-125.253	477.982	-0.079	-0.177
-124.239	-25.950	-0.100	-0.058
-123.224	-66.125	-0.255	-0.101
-122.210	379.952	-0.080	-0.163
-121.195	171.035	0.042	-0.059
-120.180	79.904	-0.240	-0.256
-119.166	154.067	0.106	-0.145
-118.151	-200.000	-0.009	0.136
-117.137	-131.523	0.146	-0.019
-116.122	19.588	0.206	0.164
-115.107	-27.092	0.109	-0.063
-114.093	-200.000	0.012	0.228
-113.078	69.690	0.063	-0.064
-112.064	-10.011	-0.583	0.384
-111.049	-200.000	-0.068	-0.303
-110.034	-77.261	0.298	0.103
-109.020	563.503	-0.037	-0.088
-108.005	-138.794	0.127	-0.014
-106.991	-42.248	0.155	-0.078
-105.976	259.787	-0.095	0.162
-104.962	800.000	-0.029	0.103
-103.947	385.081	-0.136	-0.278
-102.932	40.655	0.239	0.213
-101.918	-200.000	-0.034	0.227
-100.903	67.618	0.217	0.220
-99.889	53.244	0.339	0.322
-98.874	133.212	0.106	-0.136
-97.859	238.204	-0.100	0.165
-96.845	248.667	0.160	-0.268
-95.830	-200.000	-0.009	-0.340
-94.816	-88.009	-0.251	-0.075
-93.801	382.943	0.105	-0.214
-92.786	0.967	0.062	0.044
-91.772	481.093	-0.097	0.217
-90.757	800.000	-0.048	0.177
-89.743	-60.992	0.332	0.139
-88.728	632.881	-0.205	-0.514
-87.713	261.437	-0.152	0.260
-86.699	-200.000	0.053	0.399
-85.684	-116.334	0.388	0.071
-84.670	-200.000	0.041	-0.362
-83.655	-128.299	0.264	0.037
-82.640	10.475	-0.196	0.147
-81.626	800.000	0.083	-0.231
-80.611	800.000	-0.188	0.616
-79.597	17.858	0.215	0.170
-78.582	-142.543	0.362	-0.035
-77.567	800.000	0.074	0.238
-76.553	116.637	-0.122	0.149
-75.538	-34.733	0.175	0.095
-74.524	-72.798	0.079	-0.029
-73.509	101.292	0.113	0.130
-72.494	-18.079	-0.107	-0.066
-71.480	0.998	0.026	-0.018
-70.465	335.410	-0.144	-0.276
-69.451	800.000	0.037	-0.113
-68.436	-200.000	0.047	-0.333
-67.422	-200.000	0.001	-0.036
-66.407	191.247	0.059	0.087
-65.392	-102.662	-0.209	0.049
-64.378	-95.944	0.356	0.094
-63.363	-200.000	-0.046	0.288
-62.349	-21.192	0.240	-0.145
-61.334	170.533	-0.681	-0.964
-60.319	230.154	0.432	0.699
-59.305	-200.000	0.224	-1.035
-58.290	243.667	0.507	0.841
-57.276	231.554	0.758	1.229
-56.261	-200.000	95.966	572.719
-55.246	542.205	1380.382	3255.187
-54.232	156.550	2564.882	3502.757
-53.217	101.869	2301.651	2656.066
-52.203	39.550	2059.124	1825.329
-51.188	34.882	1973.505	1707.793
-50.173	33.316	1955.549	1678.308
-49.159	47.664	2004.661	1849.597
-48.144	49.138	2023.319	1879.994
-47.130	35.448	1984.245	1721.896
-46.115	33.128	1973.622	1691.875
-45.100	33.065	1970.515	1688.575
-44.086	32.980	1968.477	1686.008
-43.071	32.918	1966.304	1683.526
-42.057	32.867	1963.596	1680.689
-41.042	32.968	1961.936	1680.098
-40.027	32.966	1959.931	1678.293
-39.013	33.008	1958.114	1677.050
-37.998	33.057	1956.027	1675.629
-36.984	33.006	1954.583	1673.869
-35.969	33.111	1952.710	1673.134
-34.954	33.082	1950.893	1671.251
-33.940	33.103	1949.494	1670.173
-32.925	33.175	1947.915	1669.390
-31.911	33.182	1946.197	1667.910
-30.896	33.245	1944.131	1666.628
-29.881	33.078	1943.372	1664.445
-28.867	33.167	1941.400	1663.465
-27.852	33.172	1939.636	1661.937
-26.838	33.142	1938.230	1660.399
-25.823	33.164	1935.728	1658.382
-24.809	33.191	1934.132	1657.193
-23.794	33.123	1933.285	1655.804
-22.779	33.124	1930.859	1653.669
-21.765	33.101	1929.500	1652.237
-20.750	33.192	1927.285	1651.071
-19.736	33.070	1926.605	1649.354
-18.721	33.200	1924.473	1648.598
-17.706	33.146	1922.979	1646.785
-16.692	33.154	1921.240	1645.297
-15.677	33.064	1920.417	1643.743
-14.663	33.107	1918.177	1642.139
-13.648	33.142	1916.918	1641.296
-12.633	33.174	1915.982	1640.710
-11.619	33.118	1915.477	1639.726
-10.604	33.167	1913.256	1638.187
-9.590	33.149	1911.883	1636.785
-8.575	33.079	1911.083	1635.429
-7.560	33.131	1909.438	1634.412
-6.546	33.207	1908.331	1634.052
-5.531	33.169	1906.877	1632.412
-4.517	33.185	1905.670	1631.451
-3.502	33.144	1904.550	1630.079
-2.487	33.142	1903.695	1629.265
-1.473	33.181	1902.477	1628.488
-0.458	33.206	1897.546	1624.424
0.556	33.346	1877.829	1596.802
1.571	29.361	1859.343	1547.583
2.586	25.877	1882.592	1537.129
3.600	25.126	1918.868	1560.080
4.615	24.653	1914.161	1552.009
5.629	18.858	1811.905	1421.191
6.644	8.066	1691.051	1242.544
7.659	2.564	1652.108	1171.826
8.673	2.282	1648.306	1166.872
9.688	2.123	1647.172	1164.757
10.702	2.024	1645.566	1162.760
11.717	1.892	1642.344	1159.384
12.731	2.287	1641.765	1161.867
13.746	9.349	1659.079	1228.099
14.761	20.132	1682.656	1328.534
15.775	25.482	1692.428	1377.248
16.790	26.502	1692.718	1385.177
17.804	26.649	1692.522	1386.017
18.819	26.608	1692.366	1385.452
19.834	26.752	1691.730	1385.909
20.848	26.945	1690.904	1386.587
21.863	26.939	1690.264	1385.895
22.877	26.974	1688.992	1384.994
23.892	26.977	1688.233	1384.270
24.907	27.061	1686.949	1383.739
25.921	26.970	1686.534	1382.584
26.936	27.006	1685.405	1381.805
27.950	26.993	1684.343	1380.714
28.965	27.065	1683.649	1380.571
29.980	26.979	1682.943	1379.213
30.994	27.078	1681.367	1378.558
32.009	27.008	1680.505	1377.198
33.023	26.987	1679.278	1375.909
34.038	27.115	1678.193	1375.865
35.053	27.023	1677.393	1374.394
36.067	27.055	1676.419	1373.719
37.082	26.976	1675.795	1372.487
38.096	26.958	1674.835	1371.439
39.111	26.997	1673.888	1370.841
40.126	27.061	1672.854	1370.352
41.140	26.974	1672.352	1369.167
42.155	27.012	1671.380	1368.537
43.169	26.886	1670.420	1366.682
44.184	27.047	1668.783	1366.430
45.199	27.036	1668.104	1365.673
46.213	27.029	1666.672	1364.322
47.228	27.041	1665.940	1363.693
48.242	27.096	1663.947	1362.357
49.257	27.037	1663.534	1361.452
50.271	27.054	1662.217	1360.381
51.286	26.946	1661.158	1358.587
52.301	26.962	1660.327	1357.907
53.315	26.981	1658.481	1356.416
54.330	26.926	1657.478	1355.072
55.344	27.058	1655.275	1354.132
56.359	27.002	1654.114	1352.647
57.374	26.955	1653.833	1351.948
58.388	26.994	1651.850	1350.494
59.403	27.067	1650.912	1350.150
60.417	27.074	1649.933	1349.283
61.432	26.998	1649.178	1347.983
62.447	26.967	1648.348	1346.953
63.461	27.060	1646.425	1345.951
64.476	26.992	1646.308	1345.234
65.490	27.000	1645.256	1344.312
66.505	27.099	1643.289	1343.319
67.520	27.017	1643.332	1342.628
68.534	27.045	1642.108	1341.717
69.549	26.984	1641.646	1340.771
70.563	27.092	1639.732	1339.887
71.578	27.054	1638.945	1338.844
72.593	27.039	1638.134	1337.958
73.607	27.081	1637.228	1337.407
74.622	27.092	1636.213	1336.537
75.636	27.071	1635.175	1335.415
76.651	27.107	1634.486	1334.999
77.666	27.027	1633.917	1333.833
78.680	27.069	1632.750	1333.067
79.695	27.029	1632.073	1332.105
80.709	27.101	1630.940	1331.591
81.724	27.017	1630.394	1330.411
82.739	26.992	1629.335	1329.243
83.753	27.030	1628.556	1328.769
84.768	27.023	1627.180	1327.479
85.782	26.961	1626.766	1326.573
86.797	27.042	1625.792	1326.251
87.812	27.065	1624.524	1325.266
88.826	26.942	1624.046	1323.860
89.841	27.057	1622.714	1323.499
90.855	27.069	1622.418	1323.225
91.870	27.098	1621.008	1322.170
92.884	27.052	1620.127	1321.002
93.899	27.040	1619.220	1320.058
94.914	27.105	1617.499	1319.009
95.928	27.049	1616.638	1317.785
96.943	27.011	1615.581	1316.532
97.957	27.118	1613.819	1315.752
98.972	27.116	1612.517	1314.558
99.987	27.080	1611.680	1313.498
101.001	27.042	1610.608	1312.232
102.016	27.050	1608.790	1310.694
103.030	27.040	1607.053	1309.096
104.045	27.019	1606.525	1308.395
105.060	26.953	1605.175	1306.707
106.074	27.103	1603.377	1306.205
107.089	27.163	1602.207	1305.569
108.103	27.081	1601.368	1304.180
109.118	27.114	1600.437	1303.542
110.133	27.178	1598.750	1302.515
111.147	27.123	1597.985	1301.380
112.162	27.170	1596.567	1300.447
113.176	27.201	1595.465	1299.655
114.191	27.090	1594.614	1298.051
115.206	27.131	1593.607	1297.414
116.220	27.133	1592.450	1296.370
117.235	27.094	1591.117	1294.889
118.249	27.163	1589.852	1294.239
119.264	27.071	1589.170	1292.913
120.279	27.031	1587.999	1291.559
121.293	27.076	1586.556	1290.594
122.308	27.188	1585.207	1290.179
123.322	27.153	1584.273	1289.055
124.337	27.198	1582.665	1287.951
125.352	27.222	1581.704	1287.225
126.366	27.210	1581.008	1286.460
127.381	27.254	1579.730	1285.616
128.395	27.285	1579.049	1285.170
129.410	27.176	1577.808	1283.272
130.424	27.162	1576.714	1282.177
131.439	27.236	1575.479	1281.579
132.454	27.201	1574.363	1280.308
133.468	27.154	1573.139	1278.872
134.483	27.136	1571.831	1277.569
135.497	27.209	1570.792	1277.125
136.512	27.200	1569.634	1276.005
137.527	27.177	1568.054	1274.445
138.541	27.191	1567.180	1273.719
139.556	27.260	1565.755	1272.931
140.570	27.312	1564.447	1272.124
141.585	27.114	1563.912	1270.192
142.600	27.158	1563.014	1269.656
143.614	27.233	1561.275	1268.653
144.629	27.257	1560.407	1268.000
145.643	27.179	1559.193	1266.362
146.658	27.180	1558.050	1265.330
147.673	27.121	1556.889	1263.862
148.687	27.134	1556.140	1263.236
149.702	27.296	1554.403	1262.838
150.716	27.229	1553.045	1261.154
151.731	27.162	1552.260	1259.940
152.746	27.172	1551.268	1259.096
153.760	27.268	1549.641	1258.326
154.775	27.281	1549.277	1258.011
155.789	27.265	1548.298	1256.996
156.804	27.231	1547.458	1255.968
157.819	27.184	1545.801	1254.189
158.833	27.252	1544.828	1253.754
159.848	27.188	1544.350	1252.817
160.862	27.333	1543.018	1252.620
161.877	27.235	1542.130	1251.116
162.892	27.231	1541.384	1250.374
163.906	27.335	1540.582	1250.323
164.921	27.210	1539.505	1248.484
165.935	27.402	1538.561	1248.924
166.950	27.283	1537.968	1247.515
167.964	27.383	1536.527	1246.921
168.979	27.330	1535.678	1245.758
169.994	27.370	1535.056	1245.419
171.008	27.298	1534.540	1244.394
172.023	27.281	1533.114	1243.014
173.037	27.325	1532.148	1242.420
174.052	27.336	1531.307	1241.705
175.067	27.412	1529.822	1240.911
176.081	27.461	1529.100	1240.545
177.096	27.428	1527.833	1239.185
178.110	27.346	1527.051	1237.880
179.125	27.313	1525.932	1236.645
180.140	27.434	1525.066	1236.650
181.154	27.310	1524.792	1235.477
182.169	27.379	1523.354	1234.671
183.183	27.416	1522.235	1233.909
184.198	27.361	1521.727	1233.012
185.213	27.459	1520.419	1232.505
186.227	27.516	1519.838	1232.313
187.242	27.487	1518.900	1231.249
188.256	27.525	1517.935	1230.612
189.271	27.471	1517.067	1229.436
190.286	27.499	1516.167	1228.788
191.300	27.456	1515.761	1228.062
192.315	27.458	1514.768	1227.160
193.329	27.432	1513.952	1226.215
194.344	27.470	1512.885	1225.496
195.359	27.402	1512.505	1224.625
196.373	27.419	1511.693	1223.973
197.388	27.378	1510.537	1222.654
198.402	27.368	1509.748	1221.837
199.417	27.406	1508.330	1220.840
200.432	27.411	1507.812	1220.342
201.446	27.396	1507.305	1219.724
202.461	27.406	1506.349	1218.912
203.475	27.490	1505.180	1218.422
204.490	27.414	1504.463	1217.222
205.504	27.463	1503.638	1216.773
206.519	27.447	1502.383	1215.542
207.534	27.524	1501.727	1215.421
208.548	27.564	1500.871	1214.885
209.563	27.497	1500.353	1213.913
210.577	27.482	1499.610	1213.102
211.592	27.500	1498.427	1212.163
212.607	27.519	1497.931	1211.778
213.621	27.514	1497.401	1211.209
214.636	27.680	1495.961	1211.037
215.650	27.671	1495.240	1210.286
216.665	27.642	1494.580	1209.454
217.680	27.576	1493.785	1208.264
218.694	27.593	1493.276	1207.862
219.709	27.597	1492.173	1206.887
220.723	27.657	1491.137	1206.340
221.738	27.618	1490.675	1205.599
222.753	27.541	1489.892	1204.356
223.767	27.480	1489.069	1203.180
224.782	27.512	1488.213	1202.590
225.796	27.542	1487.755	1202.313
226.811	27.646	1486.739	1202.068
227.826	27.647	1486.173	1201.516
228.840	27.756	1485.298	1201.419
229.855	27.745	1484.158	1200.318
230.869	27.650	1483.945	1199.415
231.884	27.684	1482.678	1198.507
232.899	27.632	1481.473	1197.089
233.913	27.578	1480.477	1195.823
234.928	27.533	1479.606	1194.716
235.942	27.665	1478.486	1194.572
236.957	27.806	1477.609	1194.678
237.972	27.682	1476.670	1193.005
238.986	27.697	1475.426	1191.988
240.001	27.729	1474.584	1191.417
241.015	27.691	1474.050	1190.626
242.030	27.835	1472.811	1190.463
243.045	27.757	1471.996	1189.193
244.059	27.841	1470.803	1188.666
245.074	27.851	1469.876	1187.876
246.088	27.876	1469.170	1187.367
247.103	27.802	1468.852	1186.520
248.117	27.775	1468.072	1185.611
249.132	27.888	1467.406	1185.701
250.147	27.851	1466.153	1184.344
251.161	27.927	1465.858	1184.492
252.176	27.876	1465.454	1183.731
253.190	28.058	1463.980	1183.613
254.205	27.897	1463.769	1182.300
255.220	27.898	1463.031	1181.602
256.234	27.979	1461.945	1181.147
257.249	27.917	1461.323	1180.139
258.263	27.948	1460.326	1179.426
259.278	28.086	1459.201	1179.305
260.293	27.922	1458.973	1177.962
261.307	27.894	1458.254	1177.095
262.322	27.999	1457.338	1176.925
263.336	27.972	1456.871	1176.271
264.351	28.008	1455.243	1175.083
265.366	27.980	1454.717	1174.376
266.380	27.949	1453.857	1173.376
267.395	27.942	1452.826	1172.400
268.409	27.942	1452.308	1171.876
269.424	28.065	1451.092	1171.579
270.439	28.065	1450.249	1170.799
271.453	28.084	1449.437	1170.159
272.468	28.075	1448.830	1169.506
273.482	28.078	1448.184	1168.899
274.497	28.068	1447.340	1168.051
275.512	28.024	1446.479	1166.974
276.526	28.114	1446.161	1167.187
277.541	28.145	1445.273	1166.569
278.555	28.196	1444.156	1165.886
279.570	28.124	1443.620	1164.895
280.585	28.107	1442.756	1163.982
281.599	28.149	1441.571	1163.191
282.614	28.005	1441.430	1162.062
283.628	28.151	1440.164	1161.861
284.643	28.010	1439.897	1160.651
285.657	28.162	1438.218	1160.157
286.672	28.119	1437.614	1159.292
287.687	28.130	1436.171	1158.100
288.701	28.067	1435.705	1157.222
289.716	28.179	1434.998	1157.259
290.730	28.124	1434.692	1156.558
291.745	28.215	1433.315	1155.925
292.760	28.203	1432.507	1155.094
293.774	28.235	1431.743	1154.580
294.789	28.349	1430.754	1154.399
295.803	28.286	1430.198	1153.451
296.818	28.265	1429.401	1152.572
297.833	28.226	1428.504	1151.502
298.847	28.206	1427.975	1150.848
299.862	28.283	1426.664	1150.169
300.876	28.193	1426.731	1149.555
301.891	28.334	1425.227	1149.129
302.906	28.228	1425.024	1148.197
303.920	28.292	1424.319	1147.929
304.935	28.386	1423.235	1147.546
305.949	28.514	1421.997	1147.245
306.964	28.431	1421.345	1146.099
307.979	28.294	1420.758	1144.668
308.993	28.467	1419.369	1144.530
310.008	28.450	1419.081	1144.087
311.022	28.498	1418.129	1143.522
312.037	28.403	1417.109	1142.001
313.052	28.372	1416.328	1141.078
314.066	28.388	1415.771	1140.628
315.081	28.436	1414.441	1139.754
316.095	28.403	1413.774	1138.910
317.110	28.408	1412.740	1138.008
318.125	28.526	1411.859	1137.930
319.139	28.459	1410.977	1136.701
320.154	28.459	1410.280	1136.039
321.168	28.540	1409.285	1135.641
322.183	28.421	1408.825	1134.433
323.197	28.428	1407.855	1133.598
324.212	28.535	1406.847	1133.347
325.227	28.520	1405.865	1132.359
326.241	28.541	1405.218	1131.872
327.256	28.571	1404.693	1131.532
328.270	28.529	1404.120	1130.710
329.285	28.467	1403.560	1129.775
330.300	28.593	1402.074	1129.257
331.314	28.575	1401.379	1128.485
332.329	28.620	1400.613	1128.045
333.343	28.601	1400.002	1127.339
334.358	28.668	1399.106	1126.926
335.373	28.700	1398.616	1126.627
336.387	28.708	1397.495	1125.675
337.402	28.583	1397.637	1124.926
338.416	28.696	1397.096	1125.080
339.431	28.647	1396.228	1123.984
340.446	28.647	1395.631	1123.406
341.460	28.798	1394.162	1123.046
342.475	28.713	1393.612	1121.985
343.489	28.785	1392.676	1121.571
344.504	28.752	1392.024	1120.741
345.519	28.825	1390.540	1119.894
346.533	28.811	1389.588	1118.941
347.548	28.730	1389.523	1118.297
348.562	28.803	1388.259	1117.630
349.577	28.874	1387.366	1117.243
350.592	28.796	1387.027	1116.396
351.606	28.735	1386.228	1115.281
352.621	28.779	1385.443	1114.819
353.635	28.874	1383.885	1114.041
354.650	28.835	1383.580	1113.463
355.665	28.872	1382.679	1112.862
356.679	28.852	1381.787	1111.923
357.694	28.949	1380.185	1111.126
358.708	29.029	1379.147	1110.672
359.723	28.945	1378.123	1109.246
360.738	28.970	1377.199	1108.553
361.752	28.864	1376.506	1107.258
362.767	28.879	1375.305	1106.283
363.781	28.947	1374.569	1106.001
364.796	29.014	1374.254	1106.052
365.810	28.967	1373.199	1104.828
366.825	28.955	1372.490	1104.086
367.840	28.992	1371.821	1103.669
368.854	28.919	1371.369	1102.774
369.869	29.102	1370.390	1102.982
370.883	29.043	1369.977	1102.201
371.898	29.128	1368.850	1101.704
372.913	29.141	1368.698	1101.562
373.927	29.088	1367.976	1100.568
374.942	29.036	1367.052	1099.414
375.956	29.111	1366.294	1099.156
376.971	29.172	1365.496	1098.780
377.986	29.130	1364.495	1097.631
379.000	29.158	1363.678	1097.040
380.015	29.109	1363.033	1096.130
381.029	29.238	1362.233	1096.158
382.044	29.186	1361.897	1095.484
383.059	29.165	1361.387	1094.850
384.073	29.244	1360.340	1094.382
385.088	29.257	1359.952	1094.051
386.102	29.206	1359.368	1093.179
387.117	29.279	1358.477	1092.803
388.132	29.180	1357.724	1091.509
389.146	29.182	1357.153	1090.964
390.161	29.311	1356.210	1090.878
391.175	29.308	1355.938	1090.540
392.190	29.346	1355.356	1090.201
393.205	29.304	1354.232	1088.956
394.219	29.290	1353.574	1088.244
395.234	29.374	1352.371	1087.679
396.248	29.401	1351.208	1086.807
397.263	29.416	1350.221	1086.005
398.278	29.396	1349.446	1085.165
399.292	29.433	1348.322	1084.387
400.307	29.373	1347.570	1083.332
401.321	29.371	1347.173	1082.906
402.336	29.468	1345.731	1082.220
403.350	29.324	1344.737	1080.480
404.365	29.416	1343.891	1080.240
405.380	29.411	1343.257	1079.608
406.394	29.519	1342.429	1079.478
407.409	29.462	1341.746	1078.500
408.423	29.553	1340.855	1078.223
409.438	29.561	1340.905	1078.212
410.453	29.551	1339.921	1077.268
411.467	29.579	1339.127	1076.697
412.482	29.626	1338.399	1076.288
413.496	29.564	1337.896	1075.428
414.511	29.654	1337.276	1075.357
415.526	29.560	1336.358	1073.983
416.540	29.671	1335.491	1073.835
417.555	29.594	1334.951	1072.856
418.569	29.642	1334.305	1072.518
419.584	29.622	1334.157	1072.189
420.599	29.624	1333.679	1071.725
421.613	95.310	1351.854	1454.825
422.628	94.832	1354.441	1454.936
