DTS Sentinel unit serial number:	SN413079Multiplexer serial number:	ORYXHardware model number:	OX4-SRSoftware version number:	ORYX F/W v4.00 Oryx Data Collector v3.7.2.0data status	okinstallation	princeton_trtdifferential loss correction	single-endedforward channel	channel 4reverse channel	N/Adate	2019/09/16time	00:45:35forward acquisition time	60.00reverse acquisition time	0.00gamma	496.2192k internal	0.2323k external	0.2323temperature offset calibration	0.9965default loss term (dB/km)	0.3790temperature slope calibration	1.0000multiplexer offset coefficient	1.0000multiplexer slope coefficient	1.0000fibre end	0.00T internal ref (°C)	27.44T ext. ref 1 (°C)	9.65T ext. ref 2 (°C)	21.41length (m)	temperature (°C)	Stokes	anti-Stokes-747.200	-146.266	0.038	-0.003
-746.185	-200.000	0.008	0.237
-745.171	189.255	0.289	0.437
-744.156	-200.000	0.036	0.258
-743.142	-37.634	-0.013	-0.007
-742.127	800.000	-0.039	0.157
-741.112	-200.000	0.008	0.082
-740.098	-143.214	0.107	-0.010
-739.083	-123.425	-0.138	0.022
-738.069	-61.609	-0.210	0.089
-737.054	-200.000	0.052	-0.336
-736.039	-92.565	-0.383	-0.109
-735.025	-94.119	0.210	-0.058
-734.010	-200.000	0.050	0.241
-732.996	-39.617	0.127	0.067
-731.981	273.962	0.250	-0.447
-730.966	397.660	0.201	-0.424
-729.952	176.885	-0.221	-0.325
-728.937	-44.156	-0.216	-0.109
-727.923	269.564	-0.144	0.256
-726.908	138.668	-0.153	-0.202
-725.894	163.587	-0.140	-0.199
-724.879	53.123	-0.158	-0.153
-723.864	-85.786	0.108	-0.034
-722.850	9.325	-0.123	-0.094
-721.835	-200.000	0.013	-0.247
-720.821	369.878	-0.158	-0.322
-719.806	731.897	-0.074	-0.199
-718.791	-143.474	0.302	0.029
-717.777	158.159	0.151	0.211
-716.762	-200.000	0.019	-0.171
-715.748	622.599	0.116	-0.294
-714.733	-200.000	-0.061	0.377
-713.718	-200.000	0.097	0.434
-712.704	-178.784	-0.240	0.006
-711.689	-175.802	0.421	0.011
-710.675	-200.000	0.036	-0.315
-709.660	-83.220	-0.274	-0.089
-708.645	-135.184	-0.168	0.020
-707.631	-40.718	0.297	-0.155
-706.616	-48.331	0.093	-0.045
-705.602	-91.813	-0.129	-0.037
-704.587	-133.649	-0.229	-0.029
-703.572	6.273	0.226	0.169
-702.558	800.000	-0.055	-0.179
-701.543	21.254	0.314	-0.257
-700.529	221.699	0.032	0.051
-699.514	-172.487	0.208	0.007
-698.499	-107.268	-0.440	-0.098
-697.485	-200.000	-0.016	-0.117
-696.470	-79.144	-0.111	0.038
-695.456	-50.776	-0.131	-0.062
-694.441	-200.000	0.051	-0.225
-693.426	141.836	-0.044	0.059
-692.412	572.306	-0.101	0.248
-691.397	800.000	0.068	0.220
-690.383	20.743	-0.120	0.098
-689.368	-200.000	-0.054	-0.532
-688.354	9.817	0.180	0.137
-687.339	575.886	0.123	0.302
-686.324	45.129	-0.109	0.101
-685.310	-84.303	-0.320	-0.102
-684.295	800.000	-0.030	-0.095
-683.281	-109.204	-0.149	0.032
-682.266	800.000	0.068	-0.281
-681.251	-57.214	-0.086	0.038
-680.237	61.198	-0.089	0.089
-679.222	-2.254	0.213	-0.151
-678.208	-107.913	-0.190	0.042
-677.193	-137.412	0.382	0.044
-676.178	-110.891	-0.163	-0.034
-675.164	42.340	0.039	0.035
-674.149	-91.933	-0.087	0.025
-673.135	-200.000	-0.001	-0.106
-672.120	41.718	-0.423	-0.386
-671.105	-52.578	-0.129	0.060
-670.091	288.342	-0.061	-0.112
-669.076	81.819	0.154	-0.168
-668.062	353.696	-0.131	-0.261
-667.047	205.884	0.251	-0.392
-666.032	-200.000	0.030	-0.247
-665.018	800.000	-0.039	-0.123
-664.003	-121.482	-0.126	0.021
-662.989	-200.000	-0.027	-0.313
-661.974	20.715	0.270	-0.220
-660.959	800.000	-0.018	0.071
-659.945	165.100	-0.090	-0.127
-658.930	-200.000	-0.052	0.250
-657.916	35.014	-0.227	-0.200
-656.901	30.566	-0.161	-0.138
-655.886	128.842	0.056	0.071
-654.872	333.899	0.084	-0.164
-653.857	46.746	-0.234	-0.219
-652.843	-55.831	0.248	-0.111
-651.828	-99.532	-0.368	-0.093
-650.814	-119.930	0.047	-0.008
-649.799	-153.679	0.152	-0.010
-648.784	-81.425	0.229	0.076
-647.770	-17.827	-0.219	0.138
-646.755	276.601	0.063	-0.112
-645.741	-41.894	-0.260	-0.134
-644.726	54.042	-0.136	-0.131
-643.711	-153.655	-0.276	0.019
-642.697	-39.296	-0.356	0.188
-641.682	-111.748	-0.308	-0.063
-640.668	11.276	0.082	0.063
-639.653	-200.000	-0.004	-0.070
-638.638	800.000	0.062	-0.198
-637.624	154.731	-0.027	0.037
-636.609	-106.254	-0.203	-0.046
-635.595	94.675	0.138	-0.158
-634.580	440.965	0.039	-0.085
-633.565	206.344	-0.125	0.196
-632.551	44.373	-0.094	0.086
-631.536	800.000	-0.081	-0.329
-630.522	-105.999	0.273	-0.062
-629.507	-155.468	-0.314	-0.020
-628.492	689.382	-0.112	-0.294
-627.478	-191.813	-0.312	-0.003
-626.463	156.201	0.214	-0.297
-625.449	-200.000	-0.033	0.237
-624.434	-30.622	0.167	-0.095
-623.419	-18.407	-0.153	0.096
-622.405	489.302	0.119	-0.274
-621.390	-52.145	-0.049	-0.023
-620.376	-200.000	0.043	-0.208
-619.361	800.000	-0.058	-0.188
-618.346	-200.000	-0.037	-0.420
-617.332	-98.935	-0.315	-0.080
-616.317	312.194	-0.094	-0.177
-615.303	-123.908	0.318	0.050
-614.288	-65.661	0.348	-0.140
-613.273	-44.285	0.263	0.132
-612.259	268.752	0.070	-0.124
-611.244	-75.657	-0.218	-0.078
-610.230	-192.781	-0.376	-0.003
-609.215	154.556	-0.253	-0.349
-608.201	675.182	0.034	-0.090
-607.186	15.573	0.122	0.096
-606.171	-200.000	-0.010	-0.250
-605.157	45.333	0.144	-0.133
-604.142	256.660	0.013	-0.022
-603.128	-82.625	-0.107	0.035
-602.113	171.820	0.099	0.143
-601.098	800.000	-0.048	0.207
-600.084	63.638	0.238	0.240
-599.069	-52.146	0.071	-0.033
-598.055	222.389	-0.055	-0.089
-597.040	-200.000	0.048	0.283
-596.025	-91.525	-0.125	-0.036
-595.011	-111.669	0.422	0.086
-593.996	-200.000	0.047	-0.257
-592.982	3.995	-0.215	0.158
-591.967	-200.000	-0.043	-0.456
-590.952	93.108	-0.044	-0.050
-589.938	63.048	-0.129	0.129
-588.923	8.149	0.283	-0.214
-587.909	78.260	-0.062	-0.067
-586.894	-124.097	0.217	-0.034
-585.879	372.897	0.098	0.200
-584.865	-30.219	-0.055	0.032
-583.850	-79.661	0.179	-0.061
-582.836	-200.000	-0.004	0.222
-581.821	290.512	0.178	0.325
-580.806	-65.039	-0.164	-0.066
-579.792	15.078	0.062	-0.049
-578.777	212.265	-0.076	0.120
-577.763	-200.000	0.013	-0.382
-576.748	800.000	-0.056	0.160
-575.733	-200.000	-0.007	0.143
-574.719	-143.862	-0.193	0.018
-573.704	-55.776	0.257	0.115
-572.690	-60.734	0.033	0.014
-571.675	-200.000	-0.026	-0.165
-570.661	263.081	0.138	0.241
-569.646	-59.922	-0.276	0.118
-568.631	270.973	0.052	0.092
-567.617	17.286	-0.292	-0.232
-566.602	308.357	-0.072	-0.134
-565.588	-91.750	-0.042	0.012
-564.573	355.321	-0.031	-0.062
-563.558	-176.030	-0.393	-0.010
-562.544	-166.066	0.178	0.008
-561.529	-47.191	-0.234	0.114
-560.515	800.000	-0.042	0.123
-559.500	-153.024	-0.383	-0.027
-558.485	800.000	-0.040	0.153
-557.471	80.520	-0.251	-0.271
-556.456	-200.000	0.024	-0.142
-555.442	21.251	-0.047	-0.038
-554.427	-79.362	0.127	-0.043
-553.412	800.000	-0.076	0.239
-552.398	25.867	0.172	0.144
-551.383	15.298	-0.150	-0.118
-550.369	-200.000	-0.043	-0.199
-549.354	-139.569	-0.492	0.053
-548.339	-200.000	0.005	-0.074
-547.325	-200.000	-0.018	0.222
-546.310	70.207	0.127	-0.131
-545.296	-200.000	0.007	-0.110
-544.281	-167.307	-0.216	-0.009
-543.266	-200.000	0.005	0.067
-542.252	29.696	0.105	0.089
-541.237	-13.470	-0.124	0.081
-540.223	-28.343	0.173	-0.100
-539.208	-154.955	-0.285	0.019
-538.193	641.169	0.058	-0.147
-537.179	-200.000	0.021	-0.129
-536.164	-148.481	0.395	0.032
-535.150	-200.000	0.039	0.187
-534.135	800.000	-0.039	0.149
-533.121	89.916	0.310	0.347
-532.106	800.000	-0.123	0.421
-531.091	7.649	0.210	-0.158
-530.077	19.127	-0.317	-0.254
-529.062	26.870	0.118	-0.099
-528.048	-200.000	-0.089	0.392
-527.033	-136.623	0.277	0.032
-526.018	-200.000	-0.013	0.406
-525.004	-144.133	0.180	0.017
-523.989	46.624	0.141	-0.131
-522.975	125.518	0.118	0.149
-521.960	-30.278	0.108	-0.061
-520.945	105.930	0.073	-0.086
-519.931	-35.420	-0.349	0.190
-518.916	-2.907	-0.082	0.057
-517.902	-136.053	0.445	-0.052
-516.887	7.706	-0.322	0.241
-515.872	630.647	0.037	0.094
-514.858	154.375	-0.234	0.322
-513.843	27.216	-0.187	-0.157
-512.829	91.538	0.092	-0.104
-511.814	-200.000	-0.047	0.261
-510.799	-200.000	-0.004	-0.114
-509.785	73.019	0.201	-0.210
-508.770	26.883	0.234	-0.196
-507.756	2.077	-0.232	-0.168
-506.741	-94.260	0.396	0.108
-505.726	-111.294	-0.399	0.081
-504.712	-37.060	-0.007	0.004
-503.697	800.000	-0.014	-0.049
-502.683	-134.056	0.299	0.037
-501.668	204.271	-0.258	-0.399
-500.653	-175.321	-0.325	-0.009
-499.639	41.093	0.174	-0.157
-498.624	90.394	0.184	-0.206
-497.610	-159.371	0.202	0.011
-496.595	544.408	-0.146	0.348
-495.581	206.779	0.048	0.074
-494.566	-65.629	-0.153	0.061
-493.551	586.875	0.118	0.289
-492.537	143.055	-0.153	0.203
-491.522	534.809	0.076	-0.180
-490.508	147.881	-0.169	0.228
-489.493	281.317	-0.164	0.293
-488.478	-147.801	-0.198	0.017
-487.464	64.220	0.065	-0.065
-486.449	-58.460	0.215	0.094
-485.435	-154.242	-0.178	0.012
-484.420	-200.000	-0.014	0.235
-483.405	-110.268	-0.518	-0.108
-482.391	-200.000	0.036	-0.404
-481.376	71.063	0.307	0.318
-480.362	97.644	0.202	0.232
-479.347	334.099	-0.076	0.146
-478.332	-70.959	-0.198	-0.074
-477.318	800.000	0.069	0.194
-476.303	-104.821	-0.233	-0.054
-475.289	-27.465	-0.109	-0.063
-474.274	-200.000	-0.157	-0.000
-473.259	-38.329	0.152	-0.080
-472.245	-97.887	0.359	-0.093
-471.230	103.113	-0.098	-0.115
-470.216	106.618	-0.272	-0.322
-469.201	654.248	0.074	-0.190
-468.186	-122.470	0.301	0.049
-467.172	800.000	-0.076	-0.291
-466.157	313.460	0.116	0.219
-465.143	5.052	-0.020	0.015
-464.128	603.648	0.073	-0.182
-463.113	605.717	0.036	0.090
-462.099	-57.276	0.519	0.228
-461.084	372.480	0.148	-0.299
-460.070	484.810	0.111	0.253
-459.055	396.762	0.030	0.062
-458.040	-57.126	0.136	0.060
-457.026	249.377	-0.172	0.291
-456.011	800.000	0.082	-0.235
-454.997	-123.123	-0.301	0.048
-453.982	45.325	0.123	-0.113
-452.968	-200.000	0.022	0.240
-451.953	-200.000	-0.042	0.193
-450.938	-92.882	0.249	0.069
-449.924	-151.181	-0.155	-0.012
-448.909	304.635	-0.082	0.152
-447.895	-115.072	0.341	-0.065
-446.880	-68.268	0.159	0.062
-445.865	-39.945	0.146	-0.076
-444.851	-200.000	-0.012	-0.071
-443.836	29.847	-0.135	0.115
-442.822	2.276	0.248	0.179
-441.807	-200.000	0.040	-0.226
-440.792	40.103	-0.065	-0.058
-439.778	-200.000	-0.058	-0.344
-438.763	-75.033	-0.046	-0.017
-437.749	170.109	-0.125	0.179
-436.734	-28.168	-0.152	0.088
-435.719	-200.000	-0.071	0.338
-434.705	-19.878	-0.180	0.111
-433.690	-200.000	0.016	-0.306
-432.676	800.000	-0.154	-0.584
-431.661	69.568	0.111	-0.114
-430.646	2.671	-0.035	-0.026
-429.632	106.509	-0.113	0.134
-428.617	-64.580	-0.317	0.128
-427.603	360.190	-0.050	-0.100
-426.588	-68.842	0.164	-0.063
-425.573	386.164	-0.160	0.329
-424.559	-134.709	-0.143	-0.017
-423.544	-200.000	-0.026	-0.193
-422.530	55.640	0.317	0.306
-421.515	-46.429	-0.134	0.066
-420.500	726.064	-0.125	-0.333
-419.486	-121.316	0.026	0.004
-418.471	323.113	-0.062	0.118
-417.457	-200.000	-0.020	-0.419
-416.442	-200.000	-0.001	-0.019
-415.428	286.343	0.074	-0.133
-414.413	-200.000	0.022	-0.195
-413.398	-83.606	-0.079	-0.025
-412.384	43.734	0.110	0.100
-411.369	-156.710	-0.220	-0.014
-410.355	17.050	0.085	0.067
-409.340	-145.610	-0.122	-0.011
-408.325	800.000	-0.060	0.259
-407.311	294.769	0.107	-0.195
-406.296	-88.569	0.179	0.053
-405.282	37.808	0.122	-0.108
-404.267	-4.792	0.069	0.047
-403.252	95.955	0.223	-0.254
-402.238	407.067	0.094	-0.198
-401.223	-200.000	0.020	-0.177
-400.209	800.000	0.036	0.151
-399.194	139.942	-0.234	0.307
-398.179	-84.414	-0.101	-0.032
-397.165	36.451	0.252	-0.222
-396.150	364.513	-0.046	0.092
-395.136	-168.743	0.168	0.006
-394.121	-200.000	0.011	0.114
-393.106	-81.628	0.205	-0.067
-392.092	-111.782	0.419	-0.084
-391.077	-200.000	-0.044	-0.308
-390.063	-200.000	-0.033	-0.266
-389.048	-20.900	-0.275	-0.168
-388.033	-81.295	-0.125	0.041
-387.019	7.009	0.048	-0.036
-386.004	-200.000	-0.052	0.434
-384.990	19.266	-0.025	0.020
-383.975	-45.435	-0.201	0.099
-382.960	-85.142	-0.136	0.042
-381.946	-118.879	0.316	0.055
-380.931	-200.000	0.054	0.358
-379.917	-200.000	0.053	-0.286
-378.902	-146.394	-0.393	0.034
-377.888	567.878	0.051	-0.123
-376.873	-200.000	0.006	-0.283
-375.858	800.000	0.132	-0.374
-374.844	-200.000	-0.063	0.289
-373.829	239.961	0.174	-0.288
-372.815	-200.000	-0.019	0.214
-371.800	-129.983	0.152	0.021
-370.785	-91.596	-0.185	-0.052
-369.771	-68.753	-0.409	-0.157
-368.756	-104.589	0.376	0.086
-367.742	249.040	-0.015	-0.025
-366.727	-122.007	0.182	-0.030
-365.712	765.092	-0.029	0.078
-364.698	-200.000	0.013	0.273
-363.683	-200.000	-0.016	0.449
-362.669	616.306	0.045	-0.111
-361.654	-95.896	0.256	-0.068
-360.639	-18.694	0.232	-0.144
-359.625	-200.000	-0.035	-0.202
-358.610	-9.923	0.138	0.092
-357.596	-200.000	0.066	-0.330
-356.581	-38.307	-0.261	-0.138
-355.566	-23.069	-0.122	0.073
-354.552	800.000	0.103	0.287
-353.537	-200.000	0.021	-0.318
-352.523	274.991	0.110	0.194
-351.508	-162.130	-0.166	-0.008
-350.493	23.378	-0.196	-0.160
-349.479	800.000	0.044	-0.122
-348.464	49.241	-0.140	0.131
-347.450	-91.264	-0.276	0.079
-346.435	-26.159	0.168	0.098
-345.420	800.000	0.030	0.122
-344.406	9.904	-0.171	0.129
-343.391	238.537	0.126	-0.209
-342.377	162.887	0.132	0.184
-341.362	-56.389	-0.153	-0.068
-340.348	338.741	0.039	-0.076
-339.333	-68.184	0.110	0.043
-338.318	-200.000	0.001	0.049
-337.304	-147.536	0.419	-0.035
-336.289	669.398	-0.148	0.381
-335.275	343.077	0.053	-0.104
-334.260	70.384	-0.258	-0.265
-333.245	51.473	-0.230	0.217
-332.231	-40.334	-0.304	0.157
-331.216	472.877	-0.111	-0.248
-330.202	-200.000	-0.064	-0.319
-329.187	800.000	-0.049	-0.180
-328.172	178.743	0.196	0.284
-327.158	-45.651	-0.100	0.049
-326.143	-21.388	0.313	0.190
-325.129	80.677	0.311	0.333
-324.114	-159.000	0.236	0.013
-323.099	328.858	-0.033	-0.062
-322.085	800.000	-0.041	0.134
-321.070	-42.503	-0.332	-0.168
-320.056	-160.850	-0.098	0.005
-319.041	-65.769	-0.170	0.067
-318.026	800.000	0.032	-0.140
-317.012	27.870	-0.109	0.091
-315.997	554.373	0.047	-0.113
-314.983	396.475	0.110	-0.228
-313.968	-21.409	-0.260	-0.157
-312.953	-69.826	0.495	-0.188
-311.939	-161.321	0.178	0.009
-310.924	800.000	-0.092	-0.277
-309.910	-200.000	-0.083	0.514
-308.895	-106.930	0.054	0.012
-307.880	77.200	-0.270	0.285
-306.866	800.000	-0.034	-0.120
-305.851	-47.837	0.163	0.078
-304.837	-10.300	-0.318	0.210
-303.822	-36.670	0.057	-0.031
-302.807	-79.935	-0.256	-0.085
-301.793	-36.494	0.279	0.149
-300.778	93.098	-0.038	0.043
-299.764	-200.000	-0.029	-0.309
-298.749	-26.249	0.134	-0.078
-297.735	-200.000	-0.053	0.362
-296.720	613.290	-0.083	-0.207
-295.705	-61.185	-0.207	-0.086
-294.691	-148.580	0.240	0.019
-293.676	306.061	0.119	0.219
-292.662	375.699	0.107	-0.216
-291.647	110.391	-0.101	-0.121
-290.632	411.632	-0.040	-0.085
-289.618	9.534	-0.124	0.093
-288.603	800.000	0.023	-0.083
-287.589	28.229	0.133	0.112
-286.574	-117.055	0.275	-0.050
-285.559	25.478	-0.433	-0.357
-284.545	-102.527	-0.316	-0.075
-283.530	-48.949	0.051	0.024
-282.516	116.384	-0.224	-0.272
-281.501	-117.071	-0.411	-0.074
-280.486	-87.183	-0.202	-0.061
-279.472	800.000	0.093	0.369
-278.457	122.893	0.166	-0.206
-277.443	336.431	-0.082	0.159
-276.428	-12.898	-0.085	-0.055
-275.413	-143.538	-0.029	0.003
-274.399	-110.324	0.338	-0.070
-273.384	263.303	0.061	-0.106
-272.370	659.391	-0.003	0.006
-271.355	-200.000	0.008	-0.110
-270.340	800.000	0.040	0.136
-269.326	-200.000	-0.022	-0.149
-268.311	127.033	0.093	-0.117
-267.297	21.390	0.128	0.103
-266.282	-125.730	-0.332	0.050
-265.267	800.000	-0.017	-0.051
-264.253	-62.652	-0.164	-0.067
-263.238	-107.975	-0.244	0.052
-262.224	-200.000	-0.004	0.346
-261.209	-71.444	0.399	-0.148
-260.195	-68.832	0.360	0.138
-259.180	310.735	-0.057	-0.105
-258.165	515.139	0.020	-0.046
-257.151	31.933	0.387	-0.330
-256.136	-33.846	0.145	-0.079
-255.122	225.174	0.050	0.081
-254.107	-52.026	0.178	-0.082
-253.092	42.454	-0.131	0.118
-252.078	9.711	-0.242	0.181
-251.063	-128.845	0.251	-0.035
-250.049	108.676	-0.248	-0.293
-249.034	800.000	-0.068	0.185
-248.019	-15.260	-0.114	-0.072
-247.005	335.947	0.058	0.111
-245.990	438.620	-0.062	0.134
-244.976	-34.371	-0.193	0.105
-243.961	78.920	0.150	-0.159
-242.946	316.829	0.040	0.075
-241.932	93.656	0.185	-0.208
-240.917	-200.000	0.026	-0.413
-239.903	800.000	-0.088	-0.357
-238.888	-200.000	0.008	0.174
-237.873	-66.077	0.263	0.104
-236.859	473.114	0.168	-0.374
-235.844	-78.942	-0.106	0.036
-234.830	-66.744	-0.087	0.034
-233.815	-28.790	0.072	0.041
-232.800	635.252	-0.124	-0.312
-231.786	-200.000	0.035	0.273
-230.771	800.000	-0.072	-0.198
-229.757	-101.889	0.147	-0.035
-228.742	-128.550	0.086	-0.012
-227.727	0.589	-0.143	0.101
-226.713	800.000	0.133	0.378
-225.698	29.593	0.173	0.146
-224.684	-54.635	-0.266	-0.119
-223.669	179.455	-0.214	0.310
-222.655	-6.541	-0.294	0.198
-221.640	-76.453	-0.153	0.053
-220.625	800.000	-0.017	0.046
-219.611	800.000	0.047	0.165
-218.596	185.449	0.304	0.447
-217.582	-82.257	0.177	0.057
-216.567	47.177	-0.080	-0.074
-215.552	3.688	0.275	0.198
-214.538	-200.000	-0.065	-0.297
-213.523	-200.000	-0.052	-0.250
-212.509	-68.662	0.117	-0.045
-211.494	800.000	-0.027	-0.103
-210.479	-5.361	0.025	-0.017
-209.465	-73.440	0.284	0.102
-208.450	205.159	-0.161	0.247
-207.436	53.863	0.133	0.126
-206.421	150.086	0.176	0.237
-205.406	-145.518	-0.365	-0.032
-204.392	800.000	0.052	-0.191
-203.377	-200.000	-0.079	0.395
-202.363	253.883	0.130	0.219
-201.348	800.000	0.080	-0.231
-200.333	-131.206	-0.338	0.044
-199.319	-115.970	0.149	-0.028
-198.304	-95.963	-0.204	0.054
-197.290	-137.846	0.266	-0.029
-196.275	800.000	-0.055	0.224
-195.260	620.047	0.051	-0.127
-194.246	273.519	-0.062	0.108
-193.231	106.313	0.142	0.167
-192.217	7.227	-0.048	0.035
-191.202	800.000	-0.021	-0.091
-190.187	7.801	-0.113	-0.084
-189.173	161.242	0.195	-0.269
-188.158	256.913	0.100	-0.169
-187.144	171.878	0.339	0.482
-186.129	-96.059	0.328	0.086
-185.114	-144.890	-0.114	-0.010
-184.100	-200.000	-0.024	0.314
-183.085	800.000	0.186	0.531
-182.071	404.704	0.079	0.164
-181.056	-106.624	0.203	0.045
-180.042	22.349	-0.346	0.279
-179.027	-198.267	-0.227	-0.001
-178.012	-5.913	0.143	-0.097
-176.998	22.382	0.184	0.149
-175.983	270.167	0.224	0.390
-174.969	111.546	0.122	-0.146
-173.954	800.000	0.110	-0.308
-172.939	65.767	-0.200	-0.201
-171.925	-3.039	0.166	-0.114
-170.910	-200.000	-0.022	0.209
-169.896	387.936	-0.148	0.303
-168.881	-85.843	0.251	0.077
-167.866	-10.220	0.088	0.057
-166.852	-62.951	-0.129	0.053
-165.837	-155.052	0.333	-0.022
-164.823	76.647	-0.238	0.249
-163.808	53.285	0.515	-0.488
-162.793	-103.285	-0.174	-0.040
-161.779	415.886	0.122	0.257
-160.764	382.669	0.029	-0.058
-159.750	-134.451	-0.151	-0.018
-158.735	-126.564	0.115	0.017
-157.720	161.296	-0.149	-0.206
-156.706	-200.000	0.005	-0.033
-155.691	-2.934	0.191	0.131
-154.677	-59.958	0.156	-0.066
-153.662	266.674	-0.099	-0.171
-152.647	-116.968	-0.144	0.026
-151.633	-132.888	-0.289	-0.036
-150.618	-85.019	0.103	0.032
-149.604	330.129	0.060	0.113
-148.589	592.967	-0.089	-0.216
-147.574	-181.382	-0.094	-0.002
-146.560	-63.082	-0.239	-0.097
-145.545	76.365	0.144	-0.150
-144.531	-29.004	0.096	0.054
-143.516	294.070	-0.113	-0.204
-142.502	162.130	0.098	0.135
-141.487	59.782	0.162	0.157
-140.472	-9.993	-0.052	-0.034
-139.458	183.517	0.068	0.099
-138.443	-23.780	-0.209	0.123
-137.429	-88.109	0.255	-0.075
-136.414	90.002	0.226	0.249
-135.399	-200.000	-0.008	-0.134
-134.385	-89.978	-0.504	-0.145
-133.370	800.000	-0.041	0.115
-132.356	-108.667	0.241	0.051
-131.341	-25.381	0.257	-0.150
-130.326	297.502	-0.119	0.216
-129.312	-107.901	0.243	0.052
-128.297	-67.256	0.149	0.058
-127.283	-46.394	0.206	-0.100
-126.268	2.531	0.248	-0.177
-125.253	-53.179	0.341	-0.154
-124.239	-177.303	0.224	-0.005
-123.224	-200.000	0.013	-0.149
-122.210	-200.000	-0.055	0.347
-121.195	354.339	0.147	0.288
-120.180	80.034	-0.043	0.046
-119.166	-17.991	0.113	0.070
-118.151	-50.605	-0.259	-0.120
-117.137	-154.107	0.025	-0.002
-116.122	-63.551	0.188	0.076
-115.107	800.000	-0.035	0.147
-114.093	800.000	-0.078	0.275
-113.078	110.146	-0.142	0.168
-112.064	-49.701	0.084	0.039
-111.049	-200.000	0.034	0.249
-110.034	-60.542	-0.226	0.095
-109.020	-22.117	0.061	0.037
-108.005	-14.300	0.210	0.133
-106.991	-145.412	0.212	0.019
-105.976	257.557	0.045	-0.077
-104.962	-16.134	-0.100	-0.063
-103.947	547.962	-0.078	-0.185
-102.932	800.000	0.049	0.189
-101.918	800.000	0.026	-0.087
-100.903	223.973	-0.092	-0.146
-99.889	-15.932	0.005	0.003
-98.874	483.016	0.095	0.212
-97.859	800.000	-0.034	0.109
-96.845	-15.938	0.367	-0.230
-95.830	800.000	0.032	-0.120
-94.816	56.013	0.215	0.205
-93.801	171.972	-0.105	0.148
-92.786	192.922	0.114	0.170
-91.772	84.316	0.103	-0.110
-90.757	-200.000	-0.042	0.411
-89.743	-123.801	0.163	0.025
-88.728	-200.000	-0.012	0.209
-87.713	-200.000	-0.001	-0.157
-86.699	-200.000	-0.010	0.188
-85.684	117.203	0.223	0.270
-84.670	123.412	0.169	0.209
-83.655	59.669	0.255	-0.247
-82.640	277.550	0.197	0.346
-81.626	-23.627	-0.238	0.141
-80.611	-200.000	0.030	0.134
-79.597	180.190	-0.059	0.085
-78.582	-26.711	0.064	0.037
-77.567	-78.346	0.127	0.043
-76.553	800.000	0.065	0.215
-75.538	695.803	-0.101	0.261
-74.524	-19.522	0.364	-0.222
-73.509	4.508	0.334	0.241
-72.494	-77.877	-0.305	0.103
-71.480	-42.868	-0.081	0.041
-70.465	-79.149	0.239	0.080
-69.451	-130.032	0.160	0.022
-68.436	-152.540	0.252	0.018
-67.422	-13.954	0.034	0.021
-66.407	-200.000	-0.053	-0.410
-65.392	-26.805	0.420	-0.241
-64.378	277.644	0.047	0.082
-63.363	-200.000	0.011	-0.232
-62.349	800.000	0.051	0.191
-61.334	-12.957	-1.116	-0.714
-60.319	-11.559	0.707	0.457
-59.305	800.000	-0.309	-0.969
-58.290	371.955	0.734	1.465
-57.276	655.828	0.619	1.563
-56.261	-200.000	113.930	645.457
-55.246	475.503	1499.536	3328.367
-54.232	146.773	2668.991	3525.817
-53.217	94.369	2310.326	2578.644
-52.203	33.826	2060.326	1761.931
-51.188	29.160	1976.130	1648.225
-50.173	27.783	1959.548	1622.101
-49.159	45.652	2016.729	1831.007
-48.144	44.885	2033.104	1838.892
-47.130	29.793	1992.482	1667.306
-46.115	27.502	1982.121	1638.000
-45.100	27.380	1979.614	1634.771
-44.086	27.434	1976.808	1632.866
-43.071	27.269	1974.710	1629.591
-42.057	27.265	1972.778	1627.896
-41.042	27.261	1970.863	1626.219
-40.027	27.280	1969.006	1624.788
-39.013	27.387	1966.317	1623.462
-37.998	27.321	1965.207	1621.896
-36.984	27.331	1963.384	1620.412
-35.969	27.322	1961.112	1618.390
-34.954	27.384	1959.815	1617.806
-33.940	27.378	1958.440	1616.561
-32.925	27.371	1956.920	1615.177
-31.911	27.417	1955.177	1614.084
-30.896	27.446	1953.312	1612.735
-29.881	27.465	1951.600	1611.421
-28.867	27.492	1950.165	1610.416
-27.852	27.446	1948.909	1608.904
-26.838	27.467	1946.873	1607.345
-25.823	27.487	1945.183	1606.067
-24.809	27.520	1943.107	1604.574
-23.794	27.451	1941.441	1602.530
-22.779	27.551	1939.326	1601.605
-21.765	27.539	1937.839	1600.202
-20.750	27.454	1936.274	1598.100
-19.736	27.426	1934.957	1596.707
-18.721	27.495	1933.065	1595.682
-17.706	27.479	1931.838	1594.474
-16.692	27.524	1929.274	1592.687
-15.677	27.509	1927.992	1591.432
-14.663	27.448	1926.995	1590.010
-13.648	27.513	1925.740	1589.481
-12.633	27.405	1924.748	1587.657
-11.619	27.435	1923.168	1586.552
-10.604	27.524	1921.281	1585.710
-9.590	27.433	1920.362	1584.097
-8.575	27.370	1919.558	1582.820
-7.560	27.362	1918.190	1581.558
-6.546	27.477	1916.573	1581.160
-5.531	27.475	1915.405	1580.118
-4.517	27.393	1914.303	1578.437
-3.502	27.398	1913.631	1577.866
-2.487	27.485	1911.490	1576.790
-1.473	27.436	1911.147	1576.014
-0.458	27.541	1905.866	1572.508
0.556	25.259	1886.014	1544.283
1.571	21.007	1867.091	1492.347
2.586	17.255	1889.153	1477.301
3.600	16.274	1924.381	1496.023
4.615	16.083	1918.958	1489.988
5.629	14.550	1826.769	1405.373
6.644	11.659	1722.073	1301.717
7.659	9.835	1692.122	1264.685
8.673	9.695	1688.933	1261.097
9.688	9.750	1687.789	1260.560
10.702	9.624	1686.507	1258.509
11.717	9.540	1682.389	1254.671
12.731	9.711	1681.014	1254.860
13.746	11.958	1685.815	1275.854
14.761	15.427	1693.058	1308.306
15.775	17.311	1695.488	1324.763
16.790	17.131	1693.389	1321.605
17.804	16.124	1689.490	1310.622
18.819	15.003	1686.687	1299.634
19.834	14.349	1684.122	1292.465
20.848	13.941	1683.000	1288.326
21.863	13.733	1681.200	1285.224
22.877	13.527	1679.579	1282.278
23.892	13.341	1678.035	1279.544
24.907	13.168	1677.035	1277.331
25.921	13.118	1676.197	1276.199
26.936	13.178	1675.145	1275.746
27.950	13.215	1674.127	1275.145
28.965	13.322	1673.636	1275.483
29.980	13.321	1672.711	1274.655
30.994	13.383	1671.318	1273.960
32.009	13.433	1670.388	1273.519
33.023	13.368	1669.539	1272.261
34.038	13.459	1668.640	1272.163
35.053	13.391	1667.446	1270.617
36.067	13.482	1665.718	1269.887
37.082	13.368	1664.962	1268.326
38.096	13.365	1664.131	1267.558
39.111	13.353	1663.547	1266.905
40.126	13.402	1662.225	1266.164
41.140	13.390	1661.690	1265.551
42.155	13.340	1660.216	1263.932
43.169	13.183	1658.719	1261.484
44.184	13.246	1657.286	1260.768
45.199	13.146	1656.131	1259.009
46.213	13.199	1654.626	1258.161
47.228	13.201	1653.717	1257.375
48.242	13.191	1652.941	1256.595
49.257	13.333	1651.749	1256.657
50.271	13.330	1650.465	1255.546
51.286	13.223	1649.321	1253.753
52.301	13.335	1647.489	1253.099
53.315	13.275	1646.083	1251.462
54.330	13.222	1644.758	1249.946
55.344	13.215	1643.113	1248.528
56.359	13.196	1641.757	1247.244
57.374	13.253	1640.577	1246.666
58.388	13.270	1639.492	1245.860
59.403	13.212	1638.091	1244.256
60.417	13.112	1636.593	1242.249
61.432	13.143	1635.591	1241.612
62.447	13.085	1635.176	1240.754
63.461	13.099	1633.131	1239.199
64.476	13.071	1631.934	1237.973
65.490	13.039	1630.812	1236.770
66.505	12.970	1629.888	1235.445
67.520	13.000	1629.324	1235.126
68.534	13.103	1627.814	1234.645
69.549	13.152	1626.381	1233.812
70.563	13.096	1625.660	1232.742
71.578	13.041	1624.178	1231.102
72.593	13.026	1623.527	1230.382
73.607	12.943	1622.384	1228.792
74.622	12.980	1621.298	1228.137
75.636	12.931	1620.212	1226.841
76.651	12.996	1619.506	1226.682
77.666	12.925	1619.055	1225.701
78.680	12.926	1617.982	1224.787
79.695	12.953	1617.218	1224.299
80.709	13.053	1616.165	1224.140
81.724	13.096	1615.423	1223.789
82.739	13.008	1614.503	1222.328
83.753	13.132	1613.522	1222.398
84.768	13.261	1612.064	1222.138
85.782	13.300	1611.842	1222.150
86.797	13.295	1611.157	1221.482
87.812	13.268	1610.560	1220.723
88.826	13.342	1608.409	1219.528
89.841	13.209	1607.320	1217.622
90.855	13.275	1606.163	1217.122
91.870	13.212	1605.798	1216.270
92.884	13.335	1604.251	1215.898
93.899	13.384	1603.280	1215.413
94.914	13.413	1602.418	1214.862
95.928	13.394	1600.987	1213.537
96.943	13.392	1599.604	1212.365
97.957	13.457	1598.211	1211.679
98.972	13.350	1596.392	1209.406
99.987	13.391	1595.019	1208.558
101.001	13.303	1593.712	1206.817
102.016	13.323	1591.876	1205.467
103.030	13.382	1590.547	1204.788
104.045	13.399	1589.201	1203.781
105.060	13.381	1587.742	1202.441
106.074	13.302	1586.461	1200.789
107.089	13.226	1584.694	1198.793
108.103	13.164	1583.425	1197.284
109.118	13.112	1582.228	1195.892
110.133	13.115	1580.793	1194.725
111.147	13.124	1579.462	1193.680
112.162	13.091	1578.147	1192.337
113.176	13.103	1576.637	1191.182
114.191	13.167	1575.100	1190.376
115.206	13.142	1574.300	1189.488
116.220	13.231	1572.725	1188.829
117.235	13.216	1571.056	1187.353
118.249	13.194	1570.009	1186.299
119.264	13.217	1568.547	1185.254
120.279	13.167	1566.961	1183.592
121.293	13.108	1566.058	1182.384
122.308	13.053	1564.504	1180.712
123.322	13.135	1562.356	1179.571
124.337	13.118	1561.318	1178.565
125.352	12.987	1560.009	1176.539
126.366	13.164	1558.919	1176.874
127.381	13.073	1557.522	1175.068
128.395	13.029	1556.670	1174.004
129.410	13.113	1554.982	1173.229
130.424	13.138	1553.823	1172.429
131.439	13.138	1552.433	1171.273
132.454	13.194	1551.061	1170.535
133.468	13.125	1549.613	1168.844
134.483	13.203	1548.518	1168.468
135.497	13.148	1547.379	1167.115
136.512	13.170	1545.896	1166.053
137.527	13.267	1544.216	1165.362
138.541	13.249	1543.107	1164.297
139.556	13.293	1541.306	1163.144
140.570	13.266	1540.004	1161.872
141.585	13.315	1539.118	1161.446
142.600	13.401	1537.413	1160.660
143.614	13.450	1536.427	1160.151
144.629	13.439	1535.353	1159.164
145.643	13.482	1533.681	1158.100
146.658	13.495	1532.596	1157.269
147.673	13.516	1530.635	1155.829
148.687	13.445	1529.245	1154.182
149.702	13.374	1527.913	1152.580
150.716	13.324	1526.305	1150.918
151.731	13.402	1524.896	1150.300
152.746	13.397	1523.712	1149.271
153.760	13.446	1522.057	1148.257
154.775	13.422	1521.507	1147.577
155.789	13.364	1520.167	1146.060
156.804	13.488	1518.541	1145.595
157.819	13.511	1517.732	1145.042
158.833	13.587	1516.682	1144.670
159.848	13.554	1515.656	1143.564
160.862	13.617	1514.250	1142.839
161.877	13.682	1513.010	1142.253
162.892	13.546	1512.313	1140.689
163.906	13.566	1510.618	1139.448
164.921	13.417	1509.664	1137.601
165.935	13.465	1508.819	1137.192
166.950	13.439	1507.493	1135.916
167.964	13.532	1506.490	1135.694
168.979	13.594	1505.515	1135.285
169.994	13.552	1504.407	1134.062
171.008	13.541	1503.323	1133.071
172.023	13.560	1502.457	1132.449
173.037	13.530	1501.161	1131.163
174.052	13.648	1499.718	1130.783
175.067	13.668	1499.013	1130.288
176.081	13.556	1498.538	1129.068
177.096	13.551	1496.416	1127.335
178.110	13.717	1494.486	1126.907
179.125	13.585	1494.022	1125.557
180.140	13.583	1493.079	1124.734
181.154	13.616	1492.071	1124.102
182.169	13.628	1490.688	1123.039
183.183	13.642	1489.327	1122.015
184.198	13.688	1488.396	1121.520
185.213	13.776	1487.443	1121.301
186.227	13.797	1486.467	1120.609
187.242	13.791	1485.478	1119.722
188.256	13.953	1484.048	1119.636
189.271	13.887	1483.215	1118.463
190.286	13.935	1482.106	1117.849
191.300	13.804	1481.361	1116.311
192.315	13.629	1479.779	1113.845
193.329	13.562	1478.304	1112.182
194.344	13.582	1477.160	1111.361
195.359	13.622	1476.198	1110.808
196.373	13.671	1475.374	1110.413
197.388	13.727	1474.521	1110.052
198.402	13.744	1473.539	1109.326
199.417	13.854	1472.362	1109.079
200.432	13.925	1471.266	1108.628
201.446	14.006	1470.725	1108.661
202.461	14.162	1468.935	1108.255
203.475	14.130	1467.967	1107.214
204.490	14.096	1466.867	1106.061
205.504	14.087	1466.202	1105.398
206.519	14.121	1464.342	1104.126
207.534	14.010	1463.812	1102.894
208.548	13.984	1462.892	1101.926
209.563	14.157	1461.628	1102.023
210.577	13.971	1460.760	1100.041
211.592	14.134	1459.471	1100.049
212.607	14.026	1459.132	1098.987
213.621	14.160	1458.585	1099.358
214.636	14.195	1457.636	1098.780
215.650	14.170	1456.142	1097.391
216.665	14.183	1455.545	1096.928
217.680	14.094	1455.026	1095.855
218.694	14.237	1454.192	1096.070
219.709	14.318	1452.927	1095.555
220.723	14.242	1452.063	1094.306
221.738	14.268	1451.052	1093.618
222.753	14.277	1450.328	1093.034
223.767	14.251	1449.366	1092.042
224.782	14.233	1447.978	1090.780
225.796	14.301	1447.438	1090.725
226.811	14.316	1446.812	1090.257
227.826	14.430	1445.615	1090.000
228.840	14.418	1444.650	1089.099
229.855	14.364	1444.109	1088.244
230.869	14.340	1442.761	1086.976
231.884	14.360	1441.926	1086.376
232.899	14.354	1441.090	1085.615
233.913	14.247	1439.652	1083.737
234.928	14.224	1438.949	1082.965
235.942	14.246	1437.458	1081.891
236.957	14.229	1435.859	1080.481
237.972	14.210	1435.382	1079.900
238.986	14.289	1433.956	1079.244
240.001	14.258	1433.059	1078.273
241.015	14.436	1431.408	1078.087
242.030	14.418	1430.972	1077.546
243.045	14.352	1430.227	1076.463
244.059	14.403	1429.300	1075.999
245.074	14.450	1428.050	1075.269
246.088	14.442	1427.534	1074.732
247.103	14.536	1426.711	1074.625
248.117	14.590	1425.772	1074.169
249.132	14.533	1425.267	1073.326
250.147	14.660	1424.710	1073.627
251.161	14.789	1423.553	1073.492
252.176	14.699	1423.463	1072.751
253.190	14.725	1422.495	1072.090
254.205	14.811	1421.279	1071.633
255.220	14.930	1420.481	1071.697
256.234	15.001	1419.512	1071.324
257.249	14.961	1419.112	1070.673
258.263	14.918	1418.135	1069.566
259.278	14.946	1417.296	1069.021
260.293	14.873	1416.328	1067.725
261.307	14.872	1415.699	1067.155
262.322	14.970	1415.135	1067.257
263.336	15.063	1414.182	1067.035
264.351	14.937	1413.546	1065.663
265.366	15.098	1412.525	1065.820
266.380	15.083	1411.198	1064.631
267.395	15.147	1410.112	1064.123
268.409	15.042	1409.543	1062.936
269.424	15.089	1407.956	1061.942
270.439	15.006	1407.292	1060.820
271.453	15.084	1406.306	1060.477
272.468	15.084	1405.161	1059.519
273.482	15.139	1404.450	1059.239
274.497	14.963	1404.290	1057.911
275.512	15.029	1403.219	1057.427
276.526	15.010	1402.587	1056.736
277.541	15.176	1401.088	1056.561
278.555	15.085	1400.624	1055.544
279.570	15.176	1399.339	1055.058
280.585	15.170	1398.341	1054.171
281.599	15.188	1397.834	1053.809
282.614	15.307	1396.969	1053.814
283.628	15.263	1395.737	1052.513
284.643	15.256	1394.546	1051.479
285.657	15.216	1393.662	1050.468
286.672	15.218	1392.304	1049.363
287.687	15.212	1391.528	1048.651
288.701	15.271	1390.512	1048.158
289.716	15.171	1390.352	1047.318
290.730	15.214	1389.437	1046.810
291.745	15.317	1387.761	1046.094
292.760	15.343	1387.094	1045.659
293.774	15.278	1386.169	1044.467
294.789	15.228	1385.383	1043.469
295.803	15.384	1384.163	1043.431
296.818	15.407	1383.343	1042.861
297.833	15.366	1382.398	1041.802
298.847	15.294	1381.684	1040.728
299.862	15.342	1380.683	1040.176
300.876	15.478	1379.283	1039.875
301.891	15.431	1378.362	1038.797
302.906	15.418	1378.159	1038.468
303.920	15.566	1377.262	1038.616
304.935	15.568	1376.308	1037.817
305.949	15.533	1376.207	1037.434
306.964	15.693	1375.016	1037.435
307.979	15.654	1373.818	1036.195
308.993	15.603	1373.105	1035.252
310.008	15.619	1372.199	1034.578
311.022	15.592	1371.470	1033.769
312.037	15.681	1370.152	1033.231
313.052	15.700	1369.101	1032.466
314.066	15.748	1368.103	1031.915
315.081	15.621	1367.558	1030.634
316.095	15.611	1365.995	1029.301
317.110	15.553	1365.056	1028.150
318.125	15.647	1363.480	1027.444
319.139	15.668	1362.839	1026.998
320.154	15.622	1362.299	1026.220
321.168	15.579	1360.896	1024.810
322.183	15.619	1359.924	1024.234
323.197	15.701	1359.094	1024.018
324.212	15.665	1358.335	1023.134
325.227	15.668	1357.354	1022.321
326.241	15.651	1356.770	1021.690
327.256	15.760	1355.758	1021.501
328.270	15.754	1355.025	1020.820
329.285	15.729	1354.187	1019.945
330.300	15.739	1353.105	1019.103
331.314	15.705	1352.168	1018.103
332.329	15.790	1351.443	1017.979
333.343	15.624	1350.460	1016.147
334.358	15.765	1349.875	1016.469
335.373	15.752	1348.998	1015.639
336.387	15.856	1348.261	1015.620
337.402	15.796	1347.181	1014.353
338.416	15.882	1346.652	1014.383
339.431	15.884	1346.207	1013.975
340.446	15.948	1345.386	1013.647
341.460	16.034	1344.651	1013.524
342.475	16.088	1343.305	1012.745
343.489	16.085	1342.753	1012.218
344.504	16.150	1341.498	1011.574
345.519	16.159	1340.728	1010.956
346.533	16.130	1340.086	1010.212
347.548	16.198	1338.892	1009.627
348.562	16.186	1338.143	1008.904
349.577	16.229	1336.984	1008.197
350.592	16.261	1336.461	1007.904
351.606	16.130	1336.059	1006.730
352.621	16.142	1334.652	1005.649
353.635	16.168	1333.135	1004.576
354.650	16.159	1332.687	1004.093
355.665	16.196	1331.449	1003.291
356.679	16.213	1330.289	1002.429
357.694	16.187	1329.490	1001.585
358.708	16.223	1328.285	1000.805
359.723	16.195	1327.376	999.862
360.738	16.251	1326.373	999.350
361.752	16.294	1325.814	999.093
362.767	16.242	1324.193	997.477
363.781	16.217	1323.566	996.772
364.796	16.265	1322.840	996.417
365.810	16.359	1321.883	996.164
366.825	16.450	1321.108	996.030
367.840	16.452	1320.426	995.439
368.854	16.425	1319.665	994.614
369.869	16.528	1319.413	994.944
370.883	16.626	1318.477	994.729
371.898	16.552	1318.109	993.929
372.913	16.422	1317.202	992.391
373.927	16.497	1315.804	991.689
374.942	16.566	1315.297	991.625
375.956	16.540	1314.836	991.036
376.971	16.550	1314.027	990.397
377.986	16.570	1313.350	989.917
379.000	16.560	1312.298	988.978
380.015	16.603	1311.494	988.536
381.029	16.752	1310.450	988.533
382.044	16.767	1309.852	988.080
383.059	16.774	1309.185	987.530
384.073	16.838	1308.639	987.407
385.088	16.811	1307.871	986.583
386.102	16.670	1307.585	985.457
387.117	16.745	1306.763	985.188
388.132	16.803	1305.766	984.686
389.146	16.813	1304.907	984.008
390.161	16.677	1304.098	982.520
391.175	16.713	1303.192	981.960
392.190	16.785	1302.179	981.529
393.205	16.788	1301.691	981.090
394.219	16.838	1300.886	980.687
395.234	16.826	1299.160	979.231
396.248	16.903	1297.483	978.320
397.263	16.904	1296.592	977.569
398.278	16.926	1295.008	976.418
399.292	16.776	1294.030	974.730
400.307	16.747	1293.352	973.966
401.321	16.748	1292.453	973.206
402.336	16.732	1291.189	972.080
403.350	16.802	1289.902	971.423
404.365	16.800	1289.399	970.950
405.380	16.699	1288.724	969.777
406.394	16.791	1287.971	969.649
407.409	16.932	1286.767	969.466
408.423	17.041	1286.456	969.768
409.438	17.013	1285.542	968.831
410.453	16.978	1284.772	967.966
411.467	17.039	1284.010	967.654
412.482	17.142	1283.583	967.831
413.496	17.176	1282.828	967.374
414.511	17.142	1282.276	966.675
415.526	17.156	1281.473	966.068
416.540	17.191	1280.594	965.518
417.555	17.283	1280.099	965.581
418.569	17.353	1279.306	965.295
419.584	17.288	1279.207	964.766
420.599	17.251	1278.548	963.971
421.613	97.135	1356.088	1478.066
422.628	94.906	1367.357	1478.173
