DTS Sentinel unit serial number:	SN413079Multiplexer serial number:	ORYXHardware model number:	OX4-SRSoftware version number:	ORYX F/W v4.00 Oryx Data Collector v3.7.2.0data status	okinstallation	princeton_trtdifferential loss correction	single-endedforward channel	channel 4reverse channel	N/Adate	2019/09/16time	21:45:35forward acquisition time	60.00reverse acquisition time	0.00gamma	496.2192k internal	0.2313k external	0.2313temperature offset calibration	0.9965default loss term (dB/km)	0.3790temperature slope calibration	1.0000multiplexer offset coefficient	1.0000multiplexer slope coefficient	1.0000fibre end	0.00T internal ref (°C)	31.31T ext. ref 1 (°C)	0.05T ext. ref 2 (°C)	25.61length (m)	temperature (°C)	Stokes	anti-Stokes-747.200	175.762	0.025	-0.037
-746.185	384.317	-0.174	0.363
-745.171	139.605	0.109	-0.146
-744.156	243.033	0.098	0.166
-743.142	800.000	0.019	0.061
-742.127	20.493	-0.392	0.322
-741.112	-200.000	-0.014	0.266
-740.098	102.654	-0.099	-0.117
-739.083	58.469	0.194	-0.193
-738.069	-65.831	-0.353	0.143
-737.054	-46.886	0.233	0.115
-736.039	-38.751	-0.146	-0.078
-735.025	11.235	-0.383	0.297
-734.010	147.820	-0.129	-0.176
-732.996	-200.000	-0.024	0.207
-731.981	-109.982	-0.257	-0.054
-730.966	34.409	0.271	-0.240
-729.952	-81.230	-0.336	-0.113
-728.937	113.662	-0.086	-0.106
-727.923	311.989	-0.047	0.090
-726.908	-200.000	-0.004	-0.171
-725.894	-117.232	0.495	-0.091
-724.879	69.219	0.237	-0.247
-723.864	306.790	0.153	-0.289
-722.850	-19.918	-0.171	-0.107
-721.835	37.641	-0.259	-0.233
-720.821	-200.000	-0.014	-0.184
-719.806	276.530	0.144	0.259
-718.791	800.000	0.050	0.148
-717.777	-8.517	0.114	-0.077
-716.762	800.000	0.033	-0.099
-715.748	-152.030	0.125	-0.009
-714.733	128.446	-0.068	-0.088
-713.718	-200.000	-0.044	-0.377
-712.704	52.525	0.255	-0.247
-711.689	-5.034	0.147	0.103
-710.675	2.513	-0.094	0.069
-709.660	-182.223	0.467	0.009
-708.645	-126.052	-0.086	0.013
-707.631	226.486	0.091	-0.150
-706.616	51.944	-0.211	-0.204
-705.602	-85.052	-0.273	0.087
-704.587	-200.000	-0.018	0.079
-703.572	376.678	-0.129	0.267
-702.558	-32.839	-0.175	0.098
-701.543	-141.352	-0.077	-0.008
-700.529	217.371	0.045	-0.072
-699.514	800.000	0.096	0.293
-698.499	-200.000	-0.000	-0.465
-697.485	-200.000	-0.043	-0.258
-696.470	-200.000	0.005	-0.317
-695.456	800.000	-0.031	-0.125
-694.441	-170.524	-0.445	-0.016
-693.426	-64.014	-0.123	-0.051
-692.412	800.000	0.020	-0.065
-691.397	-34.647	0.201	0.111
-690.383	-24.169	0.100	0.060
-689.368	-200.000	-0.001	0.233
-688.354	161.034	-0.130	0.183
-687.339	91.872	-0.253	0.288
-686.324	-74.179	0.066	-0.024
-685.310	-157.833	-0.349	-0.021
-684.295	-200.000	0.003	-0.048
-683.281	-200.000	-0.052	-0.237
-682.266	304.206	-0.007	-0.013
-681.251	-99.227	-0.293	-0.075
-680.237	-200.000	0.070	0.465
-679.222	309.508	-0.084	-0.159
-678.208	-200.000	-0.048	-0.241
-677.193	800.000	-0.118	-0.375
-676.178	160.342	0.336	0.473
-675.164	-200.000	-0.002	0.420
-674.149	-3.130	0.139	0.098
-673.135	359.876	-0.147	-0.298
-672.120	361.692	0.051	0.104
-671.105	13.660	0.046	0.036
-670.091	-1.711	0.101	0.072
-669.076	-9.372	0.352	0.238
-668.062	800.000	0.104	-0.339
-667.047	86.344	-0.035	0.038
-666.032	3.025	-0.249	-0.183
-665.018	-189.339	0.095	0.001
-664.003	-200.000	0.002	-0.084
-662.989	-60.677	-0.110	-0.047
-661.974	800.000	-0.049	-0.149
-660.959	-22.375	-0.184	0.112
-659.945	-200.000	0.014	0.193
-658.930	255.119	-0.043	0.074
-657.916	-142.939	0.033	-0.003
-656.901	-100.255	-0.185	-0.046
-655.886	-65.190	0.173	0.071
-654.872	230.473	-0.008	0.014
-653.857	-100.830	-0.039	0.010
-652.843	-8.182	0.235	0.160
-651.828	-144.750	0.364	-0.034
-650.814	209.152	-0.106	0.168
-649.799	116.857	0.125	0.155
-648.784	244.900	-0.094	0.159
-647.770	800.000	0.068	-0.198
-646.755	39.948	-0.121	-0.110
-645.741	517.827	0.064	0.152
-644.726	-70.269	-0.241	0.092
-643.711	-132.424	-0.167	0.022
-642.697	-199.598	-0.067	-0.000
-641.682	-200.000	-0.049	0.230
-640.668	199.487	-0.131	-0.203
-639.653	26.025	0.134	0.113
-638.638	-128.011	0.128	-0.019
-637.624	124.961	-0.087	-0.111
-636.609	194.027	-0.055	0.085
-635.595	114.833	-0.086	0.106
-634.580	-200.000	0.037	0.199
-633.565	-21.175	-0.105	-0.065
-632.551	-41.526	-0.028	0.014
-631.536	-200.000	0.050	0.357
-630.522	-96.294	0.340	-0.091
-629.507	21.601	-0.135	-0.111
-628.492	-200.000	0.044	0.365
-627.478	256.381	0.123	-0.213
-626.463	-200.000	0.019	-0.319
-625.449	375.653	0.033	-0.068
-624.434	-72.026	-0.286	0.107
-623.419	184.621	-0.101	-0.152
-622.405	-94.947	0.211	-0.058
-621.390	74.341	0.232	-0.246
-620.376	-62.954	0.143	-0.059
-619.361	800.000	0.083	-0.236
-618.346	28.777	-0.120	0.102
-617.332	168.014	0.270	-0.387
-616.317	-200.000	0.005	0.032
-615.303	800.000	0.007	-0.029
-614.288	77.842	-0.086	0.092
-613.273	-18.666	0.307	0.193
-612.259	199.984	0.067	-0.103
-611.244	-200.000	-0.021	0.225
-610.230	130.103	0.075	-0.097
-609.215	94.106	0.118	0.135
-608.201	-40.884	0.154	0.080
-607.186	-102.885	-0.484	0.116
-606.171	140.965	0.058	0.077
-605.157	-101.240	-0.436	0.107
-604.142	-6.958	0.209	-0.143
-603.128	169.859	-0.053	0.076
-602.113	178.293	-0.214	-0.315
-601.098	0.853	-0.294	0.212
-600.084	16.443	-0.061	-0.049
-599.069	735.901	0.058	0.156
-598.055	800.000	-0.097	-0.271
-597.040	-12.617	-0.134	-0.088
-596.025	-152.995	-0.229	0.016
-595.011	192.569	-0.108	-0.165
-593.996	-200.000	-0.040	-0.222
-592.982	-107.797	0.023	-0.005
-591.967	46.699	0.205	0.192
-590.952	183.019	-0.124	-0.185
-589.938	61.174	-0.164	-0.165
-588.923	190.362	0.312	-0.473
-587.909	-168.303	0.181	-0.007
-586.894	-200.000	0.014	0.098
-585.879	-75.133	-0.227	-0.082
-584.865	-124.495	0.276	0.043
-583.850	-66.763	-0.151	0.060
-582.836	-200.000	0.010	0.146
-581.821	-200.000	0.021	-0.239
-580.806	53.307	-0.140	0.135
-579.792	-47.563	0.095	0.046
-578.777	-36.003	0.027	-0.014
-577.763	-22.282	0.276	-0.168
-576.748	-12.711	0.193	0.127
-575.733	22.647	-0.179	0.147
-574.719	-68.631	0.290	0.113
-573.704	800.000	-0.031	0.111
-572.690	91.091	0.112	-0.127
-571.675	184.558	0.092	-0.138
-570.661	105.402	0.224	-0.266
-569.646	-130.376	-0.308	0.042
-568.631	129.396	-0.114	-0.147
-567.617	212.774	0.167	-0.266
-566.602	14.375	-0.206	-0.162
-565.588	0.393	-0.147	-0.105
-564.573	800.000	0.080	-0.256
-563.558	-65.200	0.313	0.127
-562.544	-166.098	-0.259	-0.011
-561.529	366.814	0.087	0.178
-560.515	-37.427	0.229	-0.123
-559.500	143.665	0.136	-0.183
-558.485	-126.000	-0.204	-0.031
-557.471	-146.365	-0.209	-0.018
-556.456	8.954	0.106	-0.081
-555.442	114.894	0.074	0.091
-554.427	-102.075	-0.186	0.045
-553.412	533.780	-0.056	-0.133
-552.398	-138.844	-0.219	0.024
-551.383	-200.000	-0.004	-0.115
-550.369	-200.000	-0.000	0.370
-549.354	-76.311	0.133	0.047
-548.339	-44.690	-0.112	-0.056
-547.325	-200.000	-0.030	-0.283
-546.310	-138.715	-0.436	0.048
-545.296	-200.000	-0.012	-0.185
-544.281	-200.000	-0.015	-0.251
-543.266	-200.000	0.019	0.330
-542.252	-115.996	-0.169	0.032
-541.237	681.420	-0.094	0.247
-540.223	-200.000	-0.054	0.331
-539.208	-78.039	-0.153	0.053
-538.193	-14.407	0.142	0.092
-537.179	-11.712	-0.033	0.022
-536.164	-116.737	0.236	-0.044
-535.150	318.910	0.010	-0.020
-534.135	-80.307	-0.260	0.088
-533.121	192.219	0.158	-0.240
-532.106	713.829	0.110	-0.294
-531.091	-200.000	-0.016	-0.105
-530.077	-200.000	0.039	-0.209
-529.062	266.367	-0.029	-0.051
-528.048	-11.407	-0.174	-0.115
-527.033	44.376	-0.379	0.350
-526.018	14.660	0.310	-0.244
-525.004	-45.964	0.223	-0.111
-523.989	-152.913	-0.260	-0.018
-522.975	-179.884	-0.085	-0.002
-521.960	298.372	0.074	0.137
-520.945	-79.373	0.036	-0.012
-519.931	-87.614	0.162	0.049
-518.916	-18.202	0.174	-0.109
-517.902	800.000	-0.041	0.129
-516.887	296.756	-0.112	-0.206
-515.872	413.126	0.137	-0.293
-514.858	-200.000	0.007	-0.108
-513.843	-42.174	0.254	0.130
-512.829	-16.348	-0.259	-0.165
-511.814	-149.668	0.334	0.026
-510.799	-0.546	-0.033	0.023
-509.785	-200.000	0.012	0.247
-508.770	460.380	-0.121	-0.272
-507.756	-200.000	0.010	0.258
-506.741	39.070	0.383	0.344
-505.726	159.834	0.208	-0.292
-504.712	800.000	-0.080	-0.309
-503.697	-14.200	0.242	0.157
-502.683	444.614	-0.102	0.226
-501.668	-143.761	0.049	-0.005
-500.653	157.896	0.112	0.156
-499.639	108.763	0.039	-0.046
-498.624	16.369	0.146	-0.116
-497.610	61.694	0.034	0.034
-496.595	539.343	-0.154	0.368
-495.581	77.136	0.247	0.263
-494.566	-42.965	-0.202	0.103
-493.551	476.519	-0.117	-0.266
-492.537	14.932	-0.082	0.064
-491.522	127.937	0.055	-0.071
-490.508	-200.000	0.016	0.083
-489.493	1.549	0.073	0.053
-488.478	-200.000	0.017	-0.230
-487.464	405.323	-0.051	0.107
-486.449	-85.829	0.304	0.095
-485.435	800.000	0.018	0.061
-484.420	191.175	0.217	0.328
-483.405	800.000	-0.065	-0.266
-482.391	88.079	-0.246	-0.274
-481.376	-200.000	-0.055	0.263
-480.362	800.000	-0.041	0.128
-479.347	-130.474	-0.187	-0.025
-478.332	-128.412	-0.065	-0.009
-477.318	102.097	0.125	0.146
-476.303	-200.000	-0.003	-0.096
-475.289	98.967	0.162	-0.187
-474.274	404.316	0.097	-0.205
-473.259	800.000	0.014	-0.051
-472.245	-180.502	0.088	-0.002
-471.230	-43.627	-0.058	-0.029
-470.216	541.415	0.122	-0.292
-469.201	182.753	0.058	0.086
-468.186	-200.000	-0.017	0.129
-467.172	4.572	-0.075	0.055
-466.157	672.642	0.026	0.068
-465.143	-59.161	-0.260	0.112
-464.128	-107.083	-0.472	0.104
-463.113	800.000	-0.096	-0.381
-462.099	60.584	0.083	-0.082
-461.084	-200.000	-0.016	-0.236
-460.070	-95.318	0.271	0.073
-459.055	370.254	0.074	-0.150
-458.040	-84.226	-0.503	-0.160
-457.026	-200.000	-0.018	0.108
-456.011	-120.988	0.397	-0.067
-454.997	-200.000	-0.010	0.124
-453.982	-141.987	0.108	0.011
-452.968	-150.008	-0.377	-0.029
-451.953	117.021	0.215	-0.264
-450.938	-58.925	0.157	-0.068
-449.924	800.000	-0.064	-0.256
-448.909	-53.874	0.258	-0.118
-447.895	281.081	-0.067	0.119
-446.880	-171.384	0.147	0.005
-445.865	800.000	-0.054	0.156
-444.851	-31.925	0.325	0.183
-443.836	101.397	-0.206	-0.241
-442.822	219.062	-0.016	0.025
-441.807	149.788	0.256	-0.348
-440.792	10.382	0.041	0.031
-439.778	-172.088	-0.285	-0.009
-438.763	800.000	0.047	-0.198
-437.749	-200.000	0.010	-0.112
-436.734	800.000	-0.063	-0.179
-435.719	800.000	0.036	0.115
-434.705	-200.000	0.046	0.277
-433.690	562.821	0.053	0.128
-432.676	255.540	-0.103	-0.176
-431.661	-27.095	0.119	-0.069
-430.646	800.000	0.072	0.254
-429.632	-67.044	0.280	0.111
-428.617	-36.002	0.191	0.104
-427.603	-200.000	0.042	-0.196
-426.588	-200.000	-0.019	0.306
-425.573	-200.000	0.003	0.331
-424.559	109.632	0.138	0.166
-423.544	1.296	0.092	-0.066
-422.530	20.108	-0.230	-0.186
-421.515	115.652	0.235	-0.287
-420.500	-44.930	0.060	-0.030
-419.486	-152.613	-0.111	-0.008
-418.471	-200.000	0.021	-0.128
-417.457	-127.697	-0.266	0.038
-416.442	96.380	-0.293	-0.335
-415.428	54.210	0.177	-0.170
-414.413	71.414	-0.174	-0.181
-413.398	-200.000	-0.043	-0.332
-412.384	-27.372	-0.256	-0.149
-411.369	-87.912	0.299	-0.090
-410.355	-113.497	0.050	0.010
-409.340	192.611	-0.089	-0.135
-408.325	-200.000	0.021	0.221
-407.311	368.091	0.101	-0.204
-406.296	158.238	-0.262	0.364
-405.282	-200.000	0.027	-0.243
-404.267	513.611	0.084	0.196
-403.252	294.406	-0.274	-0.501
-402.238	-133.019	-0.205	-0.026
-401.223	204.519	0.222	0.345
-400.209	75.696	0.075	0.079
-399.194	425.062	0.080	0.172
-398.179	251.823	0.035	0.060
-397.165	87.200	-0.100	0.111
-396.150	72.421	-0.328	0.342
-395.136	-108.258	-0.033	0.007
-394.121	5.173	-0.218	-0.160
-393.106	-26.202	0.120	-0.070
-392.092	800.000	0.064	-0.199
-391.077	246.920	-0.165	-0.278
-390.063	276.303	0.107	-0.189
-389.048	-69.556	0.191	0.073
-388.033	-200.000	0.034	-0.247
-387.019	-72.447	-0.289	0.107
-386.004	184.059	-0.118	-0.174
-384.990	-200.000	-0.038	0.214
-383.975	-37.478	-0.245	0.131
-382.960	-200.000	-0.056	0.399
-381.946	270.286	0.097	0.171
-380.931	32.377	-0.089	0.077
-379.917	-200.000	-0.034	0.313
-378.902	-131.765	-0.090	0.012
-377.888	-64.325	0.342	-0.139
-376.873	74.785	0.047	0.050
-375.858	800.000	0.102	0.305
-374.844	800.000	-0.081	-0.271
-373.829	-72.850	-0.128	-0.047
-372.815	-2.457	-0.057	0.040
-371.800	-48.959	0.272	-0.130
-370.785	-181.186	-0.050	0.001
-369.771	268.590	-0.099	0.173
-368.756	-200.000	0.014	0.394
-367.742	-51.123	-0.254	0.119
-366.727	-92.385	-0.284	0.080
-365.712	-200.000	-0.005	0.143
-364.698	29.790	0.205	0.175
-363.683	303.365	-0.098	0.181
-362.669	-104.781	-0.098	-0.023
-361.654	690.694	0.045	-0.116
-360.639	-112.565	0.308	0.061
-359.625	800.000	0.084	0.259
-358.610	-47.136	-0.074	0.036
-357.596	-34.951	0.112	-0.061
-356.581	67.864	-0.217	-0.222
-355.566	196.926	0.177	0.269
-354.552	-112.000	-0.201	-0.040
-353.537	800.000	-0.032	-0.104
-352.523	166.198	0.091	-0.129
-351.508	68.952	-0.124	0.127
-350.493	276.788	0.125	-0.222
-349.479	520.314	-0.067	-0.156
-348.464	800.000	0.031	0.109
-347.450	151.976	0.073	0.099
-346.435	800.000	-0.147	0.451
-345.420	800.000	-0.076	-0.278
-344.406	-200.000	-0.112	0.506
-343.391	795.260	-0.070	-0.192
-342.377	-114.626	-0.361	-0.069
-341.362	-200.000	0.017	-0.189
-340.348	103.396	0.071	-0.084
-339.333	-200.000	0.011	0.118
-338.318	462.705	0.082	-0.183
-337.304	-59.367	0.063	0.027
-336.289	262.437	0.064	0.111
-335.275	-159.891	-0.137	-0.008
-334.260	248.851	0.127	0.214
-333.245	-87.680	0.355	-0.107
-332.231	379.699	-0.084	-0.171
-331.216	216.385	0.172	0.272
-330.202	-7.396	0.426	0.288
-329.187	-200.000	-0.007	-0.254
-328.172	33.828	-0.193	-0.168
-327.158	-118.089	-0.235	-0.042
-326.143	-110.080	-0.209	-0.043
-325.129	171.503	0.033	-0.048
-324.114	-163.539	0.525	-0.025
-323.099	-28.107	0.094	-0.055
-322.085	-200.000	-0.023	0.255
-321.070	-83.357	0.042	-0.013
-320.056	-62.776	-0.177	-0.073
-319.041	-71.319	0.092	-0.034
-318.026	716.520	0.154	0.407
-317.012	-71.730	-0.200	-0.074
-315.997	8.007	0.320	-0.239
-314.983	-19.977	-0.089	0.055
-313.968	-36.136	-0.174	0.094
-312.953	-200.000	0.003	0.118
-311.939	-119.050	-0.172	0.030
-310.924	-56.905	0.070	0.031
-309.910	-30.056	0.224	-0.127
-308.895	-74.085	0.182	0.066
-307.880	-43.446	-0.310	0.156
-306.866	355.499	0.164	-0.326
-305.851	-92.467	-0.142	0.040
-304.837	-116.632	0.151	0.028
-303.822	-200.000	0.063	-0.340
-302.807	92.077	0.295	-0.331
-301.793	-98.717	0.060	-0.015
-300.778	80.214	-0.124	0.133
-299.764	180.701	0.138	-0.201
-298.749	-114.457	0.236	0.045
-297.735	-136.350	-0.224	0.026
-296.720	-56.560	-0.237	-0.105
-295.705	265.745	0.273	0.475
-294.691	67.240	-0.092	-0.093
-293.676	-89.648	0.031	-0.009
-292.662	477.611	0.154	-0.347
-291.647	-200.000	0.066	-0.314
-290.632	-200.000	-0.021	-0.131
-289.618	140.903	0.272	0.358
-288.603	800.000	-0.091	-0.274
-287.589	-102.623	-0.226	0.054
-286.574	-44.784	-0.120	0.060
-285.559	319.086	0.126	0.238
-284.545	-110.055	-0.244	-0.051
-283.530	-33.685	0.051	-0.028
-282.516	289.669	-0.111	-0.201
-281.501	-35.086	-0.320	-0.174
-280.486	-73.852	-0.137	0.050
-279.472	-92.208	-0.235	-0.066
-278.457	5.975	0.203	0.150
-277.443	355.178	0.173	-0.343
-276.428	246.406	-0.122	-0.204
-275.413	287.317	-0.052	0.094
-274.399	236.891	-0.063	0.103
-273.384	-200.000	-0.007	-0.254
-272.370	800.000	-0.037	0.106
-271.355	371.461	-0.164	-0.331
-270.340	92.687	-0.084	0.094
-269.326	-29.199	0.215	-0.123
-268.311	460.928	-0.036	-0.079
-267.297	-99.619	-0.137	0.034
-266.282	243.501	0.068	-0.114
-265.267	79.302	-0.072	0.077
-264.253	75.622	0.101	0.106
-263.238	-13.165	-0.296	0.191
-262.224	-200.000	0.005	-0.276
-261.209	81.968	0.127	0.136
-260.195	-200.000	-0.014	0.185
-259.180	-179.664	-0.263	-0.006
-258.165	-66.432	-0.462	0.183
-257.151	-200.000	-0.023	0.221
-256.136	349.656	-0.058	-0.114
-255.122	-200.000	-0.003	-0.286
-254.107	1.844	-0.184	-0.132
-253.092	-103.526	-0.083	0.020
-252.078	1.069	0.191	-0.136
-251.063	-171.874	0.259	0.008
-250.049	-47.519	-0.241	-0.116
-249.034	-200.000	-0.010	0.277
-248.019	800.000	-0.021	-0.061
-247.005	749.969	0.094	0.253
-245.990	-140.363	0.188	-0.020
-244.976	-200.000	0.001	-0.140
-243.961	-68.892	-0.213	0.082
-242.946	295.054	0.063	-0.114
-241.932	134.000	-0.185	0.238
-240.917	174.550	-0.128	0.184
-239.903	-87.667	0.008	0.002
-238.888	-117.431	0.384	0.069
-237.873	-200.000	-0.037	0.207
-236.859	752.181	-0.108	-0.289
-235.844	-171.310	0.265	-0.009
-234.830	-84.174	0.109	0.034
-233.815	-200.000	0.007	-0.222
-232.800	329.842	0.050	0.095
-231.786	612.752	0.037	-0.093
-230.771	92.352	0.188	0.211
-229.757	94.507	0.147	-0.166
-228.742	83.945	0.152	-0.165
-227.727	23.867	-0.130	-0.106
-226.713	-45.820	0.205	-0.100
-225.698	38.201	-0.194	0.172
-224.684	-130.425	0.119	0.016
-223.669	72.063	-0.130	-0.135
-222.655	277.159	0.245	0.433
-221.640	416.925	-0.144	0.306
-220.625	-200.000	0.003	0.150
-219.611	663.901	-0.096	-0.246
-218.596	-185.538	0.124	0.002
-217.582	-200.000	0.012	-0.073
-216.567	-26.544	-0.243	0.141
-215.552	-127.372	0.287	0.042
-214.538	-0.573	-0.174	0.123
-213.523	-67.912	-0.210	0.081
-212.509	24.990	-0.165	0.136
-211.494	52.224	0.041	-0.039
-210.479	127.345	-0.307	0.387
-209.465	-132.684	-0.254	-0.032
-208.450	79.826	-0.103	-0.110
-207.436	-41.497	0.315	0.161
-206.421	-76.285	-0.125	0.044
-205.406	-96.315	-0.136	0.036
-204.392	50.382	0.110	-0.103
-203.377	-200.000	-0.031	0.250
-202.363	136.106	0.089	-0.115
-201.348	-128.355	-0.157	0.022
-200.333	708.080	-0.154	0.405
-199.319	-28.725	0.109	0.062
-198.304	-84.049	0.154	0.049
-197.290	-162.750	0.157	0.008
-196.275	570.236	-0.022	-0.054
-195.260	800.000	0.059	0.250
-194.246	37.679	0.155	0.137
-193.231	-107.931	0.183	-0.039
-192.217	800.000	0.053	-0.213
-191.202	44.788	-0.270	0.247
-190.187	800.000	-0.046	-0.135
-189.173	-51.041	-0.115	-0.053
-188.158	-36.943	-0.307	-0.163
-187.144	-200.000	-0.019	-0.181
-186.129	-200.000	0.252	-0.001
-185.114	378.299	-0.145	0.294
-184.100	-60.076	0.101	-0.043
-183.085	600.602	0.012	0.030
-182.071	-31.426	-0.253	0.141
-181.056	220.400	-0.169	0.269
-180.042	302.361	-0.125	0.230
-179.027	-113.180	0.465	-0.091
-178.012	800.000	-0.053	0.186
-176.998	-200.000	-0.058	0.428
-175.983	-26.350	0.060	0.035
-174.969	60.771	-0.177	-0.174
-173.954	4.101	-0.106	-0.077
-172.939	85.065	0.283	0.308
-171.925	-116.481	-0.110	-0.020
-170.910	-114.992	0.359	-0.068
-169.896	330.666	0.134	0.256
-168.881	-100.256	0.423	0.104
-167.866	-107.826	-0.092	-0.020
-166.852	-33.552	0.253	0.138
-165.837	-2.240	0.155	-0.108
-164.823	-1.723	0.227	0.158
-163.808	800.000	-0.080	0.329
-162.793	45.486	-0.250	-0.229
-161.779	-15.386	-0.107	-0.068
-160.764	-107.458	-0.247	-0.054
-159.750	33.569	0.140	0.121
-158.735	-11.445	-0.079	-0.051
-157.720	-101.797	0.123	0.029
-156.706	36.338	0.137	-0.120
-155.691	-139.207	0.194	0.021
-154.677	-142.706	-0.085	-0.008
-153.662	-68.838	0.245	0.094
-152.647	800.000	0.088	0.270
-151.633	800.000	-0.130	-0.416
-150.618	106.577	0.104	-0.122
-149.604	369.379	-0.123	0.247
-148.589	49.595	0.156	-0.146
-147.574	-188.225	0.263	-0.003
-146.560	800.000	0.116	0.321
-145.545	-200.000	0.035	0.384
-144.531	-15.993	-0.064	0.041
-143.516	-77.775	-0.262	0.090
-142.502	800.000	0.055	0.192
-141.487	217.016	0.107	0.169
-140.472	-38.953	-0.327	0.171
-139.458	-42.233	0.279	-0.141
-138.443	-200.000	-0.007	0.263
-137.429	800.000	-0.037	0.105
-136.414	800.000	0.091	0.267
-135.399	-71.051	-0.187	0.070
-134.385	800.000	0.044	-0.153
-133.370	-141.075	-0.333	-0.034
-132.356	-123.624	-0.102	-0.016
-131.341	327.186	0.191	0.363
-130.326	43.143	-0.231	0.209
-129.312	-94.858	0.033	-0.009
-128.297	-78.085	-0.400	0.136
-127.283	-83.981	0.088	0.028
-126.268	800.000	0.074	-0.319
-125.253	-102.803	0.292	-0.069
-124.239	800.000	0.112	-0.435
-123.224	-200.000	-0.016	-0.126
-122.210	800.000	0.085	-0.295
-121.195	750.065	0.122	-0.327
-120.180	-144.033	0.197	-0.018
-119.166	71.291	0.104	0.107
-118.151	464.224	0.045	-0.100
-117.137	82.244	-0.335	0.360
-116.122	-55.900	0.240	0.106
-115.107	97.260	0.184	0.209
-114.093	85.267	-0.009	-0.009
-113.078	-150.877	0.183	0.014
-112.064	15.131	-0.197	-0.152
-111.049	800.000	0.025	-0.084
-110.034	800.000	-0.113	0.326
-109.020	668.849	-0.054	-0.138
-108.005	22.791	0.100	-0.081
-106.991	-200.000	0.045	0.246
-105.976	800.000	-0.072	0.198
-104.962	-200.000	-0.007	-0.264
-103.947	394.922	0.065	-0.133
-102.932	123.660	-0.154	-0.191
-101.918	194.831	0.156	0.235
-100.903	800.000	0.062	-0.170
-99.889	-30.160	0.065	0.036
-98.874	35.339	-0.054	-0.047
-97.859	-200.000	0.536	0.001
-96.845	-29.513	0.079	-0.045
-95.830	65.698	0.087	0.087
-94.816	-125.807	0.501	0.075
-93.801	46.447	-0.150	-0.138
-92.786	-72.346	0.312	-0.114
-91.772	-138.113	-0.334	0.037
-90.757	1.235	-0.052	-0.037
-89.743	16.516	-0.322	0.252
-88.728	3.458	-0.058	0.042
-87.713	-147.806	-0.108	0.009
-86.699	-54.175	0.323	-0.145
-85.684	155.673	0.137	0.186
-84.670	693.937	0.031	0.080
-83.655	-200.000	0.046	0.389
-82.640	-52.505	-0.262	0.120
-81.626	307.471	0.159	0.293
-80.611	229.971	-0.084	0.136
-79.597	49.394	0.103	0.096
-78.582	800.000	-0.073	0.292
-77.567	-56.350	-0.406	-0.178
-76.553	-38.572	-0.220	0.115
-75.538	69.662	-0.199	-0.202
-74.524	-28.895	-0.182	-0.103
-73.509	249.572	-0.161	0.270
-72.494	135.103	-0.294	-0.378
-71.480	-37.530	-0.066	0.035
-70.465	-42.744	0.109	0.055
-69.451	620.111	-0.021	0.051
-68.436	506.069	0.057	-0.130
-67.422	-138.248	-0.568	-0.062
-66.407	282.437	-0.211	-0.374
-65.392	-68.796	0.352	-0.134
-64.378	-39.966	0.182	0.094
-63.363	235.228	0.021	0.035
-62.349	-200.000	-0.011	0.123
-61.334	92.779	-0.821	-0.916
-60.319	-200.000	0.083	0.623
-59.305	359.242	-0.479	-0.946
-58.290	148.840	0.770	1.028
-57.276	578.985	0.581	1.404
-56.261	-200.000	99.354	595.956
-55.246	515.367	1402.674	3233.473
-54.232	156.010	2579.473	3510.548
-53.217	101.700	2300.221	2647.533
-52.203	37.886	2059.011	1806.179
-51.188	32.975	1973.649	1687.483
-50.173	31.453	1955.584	1658.488
-49.159	46.661	2007.935	1839.974
-48.144	47.894	2026.443	1867.957
-47.130	33.621	1986.933	1704.377
-46.115	31.359	1976.092	1674.765
-45.100	31.209	1973.431	1671.103
-44.086	31.240	1970.977	1669.235
-43.071	31.162	1968.596	1666.457
-42.057	31.133	1966.592	1664.434
-41.042	31.152	1964.256	1662.564
-40.027	31.207	1962.695	1661.663
-39.013	31.249	1960.483	1660.104
-37.998	31.213	1958.649	1658.159
-36.984	31.181	1957.057	1656.468
-35.969	31.204	1955.260	1655.081
-34.954	31.358	1953.215	1654.648
-33.940	31.335	1951.750	1653.136
-32.925	31.355	1950.389	1652.101
-31.911	31.326	1948.698	1650.345
-30.896	31.373	1947.020	1649.267
-29.881	31.320	1945.946	1647.828
-28.867	31.385	1943.739	1646.467
-27.852	31.357	1942.392	1645.011
-26.838	31.374	1940.156	1643.206
-25.823	31.359	1938.599	1641.687
-24.809	31.413	1936.653	1640.448
-23.794	31.345	1935.128	1638.494
-22.779	31.361	1933.283	1637.005
-21.765	31.355	1931.799	1635.635
-20.750	31.338	1930.135	1634.015
-19.736	31.201	1929.624	1632.316
-18.721	31.227	1927.725	1630.873
-17.706	31.381	1925.037	1629.881
-16.692	31.365	1923.438	1628.317
-15.677	31.310	1921.966	1626.529
-14.663	31.274	1920.597	1624.989
-13.648	31.353	1918.798	1624.095
-12.633	31.307	1918.211	1623.135
-11.619	31.338	1916.573	1621.948
-10.604	31.266	1915.573	1620.416
-9.590	31.286	1914.226	1619.384
-8.575	31.318	1912.573	1618.201
-7.560	31.353	1911.136	1617.220
-6.546	31.315	1910.313	1616.137
-5.531	31.361	1908.887	1615.257
-4.517	31.360	1907.548	1614.059
-3.502	31.357	1906.240	1612.859
-2.487	31.310	1905.275	1611.576
-1.473	31.404	1903.959	1611.202
-0.458	31.426	1899.546	1607.594
0.556	29.171	1879.655	1579.384
1.571	24.966	1861.361	1528.083
2.586	21.093	1883.548	1512.647
3.600	20.085	1919.130	1532.183
4.615	19.829	1915.153	1526.615
5.629	15.458	1814.470	1409.601
6.644	6.114	1693.166	1241.720
7.659	0.570	1654.606	1170.439
8.673	0.189	1651.023	1164.859
9.688	0.028	1650.049	1162.821
10.702	0.010	1648.806	1161.700
11.717	-0.017	1644.915	1158.655
12.731	0.579	1644.923	1163.146
13.746	7.341	1659.230	1225.564
14.761	15.684	1675.773	1302.563
15.775	17.799	1678.315	1320.818
16.790	16.946	1674.364	1311.002
17.804	15.863	1671.344	1300.163
18.819	14.898	1668.267	1290.206
19.834	14.255	1665.829	1283.258
20.848	14.006	1664.378	1280.106
21.863	13.775	1662.674	1276.902
22.877	13.536	1660.709	1273.442
23.892	13.251	1659.604	1270.299
24.907	13.116	1658.812	1268.540
25.921	13.121	1658.043	1267.881
26.936	13.269	1656.234	1267.514
27.950	13.183	1655.852	1266.457
28.965	13.211	1654.954	1265.870
29.980	13.272	1654.398	1265.802
30.994	13.323	1653.729	1265.563
32.009	13.346	1652.582	1264.753
33.023	13.408	1651.688	1264.427
34.038	13.467	1650.857	1264.130
35.053	13.422	1649.939	1262.973
36.067	13.394	1648.705	1261.702
37.082	13.387	1647.270	1260.443
38.096	13.311	1646.662	1259.287
39.111	13.301	1645.833	1258.462
40.126	13.377	1645.202	1258.449
41.140	13.318	1644.606	1257.428
42.155	13.251	1643.064	1255.632
43.169	13.181	1641.377	1253.701
44.184	13.173	1640.383	1252.771
45.199	13.142	1639.299	1251.598
46.213	13.156	1638.122	1250.692
47.228	13.169	1637.190	1249.967
48.242	13.160	1635.808	1248.733
49.257	13.291	1634.571	1248.672
50.271	13.305	1633.204	1247.621
51.286	13.300	1632.247	1246.742
52.301	13.278	1630.737	1245.310
53.315	13.279	1629.387	1244.179
54.330	13.219	1627.816	1242.421
55.344	13.244	1626.025	1241.129
56.359	13.226	1624.926	1240.043
57.374	13.173	1623.734	1238.627
58.388	13.175	1622.606	1237.675
59.403	13.224	1621.276	1236.917
60.417	13.161	1619.912	1235.296
61.432	13.179	1619.079	1234.688
62.447	13.040	1618.207	1232.870
63.461	13.060	1616.768	1231.817
64.476	13.016	1615.706	1230.570
65.490	13.032	1614.381	1229.575
66.505	12.965	1613.513	1228.304
67.520	13.130	1611.905	1228.195
68.534	13.122	1611.100	1227.419
69.549	13.059	1610.337	1226.255
70.563	13.097	1609.134	1225.513
71.578	13.080	1607.546	1224.070
72.593	13.096	1606.315	1223.147
73.607	12.987	1605.739	1221.792
74.622	13.006	1604.735	1221.056
75.636	13.016	1603.249	1219.892
76.651	13.011	1602.590	1219.244
77.666	13.009	1601.762	1218.497
78.680	12.936	1601.068	1217.321
79.695	13.031	1600.073	1217.158
80.709	13.013	1599.471	1216.455
81.724	13.105	1598.042	1215.941
82.739	13.109	1596.954	1215.034
83.753	13.138	1596.052	1214.452
84.768	13.229	1594.969	1214.194
85.782	13.310	1594.417	1214.258
86.797	13.298	1593.709	1213.522
87.812	13.319	1592.203	1212.421
88.826	13.245	1591.520	1211.256
89.841	13.158	1590.717	1209.896
90.855	13.268	1589.335	1209.545
91.870	13.325	1588.271	1209.049
92.884	13.313	1586.899	1207.806
93.899	13.341	1586.453	1207.565
94.914	13.372	1585.054	1206.621
95.928	13.402	1584.119	1206.017
96.943	13.433	1582.724	1205.075
97.957	13.353	1582.014	1203.848
98.972	13.268	1580.395	1201.889
99.987	13.340	1578.526	1200.887
101.001	13.327	1577.139	1199.630
102.016	13.391	1575.683	1198.879
103.030	13.294	1574.178	1196.925
104.045	13.331	1573.110	1196.280
105.060	13.300	1571.889	1195.016
106.074	13.350	1570.290	1194.059
107.089	13.269	1568.586	1192.072
108.103	13.150	1567.263	1190.104
109.118	13.139	1565.528	1188.604
110.133	13.138	1564.559	1187.753
111.147	13.151	1562.619	1186.273
112.162	13.103	1561.576	1185.030
113.176	13.076	1560.570	1183.966
114.191	13.166	1559.403	1183.622
115.206	13.256	1558.045	1183.131
116.220	13.238	1556.404	1181.651
117.235	13.118	1555.663	1180.123
118.249	13.227	1553.885	1179.449
119.264	13.224	1552.018	1177.907
120.279	13.197	1551.254	1177.035
121.293	13.161	1549.862	1175.612
122.308	13.215	1547.896	1174.405
123.322	13.199	1546.696	1173.276
124.337	13.116	1545.481	1171.664
125.352	13.070	1544.262	1170.306
126.366	13.092	1543.539	1169.815
127.381	13.170	1542.200	1169.244
128.395	13.167	1540.763	1168.029
129.410	13.104	1539.775	1166.738
130.424	13.131	1538.018	1165.488
131.439	13.168	1537.269	1165.079
132.454	13.164	1535.936	1163.937
133.468	13.199	1534.286	1162.833
134.483	13.196	1533.302	1161.965
135.497	13.262	1531.600	1161.031
136.512	13.226	1530.038	1159.493
137.527	13.325	1528.887	1159.213
138.541	13.277	1527.716	1157.883
139.556	13.230	1526.142	1156.264
140.570	13.198	1525.173	1155.200
141.585	13.360	1523.390	1154.880
142.600	13.439	1522.182	1154.414
143.614	13.422	1521.342	1153.553
144.629	13.407	1520.172	1152.459
145.643	13.453	1518.685	1151.550
146.658	13.414	1517.557	1150.324
147.673	13.415	1515.954	1149.018
148.687	13.439	1514.160	1147.717
149.702	13.389	1512.910	1146.323
150.716	13.359	1511.444	1144.908
151.731	13.370	1509.998	1143.784
152.746	13.397	1509.101	1143.190
153.760	13.460	1507.023	1141.947
154.775	13.381	1506.356	1140.795
155.789	13.389	1505.154	1139.841
156.804	13.466	1503.665	1139.141
157.819	13.506	1502.343	1138.317
158.833	13.501	1501.593	1137.610
159.848	13.553	1500.286	1136.880
160.862	13.500	1499.246	1135.627
161.877	13.596	1497.827	1135.107
162.892	13.635	1496.109	1133.976
163.906	13.530	1495.056	1132.358
164.921	13.371	1494.462	1130.718
165.935	13.493	1492.860	1130.242
166.950	13.474	1491.904	1129.290
167.964	13.563	1490.666	1128.858
168.979	13.555	1489.712	1127.981
169.994	13.540	1488.352	1126.749
171.008	13.593	1487.447	1126.321
172.023	13.550	1486.474	1125.194
173.037	13.624	1484.960	1124.452
174.052	13.646	1483.890	1123.690
175.067	13.702	1482.999	1123.299
176.081	13.719	1481.513	1122.184
177.096	13.588	1480.202	1120.212
178.110	13.625	1478.924	1119.392
179.125	13.522	1478.092	1117.966
180.140	13.537	1477.106	1117.222
181.154	13.616	1476.186	1116.961
182.169	13.616	1475.094	1116.040
183.183	13.641	1474.006	1115.286
184.198	13.731	1472.591	1114.722
185.213	13.832	1471.259	1114.293
186.227	13.835	1470.348	1113.523
187.242	13.831	1469.349	1112.641
188.256	13.880	1468.020	1111.861
189.271	13.881	1467.317	1111.239
190.286	13.850	1466.460	1110.284
191.300	13.825	1465.273	1109.124
192.315	13.721	1464.075	1107.419
193.329	13.585	1462.778	1105.436
194.344	13.634	1461.548	1104.737
195.359	13.697	1460.763	1104.462
196.373	13.681	1460.113	1103.771
197.388	13.779	1458.750	1103.290
198.402	13.755	1457.713	1102.250
199.417	13.889	1456.184	1101.883
200.432	14.034	1455.375	1102.136
201.446	14.046	1454.605	1101.535
202.461	14.018	1453.216	1100.199
203.475	14.066	1452.446	1099.840
204.490	14.103	1451.129	1098.989
205.504	14.130	1450.362	1098.491
206.519	14.070	1449.006	1096.966
207.534	14.021	1447.529	1095.432
208.548	13.987	1446.861	1094.602
209.563	14.024	1445.589	1093.788
210.577	14.013	1444.983	1093.159
211.592	14.091	1443.672	1092.588
212.607	14.085	1443.185	1092.078
213.621	14.146	1442.216	1091.651
214.636	14.191	1441.520	1091.322
215.650	14.087	1441.231	1090.323
216.665	14.128	1439.639	1089.296
217.680	14.242	1438.729	1089.252
218.694	14.192	1438.120	1088.372
219.709	14.211	1437.219	1087.714
220.723	14.242	1436.317	1087.142
221.738	14.233	1435.257	1086.180
222.753	14.264	1434.600	1085.788
223.767	14.286	1433.756	1085.203
224.782	14.334	1432.612	1084.547
225.796	14.292	1431.669	1083.465
226.811	14.380	1430.830	1083.305
227.826	14.367	1429.972	1082.479
228.840	14.409	1429.048	1081.958
229.855	14.416	1427.880	1081.023
230.869	14.393	1426.924	1080.053
231.884	14.416	1425.864	1079.302
232.899	14.374	1425.015	1078.293
233.913	14.325	1423.890	1077.033
234.928	14.325	1422.958	1076.229
235.942	14.308	1421.414	1074.861
236.957	14.282	1420.227	1073.695
237.972	14.234	1419.355	1072.634
238.986	14.327	1418.216	1072.276
240.001	14.453	1417.462	1072.421
241.015	14.322	1416.787	1070.976
242.030	14.316	1415.530	1069.890
243.045	14.456	1414.395	1069.834
244.059	14.435	1413.360	1068.827
245.074	14.431	1412.608	1068.139
246.088	14.469	1412.048	1067.861
247.103	14.521	1411.354	1067.573
248.117	14.565	1410.577	1067.175
249.132	14.736	1409.231	1067.156
250.147	14.653	1409.232	1066.532
251.161	14.680	1408.687	1066.194
252.176	14.812	1407.691	1066.190
253.190	14.807	1406.743	1065.345
254.205	14.759	1406.243	1064.565
255.220	14.742	1405.503	1063.802
256.234	14.886	1404.569	1063.919
257.249	14.927	1403.460	1063.248
258.263	14.910	1402.606	1062.396
259.278	14.941	1401.758	1061.859
260.293	14.985	1401.128	1061.564
261.307	14.958	1400.222	1060.615
262.322	15.075	1398.975	1060.315
263.336	15.077	1398.364	1059.771
264.351	15.000	1397.662	1058.659
265.366	15.050	1396.937	1058.335
266.380	15.081	1396.059	1057.769
267.395	15.036	1394.701	1056.365
268.409	15.011	1394.167	1055.708
269.424	15.111	1392.652	1055.099
270.439	15.110	1391.765	1054.326
271.453	15.140	1390.701	1053.613
272.468	15.053	1390.218	1052.610
273.482	15.111	1389.160	1052.078
274.497	15.046	1388.613	1051.161
275.512	15.154	1387.116	1050.614
276.526	15.131	1386.622	1050.001
277.541	15.084	1385.698	1048.915
278.555	15.038	1384.935	1047.960
279.570	15.074	1384.352	1047.649
280.585	15.162	1383.154	1047.201
281.599	15.167	1382.384	1046.555
282.614	15.276	1381.353	1046.362
283.628	15.164	1380.274	1044.755
284.643	15.278	1379.011	1044.414
285.657	15.190	1378.590	1043.456
286.672	15.170	1377.706	1042.571
287.687	15.272	1376.500	1042.199
288.701	15.145	1375.458	1040.530
289.716	15.267	1374.408	1040.404
290.730	15.242	1373.878	1039.750
291.745	15.256	1372.582	1038.766
292.760	15.188	1371.638	1037.540
293.774	15.394	1370.707	1038.019
294.789	15.301	1369.664	1036.561
295.803	15.439	1369.015	1036.829
296.818	15.499	1367.973	1036.322
297.833	15.391	1367.502	1035.203
298.847	15.305	1366.804	1034.057
299.862	15.381	1365.594	1033.515
300.876	15.367	1364.428	1032.456
301.891	15.438	1363.248	1031.908
302.906	15.425	1362.650	1031.285
303.920	15.487	1362.129	1031.182
304.935	15.643	1361.145	1031.301
305.949	15.575	1360.788	1030.521
306.964	15.684	1359.046	1029.782
307.979	15.656	1358.560	1029.150
308.993	15.640	1357.890	1028.453
310.008	15.605	1357.125	1027.565
311.022	15.677	1355.457	1026.656
312.037	15.721	1354.731	1026.279
313.052	15.717	1353.907	1025.539
314.066	15.661	1353.094	1024.495
315.081	15.635	1351.753	1023.233
316.095	15.701	1350.619	1022.681
317.110	15.635	1349.694	1021.490
318.125	15.642	1348.747	1020.725
319.139	15.634	1347.973	1020.000
320.154	15.675	1346.723	1019.215
321.168	15.679	1346.059	1018.643
322.183	15.659	1345.066	1017.681
323.197	15.651	1344.367	1017.016
324.212	15.801	1343.054	1016.841
325.227	15.828	1342.245	1016.302
326.241	15.766	1341.702	1015.427
327.256	15.841	1340.996	1015.249
328.270	15.732	1340.518	1014.146
329.285	15.813	1338.714	1013.177
330.300	15.807	1337.855	1012.399
331.314	15.784	1337.608	1011.988
332.329	15.724	1336.369	1010.599
333.343	15.815	1335.491	1010.392
334.358	15.821	1335.124	1010.057
335.373	15.899	1333.863	1009.486
336.387	15.829	1333.222	1008.492
337.402	15.929	1332.698	1008.601
338.416	15.963	1331.906	1008.120
339.431	15.986	1330.976	1007.466
340.446	15.976	1330.715	1007.114
341.460	16.009	1329.739	1006.484
342.475	16.007	1328.552	1005.484
343.489	16.087	1328.010	1005.467
344.504	16.197	1326.535	1004.912
345.519	16.090	1325.838	1003.658
346.533	16.150	1325.377	1003.577
347.548	16.186	1324.310	1002.899
348.562	16.168	1323.428	1002.033
349.577	16.215	1322.834	1001.773
350.592	16.210	1322.065	1001.075
351.606	16.202	1320.822	999.994
352.621	16.264	1319.738	999.454
353.635	16.096	1318.757	997.626
354.650	16.261	1317.549	997.601
355.665	16.164	1316.652	996.259
356.679	16.191	1315.768	995.666
357.694	16.259	1314.922	995.334
358.708	16.261	1313.738	994.365
359.723	16.224	1313.212	993.661
360.738	16.188	1312.095	992.517
361.752	16.283	1310.709	991.935
362.767	16.256	1309.750	990.965
363.781	16.273	1308.843	990.288
364.796	16.282	1308.493	989.992
365.810	16.297	1307.725	989.409
366.825	16.449	1307.068	989.715
367.840	16.454	1305.872	988.754
368.854	16.515	1305.507	988.746
369.869	16.526	1304.804	988.190
370.883	16.565	1304.574	988.155
371.898	16.556	1303.317	987.066
372.913	16.462	1302.709	985.969
373.927	16.503	1301.646	985.312
374.942	16.596	1301.024	985.299
375.956	16.566	1300.386	984.553
376.971	16.672	1299.447	984.372
377.986	16.620	1298.431	983.211
379.000	16.550	1297.732	982.189
380.015	16.558	1297.471	981.952
381.029	16.651	1296.034	981.313
382.044	16.739	1295.392	981.255
383.059	16.733	1295.007	980.843
384.073	16.743	1294.270	980.254
385.088	16.740	1293.756	979.760
386.102	16.854	1292.736	979.562
387.117	16.824	1292.457	979.090
388.132	16.858	1291.241	978.275
389.146	16.711	1290.593	976.849
390.161	16.694	1289.935	976.167
391.175	16.844	1288.906	976.168
392.190	16.718	1288.253	974.859
393.205	16.868	1287.172	974.818
394.219	16.869	1286.059	973.898
395.234	16.886	1284.739	972.905
396.248	16.866	1283.627	971.867
397.263	16.956	1282.183	971.203
398.278	16.938	1280.849	970.001
399.292	16.809	1280.136	968.639
400.307	16.853	1278.978	967.929
401.321	16.909	1277.735	967.222
402.336	16.776	1277.256	966.017
403.350	16.861	1276.232	965.642
404.365	16.921	1275.008	964.970
405.380	16.835	1274.618	964.099
406.394	16.875	1273.636	963.498
407.409	16.876	1273.443	963.271
408.423	16.938	1272.528	962.848
409.438	16.972	1272.017	962.568
410.453	17.045	1271.082	962.192
411.467	17.120	1270.302	961.937
412.482	17.131	1269.858	961.582
413.496	17.138	1269.259	961.083
414.511	17.287	1268.077	960.945
415.526	17.279	1267.461	960.345
416.540	17.220	1266.858	959.471
417.555	17.235	1266.091	958.890
418.569	17.355	1265.127	958.749
419.584	17.267	1265.079	958.137
420.599	17.345	1264.585	958.114
421.613	94.194	1350.446	1462.535
422.628	91.757	1362.904	1462.641
