DTS Sentinel unit serial number:	SN413079Multiplexer serial number:	ORYXHardware model number:	OX4-SRSoftware version number:	ORYX F/W v4.00 Oryx Data Collector v3.7.2.0data status	okinstallation	princeton_trtdifferential loss correction	single-endedforward channel	channel 4reverse channel	N/Adate	2019/09/15time	17:33:35forward acquisition time	60.00reverse acquisition time	0.00gamma	496.2192k internal	0.2274k external	0.2274temperature offset calibration	0.9924default loss term (dB/km)	0.3790temperature slope calibration	1.0000multiplexer offset coefficient	1.0000multiplexer slope coefficient	1.0000fibre end	0.00T internal ref (°C)	44.81T ext. ref 1 (°C)	6.18T ext. ref 2 (°C)	40.40length (m)	temperature (°C)	Stokes	anti-Stokes-747.200	800.000	-0.056	-0.201
-746.185	-54.897	-0.313	-0.146
-745.171	160.739	-0.234	0.338
-744.156	-85.328	0.123	-0.040
-743.142	73.726	-0.110	-0.119
-742.127	-200.000	-0.009	0.057
-741.112	-120.154	0.024	0.004
-740.098	-200.000	0.035	0.374
-739.083	-17.009	-0.113	-0.074
-738.069	-200.000	0.001	0.228
-737.054	-66.881	0.047	-0.019
-736.039	-119.009	0.251	-0.045
-735.025	-92.345	0.152	0.044
-734.010	-110.439	0.140	-0.030
-732.996	-200.000	-0.008	-0.230
-731.981	37.414	-0.249	0.227
-730.966	83.216	-0.068	-0.076
-729.952	-200.000	0.006	0.035
-728.937	212.653	0.120	-0.195
-727.923	210.240	-0.171	-0.277
-726.908	800.000	-0.075	0.252
-725.894	-28.798	-0.161	0.095
-724.879	147.083	-0.191	0.264
-723.864	800.000	0.041	-0.162
-722.850	23.068	0.263	-0.222
-721.835	57.934	0.073	-0.073
-720.821	-25.892	-0.076	0.046
-719.806	57.963	-0.083	0.084
-718.791	214.729	0.198	-0.323
-717.777	-200.000	-0.005	-0.210
-716.762	34.629	-0.179	-0.161
-715.748	-69.620	0.505	-0.199
-714.733	759.235	0.101	0.282
-713.718	-47.896	0.367	0.183
-712.704	-57.935	-0.310	0.139
-711.689	-147.454	-0.348	0.030
-710.675	-46.336	-0.191	0.096
-709.660	190.688	-0.061	0.094
-708.645	-110.060	-0.213	0.046
-707.631	-200.000	0.032	-0.293
-706.616	496.835	-0.109	0.258
-705.602	-93.245	-0.236	0.067
-704.587	-30.245	-0.116	0.068
-703.572	-100.662	-0.244	0.062
-702.558	4.900	0.033	0.025
-701.543	211.560	-0.078	-0.127
-700.529	-26.150	-0.192	-0.116
-699.514	-94.381	0.326	-0.092
-698.499	-59.348	0.249	-0.110
-697.485	76.489	0.233	-0.254
-696.470	-200.000	0.047	0.255
-695.456	-121.394	-0.169	0.029
-694.441	613.502	0.090	0.233
-693.426	800.000	-0.013	-0.042
-692.412	-153.911	-0.381	0.027
-691.397	266.610	0.163	-0.293
-690.383	-114.432	-0.295	-0.058
-689.368	-200.000	0.014	-0.361
-688.354	-200.000	-0.001	-0.115
-687.339	37.524	0.305	-0.278
-686.324	113.303	0.172	0.215
-685.310	-94.571	-0.279	-0.078
-684.295	-126.902	0.158	-0.024
-683.281	672.518	-0.082	-0.220
-682.266	-39.310	0.134	-0.072
-681.251	-71.314	0.200	-0.077
-680.237	509.278	0.079	0.189
-679.222	-58.093	0.292	0.131
-678.208	-165.204	-0.232	0.011
-677.193	-13.584	-0.119	0.080
-676.178	349.444	0.074	-0.151
-675.164	-152.039	0.055	0.004
-674.149	29.397	0.112	0.098
-673.135	-88.113	0.252	0.078
-672.120	152.118	-0.153	0.215
-671.105	-200.000	0.040	-0.188
-670.091	145.839	-0.213	-0.294
-669.076	800.000	0.040	-0.114
-668.062	646.220	0.073	-0.192
-667.047	-200.000	-0.052	-0.286
-666.032	-115.484	0.146	0.028
-665.018	392.265	-0.122	-0.262
-664.003	322.939	0.136	-0.266
-662.989	-96.872	-0.029	0.008
-661.974	104.920	-0.059	-0.071
-660.959	395.162	0.056	-0.119
-659.945	-200.000	0.017	0.112
-658.930	170.420	-0.043	0.063
-657.916	-33.367	-0.148	-0.084
-656.901	306.926	-0.211	-0.405
-655.886	-138.384	-0.053	-0.006
-654.872	-200.000	-0.009	0.078
-653.857	174.596	-0.047	0.070
-652.843	-95.890	-0.265	0.073
-651.828	-200.000	-0.012	0.132
-650.814	-95.892	-0.307	0.084
-649.799	-200.000	-0.032	0.153
-648.784	194.705	-0.133	-0.207
-647.770	118.945	0.154	-0.195
-646.755	65.006	0.136	-0.141
-645.741	299.757	-0.152	0.288
-644.726	33.716	0.078	0.069
-643.711	-73.688	0.096	-0.036
-642.697	-156.754	-0.419	-0.027
-641.682	-200.000	0.031	-0.333
-640.668	-53.828	-0.059	-0.028
-639.653	-200.000	-0.052	0.292
-638.638	154.211	-0.256	0.361
-637.624	-110.740	-0.138	0.029
-636.609	-119.913	-0.073	0.013
-635.595	-174.060	-0.352	0.011
-634.580	603.107	-0.086	-0.219
-633.565	-200.000	-0.011	-0.174
-632.551	800.000	0.076	0.329
-631.536	-200.000	-0.057	0.289
-630.522	-134.570	0.241	0.030
-629.507	-69.314	-0.070	0.028
-628.492	35.143	-0.035	-0.032
-627.478	-51.413	-0.236	0.114
-626.463	-131.357	0.277	0.038
-625.449	-68.967	-0.209	0.083
-624.434	33.433	0.177	-0.158
-623.419	-200.000	-0.003	-0.098
-622.405	-97.034	0.367	-0.099
-621.390	-200.000	-0.002	-0.137
-620.376	496.712	-0.177	-0.418
-619.361	-138.619	-0.154	0.017
-618.346	-100.459	-0.106	-0.027
-617.332	-182.994	-0.300	0.005
-616.317	17.232	0.218	0.178
-615.303	800.000	0.205	0.596
-614.288	150.519	-0.095	0.133
-613.273	-80.733	0.098	-0.033
-612.259	-200.000	0.030	0.206
-611.244	-24.461	-0.222	0.136
-610.230	-200.000	0.012	0.064
-609.215	71.879	-0.052	0.056
-608.201	-150.748	-0.296	0.023
-607.186	119.974	-0.174	-0.221
-606.171	-111.390	0.173	-0.036
-605.157	-62.573	-0.163	0.069
-604.142	-129.551	0.287	-0.041
-603.128	-94.626	-0.268	-0.075
-602.113	-180.953	-0.273	-0.006
-601.098	-33.115	-0.172	0.098
-600.084	-52.702	-0.196	0.093
-599.069	84.860	0.246	0.277
-598.055	-61.037	-0.264	-0.114
-597.040	-108.486	-0.089	-0.020
-596.025	-200.000	0.057	0.260
-595.011	75.915	0.058	-0.063
-593.996	-200.000	0.037	0.293
-592.982	-69.032	0.149	0.059
-591.967	800.000	-0.026	-0.095
-590.952	114.828	-0.284	-0.355
-589.938	322.291	-0.195	-0.380
-588.923	262.748	0.089	0.158
-587.909	-59.193	0.137	-0.061
-586.894	210.096	-0.078	0.126
-585.879	-176.114	-0.138	-0.004
-584.865	219.934	0.109	0.178
-583.850	-200.000	-0.003	-0.089
-582.836	-200.000	-0.003	0.120
-581.821	137.223	-0.078	0.105
-580.806	266.617	-0.139	-0.248
-579.792	42.874	-0.251	-0.234
-578.777	-33.333	-0.323	-0.183
-577.763	-1.279	0.225	0.163
-576.748	-31.190	0.287	-0.166
-575.733	-200.000	-0.007	-0.180
-574.719	-28.350	-0.216	-0.128
-573.704	-101.925	-0.223	0.055
-572.690	800.000	0.028	-0.094
-571.675	-200.000	0.014	0.222
-570.661	-28.982	-0.102	-0.060
-569.646	800.000	-0.148	-0.499
-568.631	-161.928	0.541	0.028
-567.617	-200.000	-0.014	-0.073
-566.602	176.050	0.140	-0.208
-565.588	41.157	0.198	-0.183
-564.573	-200.000	-0.042	-0.230
-563.558	-200.000	-0.008	0.076
-562.544	-200.000	0.054	0.341
-561.529	155.495	-0.072	-0.101
-560.515	-200.000	-0.067	0.308
-559.500	297.458	0.083	0.155
-558.485	-80.470	-0.089	-0.030
-557.471	246.026	-0.105	-0.180
-556.456	64.004	-0.149	-0.154
-555.442	-70.952	0.154	0.059
-554.427	-46.881	0.297	-0.149
-553.412	-82.514	0.158	0.053
-552.398	2.948	0.246	-0.183
-551.383	104.562	0.327	-0.394
-550.369	2.630	0.249	0.185
-549.354	-49.719	0.109	-0.053
-548.339	-29.618	0.247	0.144
-547.325	-117.370	-0.122	-0.023
-546.310	-31.592	0.056	-0.032
-545.296	281.102	-0.073	0.133
-544.281	380.820	-0.066	-0.139
-543.266	-200.000	0.005	0.264
-542.252	800.000	-0.102	-0.363
-541.237	-200.000	0.023	-0.112
-540.223	-200.000	0.005	0.242
-539.208	107.340	0.083	-0.101
-538.193	761.807	0.161	-0.447
-537.179	-200.000	-0.007	0.149
-536.164	-156.146	-0.071	0.005
-535.150	-143.847	0.282	-0.027
-534.135	-120.471	0.266	-0.046
-533.121	-22.343	-0.235	-0.145
-532.106	-119.040	-0.257	0.046
-531.091	-75.943	0.297	-0.107
-530.077	113.863	0.237	-0.295
-529.062	-200.000	0.023	0.202
-528.048	362.606	0.047	0.097
-527.033	-200.000	-0.002	0.051
-526.018	-21.249	0.178	-0.111
-525.004	800.000	0.104	-0.387
-523.989	800.000	-0.075	-0.289
-522.975	-200.000	-0.016	-0.098
-521.960	-96.547	-0.210	0.057
-520.945	-127.050	0.052	-0.008
-519.931	-90.813	-0.397	0.117
-518.916	-105.868	0.101	-0.023
-517.902	210.408	0.040	0.064
-516.887	-65.440	-0.205	-0.084
-515.872	75.898	-0.213	-0.230
-514.858	383.985	-0.090	0.190
-513.843	-147.150	-0.261	0.023
-512.829	399.055	-0.066	0.141
-511.814	-79.330	0.224	-0.078
-510.799	192.372	-0.155	-0.239
-509.785	583.765	0.143	-0.358
-508.770	-200.000	-0.437	-0.002
-507.756	190.499	0.077	-0.118
-506.741	-200.000	-0.011	0.125
-505.726	107.171	0.274	0.333
-504.712	-163.027	0.297	-0.015
-503.697	800.000	-0.084	0.245
-502.683	186.008	0.064	0.097
-501.668	334.883	0.078	-0.154
-500.653	-133.013	0.142	0.018
-499.639	256.996	-0.050	-0.089
-498.624	-24.678	0.195	0.118
-497.610	-200.000	0.002	0.193
-496.595	800.000	-0.098	-0.330
-495.581	-136.709	0.107	-0.013
-494.566	154.423	-0.191	-0.268
-493.551	-108.056	-0.272	0.060
-492.537	-200.000	0.058	0.291
-491.522	-152.328	-0.386	0.028
-490.508	-43.403	0.071	-0.036
-489.493	78.347	-0.183	0.200
-488.478	-66.468	-0.214	-0.087
-487.464	126.053	-0.191	-0.247
-486.449	-114.736	-0.512	-0.100
-485.435	-84.314	-0.353	0.114
-484.420	-136.544	0.444	0.053
-483.405	-7.595	0.039	0.027
-482.391	0.253	0.217	0.158
-481.376	800.000	0.071	-0.207
-480.362	800.000	-0.086	0.252
-479.347	-82.066	0.128	-0.043
-478.332	-200.000	-0.021	-0.374
-477.318	-134.633	0.373	-0.046
-476.303	47.515	0.207	-0.197
-475.289	43.627	0.093	-0.087
-474.274	-69.449	-0.150	-0.059
-473.259	309.080	0.034	-0.064
-472.245	-197.143	0.304	0.002
-471.230	749.100	0.105	-0.289
-470.216	297.992	-0.096	-0.179
-469.201	800.000	-0.049	0.185
-468.186	-171.023	0.462	-0.016
-467.172	45.487	0.101	-0.095
-466.157	-38.112	0.228	-0.123
-465.143	-200.000	0.002	-0.176
-464.128	-200.000	0.001	0.069
-463.113	142.697	-0.167	-0.226
-462.099	141.910	-0.196	0.265
-461.084	800.000	0.058	0.173
-460.070	-200.000	-0.046	0.308
-459.055	-100.343	0.089	-0.023
-458.040	20.611	-0.139	0.115
-457.026	128.767	0.030	0.038
-456.011	800.000	0.007	-0.025
-454.997	-156.238	-0.142	-0.009
-453.982	191.421	-0.101	0.155
-452.968	800.000	-0.008	-0.026
-451.953	131.014	-0.153	0.200
-450.938	800.000	-0.016	-0.060
-449.924	-18.208	0.188	0.120
-448.909	385.498	0.030	-0.063
-447.895	115.748	0.243	-0.303
-446.880	-4.809	0.135	0.095
-445.865	-200.000	-0.032	0.270
-444.851	-76.097	-0.217	0.078
-443.836	-200.000	-0.023	0.155
-442.822	-76.626	0.327	0.117
-441.807	-115.819	-0.243	-0.046
-440.792	-125.227	0.178	0.028
-439.778	29.103	0.139	-0.120
-438.763	34.007	0.121	0.107
-437.749	7.657	-0.098	-0.075
-436.734	-46.138	0.061	-0.031
-435.719	-93.829	-0.341	-0.096
-434.705	-18.137	-0.137	-0.087
-433.690	-50.249	0.283	-0.136
-432.676	673.345	-0.187	-0.494
-431.661	324.579	-0.053	-0.104
-430.646	129.150	0.133	-0.173
-429.632	130.581	0.183	-0.239
-428.617	-141.352	-0.224	0.023
-427.603	709.099	-0.089	0.241
-426.588	-200.000	0.011	0.173
-425.573	800.000	-0.056	-0.177
-424.559	21.300	-0.054	0.045
-423.544	-12.890	0.110	0.073
-422.530	110.569	0.110	0.135
-421.515	-200.000	0.056	0.267
-420.500	-143.733	-0.163	-0.016
-419.486	-200.000	-0.084	-0.454
-418.471	-200.000	0.023	-0.122
-417.457	140.046	-0.283	-0.380
-416.442	-2.597	0.040	0.029
-415.428	-42.617	-0.195	-0.101
-414.413	-200.000	-0.012	0.225
-413.398	-200.000	0.008	0.081
-412.384	-44.928	0.209	-0.106
-411.369	2.796	-0.227	0.168
-410.355	54.424	0.119	-0.117
-409.340	-200.000	-0.038	-0.258
-408.325	358.050	-0.032	0.065
-407.311	40.904	-0.225	-0.207
-406.296	800.000	0.083	0.251
-405.282	-112.517	-0.517	-0.105
-404.267	283.256	-0.051	0.093
-403.252	669.057	-0.039	-0.102
-402.238	320.093	0.096	0.186
-401.223	4.258	-0.129	0.096
-400.209	-74.545	-0.436	0.160
-399.194	-167.035	0.182	-0.008
-398.179	-200.000	-0.003	0.479
-397.165	-87.334	0.407	0.125
-396.150	-200.000	0.024	0.193
-395.136	-118.872	0.109	-0.020
-394.121	-85.576	-0.065	-0.020
-393.106	22.093	-0.086	0.071
-392.092	-126.375	-0.220	-0.033
-391.077	-89.270	-0.057	0.017
-390.063	-200.000	-0.014	0.186
-389.048	646.907	0.112	-0.291
-388.033	-31.058	-0.307	0.176
-387.019	-17.285	0.187	-0.120
-386.004	119.329	0.209	-0.263
-384.990	-92.730	0.316	0.090
-383.975	800.000	0.032	0.098
-382.960	-59.633	0.354	0.155
-381.946	-12.946	-0.159	0.106
-380.931	154.664	-0.149	0.208
-379.917	-200.000	0.027	0.141
-378.902	800.000	-0.031	0.105
-377.888	66.256	0.230	0.237
-376.873	-155.387	-0.118	0.008
-375.858	-128.422	-0.225	-0.033
-374.844	-90.823	0.297	-0.087
-373.829	38.490	-0.082	-0.075
-372.815	11.120	0.219	-0.170
-371.800	-200.000	-0.001	0.227
-370.785	6.725	-0.055	0.041
-369.771	-200.000	-0.018	0.156
-368.756	17.839	0.080	0.064
-367.742	52.473	0.174	-0.169
-366.727	-168.427	0.416	0.016
-365.712	-65.972	-0.130	0.053
-364.698	175.441	0.159	-0.234
-363.683	54.515	-0.041	0.040
-362.669	-200.000	0.044	-0.231
-361.654	-200.000	0.012	-0.385
-360.639	35.490	-0.163	0.146
-359.625	-32.825	0.315	-0.178
-358.610	-62.469	0.096	-0.041
-357.596	21.652	-0.150	0.124
-356.581	45.280	0.078	-0.073
-355.566	27.412	-0.189	0.161
-354.552	-15.088	-0.089	0.058
-353.537	-25.799	0.178	-0.107
-352.523	800.000	0.075	-0.239
-351.508	20.292	-0.020	0.016
-350.493	-71.710	0.227	0.086
-349.479	-24.674	0.356	0.215
-348.464	-200.000	0.018	-0.441
-347.450	-186.586	0.086	-0.001
-346.435	-40.321	-0.228	-0.120
-345.420	32.771	-0.086	0.076
-344.406	-200.000	-0.023	0.107
-343.391	-85.488	0.254	-0.080
-342.377	-137.540	0.321	0.037
-341.362	128.230	-0.075	0.097
-340.348	-200.000	-0.035	0.174
-339.333	-193.116	-0.190	0.002
-338.318	-200.000	0.067	-0.368
-337.304	-200.000	-0.016	-0.372
-336.289	-200.000	-0.028	0.164
-335.275	56.093	-0.132	-0.130
-334.260	-200.000	0.012	-0.114
-333.245	158.935	0.173	-0.243
-332.231	83.927	-0.168	-0.186
-331.216	663.427	-0.028	0.072
-330.202	-18.254	0.278	-0.177
-329.187	144.038	-0.074	-0.100
-328.172	-200.000	0.040	0.237
-327.158	-200.000	0.020	-0.149
-326.143	-50.207	0.284	0.136
-325.129	-45.792	0.103	0.052
-324.114	800.000	0.055	-0.227
-323.099	-67.309	-0.164	-0.066
-322.085	-200.000	-0.032	-0.232
-321.070	800.000	0.033	-0.102
-320.056	-42.898	-0.197	0.101
-319.041	91.950	0.175	-0.200
-318.026	-28.162	-0.088	0.051
-317.012	-93.171	0.084	-0.024
-315.997	151.913	-0.039	0.055
-314.983	-48.530	0.199	0.097
-313.968	-56.887	0.318	0.143
-312.953	-182.989	-0.298	-0.005
-311.939	-200.000	-0.024	-0.117
-310.924	-190.852	0.202	0.002
-309.910	800.000	0.060	0.178
-308.895	-200.000	0.023	0.117
-307.880	-200.000	0.045	0.326
-306.866	-188.891	0.119	-0.001
-305.851	142.555	-0.144	0.194
-304.837	447.729	-0.072	-0.161
-303.822	-35.424	-0.173	-0.095
-302.807	358.879	0.066	0.133
-301.793	-171.278	0.102	0.003
-300.778	-28.297	0.094	-0.055
-299.764	-200.000	0.017	0.169
-298.749	74.547	-0.228	0.243
-297.735	305.696	0.062	0.117
-296.720	-13.911	-0.282	0.185
-295.705	-75.228	-0.157	-0.057
-294.691	-104.682	-0.109	0.025
-293.676	-74.380	-0.107	0.039
-292.662	-57.029	-0.196	-0.088
-291.647	318.017	-0.099	0.189
-290.632	69.733	0.191	-0.200
-289.618	-81.976	-0.362	-0.120
-288.603	273.482	-0.015	-0.028
-287.589	-69.907	0.409	-0.158
-286.574	495.780	0.053	0.123
-285.559	-146.557	0.314	0.028
-284.545	271.329	0.042	-0.074
-283.530	-109.125	-0.240	-0.052
-282.516	410.728	-0.058	0.124
-281.501	-10.096	-0.043	-0.029
-280.486	-42.140	-0.078	-0.040
-279.472	-200.000	-0.027	-0.274
-278.457	-124.090	-0.160	-0.025
-277.443	119.656	-0.155	-0.194
-276.428	102.889	0.109	0.129
-275.413	-34.465	-0.309	-0.172
-274.399	-93.137	0.166	0.047
-273.384	-34.334	-0.119	0.066
-272.370	800.000	0.107	-0.323
-271.355	666.530	0.038	-0.099
-270.340	41.346	-0.081	0.075
-269.326	-200.000	-0.027	-0.219
-268.311	-155.654	-0.099	-0.006
-267.297	84.823	0.138	0.153
-266.282	229.825	-0.213	-0.353
-265.267	-200.000	0.017	-0.288
-264.253	196.028	0.033	-0.051
-263.238	341.581	0.037	-0.073
-262.224	71.922	0.120	0.126
-261.209	-85.607	0.085	-0.027
-260.195	-76.056	-0.161	-0.058
-259.180	-200.000	-0.013	-0.119
-258.165	800.000	-0.111	-0.374
-257.151	-106.752	-0.196	-0.044
-256.136	162.370	0.063	0.089
-255.122	-30.890	-0.148	-0.085
-254.107	-2.958	-0.228	0.161
-253.092	-70.780	0.189	0.072
-252.078	233.851	-0.091	0.151
-251.063	-130.527	-0.103	0.014
-250.049	-56.004	-0.197	-0.089
-249.034	-16.668	-0.217	-0.139
-248.019	533.704	0.074	-0.178
-247.005	-61.470	-0.097	0.041
-245.990	-81.424	0.151	0.050
-244.976	800.000	0.075	0.281
-243.961	447.377	0.057	-0.127
-242.946	-181.424	-0.242	0.005
-241.932	-4.062	-0.101	0.071
-240.917	-151.418	0.135	0.010
-239.903	-200.000	-0.012	-0.090
-238.888	-127.785	-0.278	0.041
-237.873	-200.000	-0.015	0.152
-236.859	-57.928	-0.045	-0.020
-235.844	333.806	0.035	0.069
-234.830	3.866	0.232	-0.172
-233.815	-200.000	0.032	0.214
-232.800	-61.186	0.169	0.072
-231.786	402.745	-0.160	0.339
-230.771	-172.048	-0.252	-0.008
-229.757	800.000	0.012	-0.045
-228.742	-77.553	-0.096	0.034
-227.727	604.430	-0.068	0.170
-226.713	-200.000	0.034	0.295
-225.698	-200.000	0.171	-0.000
-224.684	29.182	-0.216	0.185
-223.669	-4.210	0.210	0.147
-222.655	-140.783	-0.421	0.044
-221.640	228.054	0.087	-0.142
-220.625	238.495	-0.060	-0.100
-219.611	-62.451	0.262	0.110
-218.596	-25.891	0.297	0.177
-217.582	192.806	-0.179	-0.274
-216.567	-106.473	-0.380	0.086
-215.552	419.438	0.068	0.148
-214.538	138.245	-0.181	0.240
-213.523	-35.136	-0.104	-0.057
-212.509	224.059	-0.122	-0.200
-211.494	800.000	0.052	0.151
-210.479	-200.000	0.013	0.450
-209.465	-125.832	-0.065	-0.010
-208.450	-125.047	0.335	-0.052
-207.436	35.586	-0.034	0.030
-206.421	800.000	0.063	0.176
-205.406	-31.824	0.181	-0.102
-204.392	226.123	-0.029	0.048
-203.377	-76.352	-0.254	0.090
-202.363	7.342	0.285	0.215
-201.348	-104.104	0.165	-0.039
-200.333	-200.000	-0.035	0.309
-199.319	-52.141	-0.465	-0.218
-198.304	40.743	0.134	0.122
-197.290	82.323	-0.086	0.094
-196.275	-200.000	0.021	0.196
-195.260	197.062	0.218	-0.336
-194.246	597.990	-0.079	0.197
-193.231	-101.882	0.093	0.023
-192.217	800.000	0.027	0.088
-191.202	-26.901	0.150	0.089
-190.187	103.651	-0.126	0.149
-189.173	-107.131	-0.136	0.030
-188.158	-200.000	0.001	0.115
-187.144	-200.000	-0.049	0.317
-186.129	-57.660	-0.226	-0.100
-185.114	110.303	-0.218	-0.265
-184.100	-84.679	-0.104	0.033
-183.085	-171.514	0.134	-0.005
-182.071	-200.000	0.044	0.225
-181.056	-200.000	-0.017	0.113
-180.042	-88.291	0.205	-0.062
-179.027	357.747	0.075	-0.152
-178.012	-83.930	-0.218	0.070
-176.998	-26.447	0.431	-0.255
-175.983	42.204	-0.066	0.060
-174.969	-97.092	-0.317	-0.084
-173.954	800.000	-0.076	0.235
-172.939	546.125	0.109	-0.264
-171.925	27.841	0.159	-0.135
-170.910	44.595	0.437	0.406
-169.896	-39.100	0.319	0.169
-168.881	143.506	0.303	0.408
-167.866	176.039	-0.106	0.155
-166.852	308.097	0.155	0.293
-165.837	-139.324	-0.098	-0.011
-164.823	-108.553	-0.219	0.048
-163.808	-200.000	0.014	0.168
-162.793	59.627	0.262	-0.261
-161.779	7.392	-0.268	0.202
-160.764	5.226	-0.119	-0.088
-159.750	-200.000	0.016	0.302
-158.735	-33.569	0.312	0.173
-157.720	-114.782	0.227	0.044
-156.706	-32.762	0.160	0.090
-155.691	-99.436	0.393	0.100
-154.677	-41.970	0.288	-0.149
-153.662	-200.000	0.060	-0.377
-152.647	-74.579	0.381	0.138
-151.633	-58.824	-0.078	0.034
-150.618	-24.363	-0.300	0.180
-149.604	64.380	0.167	0.170
-148.589	-20.566	0.111	0.068
-147.574	-54.912	0.226	0.103
-146.560	39.213	0.197	0.178
-145.545	-200.000	-0.023	0.203
-144.531	-72.165	0.174	-0.065
-143.516	-200.000	-0.025	-0.401
-142.502	800.000	-0.089	0.297
-141.487	29.644	-0.388	-0.332
-140.472	136.550	0.161	-0.211
-139.458	-199.043	-0.124	-0.001
-138.443	126.596	-0.139	0.177
-137.429	298.807	-0.084	-0.155
-136.414	213.045	-0.153	-0.243
-135.399	-157.678	0.054	-0.003
-134.385	775.374	0.110	-0.302
-133.370	10.073	0.094	-0.072
-132.356	-111.099	0.402	-0.083
-131.341	-84.777	-0.309	0.098
-130.326	-15.373	-0.181	-0.116
-129.312	800.000	-0.029	-0.109
-128.297	-66.188	0.201	-0.081
-127.283	-200.000	0.037	0.246
-126.268	-8.593	-0.265	0.179
-125.253	308.838	0.145	0.272
-124.239	58.328	-0.258	-0.255
-123.224	-98.895	0.300	0.077
-122.210	-122.083	0.286	-0.047
-121.195	800.000	-0.043	0.122
-120.180	-100.364	-0.259	0.065
-119.166	-178.607	0.125	-0.003
-118.151	770.423	-0.090	-0.247
-117.137	326.317	-0.226	0.435
-116.122	-122.495	0.081	-0.013
-115.107	-12.440	-0.118	-0.078
-114.093	-20.348	-0.069	-0.043
-113.078	-51.425	0.089	-0.042
-112.064	-200.000	-0.044	0.307
-111.049	37.036	-0.311	-0.277
-110.034	-91.592	-0.307	-0.088
-109.020	175.367	-0.125	0.183
-108.005	42.444	-0.282	0.258
-106.991	232.581	-0.082	0.135
-105.976	800.000	0.064	-0.181
-104.962	140.649	0.249	0.331
-103.947	-28.672	-0.141	0.082
-102.932	-94.799	-0.304	-0.083
-101.918	-22.783	0.045	-0.027
-100.903	-114.719	-0.284	0.055
-99.889	-151.974	0.187	0.014
-98.874	-200.000	-0.028	-0.197
-97.859	317.968	0.127	-0.242
-96.845	-51.943	0.329	-0.154
-95.830	-109.233	-0.181	0.039
-94.816	180.485	0.194	-0.286
-93.801	403.891	-0.125	0.264
-92.786	-92.707	0.126	0.036
-91.772	-200.000	-0.045	-0.258
-90.757	29.855	-0.267	-0.228
-89.743	-16.760	-0.401	-0.255
-88.728	124.310	0.170	0.215
-87.713	800.000	0.099	-0.282
-86.699	134.556	0.084	-0.109
-85.684	-65.035	0.224	0.091
-84.670	800.000	-0.067	-0.237
-83.655	667.207	0.141	-0.366
-82.640	687.060	-0.102	-0.268
-81.626	38.733	0.071	-0.064
-80.611	800.000	0.146	-0.613
-79.597	163.635	-0.179	-0.253
-78.582	251.495	-0.179	-0.306
-77.567	-101.238	0.287	0.070
-76.553	120.251	-0.207	0.258
-75.538	-200.000	0.029	0.219
-74.524	-200.000	-0.015	-0.125
-73.509	-157.875	0.158	-0.009
-72.494	-74.822	-0.212	-0.076
-71.480	285.999	0.120	-0.217
-70.465	-158.361	-0.180	-0.011
-69.451	-27.850	0.205	0.119
-68.436	39.396	-0.152	-0.137
-67.422	-200.000	0.001	-0.186
-66.407	524.349	0.041	-0.097
-65.392	59.572	-0.115	0.113
-64.378	459.044	-0.088	0.197
-63.363	20.922	0.158	0.128
-62.349	25.522	-0.186	-0.155
-61.334	-13.754	-0.952	-0.618
-60.319	167.288	0.122	-0.174
-59.305	217.580	0.274	-0.438
-58.290	132.741	0.348	0.451
-57.276	309.554	0.845	1.586
-56.261	-200.000	70.239	516.587
-55.246	559.476	1256.483	3046.534
-54.232	132.523	2516.915	3259.095
-53.217	108.063	2389.862	2860.881
-52.203	52.224	2132.267	2041.430
-51.188	46.871	2037.514	1901.501
-50.173	44.989	2017.917	1865.950
-49.159	56.262	2050.786	2000.228
-48.144	62.343	2071.905	2076.689
-47.130	47.751	2037.832	1909.604
-46.115	44.901	2026.596	1872.866
-45.100	44.833	2024.096	1869.857
-44.086	44.737	2022.301	1867.243
-43.071	44.670	2019.279	1863.765
-42.057	44.712	2016.772	1861.765
-41.042	44.698	2014.829	1859.765
-40.027	44.735	2013.375	1858.690
-39.013	44.840	2010.601	1857.012
-37.998	44.753	2009.612	1855.231
-36.984	44.742	2007.753	1853.345
-35.969	44.727	2005.729	1851.267
-34.954	44.863	2003.281	1850.163
-33.940	44.797	2002.378	1848.656
-32.925	44.859	2000.523	1847.435
-31.911	44.870	1998.482	1845.574
-30.896	44.901	1996.699	1844.135
-29.881	44.816	1995.733	1842.407
-28.867	44.954	1993.330	1841.356
-27.852	44.833	1992.059	1839.016
-26.838	44.843	1989.535	1836.703
-25.823	44.768	1988.195	1834.720
-24.809	44.788	1985.946	1832.752
-23.794	44.851	1984.169	1831.607
-22.779	44.841	1982.089	1829.524
-21.765	44.783	1980.896	1827.829
-20.750	44.824	1978.969	1826.346
-19.736	44.843	1977.524	1825.112
-18.721	44.776	1976.105	1823.127
-17.706	44.843	1974.224	1821.921
-16.692	44.828	1972.722	1820.326
-15.677	44.753	1971.169	1818.156
-14.663	44.805	1969.598	1817.099
-13.648	44.744	1968.806	1815.744
-12.633	44.743	1967.645	1814.596
-11.619	44.858	1966.046	1814.076
-10.604	44.872	1964.659	1812.844
-9.590	44.777	1963.326	1810.699
-8.575	44.807	1961.660	1809.358
-7.560	44.877	1960.163	1808.524
-6.546	44.858	1958.986	1807.200
-5.531	44.840	1957.621	1805.708
-4.517	44.804	1956.429	1804.223
-3.502	44.795	1955.702	1803.396
-2.487	44.780	1953.737	1801.380
-1.473	44.826	1952.883	1800.934
-0.458	44.905	1948.628	1797.635
0.556	42.397	1929.385	1774.043
1.571	37.898	1907.199	1714.056
2.586	32.084	1924.453	1677.652
3.600	29.714	1957.910	1685.095
4.615	28.074	1954.233	1666.839
5.629	22.072	1852.711	1528.068
6.644	12.264	1728.084	1345.164
7.659	6.847	1684.409	1267.685
8.673	6.289	1680.380	1260.077
9.688	6.273	1679.096	1258.878
10.702	6.184	1677.025	1256.497
11.717	5.954	1674.947	1252.998
12.731	6.530	1674.317	1257.008
13.746	12.417	1688.728	1314.940
14.761	18.648	1701.314	1374.700
15.775	18.628	1698.547	1372.183
16.790	16.801	1693.597	1353.481
17.804	15.626	1689.881	1341.021
18.819	14.613	1686.533	1330.174
19.834	13.935	1683.985	1322.649
20.848	13.605	1682.301	1318.584
21.863	13.338	1680.144	1314.650
22.877	13.133	1679.074	1312.070
23.892	12.844	1677.898	1308.740
24.907	12.796	1676.543	1307.185
25.921	12.704	1675.854	1305.810
26.936	12.757	1674.265	1304.871
27.950	12.802	1673.870	1304.804
28.965	12.786	1673.358	1304.168
29.980	12.814	1672.598	1303.679
30.994	12.967	1670.910	1303.455
32.009	12.990	1669.967	1302.784
33.023	13.062	1668.977	1302.467
34.038	13.014	1668.320	1301.464
35.053	13.032	1666.727	1300.246
36.067	12.977	1665.855	1299.015
37.082	12.961	1664.639	1297.827
38.096	12.937	1663.581	1296.696
39.111	12.941	1662.834	1296.033
40.126	12.958	1662.418	1295.725
41.140	12.979	1661.047	1294.708
42.155	12.881	1659.807	1292.858
43.169	12.766	1658.589	1290.895
44.184	12.601	1657.312	1288.499
45.199	12.699	1656.215	1288.296
46.213	12.742	1654.592	1287.257
47.228	12.711	1653.808	1286.287
48.242	12.770	1652.637	1285.728
49.257	12.899	1651.326	1285.594
50.271	12.902	1650.394	1284.780
51.286	12.855	1649.367	1283.501
52.301	12.883	1647.739	1282.342
53.315	12.893	1646.326	1281.202
54.330	12.824	1645.305	1279.758
55.344	12.744	1643.224	1277.411
56.359	12.747	1641.933	1276.316
57.374	12.797	1640.662	1275.603
58.388	12.761	1639.835	1274.567
59.403	12.747	1638.513	1273.319
60.417	12.769	1636.588	1271.883
61.432	12.741	1635.705	1270.866
62.447	12.656	1634.842	1269.429
63.461	12.582	1633.852	1267.973
64.476	12.610	1632.449	1266.987
65.490	12.600	1631.623	1266.157
66.505	12.533	1630.444	1264.615
67.520	12.556	1629.409	1263.881
68.534	12.668	1627.989	1263.525
69.549	12.624	1627.450	1262.660
70.563	12.655	1625.814	1261.518
71.578	12.617	1624.897	1260.400
72.593	12.561	1624.258	1259.368
73.607	12.563	1623.056	1258.333
74.622	12.584	1621.422	1257.118
75.636	12.552	1621.071	1256.487
76.651	12.509	1620.549	1255.644
77.666	12.551	1619.237	1254.839
78.680	12.566	1618.639	1254.382
79.695	12.572	1617.265	1253.250
80.709	12.621	1616.679	1253.061
81.724	12.661	1615.922	1252.663
82.739	12.642	1615.269	1251.907
83.753	12.673	1614.350	1251.316
84.768	12.895	1613.149	1251.958
85.782	12.904	1612.627	1251.514
86.797	12.908	1612.085	1251.010
87.812	12.955	1610.930	1250.364
88.826	12.952	1609.594	1249.192
89.841	12.808	1608.664	1247.265
90.855	12.779	1608.043	1246.455
91.870	12.835	1607.120	1246.054
92.884	12.939	1605.733	1245.655
93.899	12.932	1604.799	1244.764
94.914	13.008	1602.947	1243.791
95.928	13.023	1602.241	1243.245
96.943	13.037	1600.737	1242.073
97.957	12.953	1599.543	1240.411
98.972	12.939	1597.972	1238.972
99.987	12.896	1596.396	1237.321
101.001	12.995	1594.031	1236.119
102.016	12.915	1593.138	1234.723
103.030	12.950	1591.838	1233.866
104.045	12.881	1590.752	1232.395
105.060	12.978	1588.801	1231.501
106.074	12.844	1587.911	1229.702
107.089	12.807	1586.299	1228.068
108.103	12.734	1584.927	1226.355
109.118	12.745	1582.979	1224.825
110.133	12.691	1581.911	1223.487
111.147	12.675	1580.468	1222.145
112.162	12.726	1579.083	1221.342
113.176	12.688	1577.661	1219.853
114.191	12.699	1576.729	1219.102
115.206	12.772	1575.529	1218.612
116.220	12.805	1574.111	1217.645
117.235	12.778	1572.486	1216.087
118.249	12.779	1571.472	1215.200
119.264	12.790	1570.257	1214.231
120.279	12.755	1569.022	1212.916
121.293	12.766	1567.333	1211.580
122.308	12.728	1565.883	1210.073
123.322	12.777	1564.363	1209.154
124.337	12.642	1563.482	1207.372
125.352	12.664	1562.035	1206.313
126.366	12.605	1561.075	1205.030
127.381	12.713	1559.497	1204.493
128.395	12.739	1558.345	1203.688
129.410	12.679	1557.666	1202.623
130.424	12.729	1556.107	1201.678
131.439	12.794	1554.721	1200.971
132.454	12.749	1553.543	1199.631
133.468	12.851	1552.008	1199.081
134.483	12.834	1550.931	1198.021
135.497	12.861	1549.090	1196.689
136.512	12.935	1548.063	1196.322
137.527	12.995	1546.368	1195.340
138.541	12.891	1545.617	1193.905
139.556	12.923	1543.968	1192.757
140.570	12.973	1542.312	1191.734
141.585	13.051	1541.162	1191.299
142.600	13.112	1540.153	1190.853
143.614	13.074	1539.011	1189.595
144.629	13.129	1537.855	1188.989
145.643	13.189	1536.052	1187.921
146.658	13.129	1535.144	1186.684
147.673	13.160	1533.632	1185.635
148.687	13.017	1532.681	1183.767
149.702	13.043	1530.659	1182.290
150.716	12.979	1529.297	1180.669
151.731	12.923	1528.118	1179.260
152.746	13.032	1526.158	1178.419
153.760	12.994	1525.282	1177.369
154.775	12.921	1523.727	1175.541
155.789	12.967	1522.689	1174.964
156.804	13.001	1521.130	1173.897
157.819	13.075	1519.934	1173.399
158.833	13.031	1518.891	1172.178
159.848	13.173	1517.613	1172.093
160.862	13.270	1516.402	1171.745
161.877	13.253	1515.359	1170.714
162.892	13.152	1514.135	1168.953
163.906	13.100	1512.678	1167.352
164.921	13.061	1511.117	1165.767
165.935	13.009	1510.593	1164.899
166.950	13.052	1509.621	1164.349
167.964	13.035	1508.262	1163.078
168.979	13.116	1507.332	1162.829
169.994	13.083	1506.405	1161.776
171.008	13.233	1504.711	1161.422
172.023	13.092	1504.060	1159.827
173.037	13.319	1502.243	1159.915
174.052	13.248	1501.558	1158.785
175.067	13.234	1500.665	1157.896
176.081	13.212	1499.472	1156.720
177.096	13.101	1498.036	1154.734
178.110	13.095	1496.791	1153.628
179.125	13.122	1495.706	1152.876
180.140	13.112	1494.717	1151.947
181.154	13.165	1493.563	1151.320
182.169	13.241	1492.334	1150.799
183.183	13.264	1491.198	1149.984
184.198	13.330	1490.047	1149.452
185.213	13.363	1488.955	1148.740
186.227	13.444	1487.814	1148.319
187.242	13.383	1487.008	1147.174
188.256	13.414	1485.962	1146.479
189.271	13.470	1484.680	1145.778
190.286	13.498	1483.897	1145.264
191.300	13.456	1482.886	1144.091
192.315	13.295	1481.442	1141.764
193.329	13.176	1480.012	1139.744
194.344	13.142	1479.086	1138.695
195.359	13.134	1478.291	1137.927
196.373	13.329	1477.079	1138.234
197.388	13.361	1476.209	1137.684
198.402	13.393	1475.067	1136.921
199.417	13.470	1473.796	1136.370
200.432	13.638	1472.620	1136.512
201.446	13.620	1472.245	1135.999
202.461	13.662	1470.690	1134.990
203.475	13.670	1469.371	1133.925
204.490	13.777	1468.305	1133.730
205.504	13.660	1467.479	1132.197
206.519	13.662	1466.254	1131.166
207.534	13.600	1465.340	1129.936
208.548	13.570	1464.022	1128.618
209.563	13.541	1463.300	1127.763
210.577	13.558	1461.878	1126.684
211.592	13.612	1460.912	1126.206
212.607	13.625	1460.430	1125.818
213.621	13.647	1459.972	1125.517
214.636	13.733	1459.105	1125.335
215.650	13.645	1457.947	1123.743
216.665	13.724	1456.821	1123.313
217.680	13.705	1456.109	1122.535
218.694	13.799	1455.289	1122.440
219.709	13.792	1454.586	1121.748
220.723	13.879	1453.116	1121.104
221.738	13.806	1452.370	1119.939
222.753	13.865	1451.353	1119.452
223.767	13.839	1450.380	1118.428
224.782	13.829	1449.395	1117.502
225.796	13.942	1448.232	1117.265
226.811	13.862	1447.715	1116.229
227.826	14.005	1446.723	1116.325
228.840	13.928	1445.764	1114.971
229.855	13.954	1444.858	1114.346
230.869	13.865	1443.979	1112.973
231.884	13.916	1442.805	1112.314
232.899	13.871	1441.843	1111.173
233.913	13.863	1440.644	1110.097
234.928	13.763	1439.174	1108.200
235.942	13.780	1438.084	1107.373
236.957	13.788	1436.967	1106.467
237.972	13.826	1435.858	1105.770
238.986	13.840	1434.393	1104.634
240.001	13.874	1433.494	1104.077
241.015	13.896	1432.655	1103.476
242.030	13.849	1431.775	1102.389
243.045	13.874	1430.996	1101.858
244.059	14.018	1429.785	1101.783
245.074	13.965	1429.138	1100.837
246.088	13.957	1428.447	1100.152
247.103	14.079	1427.611	1100.216
248.117	14.112	1426.701	1099.638
249.132	14.177	1426.189	1099.578
250.147	14.145	1425.702	1098.893
251.161	14.294	1424.431	1098.797
252.176	14.365	1424.031	1098.858
253.190	14.420	1423.133	1098.430
254.205	14.361	1422.908	1097.773
255.220	14.468	1421.509	1097.299
256.234	14.557	1420.480	1096.997
257.249	14.517	1420.194	1096.416
258.263	14.422	1419.566	1095.210
259.278	14.459	1418.294	1094.374
260.293	14.482	1417.372	1093.713
261.307	14.543	1416.308	1093.199
262.322	14.540	1415.900	1092.767
263.336	14.607	1415.175	1092.548
264.351	14.667	1413.851	1091.820
265.366	14.694	1413.221	1091.412
266.380	14.686	1412.322	1090.574
267.395	14.617	1411.518	1089.402
268.409	14.637	1410.721	1088.825
269.424	14.744	1409.512	1088.493
270.439	14.632	1408.215	1086.664
271.453	14.652	1407.077	1085.822
272.468	14.635	1406.392	1085.087
273.482	14.664	1405.677	1084.623
274.497	14.651	1405.022	1083.939
275.512	14.603	1403.830	1082.610
276.526	14.707	1403.066	1082.605
277.541	14.672	1401.770	1081.280
278.555	14.621	1400.992	1080.251
279.570	14.611	1400.630	1079.814
280.585	14.645	1399.656	1079.189
281.599	14.788	1398.749	1079.315
282.614	14.878	1397.609	1078.921
283.628	14.838	1396.644	1077.823
284.643	14.712	1395.726	1076.205
285.657	14.818	1394.188	1075.607
286.672	14.793	1393.652	1074.942
287.687	14.748	1393.060	1074.096
288.701	14.930	1391.308	1073.818
289.716	14.814	1390.947	1072.702
290.730	14.874	1390.090	1072.334
291.745	14.911	1388.531	1071.271
292.760	14.803	1388.336	1070.333
293.774	14.882	1387.209	1069.876
294.789	14.830	1386.385	1068.814
295.803	14.873	1385.667	1068.439
296.818	15.004	1384.706	1068.445
297.833	14.928	1383.852	1067.206
298.847	14.961	1382.404	1066.205
299.862	14.953	1381.655	1065.481
300.876	14.981	1380.653	1064.790
301.891	15.006	1379.879	1064.259
302.906	14.913	1379.070	1062.946
303.920	15.043	1378.590	1063.309
304.935	15.187	1377.801	1063.520
305.949	15.279	1376.626	1063.103
306.964	15.166	1376.218	1061.981
307.979	15.243	1374.945	1061.390
308.993	15.239	1373.951	1060.502
310.008	15.205	1373.059	1059.505
311.022	15.247	1372.173	1058.996
312.037	15.232	1370.770	1057.725
313.052	15.173	1370.520	1057.064
314.066	15.245	1369.313	1056.496
315.081	15.100	1368.567	1054.911
316.095	15.169	1367.280	1054.263
317.110	15.146	1365.968	1053.013
318.125	15.094	1365.257	1052.042
319.139	15.143	1364.357	1051.564
320.154	15.163	1363.383	1050.844
321.168	15.089	1362.531	1049.633
322.183	15.148	1361.184	1048.870
323.197	15.236	1360.255	1048.612
324.212	15.319	1359.184	1048.212
325.227	15.242	1359.143	1047.605
326.241	15.271	1357.887	1046.728
327.256	15.269	1356.883	1045.848
328.270	15.375	1356.043	1045.770
329.285	15.318	1355.473	1044.881
330.300	15.245	1354.690	1043.731
331.314	15.380	1353.240	1043.364
332.329	15.309	1352.641	1042.367
333.343	15.342	1351.741	1041.789
334.358	15.279	1350.889	1040.644
335.373	15.472	1350.354	1041.337
336.387	15.478	1349.359	1040.514
337.402	15.381	1348.722	1039.332
338.416	15.466	1347.753	1039.019
339.431	15.484	1347.039	1038.490
340.446	15.493	1346.574	1038.096
341.460	15.583	1345.786	1037.954
342.475	15.603	1344.673	1037.128
343.489	15.717	1343.716	1037.001
344.504	15.762	1342.995	1036.625
345.519	15.759	1341.626	1035.463
346.533	15.703	1340.834	1034.411
347.548	15.857	1340.233	1034.807
348.562	15.858	1339.318	1034.012
349.577	15.773	1338.906	1033.079
350.592	15.794	1338.038	1032.446
351.606	15.747	1336.943	1031.223
352.621	15.683	1336.166	1030.143
353.635	15.611	1335.082	1028.771
354.650	15.628	1334.012	1027.961
355.665	15.626	1332.894	1026.995
356.679	15.570	1332.108	1025.960
357.694	15.737	1330.349	1025.534
358.708	15.659	1329.726	1024.483
359.723	15.753	1328.738	1024.205
360.738	15.828	1327.617	1023.709
361.752	15.797	1326.620	1022.660
362.767	15.840	1325.436	1021.917
363.781	15.829	1324.881	1021.335
364.796	15.895	1323.947	1020.921
365.810	15.924	1323.148	1020.389
366.825	15.954	1322.245	1019.785
367.840	15.986	1322.195	1019.851
368.854	15.951	1321.382	1018.921
369.869	16.013	1321.106	1018.996
370.883	16.168	1319.935	1018.938
371.898	16.124	1319.249	1018.052
372.913	16.132	1318.282	1017.262
373.927	16.033	1317.551	1016.016
374.942	16.014	1317.098	1015.457
375.956	16.183	1315.661	1015.278
376.971	16.227	1314.848	1014.825
377.986	16.155	1314.301	1013.881
379.000	16.115	1313.627	1013.029
380.015	16.283	1312.477	1013.062
381.029	16.283	1311.647	1012.331
382.044	16.255	1311.254	1011.772
383.059	16.331	1310.443	1011.511
384.073	16.313	1309.654	1010.708
385.088	16.284	1309.336	1010.200
386.102	16.328	1308.617	1009.819
387.117	16.362	1308.058	1009.496
388.132	16.304	1307.345	1008.515
389.146	16.331	1305.925	1007.492
390.161	16.247	1305.286	1006.409
391.175	16.262	1304.636	1005.909
392.190	16.238	1303.806	1005.035
393.205	16.236	1303.488	1004.690
394.219	16.438	1301.880	1004.559
395.234	16.448	1300.844	1003.733
396.248	16.371	1299.482	1002.138
397.263	16.429	1297.805	1001.098
398.278	16.365	1296.613	999.711
399.292	16.293	1295.582	998.401
400.307	16.361	1294.762	998.081
401.321	16.359	1293.557	997.057
402.336	16.436	1292.276	996.432
403.350	16.423	1291.030	995.307
404.365	16.310	1290.549	994.185
405.380	16.381	1289.752	993.896
406.394	16.399	1288.735	993.135
407.409	16.464	1288.402	993.171
408.423	16.501	1287.812	992.847
409.438	16.542	1287.408	992.688
410.453	16.613	1286.389	992.230
411.467	16.703	1285.289	991.818
412.482	16.687	1284.837	991.291
413.496	16.682	1284.365	990.810
414.511	16.723	1283.447	990.249
415.526	16.737	1282.755	989.714
416.540	16.714	1282.037	988.936
417.555	16.902	1281.075	989.203
418.569	16.876	1280.907	988.833
419.584	16.886	1280.395	988.408
420.599	16.899	1279.740	987.896
421.613	55.588	1282.741	1210.967
422.628	55.560	1283.173	1211.107
