DTS Sentinel unit serial number:	SN413079Multiplexer serial number:	ORYXHardware model number:	OX4-SRSoftware version number:	ORYX F/W v4.00 Oryx Data Collector v3.7.2.0data status	okinstallation	princeton_trtdifferential loss correction	single-endedforward channel	channel 4reverse channel	N/Adate	2019/09/12time	19:36:19forward acquisition time	15.00reverse acquisition time	0.00gamma	496.2192k internal	0.2309k external	0.2309temperature offset calibration	1.0156default loss term (dB/km)	0.3790temperature slope calibration	1.0000multiplexer offset coefficient	1.0000multiplexer slope coefficient	1.0000fibre end	0.00T internal ref (°C)	32.12T ext. ref 1 (°C)	3.36T ext. ref 2 (°C)	26.70length (m)	temperature (°C)	Stokes	anti-Stokes-747.200	150.374	-0.096	-0.132
-746.185	8.808	-0.670	-0.513
-745.171	265.132	0.269	-0.477
-744.156	800.000	0.301	-1.070
-743.142	52.792	0.420	0.408
-742.127	-200.000	0.059	0.368
-741.112	-5.498	0.249	0.174
-740.098	467.765	-0.141	0.322
-739.083	1.214	-0.334	-0.244
-738.069	-200.000	0.033	0.248
-737.054	-159.214	-1.010	-0.058
-736.039	-200.000	-0.032	-0.449
-735.025	-28.610	0.180	0.105
-734.010	0.720	-0.268	-0.195
-732.996	143.918	-0.539	0.730
-731.981	-166.143	0.638	0.027
-730.966	560.359	-0.373	0.915
-729.952	-23.961	0.515	-0.313
-728.937	56.854	0.431	-0.426
-727.923	335.023	-0.318	0.626
-726.908	-114.891	-0.225	0.044
-725.894	-152.917	-0.261	0.019
-724.879	-200.000	0.082	-0.405
-723.864	-51.940	-0.395	0.187
-722.850	-113.232	0.042	0.008
-721.835	-49.024	-0.543	-0.264
-720.821	476.987	-0.488	1.121
-719.806	-183.043	-0.994	0.018
-718.791	-111.484	0.315	-0.065
-717.777	-68.205	-0.492	0.194
-716.762	-200.000	-0.106	-0.470
-715.748	-42.178	0.287	0.149
-714.733	-200.000	0.083	0.374
-713.718	800.000	-0.121	-0.510
-712.704	-200.000	0.144	-1.138
-711.689	-154.387	-0.329	-0.022
-710.675	309.396	-0.111	-0.210
-709.660	-57.977	0.567	0.251
-708.645	-61.719	0.362	-0.154
-707.631	533.814	-0.101	0.243
-706.616	-130.779	-0.455	0.062
-705.602	-200.000	-0.013	-0.380
-704.587	192.316	-0.060	0.092
-703.572	727.360	-0.197	-0.533
-702.558	62.364	0.325	-0.329
-701.543	396.955	-0.277	0.586
-700.529	-134.993	0.674	0.082
-699.514	782.397	0.141	-0.393
-698.499	491.124	0.204	-0.473
-697.485	800.000	-0.134	-0.407
-696.470	-200.000	-0.081	-0.374
-695.456	800.000	0.165	-0.655
-694.441	800.000	0.124	-0.536
-693.426	72.980	-0.193	0.205
-692.412	-25.178	0.575	0.345
-691.397	429.765	0.462	1.013
-690.383	-145.077	-0.864	0.080
-689.368	-24.209	0.765	0.463
-688.354	343.884	0.233	0.462
-687.339	144.440	-0.376	0.509
-686.324	-200.000	-0.030	-0.461
-685.310	-20.541	-0.716	-0.446
-684.295	800.000	-0.167	0.564
-683.281	-82.438	-0.615	0.202
-682.266	-117.181	0.410	0.076
-681.251	269.241	-0.439	0.781
-680.237	-65.364	0.173	0.071
-679.222	-13.607	-0.269	-0.177
-678.208	632.686	-0.314	0.805
-677.193	-90.204	0.449	-0.132
-676.178	-85.494	0.435	-0.137
-675.164	20.592	0.299	0.245
-674.149	-189.553	0.565	0.007
-673.135	-95.413	-0.279	-0.076
-672.120	25.168	0.658	0.554
-671.105	-39.448	-0.914	-0.485
-670.091	703.201	-0.215	-0.573
-669.076	-96.114	-0.631	0.170
-668.062	734.949	-0.137	0.372
-667.047	-200.000	0.047	-0.271
-666.032	153.551	-0.449	-0.623
-665.018	-103.822	0.495	0.117
-664.003	40.803	-0.498	-0.455
-662.989	-200.000	-0.050	-0.781
-661.974	-200.000	-0.013	0.473
-660.959	-33.642	0.688	-0.385
-659.945	241.615	0.429	-0.726
-658.930	609.553	0.401	1.014
-657.916	800.000	0.200	0.845
-656.901	-200.000	-0.034	-0.190
-655.886	444.051	-0.209	0.464
-654.872	-3.114	-0.861	-0.608
-653.857	243.575	0.469	-0.797
-652.843	-200.000	0.008	0.191
-651.828	-44.670	-0.251	0.127
-650.814	112.907	0.269	-0.330
-649.799	-150.269	0.156	-0.012
-648.784	-144.013	0.979	-0.093
-647.770	103.973	-0.458	-0.545
-646.755	-12.457	-0.300	0.198
-645.741	515.015	0.424	1.003
-644.726	227.482	-0.448	0.737
-643.711	-200.000	0.012	-0.483
-642.697	-10.803	-0.615	0.411
-641.682	800.000	-0.106	-0.298
-640.668	207.696	0.407	-0.643
-639.653	-143.688	-0.793	-0.076
-638.638	-22.226	-0.400	-0.245
-637.624	-108.109	-1.110	0.243
-636.609	-89.781	-0.777	-0.230
-635.595	-116.821	0.347	0.064
-634.580	-50.467	-0.580	-0.277
-633.565	100.622	-0.488	-0.574
-632.551	686.630	0.130	-0.345
-631.536	55.122	-0.287	-0.281
-630.522	800.000	0.350	-1.342
-629.507	-145.684	-0.715	-0.065
-628.492	-60.929	0.598	-0.256
-627.478	-84.752	1.100	-0.350
-626.463	405.314	-0.301	-0.641
-625.449	105.932	0.349	-0.417
-624.434	-59.328	0.731	-0.318
-623.419	-78.843	-0.612	0.211
-622.405	800.000	0.259	-1.055
-621.390	800.000	-0.246	-0.865
-620.376	283.465	-0.261	-0.474
-619.361	800.000	-0.241	0.706
-618.346	800.000	0.093	0.391
-617.332	800.000	0.083	0.290
-616.317	366.771	-0.223	-0.454
-615.303	318.073	-0.420	-0.803
-614.288	-106.283	0.581	0.132
-613.273	120.685	-0.180	0.226
-612.259	-78.627	-0.377	-0.130
-611.244	-34.359	-0.439	-0.243
-610.230	-114.193	-0.817	-0.159
-609.215	-15.855	0.384	0.247
-608.201	99.454	0.555	-0.649
-607.186	39.942	-0.106	-0.096
-606.171	-70.963	0.414	0.157
-605.157	-200.000	-0.020	-0.209
-604.142	32.027	-0.347	0.303
-603.128	-89.960	-0.226	0.067
-602.113	288.404	0.256	0.469
-601.098	-200.000	0.043	1.113
-600.084	68.335	-0.380	-0.393
-599.069	800.000	-0.092	0.330
-598.055	700.403	0.208	0.552
-597.040	-200.000	-0.173	-0.998
-596.025	49.284	0.466	-0.442
-595.011	131.087	-0.820	1.063
-593.996	-1.331	0.018	0.013
-592.982	-147.039	0.072	-0.006
-591.967	262.008	0.044	-0.077
-590.952	-200.000	-0.029	-0.321
-589.938	800.000	0.248	-0.731
-588.923	-81.018	-0.626	-0.209
-587.909	-21.080	0.089	-0.055
-586.894	-67.283	0.264	0.105
-585.879	666.326	-0.249	0.648
-584.865	257.667	-0.139	0.241
-583.850	4.430	0.351	0.260
-582.836	54.055	0.352	-0.342
-581.821	147.769	-0.481	0.655
-580.806	106.451	-0.437	-0.523
-579.792	-122.060	-0.578	-0.096
-578.777	-8.183	0.725	0.493
-577.763	232.628	-0.313	-0.520
-576.748	-149.429	0.193	0.015
-575.733	36.090	-0.343	-0.305
-574.719	437.049	0.072	0.159
-573.704	-62.936	0.601	0.251
-572.690	-43.025	0.161	0.083
-571.675	145.983	-0.284	0.384
-570.661	449.170	0.294	0.654
-569.646	108.108	0.379	-0.456
-568.631	784.111	-0.373	-1.032
-567.617	225.824	0.216	0.353
-566.602	1.549	-1.061	0.770
-565.588	-14.702	0.452	0.293
-564.573	-30.209	0.146	-0.084
-563.558	-83.562	-0.522	0.168
-562.544	-0.491	-0.733	-0.525
-561.529	6.567	0.442	-0.332
-560.515	35.791	0.275	-0.244
-559.500	-79.174	-0.493	0.169
-558.485	162.883	-0.354	-0.501
-557.471	302.919	-0.122	-0.229
-556.456	-37.726	0.836	0.449
-555.442	-107.377	0.617	-0.137
-554.427	61.372	0.448	0.449
-553.412	9.863	-0.619	0.474
-552.398	-200.000	-0.101	0.927
-551.383	-200.000	-0.007	-0.568
-550.369	800.000	0.088	-0.318
-549.354	13.816	0.334	0.262
-548.339	18.978	-0.635	-0.513
-547.325	-120.096	0.450	0.078
-546.310	59.518	0.223	0.221
-545.296	800.000	0.389	-1.276
-544.281	400.024	0.304	-0.642
-543.266	-127.216	0.628	0.093
-542.252	-56.352	-0.718	0.322
-541.237	692.821	-0.088	0.234
-540.223	-200.000	0.204	0.917
-539.208	432.593	0.426	0.932
-538.193	342.084	-0.038	0.074
-537.179	-200.000	0.020	-0.190
-536.164	480.088	0.119	-0.272
-535.150	-30.983	-1.235	0.703
-534.135	321.578	-0.348	0.668
-533.121	-62.113	0.241	0.101
-532.106	335.176	0.118	0.231
-531.091	42.005	-0.445	-0.407
-530.077	-200.000	0.000	-0.765
-529.062	-118.160	0.615	0.110
-528.048	800.000	0.171	0.483
-527.033	-150.311	-0.480	-0.037
-526.018	37.587	-0.928	0.830
-525.004	-82.116	-0.950	0.312
-523.989	-90.550	-1.176	0.343
-522.975	-200.000	0.004	0.482
-521.960	676.466	0.271	0.709
-520.945	-106.583	-0.817	0.183
-519.931	-200.000	0.128	-0.593
-518.916	122.342	0.245	0.309
-517.902	-200.000	-0.009	0.614
-516.887	-139.341	0.850	0.092
-515.872	800.000	-0.134	0.459
-514.858	2.810	0.494	0.361
-513.843	58.320	0.108	0.107
-512.829	-170.537	0.390	-0.014
-511.814	330.261	-0.053	0.104
-510.799	195.933	-0.138	-0.212
-509.785	-110.123	0.459	0.096
-508.770	-200.000	-0.026	-0.672
-507.756	65.862	-0.258	-0.263
-506.741	-84.187	0.477	0.152
-505.726	-119.595	0.880	-0.153
-504.712	-200.000	-0.082	0.557
-503.697	123.888	0.617	-0.779
-502.683	-200.000	0.223	1.046
-501.668	-45.227	-0.449	-0.224
-500.653	268.324	0.085	0.151
-499.639	34.126	-0.268	0.235
-498.624	-146.476	-0.088	0.008
-497.610	649.904	-0.040	-0.104
-496.595	62.261	0.088	0.088
-495.581	93.657	-0.446	-0.509
-494.566	277.307	-0.180	-0.323
-493.551	127.461	0.451	0.576
-492.537	532.295	-0.206	0.491
-491.522	129.038	0.479	0.615
-490.508	60.783	0.698	-0.696
-489.493	-111.267	-0.866	-0.178
-488.478	-68.243	-0.440	-0.172
-487.464	800.000	0.081	0.306
-486.449	-32.795	0.455	-0.254
-485.435	399.599	-0.163	-0.343
-484.420	800.000	0.237	0.729
-483.405	140.085	0.301	-0.399
-482.391	-110.605	-1.057	0.220
-481.376	59.607	0.099	0.098
-480.362	-89.033	-0.301	0.090
-479.347	-200.000	0.003	0.077
-478.332	122.222	0.113	-0.141
-477.318	-21.192	0.715	-0.440
-476.303	35.660	-0.691	-0.611
-475.289	-37.165	0.544	-0.292
-474.274	345.691	0.094	-0.186
-473.259	-200.000	-0.175	0.779
-472.245	-173.429	0.882	0.027
-471.230	338.199	-0.262	-0.512
-470.216	-123.316	-0.562	0.090
-469.201	122.736	0.209	-0.263
-468.186	10.086	0.307	0.234
-467.172	352.879	-0.261	-0.520
-466.157	443.729	-0.121	-0.266
-465.143	-122.318	0.575	0.094
-464.128	1.917	0.349	0.253
-463.113	-200.000	0.105	-0.891
-462.099	-200.000	0.158	-0.870
-461.084	-68.643	-0.520	-0.202
-460.070	264.736	0.128	0.224
-459.055	139.435	-0.171	-0.226
-458.040	-95.296	-0.708	0.192
-457.026	800.000	0.320	0.986
-456.011	-92.193	-0.306	0.087
-454.997	-32.335	-0.702	-0.393
-453.982	-131.971	-0.603	-0.079
-452.968	-200.000	-0.003	-0.398
-451.953	-125.048	-0.814	-0.126
-450.938	-132.868	-0.604	0.077
-449.924	38.529	0.592	-0.530
-448.909	262.628	-0.363	-0.632
-447.895	800.000	0.140	-0.396
-446.880	151.309	0.326	-0.446
-445.865	272.831	0.239	0.423
-444.851	178.437	-0.113	-0.165
-443.836	-4.587	-0.428	0.297
-442.822	54.123	0.320	-0.309
-441.807	11.209	0.348	-0.267
-440.792	-200.000	0.047	0.459
-439.778	-96.327	0.217	-0.058
-438.763	-200.000	-0.119	-1.306
-437.749	-200.000	0.013	-0.516
-436.734	-106.680	0.284	0.063
-435.719	670.529	0.246	0.638
-434.705	97.051	0.750	0.863
-433.690	-70.382	0.239	-0.091
-432.676	392.403	-0.135	0.282
-431.661	357.712	-0.294	-0.588
-430.646	110.412	0.416	0.502
-429.632	-93.526	-0.157	0.043
-428.617	-47.797	0.493	0.240
-427.603	-200.000	0.008	-0.049
-426.588	153.712	0.302	0.416
-425.573	-10.383	0.762	-0.507
-424.559	-54.232	-0.527	0.240
-423.544	-200.000	-0.059	0.713
-422.530	4.746	-1.024	0.755
-421.515	-0.676	-0.271	0.193
-420.500	-200.000	0.047	-0.357
-419.486	-200.000	0.006	0.206
-418.471	41.792	0.352	0.320
-417.457	-160.154	0.353	-0.019
-416.442	114.491	0.150	0.183
-415.428	13.433	0.829	-0.645
-414.413	-200.000	0.072	1.134
-413.398	800.000	0.133	0.514
-412.384	-200.000	0.065	-0.347
-411.369	-200.000	-0.087	0.451
-410.355	7.954	-0.258	-0.194
-409.340	-19.234	-0.628	0.391
-408.325	-200.000	-0.053	0.322
-407.311	-200.000	-0.063	0.670
-406.296	61.710	0.312	0.312
-405.282	483.831	0.380	-0.866
-404.267	-200.000	-0.030	-0.961
-403.252	-24.463	-0.503	-0.301
-402.238	-94.651	0.795	0.217
-401.223	270.297	-0.274	-0.483
-400.209	194.676	-0.543	-0.825
-399.194	800.000	0.023	-0.075
-398.179	579.088	-0.388	0.953
-397.165	-88.846	-0.439	0.131
-396.150	-200.000	0.078	-0.375
-395.136	740.645	-0.274	0.738
-394.121	214.051	0.045	-0.072
-393.106	681.781	0.129	0.336
-392.092	-54.268	-0.642	0.292
-391.077	161.022	-0.066	0.093
-390.063	-83.025	0.237	-0.077
-389.048	135.555	-0.113	-0.148
-388.033	187.329	-0.267	0.399
-387.019	765.500	0.056	-0.153
-386.004	-98.846	0.206	0.052
-384.990	22.192	0.561	-0.459
-383.975	-19.068	-0.566	-0.352
-382.960	31.048	-0.545	-0.468
-381.946	11.045	-0.129	-0.099
-380.931	190.662	0.141	-0.212
-379.917	427.331	0.360	-0.778
-378.902	406.994	0.134	-0.283
-377.888	156.264	-0.582	0.804
-376.873	-148.531	-0.194	-0.016
-375.858	572.792	-0.155	-0.378
-374.844	-200.000	0.109	0.561
-373.829	-200.000	0.062	0.946
-372.815	-200.000	0.016	0.278
-371.800	-200.000	-0.016	0.793
-370.785	-44.191	0.452	0.227
-369.771	793.464	0.215	-0.592
-368.756	-5.130	0.239	0.164
-367.742	-43.752	-0.140	-0.071
-366.727	800.000	-0.140	0.582
-365.712	-200.000	0.732	-0.003
-364.698	-128.776	-0.444	0.063
-363.683	694.409	-0.202	0.531
-362.669	-154.321	-0.447	0.030
-361.654	-96.289	0.210	0.056
-360.639	-200.000	-0.041	0.471
-359.625	-91.207	0.811	0.232
-358.610	791.456	-0.459	1.264
-357.596	494.108	-0.286	0.658
-356.581	-172.192	-0.417	0.013
-355.566	800.000	0.151	-0.589
-354.552	-12.307	-0.367	0.240
-353.537	5.559	-0.677	0.500
-352.523	58.385	0.419	0.411
-351.508	-200.000	0.012	0.308
-350.493	800.000	-0.158	-0.557
-349.479	97.679	0.099	-0.113
-348.464	16.409	0.191	-0.151
-347.450	-8.867	0.452	0.303
-346.435	800.000	0.058	0.200
-345.420	75.479	-0.748	-0.789
-344.406	-68.843	-0.627	0.242
-343.391	-78.188	-0.787	0.271
-342.377	278.302	0.043	0.076
-341.362	108.216	-0.138	-0.165
-340.348	31.521	-0.232	-0.199
-339.333	-57.013	0.890	-0.393
-338.318	281.957	-0.259	0.465
-337.304	462.450	0.113	-0.253
-336.289	-69.909	0.217	0.083
-335.275	18.919	0.156	-0.125
-334.260	-160.768	0.524	-0.028
-333.245	-200.000	-0.029	0.398
-332.231	800.000	-0.172	-0.533
-331.216	12.836	0.461	0.356
-330.202	800.000	0.073	-0.317
-329.187	11.894	-0.487	0.374
-328.172	117.743	0.197	0.243
-327.158	-29.057	0.570	-0.327
-326.143	800.000	-0.121	-0.379
-325.129	299.093	-0.182	-0.335
-324.114	800.000	0.179	0.687
-323.099	-110.594	0.161	0.033
-322.085	218.343	0.375	0.599
-321.070	208.822	-0.358	0.560
-320.056	-200.000	-0.019	-0.249
-319.041	-69.278	-0.687	0.264
-318.026	79.514	-0.196	0.211
-317.012	-54.972	-0.304	-0.137
-315.997	62.350	0.433	-0.432
-314.983	-156.832	-0.961	-0.059
-313.968	-200.000	-0.094	0.444
-312.953	800.000	0.038	0.116
-311.939	-81.709	1.077	0.353
-310.924	134.130	-0.141	-0.182
-309.910	-69.713	0.432	-0.165
-308.895	-200.000	0.028	-0.591
-307.880	44.823	-0.564	-0.519
-306.866	-179.451	0.418	0.009
-305.851	248.460	0.148	-0.250
-304.837	-19.500	-0.121	-0.075
-303.822	547.040	0.098	0.233
-302.807	42.013	-0.481	0.436
-301.793	-200.000	-0.007	-0.188
-300.778	55.731	-0.407	0.393
-299.764	800.000	-0.068	0.256
-298.749	-164.609	0.485	0.022
-297.735	-176.818	0.868	-0.022
-296.720	-123.417	-0.544	0.086
-295.705	-161.737	-0.547	0.028
-294.691	-5.711	0.429	-0.293
-293.676	179.314	-0.454	-0.663
-292.662	-98.493	-0.888	0.227
-291.647	-60.950	-0.251	-0.106
-290.632	-40.290	-0.431	-0.224
-289.618	20.803	-0.417	-0.337
-288.603	-200.000	0.023	0.629
-287.589	-118.418	-0.249	-0.044
-286.574	-86.238	0.272	0.084
-285.559	201.834	0.359	0.551
-284.545	-200.000	0.298	0.000
-283.530	40.059	-0.473	0.424
-282.516	-159.637	0.751	0.041
-281.501	800.000	0.180	0.563
-280.486	-45.597	-0.840	-0.415
-279.472	86.345	0.296	0.326
-278.457	-162.515	0.078	0.004
-277.443	-85.125	-0.226	0.070
-276.428	65.857	0.398	-0.402
-275.413	239.068	0.328	0.544
-274.399	-104.710	-0.230	-0.053
-273.384	-75.260	0.537	-0.191
-272.370	-153.302	0.437	-0.030
-271.355	154.566	-0.412	-0.565
-270.340	800.000	0.094	-0.381
-269.326	596.258	-0.198	0.489
-268.311	-200.000	-0.036	-0.166
-267.297	-83.013	0.139	0.045
-266.282	800.000	0.122	-0.371
-265.267	-44.068	-0.703	0.352
-264.253	28.696	0.682	0.576
-263.238	92.935	0.355	0.400
-262.224	3.036	0.553	-0.401
-261.209	-82.540	-0.230	0.074
-260.195	338.099	-0.620	-1.202
-259.180	800.000	0.197	0.687
-258.165	-17.451	0.620	0.389
-257.151	281.493	-0.188	-0.335
-256.136	-200.000	-0.074	0.346
-255.122	193.087	0.233	0.351
-254.107	-200.000	0.022	0.196
-253.092	394.539	0.210	-0.436
-252.078	11.776	0.123	-0.094
-251.063	-56.773	0.249	-0.110
-250.049	650.288	-0.198	0.504
-249.034	-14.955	-0.213	0.136
-248.019	1.473	-0.093	-0.066
-247.005	224.563	0.147	0.237
-245.990	-109.017	0.543	0.115
-244.976	162.799	-0.361	0.505
-243.961	-134.208	0.190	-0.023
-242.946	-200.000	0.043	0.251
-241.932	-34.748	0.457	-0.249
-240.917	-158.635	-0.260	-0.015
-239.903	8.680	0.314	-0.236
-238.888	-125.279	0.749	-0.114
-237.873	-4.733	0.158	0.108
-236.859	174.876	-0.233	-0.336
-235.844	-200.000	-0.012	0.122
-234.830	-118.392	0.377	-0.067
-233.815	197.925	-0.082	0.125
-232.800	-66.778	-0.631	0.249
-231.786	-16.517	-0.276	0.174
-230.771	-36.966	0.385	-0.205
-229.757	800.000	0.201	0.677
-228.742	800.000	0.244	-0.846
-227.727	222.720	0.264	-0.423
-226.713	-200.000	0.127	-0.580
-225.698	-128.552	0.548	-0.077
-224.684	204.943	-0.282	-0.436
-223.669	-186.157	0.361	-0.005
-222.655	-200.000	-0.075	0.353
-221.640	-29.591	-0.124	-0.070
-220.625	-25.292	0.222	-0.131
-219.611	-109.612	-1.023	-0.215
-218.596	-200.000	0.022	0.156
-217.582	-48.618	0.322	0.154
-216.567	-64.048	-0.431	0.175
-215.552	-200.000	-0.111	-0.833
-214.538	-3.248	0.180	-0.125
-213.523	394.055	-0.170	-0.352
-212.509	474.670	0.122	-0.274
-211.494	-76.970	-0.534	-0.185
-210.479	-111.603	0.212	0.043
-209.465	-51.360	0.741	-0.345
-208.450	-58.058	-0.236	0.102
-207.436	-25.146	0.390	0.230
-206.421	800.000	-0.093	-0.260
-205.406	-94.146	0.189	-0.052
-204.392	-147.001	-0.467	-0.040
-203.377	-116.230	-0.711	-0.131
-202.363	298.121	-0.288	0.526
-201.348	128.337	0.287	-0.364
-200.333	30.915	0.475	0.405
-199.319	-86.435	0.401	0.123
-198.304	-73.487	0.730	-0.265
-197.290	-15.091	-0.333	0.212
-196.275	-200.000	0.120	-0.666
-195.260	4.669	0.636	-0.465
-194.246	-196.678	-0.398	0.003
-193.231	-151.909	0.508	0.037
-192.217	80.822	-0.390	-0.418
-191.202	-22.735	0.426	-0.256
-190.187	121.990	0.482	0.598
-189.173	35.983	0.238	0.208
-188.158	800.000	-0.048	-0.144
-187.144	78.136	0.539	-0.571
-186.129	-111.893	0.226	0.045
-185.114	-21.482	0.690	-0.418
-184.100	-200.000	-0.030	-0.559
-183.085	40.781	-0.263	0.236
-182.071	27.206	0.090	-0.075
-181.056	-1.131	0.437	0.307
-180.042	-77.261	-0.463	-0.160
-179.027	13.378	-0.264	-0.203
-178.012	388.713	-0.339	-0.698
-176.998	-131.827	0.938	-0.122
-175.983	35.347	-0.125	0.109
-174.969	-28.744	-0.393	-0.225
-173.954	147.345	0.374	-0.500
-172.939	423.201	-0.454	0.969
-171.925	-62.755	0.457	0.188
-170.910	-35.844	0.423	0.228
-169.896	-112.526	-0.479	0.095
-168.881	-105.259	0.703	0.159
-167.866	17.490	-0.404	-0.319
-166.852	192.314	-0.146	-0.219
-165.837	-68.564	-0.599	0.231
-164.823	32.076	-0.207	0.177
-163.808	-150.023	0.702	0.054
-162.793	77.947	-0.432	-0.457
-161.779	-200.000	-0.006	-0.287
-160.764	-157.267	0.468	0.028
-159.750	800.000	-0.121	-0.374
-158.735	189.729	0.226	-0.336
-157.720	-57.201	0.199	-0.087
-156.706	672.963	0.202	-0.520
-155.691	-152.998	0.633	-0.044
-154.677	-93.884	0.587	0.160
-153.662	-30.625	-0.768	-0.431
-152.647	226.718	-0.179	0.288
-151.633	354.549	0.526	1.039
-150.618	-179.380	0.863	-0.019
-149.604	405.172	0.067	0.140
-148.589	-200.000	-0.204	0.954
-147.574	-182.660	0.333	-0.006
-146.560	20.614	-0.305	-0.245
-145.545	78.494	-0.135	0.143
-144.531	-191.658	0.385	-0.004
-143.516	695.259	0.244	0.635
-142.502	-179.054	-0.123	0.003
-141.487	449.897	0.247	0.540
-140.472	144.760	-0.358	-0.475
-139.458	-121.925	0.831	0.136
-138.443	-106.996	0.881	0.193
-137.429	19.751	0.608	-0.486
-136.414	800.000	-0.231	-0.658
-135.399	-61.167	0.420	-0.176
-134.385	691.975	0.126	-0.327
-133.370	197.293	-0.652	0.987
-132.356	649.989	-0.110	0.278
-131.341	-200.000	-0.109	-0.781
-130.326	94.035	-0.204	-0.229
-129.312	133.974	0.271	-0.349
-128.297	69.742	0.236	-0.241
-127.283	188.446	-0.204	0.302
-126.268	-19.132	-0.410	0.252
-125.253	63.119	0.261	0.260
-124.239	233.930	-0.239	0.390
-123.224	-75.095	0.280	0.099
-122.210	368.744	-0.237	0.476
-121.195	257.114	-0.233	-0.398
-120.180	746.441	0.109	0.291
-119.166	-200.000	0.001	-0.224
-118.151	-200.000	0.007	-1.002
-117.137	491.174	-0.215	-0.488
-116.122	-19.442	-0.353	0.217
-115.107	-96.408	-0.810	-0.212
-114.093	-168.796	0.078	-0.003
-113.078	29.314	-0.324	0.273
-112.064	469.942	0.272	0.605
-111.049	-23.648	-0.750	0.445
-110.034	800.000	0.168	-0.594
-109.020	-25.014	0.293	0.172
-108.005	419.285	0.309	-0.656
-106.991	-200.000	-0.100	-0.518
-105.976	-61.042	0.190	-0.080
-104.962	-51.986	0.731	0.336
-103.947	173.344	0.347	-0.495
-102.932	716.017	0.244	0.642
-101.918	60.049	0.314	0.307
-100.903	-131.121	-0.702	0.093
-99.889	618.216	0.121	0.302
-98.874	-146.953	0.633	-0.054
-97.859	-122.949	0.789	-0.126
-96.845	-190.499	0.049	0.001
-95.830	-42.257	0.760	0.385
-94.816	-200.000	-0.125	-0.660
-93.801	314.866	-0.397	-0.740
-92.786	-158.595	0.733	0.042
-91.772	-26.068	-0.396	-0.230
-90.757	-200.000	0.077	0.849
-89.743	235.644	0.364	-0.596
-88.728	42.310	-0.285	0.257
-87.713	800.000	0.186	0.581
-86.699	111.037	0.385	-0.459
-85.684	-66.416	-0.626	0.246
-84.670	18.570	-0.155	-0.123
-83.655	94.517	0.593	-0.667
-82.640	-76.377	-1.152	-0.401
-81.626	-33.489	0.489	-0.267
-80.611	12.785	0.253	0.194
-79.597	-103.867	-1.123	0.260
-78.582	51.723	0.386	0.364
-77.567	187.973	0.193	0.285
-76.553	94.771	-0.675	-0.760
-75.538	350.271	0.324	0.633
-74.524	307.464	-0.065	-0.119
-73.509	-51.864	-0.751	0.346
-72.494	-28.167	0.263	0.151
-71.480	-154.225	-0.425	-0.028
-70.465	-200.000	0.091	0.461
-69.451	169.522	0.227	-0.320
-68.436	-200.000	0.085	0.475
-67.422	800.000	0.199	-0.606
-66.407	463.602	-0.325	0.718
-65.392	-149.974	0.705	-0.054
-64.378	-80.792	0.687	0.226
-63.363	-200.000	0.054	-0.624
-62.349	-200.000	0.003	0.192
-61.334	-54.296	-1.504	-0.675
-60.319	96.763	-0.464	0.525
-59.305	-200.000	-0.061	-0.963
-58.290	477.037	0.585	1.309
-57.276	288.024	0.649	1.162
-56.261	-200.000	96.682	604.140
-55.246	664.389	1354.903	3457.830
-54.232	200.253	2528.311	3840.124
-53.217	110.310	2278.428	2706.184
-52.203	38.896	2045.664	1806.840
-51.188	33.831	1962.594	1688.517
-50.173	32.609	1943.838	1661.538
-49.159	48.473	1996.241	1848.470
-48.144	49.046	2014.606	1870.527
-47.130	34.546	1976.477	1706.589
-46.115	32.153	1965.896	1676.059
-45.100	32.096	1962.326	1672.446
-44.086	32.028	1959.197	1669.106
-43.071	31.929	1958.141	1667.261
-42.057	31.849	1956.214	1664.847
-41.042	32.226	1952.244	1664.741
-40.027	32.098	1951.042	1662.518
-39.013	32.047	1948.874	1660.146
-37.998	32.117	1948.512	1660.392
-36.984	32.205	1945.678	1658.689
-35.969	32.100	1944.105	1656.359
-34.954	32.225	1942.041	1655.639
-33.940	32.270	1940.955	1655.041
-32.925	32.008	1940.731	1652.473
-31.911	32.194	1936.835	1650.725
-30.896	32.294	1935.457	1650.364
-29.881	32.053	1934.726	1647.562
-28.867	32.311	1932.696	1648.026
-27.852	32.188	1930.469	1644.986
-26.838	32.148	1929.718	1643.933
-25.823	32.172	1927.298	1642.019
-24.809	32.053	1925.810	1639.644
-23.794	32.177	1923.315	1638.539
-22.779	32.119	1922.691	1637.434
-21.765	32.005	1920.883	1634.834
-20.750	32.110	1918.667	1633.802
-19.736	31.997	1917.833	1632.039
-18.721	32.103	1914.653	1630.189
-17.706	32.153	1914.577	1630.491
-16.692	31.959	1912.512	1626.985
-15.677	32.193	1910.845	1627.532
-14.663	32.103	1909.897	1625.885
-13.648	32.156	1908.521	1625.105
-12.633	32.176	1906.893	1623.826
-11.619	32.190	1906.509	1623.556
-10.604	32.039	1905.568	1621.385
-9.590	32.063	1902.936	1619.287
-8.575	31.996	1902.593	1618.354
-7.560	32.210	1900.705	1618.531
-6.546	32.181	1899.147	1616.885
-5.531	32.183	1897.195	1615.179
-4.517	32.266	1896.427	1615.178
-3.502	32.137	1896.041	1613.672
-2.487	32.242	1894.428	1613.142
-1.473	32.039	1893.275	1610.348
-0.458	32.168	1889.332	1608.042
0.556	33.501	1868.890	1579.746
1.571	29.055	1848.843	1525.905
2.586	24.948	1872.017	1510.336
3.600	23.819	1906.446	1528.276
4.615	23.127	1900.179	1517.179
5.629	17.957	1800.502	1395.341
6.644	8.564	1683.289	1232.321
7.659	3.608	1646.564	1167.899
8.673	3.180	1643.734	1162.562
9.688	3.457	1642.308	1163.537
10.702	3.463	1640.969	1162.531
11.717	3.340	1637.245	1158.866
12.731	3.802	1636.923	1162.007
13.746	10.224	1652.311	1221.430
14.761	19.829	1672.512	1309.304
15.775	24.448	1681.600	1351.365
16.790	25.027	1680.677	1354.880
17.804	24.850	1679.709	1352.645
18.819	24.523	1677.768	1348.493
19.834	24.370	1676.385	1346.105
20.848	24.082	1675.871	1343.401
21.863	24.466	1674.046	1344.715
22.877	24.556	1673.774	1345.053
23.892	24.506	1672.851	1343.816
24.907	24.346	1671.787	1341.642
25.921	24.153	1671.205	1339.602
26.936	24.483	1670.051	1341.041
27.950	24.339	1669.806	1339.638
28.965	24.477	1666.612	1337.993
29.980	24.542	1666.263	1338.081
30.994	24.472	1666.177	1337.370
32.009	24.416	1666.022	1336.709
33.023	24.552	1665.100	1336.869
34.038	24.609	1664.046	1336.330
35.053	24.472	1663.377	1334.654
36.067	24.712	1661.664	1334.952
37.082	24.471	1660.399	1332.013
38.096	24.193	1660.933	1330.252
39.111	24.532	1658.638	1330.826
40.126	24.398	1658.997	1329.996
41.140	24.521	1656.971	1329.167
42.155	24.199	1656.794	1326.512
43.169	24.111	1654.926	1324.244
44.184	23.962	1654.592	1322.750
45.199	23.747	1652.808	1319.615
46.213	23.990	1651.504	1320.257
47.228	23.956	1650.761	1319.299
48.242	24.350	1649.546	1321.123
49.257	24.485	1648.623	1321.272
50.271	24.487	1647.629	1320.371
51.286	24.374	1647.272	1319.132
52.301	24.357	1645.890	1317.782
53.315	24.334	1643.206	1315.351
54.330	24.296	1643.377	1315.089
55.344	24.179	1642.015	1313.018
56.359	24.023	1640.047	1310.180
57.374	24.147	1638.300	1309.585
58.388	24.046	1637.862	1308.374
59.403	24.199	1636.282	1308.119
60.417	24.092	1634.354	1305.680
61.432	23.908	1634.080	1303.994
62.447	23.870	1632.804	1302.581
63.461	23.866	1631.789	1301.629
64.476	23.835	1631.485	1301.044
65.490	23.899	1629.506	1299.814
66.505	23.791	1628.767	1298.326
67.520	23.678	1628.813	1297.423
68.534	23.845	1626.505	1296.688
69.549	23.918	1625.847	1296.580
70.563	24.004	1624.508	1296.021
71.578	23.980	1623.378	1294.830
72.593	23.910	1622.679	1293.650
73.607	23.789	1622.506	1292.516
74.622	23.626	1620.007	1289.228
75.636	23.732	1620.433	1290.220
76.651	23.775	1618.964	1289.252
77.666	23.849	1617.575	1288.570
78.680	24.007	1616.779	1288.965
79.695	23.829	1616.913	1287.665
80.709	23.658	1616.243	1285.780
81.724	23.850	1615.239	1286.259
82.739	23.841	1614.639	1285.605
83.753	24.131	1613.606	1286.762
84.768	24.485	1611.635	1287.630
85.782	24.407	1612.979	1288.024
86.797	24.610	1612.314	1288.845
87.812	24.641	1611.882	1288.612
88.826	24.399	1611.290	1286.276
89.841	24.388	1609.385	1284.566
90.855	24.311	1608.378	1283.090
91.870	24.454	1606.935	1282.858
92.884	24.725	1606.663	1284.475
93.899	24.709	1606.026	1283.733
94.914	24.778	1604.445	1282.850
95.928	24.793	1603.009	1281.695
96.943	24.870	1601.090	1280.599
97.957	24.577	1599.893	1277.437
98.972	24.624	1599.878	1277.647
99.987	24.644	1598.047	1276.213
101.001	24.658	1596.237	1274.754
102.016	24.528	1594.725	1272.508
103.030	24.475	1594.201	1271.603
104.045	24.480	1592.717	1270.341
105.060	24.647	1591.984	1270.832
106.074	24.188	1589.934	1265.824
107.089	24.218	1588.062	1264.434
108.103	24.057	1586.658	1262.058
109.118	23.904	1585.892	1260.258
110.133	23.893	1583.890	1258.478
111.147	23.700	1582.153	1255.622
112.162	23.618	1581.621	1254.506
113.176	24.026	1578.918	1255.131
114.191	23.952	1578.929	1254.503
115.206	24.087	1577.796	1254.444
116.220	23.916	1577.047	1252.532
117.235	23.940	1577.013	1252.564
118.249	24.193	1573.734	1251.632
119.264	23.935	1572.845	1248.997
120.279	23.724	1571.239	1246.136
121.293	23.746	1570.004	1245.200
122.308	23.713	1569.671	1244.593
123.322	23.964	1566.345	1243.599
124.337	23.701	1566.943	1242.125
125.352	23.429	1564.891	1238.491
126.366	23.756	1563.276	1239.381
127.381	23.577	1563.994	1238.594
128.395	23.700	1562.098	1237.837
129.410	23.739	1561.025	1237.154
130.424	23.350	1559.936	1233.472
131.439	23.407	1559.379	1233.321
132.454	23.445	1557.423	1231.924
133.468	23.584	1556.989	1232.441
134.483	23.750	1555.692	1232.452
135.497	23.805	1554.023	1231.408
136.512	23.768	1553.774	1230.845
137.527	23.942	1552.405	1230.852
138.541	23.879	1550.966	1229.167
139.556	24.015	1548.473	1228.024
140.570	23.930	1548.070	1227.008
141.585	24.011	1547.937	1227.352
142.600	24.324	1546.653	1228.382
143.614	24.317	1546.122	1227.803
144.629	24.506	1544.922	1228.040
145.643	24.692	1543.652	1228.202
146.658	24.753	1542.335	1227.466
147.673	24.536	1540.690	1224.560
148.687	24.470	1539.788	1223.280
149.702	24.364	1538.168	1221.162
150.716	24.222	1537.183	1219.297
151.731	23.951	1535.097	1215.684
152.746	23.926	1534.299	1214.774
153.760	23.861	1532.119	1212.500
154.775	23.953	1531.597	1212.607
155.789	24.240	1532.128	1214.874
156.804	24.259	1530.622	1213.699
157.819	24.444	1529.111	1213.652
158.833	24.402	1527.123	1211.683
159.848	24.274	1526.604	1210.295
160.862	24.495	1525.160	1210.544
161.877	24.494	1525.274	1210.515
162.892	24.300	1524.837	1208.752
163.906	24.188	1522.005	1205.638
164.921	23.816	1521.511	1202.623
165.935	23.927	1519.444	1201.637
166.950	23.966	1519.298	1201.673
167.964	24.061	1519.053	1202.018
168.979	23.959	1518.737	1200.970
169.994	24.199	1516.604	1200.797
171.008	24.244	1515.691	1200.270
172.023	23.722	1515.625	1196.599
173.037	24.096	1513.655	1197.449
174.052	24.344	1512.146	1197.816
175.067	24.326	1513.170	1198.403
176.081	24.227	1511.283	1196.139
177.096	24.221	1509.351	1194.464
178.110	23.664	1508.774	1190.164
179.125	24.025	1506.960	1191.046
180.140	24.036	1505.516	1189.874
181.154	24.023	1505.699	1189.828
182.169	24.178	1505.816	1190.850
183.183	24.077	1504.658	1189.155
184.198	24.261	1503.359	1189.252
185.213	24.384	1502.556	1189.331
186.227	24.464	1501.443	1188.875
187.242	24.351	1500.258	1187.078
188.256	24.539	1499.037	1187.260
189.271	24.252	1499.403	1185.535
190.286	24.419	1498.171	1185.566
191.300	24.396	1496.653	1184.106
192.315	24.141	1495.825	1181.657
193.329	24.236	1493.159	1180.078
194.344	24.067	1493.905	1179.438
195.359	24.211	1492.070	1178.837
196.373	23.810	1492.228	1176.205
197.388	23.621	1490.852	1173.770
198.402	23.749	1488.155	1172.385
199.417	23.728	1488.285	1172.244
200.432	24.131	1487.941	1174.533
201.446	24.486	1487.880	1176.720
202.461	24.631	1486.791	1176.710
203.475	24.578	1485.461	1175.201
204.490	24.534	1484.992	1174.439
205.504	24.542	1483.655	1173.332
206.519	24.048	1482.809	1169.315
207.534	24.154	1481.152	1168.599
208.548	24.074	1481.020	1167.863
209.563	23.813	1479.179	1164.600
210.577	24.008	1477.976	1164.828
211.592	23.696	1477.883	1162.610
212.607	23.580	1477.176	1161.189
213.621	24.256	1476.634	1165.080
214.636	24.565	1476.127	1166.597
215.650	24.432	1475.467	1165.100
216.665	24.416	1473.304	1163.186
217.680	24.332	1472.755	1162.105
218.694	24.411	1472.915	1162.641
219.709	24.647	1471.491	1162.948
220.723	24.581	1470.744	1161.826
221.738	24.349	1469.270	1159.057
222.753	24.329	1469.160	1158.735
223.767	24.478	1467.775	1158.506
224.782	24.274	1465.738	1155.476
225.796	24.149	1465.747	1154.566
226.811	24.506	1465.711	1156.752
227.826	24.680	1465.066	1157.268
228.840	24.480	1464.545	1155.461
229.855	24.500	1463.273	1154.481
230.869	24.357	1460.943	1151.620
231.884	24.138	1461.903	1150.860
232.899	24.226	1459.921	1149.766
233.913	24.082	1458.923	1147.945
234.928	23.891	1457.177	1145.245
235.942	23.873	1456.732	1144.677
236.957	23.848	1454.971	1143.032
237.972	23.794	1453.360	1141.315
238.986	23.855	1452.341	1140.805
240.001	23.701	1451.761	1139.262
241.015	23.808	1450.592	1138.929
242.030	23.827	1450.345	1138.760
243.045	23.773	1449.716	1137.819
244.059	24.093	1448.369	1138.704
245.074	24.151	1447.689	1138.439
246.088	24.189	1447.287	1138.265
247.103	24.303	1447.018	1138.682
248.117	24.434	1445.685	1138.367
249.132	24.417	1445.611	1138.103
250.147	24.469	1445.041	1137.882
251.161	24.908	1444.208	1139.922
252.176	25.180	1444.759	1141.987
253.190	25.107	1443.543	1140.462
254.205	25.200	1442.300	1139.969
255.220	25.239	1442.499	1140.272
256.234	25.370	1441.955	1140.577
257.249	25.391	1441.143	1139.967
258.263	25.530	1439.166	1139.180
259.278	25.306	1438.530	1137.156
260.293	25.264	1437.009	1135.589
261.307	25.298	1437.316	1135.950
262.322	25.244	1435.734	1134.257
263.336	25.414	1435.764	1135.253
264.351	25.302	1434.554	1133.486
265.366	25.419	1433.762	1133.500
266.380	25.119	1432.655	1130.634
267.395	25.291	1432.274	1131.314
268.409	25.327	1431.638	1130.940
269.424	25.157	1429.803	1128.321
270.439	24.789	1429.724	1125.843
271.453	24.976	1428.880	1126.259
272.468	25.184	1426.975	1125.963
273.482	25.192	1424.839	1124.223
274.497	24.927	1425.279	1122.811
275.512	24.816	1423.719	1120.791
276.526	24.867	1423.717	1121.009
277.541	24.977	1422.145	1120.361
278.555	24.557	1421.581	1117.188
279.570	24.829	1420.320	1117.798
280.585	25.297	1419.740	1120.164
281.599	25.134	1421.049	1120.081
282.614	25.529	1418.772	1120.648
283.628	25.197	1418.494	1118.259
284.643	25.020	1417.031	1115.905
285.657	24.744	1416.383	1113.576
286.672	24.888	1414.579	1112.960
287.687	24.733	1414.539	1111.864
288.701	24.750	1413.612	1111.139
289.716	24.916	1412.509	1111.209
290.730	24.949	1411.673	1110.655
291.745	25.052	1409.989	1109.872
292.760	25.114	1408.801	1109.223
293.774	25.007	1408.143	1107.940
294.789	24.834	1407.666	1106.398
295.803	24.848	1407.734	1106.445
296.818	25.215	1407.865	1108.718
297.833	25.178	1405.620	1106.620
298.847	24.978	1404.173	1104.149
299.862	25.183	1402.363	1103.890
300.876	24.966	1402.799	1102.805
301.891	24.673	1402.541	1100.694
302.906	25.099	1400.779	1101.833
303.920	24.967	1402.037	1101.913
304.935	25.210	1399.793	1101.546
305.949	25.458	1399.953	1103.095
306.964	25.648	1399.228	1103.597
307.979	25.692	1397.933	1102.743
308.993	25.441	1397.154	1100.496
310.008	25.344	1396.079	1098.960
311.022	25.271	1394.463	1097.141
312.037	25.351	1394.106	1097.255
313.052	25.490	1393.588	1097.595
314.066	25.371	1392.183	1095.670
315.081	25.274	1390.541	1093.691
316.095	25.072	1389.307	1091.394
317.110	24.717	1388.706	1088.658
318.125	24.779	1387.548	1088.034
319.139	24.984	1386.250	1088.165
320.154	24.770	1385.738	1086.370
321.168	24.884	1384.359	1085.885
322.183	24.619	1383.251	1083.312
323.197	24.922	1382.083	1084.137
324.212	24.703	1382.753	1083.235
325.227	24.822	1381.344	1082.759
326.241	24.859	1380.372	1082.124
327.256	25.089	1379.323	1082.594
328.270	25.054	1378.963	1082.004
329.285	25.070	1377.931	1081.194
330.300	24.744	1377.886	1079.100
331.314	24.965	1376.577	1079.312
332.329	24.807	1376.007	1077.817
333.343	24.801	1375.276	1077.115
334.358	24.864	1373.139	1075.723
335.373	25.013	1373.549	1076.843
336.387	25.312	1372.266	1077.535
337.402	25.098	1373.254	1076.931
338.416	25.490	1370.961	1077.387
339.431	25.319	1372.016	1077.094
340.446	25.527	1370.268	1076.874
341.460	25.630	1369.290	1076.626
342.475	25.685	1369.593	1077.101
343.489	25.747	1369.803	1077.538
344.504	25.690	1368.677	1076.219
345.519	25.806	1367.118	1075.593
346.533	25.998	1365.824	1075.624
347.548	26.045	1365.263	1075.365
348.562	26.230	1363.851	1075.263
349.577	26.211	1362.725	1074.163
350.592	25.760	1361.667	1070.554
351.606	25.621	1361.316	1069.356
352.621	25.402	1359.727	1066.714
353.635	25.079	1359.006	1064.139
354.650	25.080	1357.518	1062.884
355.665	25.085	1356.560	1062.071
356.679	25.032	1355.613	1060.922
357.694	25.424	1354.412	1062.205
358.708	25.516	1353.849	1062.212
359.723	25.385	1353.000	1060.679
360.738	25.587	1351.973	1060.970
361.752	25.570	1350.230	1059.408
362.767	25.427	1349.780	1058.123
363.781	25.569	1348.822	1058.111
364.796	25.683	1347.828	1057.910
365.810	25.692	1347.038	1057.247
366.825	25.606	1347.457	1056.977
367.840	26.045	1346.600	1058.791
368.854	26.347	1346.355	1060.275
369.869	26.291	1345.489	1059.173
370.883	26.297	1345.661	1059.250
371.898	26.269	1344.036	1057.708
372.913	25.719	1344.295	1054.599
373.927	25.720	1342.698	1053.262
374.942	25.729	1341.656	1052.402
375.956	25.920	1341.471	1053.278
376.971	25.953	1341.039	1053.042
377.986	25.894	1339.546	1051.433
379.000	25.998	1338.002	1050.731
380.015	26.135	1337.647	1051.155
381.029	26.163	1337.392	1051.025
382.044	26.387	1336.250	1051.340
383.059	26.171	1337.163	1050.708
384.073	26.124	1336.172	1049.563
385.088	26.034	1334.724	1047.812
386.102	26.013	1334.601	1047.499
387.117	26.298	1333.360	1048.082
388.132	26.059	1331.759	1045.352
389.146	25.549	1331.539	1042.130
390.161	25.680	1330.246	1041.783
391.175	25.719	1329.667	1041.465
392.190	25.696	1328.691	1040.473
393.205	25.807	1327.781	1040.307
394.219	25.917	1327.836	1040.897
395.234	26.209	1326.432	1041.389
396.248	26.194	1324.933	1040.030
397.263	25.698	1323.979	1036.339
398.278	25.527	1322.252	1033.908
399.292	25.679	1321.073	1033.769
400.307	25.496	1321.211	1032.736
401.321	25.708	1319.979	1032.894
402.336	25.563	1319.234	1031.389
403.350	25.333	1318.071	1029.072
404.365	25.396	1315.750	1027.528
405.380	25.505	1315.875	1028.163
406.394	25.824	1315.017	1029.220
407.409	25.730	1314.595	1028.263
408.423	25.810	1315.057	1028.988
409.438	26.101	1314.338	1029.997
410.453	26.119	1313.818	1029.601
411.467	26.149	1312.824	1028.900
412.482	26.092	1312.426	1028.175
413.496	26.156	1311.255	1027.529
414.511	26.409	1310.722	1028.462
415.526	26.638	1309.609	1028.800
416.540	26.331	1310.667	1027.794
417.555	26.513	1309.097	1027.505
418.569	26.534	1308.227	1026.851
419.584	26.521	1307.912	1026.435
420.599	26.522	1307.144	1025.750
421.613	143.646	1435.075	1793.241
422.628	139.226	1453.687	1793.310
