DTS Sentinel unit serial number:	SN413079Multiplexer serial number:	ORYXHardware model number:	OX4-SRSoftware version number:	ORYX F/W v4.00 Oryx Data Collector v3.7.2.0data status	okinstallation	princeton_trtdifferential loss correction	single-endedforward channel	channel 4reverse channel	N/Adate	2019/09/17time	18:45:35forward acquisition time	60.00reverse acquisition time	0.00gamma	496.2192k internal	0.2284k external	0.2284temperature offset calibration	0.9975default loss term (dB/km)	0.3790temperature slope calibration	1.0000multiplexer offset coefficient	1.0000multiplexer slope coefficient	1.0000fibre end	0.00T internal ref (°C)	42.22T ext. ref 1 (°C)	0.28T ext. ref 2 (°C)	32.78length (m)	temperature (°C)	Stokes	anti-Stokes-747.200	-88.282	-0.095	0.029
-746.185	-13.302	-0.371	0.248
-745.171	-200.000	0.035	0.303
-744.156	-200.000	0.017	0.261
-743.142	-90.044	0.126	0.038
-742.127	-88.349	-0.069	-0.021
-741.112	800.000	-0.065	-0.197
-740.098	312.955	0.114	0.219
-739.083	-55.927	-0.390	-0.179
-738.069	299.644	0.145	0.275
-737.054	-116.064	-0.483	-0.092
-736.039	332.864	-0.140	-0.277
-735.025	800.000	0.081	0.283
-734.010	-145.571	0.022	0.002
-732.996	21.269	-0.088	-0.073
-731.981	237.193	-0.060	-0.102
-730.966	695.212	-0.047	0.126
-729.952	104.299	-0.234	-0.283
-728.937	182.150	0.120	0.181
-727.923	-92.063	-0.549	0.159
-726.908	-133.452	-0.231	0.030
-725.894	68.798	-0.051	-0.054
-724.879	-61.503	-0.162	-0.070
-723.864	800.000	0.032	0.116
-722.850	133.343	-0.099	0.132
-721.835	-200.000	0.019	-0.178
-720.821	-8.134	-0.175	-0.121
-719.806	800.000	-0.076	-0.291
-718.791	-4.166	0.126	-0.090
-717.777	-200.000	-0.011	0.247
-716.762	-99.330	0.062	-0.016
-715.748	-137.282	0.005	0.001
-714.733	-200.000	0.068	0.352
-713.718	-31.504	0.015	-0.009
-712.704	-44.903	-0.173	0.089
-711.689	-44.543	0.331	-0.170
-710.675	277.837	0.068	0.124
-709.660	22.518	-0.194	0.163
-708.645	-125.561	-0.325	-0.051
-707.631	283.222	-0.166	-0.307
-706.616	-43.656	-0.161	0.083
-705.602	-200.000	-0.035	-0.437
-704.587	-73.628	-0.465	0.174
-703.572	372.224	0.063	-0.130
-702.558	206.128	-0.130	-0.208
-701.543	800.000	-0.074	0.261
-700.529	-80.675	0.291	0.099
-699.514	800.000	-0.070	0.248
-698.499	-200.000	-0.072	-0.362
-697.485	-14.712	0.440	-0.290
-696.470	48.206	0.125	0.120
-695.456	-162.381	-0.173	-0.009
-694.441	-81.355	0.226	-0.076
-693.426	-200.000	0.029	-0.294
-692.412	-98.927	-0.239	0.062
-691.397	279.350	-0.156	0.285
-690.383	35.084	-0.375	-0.337
-689.368	102.796	0.284	-0.340
-688.354	-69.174	0.139	0.055
-687.339	12.361	0.236	0.186
-686.324	60.299	0.097	-0.099
-685.310	-200.000	-0.013	-0.227
-684.295	-200.000	0.029	-0.218
-683.281	377.133	-0.150	0.313
-682.266	-26.481	0.135	0.081
-681.251	-80.624	0.113	0.039
-680.237	-200.000	0.034	0.422
-679.222	-200.000	0.029	0.353
-678.208	158.304	0.151	0.214
-677.193	-106.556	-0.319	-0.073
-676.178	800.000	-0.087	-0.373
-675.164	108.185	-0.116	0.141
-674.149	-58.237	-0.294	0.131
-673.135	800.000	-0.028	0.109
-672.120	-24.981	-0.124	0.075
-671.105	-7.389	0.232	0.161
-670.091	-105.161	-0.166	-0.039
-669.076	480.591	0.094	0.219
-668.062	800.000	0.051	-0.210
-667.047	-200.000	-0.012	-0.086
-666.032	-79.603	0.100	0.035
-665.018	106.543	-0.195	-0.237
-664.003	-200.000	0.034	-0.316
-662.989	260.534	0.147	-0.261
-661.974	-110.979	-0.535	-0.113
-660.959	61.698	0.042	0.043
-659.945	87.607	-0.075	0.085
-658.930	-17.269	0.328	0.212
-657.916	85.269	-0.172	0.193
-656.901	-142.940	-0.283	0.028
-655.886	-160.423	-0.464	-0.025
-654.872	314.603	-0.126	-0.243
-653.857	800.000	-0.102	0.298
-652.843	-158.852	0.182	0.011
-651.828	34.336	-0.174	-0.155
-650.814	-154.454	0.237	0.016
-649.799	335.581	-0.063	-0.125
-648.784	-159.243	-0.303	0.017
-647.770	-27.379	0.328	0.195
-646.755	224.491	-0.129	-0.213
-645.741	-109.426	-0.234	0.051
-644.726	-92.362	-0.106	0.031
-643.711	75.888	-0.085	-0.091
-642.697	94.347	-0.104	0.121
-641.682	-104.307	0.071	-0.017
-640.668	-112.592	-0.236	0.048
-639.653	84.057	-0.085	0.095
-638.638	-117.787	-0.118	0.022
-637.624	-149.454	-0.208	-0.017
-636.609	175.125	-0.180	0.267
-635.595	-96.930	0.244	0.065
-634.580	-184.842	0.252	0.004
-633.565	-200.000	-0.054	-0.325
-632.551	-99.622	-0.341	-0.087
-631.536	-54.566	-0.267	0.124
-630.522	-200.000	0.015	0.166
-629.507	34.068	0.165	0.147
-628.492	-115.137	0.270	0.052
-627.478	31.649	-0.174	-0.153
-626.463	739.135	-0.044	-0.121
-625.449	162.762	-0.150	-0.215
-624.434	-200.000	-0.045	-0.212
-623.419	-81.602	0.013	0.004
-622.405	-77.685	0.433	0.153
-621.390	-127.987	-0.173	-0.025
-620.376	-137.151	0.277	0.032
-619.361	327.117	0.061	-0.119
-618.346	-200.000	0.052	-0.398
-617.332	-200.000	0.005	-0.039
-616.317	35.803	0.036	0.032
-615.303	537.053	-0.099	-0.241
-614.288	-36.859	0.089	0.049
-613.273	0.304	0.132	0.097
-612.259	397.480	-0.040	-0.085
-611.244	148.545	-0.167	-0.231
-610.230	-119.829	-0.323	-0.057
-609.215	-51.234	0.384	0.184
-608.201	-96.984	0.133	0.036
-607.186	315.796	0.056	0.108
-606.171	83.089	0.130	-0.145
-605.157	-97.872	-0.346	0.091
-604.142	154.085	0.122	-0.171
-603.128	-200.000	0.017	0.219
-602.113	-104.778	-0.305	0.072
-601.098	144.959	0.033	0.045
-600.084	800.000	0.122	0.354
-599.069	-175.646	0.080	-0.002
-598.055	800.000	0.108	-0.320
-597.040	64.093	-0.193	-0.198
-596.025	-200.000	0.008	-0.355
-595.011	-109.333	-0.123	-0.027
-593.996	-115.501	0.110	0.021
-592.982	569.489	0.092	0.229
-591.967	-10.097	0.117	0.079
-590.952	-33.275	-0.178	0.101
-589.938	188.796	-0.132	0.202
-588.923	-200.000	-0.016	0.095
-587.909	-200.000	0.017	0.246
-586.894	-55.915	-0.176	-0.080
-585.879	122.650	-0.156	0.200
-584.865	-200.000	0.037	-0.193
-583.850	26.774	0.038	0.033
-582.836	-192.794	0.114	0.001
-581.821	-39.829	0.170	0.091
-580.806	-133.965	0.295	-0.037
-579.792	-200.000	-0.032	0.171
-578.777	800.000	0.179	0.523
-577.763	-200.000	0.062	0.476
-576.748	-56.198	-0.326	0.148
-575.733	-82.064	-0.204	0.068
-574.719	-129.511	0.090	-0.013
-573.704	-9.718	0.128	-0.087
-572.690	184.504	-0.246	0.371
-571.675	800.000	0.155	0.446
-570.661	-134.859	-0.263	0.033
-569.646	14.872	-0.037	-0.030
-568.631	-200.000	-0.021	0.232
-567.617	339.092	0.102	0.203
-566.602	24.672	0.275	0.233
-565.588	50.233	0.258	0.248
-564.573	740.540	0.019	0.053
-563.558	-130.723	0.191	-0.026
-562.544	-68.035	0.117	-0.046
-561.529	436.032	0.099	-0.220
-560.515	-200.000	0.019	-0.182
-559.500	4.702	-0.224	0.168
-558.485	87.819	-0.196	0.222
-557.471	-40.642	-0.367	-0.194
-556.456	-45.536	-0.284	0.144
-555.442	-14.789	-0.332	0.218
-554.427	-200.000	0.002	0.279
-553.412	-37.987	0.312	-0.169
-552.398	5.725	-0.204	-0.154
-551.383	158.643	0.110	-0.156
-550.369	-200.000	-0.046	-0.224
-549.354	133.828	0.110	-0.145
-548.339	800.000	-0.065	-0.266
-547.325	-200.000	-0.005	0.083
-546.310	196.396	0.090	-0.140
-545.296	458.573	-0.093	-0.210
-544.281	800.000	-0.048	-0.181
-543.266	187.058	-0.181	-0.275
-542.252	87.345	0.077	0.087
-541.237	59.175	-0.089	0.090
-540.223	96.564	0.184	-0.214
-539.208	121.840	-0.099	-0.126
-538.193	49.304	-0.125	-0.120
-537.179	511.020	-0.151	-0.357
-536.164	-200.000	0.004	-0.109
-535.150	-200.000	-0.013	0.285
-534.135	-139.122	-0.178	0.020
-533.121	-121.778	0.397	0.067
-532.106	-36.589	-0.146	-0.080
-531.091	770.504	-0.093	0.258
-530.077	503.401	0.169	0.399
-529.062	155.830	-0.060	-0.085
-528.048	177.787	-0.171	-0.254
-527.033	84.604	-0.178	-0.198
-526.018	695.947	-0.071	-0.190
-525.004	92.585	0.048	0.055
-523.989	-162.858	-0.287	-0.014
-522.975	-200.000	-0.041	0.292
-521.960	234.302	0.099	0.166
-520.945	501.216	-0.102	-0.240
-519.931	-178.077	0.282	-0.007
-518.916	26.073	-0.222	-0.189
-517.902	-14.236	0.157	0.103
-516.887	15.563	-0.164	-0.131
-515.872	-26.497	-0.125	-0.074
-514.858	-188.685	-0.194	-0.002
-513.843	483.489	-0.084	0.194
-512.829	63.971	-0.113	0.115
-511.814	-200.000	-0.047	0.224
-510.799	-6.582	-0.230	-0.160
-509.785	334.424	-0.184	-0.363
-508.770	356.179	0.079	0.159
-507.756	-41.097	0.288	-0.151
-506.741	-200.000	-0.002	-0.196
-505.726	93.636	-0.186	-0.215
-504.712	800.000	-0.013	0.048
-503.697	-200.000	0.022	-0.283
-502.683	-30.400	-0.284	-0.164
-501.668	-38.884	-0.247	0.132
-500.653	-95.328	0.137	0.037
-499.639	-34.204	0.187	-0.104
-498.624	-144.778	0.210	-0.020
-497.610	257.453	-0.085	0.149
-496.595	-6.588	0.096	-0.067
-495.581	247.104	-0.173	0.297
-494.566	-93.900	0.078	-0.022
-493.551	82.763	-0.219	-0.242
-492.537	-192.213	-0.434	-0.004
-491.522	-85.514	0.195	-0.062
-490.508	-200.000	-0.006	-0.031
-489.493	21.541	0.162	0.134
-488.478	137.928	-0.064	-0.085
-487.464	457.114	0.074	-0.168
-486.449	28.755	-0.277	0.238
-485.435	-85.684	-0.019	-0.006
-484.420	800.000	-0.034	-0.096
-483.405	-152.885	-0.249	-0.018
-482.391	-127.980	-0.391	0.057
-481.376	-82.848	-0.017	-0.005
-480.362	50.278	0.073	0.070
-479.347	132.962	0.184	-0.241
-478.332	-120.932	-0.271	-0.046
-477.318	-200.000	0.341	-0.001
-476.303	-200.000	0.043	-0.342
-475.289	66.214	0.164	0.170
-474.274	-102.774	0.068	-0.017
-473.259	76.396	-0.189	0.204
-472.245	-159.526	-0.508	0.029
-471.230	-200.000	0.024	0.185
-470.216	-200.000	-0.018	-0.168
-469.201	379.584	0.111	-0.232
-468.186	36.107	0.066	-0.059
-467.172	603.917	0.064	0.162
-466.157	-12.359	0.211	-0.140
-465.143	-200.000	-0.002	0.065
-464.128	57.658	-0.113	0.112
-463.113	-68.374	0.300	-0.118
-462.099	128.401	0.205	0.265
-461.084	233.383	0.131	0.220
-460.070	255.885	-0.253	0.441
-459.055	342.785	-0.095	0.189
-458.040	-200.000	-0.067	-0.456
-457.026	225.016	-0.132	-0.217
-456.011	-200.000	-0.014	-0.133
-454.997	228.890	0.090	-0.148
-453.982	184.440	0.170	-0.256
-452.968	21.589	0.031	0.026
-451.953	800.000	0.073	-0.319
-450.938	416.243	0.066	-0.142
-449.924	-140.618	0.208	-0.022
-448.909	159.610	0.094	0.133
-447.895	-129.381	-0.107	0.015
-446.880	-132.379	0.112	0.015
-445.865	318.214	0.197	0.380
-444.851	-123.381	-0.127	0.020
-443.836	75.985	-0.130	-0.139
-442.822	275.114	0.051	-0.091
-441.807	57.004	0.068	-0.067
-440.792	-73.923	0.091	0.034
-439.778	47.142	-0.237	-0.224
-438.763	163.623	-0.066	-0.094
-437.749	-171.231	-0.197	-0.007
-436.734	800.000	-0.031	0.104
-435.719	-62.851	-0.173	0.073
-434.705	-167.984	0.262	0.010
-433.690	-53.396	-0.185	0.086
-432.676	-126.818	0.307	-0.046
-431.661	508.433	-0.103	-0.242
-430.646	-11.561	-0.188	-0.125
-429.632	-200.000	-0.032	0.157
-428.617	107.249	0.161	-0.194
-427.603	-154.578	-0.264	-0.018
-426.588	30.264	-0.114	0.099
-425.573	-109.193	0.135	-0.029
-424.559	-49.408	-0.242	0.117
-423.544	64.290	-0.094	-0.096
-422.530	-200.000	-0.018	-0.133
-421.515	637.618	-0.107	0.276
-420.500	33.625	-0.104	-0.092
-419.486	167.840	0.160	0.230
-418.471	800.000	0.035	0.153
-417.457	754.300	-0.077	0.212
-416.442	58.979	0.049	-0.049
-415.428	-110.893	-0.234	0.049
-414.413	-64.639	0.048	0.020
-413.398	-146.221	0.230	-0.021
-412.384	206.627	0.117	-0.184
-411.369	-113.161	-0.090	0.018
-410.355	1.736	0.180	0.131
-409.340	-129.930	-0.213	0.030
-408.325	-69.425	0.240	0.093
-407.311	42.972	-0.147	0.136
-406.296	191.051	0.146	0.222
-405.282	51.123	-0.208	0.200
-404.267	111.577	0.067	0.082
-403.252	37.576	-0.143	0.129
-402.238	655.971	0.085	0.220
-401.223	-2.593	0.207	-0.147
-400.209	800.000	-0.030	-0.089
-399.194	800.000	0.037	0.160
-398.179	-200.000	-0.012	0.167
-397.165	-96.410	0.325	-0.087
-396.150	800.000	0.017	0.073
-395.136	800.000	-0.036	0.102
-394.121	-200.000	-0.052	0.333
-393.106	800.000	-0.112	0.398
-392.092	-78.632	-0.303	0.105
-391.077	192.299	0.166	0.254
-390.063	286.790	0.168	-0.307
-389.048	49.856	-0.186	-0.178
-388.033	107.397	-0.182	0.220
-387.019	-200.000	0.074	-0.356
-386.004	800.000	-0.042	0.184
-384.990	-38.916	-0.316	0.168
-383.975	331.532	-0.080	0.157
-382.960	-39.531	-0.240	0.127
-381.946	-8.495	0.122	-0.083
-380.931	-2.300	-0.171	-0.121
-379.917	-118.867	0.312	0.055
-378.902	455.778	-0.078	0.176
-377.888	-126.717	0.124	0.019
-376.873	78.299	-0.046	0.049
-375.858	-200.000	-0.049	-0.267
-374.844	-130.750	0.287	-0.039
-373.829	229.909	-0.133	-0.220
-372.815	-56.855	-0.113	0.051
-371.800	-200.000	0.004	-0.147
-370.785	-40.770	0.052	0.027
-369.771	514.918	0.148	0.349
-368.756	-34.939	0.335	-0.185
-367.742	261.364	-0.127	0.223
-366.727	-200.000	-0.009	-0.105
-365.712	373.379	0.085	-0.175
-364.698	-117.798	0.327	-0.059
-363.683	-80.731	0.093	0.031
-362.669	-200.000	0.032	-0.450
-361.654	-200.000	-0.004	0.254
-360.639	-118.359	0.287	-0.052
-359.625	-200.000	0.012	-0.056
-358.610	-18.941	0.530	-0.334
-357.596	800.000	0.054	-0.210
-356.581	-200.000	-0.007	0.172
-355.566	411.686	0.131	-0.281
-354.552	-70.820	-0.176	0.067
-353.537	-37.198	0.195	-0.105
-352.523	-99.860	0.436	0.110
-351.508	36.555	0.294	0.263
-350.493	-129.362	0.180	-0.025
-349.479	-4.465	-0.090	-0.063
-348.464	-131.035	-0.284	0.038
-347.450	386.675	-0.091	0.191
-346.435	4.321	0.100	-0.074
-345.420	-5.650	0.291	-0.202
-344.406	-6.476	0.148	0.102
-343.391	-200.000	0.064	-0.336
-342.377	-87.021	0.049	0.015
-341.362	9.411	0.101	0.078
-340.348	-69.577	0.211	0.082
-339.333	-51.872	-0.152	-0.071
-338.318	-137.495	0.093	0.011
-337.304	-200.000	-0.008	-0.054
-336.289	-200.000	0.019	-0.174
-335.275	628.764	0.068	0.175
-334.260	58.989	-0.080	0.079
-333.245	43.703	-0.098	-0.090
-332.231	20.998	-0.064	-0.053
-331.216	-200.000	0.007	-0.228
-330.202	-37.006	0.186	0.101
-329.187	-200.000	0.021	0.558
-328.172	531.684	0.091	0.217
-327.158	-149.625	-0.227	0.018
-326.143	800.000	0.102	0.397
-325.129	-97.134	0.004	-0.001
-324.114	-15.736	0.082	-0.053
-323.099	50.427	0.088	0.084
-322.085	-59.458	0.279	0.121
-321.070	111.205	0.181	0.221
-320.056	-137.667	0.357	-0.041
-319.041	-123.707	-0.156	0.025
-318.026	-200.000	0.008	-0.263
-317.012	-200.000	-0.074	0.336
-315.997	-32.842	0.162	-0.091
-314.983	-56.786	0.295	-0.132
-313.968	-182.714	0.094	0.002
-312.953	-143.431	-0.301	-0.029
-311.939	196.614	-0.135	-0.207
-310.924	-78.615	0.253	-0.087
-309.910	-183.808	0.118	0.002
-308.895	-5.268	-0.112	-0.078
-307.880	-24.216	-0.167	-0.101
-306.866	101.754	-0.044	-0.052
-305.851	275.573	0.072	-0.128
-304.837	-63.406	-0.324	-0.135
-303.822	153.657	0.018	0.025
-302.807	36.994	0.140	-0.125
-301.793	291.177	-0.135	0.247
-300.778	-22.941	-0.245	0.149
-299.764	7.814	-0.178	0.135
-298.749	4.398	-0.049	-0.036
-297.735	-106.879	0.247	0.055
-296.720	-23.791	-0.197	0.119
-295.705	574.853	-0.096	0.237
-294.691	8.478	0.253	0.192
-293.676	48.517	-0.200	-0.189
-292.662	800.000	0.053	-0.184
-291.647	-111.089	-0.285	0.059
-290.632	-18.368	0.339	-0.214
-289.618	-200.000	0.016	-0.117
-288.603	-0.456	0.097	-0.070
-287.589	-68.481	-0.249	-0.098
-286.574	-74.875	0.219	0.079
-285.559	90.613	-0.225	0.254
-284.545	-162.375	0.131	0.007
-283.530	24.286	-0.249	-0.207
-282.516	23.543	-0.141	0.117
-281.501	-0.096	0.093	-0.067
-280.486	-119.115	0.098	-0.017
-279.472	191.107	0.253	-0.384
-278.457	-188.064	-0.425	0.006
-277.443	-149.794	-0.153	0.012
-276.428	43.173	-0.058	0.053
-275.413	281.967	0.180	0.326
-274.399	-5.042	0.137	-0.095
-273.384	102.764	0.159	0.188
-272.370	-200.000	0.009	-0.280
-271.355	214.492	0.095	-0.152
-270.340	-60.367	0.041	0.018
-269.326	-190.321	0.156	0.002
-268.311	120.070	0.178	0.223
-267.297	-70.557	0.191	-0.073
-266.282	160.068	-0.092	-0.129
-265.267	-84.215	0.262	-0.084
-264.253	-150.925	0.041	-0.003
-263.238	53.797	-0.159	0.154
-262.224	-200.000	-0.041	-0.308
-261.209	280.305	-0.141	-0.254
-260.195	537.691	0.127	-0.304
-259.180	255.383	-0.148	0.255
-258.165	44.191	-0.091	-0.084
-257.151	751.254	-0.109	0.295
-256.136	-47.375	0.225	0.110
-255.122	-200.000	-0.031	-0.139
-254.107	-200.000	0.046	-0.498
-253.092	-101.281	-0.172	-0.042
-252.078	-146.163	-0.289	-0.026
-251.063	-48.462	-0.309	0.150
-250.049	-118.105	0.055	-0.010
-249.034	-200.000	-0.059	0.334
-248.019	800.000	0.141	0.406
-247.005	-200.000	0.052	0.269
-245.990	-178.011	0.296	-0.007
-244.976	2.529	0.444	0.324
-243.961	-172.596	-0.116	-0.004
-242.946	-200.000	0.026	-0.400
-241.932	157.502	0.141	-0.197
-240.917	185.618	-0.050	-0.075
-239.903	800.000	-0.018	0.074
-238.888	-87.713	0.055	-0.017
-237.873	-61.173	-0.353	-0.150
-236.859	800.000	-0.052	0.185
-235.844	-67.362	0.230	-0.091
-234.830	19.805	0.180	-0.146
-233.815	170.759	-0.083	0.120
-232.800	650.944	-0.149	-0.385
-231.786	57.286	-0.205	0.201
-230.771	-91.654	0.319	0.091
-229.757	317.431	-0.054	0.104
-228.742	157.617	0.109	-0.152
-227.727	-6.853	-0.301	-0.206
-226.713	-44.278	-0.098	-0.049
-225.698	-27.774	-0.035	0.020
-224.684	115.863	-0.166	-0.204
-223.669	327.785	-0.148	-0.285
-222.655	-77.770	-0.126	0.044
-221.640	-150.421	-0.052	-0.004
-220.625	132.699	-0.031	-0.040
-219.611	-200.000	0.024	0.153
-218.596	77.562	-0.175	0.187
-217.582	-157.362	-0.450	0.027
-216.567	117.762	-0.150	0.186
-215.552	88.539	0.262	-0.292
-214.538	800.000	0.062	0.206
-213.523	361.501	-0.206	-0.415
-212.509	339.810	-0.098	-0.192
-211.494	-105.294	-0.277	-0.063
-210.479	-155.696	-0.268	-0.017
-209.465	100.472	0.173	-0.202
-208.450	68.217	0.228	-0.235
-207.436	75.313	-0.009	-0.009
-206.421	-155.727	0.425	-0.027
-205.406	52.145	0.131	0.126
-204.392	-12.694	0.105	0.069
-203.377	-200.000	0.036	-0.322
-202.363	64.632	-0.051	0.052
-201.348	-17.463	0.098	0.062
-200.333	713.622	-0.074	-0.198
-199.319	603.745	0.067	0.168
-198.304	-79.449	-0.248	0.084
-197.290	-200.000	0.012	0.131
-196.275	800.000	-0.028	-0.117
-195.260	-131.651	0.021	-0.003
-194.246	-3.946	0.155	-0.108
-193.231	-67.376	0.049	-0.019
-192.217	4.935	0.243	0.180
-191.202	800.000	0.042	-0.136
-190.187	195.594	0.201	0.308
-189.173	-157.100	-0.158	0.010
-188.158	17.240	0.423	-0.337
-187.144	-200.000	0.050	-0.407
-186.129	143.568	0.079	-0.106
-185.114	-97.958	-0.154	-0.040
-184.100	82.212	0.179	0.195
-183.085	-140.105	0.055	-0.006
-182.071	-94.373	0.130	-0.036
-181.056	-167.057	0.380	-0.016
-180.042	-137.486	0.177	-0.020
-179.027	-200.000	0.017	-0.320
-178.012	-200.000	-0.054	-0.482
-176.998	94.607	0.171	-0.195
-175.983	-200.000	-0.034	-0.188
-174.969	-200.000	-0.004	0.069
-173.954	54.847	-0.006	0.005
-172.939	-147.258	0.213	-0.018
-171.925	236.659	-0.036	-0.059
-170.910	70.187	-0.299	0.310
-169.896	166.958	0.057	-0.082
-168.881	-21.987	-0.107	-0.065
-167.866	443.180	-0.034	-0.074
-166.852	129.822	0.171	0.219
-165.837	253.046	0.101	0.174
-164.823	107.248	-0.139	0.166
-163.808	9.094	-0.081	0.062
-162.793	102.864	-0.128	0.151
-161.779	800.000	0.096	0.298
-160.764	-200.000	-0.069	0.674
-159.750	560.460	-0.178	-0.433
-158.735	46.564	-0.241	0.225
-157.720	-35.799	0.189	-0.103
-156.706	800.000	-0.084	-0.306
-155.691	-44.288	0.110	-0.055
-154.677	96.014	-0.278	0.319
-153.662	341.942	0.182	0.357
-152.647	34.402	0.228	0.200
-151.633	-66.000	0.154	0.062
-150.618	-200.000	-0.010	0.105
-149.604	186.042	-0.115	0.172
-148.589	-51.101	-0.082	-0.039
-147.574	78.631	-0.193	-0.207
-146.560	86.460	-0.194	0.215
-145.545	0.664	0.175	0.126
-144.531	-200.000	0.008	-0.037
-143.516	-10.321	-0.067	0.044
-142.502	17.783	0.175	-0.140
-141.487	-125.958	0.225	-0.034
-140.472	-200.000	-0.009	-0.122
-139.458	131.693	-0.153	0.197
-138.443	800.000	-0.026	-0.108
-137.429	6.474	0.315	-0.235
-136.414	-0.833	-0.379	-0.269
-135.399	35.118	-0.144	-0.126
-134.385	365.315	-0.079	0.159
-133.370	-16.788	0.085	0.054
-132.356	-134.575	-0.363	-0.044
-131.341	800.000	0.078	0.257
-130.326	-123.161	0.276	-0.044
-129.312	-102.784	-0.204	0.049
-128.297	-200.000	0.031	0.428
-127.283	46.749	0.175	-0.163
-126.268	-200.000	-0.008	-0.100
-125.253	-200.000	-0.032	-0.261
-124.239	88.046	-0.046	-0.051
-123.224	800.000	0.093	0.264
-122.210	319.783	-0.157	-0.299
-121.195	-200.000	0.011	-0.224
-120.180	800.000	0.094	0.295
-119.166	185.722	0.204	0.304
-118.151	-50.667	0.130	-0.061
-117.137	32.468	-0.221	-0.191
-116.122	-83.361	-0.273	-0.088
-115.107	-55.785	-0.044	-0.020
-114.093	800.000	0.087	0.253
-113.078	-120.449	0.276	0.047
-112.064	309.291	-0.094	-0.176
-111.049	-120.624	0.393	0.067
-110.034	-144.476	-0.256	0.024
-109.020	-92.197	0.102	0.029
-108.005	-200.000	0.006	-0.136
-106.991	-200.000	-0.021	-0.407
-105.976	-170.378	-0.329	-0.012
-104.962	800.000	0.089	-0.259
-103.947	220.287	0.174	0.280
-102.932	-141.579	-0.274	-0.028
-101.918	87.780	0.215	-0.238
-100.903	-200.000	-0.043	0.426
-99.889	21.032	0.258	-0.209
-98.874	402.870	-0.060	-0.126
-97.859	-200.000	0.076	0.375
-96.845	-200.000	0.037	0.281
-95.830	-87.924	-0.087	0.026
-94.816	336.075	0.080	0.156
-93.801	4.862	0.299	-0.220
-92.786	25.904	0.246	-0.205
-91.772	-43.215	-0.312	0.158
-90.757	-14.514	-0.196	0.126
-89.743	-174.559	-0.136	0.004
-88.728	358.613	0.049	-0.099
-87.713	160.779	0.145	0.203
-86.699	-44.099	0.145	0.073
-85.684	800.000	-0.055	0.211
-84.670	-110.760	-0.207	0.043
-83.655	13.311	-0.069	0.053
-82.640	-38.187	0.111	0.059
-81.626	-80.127	-0.223	0.075
-80.611	-84.515	0.216	-0.068
-79.597	8.363	-0.107	0.080
-78.582	-74.480	0.097	-0.035
-77.567	195.676	0.211	0.321
-76.553	624.704	-0.095	0.241
-75.538	167.258	-0.271	0.386
-74.524	-200.000	0.001	0.193
-73.509	-25.998	-0.405	0.238
-72.494	-185.334	-0.247	0.004
-71.480	145.903	0.139	-0.186
-70.465	86.130	0.164	-0.181
-69.451	372.173	-0.114	-0.232
-68.436	82.979	-0.100	-0.109
-67.422	94.128	0.135	0.153
-66.407	-78.842	-0.229	0.078
-65.392	-123.253	0.094	-0.015
-64.378	-200.000	-0.046	-0.241
-63.363	-200.000	0.036	-0.177
-62.349	-165.600	-0.254	-0.011
-61.334	57.348	-0.459	-0.449
-60.319	121.033	0.172	0.213
-59.305	-200.000	-0.098	-0.556
-58.290	800.000	0.201	0.727
-57.276	800.000	0.429	1.495
-56.261	-200.000	76.140	542.568
-55.246	554.218	1308.526	3146.695
-54.232	145.719	2537.845	3400.152
-53.217	110.931	2377.177	2860.727
-52.203	49.488	2120.882	1995.542
-51.188	44.140	2028.753	1859.938
-50.173	42.394	2009.921	1826.721
-49.159	54.990	2047.386	1976.478
-48.144	59.813	2067.506	2040.024
-47.130	45.067	2032.367	1871.462
-46.115	42.304	2021.446	1836.079
-45.100	42.198	2018.350	1832.226
-44.086	42.155	2015.687	1829.342
-43.071	42.064	2013.364	1826.327
-42.057	41.975	2011.542	1823.791
-41.042	42.057	2009.610	1822.718
-40.027	42.060	2007.879	1821.100
-39.013	42.152	2005.428	1819.644
-37.998	42.181	2003.550	1818.133
-36.984	42.165	2002.140	1816.631
-35.969	42.135	2000.353	1814.663
-34.954	42.251	1998.088	1813.588
-33.940	42.246	1996.701	1812.212
-32.925	42.268	1995.067	1810.860
-31.911	42.315	1993.085	1809.409
-30.896	42.211	1991.805	1807.242
-29.881	42.203	1990.513	1805.922
-28.867	42.204	1988.851	1804.354
-27.852	42.314	1986.493	1803.129
-26.838	42.334	1984.211	1801.171
-25.823	42.338	1982.220	1799.326
-24.809	42.206	1981.176	1797.120
-23.794	42.340	1978.920	1796.206
-22.779	42.272	1977.258	1794.019
-21.765	42.301	1976.093	1793.148
-20.750	42.219	1974.529	1790.920
-19.736	42.251	1972.470	1789.268
-18.721	42.173	1971.710	1787.819
-17.706	42.288	1969.570	1786.825
-16.692	42.089	1967.990	1783.550
-15.677	42.186	1966.079	1782.609
-14.663	42.206	1964.893	1781.644
-13.648	42.247	1963.575	1780.740
-12.633	42.147	1962.473	1778.787
-11.619	42.229	1960.973	1778.081
-10.604	42.210	1959.366	1776.382
-9.590	42.157	1958.187	1774.775
-8.575	42.131	1956.615	1773.054
-7.560	42.263	1955.023	1772.710
-6.546	42.250	1953.471	1771.115
-5.531	42.211	1952.325	1769.655
-4.517	42.285	1951.049	1769.086
-3.502	42.253	1949.835	1767.629
-2.487	42.163	1948.998	1766.012
-1.473	42.166	1948.000	1765.058
-0.458	42.256	1943.483	1761.688
0.556	39.591	1920.304	1724.391
1.571	33.090	1893.703	1644.038
2.586	26.500	1909.339	1599.443
3.600	24.056	1943.044	1605.519
4.615	22.440	1938.015	1586.672
5.629	16.841	1837.638	1456.378
6.644	7.069	1711.847	1277.988
7.659	1.035	1667.850	1197.442
8.673	0.384	1664.040	1189.466
9.688	0.349	1662.802	1188.203
10.702	0.234	1661.449	1186.221
11.717	0.174	1658.686	1183.673
12.731	0.661	1658.094	1186.976
13.746	6.885	1671.377	1245.547
14.761	14.883	1687.898	1321.188
15.775	17.520	1691.053	1344.385
16.790	17.070	1688.638	1338.800
17.804	15.984	1685.555	1327.680
18.819	15.073	1682.016	1317.609
19.834	14.464	1679.804	1310.974
20.848	14.084	1677.764	1306.278
21.863	13.855	1676.027	1303.012
22.877	13.502	1674.825	1299.192
23.892	13.329	1673.502	1296.697
24.907	13.245	1672.632	1295.248
25.921	13.184	1671.390	1293.695
26.936	13.266	1669.913	1293.079
27.950	13.196	1669.566	1292.151
28.965	13.286	1669.089	1292.371
29.980	13.368	1667.991	1292.045
30.994	13.365	1667.077	1291.202
32.009	13.496	1666.182	1291.416
33.023	13.527	1665.229	1290.802
34.038	13.550	1664.360	1290.191
35.053	13.475	1663.437	1288.785
36.067	13.450	1662.542	1287.776
37.082	13.379	1661.190	1286.065
38.096	13.399	1660.359	1285.468
39.111	13.385	1659.809	1284.814
40.126	13.415	1659.237	1284.495
41.140	13.290	1658.132	1282.551
42.155	13.346	1656.386	1281.521
43.169	13.241	1655.236	1279.705
44.184	13.217	1654.005	1278.457
45.199	13.207	1652.788	1277.322
46.213	13.161	1652.029	1276.269
47.228	13.169	1650.745	1275.230
48.242	13.221	1649.227	1274.346
49.257	13.323	1647.810	1273.924
50.271	13.348	1647.095	1273.448
51.286	13.303	1646.045	1272.176
52.301	13.268	1644.221	1270.385
53.315	13.382	1642.423	1269.762
54.330	13.368	1641.416	1268.760
55.344	13.253	1639.992	1266.666
56.359	13.237	1638.354	1265.166
57.374	13.259	1637.668	1264.694
58.388	13.321	1635.957	1263.737
59.403	13.145	1635.536	1261.956
60.417	13.237	1632.945	1260.542
61.432	13.136	1632.745	1259.510
62.447	13.169	1631.070	1258.356
63.461	13.175	1630.305	1257.702
64.476	13.158	1629.214	1256.617
65.490	13.129	1627.940	1255.303
66.505	13.060	1627.036	1253.976
67.520	13.118	1625.881	1253.412
68.534	13.125	1625.044	1252.706
69.549	13.136	1623.366	1251.389
70.563	13.156	1621.943	1250.331
71.578	13.168	1620.437	1249.150
72.593	13.178	1619.694	1248.539
73.607	13.107	1618.652	1247.095
74.622	13.040	1617.698	1245.740
75.636	13.130	1616.295	1245.226
76.651	13.087	1615.830	1244.435
77.666	13.070	1614.953	1243.521
78.680	13.145	1613.608	1242.939
79.695	13.091	1612.975	1241.939
80.709	13.132	1611.592	1241.070
81.724	13.110	1610.893	1240.258
82.739	13.250	1609.647	1240.235
83.753	13.124	1609.524	1239.090
84.768	13.240	1607.890	1238.591
85.782	13.256	1607.277	1238.129
86.797	13.344	1606.164	1237.818
87.812	13.400	1605.016	1237.245
88.826	13.261	1604.451	1235.662
89.841	13.198	1603.381	1234.254
90.855	13.292	1602.134	1233.892
91.870	13.138	1601.437	1232.096
92.884	13.357	1599.946	1232.469
93.899	13.300	1599.160	1231.333
94.914	13.292	1597.694	1230.032
95.928	13.403	1596.373	1229.735
96.943	13.408	1595.182	1228.744
97.957	13.350	1594.334	1227.549
98.972	13.410	1592.368	1226.377
99.987	13.300	1590.831	1224.270
101.001	13.357	1589.062	1223.218
102.016	13.323	1587.435	1221.608
103.030	13.319	1586.193	1220.511
104.045	13.368	1585.177	1219.988
105.060	13.419	1583.307	1218.812
106.074	13.329	1581.861	1216.932
107.089	13.302	1580.789	1215.799
108.103	13.285	1579.090	1214.261
109.118	13.267	1577.436	1212.747
110.133	13.115	1576.692	1210.957
111.147	13.242	1574.867	1210.380
112.162	13.216	1573.704	1209.186
113.176	13.170	1572.367	1207.714
114.191	13.262	1571.097	1207.307
115.206	13.330	1569.878	1206.757
116.220	13.276	1568.725	1205.370
117.235	13.325	1567.333	1204.551
118.249	13.178	1566.121	1202.446
119.264	13.275	1564.604	1201.882
120.279	13.224	1563.288	1200.392
121.293	13.242	1562.316	1199.665
122.308	13.244	1560.649	1198.296
123.322	13.286	1559.138	1197.332
124.337	13.206	1557.683	1195.534
125.352	13.262	1556.388	1194.842
126.366	13.143	1555.400	1193.112
127.381	13.197	1554.252	1192.517
128.395	13.104	1553.384	1191.076
129.410	13.217	1551.794	1190.566
130.424	13.192	1550.769	1189.494
131.439	13.296	1549.263	1188.979
132.454	13.243	1547.818	1187.386
133.468	13.304	1546.719	1186.879
134.483	13.336	1545.049	1185.722
135.497	13.300	1543.574	1184.223
136.512	13.361	1542.449	1183.694
137.527	13.297	1541.087	1182.088
138.541	13.341	1539.566	1181.128
139.556	13.392	1538.352	1180.456
140.570	13.388	1536.827	1179.152
141.585	13.487	1535.121	1178.444
142.600	13.473	1533.966	1177.352
143.614	13.398	1533.489	1176.349
144.629	13.528	1531.727	1175.820
145.643	13.553	1529.979	1174.549
146.658	13.649	1528.822	1174.239
147.673	13.626	1527.253	1172.765
148.687	13.474	1526.186	1170.766
149.702	13.497	1524.641	1169.639
150.716	13.458	1522.440	1167.575
151.731	13.398	1521.557	1166.371
152.746	13.371	1520.592	1165.340
153.760	13.449	1518.357	1164.072
154.775	13.404	1517.424	1162.936
155.789	13.448	1516.564	1162.482
156.804	13.520	1515.030	1161.712
157.819	13.579	1513.688	1160.990
158.833	13.508	1512.677	1159.618
159.848	13.601	1512.008	1159.651
160.862	13.643	1510.682	1158.824
161.877	13.681	1509.162	1157.822
162.892	13.696	1508.064	1156.980
163.906	13.594	1506.710	1155.130
164.921	13.504	1505.428	1153.421
165.935	13.535	1504.398	1152.746
166.950	13.601	1503.634	1152.517
167.964	13.493	1502.205	1150.566
168.979	13.576	1501.221	1150.288
169.994	13.535	1500.531	1149.371
171.008	13.707	1498.948	1149.253
172.023	13.608	1498.096	1147.808
173.037	13.680	1496.708	1147.147
174.052	13.730	1495.900	1146.768
175.067	13.663	1494.906	1145.439
176.081	13.693	1493.361	1144.367
177.096	13.798	1491.995	1143.938
178.110	13.576	1491.176	1141.679
179.125	13.661	1490.090	1141.335
180.140	13.645	1488.658	1140.024
181.154	13.782	1487.216	1139.764
182.169	13.772	1486.909	1139.357
183.183	13.716	1485.796	1138.016
184.198	13.768	1484.312	1137.138
185.213	13.822	1483.237	1136.586
186.227	13.794	1482.460	1135.698
187.242	13.877	1481.192	1135.192
188.256	13.902	1479.375	1133.871
189.271	13.842	1478.923	1133.012
190.286	13.867	1477.920	1132.315
191.300	13.938	1476.735	1131.788
192.315	13.780	1474.966	1129.263
193.329	13.728	1474.000	1128.068
194.344	13.713	1472.995	1127.092
195.359	13.630	1472.398	1125.975
196.373	13.785	1470.962	1125.830
197.388	13.795	1469.985	1125.046
198.402	13.913	1468.847	1124.878
199.417	14.021	1467.771	1124.687
200.432	14.052	1466.465	1123.795
201.446	14.010	1465.925	1122.999
202.461	14.109	1464.562	1122.524
203.475	14.123	1463.238	1121.503
204.490	14.147	1462.046	1120.654
205.504	14.131	1461.333	1119.896
206.519	14.087	1460.168	1118.613
207.534	14.087	1458.958	1117.583
208.548	14.145	1457.766	1116.959
209.563	14.045	1456.632	1115.323
210.577	14.107	1455.463	1114.746
211.592	14.130	1454.924	1114.387
212.607	14.156	1454.111	1113.841
213.621	14.240	1453.485	1113.827
214.636	14.203	1452.961	1113.075
215.650	14.201	1451.515	1111.855
216.665	14.254	1450.581	1111.401
217.680	14.212	1450.075	1110.630
218.694	14.309	1449.059	1110.402
219.709	14.428	1448.068	1110.339
220.723	14.408	1446.916	1109.222
221.738	14.317	1446.449	1108.159
222.753	14.248	1445.580	1106.935
223.767	14.267	1444.395	1106.057
224.782	14.255	1443.287	1105.035
225.796	14.327	1442.311	1104.667
226.811	14.376	1441.503	1104.270
227.826	14.392	1440.943	1103.849
228.840	14.480	1439.656	1103.349
229.855	14.473	1439.055	1102.746
230.869	14.384	1438.343	1101.514
231.884	14.372	1437.046	1100.343
232.899	14.449	1435.855	1099.844
233.913	14.426	1434.484	1098.546
234.928	14.396	1433.605	1097.574
235.942	14.401	1432.043	1096.315
236.957	14.373	1430.890	1095.156
237.972	14.383	1429.905	1094.371
238.986	14.436	1428.885	1093.842
240.001	14.344	1428.126	1092.560
241.015	14.393	1426.910	1091.855
242.030	14.470	1425.480	1091.162
243.045	14.499	1424.965	1090.863
244.059	14.519	1423.840	1090.036
245.074	14.562	1422.813	1089.437
246.088	14.509	1422.180	1088.508
247.103	14.537	1421.832	1088.326
248.117	14.625	1420.839	1088.045
249.132	14.693	1420.035	1087.774
250.147	14.605	1419.931	1087.029
251.161	14.807	1418.746	1087.341
252.176	14.835	1417.850	1086.741
253.190	14.876	1417.196	1086.408
254.205	14.787	1416.441	1085.151
255.220	14.921	1415.323	1085.069
256.234	14.904	1414.707	1084.395
257.249	15.018	1413.732	1084.291
258.263	14.991	1413.033	1083.478
259.278	14.958	1411.929	1082.324
260.293	14.918	1411.103	1081.336
261.307	15.003	1410.088	1081.012
262.322	15.005	1409.870	1080.761
263.336	14.944	1409.094	1079.679
264.351	15.076	1407.511	1079.219
265.366	15.075	1406.348	1078.226
266.380	15.102	1405.991	1078.035
267.395	15.067	1405.022	1076.969
268.409	15.123	1404.136	1076.553
269.424	15.106	1402.968	1075.452
270.439	15.147	1401.652	1074.612
271.453	15.179	1400.738	1074.024
272.468	15.130	1400.219	1073.214
273.482	15.098	1399.589	1072.431
274.497	15.121	1398.537	1071.676
275.512	15.133	1397.674	1070.997
276.526	15.235	1396.526	1070.679
277.541	15.171	1395.336	1069.260
278.555	15.136	1394.668	1068.430
279.570	15.218	1393.330	1067.838
280.585	15.259	1392.514	1067.378
281.599	15.166	1392.390	1066.595
282.614	15.392	1391.359	1067.147
283.628	15.215	1390.197	1065.040
284.643	15.309	1389.021	1064.636
285.657	15.307	1387.738	1063.546
286.672	15.362	1386.758	1063.050
287.687	15.345	1386.099	1062.347
288.701	15.311	1385.153	1061.311
289.716	15.421	1383.947	1060.988
290.730	15.422	1383.653	1060.673
291.745	15.293	1382.783	1059.100
292.760	15.404	1381.682	1058.867
293.774	15.449	1380.294	1057.989
294.789	15.448	1380.061	1057.714
295.803	15.400	1379.265	1056.706
296.818	15.436	1378.127	1055.968
297.833	15.392	1377.108	1054.818
298.847	15.486	1376.055	1054.509
299.862	15.450	1375.724	1053.931
300.876	15.416	1374.715	1052.851
301.891	15.446	1373.231	1051.811
302.906	15.547	1372.819	1052.038
303.920	15.604	1371.632	1051.390
304.935	15.571	1370.845	1050.487
305.949	15.555	1370.395	1049.949
306.964	15.685	1369.575	1050.041
307.979	15.785	1368.350	1049.635
308.993	15.714	1367.377	1048.352
310.008	15.643	1367.011	1047.536
311.022	15.781	1365.600	1047.218
312.037	15.742	1364.679	1046.175
313.052	15.726	1363.743	1045.267
314.066	15.753	1362.333	1044.264
315.081	15.691	1361.485	1043.137
316.095	15.682	1360.403	1042.160
317.110	15.741	1359.368	1041.642
318.125	15.708	1358.543	1040.708
319.139	15.646	1357.559	1039.482
320.154	15.741	1356.810	1039.404
321.168	15.750	1355.881	1038.658
322.183	15.785	1354.659	1037.845
323.197	15.743	1353.595	1036.678
324.212	15.806	1352.682	1036.275
325.227	15.745	1352.459	1035.633
326.241	15.819	1351.709	1035.428
327.256	15.796	1350.723	1034.437
328.270	15.825	1349.468	1033.563
329.285	15.853	1348.511	1032.913
330.300	15.826	1347.544	1031.913
331.314	15.814	1347.036	1031.356
332.329	15.915	1345.831	1030.962
333.343	15.906	1345.515	1030.574
334.358	15.845	1344.772	1029.541
335.373	15.829	1343.578	1028.437
336.387	16.065	1342.661	1029.088
337.402	15.879	1342.045	1027.390
338.416	16.001	1341.079	1027.300
339.431	16.050	1340.553	1027.106
340.446	16.026	1340.019	1026.458
341.460	16.027	1338.623	1025.309
342.475	16.162	1337.434	1025.123
343.489	16.166	1337.104	1024.809
344.504	16.119	1336.262	1023.786
345.519	16.191	1335.405	1023.473
346.533	16.246	1334.291	1022.861
347.548	16.219	1333.406	1021.930
348.562	16.280	1332.505	1021.521
349.577	16.298	1331.799	1020.996
350.592	16.273	1331.114	1020.229
351.606	16.323	1329.927	1019.534
352.621	16.237	1329.166	1018.338
353.635	16.214	1328.151	1017.335
354.650	16.284	1327.279	1016.998
355.665	16.201	1326.254	1015.620
356.679	16.263	1325.082	1015.009
357.694	16.159	1324.159	1013.586
358.708	16.270	1323.469	1013.636
359.723	16.316	1321.891	1012.609
360.738	16.311	1320.920	1011.748
361.752	16.312	1319.865	1010.857
362.767	16.291	1319.170	1010.109
363.781	16.308	1318.086	1009.290
364.796	16.376	1317.502	1009.163
365.810	16.407	1316.538	1008.519
366.825	16.417	1316.009	1008.083
367.840	16.513	1315.438	1008.127
368.854	16.528	1314.671	1007.542
369.869	16.533	1314.201	1007.121
370.883	16.559	1313.439	1006.604
371.898	16.513	1312.501	1005.525
372.913	16.551	1311.613	1004.980
373.927	16.518	1310.953	1004.186
374.942	16.577	1310.130	1003.820
375.956	16.661	1309.082	1003.423
376.971	16.635	1308.500	1002.738
377.986	16.723	1307.585	1002.465
379.000	16.660	1306.607	1001.255
380.015	16.695	1306.333	1001.164
381.029	16.763	1305.331	1000.709
382.044	16.822	1304.630	1000.435
383.059	16.751	1303.924	999.384
384.073	16.891	1303.072	999.467
385.088	16.856	1302.613	998.822
386.102	16.925	1301.559	998.328
387.117	16.878	1300.872	997.437
388.132	16.856	1300.229	996.726
389.146	16.811	1299.413	995.751
390.161	16.833	1298.593	995.160
391.175	16.885	1297.542	994.573
392.190	16.805	1297.282	993.820
393.205	16.787	1296.390	992.941
394.219	16.871	1295.305	992.515
395.234	16.926	1293.426	991.306
396.248	16.959	1292.766	990.907
397.263	16.925	1291.048	989.303
398.278	16.946	1289.746	988.343
399.292	16.907	1289.107	987.539
400.307	16.928	1287.843	986.602
401.321	16.888	1286.752	985.447
402.336	16.861	1286.256	984.821
403.350	16.911	1285.188	984.210
404.365	16.920	1284.182	983.404
405.380	16.992	1283.377	983.119
406.394	16.967	1282.912	982.532
407.409	17.034	1281.596	981.823
408.423	17.019	1281.055	981.232
409.438	17.124	1280.357	981.222
410.453	17.085	1279.747	980.439
411.467	17.120	1279.261	980.183
412.482	17.135	1278.998	979.980
413.496	17.250	1277.800	979.640
414.511	17.278	1276.994	979.099
415.526	17.291	1276.053	978.362
416.540	17.263	1275.577	977.748
417.555	17.298	1275.057	977.466
418.569	17.282	1274.326	976.727
419.584	17.352	1273.579	976.473
420.599	17.395	1272.970	976.167
421.613	76.805	1319.513	1352.068
422.628	75.591	1326.275	1352.185
