DTS Sentinel unit serial number:	SN413079Multiplexer serial number:	ORYXHardware model number:	OX4-SRSoftware version number:	ORYX F/W v4.00 Oryx Data Collector v3.7.2.0data status	okinstallation	princeton_trtdifferential loss correction	single-endedforward channel	channel 4reverse channel	N/Adate	2019/09/19time	12:25:35forward acquisition time	60.00reverse acquisition time	0.00gamma	496.2192k internal	0.2321k external	0.2321temperature offset calibration	1.0016default loss term (dB/km)	0.3790temperature slope calibration	1.0000multiplexer offset coefficient	1.0000multiplexer slope coefficient	1.0000fibre end	0.00T internal ref (°C)	26.86T ext. ref 1 (°C)	0.87T ext. ref 2 (°C)	24.22length (m)	temperature (°C)	Stokes	anti-Stokes-747.200	28.752	0.047	-0.040
-746.185	189.097	-0.159	0.241
-745.171	-14.833	0.244	-0.158
-744.156	-30.442	0.388	0.223
-743.142	-127.769	-0.159	0.023
-742.127	96.614	0.131	-0.152
-741.112	-2.554	0.202	0.143
-740.098	-105.946	-0.297	-0.068
-739.083	-200.000	0.009	0.438
-738.069	-200.000	-0.036	0.462
-737.054	71.255	0.173	-0.181
-736.039	-144.683	-0.415	-0.039
-735.025	528.017	0.075	0.179
-734.010	-76.358	0.302	0.107
-732.996	-189.436	-0.401	-0.005
-731.981	-121.882	-0.290	0.048
-730.966	800.000	0.032	0.098
-729.952	-200.000	0.015	0.125
-728.937	181.968	-0.047	-0.070
-727.923	16.360	-0.296	0.236
-726.908	-13.180	-0.145	-0.095
-725.894	42.975	-0.232	-0.214
-724.879	-98.887	-0.029	0.007
-723.864	-160.780	-0.235	-0.013
-722.850	107.873	-0.300	-0.361
-721.835	800.000	-0.026	-0.073
-720.821	-46.706	0.293	0.145
-719.806	-200.000	0.001	0.045
-718.791	1.575	-0.254	-0.185
-717.777	170.470	0.090	0.130
-716.762	40.207	-0.154	-0.139
-715.748	239.423	0.145	-0.244
-714.733	-85.375	-0.328	-0.103
-713.718	70.329	-0.166	-0.173
-712.704	72.088	0.211	0.222
-711.689	-200.000	0.004	0.125
-710.675	-21.451	0.250	-0.154
-709.660	-84.609	-0.285	-0.091
-708.645	-89.857	-0.086	0.026
-707.631	-23.644	0.080	-0.049
-706.616	-200.000	-0.020	-0.213
-705.602	10.427	0.209	-0.160
-704.587	13.180	0.320	-0.250
-703.572	-200.000	-0.087	-0.476
-702.558	-3.672	-0.328	-0.230
-701.543	18.437	-0.135	-0.108
-700.529	124.624	-0.267	0.339
-699.514	-200.000	0.004	0.400
-698.499	-141.546	0.345	0.035
-697.485	-200.000	0.001	-0.153
-696.470	-79.092	0.276	0.095
-695.456	-64.801	-0.160	-0.065
-694.441	7.379	0.050	0.038
-693.426	800.000	0.067	0.234
-692.412	-178.828	0.369	0.008
-691.397	-42.241	-0.203	0.105
-690.383	-200.000	0.018	0.116
-689.368	153.569	-0.219	-0.302
-688.354	529.083	-0.062	-0.147
-687.339	76.422	0.175	-0.187
-686.324	209.879	0.078	0.123
-685.310	-63.644	-0.385	0.159
-684.295	-135.764	0.041	-0.005
-683.281	-23.924	-0.161	-0.097
-682.266	-1.481	-0.139	0.099
-681.251	-86.740	-0.068	-0.021
-680.237	800.000	0.071	-0.271
-679.222	109.120	-0.091	0.110
-678.208	-200.000	0.070	-0.340
-677.193	236.999	-0.180	0.301
-676.178	-128.450	0.464	-0.066
-675.164	-57.247	0.156	-0.069
-674.149	-78.835	-0.344	-0.118
-673.135	-70.253	0.111	-0.042
-672.120	249.849	0.125	-0.214
-671.105	-200.000	0.020	0.160
-670.091	-112.071	-0.359	-0.073
-669.076	224.879	-0.058	-0.094
-668.062	-200.000	0.032	0.211
-667.047	108.734	0.079	-0.095
-666.032	-45.881	-0.230	0.115
-665.018	309.872	-0.091	0.172
-664.003	-200.000	-0.034	-0.159
-662.989	27.657	-0.275	0.233
-661.974	-200.000	-0.013	0.258
-660.959	800.000	0.045	0.186
-659.945	656.021	0.086	0.224
-658.930	44.923	0.246	0.228
-657.916	800.000	0.031	-0.100
-656.901	30.701	-0.093	0.080
-655.886	102.878	-0.027	0.032
-654.872	800.000	0.028	0.110
-653.857	-128.230	0.528	0.076
-652.843	-92.976	-0.304	0.085
-651.828	118.132	-0.159	-0.198
-650.814	-169.653	-0.125	-0.005
-649.799	800.000	-0.003	0.009
-648.784	-177.905	0.207	-0.005
-647.770	-185.743	0.058	-0.001
-646.755	36.467	-0.217	0.193
-645.741	-200.000	0.004	0.098
-644.726	58.827	0.152	-0.151
-643.711	800.000	-0.022	-0.065
-642.697	-103.935	-0.174	0.041
-641.682	303.827	-0.227	0.424
-640.668	654.281	0.084	-0.217
-639.653	-60.067	-0.242	-0.104
-638.638	-190.098	-0.228	0.003
-637.624	-173.132	0.317	0.010
-636.609	446.502	-0.123	0.273
-635.595	-173.822	0.239	0.007
-634.580	800.000	0.098	0.377
-633.565	189.863	0.174	-0.263
-632.551	-152.595	-0.168	-0.012
-631.536	116.429	-0.248	-0.307
-630.522	-114.854	0.178	-0.034
-629.507	-200.000	0.043	0.393
-628.492	-86.378	0.107	0.033
-627.478	-73.851	-0.437	0.160
-626.463	121.721	-0.193	-0.242
-625.449	-4.325	-0.384	-0.268
-624.434	-90.712	-0.276	-0.080
-623.419	109.278	-0.189	0.228
-622.405	33.948	0.229	-0.201
-621.390	-200.000	-0.067	-0.408
-620.376	-200.000	0.033	0.283
-619.361	-49.401	-0.448	-0.215
-618.346	427.615	0.103	-0.224
-617.332	-83.478	-0.204	-0.066
-616.317	0.796	-0.198	0.143
-615.303	-122.425	-0.307	0.050
-614.288	171.634	0.168	0.242
-613.273	383.968	-0.165	0.342
-612.259	-114.181	0.244	0.047
-611.244	-200.000	0.020	0.157
-610.230	320.296	0.084	-0.160
-609.215	-15.178	-0.254	-0.164
-608.201	-131.831	0.055	-0.007
-607.186	209.368	-0.345	0.543
-606.171	139.235	0.242	-0.321
-605.157	-200.000	-0.010	0.201
-604.142	60.673	0.046	0.046
-603.128	-99.600	-0.113	-0.028
-602.113	-167.607	0.307	-0.012
-601.098	-15.930	-0.108	-0.069
-600.084	-41.598	-0.116	-0.060
-599.069	775.072	-0.084	-0.231
-598.055	-87.538	0.246	-0.075
-597.040	-200.000	-0.028	-0.178
-596.025	101.573	-0.105	-0.123
-595.011	189.611	0.096	0.145
-593.996	112.577	-0.115	0.140
-592.982	800.000	0.067	-0.264
-591.967	-68.156	0.326	0.128
-590.952	800.000	-0.041	-0.160
-589.938	-200.000	-0.074	-0.375
-588.923	-94.075	0.103	-0.028
-587.909	800.000	-0.054	-0.199
-586.894	-134.533	0.318	0.039
-585.879	-69.463	-0.112	-0.043
-584.865	693.682	0.093	0.246
-583.850	1.615	-0.070	0.050
-582.836	-200.000	0.070	0.504
-581.821	63.024	-0.149	0.150
-580.806	800.000	0.148	-0.481
-579.792	-72.273	-0.339	-0.126
-578.777	-77.855	-0.183	-0.063
-577.763	-72.694	0.395	0.146
-576.748	77.136	-0.172	-0.183
-575.733	-200.000	0.027	-0.201
-574.719	-200.000	0.019	-0.130
-573.704	348.653	-0.044	0.088
-572.690	223.872	0.154	0.250
-571.675	153.781	0.205	-0.282
-570.661	-163.863	0.243	-0.011
-569.646	800.000	-0.072	-0.256
-568.631	-63.871	-0.318	0.131
-567.617	-81.986	0.228	-0.075
-566.602	-200.000	-0.049	0.220
-565.588	-21.743	-0.085	0.052
-564.573	-200.000	0.013	-0.100
-563.558	800.000	0.039	0.169
-562.544	228.044	-0.049	-0.080
-561.529	59.918	0.188	0.187
-560.515	118.672	0.053	0.066
-559.500	128.920	-0.090	0.115
-558.485	800.000	-0.122	-0.363
-557.471	-200.000	0.011	-0.161
-556.456	-5.596	-0.081	-0.056
-555.442	17.328	-0.089	-0.071
-554.427	-68.093	-0.242	0.095
-553.412	-141.785	0.172	-0.017
-552.398	623.497	-0.032	-0.080
-551.383	444.474	-0.037	-0.080
-550.369	-109.971	0.114	-0.024
-549.354	629.418	0.102	-0.259
-548.339	800.000	0.013	0.038
-547.325	287.651	-0.237	0.429
-546.310	378.672	-0.131	-0.269
-545.296	-173.160	-0.119	-0.004
-544.281	147.332	0.187	-0.253
-543.266	-42.479	-0.257	-0.131
-542.252	21.625	0.133	0.108
-541.237	69.254	0.223	-0.230
-540.223	-179.406	0.464	0.010
-539.208	-0.606	0.097	0.069
-538.193	800.000	-0.077	0.322
-537.179	557.872	-0.086	0.208
-536.164	-64.701	0.173	-0.070
-535.150	-5.833	0.151	-0.104
-534.135	-200.000	-0.038	0.175
-533.121	800.000	0.041	0.152
-532.106	-200.000	0.022	0.325
-531.091	-51.662	0.161	0.075
-530.077	439.182	0.069	0.151
-529.062	86.505	-0.033	-0.036
-528.048	-10.556	-0.192	-0.127
-527.033	-99.383	-0.123	0.031
-526.018	-200.000	-0.090	-0.605
-525.004	774.227	-0.153	-0.419
-523.989	54.369	0.190	0.183
-522.975	206.292	-0.132	0.205
-521.960	-200.000	0.001	-0.018
-520.945	6.845	-0.178	0.133
-519.931	-66.693	0.218	-0.087
-518.916	30.324	0.222	0.190
-517.902	-19.316	0.112	0.070
-516.887	155.340	0.078	-0.107
-515.872	146.678	-0.067	0.090
-514.858	800.000	0.021	0.067
-513.843	-83.310	-0.129	0.042
-512.829	508.496	0.063	-0.147
-511.814	-19.740	-0.030	0.019
-510.799	-4.844	-0.196	-0.135
-509.785	-2.854	-0.158	-0.111
-508.770	51.312	0.151	0.144
-507.756	-25.059	-0.277	0.164
-506.741	719.650	-0.073	-0.194
-505.726	279.182	0.207	-0.370
-504.712	-15.770	-0.162	0.103
-503.697	-127.255	0.247	-0.036
-502.683	-58.960	0.078	-0.034
-501.668	-57.866	-0.291	0.128
-500.653	63.103	-0.193	0.193
-499.639	800.000	-0.087	0.364
-498.624	65.033	0.240	-0.243
-497.610	703.404	-0.089	-0.235
-496.595	22.735	0.095	0.078
-495.581	-200.000	-0.018	0.100
-494.566	-62.220	-0.286	0.120
-493.551	144.664	0.175	0.235
-492.537	-112.740	-0.153	-0.030
-491.522	83.037	0.256	-0.278
-490.508	-142.627	0.462	0.045
-489.493	94.547	0.116	0.132
-488.478	47.194	-0.143	-0.133
-487.464	800.000	-0.114	0.396
-486.449	24.721	-0.217	-0.180
-485.435	-49.522	-0.160	-0.076
-484.420	-200.000	0.007	-0.074
-483.405	441.379	-0.035	-0.076
-482.391	-63.984	0.130	-0.053
-481.376	85.587	-0.143	0.157
-480.362	800.000	0.025	-0.093
-479.347	-0.438	0.241	0.171
-478.332	-134.940	-0.143	0.017
-477.318	-17.427	0.098	0.061
-476.303	-162.386	-0.272	0.014
-475.289	91.005	0.133	-0.149
-474.274	-200.000	0.013	-0.237
-473.259	-137.971	0.230	0.026
-472.245	-117.161	0.399	-0.073
-471.230	100.080	0.126	0.146
-470.216	-91.173	0.264	0.076
-469.201	-62.709	-0.155	0.064
-468.186	10.336	-0.324	-0.246
-467.172	156.146	0.144	-0.199
-466.157	407.403	-0.099	-0.210
-465.143	-79.524	-0.069	0.023
-464.128	-200.000	0.025	-0.160
-463.113	-20.537	0.191	-0.117
-462.099	-200.000	-0.076	0.347
-461.084	-74.433	-0.171	0.062
-460.070	98.821	0.135	-0.156
-459.055	-180.055	-0.321	-0.007
-458.040	-75.550	0.243	-0.086
-457.026	23.369	0.193	0.159
-456.011	-200.000	0.018	0.104
-454.997	745.686	0.017	-0.047
-453.982	-200.000	-0.019	-0.113
-452.968	-101.372	0.042	-0.010
-451.953	-53.411	-0.351	-0.161
-450.938	-200.000	-0.022	0.288
-449.924	755.322	0.174	0.471
-448.909	141.447	0.296	-0.391
-447.895	-37.049	-0.329	0.176
-446.880	-93.978	-0.214	-0.059
-445.865	537.363	0.021	-0.050
-444.851	47.434	-0.271	0.252
-443.836	395.085	0.068	-0.141
-442.822	-114.717	-0.104	-0.020
-441.807	-36.009	0.488	0.263
-440.792	249.888	-0.042	-0.070
-439.778	-101.608	-0.118	-0.029
-438.763	800.000	-0.109	-0.393
-437.749	245.039	0.205	0.344
-436.734	116.863	-0.137	-0.168
-435.719	-200.000	-0.008	0.163
-434.705	-200.000	-0.022	0.142
-433.690	253.282	-0.159	-0.272
-432.676	800.000	0.063	-0.208
-431.661	-200.000	-0.005	-0.183
-430.646	-96.217	-0.088	0.023
-429.632	800.000	0.070	0.202
-428.617	36.360	-0.209	0.184
-427.603	-10.270	-0.177	0.117
-426.588	116.758	0.245	0.300
-425.573	-200.000	-0.093	-0.453
-424.559	-139.934	-0.287	-0.030
-423.544	341.356	-0.041	0.081
-422.530	-200.000	0.039	0.193
-421.515	678.465	-0.128	-0.332
-420.500	76.653	0.370	-0.392
-419.486	172.136	-0.259	0.372
-418.471	-4.425	-0.418	0.289
-417.457	-200.000	-0.014	0.210
-416.442	-200.000	0.009	0.105
-415.428	525.467	-0.131	0.308
-414.413	-69.986	0.157	0.060
-413.398	-65.793	0.074	0.029
-412.384	260.043	-0.027	0.047
-411.369	29.873	0.080	-0.068
-410.355	201.886	0.118	-0.181
-409.340	136.787	-0.072	0.094
-408.325	800.000	0.019	0.053
-407.311	-158.186	0.093	-0.005
-406.296	-200.000	-0.039	-0.174
-405.282	-25.577	0.085	-0.050
-404.267	-79.393	-0.405	0.137
-403.252	-77.143	0.220	0.077
-402.238	-152.996	0.141	-0.010
-401.223	61.426	-0.199	0.197
-400.209	-200.000	-0.002	-0.079
-399.194	-200.000	0.007	0.224
-398.179	316.499	0.128	-0.241
-397.165	-200.000	0.016	0.106
-396.150	800.000	-0.107	0.330
-395.136	-200.000	0.025	0.271
-394.121	236.652	-0.100	0.165
-393.106	-92.238	-0.223	-0.063
-392.092	-97.958	0.180	-0.046
-391.077	800.000	0.088	-0.272
-390.063	-200.000	0.053	-0.309
-389.048	50.952	0.103	0.097
-388.033	800.000	-0.050	0.167
-387.019	-200.000	0.021	-0.120
-386.004	-87.563	-0.210	0.063
-384.990	-25.382	0.106	0.063
-383.975	37.691	-0.061	0.054
-382.960	-89.816	-0.179	-0.052
-381.946	-57.676	0.148	0.064
-380.931	-200.000	-0.019	-0.178
-379.917	800.000	0.039	-0.107
-378.902	-4.193	-0.113	-0.078
-377.888	-47.816	0.073	-0.035
-376.873	316.072	-0.143	0.268
-375.858	36.736	-0.254	-0.224
-374.844	-200.000	0.005	0.107
-373.829	51.354	0.271	-0.257
-372.815	800.000	-0.028	0.104
-371.800	196.222	-0.183	0.277
-370.785	-68.428	0.070	0.027
-369.771	-200.000	0.001	-0.076
-368.756	-196.664	-0.262	-0.002
-367.742	800.000	0.054	-0.178
-366.727	800.000	0.079	0.275
-365.712	49.883	-0.127	0.119
-364.698	-87.018	0.052	-0.016
-363.683	800.000	0.027	-0.095
-362.669	21.605	-0.173	-0.140
-361.654	329.925	-0.033	-0.063
-360.639	47.226	-0.064	0.059
-359.625	103.076	0.148	-0.172
-358.610	-94.493	-0.178	-0.048
-357.596	503.547	0.112	0.258
-356.581	67.683	0.059	0.060
-355.566	-78.687	0.170	-0.058
-354.552	-55.893	0.240	-0.107
-353.537	-40.823	-0.255	-0.131
-352.523	-200.000	-0.023	0.152
-351.508	-200.000	-0.002	0.160
-350.493	-49.731	-0.116	0.055
-349.479	-71.631	0.107	-0.040
-348.464	-147.363	-0.340	-0.029
-347.450	665.395	-0.009	-0.024
-346.435	79.252	0.171	0.182
-345.420	-69.367	0.071	0.027
-344.406	198.503	0.072	-0.110
-343.391	68.116	0.113	-0.115
-342.377	422.414	0.092	0.196
-341.362	-200.000	0.007	0.266
-340.348	184.280	0.133	0.196
-339.333	37.497	0.212	-0.187
-338.318	-200.000	0.035	-0.296
-337.304	190.846	-0.125	-0.188
-336.289	-57.098	-0.097	0.043
-335.275	-112.220	0.023	0.005
-334.260	29.126	0.140	-0.119
-333.245	-200.000	0.009	-0.097
-332.231	-119.780	0.263	-0.045
-331.216	-93.869	0.340	-0.093
-330.202	87.349	-0.083	0.091
-329.187	-6.840	0.189	-0.128
-328.172	-200.000	0.003	-0.089
-327.158	35.033	0.122	0.107
-326.143	800.000	0.019	0.065
-325.129	800.000	0.020	0.072
-324.114	512.165	-0.115	-0.267
-323.099	-8.372	-0.202	-0.135
-322.085	39.212	-0.378	0.336
-321.070	-200.000	0.029	0.135
-320.056	-63.274	0.176	0.072
-319.041	800.000	0.092	-0.289
-318.026	210.218	-0.188	0.293
-317.012	-76.735	0.212	-0.074
-315.997	-72.094	0.079	0.029
-314.983	-44.295	0.141	0.070
-313.968	202.511	-0.017	-0.026
-312.953	74.459	0.034	0.036
-311.939	-66.870	-0.086	0.034
-310.924	-102.662	0.193	-0.046
-309.910	281.619	-0.184	-0.327
-308.895	-23.130	-0.180	0.108
-307.880	-80.156	-0.035	-0.012
-306.866	800.000	0.058	-0.182
-305.851	25.624	-0.087	0.072
-304.837	-200.000	-0.027	0.370
-303.822	-200.000	-0.011	0.104
-302.807	-200.000	0.006	-0.114
-301.793	344.428	0.111	-0.217
-300.778	124.679	0.066	-0.082
-299.764	800.000	-0.069	-0.273
-298.749	22.415	-0.048	0.039
-297.735	800.000	-0.014	0.042
-296.720	800.000	0.081	0.264
-295.705	-142.998	-0.068	0.007
-294.691	-91.929	0.080	0.022
-293.676	800.000	-0.029	0.111
-292.662	48.151	-0.106	0.099
-291.647	391.288	-0.156	0.322
-290.632	-185.838	0.221	0.003
-289.618	238.660	0.156	0.258
-288.603	800.000	0.054	0.167
-287.589	-200.000	-0.084	0.463
-286.574	123.852	0.055	-0.069
-285.559	-95.402	-0.123	-0.033
-284.545	84.832	-0.257	-0.279
-283.530	48.918	0.069	-0.064
-282.516	-200.000	0.001	-0.048
-281.501	-77.330	0.075	-0.026
-280.486	-200.000	-0.004	-0.098
-279.472	71.348	0.217	0.223
-278.457	75.576	-0.172	0.181
-277.443	20.814	0.191	-0.154
-276.428	98.343	0.238	-0.272
-275.413	-19.758	0.020	-0.012
-274.399	20.160	0.080	-0.064
-273.384	174.050	-0.197	0.283
-272.370	-67.956	0.154	-0.060
-271.355	186.634	-0.238	-0.352
-270.340	-15.998	-0.167	-0.105
-269.326	15.658	0.064	0.050
-268.311	-105.236	-0.102	0.023
-267.297	-76.261	0.165	0.058
-266.282	-86.337	-0.215	-0.066
-265.267	50.736	0.071	0.067
-264.253	90.676	-0.254	0.283
-263.238	-60.008	0.183	0.078
-262.224	364.349	-0.149	-0.297
-261.209	-200.000	0.050	0.233
-260.195	651.175	-0.154	0.391
-259.180	-80.315	0.115	-0.038
-258.165	552.650	-0.108	0.257
-257.151	342.484	0.139	0.270
-256.136	-85.454	0.231	-0.071
-255.122	-137.975	-0.219	-0.024
-254.107	-119.323	0.179	0.031
-253.092	-28.348	-0.147	-0.084
-252.078	2.899	0.151	0.109
-251.063	21.175	-0.192	0.154
-250.049	-97.389	0.168	0.043
-249.034	-178.252	0.193	0.004
-248.019	-200.000	0.042	0.199
-247.005	27.974	-0.095	0.079
-245.990	322.995	-0.136	0.257
-244.976	34.634	-0.060	0.052
-243.961	187.356	0.118	0.174
-242.946	-157.142	-0.174	-0.010
-241.932	-188.725	0.352	-0.004
-240.917	-76.880	0.089	-0.031
-239.903	-45.192	-0.161	-0.079
-238.888	-126.431	0.261	0.038
-237.873	-76.837	0.126	-0.044
-236.859	-200.000	-0.062	-0.311
-235.844	602.461	-0.142	-0.350
-234.830	-102.789	0.148	-0.035
-233.815	-33.343	0.065	-0.035
-232.800	800.000	0.034	-0.138
-231.786	-87.398	0.130	-0.039
-230.771	-138.725	0.184	0.020
-229.757	-155.986	0.272	0.017
-228.742	209.939	-0.080	-0.124
-227.727	-166.979	-0.106	-0.004
-226.713	745.047	0.119	0.317
-225.698	255.816	0.043	0.072
-224.684	40.235	0.143	0.127
-223.669	48.063	0.226	-0.209
-222.655	139.937	0.065	0.085
-221.640	405.653	-0.041	0.086
-220.625	40.099	-0.242	-0.216
-219.611	800.000	0.097	-0.303
-218.596	67.957	0.198	-0.201
-217.582	-94.652	0.160	-0.043
-216.567	21.968	0.171	-0.138
-215.552	101.553	-0.105	-0.121
-214.538	43.057	-0.494	-0.446
-213.523	215.525	0.207	0.325
-212.509	73.733	-0.009	-0.009
-211.494	-167.495	0.217	-0.009
-210.479	719.616	0.037	0.098
-209.465	-200.000	-0.043	-0.196
-208.450	-14.903	0.102	-0.065
-207.436	-200.000	0.007	0.371
-206.421	-85.749	-0.148	0.045
-205.406	114.204	-0.088	0.106
-204.392	-40.113	-0.156	-0.080
-203.377	219.439	-0.120	0.191
-202.363	-85.411	0.130	-0.040
-201.348	-168.441	-0.316	-0.012
-200.333	560.202	0.012	-0.029
-199.319	-200.000	-0.015	0.130
-198.304	-75.220	0.054	-0.019
-197.290	64.463	-0.054	0.054
-196.275	-83.749	-0.146	-0.046
-195.260	-51.360	0.079	-0.037
-194.246	-200.000	-0.025	-0.238
-193.231	146.568	-0.079	-0.105
-192.217	-143.274	0.244	0.023
-191.202	-178.602	0.247	-0.006
-190.187	89.797	-0.046	-0.051
-189.173	800.000	-0.013	-0.044
-188.158	99.406	-0.115	0.132
-187.144	-104.163	0.100	-0.023
-186.129	800.000	-0.098	0.346
-185.114	-2.704	0.250	0.173
-184.100	194.939	-0.072	0.108
-183.085	257.956	-0.094	0.160
-182.071	81.559	-0.229	-0.245
-181.056	-136.450	-0.506	0.058
-180.042	-151.700	-0.108	0.008
-179.027	63.027	0.366	0.362
-178.012	-22.362	0.136	0.081
-176.998	-200.000	0.007	-0.035
-175.983	226.719	-0.049	-0.078
-174.969	56.258	-0.094	-0.091
-173.954	800.000	0.085	0.267
-172.939	-200.000	-0.130	-0.677
-171.925	-200.000	-0.018	-0.112
-170.910	-64.906	0.173	0.069
-169.896	44.366	0.198	-0.180
-168.881	-200.000	0.047	-0.248
-167.866	60.470	0.156	-0.153
-166.852	78.651	0.150	-0.158
-165.837	402.530	0.126	-0.262
-164.823	-200.000	0.019	0.254
-163.808	19.012	0.231	-0.183
-162.793	800.000	0.031	-0.120
-161.779	261.231	-0.183	-0.314
-160.764	-34.664	0.141	-0.076
-159.750	-22.782	0.194	0.116
-158.735	98.657	-0.193	-0.220
-157.720	-200.000	-0.025	-0.159
-156.706	96.140	-0.143	0.162
-155.691	-200.000	0.029	-0.177
-154.677	-200.000	-0.002	0.176
-153.662	-76.566	-0.207	0.072
-152.647	-200.000	0.046	-0.260
-151.633	50.072	0.184	0.171
-150.618	-89.641	0.118	-0.034
-149.604	-137.866	-0.254	0.028
-148.589	769.787	0.090	0.242
-147.574	-145.217	0.144	-0.013
-146.560	800.000	-0.062	-0.171
-145.545	-200.000	0.022	0.187
-144.531	-49.873	0.170	0.079
-143.516	-73.705	-0.076	0.027
-142.502	403.061	0.078	0.163
-141.487	194.139	-0.106	0.158
-140.472	-200.000	0.020	0.124
-139.458	2.148	-0.165	-0.118
-138.443	-115.795	-0.242	-0.045
-137.429	-95.768	-0.172	-0.045
-136.414	-63.567	0.164	-0.067
-135.399	-200.000	0.020	-0.111
-134.385	-92.506	-0.108	0.030
-133.370	92.466	0.186	0.207
-132.356	-77.615	0.067	0.023
-131.341	209.515	0.164	0.254
-130.326	62.952	0.132	-0.130
-129.312	184.157	-0.163	-0.238
-128.297	-200.000	-0.020	0.217
-127.283	-126.487	-0.184	0.027
-126.268	-200.000	-0.018	-0.134
-125.253	-200.000	0.006	-0.068
-124.239	-200.000	-0.096	-0.442
-123.224	-12.732	-0.119	-0.076
-122.210	351.837	0.117	0.229
-121.195	20.023	0.336	0.268
-120.180	288.599	-0.086	0.153
-119.166	-94.624	0.278	0.074
-118.151	-200.000	-0.044	-0.497
-117.137	800.000	-0.037	-0.103
-116.122	248.279	-0.088	0.147
-115.107	-117.457	-0.242	-0.043
-114.093	157.612	0.097	0.133
-113.078	456.937	-0.110	-0.241
-112.064	-126.038	-0.137	-0.020
-111.049	-200.000	0.019	0.307
-110.034	-173.805	0.258	-0.008
-109.020	145.931	-0.272	-0.360
-108.005	-200.000	-0.055	0.323
-106.991	36.817	-0.097	-0.084
-105.976	-70.535	-0.111	-0.041
-104.962	-27.138	-0.051	0.029
-103.947	6.963	-0.039	0.029
-102.932	18.239	-0.133	-0.104
-101.918	-106.050	-0.282	0.063
-100.903	-60.209	0.078	-0.033
-99.889	-200.000	-0.061	0.428
-98.874	344.790	0.155	0.301
-97.859	-17.102	0.064	0.040
-96.845	-200.000	-0.054	-0.239
-95.830	435.744	-0.038	0.081
-94.816	405.423	0.048	0.100
-93.801	6.564	-0.237	0.174
-92.786	-31.133	0.087	-0.048
-91.772	-45.242	0.310	0.152
-90.757	53.760	0.222	-0.210
-89.743	800.000	-0.095	0.292
-88.728	-100.286	0.457	-0.112
-87.713	800.000	-0.012	0.040
-86.699	242.499	-0.130	0.214
-85.684	168.466	-0.179	0.251
-84.670	-200.000	0.019	-0.147
-83.655	-159.936	0.231	-0.012
-82.640	448.127	0.122	0.265
-81.626	-84.443	0.031	-0.010
-80.611	669.951	0.140	-0.357
-79.597	-200.000	0.001	-0.049
-78.582	-84.760	0.146	0.045
-77.567	173.094	-0.105	-0.149
-76.553	800.000	0.058	0.193
-75.538	-79.834	-0.083	-0.027
-74.524	40.680	0.181	0.161
-73.509	145.485	0.110	0.145
-72.494	-164.814	0.440	0.019
-71.480	499.716	0.084	0.191
-70.465	-172.942	0.312	0.010
-69.451	728.802	0.040	-0.104
-68.436	293.175	-0.103	0.185
-67.422	-200.000	-0.023	0.227
-66.407	-61.267	0.110	0.046
-65.392	343.131	0.079	0.152
-64.378	-26.843	-0.068	-0.039
-63.363	144.549	-0.085	-0.111
-62.349	-191.959	0.330	0.003
-61.334	105.855	-1.003	-1.168
-60.319	109.277	0.413	0.486
-59.305	800.000	-0.290	-1.172
-58.290	180.111	0.759	1.095
-57.276	393.057	0.666	1.364
-56.261	-200.000	112.446	621.240
-55.246	434.930	1520.744	3252.984
-54.232	139.788	2721.356	3527.465
-53.217	91.378	2364.463	2612.672
-52.203	33.372	2107.323	1799.665
-51.188	28.498	2019.380	1679.966
-50.173	27.083	2001.865	1652.463
-49.159	45.062	2060.448	1867.229
-48.144	43.863	2076.360	1870.513
-47.130	29.098	2035.200	1698.395
-46.115	26.928	2023.974	1669.029
-45.100	26.746	2021.422	1665.181
-44.086	26.810	2018.719	1663.480
-43.071	26.721	2016.404	1660.686
-42.057	26.658	2014.366	1658.370
-41.042	26.690	2012.559	1657.103
-40.027	26.696	2010.558	1655.452
-39.013	26.824	2008.499	1654.856
-37.998	26.723	2007.314	1652.888
-36.984	26.862	2004.557	1651.820
-35.969	26.698	2003.218	1649.164
-34.954	26.771	2001.387	1648.249
-33.940	26.804	1999.467	1646.908
-32.925	26.753	1998.246	1645.372
-31.911	26.855	1996.337	1644.659
-30.896	26.903	1994.526	1643.538
-29.881	26.884	1992.847	1641.918
-28.867	26.877	1991.425	1640.616
-27.852	26.956	1989.532	1639.702
-26.838	26.853	1987.807	1637.284
-25.823	26.828	1986.174	1635.648
-24.809	26.876	1984.576	1634.704
-23.794	26.849	1982.426	1632.626
-22.779	26.847	1980.972	1631.346
-21.765	26.868	1978.976	1629.826
-20.750	26.919	1977.409	1628.931
-19.736	26.868	1976.127	1627.354
-18.721	26.955	1974.390	1626.633
-17.706	26.927	1972.431	1624.702
-16.692	26.904	1970.934	1623.198
-15.677	26.925	1969.268	1621.951
-14.663	26.943	1967.832	1620.869
-13.648	26.958	1966.787	1620.071
-12.633	26.916	1965.682	1618.722
-11.619	26.820	1964.412	1616.764
-10.604	26.907	1962.893	1616.219
-9.590	26.938	1960.684	1614.617
-8.575	26.801	1959.633	1612.466
-7.560	26.832	1959.097	1612.232
-6.546	26.874	1957.768	1611.455
-5.531	26.942	1955.753	1610.330
-4.517	26.843	1954.775	1608.585
-3.502	26.879	1953.215	1607.553
-2.487	26.952	1952.279	1607.371
-1.473	26.883	1951.486	1606.045
-0.458	27.054	1946.598	1603.466
0.556	26.277	1927.317	1580.679
1.571	22.591	1910.116	1534.410
2.586	18.763	1933.374	1519.155
3.600	17.454	1968.845	1535.090
4.615	17.104	1962.447	1526.821
5.629	13.428	1859.392	1415.136
6.644	5.547	1739.957	1260.849
7.659	1.215	1704.187	1200.592
8.673	0.892	1700.847	1195.582
9.688	0.919	1699.433	1194.689
10.702	0.928	1698.594	1194.066
11.717	0.741	1694.671	1189.737
12.731	1.182	1693.633	1192.371
13.746	6.584	1705.580	1243.355
14.761	13.689	1719.844	1309.950
15.775	16.811	1724.591	1338.144
16.790	17.097	1724.442	1340.167
17.804	16.353	1720.773	1331.338
18.819	15.387	1717.518	1321.097
19.834	14.741	1715.412	1314.281
20.848	14.485	1713.586	1310.749
21.863	14.209	1711.941	1307.209
22.877	13.969	1710.253	1303.925
23.892	13.801	1708.785	1301.369
24.907	13.523	1708.077	1298.534
25.921	13.571	1706.438	1297.556
26.936	13.622	1705.133	1296.845
27.950	13.618	1705.099	1296.674
28.965	13.725	1704.524	1296.957
29.980	13.717	1703.505	1296.005
30.994	13.766	1702.438	1295.461
32.009	13.758	1701.438	1294.523
33.023	13.816	1700.440	1294.101
34.038	13.855	1699.875	1293.860
35.053	13.799	1698.992	1292.640
36.067	13.803	1697.587	1291.488
37.082	13.718	1696.752	1290.078
38.096	13.756	1695.225	1289.096
39.111	13.778	1694.457	1288.565
40.126	13.782	1694.066	1288.189
41.140	13.790	1692.526	1286.967
42.155	13.643	1691.732	1285.106
43.169	13.696	1689.833	1283.963
44.184	13.689	1689.047	1283.199
45.199	13.560	1688.090	1281.360
46.213	13.540	1686.783	1280.101
47.228	13.705	1684.967	1279.880
48.242	13.688	1683.512	1278.528
49.257	13.705	1682.541	1277.810
50.271	13.652	1681.376	1276.404
51.286	13.640	1679.841	1275.035
52.301	13.716	1678.631	1274.589
53.315	13.722	1676.997	1273.277
54.330	13.644	1675.647	1271.541
55.344	13.558	1674.669	1270.030
56.359	13.648	1672.733	1269.138
57.374	13.571	1671.698	1267.652
58.388	13.639	1670.535	1267.180
59.403	13.641	1668.967	1265.893
60.417	13.556	1667.475	1263.996
61.432	13.593	1666.045	1263.085
62.447	13.563	1665.137	1262.060
63.461	13.547	1663.545	1260.614
64.476	13.529	1662.726	1259.748
65.490	13.528	1661.260	1258.522
66.505	13.485	1660.137	1257.226
67.520	13.548	1659.212	1256.899
68.534	13.529	1658.453	1256.063
69.549	13.565	1657.604	1255.582
70.563	13.554	1655.812	1254.031
71.578	13.530	1654.560	1252.789
72.593	13.498	1653.737	1251.819
73.607	13.510	1652.766	1251.063
74.622	13.546	1651.694	1250.413
75.636	13.487	1650.741	1249.135
76.651	13.488	1649.704	1248.247
77.666	13.496	1648.404	1247.210
78.680	13.504	1647.478	1246.464
79.695	13.426	1646.903	1245.328
80.709	13.506	1645.821	1245.004
81.724	13.517	1644.833	1244.227
82.739	13.527	1644.203	1243.712
83.753	13.595	1642.804	1243.055
84.768	13.704	1641.804	1243.006
85.782	13.580	1641.454	1241.705
86.797	13.673	1640.575	1241.624
87.812	13.723	1639.118	1240.788
88.826	13.681	1637.835	1239.390
89.841	13.638	1636.772	1238.154
90.855	13.703	1635.693	1237.716
91.870	13.676	1634.609	1236.584
92.884	13.633	1634.082	1235.757
93.899	13.648	1633.187	1235.079
94.914	13.644	1631.828	1233.911
95.928	13.809	1629.763	1233.472
96.943	13.743	1628.941	1232.250
97.957	13.820	1627.294	1231.469
98.972	13.774	1625.869	1229.934
99.987	13.715	1624.343	1228.238
101.001	13.677	1623.291	1227.054
102.016	13.641	1621.582	1225.385
103.030	13.682	1620.011	1224.395
104.045	13.741	1618.964	1223.925
105.060	13.771	1617.162	1222.681
106.074	13.773	1615.335	1221.202
107.089	13.748	1614.022	1219.918
108.103	13.610	1612.657	1217.765
109.118	13.533	1611.700	1216.372
110.133	13.545	1610.025	1215.084
111.147	13.593	1608.501	1214.178
112.162	13.652	1607.135	1213.471
113.176	13.644	1606.050	1212.487
114.191	13.622	1604.489	1211.041
115.206	13.636	1603.046	1209.951
116.220	13.725	1601.591	1209.393
117.235	13.690	1600.334	1208.077
118.249	13.643	1599.027	1206.647
119.264	13.654	1597.527	1205.485
120.279	13.698	1596.094	1204.615
121.293	13.646	1594.354	1202.820
122.308	13.695	1592.863	1201.942
123.322	13.570	1591.751	1200.095
124.337	13.635	1590.115	1199.222
125.352	13.672	1588.987	1198.539
126.366	13.602	1587.850	1197.068
127.381	13.721	1586.683	1196.939
128.395	13.613	1585.485	1195.150
129.410	13.568	1584.422	1193.918
130.424	13.601	1583.006	1192.981
131.439	13.622	1581.786	1192.109
132.454	13.646	1580.115	1190.918
133.468	13.694	1578.697	1190.090
134.483	13.751	1576.888	1189.031
135.497	13.649	1575.844	1187.407
136.512	13.724	1574.230	1186.624
137.527	13.763	1573.010	1185.878
138.541	13.700	1572.067	1184.609
139.556	13.717	1570.432	1183.391
140.570	13.696	1568.861	1181.959
141.585	13.677	1567.968	1181.040
142.600	13.809	1566.228	1180.566
143.614	13.870	1565.117	1180.058
144.629	13.852	1564.078	1179.045
145.643	13.914	1562.270	1178.017
146.658	13.955	1560.411	1176.802
147.673	13.984	1559.140	1175.941
148.687	13.882	1557.861	1174.151
149.702	13.895	1556.583	1173.176
150.716	13.801	1554.917	1171.153
151.731	13.877	1553.656	1170.639
152.746	13.804	1552.325	1169.013
153.760	13.891	1550.611	1168.235
154.775	13.841	1549.462	1166.912
155.789	13.944	1547.894	1166.354
156.804	14.054	1546.494	1165.964
157.819	14.018	1545.143	1164.594
158.833	13.966	1544.376	1163.544
159.848	14.078	1542.801	1163.042
160.862	13.995	1541.716	1161.540
161.877	14.062	1540.403	1160.916
162.892	14.051	1539.398	1159.978
163.906	13.958	1538.287	1158.394
164.921	14.018	1536.308	1157.214
165.935	14.020	1535.539	1156.546
166.950	13.959	1534.925	1155.559
167.964	14.017	1533.451	1154.749
168.979	14.055	1532.527	1154.218
169.994	14.067	1531.377	1153.330
171.008	13.982	1530.726	1152.150
172.023	14.079	1528.993	1151.415
173.037	14.028	1527.813	1150.070
174.052	14.171	1526.467	1149.947
175.067	14.156	1525.525	1149.032
176.081	14.092	1524.612	1147.802
177.096	14.113	1523.086	1146.697
178.110	14.133	1522.031	1145.937
179.125	14.130	1520.983	1145.028
180.140	14.133	1519.824	1144.074
181.154	14.119	1519.118	1143.345
182.169	14.209	1516.948	1142.224
183.183	14.227	1515.802	1141.388
184.198	14.213	1514.860	1140.481
185.213	14.245	1514.067	1139.998
186.227	14.275	1512.947	1139.262
187.242	14.216	1512.012	1138.053
188.256	14.215	1510.970	1137.164
189.271	14.235	1510.259	1136.663
190.286	14.359	1508.230	1135.879
191.300	14.249	1507.638	1134.581
192.315	14.288	1505.874	1133.420
193.329	14.203	1504.675	1131.841
194.344	14.127	1504.146	1130.826
195.359	14.179	1503.008	1130.224
196.373	14.246	1501.986	1129.812
197.388	14.316	1500.759	1129.259
198.402	14.259	1500.249	1128.390
199.417	14.360	1498.493	1127.654
200.432	14.384	1497.500	1126.970
201.446	14.493	1496.271	1126.680
202.461	14.416	1495.431	1125.428
203.475	14.538	1494.416	1125.392
204.490	14.516	1493.477	1124.433
205.504	14.519	1492.248	1123.430
206.519	14.610	1490.809	1122.858
207.534	14.445	1489.590	1120.730
208.548	14.404	1489.089	1119.984
209.563	14.420	1487.906	1119.102
210.577	14.538	1486.690	1118.880
211.592	14.486	1485.464	1117.509
212.607	14.609	1484.495	1117.505
213.621	14.597	1484.329	1117.198
214.636	14.684	1483.105	1116.762
215.650	14.610	1482.305	1115.569
216.665	14.636	1481.446	1114.995
217.680	14.623	1480.539	1114.125
218.694	14.680	1479.927	1113.945
219.709	14.714	1478.682	1113.140
220.723	14.763	1477.556	1112.521
221.738	14.852	1476.553	1112.260
222.753	14.787	1475.578	1110.989
223.767	14.664	1475.129	1109.739
224.782	14.694	1473.957	1108.957
225.796	14.726	1473.014	1108.363
226.811	14.839	1472.031	1108.276
227.826	14.802	1471.684	1107.665
228.840	14.821	1470.409	1106.739
229.855	14.747	1469.572	1105.518
230.869	14.757	1468.569	1104.735
231.884	14.883	1467.088	1104.355
232.899	14.822	1466.022	1103.051
233.913	14.773	1464.774	1101.694
234.928	14.834	1463.705	1101.193
235.942	14.802	1462.677	1100.113
236.957	14.873	1461.169	1099.345
237.972	14.741	1460.574	1097.931
238.986	14.838	1459.111	1097.376
240.001	14.816	1458.576	1096.728
241.015	14.821	1457.473	1095.834
242.030	14.924	1455.807	1095.159
243.045	14.957	1454.611	1094.380
244.059	14.929	1454.109	1093.725
245.074	14.982	1453.173	1093.267
246.088	14.959	1452.517	1092.528
247.103	15.036	1451.390	1092.087
248.117	15.101	1450.599	1091.819
249.132	15.072	1449.666	1090.832
250.147	15.136	1448.945	1090.607
251.161	15.122	1448.594	1090.158
252.176	15.155	1447.870	1089.728
253.190	15.197	1447.089	1089.314
254.205	15.275	1446.134	1089.009
255.220	15.270	1445.217	1088.191
256.234	15.364	1444.050	1087.821
257.249	15.340	1443.308	1087.011
258.263	15.290	1442.832	1086.236
259.278	15.340	1441.799	1085.683
260.293	15.357	1440.573	1084.774
261.307	15.346	1439.900	1084.102
262.322	15.305	1439.174	1083.195
263.336	15.513	1438.231	1083.730
264.351	15.490	1436.859	1082.451
265.366	15.540	1436.029	1082.056
266.380	15.591	1435.546	1081.921
267.395	15.504	1434.439	1080.432
268.409	15.538	1433.280	1079.683
269.424	15.547	1432.249	1078.867
270.439	15.538	1431.287	1077.990
271.453	15.556	1430.570	1077.472
272.468	15.507	1429.741	1076.435
273.482	15.613	1428.476	1076.068
274.497	15.507	1428.352	1075.202
275.512	15.573	1426.970	1074.486
276.526	15.529	1426.380	1073.666
277.541	15.581	1425.003	1072.869
278.555	15.562	1424.612	1072.359
279.570	15.667	1423.348	1071.978
280.585	15.654	1422.228	1070.956
281.599	15.570	1421.797	1070.006
282.614	15.707	1420.782	1070.021
283.628	15.683	1419.692	1068.947
284.643	15.653	1418.850	1068.028
285.657	15.643	1417.497	1066.853
286.672	15.761	1416.312	1066.614
287.687	15.698	1415.837	1065.764
288.701	15.663	1414.613	1064.531
289.716	15.756	1413.902	1064.490
290.730	15.734	1412.949	1063.535
291.745	15.783	1411.978	1063.021
292.760	15.761	1411.215	1062.213
293.774	15.824	1409.949	1061.565
294.789	15.800	1409.108	1060.689
295.803	15.866	1408.560	1060.594
296.818	15.903	1407.535	1059.960
297.833	15.915	1406.486	1059.154
298.847	15.900	1405.248	1058.037
299.862	15.944	1403.903	1057.202
300.876	15.906	1403.333	1056.442
301.891	16.040	1402.279	1056.395
302.906	15.950	1401.846	1055.411
303.920	16.020	1400.723	1054.911
304.935	15.957	1400.353	1054.142
305.949	16.025	1399.283	1053.672
306.964	16.091	1398.396	1053.321
307.979	16.098	1396.816	1052.086
308.993	16.150	1396.094	1051.773
310.008	16.071	1395.630	1050.833
311.022	16.137	1394.440	1050.256
312.037	16.152	1393.516	1049.561
313.052	16.246	1392.455	1049.253
314.066	16.186	1391.279	1047.902
315.081	16.153	1390.361	1046.912
316.095	16.220	1389.218	1046.377
317.110	16.227	1388.275	1045.614
318.125	16.208	1387.523	1044.839
319.139	16.170	1386.669	1043.869
320.154	16.180	1385.803	1043.189
321.168	16.174	1384.701	1042.228
322.183	16.206	1383.573	1041.487
323.197	16.149	1382.646	1040.342
324.212	16.238	1381.881	1040.222
325.227	16.287	1380.812	1039.630
326.241	16.276	1379.982	1038.845
327.256	16.297	1379.432	1038.467
328.270	16.368	1378.406	1038.037
329.285	16.264	1377.890	1036.918
330.300	16.365	1376.495	1036.399
331.314	16.260	1375.589	1034.979
332.329	16.314	1374.539	1034.433
333.343	16.299	1373.702	1033.619
334.358	16.252	1373.211	1032.867
335.373	16.336	1372.500	1032.753
336.387	16.392	1371.518	1032.265
337.402	16.456	1370.336	1031.675
338.416	16.410	1370.156	1031.170
339.431	16.414	1369.521	1030.623
340.446	16.434	1368.540	1029.919
341.460	16.465	1367.491	1029.227
342.475	16.542	1366.452	1028.823
343.489	16.543	1365.656	1028.139
344.504	16.501	1364.894	1027.218
345.519	16.681	1363.645	1027.277
346.533	16.660	1362.730	1026.368
347.548	16.581	1361.831	1025.125
348.562	16.753	1360.975	1025.430
349.577	16.772	1360.023	1024.735
350.592	16.742	1359.555	1024.112
351.606	16.674	1358.626	1022.915
352.621	16.726	1357.515	1022.300
353.635	16.721	1356.767	1021.616
354.650	16.673	1355.717	1020.443
355.665	16.763	1354.616	1020.070
356.679	16.774	1353.084	1018.887
357.694	16.725	1352.144	1017.795
358.708	16.777	1351.108	1017.237
359.723	16.732	1350.321	1016.289
360.738	16.751	1349.209	1015.471
361.752	16.799	1348.339	1015.018
362.767	16.732	1347.310	1013.750
363.781	16.739	1346.647	1013.202
364.796	16.832	1345.464	1012.780
365.810	16.898	1344.653	1012.475
366.825	16.875	1344.411	1012.066
367.840	16.916	1343.450	1011.500
368.854	16.882	1342.616	1010.579
369.869	17.038	1341.925	1010.894
370.883	17.157	1340.975	1010.800
371.898	16.983	1340.600	1009.396
372.913	17.013	1339.394	1008.575
373.927	16.908	1339.458	1007.908
374.942	16.951	1338.332	1007.228
375.956	17.081	1336.775	1006.739
376.971	17.000	1336.477	1005.945
377.986	17.142	1335.481	1005.945
379.000	17.174	1334.429	1005.256
380.015	17.195	1333.557	1004.633
381.029	17.176	1332.956	1003.976
382.044	17.180	1332.537	1003.597
383.059	17.175	1331.695	1002.843
384.073	17.206	1331.320	1002.655
385.088	17.242	1330.038	1001.812
386.102	17.185	1329.778	1001.192
387.117	17.257	1328.808	1000.800
388.132	17.246	1327.989	1000.031
389.146	17.242	1327.410	999.483
390.161	17.246	1326.394	998.655
391.175	17.209	1325.717	997.833
392.190	17.322	1324.736	997.672
393.205	17.335	1323.877	997.016
394.219	17.449	1322.503	996.559
395.234	17.311	1321.494	994.900
396.248	17.370	1320.204	994.188
397.263	17.356	1319.001	993.110
398.278	17.476	1317.430	992.542
399.292	17.281	1316.851	990.880
400.307	17.362	1315.507	990.256
401.321	17.355	1314.465	989.340
402.336	17.464	1313.541	989.190
403.350	17.445	1312.623	988.301
404.365	17.324	1311.589	986.733
405.380	17.424	1310.499	986.409
406.394	17.468	1309.810	986.057
407.409	17.509	1309.097	985.669
408.423	17.490	1308.808	985.254
409.438	17.568	1307.757	984.830
410.453	17.582	1307.285	984.462
411.467	17.643	1305.937	983.713
412.482	17.677	1305.545	983.529
413.496	17.629	1305.096	982.825
414.511	17.652	1304.422	982.362
415.526	17.677	1303.696	981.876
416.540	17.786	1302.719	981.681
417.555	17.694	1302.151	980.635
418.569	17.760	1301.677	980.572
419.584	17.787	1301.057	980.172
420.599	17.787	1300.593	979.736
421.613	97.902	1359.280	1479.692
422.628	96.223	1367.772	1479.781
