DTS Sentinel unit serial number:	SN413079Multiplexer serial number:	ORYXHardware model number:	OX4-SRSoftware version number:	ORYX F/W v4.00 Oryx Data Collector v3.7.2.0data status	okinstallation	princeton_trtdifferential loss correction	single-endedforward channel	channel 4reverse channel	N/Adate	2019/09/13time	01:01:34forward acquisition time	60.00reverse acquisition time	0.00gamma	496.2192k internal	0.2318k external	0.2318temperature offset calibration	1.0171default loss term (dB/km)	0.3790temperature slope calibration	1.0000multiplexer offset coefficient	1.0000multiplexer slope coefficient	1.0000fibre end	0.00T internal ref (°C)	28.03T ext. ref 1 (°C)	3.67T ext. ref 2 (°C)	22.61length (m)	temperature (°C)	Stokes	anti-Stokes-747.200	112.332	-0.072	0.089
-746.185	-38.782	-0.109	0.058
-745.171	10.156	0.164	0.126
-744.156	260.072	0.016	0.028
-743.142	-115.800	-0.105	0.020
-742.127	519.956	-0.111	0.263
-741.112	163.347	0.031	0.044
-740.098	-130.938	-0.195	0.026
-739.083	-200.000	0.010	0.232
-738.069	-114.536	-0.319	-0.062
-737.054	160.761	-0.063	-0.089
-736.039	104.784	-0.110	-0.132
-735.025	132.987	0.117	0.153
-734.010	189.836	-0.048	-0.072
-732.996	487.087	0.086	-0.199
-731.981	-31.979	0.138	0.078
-730.966	-200.000	0.011	0.109
-729.952	71.659	0.199	0.210
-728.937	-200.000	0.024	-0.194
-727.923	180.880	0.093	-0.139
-726.908	-130.863	0.133	0.018
-725.894	-200.000	0.018	-0.297
-724.879	224.047	-0.060	-0.098
-723.864	63.284	0.235	-0.238
-722.850	-0.034	-0.310	-0.223
-721.835	30.436	-0.037	0.032
-720.821	8.162	0.222	-0.169
-719.806	-57.385	-0.305	0.136
-718.791	800.000	-0.086	0.261
-717.777	-200.000	0.004	-0.137
-716.762	366.826	-0.154	0.314
-715.748	-200.000	0.008	-0.160
-714.733	-97.525	-0.180	-0.047
-713.718	125.242	-0.035	-0.044
-712.704	-117.769	0.168	0.030
-711.689	-42.211	0.105	-0.054
-710.675	-146.384	-0.162	-0.014
-709.660	21.884	-0.147	-0.121
-708.645	-150.052	-0.220	0.017
-707.631	-200.000	-0.020	-0.129
-706.616	-158.150	0.224	-0.013
-705.602	35.714	0.132	0.117
-704.587	-20.229	-0.275	-0.171
-703.572	-77.134	0.285	0.100
-702.558	117.770	-0.186	0.232
-701.543	18.097	0.264	0.213
-700.529	168.849	-0.096	0.138
-699.514	-92.018	-0.305	-0.087
-698.499	800.000	0.021	-0.063
-697.485	-155.796	-0.029	-0.002
-696.470	-200.000	-0.020	-0.096
-695.456	-95.469	-0.145	0.039
-694.441	800.000	0.079	-0.225
-693.426	800.000	-0.026	0.088
-692.412	-80.688	-0.229	0.077
-691.397	512.563	0.079	0.187
-690.383	-129.337	-0.251	-0.035
-689.368	-41.029	-0.194	-0.101
-688.354	-113.690	0.348	-0.069
-687.339	-127.947	0.088	-0.013
-686.324	-200.000	-0.009	0.181
-685.310	-122.400	0.226	0.037
-684.295	-71.000	-0.146	0.056
-683.281	-87.804	0.267	0.081
-682.266	-76.098	-0.459	0.164
-681.251	233.330	0.181	-0.300
-680.237	-36.959	0.026	0.014
-679.222	800.000	0.053	-0.224
-678.208	-200.000	0.038	-0.186
-677.193	132.378	-0.080	-0.104
-676.178	-200.000	0.003	-0.381
-675.164	-154.156	0.079	0.005
-674.149	140.612	-0.017	0.023
-673.135	-60.976	-0.264	-0.113
-672.120	-4.531	0.188	-0.131
-671.105	-158.423	0.098	-0.006
-670.091	800.000	-0.025	-0.075
-669.076	-99.965	-0.179	-0.045
-668.062	800.000	0.054	0.165
-667.047	186.381	0.026	0.038
-666.032	95.053	-0.231	0.265
-665.018	-73.913	-0.249	0.091
-664.003	-76.555	-0.142	-0.050
-662.989	-70.449	-0.294	0.112
-661.974	53.589	-0.008	-0.008
-660.959	-169.391	0.318	0.012
-659.945	374.247	-0.031	-0.064
-658.930	222.233	-0.068	-0.110
-657.916	-12.193	0.229	0.151
-656.901	304.181	0.066	0.123
-655.886	800.000	0.063	0.217
-654.872	-33.862	0.220	0.122
-653.857	-45.904	0.237	-0.118
-652.843	40.522	0.056	0.050
-651.828	449.283	0.069	0.153
-650.814	78.288	0.162	-0.175
-649.799	52.924	-0.212	-0.205
-648.784	-125.241	-0.292	-0.045
-647.770	-77.715	-0.135	0.047
-646.755	-119.957	-0.381	0.066
-645.741	-108.835	-0.181	0.039
-644.726	-163.765	-0.299	0.014
-643.711	112.294	0.082	-0.100
-642.697	800.000	-0.136	-0.392
-641.682	-5.858	0.197	0.136
-640.668	709.061	-0.092	-0.244
-639.653	-114.175	0.065	0.013
-638.638	-25.037	0.131	0.078
-637.624	-10.921	-0.193	-0.129
-636.609	152.864	-0.048	-0.066
-635.595	-200.000	0.038	-0.236
-634.580	34.878	-0.071	-0.063
-633.565	-42.916	-0.080	-0.041
-632.551	231.227	-0.202	0.334
-631.536	-200.000	0.005	0.135
-630.522	-140.863	-0.171	0.018
-629.507	-200.000	0.033	-0.153
-628.492	-164.570	-0.442	0.020
-627.478	-11.867	-0.110	0.073
-626.463	-61.942	0.210	-0.089
-625.449	-200.000	0.074	0.462
-624.434	6.472	0.150	0.112
-623.419	-183.402	0.104	-0.002
-622.405	-200.000	0.003	0.119
-621.390	800.000	0.085	-0.252
-620.376	800.000	-0.034	-0.130
-619.361	-200.000	0.015	-0.248
-618.346	-31.768	0.458	-0.259
-617.332	-55.831	-0.156	0.070
-616.317	-150.718	0.284	-0.022
-615.303	800.000	-0.095	-0.314
-614.288	383.265	0.228	-0.471
-613.273	-26.195	0.288	-0.170
-612.259	-35.481	-0.049	-0.027
-611.244	397.920	-0.035	-0.074
-610.230	302.935	0.095	-0.177
-609.215	-200.000	-0.022	-0.249
-608.201	188.488	-0.019	-0.028
-607.186	-55.140	-0.286	0.130
-606.171	3.886	0.205	-0.151
-605.157	234.466	-0.259	-0.430
-604.142	-200.000	0.025	0.180
-603.128	146.912	0.205	-0.277
-602.113	-47.171	-0.231	-0.113
-601.098	230.673	0.162	0.267
-600.084	-200.000	0.016	0.340
-599.069	21.543	-0.207	0.170
-598.055	-33.673	-0.230	0.128
-597.040	54.390	0.247	0.239
-596.025	-200.000	-0.047	0.439
-595.011	-23.617	-0.275	-0.166
-593.996	-42.729	0.325	-0.167
-592.982	64.906	-0.250	0.254
-591.967	-80.107	-0.101	0.034
-590.952	-133.422	-0.095	0.012
-589.938	391.800	0.022	-0.045
-588.923	-96.469	-0.225	0.060
-587.909	-200.000	-0.002	0.169
-586.894	-200.000	0.073	0.329
-585.879	39.897	0.205	-0.185
-584.865	96.440	-0.117	0.134
-583.850	-55.171	-0.103	0.047
-582.836	-200.000	0.046	-0.276
-581.821	800.000	0.110	0.333
-580.806	17.413	-0.225	0.180
-579.792	-105.897	-0.261	-0.059
-578.777	-76.094	-0.530	0.188
-577.763	285.834	0.229	-0.415
-576.748	526.596	0.110	-0.261
-575.733	434.345	0.112	-0.246
-574.719	512.450	-0.097	0.228
-573.704	-67.160	-0.230	-0.091
-572.690	229.712	0.182	0.299
-571.675	-100.212	-0.257	0.064
-570.661	-62.762	-0.147	-0.061
-569.646	43.832	0.060	0.056
-568.631	416.234	-0.082	0.175
-567.617	14.832	-0.082	-0.064
-566.602	-69.861	-0.313	0.120
-565.588	-200.000	0.002	0.031
-564.573	3.957	-0.266	-0.195
-563.558	71.865	-0.106	-0.111
-562.544	47.091	-0.237	-0.221
-561.529	-174.850	0.196	0.006
-560.515	-87.025	-0.282	-0.086
-559.500	46.824	-0.259	-0.241
-558.485	-47.372	0.135	-0.066
-557.471	-112.629	0.162	0.032
-556.456	219.689	-0.107	-0.172
-555.442	-76.781	0.202	-0.071
-554.427	130.089	-0.128	-0.165
-553.412	416.489	-0.081	-0.173
-552.398	263.664	-0.041	-0.072
-551.383	-106.341	-0.058	-0.013
-550.369	800.000	-0.051	-0.164
-549.354	-19.024	-0.178	0.111
-548.339	482.616	-0.130	0.297
-547.325	-77.769	-0.163	-0.057
-546.310	-200.000	-0.021	-0.186
-545.296	29.425	-0.329	0.281
-544.281	-139.639	0.091	0.010
-543.266	-156.833	0.116	0.007
-542.252	-200.000	0.039	0.383
-541.237	800.000	-0.055	0.172
-540.223	-122.336	0.088	-0.014
-539.208	276.993	-0.105	-0.188
-538.193	525.943	-0.102	0.242
-537.179	-200.000	-0.027	-0.150
-536.164	-125.017	0.158	0.024
-535.150	-155.240	-0.189	0.012
-534.135	-11.477	-0.225	-0.148
-533.121	-175.151	0.093	0.003
-532.106	-179.257	0.144	0.003
-531.091	-10.653	0.110	-0.073
-530.077	-155.331	-0.297	0.019
-529.062	-175.149	-0.163	-0.005
-528.048	-92.715	-0.209	-0.059
-527.033	-200.000	-0.030	0.205
-526.018	-200.000	-0.011	0.281
-525.004	-200.000	-0.019	-0.093
-523.989	468.913	-0.102	0.231
-522.975	92.543	0.110	0.124
-521.960	65.299	0.139	0.141
-520.945	38.500	0.055	0.049
-519.931	-127.727	-0.280	-0.041
-518.916	179.780	0.045	0.066
-517.902	-200.000	0.025	0.254
-516.887	441.053	-0.069	0.151
-515.872	10.607	0.287	0.219
-514.858	387.216	-0.039	-0.080
-513.843	-56.957	-0.297	-0.131
-512.829	-13.312	-0.156	-0.102
-511.814	133.202	-0.078	0.101
-510.799	-200.000	0.003	0.110
-509.785	-10.925	-0.259	0.171
-508.770	95.223	0.156	0.178
-507.756	-50.818	-0.119	0.056
-506.741	-200.000	-0.035	0.249
-505.726	145.930	0.080	-0.108
-504.712	47.281	-0.058	0.054
-503.697	-200.000	-0.002	0.241
-502.683	800.000	0.035	-0.120
-501.668	-106.698	0.154	-0.034
-500.653	-45.123	-0.309	0.154
-499.639	-200.000	0.010	0.258
-498.624	42.525	0.176	0.160
-497.610	-106.074	-0.201	-0.045
-496.595	561.074	-0.066	-0.161
-495.581	22.140	-0.398	-0.326
-494.566	-200.000	-0.023	-0.237
-493.551	63.166	-0.152	-0.152
-492.537	-105.936	0.310	-0.070
-491.522	-72.527	0.101	0.037
-490.508	-114.064	0.272	0.053
-489.493	10.644	0.126	0.096
-488.478	534.652	-0.076	0.180
-487.464	800.000	0.102	0.339
-486.449	-123.301	0.252	0.040
-485.435	-151.128	-0.189	0.014
-484.420	16.257	0.147	0.116
-483.405	-2.757	-0.162	0.114
-482.391	800.000	0.046	-0.173
-481.376	-200.000	-0.008	0.171
-480.362	385.584	0.114	0.235
-479.347	117.684	0.051	-0.063
-478.332	-102.507	0.186	-0.045
-477.318	259.796	0.013	-0.023
-476.303	403.977	-0.094	0.198
-475.289	-82.426	0.142	-0.046
-474.274	-111.563	0.264	-0.054
-473.259	-26.097	0.244	-0.143
-472.245	680.267	0.030	0.078
-471.230	248.520	0.085	-0.144
-470.216	-200.000	0.009	-0.115
-469.201	144.446	0.275	-0.368
-468.186	-140.067	-0.106	-0.011
-467.172	15.954	-0.157	0.124
-466.157	-147.525	0.234	-0.020
-465.143	12.169	0.127	-0.098
-464.128	32.292	0.165	-0.142
-463.113	658.655	-0.037	-0.095
-462.099	-56.734	-0.235	-0.104
-461.084	-200.000	0.012	0.130
-460.070	13.928	0.368	-0.286
-459.055	-63.166	0.138	0.057
-458.040	-72.932	0.153	-0.056
-457.026	-200.000	0.023	0.270
-456.011	-200.000	0.024	0.193
-454.997	50.435	0.070	0.066
-453.982	-177.211	0.248	-0.006
-452.968	383.037	0.050	0.104
-451.953	-168.725	-0.111	0.004
-450.938	800.000	0.042	0.158
-449.924	-126.805	-0.227	0.034
-448.909	-200.000	0.050	-0.233
-447.895	-34.912	-0.182	-0.099
-446.880	156.349	0.094	-0.130
-445.865	-101.343	0.498	-0.122
-444.851	-93.021	0.219	0.061
-443.836	-200.000	-0.006	0.326
-442.822	221.974	0.058	-0.093
-441.807	24.069	0.016	0.014
-440.792	-152.281	-0.124	-0.009
-439.778	565.341	-0.074	0.180
-438.763	-200.000	0.042	0.292
-437.749	207.179	0.148	0.230
-436.734	-85.491	-0.081	-0.025
-435.719	-200.000	-0.001	0.048
-434.705	52.976	0.365	-0.349
-433.690	800.000	0.051	-0.209
-432.676	-45.656	0.104	0.052
-431.661	800.000	-0.114	0.414
-430.646	800.000	0.064	0.178
-429.632	34.259	-0.060	-0.052
-428.617	-192.598	0.315	0.003
-427.603	-200.000	-0.017	-0.265
-426.588	407.747	0.093	0.196
-425.573	800.000	-0.162	-0.582
-424.559	-97.865	-0.051	-0.013
-423.544	-74.353	-0.358	-0.129
-422.530	291.954	0.078	0.141
-421.515	-109.186	0.525	0.111
-420.500	216.075	-0.130	-0.207
-419.486	-121.817	0.130	-0.021
-418.471	-121.622	0.114	0.019
-417.457	-58.491	-0.212	0.092
-416.442	422.953	-0.087	0.186
-415.428	383.139	-0.059	0.120
-414.413	243.503	-0.083	-0.139
-413.398	800.000	0.110	-0.331
-412.384	800.000	-0.105	0.375
-411.369	-4.313	0.029	-0.020
-410.355	800.000	0.062	0.171
-409.340	164.097	0.122	0.172
-408.325	382.019	-0.077	-0.159
-407.311	-33.072	-0.182	0.101
-406.296	-78.254	-0.051	0.017
-405.282	800.000	-0.030	0.114
-404.267	16.141	-0.230	0.181
-403.252	131.951	0.303	0.389
-402.238	739.972	0.045	-0.122
-401.223	109.532	-0.317	0.379
-400.209	209.136	-0.164	0.257
-399.194	138.242	-0.279	0.365
-398.179	-97.213	-0.060	-0.016
-397.165	-200.000	-0.012	0.244
-396.150	103.433	0.146	0.171
-395.136	-74.625	0.271	-0.097
-394.121	-13.263	0.224	-0.145
-393.106	205.365	-0.166	-0.257
-392.092	49.052	-0.139	-0.131
-391.077	-200.000	-0.118	0.556
-390.063	-22.924	0.515	0.310
-389.048	143.950	-0.117	0.156
-388.033	181.045	-0.177	0.260
-387.019	-115.398	0.375	-0.071
-386.004	-106.619	0.017	-0.004
-384.990	71.553	0.076	0.079
-383.975	198.462	-0.081	0.124
-382.960	-60.179	-0.158	-0.067
-381.946	311.488	-0.103	-0.193
-380.931	-200.000	-0.014	-0.274
-379.917	-53.516	-0.193	-0.088
-378.902	-19.043	0.052	0.033
-377.888	-33.157	0.124	-0.069
-376.873	212.869	0.110	-0.173
-375.858	-200.000	0.056	-0.279
-374.844	-200.000	-0.003	-0.085
-373.829	-159.905	0.341	0.019
-372.815	-20.767	-0.168	0.103
-371.800	-83.961	-0.046	-0.015
-370.785	-200.000	0.002	-0.075
-369.771	297.135	-0.123	-0.226
-368.756	166.518	0.026	-0.036
-367.742	-144.376	-0.241	0.022
-366.727	129.777	0.070	0.090
-365.712	164.402	0.337	0.473
-364.698	-102.726	-0.320	-0.076
-363.683	46.535	-0.128	-0.119
-362.669	171.532	-0.012	-0.018
-361.654	526.246	-0.114	0.268
-360.639	800.000	0.065	0.224
-359.625	-103.599	-0.156	0.037
-358.610	451.854	-0.030	0.066
-357.596	144.104	0.208	0.277
-356.581	185.853	-0.073	0.108
-355.566	-200.000	-0.032	-0.261
-354.552	-110.033	-0.261	-0.054
-353.537	-91.801	0.343	0.097
-352.523	98.968	0.191	-0.220
-351.508	545.425	0.145	0.346
-350.493	-65.542	0.289	0.116
-349.479	194.150	-0.115	-0.174
-348.464	288.989	-0.047	-0.084
-347.450	-200.000	-0.037	-0.342
-346.435	-163.061	0.510	-0.025
-345.420	800.000	0.035	-0.117
-344.406	-200.000	-0.001	-0.104
-343.391	175.789	0.158	0.229
-342.377	800.000	-0.122	-0.445
-341.362	-200.000	0.060	0.362
-340.348	467.124	0.009	0.020
-339.333	-140.446	0.072	-0.007
-338.318	-130.933	-0.049	0.007
-337.304	457.905	0.124	-0.275
-336.289	-185.006	-0.327	-0.005
-335.275	128.628	0.216	-0.274
-334.260	-134.709	-0.212	-0.026
-333.245	-14.670	0.098	-0.063
-332.231	-145.681	-0.039	-0.003
-331.216	-3.494	-0.300	0.208
-330.202	-169.564	-0.108	0.004
-329.187	-119.897	0.254	-0.043
-328.172	-200.000	0.033	-0.408
-327.158	-110.840	-0.101	-0.021
-326.143	-60.134	0.133	0.056
-325.129	-153.720	0.094	-0.006
-324.114	-161.552	0.173	-0.009
-323.099	-41.686	-0.208	-0.106
-322.085	-153.105	-0.338	-0.024
-321.070	75.214	0.089	0.093
-320.056	113.528	-0.090	0.109
-319.041	27.966	0.071	0.060
-318.026	20.970	-0.147	0.119
-317.012	-150.965	0.376	0.028
-315.997	97.595	-0.162	-0.186
-314.983	332.598	-0.052	0.100
-313.968	-83.214	0.203	0.065
-312.953	800.000	-0.055	-0.237
-311.939	421.172	0.168	-0.358
-310.924	380.857	-0.229	-0.467
-309.910	201.415	-0.100	-0.152
-308.895	-200.000	0.026	-0.307
-307.880	-200.000	0.034	-0.259
-306.866	-26.884	0.306	-0.178
-305.851	800.000	-0.144	0.480
-304.837	127.069	0.197	-0.248
-303.822	-105.025	0.378	-0.086
-302.807	14.031	0.074	0.058
-301.793	-59.239	0.156	-0.067
-300.778	-60.278	-0.042	-0.018
-299.764	251.364	-0.140	0.236
-298.749	45.505	0.264	0.242
-297.735	-133.763	-0.112	-0.014
-296.720	-42.081	0.363	0.185
-295.705	800.000	0.051	0.142
-294.691	-200.000	0.039	-0.268
-293.676	-119.192	0.111	-0.019
-292.662	-200.000	-0.011	-0.148
-291.647	-200.000	0.121	-0.000
-290.632	-78.395	-0.446	0.152
-289.618	627.464	-0.135	-0.339
-288.603	129.141	0.125	-0.158
-287.589	-200.000	-0.006	0.521
-286.574	-51.607	0.122	0.057
-285.559	200.436	-0.264	-0.404
-284.545	-36.168	-0.236	-0.127
-283.530	469.187	0.148	-0.329
-282.516	-18.145	0.106	0.066
-281.501	35.459	-0.311	-0.271
-280.486	-180.304	0.123	-0.003
-279.472	365.710	0.050	0.099
-278.457	-200.000	0.002	-0.155
-277.443	-64.762	-0.290	-0.117
-276.428	20.457	0.184	-0.148
-275.413	-59.912	0.154	-0.066
-274.399	-123.904	0.167	0.026
-273.384	-36.787	0.355	0.189
-272.370	-26.689	0.142	-0.082
-271.355	11.456	0.102	0.078
-270.340	586.554	-0.056	-0.138
-269.326	800.000	-0.036	0.122
-268.311	596.492	-0.042	-0.103
-267.297	323.175	-0.026	-0.050
-266.282	68.505	0.174	0.177
-265.267	-40.902	-0.086	-0.044
-264.253	33.715	-0.089	-0.077
-263.238	-6.050	0.292	0.199
-262.224	-200.000	-0.196	-0.000
-261.209	-23.246	0.187	-0.112
-260.195	-200.000	-0.023	0.174
-259.180	141.095	-0.104	-0.137
-258.165	-112.960	0.187	-0.037
-257.151	225.088	-0.021	0.033
-256.136	800.000	0.060	0.197
-255.122	-129.965	-0.137	0.019
-254.107	-165.520	0.294	0.013
-253.092	-14.578	0.165	-0.105
-252.078	-38.521	0.142	0.074
-251.063	135.326	-0.228	0.294
-250.049	800.000	0.021	-0.057
-249.034	-170.889	0.142	-0.005
-248.019	77.790	0.298	0.315
-247.005	-200.000	0.010	0.156
-245.990	-68.155	-0.073	-0.028
-244.976	-200.000	0.005	0.346
-243.961	93.928	-0.132	0.149
-242.946	-8.321	0.256	-0.171
-241.932	-106.448	0.133	-0.029
-240.917	46.246	-0.204	-0.187
-239.903	-69.947	-0.227	0.086
-238.888	589.917	0.038	-0.093
-237.873	113.808	-0.087	-0.104
-236.859	81.257	0.191	0.205
-235.844	166.018	-0.076	-0.106
-234.830	-200.000	-0.018	0.151
-233.815	136.754	-0.227	-0.295
-232.800	31.988	0.254	-0.218
-231.786	48.920	-0.098	-0.092
-230.771	110.731	-0.152	-0.182
-229.757	-101.652	0.276	0.067
-228.742	-77.873	-0.131	0.045
-227.727	-54.178	-0.446	-0.201
-226.713	394.527	-0.157	0.325
-225.698	800.000	0.036	-0.126
-224.684	-200.000	0.012	-0.065
-223.669	-94.969	0.257	-0.069
-222.655	170.127	-0.156	-0.221
-221.640	-150.141	-0.346	0.027
-220.625	189.772	0.237	0.353
-219.611	52.483	-0.163	-0.154
-218.596	-166.044	-0.163	0.007
-217.582	22.023	0.264	0.213
-216.567	-200.000	0.042	0.232
-215.552	-35.118	-0.174	0.094
-214.538	800.000	-0.010	0.034
-213.523	-30.007	-0.071	-0.040
-212.509	800.000	-0.096	0.365
-211.494	-200.000	0.044	0.228
-210.479	800.000	-0.038	-0.135
-209.465	-200.000	-0.030	0.194
-208.450	800.000	-0.015	-0.042
-207.436	-103.652	0.247	0.057
-206.421	208.082	-0.164	0.254
-205.406	206.982	0.068	-0.104
-204.392	6.766	0.228	0.168
-203.377	-49.724	-0.122	-0.057
-202.363	-76.032	-0.228	0.080
-201.348	-52.696	0.168	-0.077
-200.333	-200.000	-0.016	-0.146
-199.319	800.000	0.080	-0.290
-198.304	600.100	0.139	-0.341
-197.290	17.218	-0.104	-0.082
-196.275	79.872	-0.026	0.027
-195.260	-116.423	-0.320	0.059
-194.246	-144.086	0.088	0.008
-193.231	-184.744	0.222	0.004
-192.217	81.941	0.117	0.126
-191.202	-126.164	0.344	-0.051
-190.187	800.000	0.053	-0.217
-189.173	14.977	0.176	0.136
-188.158	-16.606	-0.177	-0.111
-187.144	-40.709	-0.346	0.177
-186.129	-21.366	0.135	0.081
-185.114	-109.318	0.176	0.037
-184.100	-40.591	-0.128	0.066
-183.085	-200.000	0.004	-0.095
-182.071	329.700	-0.048	-0.092
-181.056	-147.181	-0.351	0.030
-180.042	-115.426	-0.054	-0.010
-179.027	-96.668	0.161	-0.042
-178.012	800.000	0.040	-0.127
-176.998	-75.778	0.338	-0.119
-175.983	800.000	-0.044	-0.180
-174.969	79.974	-0.230	-0.245
-173.954	-22.646	0.155	-0.093
-172.939	-200.000	0.017	-0.092
-171.925	-116.592	-0.130	0.024
-170.910	-93.266	0.240	0.066
-169.896	-65.573	-0.209	0.083
-168.881	351.444	-0.158	-0.310
-167.866	800.000	-0.094	0.273
-166.852	-3.401	0.263	0.181
-165.837	186.306	0.126	-0.185
-164.823	-156.100	0.170	0.011
-163.808	792.576	-0.045	0.124
-162.793	151.907	-0.191	0.257
-161.779	800.000	0.028	0.091
-160.764	402.356	0.059	0.124
-159.750	13.754	0.335	-0.257
-158.735	298.738	-0.192	-0.349
-157.720	141.574	-0.122	0.160
-156.706	-82.724	0.319	0.102
-155.691	513.819	-0.055	0.127
-154.677	273.989	-0.112	-0.197
-153.662	-37.771	0.190	-0.100
-152.647	800.000	-0.079	-0.241
-151.633	-8.761	0.154	-0.102
-150.618	731.142	0.089	0.234
-149.604	-115.792	-0.181	0.033
-148.589	-162.203	-0.163	-0.008
-147.574	-10.704	-0.087	0.057
-146.560	800.000	-0.050	-0.141
-145.545	304.779	0.134	-0.246
-144.531	78.344	0.294	-0.310
-143.516	800.000	0.057	0.193
-142.502	-200.000	0.020	-0.187
-141.487	232.471	0.031	-0.050
-140.472	-200.000	0.028	-0.154
-139.458	-90.641	-0.277	-0.079
-138.443	-200.000	-0.030	0.334
-137.429	-200.000	0.001	0.381
-136.414	1.570	-0.196	0.139
-135.399	-21.531	0.146	0.088
-134.385	-49.725	0.318	0.150
-133.370	9.909	-0.218	-0.163
-132.356	29.509	0.140	0.118
-131.341	475.895	-0.072	0.161
-130.326	284.821	-0.215	0.382
-129.312	800.000	-0.039	-0.163
-128.297	60.345	0.210	-0.205
-127.283	338.171	0.252	0.485
-126.268	27.517	-0.043	0.036
-125.253	-200.000	0.057	0.391
-124.239	800.000	0.056	0.237
-123.224	58.348	-0.189	0.183
-122.210	800.000	0.035	0.101
-121.195	-66.769	0.122	-0.048
-120.180	-200.000	0.259	-0.000
-119.166	-200.000	-0.021	-0.355
-118.151	-200.000	-0.003	0.140
-117.137	-159.388	0.235	0.013
-116.122	-100.860	0.029	-0.007
-115.107	20.122	0.183	0.145
-114.093	800.000	-0.040	0.144
-113.078	-8.438	0.233	-0.155
-112.064	-77.234	-0.062	-0.021
-111.049	323.813	-0.057	-0.108
-110.034	-200.000	0.025	0.112
-109.020	-120.265	0.109	-0.018
-108.005	81.360	-0.291	-0.310
-106.991	77.305	0.143	-0.150
-105.976	-168.253	0.209	0.008
-104.962	575.602	-0.089	0.214
-103.947	-152.576	-0.253	0.018
-102.932	-125.743	0.073	0.011
-101.918	-62.813	0.180	0.073
-100.903	800.000	-0.037	-0.128
-99.889	-200.000	-0.041	0.183
-98.874	310.113	-0.157	-0.289
-97.859	752.854	0.092	-0.244
-96.845	-64.877	0.086	-0.034
-95.830	-48.504	0.169	0.080
-94.816	-200.000	-0.043	-0.307
-93.801	2.179	-0.363	0.259
-92.786	509.116	-0.082	0.187
-91.772	-126.268	-0.405	-0.060
-90.757	-76.954	0.443	-0.153
-89.743	-178.016	-0.169	0.004
-88.728	800.000	-0.126	-0.437
-87.713	800.000	-0.025	-0.097
-86.699	800.000	-0.031	0.120
-85.684	-156.656	-0.084	0.005
-84.670	800.000	0.115	0.437
-83.655	-84.831	0.298	-0.092
-82.640	631.407	0.101	-0.251
-81.626	207.429	0.090	-0.138
-80.611	-83.829	0.408	0.128
-79.597	-200.000	-0.055	-0.368
-78.582	800.000	-0.054	-0.149
-77.567	290.039	-0.167	0.299
-76.553	207.400	0.087	-0.134
-75.538	-93.887	-0.317	0.086
-74.524	-200.000	-0.031	0.172
-73.509	-77.827	0.103	-0.035
-72.494	-131.662	0.055	0.007
-71.480	72.800	-0.171	0.176
-70.465	-36.852	-0.215	-0.114
-69.451	800.000	-0.060	-0.179
-68.436	323.268	-0.141	-0.266
-67.422	-61.098	-0.196	0.081
-66.407	148.456	0.173	-0.230
-65.392	240.044	0.070	0.114
-64.378	496.188	-0.034	-0.076
-63.363	729.282	0.054	-0.142
-62.349	-200.000	-0.004	0.151
-61.334	-35.426	-1.022	-0.547
-60.319	61.243	0.692	0.678
-59.305	463.049	-0.512	-1.127
-58.290	106.815	0.970	1.135
-57.276	660.746	0.544	1.381
-56.261	-200.000	113.766	644.969
-55.246	530.111	1517.030	3530.573
-54.232	175.745	2690.497	3844.811
-53.217	100.662	2317.270	2652.007
-52.203	34.658	2064.076	1776.983
-51.188	29.922	1980.067	1662.186
-50.173	28.466	1964.133	1635.767
-49.159	46.512	2022.763	1848.479
-48.144	45.622	2037.798	1854.092
-47.130	30.263	1996.989	1679.211
-46.115	28.142	1985.969	1650.764
-45.100	27.961	1983.601	1647.099
-44.086	27.945	1981.256	1644.943
-43.071	27.768	1979.055	1641.461
-42.057	27.861	1976.456	1640.071
-41.042	27.953	1975.006	1639.628
-40.027	27.904	1973.001	1637.466
-39.013	27.975	1971.225	1636.562
-37.998	28.026	1969.273	1635.335
-36.984	28.018	1967.625	1633.825
-35.969	27.861	1965.990	1631.003
-34.954	27.939	1964.179	1630.128
-33.940	27.998	1962.718	1629.378
-32.925	28.046	1961.073	1628.373
-31.911	27.942	1959.574	1626.141
-30.896	28.053	1957.317	1625.192
-29.881	28.055	1956.271	1624.276
-28.867	28.099	1954.937	1623.495
-27.852	28.079	1953.313	1621.900
-26.838	28.087	1951.313	1620.248
-25.823	28.102	1949.413	1618.741
-24.809	28.114	1947.666	1617.333
-23.794	28.000	1946.068	1614.934
-22.779	27.998	1944.123	1613.236
-21.765	28.024	1942.801	1612.308
-20.750	28.044	1940.532	1610.535
-19.736	27.915	1939.619	1608.577
-18.721	28.044	1937.533	1607.922
-17.706	28.076	1935.880	1606.761
-16.692	28.085	1934.516	1605.644
-15.677	28.141	1933.061	1604.865
-14.663	28.069	1931.759	1603.087
-13.648	28.041	1930.384	1601.640
-12.633	28.011	1929.387	1600.490
-11.619	28.091	1927.621	1599.661
-10.604	28.050	1926.396	1598.222
-9.590	28.030	1925.590	1597.314
-8.575	28.005	1923.784	1595.535
-7.560	28.078	1922.021	1594.641
-6.546	28.101	1920.566	1593.573
-5.531	28.103	1919.703	1592.808
-4.517	28.078	1918.633	1591.648
-3.502	28.044	1917.616	1590.446
-2.487	28.008	1916.108	1588.812
-1.473	28.105	1915.008	1588.686
-0.458	28.071	1910.701	1584.752
0.556	29.501	1890.639	1556.166
1.571	25.111	1871.373	1503.446
2.586	21.046	1893.352	1486.411
3.600	19.940	1927.480	1503.468
4.615	19.477	1921.903	1494.977
5.629	15.439	1822.027	1383.933
6.644	7.749	1708.575	1237.973
7.659	3.938	1673.987	1183.691
8.673	3.639	1671.049	1179.224
9.688	3.698	1669.446	1178.441
10.702	3.718	1668.551	1177.858
11.717	3.646	1665.153	1174.805
12.731	4.217	1663.837	1178.111
13.746	9.603	1676.096	1227.828
14.761	17.968	1695.297	1306.011
15.775	22.594	1703.212	1347.439
16.790	23.107	1703.035	1351.099
17.804	22.322	1700.329	1342.848
18.819	21.411	1697.537	1333.581
19.834	20.996	1695.211	1328.470
20.848	20.872	1694.630	1326.956
21.863	20.903	1693.120	1325.888
22.877	20.807	1692.238	1324.351
23.892	20.593	1691.142	1321.754
24.907	20.539	1690.309	1320.569
25.921	20.589	1688.118	1319.125
26.936	20.429	1687.872	1317.599
27.950	20.543	1686.223	1317.059
28.965	20.498	1686.028	1316.448
29.980	20.626	1685.340	1316.763
30.994	20.768	1684.565	1317.117
32.009	20.813	1684.029	1316.924
33.023	21.006	1682.568	1317.125
34.038	20.976	1681.756	1316.141
35.053	20.901	1680.929	1314.815
36.067	20.737	1679.508	1312.347
37.082	20.638	1678.547	1310.740
38.096	20.665	1677.670	1310.142
39.111	20.802	1676.804	1310.377
40.126	20.863	1675.984	1310.083
41.140	20.772	1675.451	1308.861
42.155	20.443	1673.663	1304.882
43.169	20.278	1671.032	1301.479
44.184	20.098	1669.935	1299.153
45.199	20.102	1669.456	1298.702
46.213	20.281	1668.187	1298.938
47.228	20.406	1667.263	1299.036
48.242	20.501	1666.771	1299.253
49.257	20.646	1665.636	1299.334
50.271	20.467	1665.024	1297.403
51.286	20.594	1663.521	1297.066
52.301	20.662	1661.951	1296.235
53.315	20.456	1661.294	1294.075
54.330	20.487	1659.331	1292.661
55.344	20.403	1656.995	1290.101
56.359	20.136	1656.310	1287.471
57.374	20.244	1654.799	1286.987
58.388	20.288	1653.210	1285.958
59.403	20.177	1652.074	1284.144
60.417	20.124	1650.552	1282.450
61.432	19.980	1649.865	1280.741
62.447	19.974	1648.553	1279.561
63.461	19.957	1647.239	1278.308
64.476	19.866	1646.294	1276.788
65.490	19.825	1644.958	1275.337
66.505	19.800	1644.134	1274.402
67.520	19.865	1642.586	1273.568
68.534	19.777	1641.780	1272.180
69.549	19.852	1640.814	1271.870
70.563	19.847	1639.848	1270.975
71.578	19.773	1638.268	1269.092
72.593	19.675	1637.035	1267.305
73.607	19.552	1636.155	1265.614
74.622	19.515	1635.029	1264.355
75.636	19.578	1633.695	1263.674
76.651	19.651	1633.439	1263.900
77.666	19.690	1632.212	1263.122
78.680	19.699	1631.882	1262.819
79.695	19.774	1631.090	1262.645
80.709	19.885	1630.337	1262.764
81.724	19.972	1629.841	1262.898
82.739	20.146	1629.385	1263.699
83.753	20.189	1628.560	1263.263
84.768	20.372	1627.798	1263.897
85.782	20.590	1627.463	1265.106
86.797	20.744	1626.964	1265.731
87.812	20.853	1626.252	1265.855
88.826	20.873	1624.734	1264.704
89.841	20.731	1623.478	1262.586
90.855	20.744	1622.488	1261.798
91.870	20.717	1621.724	1260.895
92.884	20.843	1621.010	1261.139
93.899	20.896	1620.136	1260.731
94.914	20.899	1618.563	1259.424
95.928	20.915	1617.830	1258.858
96.943	20.986	1615.838	1257.708
97.957	20.875	1615.568	1256.580
98.972	20.830	1613.497	1254.537
99.987	20.712	1612.009	1252.418
101.001	20.846	1610.333	1251.973
102.016	20.845	1609.051	1250.859
103.030	20.686	1607.775	1248.615
104.045	20.756	1606.632	1248.115
105.060	20.806	1605.591	1247.557
106.074	20.690	1603.456	1244.959
107.089	20.432	1601.703	1241.641
108.103	20.085	1599.324	1237.207
109.118	19.932	1598.079	1235.045
110.133	19.688	1596.937	1232.313
111.147	19.787	1595.146	1231.529
112.162	19.811	1594.139	1230.815
113.176	19.925	1593.029	1230.656
114.191	19.975	1591.464	1229.694
115.206	19.992	1590.784	1229.182
116.220	20.086	1589.756	1228.944
117.235	19.990	1588.331	1227.052
118.249	19.972	1587.174	1225.925
119.264	19.929	1585.676	1224.352
120.279	19.817	1584.269	1222.369
121.293	19.738	1582.814	1220.577
122.308	19.689	1581.598	1219.186
123.322	19.632	1579.446	1217.022
124.337	19.473	1577.926	1214.620
125.352	19.432	1576.891	1213.431
126.366	19.358	1575.878	1212.020
127.381	19.452	1574.691	1211.660
128.395	19.451	1573.484	1210.617
129.410	19.405	1571.725	1208.837
130.424	19.342	1570.410	1207.280
131.439	19.431	1569.513	1207.105
132.454	19.662	1568.504	1207.836
133.468	19.903	1567.481	1208.627
134.483	19.924	1565.981	1207.508
135.497	19.874	1564.979	1206.281
136.512	20.018	1563.784	1206.255
137.527	19.977	1562.504	1204.873
138.541	19.953	1561.357	1203.717
139.556	20.050	1559.787	1203.071
140.570	20.113	1558.353	1202.300
141.585	20.223	1557.521	1202.314
142.600	20.395	1556.849	1202.878
143.614	20.492	1555.590	1202.475
144.629	20.673	1554.617	1202.866
145.643	20.778	1553.510	1202.627
146.658	20.707	1552.617	1201.339
147.673	20.612	1550.897	1199.244
148.687	20.536	1549.325	1197.403
149.702	20.295	1547.454	1194.192
150.716	20.173	1545.511	1191.745
151.731	20.110	1543.832	1189.912
152.746	19.935	1543.013	1187.977
153.760	19.971	1541.352	1186.843
154.775	20.082	1540.487	1186.831
155.789	20.163	1539.726	1186.693
156.804	20.296	1538.716	1186.717
157.819	20.424	1537.063	1186.214
158.833	20.408	1536.366	1185.463
159.848	20.656	1535.088	1186.060
160.862	20.727	1534.053	1185.641
161.877	20.784	1533.580	1185.561
162.892	20.603	1531.714	1182.783
163.906	20.091	1530.043	1177.905
164.921	19.878	1528.471	1175.142
165.935	19.921	1527.135	1174.305
166.950	19.990	1526.190	1173.944
167.964	20.061	1525.648	1173.903
168.979	20.200	1525.019	1174.255
169.994	20.164	1523.764	1172.945
171.008	20.171	1522.043	1171.559
172.023	20.166	1521.118	1170.714
173.037	20.237	1520.453	1170.577
174.052	20.465	1519.767	1171.485
175.067	20.507	1518.870	1170.971
176.081	20.356	1517.118	1168.498
177.096	20.014	1515.351	1164.738
178.110	19.924	1514.115	1163.076
179.125	19.966	1512.447	1161.975
180.140	20.021	1512.280	1162.111
181.154	20.072	1511.547	1161.789
182.169	20.353	1510.409	1162.696
183.183	20.471	1509.697	1162.835
184.198	20.576	1508.442	1162.467
185.213	20.590	1508.068	1162.166
186.227	20.577	1506.819	1161.016
187.242	20.602	1505.849	1160.330
188.256	20.651	1505.101	1159.980
189.271	20.708	1504.535	1159.821
190.286	20.826	1503.237	1159.502
191.300	20.780	1502.049	1158.180
192.315	20.412	1500.748	1154.624
193.329	19.995	1498.749	1150.220
194.344	20.008	1497.506	1149.248
195.359	20.112	1496.873	1149.349
196.373	20.121	1495.735	1148.435
197.388	20.132	1494.648	1147.574
198.402	20.249	1493.856	1147.634
199.417	20.470	1493.494	1148.719
200.432	20.829	1493.399	1150.917
201.446	20.924	1492.734	1150.927
202.461	21.076	1491.841	1151.141
203.475	21.152	1490.583	1150.568
204.490	21.219	1490.074	1150.513
205.504	21.074	1488.441	1148.200
206.519	20.646	1486.771	1143.996
207.534	20.602	1485.385	1142.537
208.548	20.448	1484.609	1140.827
209.563	20.438	1483.178	1139.565
210.577	20.434	1482.765	1139.121
211.592	20.510	1481.449	1138.504
212.607	20.491	1481.119	1138.028
213.621	20.727	1480.703	1139.153
214.636	20.787	1480.553	1139.324
215.650	20.802	1478.963	1138.103
216.665	20.761	1477.918	1136.929
217.680	20.810	1477.581	1136.890
218.694	21.073	1477.009	1138.063
219.709	21.185	1476.532	1138.328
220.723	21.156	1475.041	1136.884
221.738	20.956	1474.313	1134.922
222.753	20.981	1473.375	1134.260
223.767	20.869	1472.437	1132.713
224.782	20.905	1470.908	1131.672
225.796	21.026	1470.033	1131.680
226.811	21.187	1469.762	1132.415
227.826	21.187	1469.589	1132.184
228.840	21.050	1468.260	1130.170
229.855	20.865	1466.841	1127.780
230.869	20.849	1465.196	1126.315
231.884	20.759	1464.872	1125.385
232.899	20.697	1463.304	1123.680
233.913	20.604	1461.962	1121.951
234.928	20.478	1460.950	1120.263
235.942	20.484	1459.575	1119.146
236.957	20.373	1458.190	1117.270
237.972	20.239	1457.025	1115.421
238.986	20.163	1456.086	1114.114
240.001	20.232	1455.492	1114.001
241.015	20.360	1453.996	1113.578
242.030	20.471	1452.653	1113.163
243.045	20.623	1451.975	1113.518
244.059	20.658	1451.516	1113.294
245.074	20.739	1451.066	1113.366
246.088	20.752	1450.136	1112.641
247.103	20.976	1449.551	1113.521
248.117	20.999	1449.128	1113.245
249.132	21.182	1448.491	1113.826
250.147	21.377	1448.016	1114.604
251.161	21.565	1448.009	1115.702
252.176	21.804	1447.779	1116.944
253.190	21.981	1447.006	1117.377
254.205	21.828	1446.484	1115.900
255.220	22.094	1445.553	1116.773
256.234	22.125	1445.001	1116.448
257.249	22.033	1444.233	1115.172
258.263	22.065	1442.568	1113.993
259.278	21.970	1441.943	1112.804
260.293	21.878	1441.038	1111.429
261.307	21.997	1439.907	1111.209
262.322	22.052	1439.721	1111.314
263.336	22.122	1438.503	1110.717
264.351	22.172	1437.484	1110.149
265.366	22.158	1436.900	1109.516
266.380	22.182	1436.362	1109.149
267.395	22.119	1435.377	1107.897
268.409	22.071	1434.447	1106.777
269.424	22.085	1432.892	1105.566
270.439	21.910	1431.471	1103.273
271.453	21.870	1430.625	1102.269
272.468	21.839	1429.557	1101.154
273.482	21.667	1428.896	1099.471
274.497	21.504	1428.316	1097.902
275.512	21.540	1426.989	1097.010
276.526	21.502	1426.174	1096.048
277.541	21.619	1424.992	1095.776
278.555	21.538	1424.564	1094.845
279.570	21.718	1423.404	1094.984
280.585	21.730	1423.247	1094.837
281.599	21.971	1422.482	1095.659
282.614	22.156	1421.890	1096.256
283.628	22.013	1420.298	1094.044
284.643	21.793	1419.086	1091.645
285.657	21.664	1417.796	1089.754
286.672	21.699	1417.065	1089.313
287.687	21.682	1415.824	1088.153
288.701	21.830	1414.746	1088.151
289.716	21.748	1414.230	1087.145
290.730	21.801	1413.369	1086.716
291.745	21.734	1412.373	1085.443
292.760	21.746	1411.747	1084.935
293.774	21.746	1410.786	1084.103
294.789	21.791	1409.784	1083.518
295.803	22.036	1409.144	1084.443
296.818	22.125	1408.763	1084.601
297.833	21.918	1407.712	1082.422
298.847	21.809	1405.965	1080.307
299.862	21.815	1404.930	1079.452
300.876	21.687	1404.453	1078.207
301.891	21.788	1403.325	1077.865
302.906	21.811	1402.738	1077.457
303.920	21.995	1402.519	1078.326
304.935	22.171	1402.168	1079.043
305.949	22.330	1400.670	1078.769
306.964	22.415	1400.450	1079.025
307.979	22.501	1400.005	1079.114
308.993	22.392	1398.298	1077.033
310.008	22.211	1397.191	1074.983
311.022	22.258	1396.305	1074.490
312.037	22.321	1395.562	1074.208
313.052	22.438	1394.306	1073.861
314.066	22.201	1393.341	1071.578
315.081	22.033	1392.071	1069.481
316.095	21.674	1390.967	1066.358
317.110	21.651	1389.556	1065.038
318.125	21.512	1388.654	1063.408
319.139	21.676	1387.265	1063.248
320.154	21.641	1386.553	1062.392
321.168	21.660	1385.769	1061.812
322.183	21.687	1384.904	1061.224
323.197	21.658	1384.006	1060.265
324.212	21.784	1382.713	1059.941
325.227	21.768	1382.664	1059.712
326.241	21.803	1381.452	1058.901
327.256	21.754	1380.786	1058.003
328.270	21.935	1379.566	1058.067
329.285	21.783	1378.757	1056.435
330.300	21.741	1377.791	1055.347
331.314	21.828	1377.207	1055.329
332.329	21.818	1376.233	1054.433
333.343	21.713	1375.383	1053.059
334.358	21.833	1374.121	1052.720
335.373	21.879	1374.118	1052.896
336.387	22.007	1373.075	1052.771
337.402	22.085	1372.693	1052.857
338.416	22.276	1372.299	1053.603
339.431	22.329	1371.407	1053.143
340.446	22.400	1371.036	1053.189
341.460	22.459	1370.052	1052.693
342.475	22.732	1368.972	1053.399
343.489	22.880	1368.656	1053.944
344.504	22.910	1367.792	1053.367
345.519	22.810	1367.760	1052.652
346.533	23.001	1366.303	1052.573
347.548	22.934	1365.634	1051.572
348.562	23.041	1365.161	1051.747
349.577	23.062	1364.116	1050.976
350.592	22.823	1362.742	1048.405
351.606	22.561	1361.421	1045.738
352.621	22.282	1360.152	1043.019
353.635	22.191	1358.872	1041.406
354.650	22.084	1357.680	1039.770
355.665	22.070	1356.712	1038.850
356.679	22.198	1355.360	1038.480
357.694	22.326	1354.534	1038.510
358.708	22.379	1354.072	1038.377
359.723	22.409	1352.993	1037.638
360.738	22.561	1352.051	1037.714
361.752	22.527	1351.213	1036.782
362.767	22.513	1350.013	1035.689
363.781	22.603	1348.654	1035.083
364.796	22.503	1348.536	1034.309
365.810	22.610	1348.151	1034.551
366.825	22.798	1347.611	1035.147
367.840	23.014	1347.184	1035.995
368.854	23.127	1346.975	1036.403
369.869	23.294	1346.237	1036.725
370.883	23.309	1345.610	1036.237
371.898	23.151	1344.608	1034.448
372.913	23.011	1343.476	1032.669
373.927	22.907	1342.300	1031.066
374.942	22.927	1341.435	1030.430
375.956	23.002	1340.800	1030.288
376.971	23.196	1340.387	1031.006
377.986	23.027	1339.439	1029.203
379.000	23.114	1338.353	1028.784
380.015	23.181	1338.051	1028.850
381.029	23.302	1337.768	1029.247
382.044	23.513	1336.877	1029.692
383.059	23.454	1336.230	1028.760
384.073	23.405	1335.239	1027.623
385.088	23.233	1334.771	1026.174
386.102	23.258	1334.095	1025.712
387.117	23.490	1333.141	1026.226
388.132	23.197	1332.617	1024.041
389.146	22.952	1331.048	1021.330
390.161	22.748	1330.520	1019.652
391.175	22.792	1329.665	1019.162
392.190	22.807	1328.680	1018.401
393.205	22.894	1327.877	1018.198
394.219	23.113	1327.171	1018.831
395.234	23.274	1326.409	1019.078
396.248	23.211	1324.630	1017.264
397.263	22.935	1323.283	1014.550
398.278	22.916	1322.191	1013.515
399.292	22.880	1320.825	1012.172
400.307	22.784	1319.520	1010.536
401.321	22.583	1318.654	1008.632
402.336	22.645	1317.266	1007.833
403.350	22.556	1315.934	1006.220
404.365	22.507	1315.123	1005.229
405.380	22.592	1314.701	1005.304
406.394	22.870	1313.680	1006.017
407.409	22.910	1313.305	1005.868
408.423	22.919	1313.299	1005.826
409.438	23.334	1312.415	1007.424
410.453	23.355	1311.958	1007.100
411.467	23.464	1311.496	1007.274
412.482	23.371	1311.216	1006.444
413.496	23.532	1310.341	1006.599
414.511	23.638	1309.747	1006.654
415.526	23.772	1308.667	1006.495
416.540	23.945	1308.089	1006.936
417.555	23.989	1307.636	1006.750
418.569	24.049	1306.803	1006.361
419.584	23.819	1306.724	1004.909
420.599	23.761	1305.698	1003.703
421.613	146.450	1435.149	1798.241
422.628	141.915	1454.008	1798.324
