DTS Sentinel unit serial number:	SN413079Multiplexer serial number:	ORYXHardware model number:	OX4-SRSoftware version number:	ORYX F/W v4.00 Oryx Data Collector v3.7.2.0data status	okinstallation	princeton_trtdifferential loss correction	single-endedforward channel	channel 4reverse channel	N/Adate	2019/09/19time	07:53:34forward acquisition time	60.00reverse acquisition time	0.00gamma	496.2192k internal	0.2339k external	0.2339temperature offset calibration	1.0020default loss term (dB/km)	0.3790temperature slope calibration	1.0000multiplexer offset coefficient	1.0000multiplexer slope coefficient	1.0000fibre end	0.00T internal ref (°C)	19.67T ext. ref 1 (°C)	0.55T ext. ref 2 (°C)	15.14length (m)	temperature (°C)	Stokes	anti-Stokes-747.200	-132.563	0.345	-0.045
-746.185	-200.000	-0.013	-0.403
-745.171	800.000	0.079	0.252
-744.156	-19.966	0.066	-0.041
-743.142	-76.526	0.173	-0.061
-742.127	-200.000	0.001	0.088
-741.112	-146.356	-0.258	0.023
-740.098	216.465	0.112	-0.178
-739.083	-155.895	-0.352	0.022
-738.069	513.371	-0.115	-0.268
-737.054	95.704	0.099	0.113
-736.039	-98.224	-0.250	-0.064
-735.025	-148.061	0.157	-0.013
-734.010	28.043	0.046	0.039
-732.996	-120.586	-0.198	0.034
-731.981	198.005	-0.202	-0.310
-730.966	8.466	-0.123	-0.093
-729.952	-41.843	-0.050	-0.026
-728.937	800.000	-0.111	0.339
-727.923	-102.742	0.144	-0.034
-726.908	-67.977	-0.048	-0.019
-725.894	142.160	0.272	0.361
-724.879	-63.460	-0.333	-0.137
-723.864	-114.016	0.021	-0.004
-722.850	59.406	-0.132	-0.131
-721.835	-22.440	-0.257	-0.156
-720.821	-36.614	-0.332	0.179
-719.806	-200.000	-0.006	0.089
-718.791	-27.841	0.163	-0.095
-717.777	424.589	-0.095	0.205
-716.762	-200.000	0.021	-0.158
-715.748	139.353	-0.069	0.091
-714.733	129.183	-0.107	-0.137
-713.718	-73.524	0.102	-0.037
-712.704	-162.475	0.306	-0.015
-711.689	-70.070	-0.103	-0.039
-710.675	404.149	0.133	-0.281
-709.660	800.000	0.014	0.043
-708.645	326.588	-0.070	0.134
-707.631	-94.806	0.222	0.060
-706.616	800.000	-0.048	0.151
-705.602	95.025	-0.158	-0.180
-704.587	-127.909	-0.135	-0.019
-703.572	-167.605	-0.237	-0.009
-702.558	61.643	0.122	0.122
-701.543	1.555	0.172	-0.124
-700.529	-46.414	0.196	-0.097
-699.514	-0.617	-0.029	-0.020
-698.499	178.452	0.057	0.083
-697.485	185.935	0.168	-0.250
-696.470	-86.712	-0.114	0.035
-695.456	94.234	0.115	-0.130
-694.441	-200.000	-0.025	0.304
-693.426	37.724	-0.271	-0.241
-692.412	13.910	-0.067	-0.052
-691.397	-26.265	-0.414	0.243
-690.383	-200.000	0.017	0.096
-689.368	472.973	-0.092	0.208
-688.354	-31.641	-0.232	-0.131
-687.339	37.011	0.143	0.127
-686.324	-99.526	0.170	0.043
-685.310	-29.279	-0.095	0.055
-684.295	-115.279	-0.107	-0.020
-683.281	-46.474	-0.083	0.041
-682.266	72.578	-0.078	-0.081
-681.251	-70.758	0.186	-0.070
-680.237	-33.189	-0.194	-0.108
-679.222	-115.861	0.307	0.057
-678.208	-200.000	-0.003	0.171
-677.193	732.083	0.030	0.080
-676.178	-23.273	0.349	0.210
-675.164	-200.000	0.041	-0.194
-674.149	-197.553	-0.199	-0.001
-673.135	181.738	0.042	0.062
-672.120	112.837	-0.175	0.212
-671.105	429.091	-0.091	-0.196
-670.091	119.905	0.120	0.149
-669.076	-200.000	-0.003	0.114
-668.062	-105.997	-0.141	0.032
-667.047	-75.132	0.116	0.042
-666.032	-91.388	-0.141	-0.040
-665.018	514.238	0.043	0.101
-664.003	800.000	-0.049	-0.136
-662.989	264.655	-0.129	-0.224
-661.974	105.762	0.176	0.209
-660.959	118.841	-0.209	-0.258
-659.945	97.575	0.113	0.130
-658.930	234.708	0.121	0.199
-657.916	597.231	-0.120	0.297
-656.901	-47.912	-0.251	0.122
-655.886	-121.558	0.436	-0.072
-654.872	-99.380	0.317	0.080
-653.857	144.861	-0.131	0.175
-652.843	8.363	0.188	0.141
-651.828	262.203	-0.088	-0.152
-650.814	-149.710	0.303	-0.024
-649.799	-126.823	-0.295	-0.043
-648.784	-69.081	-0.239	-0.092
-647.770	156.450	0.174	0.241
-646.755	-200.000	0.015	0.363
-645.741	-200.000	0.044	0.292
-644.726	-46.646	-0.354	0.173
-643.711	344.408	-0.153	0.299
-642.697	126.807	0.301	0.381
-641.682	-200.000	0.031	-0.277
-640.668	113.750	0.083	0.100
-639.653	-79.721	-0.228	0.077
-638.638	280.005	0.004	0.007
-637.624	-9.944	-0.119	0.079
-636.609	-90.657	-0.076	0.022
-635.595	-200.000	0.029	-0.169
-634.580	-69.489	0.111	0.042
-633.565	-200.000	0.016	0.119
-632.551	64.254	-0.072	0.073
-631.536	-200.000	0.041	0.212
-630.522	238.475	0.132	-0.219
-629.507	-4.061	-0.197	-0.136
-628.492	-200.000	-0.001	-0.172
-627.478	-87.827	0.193	0.058
-626.463	-200.000	-0.023	0.205
-625.449	800.000	-0.110	-0.344
-624.434	-80.464	-0.136	-0.045
-623.419	-78.025	0.134	0.046
-622.405	-184.524	-0.296	0.005
-621.390	-70.328	-0.235	-0.089
-620.376	-10.736	0.152	0.100
-619.361	-156.305	-0.231	0.014
-618.346	800.000	-0.038	0.163
-617.332	49.797	-0.024	0.023
-616.317	-200.000	0.025	-0.156
-615.303	-169.420	0.200	-0.007
-614.288	95.233	0.083	-0.094
-613.273	30.337	0.102	-0.087
-612.259	-72.433	0.162	0.060
-611.244	26.312	-0.516	0.430
-610.230	506.137	0.057	-0.131
-609.215	-183.008	-0.148	0.003
-608.201	289.972	0.130	-0.235
-607.186	-200.000	-0.052	-0.257
-606.171	23.900	0.201	0.165
-605.157	-117.418	0.144	-0.026
-604.142	116.633	0.115	0.140
-603.128	-182.540	-0.108	-0.002
-602.113	-200.000	-0.015	0.072
-601.098	-63.065	-0.210	0.087
-600.084	3.645	0.298	0.217
-599.069	-136.668	-0.186	-0.021
-598.055	101.641	0.121	-0.140
-597.040	-121.817	0.388	-0.064
-596.025	317.768	-0.034	-0.064
-595.011	800.000	0.085	0.287
-593.996	800.000	-0.085	-0.273
-592.982	61.856	-0.017	0.016
-591.967	-67.323	-0.240	0.094
-590.952	94.000	0.065	0.073
-589.938	-200.000	0.019	0.343
-588.923	216.517	0.137	-0.217
-587.909	-63.871	-0.379	-0.155
-586.894	69.018	-0.139	-0.143
-585.879	-166.601	0.366	0.015
-584.865	-200.000	0.034	-0.300
-583.850	555.914	0.049	-0.117
-582.836	-118.561	0.291	0.051
-581.821	800.000	0.074	-0.319
-580.806	39.593	-0.151	0.135
-579.792	-150.026	-0.121	0.009
-578.777	563.267	-0.172	0.414
-577.763	257.027	-0.067	-0.115
-576.748	-140.408	0.249	-0.026
-575.733	-60.631	-0.283	-0.120
-574.719	-63.139	-0.160	-0.066
-573.704	-138.531	0.304	0.033
-572.690	-200.000	0.032	0.148
-571.675	246.898	0.191	-0.321
-570.661	285.651	-0.192	-0.345
-569.646	-67.735	0.074	0.029
-568.631	-141.465	-0.139	-0.014
-567.617	220.165	-0.138	-0.220
-566.602	69.662	-0.154	0.158
-565.588	-200.000	0.011	0.135
-564.573	-51.749	0.101	-0.047
-563.558	-155.048	0.235	-0.015
-562.544	-65.583	-0.365	0.146
-561.529	364.366	0.126	0.252
-560.515	27.691	-0.099	-0.083
-559.500	-50.532	-0.182	-0.085
-558.485	-136.920	0.320	0.037
-557.471	-84.322	-0.156	0.049
-556.456	-185.413	-0.071	-0.001
-555.442	-200.000	-0.023	-0.218
-554.427	144.376	-0.127	-0.169
-553.412	-40.375	-0.081	0.042
-552.398	800.000	-0.037	0.127
-551.383	-200.000	0.020	0.096
-550.369	20.947	-0.215	-0.174
-549.354	25.980	0.120	-0.100
-548.339	-3.932	0.120	-0.083
-547.325	170.609	0.066	-0.094
-546.310	-55.254	-0.223	-0.100
-545.296	-93.598	0.254	0.070
-544.281	-90.324	-0.014	0.004
-543.266	-117.441	-0.331	-0.060
-542.252	-200.000	0.002	-0.055
-541.237	378.352	-0.095	0.194
-540.223	-55.034	0.340	-0.152
-539.208	43.270	-0.147	0.133
-538.193	270.798	-0.090	-0.157
-537.179	-4.880	0.071	-0.049
-536.164	800.000	0.058	-0.215
-535.150	-200.000	0.008	-0.232
-534.135	-200.000	0.037	-0.218
-533.121	800.000	-0.041	0.132
-532.106	-200.000	-0.001	0.171
-531.091	70.587	0.059	-0.060
-530.077	-71.548	-0.294	0.109
-529.062	800.000	0.087	-0.249
-528.048	778.650	-0.078	0.213
-527.033	-200.000	-0.024	-0.396
-526.018	129.589	0.253	-0.321
-525.004	4.442	-0.067	-0.049
-523.989	371.344	-0.126	0.254
-522.975	-13.765	0.193	-0.124
-521.960	33.519	-0.223	-0.193
-520.945	-63.231	0.410	-0.168
-519.931	-40.175	-0.104	0.054
-518.916	800.000	-0.045	0.152
-517.902	-141.581	-0.426	-0.043
-516.887	-200.000	0.001	0.262
-515.872	559.550	0.043	0.104
-514.858	39.110	-0.058	0.051
-513.843	-175.008	0.212	0.006
-512.829	800.000	-0.066	0.235
-511.814	-200.000	-0.011	-0.160
-510.799	-11.528	0.099	-0.065
-509.785	398.995	0.097	-0.202
-508.770	800.000	-0.117	-0.488
-507.756	652.951	-0.037	-0.095
-506.741	800.000	-0.047	0.134
-505.726	-200.000	-0.054	-0.287
-504.712	-137.369	-0.512	0.058
-503.697	105.343	0.011	-0.013
-502.683	28.532	0.123	0.104
-501.668	327.482	-0.085	0.162
-500.653	81.671	-0.167	0.180
-499.639	-200.000	0.004	-0.037
-498.624	-85.515	0.232	-0.072
-497.610	-49.227	-0.113	-0.054
-496.595	-60.254	-0.038	0.016
-495.581	-154.696	0.147	-0.010
-494.566	-121.765	-0.073	0.012
-493.551	4.623	-0.072	0.053
-492.537	-164.085	0.162	0.007
-491.522	-149.054	0.248	0.020
-490.508	11.797	-0.236	-0.180
-489.493	-162.224	0.446	-0.022
-488.478	-200.000	0.022	0.259
-487.464	-75.026	-0.373	-0.133
-486.449	800.000	0.070	-0.212
-485.435	-26.029	0.203	0.118
-484.420	480.409	-0.118	0.265
-483.405	335.009	-0.031	0.061
-482.391	190.490	0.282	0.421
-481.376	-56.152	-0.326	-0.144
-480.362	606.596	-0.115	-0.284
-479.347	-198.058	-0.245	0.001
-478.332	-139.806	-0.372	0.039
-477.318	-169.490	-0.189	-0.007
-476.303	41.927	0.083	0.075
-475.289	-10.359	-0.270	0.177
-474.274	40.256	0.107	-0.096
-473.259	124.394	-0.084	0.105
-472.245	551.848	-0.171	0.407
-471.230	301.674	-0.097	0.177
-470.216	800.000	0.023	0.075
-469.201	356.040	-0.038	0.075
-468.186	13.384	0.063	0.048
-467.172	800.000	-0.087	-0.245
-466.157	800.000	0.116	-0.389
-465.143	-137.173	-0.228	0.026
-464.128	-73.056	0.239	-0.087
-463.113	157.391	0.195	-0.268
-462.099	-54.331	-0.203	0.092
-461.084	-200.000	-0.012	0.110
-460.070	-5.036	-0.213	0.145
-459.055	800.000	0.062	-0.176
-458.040	187.749	0.104	0.153
-457.026	-2.617	-0.203	-0.141
-456.011	800.000	0.099	-0.328
-454.997	317.326	-0.035	-0.066
-453.982	-30.771	0.227	0.127
-452.968	142.740	-0.034	0.044
-451.953	93.301	-0.150	-0.168
-450.938	14.413	0.072	-0.055
-449.924	-59.399	0.112	0.048
-448.909	295.035	0.253	-0.459
-447.895	-200.000	0.026	-0.213
-446.880	-59.819	0.246	0.104
-445.865	-123.179	0.250	-0.040
-444.851	-50.001	0.146	0.069
-443.836	-50.837	-0.064	-0.030
-442.822	44.733	0.090	0.082
-441.807	83.306	-0.177	0.191
-440.792	-111.946	0.061	-0.012
-439.778	45.262	-0.064	-0.058
-438.763	800.000	-0.009	-0.031
-437.749	-108.363	0.150	0.032
-436.734	-158.539	0.379	-0.022
-435.719	87.215	0.414	0.454
-434.705	659.550	0.145	0.371
-433.690	-137.112	-0.162	0.018
-432.676	47.194	0.141	0.130
-431.661	-200.000	0.061	-0.349
-430.646	-200.000	0.010	-0.178
-429.632	-200.000	-0.020	-0.279
-428.617	-185.023	-0.203	-0.003
-427.603	285.768	0.078	0.140
-426.588	16.349	0.182	-0.142
-425.573	53.980	0.169	-0.161
-424.559	800.000	-0.078	0.312
-423.544	-200.000	-0.028	-0.367
-422.530	-57.283	-0.149	0.065
-421.515	-4.668	-0.101	0.069
-420.500	-200.000	0.019	0.160
-419.486	534.996	-0.195	0.459
-418.471	-79.518	0.234	0.078
-417.457	3.410	-0.213	0.154
-416.442	800.000	-0.039	0.161
-415.428	61.982	0.132	-0.130
-414.413	-200.000	-0.028	0.125
-413.398	-24.306	-0.234	0.138
-412.384	-200.000	-0.034	0.187
-411.369	-200.000	-0.013	0.247
-410.355	-5.306	0.109	-0.074
-409.340	599.409	-0.167	0.411
-408.325	800.000	0.061	0.189
-407.311	-200.000	0.006	-0.261
-406.296	297.449	0.261	0.475
-405.282	-200.000	-0.019	-0.147
-404.267	21.676	0.210	0.169
-403.252	75.336	0.102	-0.107
-402.238	-183.290	0.139	-0.002
-401.223	339.165	0.299	-0.576
-400.209	-59.188	-0.203	0.086
-399.194	-91.485	-0.238	0.067
-398.179	-115.404	0.305	-0.057
-397.165	11.728	0.159	0.121
-396.150	-200.000	-0.047	0.302
-395.136	178.327	-0.067	0.097
-394.121	-42.980	0.146	0.073
-393.106	130.908	0.178	0.226
-392.092	-200.000	-0.024	-0.226
-391.077	-74.384	0.175	0.062
-390.063	85.764	0.127	-0.138
-389.048	734.193	0.120	-0.318
-388.033	84.005	-0.167	0.180
-387.019	180.412	0.058	-0.085
-386.004	230.072	-0.100	-0.162
-384.990	-62.661	-0.380	-0.156
-383.975	0.093	0.141	-0.099
-382.960	-29.848	-0.048	0.027
-381.946	97.036	-0.240	0.273
-380.931	-37.798	-0.067	-0.035
-379.917	-112.828	0.275	0.054
-378.902	399.891	-0.223	-0.462
-377.888	-64.511	0.435	-0.175
-376.873	31.772	-0.094	-0.080
-375.858	-200.000	0.008	-0.108
-374.844	-33.840	0.087	0.047
-373.829	-200.000	0.057	0.421
-372.815	800.000	-0.043	0.133
-371.800	800.000	0.072	0.223
-370.785	84.741	-0.152	0.165
-369.771	-19.088	-0.330	-0.203
-368.756	105.217	0.265	0.309
-367.742	800.000	-0.152	0.584
-366.727	106.711	-0.012	0.014
-365.712	374.739	0.059	-0.119
-364.698	328.135	-0.119	-0.226
-363.683	47.431	0.372	-0.342
-362.669	466.765	-0.170	0.377
-361.654	73.260	-0.253	0.262
-360.639	-93.050	-0.067	0.018
-359.625	-109.023	0.234	0.049
-358.610	-200.000	0.060	0.267
-357.596	-47.982	-0.240	-0.115
-356.581	24.216	-0.105	-0.085
-355.566	130.477	0.123	-0.155
-354.552	-42.791	0.232	0.116
-353.537	512.922	-0.052	0.121
-352.523	-53.439	0.054	0.024
-351.508	-113.553	0.139	0.027
-350.493	-200.000	-0.022	-0.296
-349.479	-35.276	-0.228	-0.123
-348.464	503.202	-0.144	-0.330
-347.450	-200.000	-0.023	0.173
-346.435	-37.251	0.262	-0.139
-345.420	-64.490	-0.340	-0.136
-344.406	288.534	-0.048	0.087
-343.391	263.486	-0.091	-0.156
-342.377	-98.112	-0.493	-0.125
-341.362	255.424	-0.235	-0.397
-340.348	-52.182	0.209	0.096
-339.333	-166.413	0.248	-0.010
-338.318	-102.549	0.181	0.043
-337.304	-200.000	0.070	0.374
-336.289	-91.698	-0.082	-0.023
-335.275	-116.194	-0.215	-0.039
-334.260	-64.788	-0.198	-0.079
-333.245	-116.844	0.452	0.082
-332.231	-61.312	-0.178	0.074
-331.216	-81.810	0.346	0.112
-330.202	-200.000	0.025	0.133
-329.187	91.796	0.155	-0.172
-328.172	-38.507	0.128	0.067
-327.158	-200.000	-0.023	-0.486
-326.143	25.361	-0.244	0.200
-325.129	40.413	-0.347	0.308
-324.114	-56.402	-0.218	0.095
-323.099	-87.397	0.445	-0.133
-322.085	-200.000	-0.010	-0.250
-321.070	235.699	-0.093	0.152
-320.056	6.874	-0.152	0.112
-319.041	25.069	-0.095	0.078
-318.026	230.428	-0.195	-0.315
-317.012	766.552	0.138	-0.371
-315.997	-31.870	-0.106	0.058
-314.983	-108.866	0.129	-0.027
-313.968	-200.000	0.083	-0.365
-312.953	224.718	0.109	-0.174
-311.939	800.000	-0.029	-0.098
-310.924	-200.000	-0.002	-0.429
-309.910	-101.234	0.217	0.052
-308.895	-200.000	0.005	0.056
-307.880	26.319	0.103	-0.085
-306.866	82.197	0.118	0.127
-305.851	602.466	-0.148	0.364
-304.837	70.055	-0.134	-0.136
-303.822	-200.000	0.029	-0.131
-302.807	193.224	-0.100	-0.149
-301.793	277.670	-0.124	-0.218
-300.778	210.736	0.032	-0.049
-299.764	324.113	0.046	-0.087
-298.749	156.153	-0.061	-0.082
-297.735	34.244	0.038	0.033
-296.720	-200.000	-0.033	0.282
-295.705	151.223	0.133	-0.178
-294.691	53.666	-0.104	0.098
-293.676	-130.962	0.267	0.035
-292.662	-54.134	0.067	-0.030
-291.647	-200.000	0.018	0.095
-290.632	72.431	0.092	-0.094
-289.618	114.514	-0.158	-0.189
-288.603	-128.607	0.211	-0.029
-287.589	-200.000	-0.003	0.087
-286.574	-144.657	0.168	0.015
-285.559	108.762	0.087	-0.103
-284.545	70.322	-0.310	0.315
-283.530	-200.000	0.012	0.176
-282.516	-200.000	0.019	0.190
-281.501	-39.705	0.287	0.148
-280.486	82.809	0.135	0.144
-279.472	-200.000	-0.010	0.064
-278.457	228.327	0.128	-0.205
-277.443	-80.379	0.179	0.059
-276.428	41.873	-0.233	-0.208
-275.413	-127.638	0.389	-0.055
-274.399	-162.146	0.299	0.015
-273.384	438.025	-0.138	-0.296
-272.370	800.000	0.135	-0.491
-271.355	-4.498	-0.200	-0.136
-270.340	154.609	0.109	-0.147
-269.326	-54.395	-0.019	0.009
-268.311	-17.669	-0.141	-0.087
-267.297	-145.575	0.122	-0.011
-266.282	522.442	0.067	0.156
-265.267	85.547	0.110	-0.119
-264.253	274.167	-0.234	0.407
-263.238	64.157	-0.022	0.022
-262.224	-200.000	-0.100	-0.457
-261.209	-92.544	-0.233	0.064
-260.195	-200.000	-0.027	-0.250
-259.180	-200.000	0.004	-0.320
-258.165	-32.125	-0.308	0.170
-257.151	570.387	0.194	0.464
-256.136	91.968	0.164	0.182
-255.122	-200.000	-0.016	-0.133
-254.107	-25.653	-0.146	-0.085
-253.092	16.521	0.328	-0.255
-252.078	-128.245	-0.133	0.019
-251.063	115.852	0.235	-0.282
-250.049	-87.979	0.272	-0.080
-249.034	80.174	-0.338	0.357
-248.019	-162.962	-0.106	-0.005
-247.005	-200.000	-0.013	-0.198
-245.990	-48.303	0.178	-0.085
-244.976	-143.005	0.163	-0.016
-243.961	-175.130	-0.444	0.012
-242.946	100.887	0.084	-0.096
-241.932	587.177	-0.122	-0.295
-240.917	-2.748	-0.185	0.127
-239.903	326.297	0.118	0.223
-238.888	-200.000	-0.009	0.142
-237.873	42.345	-0.136	0.122
-236.859	19.839	-0.277	0.219
-235.844	6.826	-0.108	-0.079
-234.830	-186.758	-0.394	-0.005
-233.815	-200.000	0.008	-0.077
-232.800	-178.064	0.137	-0.003
-231.786	-43.316	-0.104	-0.052
-230.771	-200.000	-0.004	-0.196
-229.757	-200.000	-0.075	0.348
-228.742	-37.200	-0.227	0.119
-227.727	-104.248	-0.257	0.059
-226.713	-34.561	-0.236	-0.127
-225.698	292.451	0.165	-0.296
-224.684	86.823	-0.200	-0.217
-223.669	-200.000	-0.038	0.256
-222.655	71.011	0.303	-0.308
-221.640	-97.231	0.233	-0.060
-220.625	-66.519	0.156	0.061
-219.611	311.752	0.106	-0.195
-218.596	724.903	-0.118	0.309
-217.582	-17.615	0.237	-0.146
-216.567	66.736	-0.250	0.250
-215.552	116.240	-0.088	0.106
-214.538	348.916	-0.053	-0.103
-213.523	-115.400	0.376	-0.070
-212.509	-84.317	-0.081	0.025
-211.494	-200.000	0.003	-0.017
-210.479	-146.615	0.310	0.026
-209.465	21.112	-0.054	-0.043
-208.450	-16.027	-0.423	0.264
-207.436	-21.886	-0.200	-0.119
-206.421	-200.000	-0.031	0.151
-205.406	-149.647	-0.261	-0.020
-204.392	26.404	0.154	-0.127
-203.377	560.366	0.079	0.188
-202.363	679.909	-0.125	0.320
-201.348	-141.358	0.102	0.010
-200.333	-153.161	0.204	-0.014
-199.319	27.365	-0.100	0.082
-198.304	-93.236	-0.205	0.056
-197.290	800.000	-0.097	0.265
-196.275	-51.417	-0.132	0.060
-195.260	322.666	0.086	0.161
-194.246	-0.886	0.197	-0.137
-193.231	101.492	-0.080	0.091
-192.217	219.825	-0.141	0.222
-191.202	202.206	-0.074	0.111
-190.187	-200.000	-0.024	0.183
-189.173	518.993	0.051	-0.117
-188.158	39.882	0.388	0.341
-187.144	321.425	-0.060	-0.111
-186.129	-61.956	0.344	-0.141
-185.114	-80.919	0.103	-0.034
-184.100	3.566	-0.313	0.224
-183.085	-200.000	-0.032	0.352
-182.071	-38.533	-0.161	-0.084
-181.056	-200.000	0.050	-0.268
-180.042	63.818	-0.234	0.230
-179.027	237.700	0.258	-0.420
-178.012	-200.000	-0.004	-0.212
-176.998	108.974	-0.301	-0.353
-175.983	-147.348	0.393	-0.033
-174.969	-200.000	-0.042	0.370
-173.954	-200.000	0.033	0.338
-172.939	138.554	0.200	0.257
-171.925	135.867	-0.065	-0.083
-170.910	591.122	-0.102	-0.246
-169.896	-65.290	0.218	-0.086
-168.881	-200.000	-0.044	0.236
-167.866	800.000	0.103	-0.291
-166.852	800.000	0.149	-0.415
-165.837	-91.144	-0.330	-0.093
-164.823	800.000	0.038	-0.115
-163.808	-15.454	0.113	0.071
-162.793	30.751	0.033	-0.028
-161.779	800.000	-0.012	-0.051
-160.764	53.641	0.353	0.332
-159.750	65.259	0.065	0.064
-158.735	-115.661	0.188	-0.035
-157.720	-43.509	0.123	0.061
-156.706	163.231	0.141	0.194
-155.691	-74.242	-0.085	-0.030
-154.677	711.262	0.086	0.224
-153.662	-77.631	0.360	0.122
-152.647	147.997	0.085	0.113
-151.633	50.206	0.047	0.044
-150.618	-200.000	0.027	-0.151
-149.604	-200.000	0.009	0.086
-148.589	-167.191	0.096	0.004
-147.574	-110.769	0.403	-0.081
-146.560	-188.250	-0.187	0.002
-145.545	-200.000	-0.002	-0.270
-144.531	-10.685	0.192	-0.125
-143.516	-22.426	0.177	0.105
-142.502	-200.000	-0.026	0.205
-141.487	159.078	0.219	-0.299
-140.472	-75.649	-0.235	-0.082
-139.458	31.083	-0.109	0.091
-138.443	351.308	0.031	-0.060
-137.429	126.485	-0.045	0.056
-136.414	-200.000	0.021	0.161
-135.399	-200.000	-0.013	-0.334
-134.385	24.561	-0.236	-0.191
-133.370	-200.000	0.007	-0.077
-132.356	24.630	-0.208	-0.169
-131.341	-35.460	0.050	0.027
-130.326	-200.000	-0.011	0.237
-129.312	-200.000	-0.007	0.033
-128.297	-55.480	0.226	-0.099
-127.283	-180.358	-0.206	0.004
-126.268	-104.680	0.196	-0.044
-125.253	28.615	0.072	-0.060
-124.239	342.346	-0.095	0.182
-123.224	116.320	-0.252	-0.303
-122.210	-33.587	-0.427	0.231
-121.195	71.604	0.224	-0.228
-120.180	287.525	-0.087	-0.155
-119.166	40.647	-0.233	0.206
-118.151	-200.000	-0.006	-0.092
-117.137	-200.000	-0.025	-0.313
-116.122	-200.000	-0.004	0.045
-115.107	-10.884	0.192	-0.124
-114.093	-54.909	0.435	0.192
-113.078	646.701	-0.044	0.111
-112.064	800.000	-0.079	-0.266
-111.049	226.421	0.116	0.184
-110.034	-154.556	-0.307	-0.020
-109.020	-138.899	0.615	-0.065
-108.005	26.027	-0.087	-0.071
-106.991	-130.145	-0.197	0.026
-105.976	-32.194	0.080	-0.043
-104.962	64.117	0.214	0.211
-103.947	34.768	0.122	-0.105
-102.932	-200.000	0.012	-0.221
-101.918	257.977	0.172	-0.290
-100.903	57.609	-0.072	0.069
-99.889	-37.817	0.073	-0.038
-98.874	-91.198	0.209	0.058
-97.859	-41.757	-0.202	-0.101
-96.845	-200.000	-0.006	-0.153
-95.830	-22.296	-0.315	-0.187
-94.816	-200.000	-0.064	-0.294
-93.801	40.497	0.053	0.047
-92.786	79.117	0.161	-0.169
-91.772	291.391	0.092	0.164
-90.757	145.153	-0.090	0.117
-89.743	800.000	0.088	-0.323
-88.728	-104.984	0.211	0.047
-87.713	-58.639	-0.262	0.111
-86.699	-35.604	0.308	-0.163
-85.684	-68.283	-0.314	-0.119
-84.670	80.758	-0.159	0.167
-83.655	-9.403	0.120	-0.078
-82.640	-134.221	0.324	0.039
-81.626	-200.000	0.058	-0.392
-80.611	-5.886	0.356	-0.238
-79.597	-200.000	0.017	0.162
-78.582	-200.000	-0.000	-0.174
-77.567	57.615	-0.072	0.069
-76.553	-42.695	0.076	-0.038
-75.538	800.000	-0.026	-0.072
-74.524	-25.792	-0.233	0.134
-73.509	-200.000	0.009	0.273
-72.494	-161.387	0.213	-0.011
-71.480	800.000	0.058	0.165
-70.465	135.977	-0.236	0.301
-69.451	-200.000	0.054	0.296
-68.436	-91.796	-0.158	0.044
-67.422	-200.000	0.030	-0.243
-66.407	-158.534	0.075	0.004
-65.392	306.815	0.132	-0.239
-64.378	-200.000	-0.024	-0.128
-63.363	-200.000	-0.002	-0.147
-62.349	-200.000	-0.092	0.399
-61.334	193.912	-1.170	-1.730
-60.319	77.138	0.657	0.682
-59.305	-200.000	-0.203	-1.596
-58.290	188.360	1.262	1.842
-57.276	412.243	0.722	1.498
-56.261	-200.000	135.273	641.796
-55.246	333.526	1658.753	3131.592
-54.232	132.451	2810.295	3536.863
-53.217	76.364	2355.553	2436.015
-52.203	25.839	2096.996	1705.979
-51.188	21.289	2014.992	1597.690
-50.173	20.326	2000.544	1577.421
-49.159	38.330	2078.009	1806.657
-48.144	35.445	2088.897	1789.201
-47.130	21.682	2040.820	1621.548
-46.115	19.681	2029.965	1594.423
-45.100	19.632	2027.132	1591.682
-44.086	19.540	2024.761	1588.911
-43.071	19.486	2022.314	1586.430
-42.057	19.495	2019.770	1584.450
-41.042	19.428	2018.208	1582.554
-40.027	19.528	2016.541	1582.095
-39.013	19.600	2014.391	1581.006
-37.998	19.596	2012.498	1579.424
-36.984	19.616	2010.849	1578.242
-35.969	19.612	2009.198	1576.850
-34.954	19.500	2007.720	1574.610
-33.940	19.621	2006.101	1574.376
-32.925	19.701	2004.690	1573.939
-31.911	19.699	2002.840	1572.408
-30.896	19.624	2001.454	1570.570
-29.881	19.667	2000.467	1570.129
-28.867	19.758	1997.566	1568.616
-27.852	19.684	1996.738	1567.231
-26.838	19.806	1993.913	1566.055
-25.823	19.753	1992.837	1564.664
-24.809	19.727	1990.951	1562.884
-23.794	19.639	1989.606	1560.979
-22.779	19.634	1987.659	1559.342
-21.765	19.692	1985.865	1558.395
-20.750	19.714	1984.604	1557.537
-19.736	19.662	1983.025	1555.772
-18.721	19.724	1981.615	1555.166
-17.706	19.657	1979.828	1553.099
-16.692	19.645	1978.011	1551.502
-15.677	19.680	1976.545	1550.608
-14.663	19.688	1975.241	1549.595
-13.648	19.692	1974.360	1548.872
-12.633	19.690	1973.029	1547.753
-11.619	19.710	1971.058	1546.319
-10.604	19.795	1969.932	1546.137
-9.590	19.615	1969.105	1543.821
-8.575	19.710	1966.982	1542.942
-7.560	19.748	1965.950	1542.409
-6.546	19.737	1964.876	1541.407
-5.531	19.665	1963.871	1539.913
-4.517	19.699	1962.558	1539.128
-3.502	19.682	1961.009	1537.701
-2.487	19.638	1959.949	1536.417
-1.473	19.731	1958.962	1536.411
-0.458	19.813	1953.381	1532.700
0.556	18.615	1934.010	1506.208
1.571	14.751	1916.190	1458.527
2.586	11.230	1941.296	1446.311
3.600	10.475	1978.148	1466.803
4.615	10.605	1970.502	1462.172
5.629	8.482	1868.882	1368.488
6.644	3.474	1757.636	1246.513
7.659	0.866	1726.413	1203.534
8.673	0.586	1724.122	1199.613
9.688	0.590	1723.113	1198.829
10.702	0.567	1721.894	1197.698
11.717	0.467	1717.412	1193.678
12.731	0.689	1715.920	1194.295
13.746	4.768	1724.006	1232.153
14.761	11.326	1737.259	1293.681
15.775	15.977	1746.056	1337.118
16.790	17.034	1747.141	1346.222
17.804	16.156	1744.353	1336.997
18.819	15.259	1740.909	1327.138
19.834	14.655	1738.113	1320.112
20.848	14.387	1736.974	1317.011
21.863	14.220	1734.954	1314.047
22.877	13.883	1733.577	1310.229
23.892	13.659	1732.346	1307.414
24.907	13.648	1730.438	1305.775
25.921	13.539	1729.663	1304.214
26.936	13.566	1728.961	1303.780
27.950	13.613	1727.810	1303.173
28.965	13.618	1727.629	1302.958
29.980	13.671	1726.805	1302.635
30.994	13.712	1725.427	1301.807
32.009	13.771	1724.220	1301.244
33.023	13.778	1723.572	1300.695
34.038	13.808	1722.502	1300.003
35.053	13.753	1721.803	1298.933
36.067	13.741	1720.455	1297.706
37.082	13.715	1719.385	1296.582
38.096	13.790	1717.966	1295.982
39.111	13.770	1717.458	1295.328
40.126	13.761	1717.062	1294.845
41.140	13.686	1716.086	1293.411
42.155	13.633	1714.520	1291.697
43.169	13.615	1712.754	1290.114
44.184	13.625	1711.747	1289.320
45.199	13.599	1710.886	1288.353
46.213	13.504	1709.818	1286.700
47.228	13.485	1708.877	1285.727
48.242	13.617	1707.024	1285.242
49.257	13.728	1705.154	1284.587
50.271	13.644	1704.382	1283.236
51.286	13.628	1703.324	1282.207
52.301	13.595	1701.785	1280.676
53.315	13.680	1700.195	1280.022
54.330	13.649	1698.455	1278.363
55.344	13.569	1697.524	1276.933
56.359	13.536	1696.279	1275.631
57.374	13.541	1694.415	1274.151
58.388	13.707	1692.720	1274.035
59.403	13.571	1691.662	1272.086
60.417	13.536	1690.374	1270.733
61.432	13.495	1689.569	1269.707
62.447	13.562	1687.963	1268.901
63.461	13.477	1687.396	1267.712
64.476	13.517	1686.173	1266.985
65.490	13.497	1684.445	1265.420
66.505	13.394	1683.569	1263.863
67.520	13.567	1682.330	1264.144
68.534	13.436	1681.496	1262.402
69.549	13.568	1680.195	1262.322
70.563	13.517	1678.634	1260.646
71.578	13.539	1677.586	1259.917
72.593	13.550	1676.514	1259.089
73.607	13.488	1675.488	1257.729
74.622	13.381	1674.844	1256.322
75.636	13.497	1673.652	1256.198
76.651	13.342	1672.994	1254.417
77.666	13.468	1671.484	1254.130
78.680	13.415	1670.963	1253.224
79.695	13.423	1669.835	1252.330
80.709	13.438	1668.556	1251.376
81.724	13.510	1667.841	1251.273
82.739	13.550	1666.518	1250.473
83.753	13.518	1665.815	1249.589
84.768	13.556	1664.995	1249.148
85.782	13.666	1663.387	1248.660
86.797	13.702	1662.688	1248.302
87.812	13.719	1661.668	1247.550
88.826	13.775	1660.106	1246.687
89.841	13.611	1659.038	1244.542
90.855	13.527	1658.119	1243.114
91.870	13.635	1656.794	1242.818
92.884	13.721	1656.084	1242.822
93.899	13.618	1654.561	1240.796
94.914	13.683	1653.904	1240.681
95.928	13.687	1652.547	1239.582
96.943	13.800	1650.759	1238.978
97.957	13.683	1649.435	1237.004
98.972	13.678	1648.123	1235.868
99.987	13.730	1645.963	1234.533
101.001	13.657	1644.976	1233.136
102.016	13.684	1643.151	1231.860
103.030	13.676	1641.894	1230.751
104.045	13.629	1641.050	1229.663
105.060	13.807	1638.608	1229.039
106.074	13.676	1637.634	1227.229
107.089	13.656	1635.915	1225.688
108.103	13.540	1634.650	1223.773
109.118	13.622	1633.117	1223.119
110.133	13.586	1631.613	1221.620
111.147	13.534	1630.588	1220.363
112.162	13.557	1628.809	1219.091
113.176	13.629	1627.384	1218.445
114.191	13.635	1625.914	1217.284
115.206	13.614	1624.877	1216.246
116.220	13.642	1623.498	1215.310
117.235	13.699	1621.981	1214.488
118.249	13.755	1619.966	1213.279
119.264	13.672	1618.970	1211.822
120.279	13.534	1618.299	1210.198
121.293	13.620	1616.292	1209.220
122.308	13.699	1614.470	1208.329
123.322	13.591	1613.555	1206.749
124.337	13.560	1611.783	1205.088
125.352	13.582	1611.088	1204.626
126.366	13.535	1609.597	1203.062
127.381	13.535	1608.544	1202.168
128.395	13.601	1607.136	1201.485
129.410	13.554	1606.170	1200.316
130.424	13.545	1604.059	1198.567
131.439	13.589	1603.299	1198.212
132.454	13.572	1602.025	1197.033
133.468	13.587	1600.088	1195.589
134.483	13.630	1598.634	1194.706
135.497	13.650	1597.305	1193.751
136.512	13.635	1595.817	1192.429
137.527	13.646	1594.109	1191.124
138.541	13.630	1593.508	1190.451
139.556	13.674	1591.809	1189.396
140.570	13.702	1590.149	1188.249
141.585	13.735	1589.022	1187.540
142.600	13.720	1587.898	1186.483
143.614	13.855	1586.387	1186.219
144.629	13.818	1585.577	1185.242
145.643	13.897	1583.970	1184.503
146.658	13.944	1582.582	1183.695
147.673	13.861	1581.427	1182.135
148.687	13.839	1579.804	1180.655
149.702	13.855	1577.918	1179.260
150.716	13.841	1576.529	1178.016
151.731	13.815	1575.047	1176.618
152.746	13.801	1573.992	1175.627
153.760	13.844	1572.270	1174.542
154.775	13.898	1571.258	1174.065
155.789	13.823	1569.880	1172.405
156.804	13.961	1568.277	1172.077
157.819	13.959	1567.524	1171.394
158.833	13.937	1566.096	1170.071
159.848	13.970	1564.834	1169.255
160.862	14.067	1563.850	1169.097
161.877	14.038	1562.015	1167.418
162.892	13.896	1561.433	1165.883
163.906	13.942	1559.920	1164.974
164.921	13.899	1558.716	1163.667
165.935	13.982	1557.608	1163.321
166.950	13.861	1557.234	1162.093
167.964	13.965	1555.413	1161.358
168.979	13.983	1554.319	1160.560
169.994	13.938	1553.549	1159.574
171.008	14.030	1552.011	1158.959
172.023	14.052	1550.827	1158.129
173.037	14.058	1549.876	1157.354
174.052	14.143	1548.197	1156.595
175.067	14.094	1547.762	1155.824
176.081	14.117	1546.406	1154.868
177.096	14.072	1544.866	1153.306
178.110	14.014	1543.327	1151.652
179.125	14.085	1542.502	1151.430
180.140	14.175	1541.038	1150.856
181.154	14.049	1540.200	1149.255
182.169	14.091	1538.943	1148.510
183.183	14.148	1537.714	1147.880
184.198	14.194	1536.507	1147.192
185.213	14.134	1535.886	1146.219
186.227	14.192	1534.260	1145.301
187.242	14.235	1533.433	1144.878
188.256	14.235	1532.363	1143.980
189.271	14.342	1530.656	1143.338
190.286	14.334	1529.515	1142.329
191.300	14.318	1529.093	1141.800
192.315	14.262	1527.768	1140.331
193.329	14.182	1526.263	1138.555
194.344	14.135	1525.416	1137.502
195.359	14.107	1524.145	1136.264
196.373	14.225	1523.453	1136.453
197.388	14.190	1522.064	1135.080
198.402	14.236	1521.232	1134.667
199.417	14.460	1519.553	1134.844
200.432	14.432	1518.724	1133.933
201.446	14.476	1517.754	1133.404
202.461	14.482	1516.797	1132.632
203.475	14.527	1514.899	1131.419
204.490	14.517	1514.151	1130.693
205.504	14.546	1512.791	1129.778
206.519	14.470	1511.584	1128.259
207.534	14.471	1510.537	1127.388
208.548	14.535	1509.189	1126.713
209.563	14.511	1508.367	1125.837
210.577	14.464	1507.579	1124.829
211.592	14.489	1506.360	1123.994
212.607	14.510	1505.903	1123.692
213.621	14.602	1505.069	1123.591
214.636	14.616	1504.078	1122.844
215.650	14.651	1502.850	1122.063
216.665	14.658	1501.618	1121.088
217.680	14.644	1501.177	1120.570
218.694	14.695	1500.481	1120.292
219.709	14.683	1499.370	1119.285
220.723	14.631	1498.283	1118.027
221.738	14.714	1497.235	1117.697
222.753	14.684	1496.374	1116.758
223.767	14.685	1495.331	1115.886
224.782	14.753	1494.077	1115.302
225.796	14.674	1493.936	1114.573
226.811	14.783	1492.775	1114.338
227.826	14.824	1491.864	1113.829
228.840	14.744	1491.051	1112.591
229.855	14.784	1489.728	1111.773
230.869	14.728	1488.949	1110.720
231.884	14.720	1488.092	1109.930
232.899	14.760	1486.785	1109.120
233.913	14.779	1485.946	1108.522
234.928	14.784	1484.471	1107.362
235.942	14.805	1483.054	1106.343
236.957	14.806	1481.956	1105.437
237.972	14.801	1480.663	1104.341
238.986	14.832	1479.369	1103.481
240.001	14.890	1478.297	1102.963
241.015	14.839	1477.913	1102.244
242.030	14.840	1476.554	1101.142
243.045	14.855	1475.358	1100.250
244.059	14.932	1474.649	1100.129
245.074	14.902	1474.004	1099.353
246.088	14.892	1473.171	1098.570
247.103	14.959	1472.486	1098.404
248.117	14.965	1471.561	1097.657
249.132	15.059	1470.350	1097.268
250.147	15.096	1469.593	1096.847
251.161	15.024	1469.249	1096.025
252.176	15.119	1468.465	1095.965
253.190	15.169	1467.895	1095.773
254.205	15.189	1466.814	1094.997
255.220	15.197	1465.440	1093.928
256.234	15.301	1464.543	1093.840
257.249	15.347	1463.674	1093.395
258.263	15.418	1462.390	1092.796
259.278	15.355	1461.968	1091.977
260.293	15.283	1461.283	1090.896
261.307	15.341	1460.360	1090.491
262.322	15.408	1459.442	1090.147
263.336	15.406	1458.418	1089.271
264.351	15.432	1457.571	1088.709
265.366	15.518	1456.320	1088.237
266.380	15.413	1455.607	1086.926
267.395	15.533	1454.705	1086.934
268.409	15.429	1454.119	1085.729
269.424	15.529	1452.692	1085.212
270.439	15.474	1451.926	1084.189
271.453	15.520	1450.483	1083.311
272.468	15.516	1450.026	1082.846
273.482	15.532	1449.203	1082.239
274.497	15.507	1448.471	1081.438
275.512	15.565	1447.025	1080.639
276.526	15.495	1446.429	1079.648
277.541	15.570	1445.410	1079.273
278.555	15.523	1444.980	1078.550
279.570	15.584	1443.935	1078.070
280.585	15.599	1442.799	1077.219
281.599	15.645	1441.918	1076.760
282.614	15.641	1440.735	1075.758
283.628	15.696	1439.973	1075.447
284.643	15.685	1438.826	1074.427
285.657	15.746	1437.323	1073.598
286.672	15.703	1436.454	1072.580
287.687	15.700	1435.629	1071.850
288.701	15.665	1434.761	1070.885
289.716	15.745	1434.083	1070.791
290.730	15.718	1432.898	1069.642
291.745	15.751	1432.037	1069.112
292.760	15.795	1430.950	1068.483
293.774	15.923	1429.549	1068.157
294.789	15.870	1428.668	1067.067
295.803	15.801	1428.574	1066.464
296.818	15.854	1427.141	1065.636
297.833	15.747	1426.828	1064.630
298.847	15.894	1425.315	1064.338
299.862	15.822	1424.054	1062.845
300.876	15.937	1423.185	1062.832
301.891	15.922	1422.709	1062.284
302.906	15.979	1421.426	1061.596
303.920	15.859	1421.131	1060.523
304.935	15.922	1420.196	1060.129
305.949	16.065	1419.338	1060.295
306.964	16.050	1418.494	1059.476
307.979	16.102	1417.360	1058.861
308.993	16.170	1416.474	1058.532
310.008	16.105	1415.760	1057.499
311.022	16.125	1414.442	1056.545
312.037	16.151	1413.449	1055.872
313.052	16.228	1412.285	1055.392
314.066	16.214	1411.217	1054.413
315.081	16.129	1409.947	1052.840
316.095	16.103	1409.276	1052.084
317.110	16.163	1408.237	1051.586
318.125	16.162	1407.235	1050.742
319.139	16.234	1406.299	1050.399
320.154	16.205	1405.148	1049.266
321.168	16.177	1404.253	1048.327
322.183	16.216	1403.546	1047.947
323.197	16.181	1402.551	1046.898
324.212	16.232	1401.681	1046.472
325.227	16.304	1400.301	1045.797
326.241	16.279	1399.785	1045.163
327.256	16.278	1398.554	1044.141
328.270	16.271	1398.467	1043.944
329.285	16.279	1397.132	1042.904
330.300	16.238	1396.325	1041.958
331.314	16.270	1395.107	1041.155
332.329	16.232	1394.369	1040.277
333.343	16.281	1393.437	1039.788
334.358	16.276	1392.795	1039.185
335.373	16.308	1391.861	1038.596
336.387	16.350	1390.949	1038.082
337.402	16.403	1389.988	1037.600
338.416	16.487	1389.723	1037.824
339.431	16.452	1389.092	1037.047
340.446	16.439	1388.241	1036.241
341.460	16.479	1386.669	1035.222
342.475	16.481	1385.786	1034.483
343.489	16.512	1385.226	1034.159
344.504	16.516	1384.654	1033.669
345.519	16.646	1383.044	1033.169
346.533	16.599	1382.226	1032.178
347.548	16.630	1381.325	1031.604
348.562	16.699	1380.395	1031.239
349.577	16.623	1379.988	1030.379
350.592	16.658	1379.218	1029.927
351.606	16.628	1378.116	1028.830
352.621	16.680	1376.897	1028.142
353.635	16.713	1375.856	1027.475
354.650	16.598	1375.334	1026.299
355.665	16.623	1373.932	1025.313
356.679	16.668	1372.796	1024.645
357.694	16.776	1371.635	1024.345
358.708	16.728	1370.772	1023.315
359.723	16.863	1369.337	1022.972
360.738	16.753	1368.716	1021.750
361.752	16.788	1367.380	1020.873
362.767	16.844	1366.237	1020.266
363.781	16.806	1365.404	1019.330
364.796	16.875	1364.646	1019.089
365.810	16.873	1363.711	1018.284
366.825	16.859	1363.217	1017.741
367.840	16.903	1362.529	1017.406
368.854	17.062	1361.463	1017.468
369.869	17.042	1361.232	1017.087
370.883	17.026	1360.614	1016.440
371.898	16.962	1359.955	1015.478
372.913	17.017	1359.131	1015.100
373.927	16.899	1358.186	1013.596
374.942	16.930	1357.862	1013.450
375.956	16.948	1356.761	1012.650
376.971	17.021	1355.727	1012.223
377.986	17.047	1354.809	1011.603
379.000	17.068	1353.950	1010.995
380.015	17.151	1353.316	1010.927
381.029	17.035	1352.801	1009.765
382.044	17.076	1351.594	1009.014
383.059	17.192	1350.668	1008.923
384.073	17.258	1349.762	1008.549
385.088	17.214	1349.735	1008.178
386.102	17.287	1348.766	1007.798
387.117	17.314	1348.086	1007.360
388.132	17.334	1346.798	1006.431
389.146	17.207	1346.752	1005.553
390.161	17.253	1345.437	1004.753
391.175	17.326	1344.596	1004.467
392.190	17.345	1343.435	1003.627
393.205	17.253	1342.996	1002.667
394.219	17.383	1341.650	1002.336
395.234	17.293	1340.696	1001.008
396.248	17.331	1339.606	1000.331
397.263	17.292	1337.766	998.638
398.278	17.381	1336.250	997.940
399.292	17.302	1335.415	996.761
400.307	17.346	1334.564	996.296
401.321	17.383	1333.552	995.671
402.336	17.352	1332.538	994.647
403.350	17.451	1331.687	994.500
404.365	17.423	1330.488	993.352
405.380	17.395	1329.593	992.437
406.394	17.353	1329.296	991.880
407.409	17.435	1328.430	991.624
408.423	17.475	1327.766	991.271
409.438	17.491	1326.759	990.525
410.453	17.636	1326.327	990.962
411.467	17.586	1325.443	989.918
412.482	17.630	1324.453	989.347
413.496	17.677	1323.991	989.190
414.511	17.606	1323.227	988.118
415.526	17.707	1322.448	988.034
416.540	17.683	1321.488	987.093
417.555	17.686	1321.119	986.746
418.569	17.809	1320.105	986.613
419.584	17.825	1319.808	986.398
420.599	17.850	1319.150	985.962
421.613	101.271	1364.989	1491.607
422.628	99.952	1371.584	1491.680
