DTS Sentinel unit serial number:	SN413079Multiplexer serial number:	ORYXHardware model number:	OX4-SRSoftware version number:	ORYX F/W v4.00 Oryx Data Collector v3.7.2.0data status	okinstallation	princeton_trtdifferential loss correction	single-endedforward channel	channel 4reverse channel	N/Adate	2019/09/12time	19:05:18forward acquisition time	15.00reverse acquisition time	0.00gamma	496.2192k internal	0.2308k external	0.2308temperature offset calibration	1.0140default loss term (dB/km)	0.3790temperature slope calibration	1.0000multiplexer offset coefficient	1.0000multiplexer slope coefficient	1.0000fibre end	0.00T internal ref (°C)	32.69T ext. ref 1 (°C)	3.05T ext. ref 2 (°C)	27.16length (m)	temperature (°C)	Stokes	anti-Stokes-747.200	440.160	0.104	0.231
-746.185	-136.283	0.085	0.010
-745.171	-141.508	0.475	0.049
-744.156	-200.000	0.101	0.783
-743.142	-134.265	0.937	-0.117
-742.127	202.094	-0.138	-0.217
-741.112	-59.750	-0.716	-0.312
-740.098	-111.169	0.351	0.073
-739.083	-41.872	-0.518	-0.270
-738.069	-57.454	-0.519	-0.232
-737.054	-168.534	0.274	-0.011
-736.039	-121.352	0.292	0.049
-735.025	-40.050	0.856	0.454
-734.010	-116.418	1.397	0.262
-732.996	-88.479	-0.937	0.284
-731.981	-137.587	0.767	-0.088
-730.966	19.443	-0.864	-0.706
-729.952	-27.301	-0.439	-0.259
-728.937	-107.544	0.988	-0.220
-727.923	-60.811	-0.651	-0.280
-726.908	-69.563	0.742	0.289
-725.894	-24.626	-0.428	-0.258
-724.879	722.703	0.104	-0.281
-723.864	-114.291	0.265	-0.052
-722.850	621.555	0.219	-0.561
-721.835	-180.616	0.461	0.010
-720.821	57.210	0.551	-0.546
-719.806	372.125	-0.301	0.621
-718.791	-41.941	-1.035	-0.538
-717.777	251.772	-0.272	0.470
-716.762	800.000	-0.188	-0.697
-715.748	800.000	0.258	0.968
-714.733	261.583	0.108	-0.191
-713.718	267.584	-0.024	-0.042
-712.704	523.151	-0.198	-0.473
-711.689	-109.895	-0.693	0.147
-710.675	98.836	0.363	-0.426
-709.660	-126.549	-0.420	-0.063
-708.645	-90.717	0.557	0.163
-707.631	-200.000	-0.004	0.200
-706.616	104.183	0.295	0.352
-705.602	-200.000	0.053	-0.696
-704.587	800.000	0.180	-0.506
-703.572	94.457	-0.321	0.370
-702.558	-200.000	0.023	0.703
-701.543	800.000	0.178	0.767
-700.529	115.780	-0.216	-0.269
-699.514	-115.092	0.113	-0.022
-698.499	-127.719	0.214	0.031
-697.485	-19.400	-0.278	0.175
-696.470	713.226	-0.062	-0.166
-695.456	282.058	0.057	-0.104
-694.441	-200.000	-0.445	0.001
-693.426	-29.921	-0.347	0.201
-692.412	-55.993	0.968	-0.438
-691.397	226.435	0.162	-0.266
-690.383	-200.000	-0.007	-0.442
-689.368	-5.736	-0.221	-0.153
-688.354	487.848	0.128	-0.296
-687.339	-200.000	-0.048	0.234
-686.324	114.021	-0.225	-0.277
-685.310	-89.492	-0.154	0.046
-684.295	30.982	0.187	0.163
-683.281	37.251	0.733	-0.658
-682.266	137.773	0.076	0.101
-681.251	144.012	-0.173	-0.234
-680.237	-66.000	0.718	-0.291
-679.222	127.356	0.050	0.064
-678.208	46.537	0.521	-0.490
-677.193	416.167	0.257	-0.555
-676.178	694.794	0.076	0.202
-675.164	-143.406	-0.315	0.031
-674.149	-50.393	0.465	-0.223
-673.135	-200.000	-0.012	-0.348
-672.120	-200.000	-0.021	0.226
-671.105	-4.254	-0.208	-0.146
-670.091	-95.145	0.290	-0.079
-669.076	345.624	-0.346	-0.688
-668.062	-133.277	-1.147	-0.147
-667.047	86.558	0.112	-0.125
-666.032	-153.007	-0.393	-0.028
-665.018	-17.656	-0.515	0.328
-664.003	-104.673	-0.387	0.090
-662.989	800.000	0.317	-0.972
-661.974	138.163	-0.331	-0.439
-660.959	-200.000	0.072	-0.362
-659.945	-23.957	-0.241	-0.146
-658.930	-7.115	-0.357	-0.245
-657.916	73.934	0.229	0.244
-656.901	-116.259	-0.702	-0.132
-655.886	-3.948	0.790	-0.555
-654.872	800.000	0.242	-0.824
-653.857	93.701	0.447	0.513
-652.843	17.992	-0.236	-0.191
-651.828	119.388	-0.135	0.169
-650.814	-200.000	0.107	-0.881
-649.799	11.985	-0.487	0.379
-648.784	73.867	-0.346	-0.367
-647.770	723.975	-0.324	-0.875
-646.755	-120.472	0.972	-0.167
-645.741	115.512	-0.431	0.534
-644.726	-51.174	0.534	0.253
-643.711	26.078	-0.475	-0.401
-642.697	-200.000	0.011	-1.174
-641.682	20.597	0.078	-0.064
-640.668	-130.474	0.371	-0.051
-639.653	800.000	0.031	-0.096
-638.638	26.252	0.292	0.247
-637.624	-46.046	0.542	-0.270
-636.609	-52.751	0.391	-0.183
-635.595	800.000	-0.246	0.991
-634.580	-194.085	-0.421	-0.004
-633.565	100.289	0.252	0.296
-632.551	-85.125	0.282	0.089
-631.536	440.667	-0.371	-0.821
-630.522	-35.200	-0.407	0.224
-629.507	-23.296	0.332	0.202
-628.492	501.208	-0.056	0.132
-627.478	32.856	-0.338	0.296
-626.463	-147.502	0.786	0.067
-625.449	800.000	-0.139	-0.421
-624.434	277.548	0.377	-0.680
-623.419	655.186	0.102	0.265
-622.405	-56.540	-0.650	-0.292
-621.390	341.927	-0.088	-0.175
-620.376	-45.843	-0.085	0.042
-619.361	471.468	0.250	0.568
-618.346	-200.000	0.028	-0.476
-617.332	29.476	0.271	0.233
-616.317	-167.799	0.604	-0.024
-615.303	-125.661	-0.376	0.058
-614.288	-159.183	0.276	-0.016
-613.273	236.415	-0.303	-0.508
-612.259	-191.084	-0.493	0.005
-611.244	-98.884	-0.995	0.256
-610.230	-200.000	-0.066	-0.506
-609.215	273.453	0.095	-0.170
-608.201	-41.524	-0.395	-0.205
-607.186	528.490	-0.277	0.660
-606.171	380.284	0.062	0.128
-605.157	186.352	0.351	-0.528
-604.142	-58.699	0.340	-0.149
-603.128	800.000	-0.178	-0.553
-602.113	-108.190	-0.105	-0.023
-601.098	-200.000	0.041	0.279
-600.084	-14.858	0.673	0.437
-599.069	353.911	-0.073	-0.147
-598.055	-145.740	-0.841	-0.076
-597.040	-96.331	0.717	0.192
-596.025	-110.737	0.621	0.130
-595.011	-7.528	-0.857	-0.586
-593.996	-60.838	0.354	0.151
-592.982	-144.883	0.518	-0.048
-591.967	800.000	-0.152	0.426
-590.952	800.000	0.159	-0.457
-589.938	-111.918	0.697	-0.142
-588.923	-145.549	0.408	0.037
-587.909	-27.323	-0.320	0.188
-586.894	224.262	0.702	-1.146
-585.879	27.462	0.319	0.271
-584.865	-9.775	-0.282	0.190
-583.850	-45.276	-0.504	0.253
-582.836	-195.152	-0.255	0.002
-581.821	102.908	-0.282	-0.333
-580.806	-63.810	-0.663	0.274
-579.792	-150.057	-0.496	-0.039
-578.777	-200.000	-0.042	0.342
-577.763	800.000	-0.164	-0.508
-576.748	3.064	-0.259	0.190
-575.733	800.000	-0.091	-0.265
-574.719	-200.000	0.076	-0.397
-573.704	-58.177	0.402	-0.177
-572.690	-90.044	0.254	-0.075
-571.675	-200.000	0.198	-1.223
-570.661	-125.278	-0.764	-0.118
-569.646	-37.301	-0.321	0.173
-568.631	-106.129	0.502	0.114
-567.617	800.000	-0.211	-0.626
-566.602	800.000	0.234	0.656
-565.588	25.356	-0.045	0.038
-564.573	-84.775	-0.936	0.297
-563.558	239.724	0.432	-0.727
-562.544	-86.873	-0.446	-0.137
-561.529	71.611	-0.298	-0.312
-560.515	-200.000	-0.099	-0.614
-559.500	-43.108	0.210	0.108
-558.485	109.616	0.176	0.213
-557.471	273.809	-0.237	0.422
-556.456	195.184	-0.219	-0.336
-555.442	-129.391	-0.854	-0.120
-554.427	-35.304	1.108	-0.608
-553.412	-73.230	0.282	-0.104
-552.398	-87.975	-0.775	-0.235
-551.383	-84.071	0.414	0.133
-550.369	48.844	-0.253	0.240
-549.354	711.289	-0.404	-1.079
-548.339	75.254	-0.410	-0.436
-547.325	-157.632	-0.308	-0.019
-546.310	-150.458	0.394	0.031
-545.296	26.620	-0.380	0.320
-544.281	27.352	-0.208	-0.176
-543.266	92.484	0.334	0.380
-542.252	-20.232	0.541	0.336
-541.237	124.822	0.594	-0.754
-540.223	-56.427	0.342	0.153
-539.208	-35.931	-0.449	-0.245
-538.193	-54.012	0.919	-0.422
-537.179	-81.466	-0.262	0.087
-536.164	-98.185	0.307	0.079
-535.150	-10.510	0.083	-0.055
-534.135	23.461	-0.310	-0.257
-533.121	-4.459	-0.261	-0.182
-532.106	25.152	0.390	0.327
-531.091	800.000	-0.075	0.217
-530.077	800.000	0.229	-0.734
-529.062	-141.878	0.750	-0.076
-528.048	134.643	-0.427	0.559
-527.033	-58.305	-1.086	0.476
-526.018	-15.846	-0.872	0.560
-525.004	-12.462	0.054	-0.036
-523.989	619.225	-0.457	-1.157
-522.975	-46.775	1.087	-0.536
-521.960	83.504	-0.391	0.429
-520.945	11.109	0.290	0.224
-519.931	-33.521	-0.827	0.460
-518.916	-104.953	-0.885	-0.205
-517.902	555.525	-0.228	0.554
-516.887	-30.118	-0.270	-0.155
-515.872	800.000	0.116	-0.503
-514.858	-86.109	-0.287	0.089
-513.843	711.244	0.093	0.248
-512.829	16.250	-0.379	-0.301
-511.814	-78.615	-0.891	-0.307
-510.799	800.000	0.111	-0.326
-509.785	-200.000	0.063	-0.327
-508.770	-200.000	-0.230	1.075
-507.756	-108.399	0.316	-0.069
-506.741	705.108	-0.144	-0.382
-505.726	80.202	0.070	-0.075
-504.712	800.000	0.103	0.451
-503.697	-65.670	0.684	-0.276
-502.683	243.406	0.317	0.535
-501.668	-52.086	0.439	0.205
-500.653	330.080	0.010	-0.019
-499.639	800.000	-0.116	0.506
-498.624	-85.765	-0.432	0.135
-497.610	-200.000	-0.201	0.906
-496.595	31.395	-0.622	-0.538
-495.581	-200.000	-0.062	0.351
-494.566	335.103	-0.090	0.176
-493.551	-62.866	0.389	-0.162
-492.537	186.085	0.233	-0.349
-491.522	-66.692	-0.318	-0.127
-490.508	-11.557	-0.424	0.280
-489.493	-50.206	-0.742	-0.353
-488.478	-176.736	0.410	0.011
-487.464	800.000	-0.095	-0.410
-486.449	61.682	-0.055	0.055
-485.435	-200.000	0.061	0.589
-484.420	49.394	0.430	-0.407
-483.405	-200.000	0.038	-0.440
-482.391	-200.000	0.112	0.504
-481.376	800.000	0.235	-0.918
-480.362	-11.409	0.275	0.182
-479.347	-148.878	-0.071	0.006
-478.332	-73.130	-0.628	-0.231
-477.318	145.906	0.595	-0.803
-476.303	97.892	-0.047	-0.054
-475.289	-200.000	0.058	-0.360
-474.274	800.000	-0.080	-0.246
-473.259	800.000	0.089	-0.303
-472.245	-122.701	-0.578	-0.094
-471.230	-37.816	-0.294	0.157
-470.216	-27.001	-0.631	-0.370
-469.201	-147.496	0.491	-0.042
-468.186	-144.868	0.625	-0.058
-467.172	-76.596	0.504	-0.178
-466.157	633.158	-0.088	-0.223
-465.143	-198.764	-1.067	0.006
-464.128	-67.445	0.787	0.311
-463.113	-179.198	-0.365	0.008
-462.099	92.098	-0.836	-0.946
-461.084	800.000	0.260	-0.773
-460.070	52.643	0.276	-0.265
-459.055	-200.000	0.034	-0.317
-458.040	-180.858	0.735	0.015
-457.026	-200.000	0.026	-0.166
-456.011	800.000	-0.159	0.691
-454.997	58.370	-0.144	0.142
-453.982	-112.522	0.525	0.105
-452.968	-119.026	-0.182	-0.032
-451.953	800.000	-0.065	0.225
-450.938	-65.034	-1.303	0.529
-449.924	800.000	0.247	-0.773
-448.909	800.000	0.171	0.511
-447.895	-30.131	0.739	0.422
-446.880	800.000	0.136	0.479
-445.865	-91.322	0.439	-0.126
-444.851	-67.739	0.062	-0.024
-443.836	156.252	-0.221	0.307
-442.822	-73.925	0.359	-0.131
-441.807	-200.000	-0.070	-0.344
-440.792	-200.000	0.027	0.265
-439.778	-200.000	-0.178	0.838
-438.763	-151.766	-0.450	0.033
-437.749	-42.839	-0.175	-0.089
-436.734	-35.879	-0.119	-0.065
-435.719	299.014	0.158	0.292
-434.705	-200.000	-0.070	1.110
-433.690	76.977	0.426	0.454
-432.676	131.743	0.696	0.899
-431.661	612.034	0.249	0.625
-430.646	-49.300	-0.278	-0.133
-429.632	-69.198	-0.530	0.205
-428.617	446.366	-0.347	-0.765
-427.603	546.647	-0.262	-0.628
-426.588	-71.691	-0.629	0.236
-425.573	325.111	0.267	0.512
-424.559	800.000	-0.150	0.446
-423.544	-50.740	0.223	-0.105
-422.530	-200.000	-0.004	0.112
-421.515	-157.032	1.172	-0.072
-420.500	-45.166	0.476	-0.238
-419.486	-127.472	-0.427	0.062
-418.471	-200.000	0.061	-0.355
-417.457	800.000	-0.285	-0.808
-416.442	-121.070	-0.390	-0.066
-415.428	-5.780	0.021	0.014
-414.413	-98.357	0.254	-0.065
-413.398	-200.000	-0.003	-0.563
-412.384	72.385	-0.164	-0.172
-411.369	222.930	0.145	0.234
-410.355	41.958	-0.589	0.536
-409.340	800.000	0.181	0.529
-408.325	28.876	-0.466	0.396
-407.311	-28.921	0.113	-0.065
-406.296	455.687	-0.345	0.767
-405.282	642.593	0.358	0.916
-404.267	-120.000	0.552	-0.095
-403.252	-200.000	0.101	-0.616
-402.238	800.000	-0.232	-0.971
-401.223	-73.006	-0.513	0.189
-400.209	-56.754	-0.644	0.286
-399.194	78.895	0.508	-0.545
-398.179	196.548	0.328	-0.500
-397.165	800.000	-0.397	1.273
-396.150	359.088	0.295	-0.590
-395.136	-200.000	0.084	-0.762
-394.121	-30.564	0.558	-0.317
-393.106	28.169	-0.463	-0.392
-392.092	519.220	0.127	-0.299
-391.077	-151.814	0.231	-0.017
-390.063	224.994	0.326	-0.530
-389.048	-200.000	0.097	-0.464
-388.033	-162.152	-0.355	-0.018
-387.019	-77.716	-0.364	0.126
-386.004	-146.211	0.311	0.027
-384.990	259.476	-0.286	0.494
-383.975	-71.186	-0.622	-0.234
-382.960	354.326	0.097	-0.194
-381.946	227.025	0.068	-0.110
-380.931	-200.000	-0.006	0.146
-379.917	187.108	-0.181	0.270
-378.902	-200.000	0.076	0.522
-377.888	138.914	0.130	-0.172
-376.873	16.607	-0.209	0.166
-375.858	-108.076	-0.968	0.210
-374.844	254.753	-0.121	-0.207
-373.829	-200.000	-0.200	1.039
-372.815	-42.898	-1.004	0.511
-371.800	800.000	-0.089	0.332
-370.785	-114.159	-0.564	0.109
-369.771	747.588	0.069	-0.187
-368.756	278.010	0.288	0.514
-367.742	-125.627	0.711	-0.108
-366.727	-134.675	-0.909	0.111
-365.712	183.086	-0.449	-0.663
-364.698	146.077	0.488	0.655
-363.683	43.261	-0.425	-0.389
-362.669	206.978	0.301	0.469
-361.654	43.838	0.390	0.358
-360.639	-160.461	-0.967	-0.052
-359.625	353.746	-0.239	0.474
-358.610	-178.795	-0.617	0.014
-357.596	480.512	0.283	0.644
-356.581	800.000	0.121	0.362
-355.566	578.859	0.248	0.608
-354.552	269.714	-0.378	-0.665
-353.537	800.000	-0.159	-0.682
-352.523	469.874	-0.241	-0.543
-351.508	-134.121	0.409	0.051
-350.493	164.253	-0.343	0.483
-349.479	75.556	0.551	0.583
-348.464	171.122	0.210	0.301
-347.450	-29.981	-0.219	-0.125
-346.435	20.809	0.214	-0.174
-345.420	572.455	-0.094	-0.230
-344.406	800.000	0.080	-0.257
-343.391	-200.000	-0.036	-0.205
-342.377	-165.883	-0.942	0.040
-341.362	-159.055	-0.991	-0.056
-340.348	-46.891	0.212	-0.104
-339.333	-200.000	-0.002	-0.106
-338.318	800.000	0.051	0.178
-337.304	-159.016	-0.409	-0.023
-336.289	262.111	-0.210	-0.364
-335.275	-132.223	0.927	-0.120
-334.260	669.309	-0.261	0.675
-333.245	65.370	0.511	0.517
-332.231	-52.378	0.623	-0.288
-331.216	31.483	-0.312	0.268
-330.202	-200.000	-0.004	-0.022
-329.187	800.000	0.151	-0.456
-328.172	-34.405	0.762	0.418
-327.158	-200.000	0.047	0.695
-326.143	-24.888	0.693	-0.412
-325.129	4.656	-0.186	-0.137
-324.114	753.134	0.199	-0.538
-323.099	800.000	-0.225	-0.714
-322.085	116.138	0.192	0.235
-321.070	-62.292	-0.222	-0.092
-320.056	342.962	-0.261	0.511
-319.041	-200.000	0.057	0.815
-318.026	141.650	0.126	0.166
-317.012	-89.684	-0.207	0.061
-315.997	-200.000	0.070	0.442
-314.983	147.257	0.618	0.831
-313.968	-118.006	0.702	-0.125
-312.953	-26.350	0.316	0.186
-311.939	800.000	-0.177	0.691
-310.924	-128.352	0.581	0.083
-309.910	25.359	-0.172	0.143
-308.895	471.657	-0.283	-0.636
-307.880	86.777	-0.599	0.660
-306.866	-150.009	0.631	0.049
-305.851	385.854	0.189	0.390
-304.837	-200.000	0.027	-0.254
-303.822	-142.844	0.445	0.043
-302.807	-200.000	0.005	0.309
-301.793	-200.000	-0.069	-0.450
-300.778	-200.000	0.006	-0.117
-299.764	-37.815	-0.518	0.275
-298.749	-53.186	-1.187	-0.544
-297.735	-200.000	0.114	-0.660
-296.720	165.053	0.101	-0.142
-295.705	20.519	-0.335	0.270
-294.691	-119.089	0.980	0.171
-293.676	800.000	0.050	-0.163
-292.662	-169.945	0.217	0.008
-291.647	800.000	-0.229	0.882
-290.632	-69.211	0.150	0.058
-289.618	27.320	0.611	0.513
-288.603	44.158	-0.450	0.413
-287.589	-34.780	0.805	-0.440
-286.574	-99.496	0.784	-0.197
-285.559	130.068	-0.150	0.192
-284.545	-178.500	-0.238	0.006
-283.530	83.620	0.296	0.322
-282.516	-113.097	0.564	-0.111
-281.501	-200.000	-0.197	1.042
-280.486	-112.432	-0.197	0.039
-279.472	-143.080	0.348	0.034
-278.457	1.097	-0.189	-0.135
-277.443	-57.125	-0.456	0.201
-276.428	109.478	0.452	0.541
-275.413	800.000	0.083	0.328
-274.399	269.730	0.321	-0.563
-273.384	17.615	0.313	0.248
-272.370	103.646	0.301	-0.352
-271.355	505.959	-0.191	-0.441
-270.340	390.855	-0.229	0.474
-269.326	238.085	0.472	0.781
-268.311	263.840	0.242	-0.420
-267.297	800.000	0.188	0.570
-266.282	800.000	0.073	0.230
-265.267	1.046	-0.467	-0.334
-264.253	262.708	0.155	0.269
-263.238	-200.000	-0.079	-0.616
-262.224	4.214	0.413	0.302
-261.209	214.007	-0.258	-0.407
-260.195	-200.000	0.005	0.061
-259.180	-200.000	0.016	-0.366
-258.165	-65.398	-0.646	-0.259
-257.151	-58.689	0.230	0.099
-256.136	89.969	0.450	-0.501
-255.122	800.000	0.301	-1.089
-254.107	-189.406	0.110	0.001
-253.092	544.259	-0.124	-0.296
-252.078	-62.405	-0.677	0.281
-251.063	-12.983	0.504	0.327
-250.049	184.423	-0.416	0.615
-249.034	-200.000	0.171	0.968
-248.019	-90.905	-0.718	0.206
-247.005	-200.000	-0.181	-0.827
-245.990	-180.406	0.062	0.001
-244.976	-75.919	0.459	0.162
-243.961	800.000	0.138	0.405
-242.946	-200.000	-0.078	0.518
-241.932	-164.373	-0.848	-0.039
-240.917	-42.975	-0.341	-0.173
-239.903	74.609	0.136	-0.143
-238.888	140.844	0.028	0.037
-237.873	220.687	-0.455	0.728
-236.859	134.532	-0.360	0.466
-235.844	378.798	-0.257	-0.524
-234.830	-128.515	0.109	-0.015
-233.815	3.026	0.806	0.584
-232.800	-200.000	0.034	0.171
-231.786	800.000	0.293	-0.883
-230.771	233.759	0.258	-0.424
-229.757	427.523	0.254	0.546
-228.742	-200.000	-0.037	0.235
-227.727	113.654	0.440	0.532
-226.713	-41.563	-0.795	0.407
-225.698	56.362	-0.246	0.238
-224.684	-200.000	0.224	-1.203
-223.669	106.363	0.440	-0.520
-222.655	-200.000	-0.071	-0.612
-221.640	800.000	0.050	0.163
-220.625	-134.644	0.507	0.061
-219.611	-35.464	0.329	-0.178
-218.596	-200.000	-0.021	-0.114
-217.582	4.730	-0.426	0.312
-216.567	306.129	0.188	-0.349
-215.552	-160.733	0.837	0.044
-214.538	-200.000	0.065	-0.726
-213.523	-111.168	0.221	0.045
-212.509	-46.819	-0.854	0.416
-211.494	26.057	0.176	-0.146
-210.479	121.994	-0.432	-0.536
-209.465	-200.000	0.005	0.577
-208.450	-65.181	0.431	-0.173
-207.436	-200.000	0.003	0.445
-206.421	19.195	-0.501	0.400
-205.406	-200.000	0.178	0.860
-204.392	800.000	-0.121	-0.432
-203.377	65.308	-0.179	-0.181
-202.363	800.000	0.237	-0.818
-201.348	-66.774	0.319	-0.126
-200.333	-105.818	0.455	0.102
-199.319	-25.822	0.700	0.411
-198.304	347.398	0.153	-0.301
-197.290	272.900	-0.341	0.598
-196.275	-200.000	-0.039	0.588
-195.260	-200.000	-0.081	-0.632
-194.246	615.631	0.272	0.678
-193.231	171.334	0.326	0.465
-192.217	-34.223	-0.638	0.349
-191.202	-123.522	0.692	0.109
-190.187	-200.000	-0.994	-0.000
-189.173	250.202	0.580	-0.980
-188.158	-88.635	-0.568	0.168
-187.144	231.823	0.208	0.339
-186.129	-200.000	0.097	1.128
-185.114	-127.785	0.104	-0.015
-184.100	214.829	-0.252	-0.398
-183.085	800.000	-0.077	0.278
-182.071	70.063	-0.416	0.427
-181.056	81.679	-0.194	-0.209
-180.042	4.304	0.538	-0.392
-179.027	800.000	-0.098	-0.418
-178.012	58.723	0.119	-0.117
-176.998	-200.000	-0.018	0.161
-175.983	-53.667	0.511	0.232
-174.969	800.000	-0.118	-0.493
-173.954	638.850	0.289	-0.729
-172.939	538.196	0.223	-0.528
-171.925	-126.984	-0.595	0.087
-170.910	52.402	0.168	0.159
-169.896	-123.551	0.384	0.061
-168.881	-53.929	1.229	0.556
-167.866	-156.771	-0.702	0.043
-166.852	-46.930	0.156	0.076
-165.837	50.632	0.374	-0.352
-164.823	-200.000	-0.287	1.264
-163.808	55.566	-0.165	-0.159
-162.793	260.153	0.212	-0.365
-161.779	-200.000	-0.037	-0.690
-160.764	-200.000	-0.068	-0.771
-159.750	-118.479	0.661	0.116
-158.735	338.135	-0.190	-0.368
-157.720	186.200	0.562	0.830
-156.706	-78.695	-0.272	-0.092
-155.691	139.834	-0.289	0.378
-154.677	800.000	0.330	-0.939
-153.662	-5.308	0.365	-0.249
-152.647	-97.305	0.487	-0.126
-151.633	-200.000	-0.079	0.454
-150.618	-66.661	-0.320	-0.126
-149.604	3.226	-0.259	0.187
-148.589	-92.911	-0.355	-0.099
-147.574	800.000	-0.314	0.912
-146.560	-144.392	-0.520	-0.048
-145.545	164.354	0.406	-0.568
-144.531	-120.378	0.431	0.073
-143.516	-200.000	-0.105	0.706
-142.502	-61.373	-0.386	-0.161
-141.487	-105.043	-0.413	-0.094
-140.472	132.520	-0.211	-0.271
-139.458	341.132	-0.266	0.516
-138.443	800.000	-0.041	-0.167
-137.429	-77.734	-0.569	0.195
-136.414	-200.000	-0.083	-0.693
-135.399	403.625	-0.372	-0.776
-134.385	-65.484	-0.277	0.111
-133.370	41.990	0.538	0.484
-132.356	458.038	0.086	0.189
-131.341	-200.000	0.013	-0.177
-130.326	534.973	-0.204	-0.480
-129.312	89.986	0.322	0.357
-128.297	800.000	-0.076	-0.230
-127.283	-65.724	0.650	0.258
-126.268	-68.681	-0.446	0.171
-125.253	-62.724	0.159	-0.066
-124.239	-100.068	-0.574	0.142
-123.224	-200.000	0.091	0.658
-122.210	-200.000	0.015	0.585
-121.195	530.198	0.061	0.142
-120.180	-200.000	-0.013	0.382
-119.166	800.000	-0.070	-0.194
-118.151	-200.000	0.055	-0.283
-117.137	6.465	0.485	-0.357
-116.122	-200.000	0.006	0.455
-115.107	87.309	-0.492	0.539
-114.093	-10.606	0.457	-0.300
-113.078	41.683	-0.123	-0.110
-112.064	-200.000	-0.014	-0.176
-111.049	-21.470	0.295	-0.178
-110.034	800.000	-0.091	0.252
-109.020	277.525	-0.308	0.544
-108.005	-200.000	0.038	-0.464
-106.991	-13.852	-0.611	0.391
-105.976	20.834	0.293	0.235
-104.962	-105.786	1.213	-0.272
-103.947	-27.419	0.564	-0.325
-102.932	-59.999	0.787	-0.333
-101.918	468.573	0.254	-0.564
-100.903	-22.828	0.516	-0.309
-99.889	103.512	0.537	0.625
-98.874	-200.000	-0.136	-0.905
-97.859	124.757	-0.413	-0.515
-96.845	-64.675	-0.676	0.272
-95.830	-45.070	-0.207	-0.102
-94.816	102.367	-0.213	-0.246
-93.801	-144.023	0.237	0.022
-92.786	27.870	-0.206	0.172
-91.772	476.943	0.244	-0.548
-90.757	-200.000	0.027	0.132
-89.743	38.013	0.077	0.068
-88.728	-186.932	0.619	0.009
-87.713	-126.061	0.631	0.094
-86.699	55.231	-0.548	-0.525
-85.684	188.836	-0.731	-1.085
-84.670	56.641	0.372	-0.358
-83.655	-152.054	0.075	-0.005
-82.640	-100.303	-0.517	-0.127
-81.626	-200.000	0.061	0.365
-80.611	-200.000	0.113	0.675
-79.597	115.570	-0.297	0.360
-78.582	-200.000	0.111	0.576
-77.567	-40.004	-0.525	0.271
-76.553	-200.000	-0.030	0.599
-75.538	-84.475	-0.878	0.275
-74.524	278.408	0.416	0.734
-73.509	107.940	-0.130	-0.153
-72.494	-200.000	-0.174	1.147
-71.480	47.538	0.789	0.728
-70.465	95.440	0.154	-0.174
-69.451	800.000	-0.431	-1.453
-68.436	511.846	-0.366	-0.844
-67.422	107.138	-0.232	-0.273
-66.407	800.000	0.054	0.206
-65.392	-200.000	-0.049	-0.529
-64.378	-6.535	0.520	-0.351
-63.363	66.792	-0.496	-0.500
-62.349	-200.000	0.155	-0.674
-61.334	-23.789	-1.113	-0.660
-60.319	22.640	0.481	0.390
-59.305	-200.000	-0.176	-1.153
-58.290	-22.193	1.370	0.823
-57.276	-200.000	0.061	1.741
-56.261	-200.000	95.415	584.463
-55.246	663.444	1355.838	3460.932
-54.232	199.734	2528.623	3839.027
-53.217	108.938	2279.853	2697.316
-52.203	39.324	2046.380	1812.763
-51.188	34.366	1962.644	1694.571
-50.173	32.851	1944.180	1665.199
-49.159	48.374	1996.347	1849.056
-48.144	49.016	2013.519	1870.633
-47.130	34.896	1975.285	1709.954
-46.115	32.788	1964.843	1682.074
-45.100	32.619	1962.566	1678.547
-44.086	32.486	1960.308	1675.372
-43.071	32.454	1957.403	1672.535
-42.057	32.450	1955.096	1670.460
-41.042	32.573	1952.970	1669.672
-40.027	32.664	1949.986	1667.858
-39.013	32.546	1948.896	1665.815
-37.998	32.557	1947.499	1664.652
-36.984	32.590	1945.374	1663.063
-35.969	32.494	1943.680	1660.700
-34.954	32.713	1942.095	1661.206
-33.940	32.697	1940.038	1659.245
-32.925	32.639	1939.206	1657.953
-31.911	32.729	1937.080	1656.863
-30.896	32.742	1936.248	1656.201
-29.881	32.719	1934.772	1654.665
-28.867	32.731	1932.707	1652.942
-27.852	32.665	1931.558	1651.318
-26.838	32.623	1930.352	1649.855
-25.823	32.721	1927.037	1647.814
-24.809	32.736	1926.245	1647.198
-23.794	32.605	1925.024	1644.947
-22.779	32.792	1921.916	1643.852
-21.765	32.792	1920.887	1642.906
-20.750	32.762	1918.386	1640.444
-19.736	32.806	1917.603	1640.094
-18.721	32.712	1914.984	1636.973
-17.706	32.812	1913.958	1636.897
-16.692	32.766	1911.846	1634.622
-15.677	32.703	1910.500	1632.866
-14.663	32.885	1908.549	1632.709
-13.648	32.687	1908.540	1630.924
-12.633	32.612	1907.058	1628.944
-11.619	32.854	1904.837	1629.069
-10.604	32.674	1905.137	1627.708
-9.590	32.676	1902.825	1625.684
-8.575	32.459	1902.145	1623.167
-7.560	32.598	1900.256	1622.693
-6.546	32.710	1898.561	1622.142
-5.531	32.803	1897.118	1621.641
-4.517	32.648	1896.986	1620.135
-3.502	32.690	1894.731	1618.502
-2.487	32.574	1894.829	1617.531
-1.473	32.867	1892.583	1618.060
-0.458	32.747	1888.982	1613.886
0.556	33.521	1869.627	1584.196
1.571	29.281	1849.700	1532.020
2.586	25.243	1871.309	1515.746
3.600	24.096	1906.289	1534.065
4.615	23.510	1900.256	1524.042
5.629	18.024	1801.508	1399.897
6.644	8.381	1683.155	1233.656
7.659	3.519	1645.354	1169.070
8.673	3.217	1641.914	1164.238
9.688	2.958	1641.838	1162.124
10.702	3.193	1639.484	1162.123
11.717	2.833	1636.375	1157.105
12.731	3.335	1636.285	1160.723
13.746	10.034	1651.042	1221.879
14.761	19.877	1671.958	1312.264
15.775	24.444	1679.689	1352.921
16.790	25.004	1680.270	1357.508
17.804	25.096	1677.958	1356.217
18.819	24.709	1677.685	1352.953
19.834	24.785	1677.676	1353.397
20.848	24.916	1675.257	1352.318
21.863	24.851	1674.386	1351.005
22.877	24.856	1674.480	1351.000
23.892	25.117	1673.351	1351.936
24.907	25.087	1672.400	1350.822
25.921	25.039	1671.307	1349.454
26.936	24.965	1670.594	1348.203
27.950	25.116	1669.193	1348.087
28.965	25.072	1668.325	1346.943
29.980	24.952	1669.546	1346.905
30.994	25.076	1667.121	1345.757
32.009	25.161	1665.992	1345.368
33.023	25.310	1665.575	1346.028
34.038	25.110	1665.446	1344.307
35.053	25.203	1663.799	1343.556
36.067	24.951	1662.155	1340.220
37.082	25.156	1660.152	1340.023
38.096	25.316	1658.407	1339.685
39.111	25.082	1659.246	1338.496
40.126	25.103	1658.037	1337.561
41.140	25.100	1658.317	1337.650
42.155	24.940	1657.636	1335.785
43.169	24.873	1655.649	1333.570
44.184	24.751	1653.902	1331.137
45.199	24.752	1653.479	1330.684
46.213	24.650	1652.551	1329.059
47.228	24.694	1651.036	1328.055
48.242	24.890	1650.394	1328.872
49.257	24.904	1650.349	1328.822
50.271	25.119	1648.222	1328.585
51.286	24.976	1647.193	1326.578
52.301	24.977	1646.323	1325.772
53.315	24.996	1644.907	1324.652
54.330	25.034	1642.830	1323.142
55.344	24.935	1641.905	1321.547
56.359	24.879	1641.783	1320.920
57.374	24.993	1639.580	1319.877
58.388	25.044	1638.240	1319.051
59.403	24.967	1637.439	1317.728
60.417	24.817	1636.211	1315.515
61.432	24.757	1635.096	1314.064
62.447	24.910	1634.524	1314.611
63.461	24.724	1634.178	1312.854
64.476	24.761	1633.334	1312.325
65.490	25.107	1630.291	1312.301
66.505	24.713	1629.827	1308.925
67.520	24.770	1629.058	1308.607
68.534	24.865	1628.134	1308.447
69.549	24.834	1627.628	1307.698
70.563	24.919	1625.765	1306.707
71.578	24.843	1624.713	1305.191
72.593	24.752	1623.263	1303.249
73.607	24.757	1622.311	1302.406
74.622	24.744	1621.583	1301.609
75.636	24.641	1620.666	1300.009
76.651	24.758	1620.185	1300.357
77.666	24.479	1621.141	1298.982
78.680	24.693	1619.197	1298.860
79.695	24.744	1618.519	1298.577
80.709	24.696	1617.705	1297.456
81.724	24.674	1616.935	1296.570
82.739	24.978	1615.384	1297.414
83.753	25.021	1614.655	1297.022
84.768	25.037	1613.577	1296.157
85.782	25.089	1613.567	1296.406
86.797	25.139	1613.107	1296.286
87.812	25.550	1611.944	1298.204
88.826	25.165	1610.193	1293.903
89.841	25.267	1611.195	1295.332
90.855	25.062	1608.708	1291.743
91.870	25.144	1608.448	1292.008
92.884	25.303	1607.609	1292.362
93.899	25.376	1605.532	1291.104
94.914	25.380	1604.931	1290.539
95.928	25.308	1603.598	1288.836
96.943	25.318	1602.705	1288.075
97.957	25.335	1601.037	1286.738
98.972	24.963	1600.970	1283.906
99.987	25.060	1599.551	1283.347
101.001	25.139	1597.691	1282.310
102.016	25.303	1596.117	1282.103
103.030	25.032	1595.203	1279.324
104.045	25.042	1593.691	1278.068
105.060	25.125	1593.210	1278.162
106.074	25.054	1591.113	1275.858
107.089	24.827	1589.762	1273.049
108.103	24.902	1587.662	1271.787
109.118	24.861	1585.966	1270.023
110.133	24.746	1584.860	1268.212
111.147	24.629	1583.942	1266.532
112.162	24.668	1583.832	1266.613
113.176	24.830	1581.765	1265.993
114.191	24.996	1580.322	1265.898
115.206	25.074	1579.324	1265.541
116.220	24.931	1578.477	1263.741
117.235	24.627	1578.967	1261.872
118.249	25.136	1576.201	1263.134
119.264	24.752	1575.163	1259.489
120.279	24.740	1573.306	1257.812
121.293	24.603	1573.061	1256.537
122.308	24.890	1571.112	1256.888
123.322	24.696	1571.269	1255.540
124.337	24.641	1567.918	1252.361
125.352	24.577	1568.277	1252.089
126.366	24.646	1566.176	1250.785
127.381	24.596	1567.185	1251.132
128.395	24.741	1565.360	1250.580
129.410	24.956	1563.236	1250.267
130.424	24.650	1562.439	1247.384
131.439	24.551	1561.691	1245.990
132.454	24.532	1560.451	1244.759
133.468	24.557	1559.170	1243.799
134.483	24.711	1557.731	1243.610
135.497	24.892	1557.143	1244.291
136.512	24.926	1555.800	1243.346
137.527	25.161	1553.902	1243.350
138.541	24.838	1553.947	1241.033
139.556	24.842	1552.263	1239.606
140.570	24.983	1551.099	1239.540
141.585	24.866	1550.587	1238.217
142.600	25.102	1550.510	1239.678
143.614	25.082	1549.049	1238.256
144.629	25.322	1547.880	1238.873
145.643	25.075	1547.505	1236.759
146.658	25.134	1546.166	1235.984
147.673	25.139	1544.374	1234.479
148.687	25.001	1542.744	1232.119
149.702	25.129	1541.740	1232.084
150.716	25.250	1539.689	1231.168
151.731	24.922	1537.465	1227.031
152.746	24.576	1536.378	1223.684
153.760	24.450	1536.344	1222.686
154.775	24.785	1534.846	1223.683
155.789	25.075	1534.809	1225.527
156.804	25.195	1533.047	1224.831
157.819	25.098	1531.871	1223.119
158.833	25.030	1530.955	1221.815
159.848	25.015	1530.185	1220.996
160.862	25.159	1530.578	1222.176
161.877	25.160	1529.671	1221.351
162.892	25.184	1527.118	1219.370
163.906	25.007	1526.575	1217.627
164.921	24.686	1525.373	1214.381
165.935	24.750	1524.351	1213.895
166.950	25.120	1522.599	1214.898
167.964	24.896	1523.306	1213.834
168.979	24.992	1521.853	1213.218
169.994	24.962	1520.694	1211.983
171.008	24.736	1519.823	1209.657
172.023	25.023	1517.910	1209.969
173.037	24.983	1517.386	1209.171
174.052	24.997	1516.558	1208.498
175.067	25.141	1515.557	1208.563
176.081	25.368	1513.014	1207.958
177.096	25.154	1511.958	1205.566
178.110	24.701	1512.308	1202.691
179.125	24.851	1511.196	1202.709
180.140	24.898	1509.555	1201.612
181.154	24.740	1508.904	1199.933
182.169	24.967	1509.047	1201.458
183.183	24.937	1508.103	1200.404
184.198	24.996	1505.560	1198.664
185.213	24.832	1505.877	1197.714
186.227	25.258	1505.116	1199.851
187.242	25.420	1503.270	1199.354
188.256	25.263	1502.384	1197.493
189.271	25.391	1501.396	1197.455
190.286	25.255	1501.550	1196.563
191.300	25.119	1500.271	1194.536
192.315	25.022	1498.970	1192.745
193.329	24.565	1498.826	1189.485
194.344	25.160	1496.519	1191.502
195.359	25.167	1495.624	1190.728
196.373	24.919	1495.409	1188.810
197.388	24.649	1494.018	1185.806
198.402	24.390	1492.773	1182.995
199.417	24.794	1491.275	1184.378
200.432	24.919	1492.300	1185.916
201.446	25.335	1491.059	1187.580
202.461	25.133	1490.887	1185.998
203.475	25.034	1489.342	1184.009
204.490	25.261	1488.697	1184.894
205.504	24.990	1487.970	1182.423
206.519	24.750	1485.915	1179.100
207.534	25.039	1485.156	1180.296
208.548	24.814	1484.350	1178.070
209.563	24.514	1483.105	1175.009
210.577	24.713	1481.924	1175.276
211.592	24.735	1480.377	1174.092
212.607	24.671	1479.801	1173.107
213.621	24.787	1480.750	1174.515
214.636	25.329	1480.155	1177.501
215.650	25.184	1478.983	1175.512
216.665	24.933	1478.007	1172.986
217.680	24.900	1477.561	1172.313
218.694	25.307	1475.990	1173.628
219.709	25.391	1475.118	1173.380
220.723	25.153	1474.726	1171.408
221.738	24.997	1473.084	1168.978
222.753	24.924	1473.156	1168.458
223.767	25.023	1471.799	1167.924
224.782	24.863	1470.458	1165.714
225.796	25.005	1468.960	1165.346
226.811	25.455	1469.273	1168.420
227.826	25.368	1469.637	1168.036
228.840	25.038	1468.976	1165.264
229.855	25.102	1466.405	1163.535
230.869	24.992	1466.406	1162.723
231.884	24.726	1465.045	1159.817
232.899	24.884	1464.045	1159.945
233.913	24.845	1461.401	1157.494
234.928	24.549	1461.926	1155.893
235.942	24.944	1459.423	1156.359
236.957	24.812	1459.628	1155.572
237.972	24.742	1458.079	1153.792
238.986	24.443	1456.309	1150.363
240.001	24.835	1455.603	1152.229
241.015	24.753	1454.129	1150.427
242.030	24.759	1453.833	1150.133
243.045	24.719	1452.759	1148.924
244.059	24.967	1452.764	1150.417
245.074	25.168	1451.708	1150.770
246.088	25.097	1450.855	1149.538
247.103	25.067	1450.315	1148.817
248.117	25.396	1448.711	1149.553
249.132	25.402	1449.332	1149.981
250.147	25.407	1448.419	1149.184
251.161	25.292	1448.543	1148.448
252.176	25.700	1448.311	1150.773
253.190	25.905	1446.491	1150.527
254.205	25.978	1445.745	1150.298
255.220	25.839	1446.083	1149.579
256.234	25.920	1443.902	1148.263
257.249	25.951	1443.148	1147.757
258.263	26.071	1443.284	1148.526
259.278	25.842	1441.464	1145.522
260.293	25.646	1441.737	1144.394
261.307	25.393	1442.244	1143.084
262.322	25.757	1440.611	1144.000
263.336	25.878	1439.207	1143.551
264.351	25.649	1438.313	1141.288
265.366	25.775	1437.785	1141.570
266.380	25.917	1436.382	1141.254
267.395	25.683	1435.614	1139.062
268.409	25.788	1435.352	1139.414
269.424	25.752	1433.125	1137.318
270.439	25.472	1433.876	1136.044
271.453	25.499	1432.776	1135.245
272.468	25.702	1431.355	1135.295
273.482	25.738	1430.775	1134.966
274.497	25.609	1427.932	1131.796
275.512	25.365	1428.104	1130.297
276.526	25.503	1427.561	1130.635
277.541	25.336	1426.875	1128.945
278.555	25.326	1425.598	1127.766
279.570	25.205	1425.656	1126.956
280.585	25.718	1423.852	1128.646
281.599	25.788	1423.853	1128.988
282.614	25.863	1422.296	1128.124
283.628	25.892	1421.045	1127.211
284.643	25.725	1420.256	1125.440
285.657	25.675	1419.864	1124.720
286.672	25.699	1418.865	1123.980
287.687	25.572	1418.078	1122.465
288.701	25.569	1417.293	1121.724
289.716	25.471	1416.624	1120.484
290.730	25.667	1416.686	1121.655
291.745	25.709	1414.228	1119.869
292.760	25.587	1413.664	1118.563
293.774	25.712	1412.125	1118.027
294.789	25.544	1412.052	1116.824
295.803	25.763	1411.960	1118.012
296.818	25.820	1410.394	1117.029
297.833	25.364	1410.394	1114.099
298.847	25.497	1409.385	1114.030
299.862	25.702	1407.513	1113.719
300.876	25.637	1406.881	1112.720
301.891	25.762	1405.424	1112.242
302.906	25.745	1405.040	1111.736
303.920	25.799	1405.496	1112.331
304.935	25.918	1404.782	1112.403
305.949	25.908	1404.519	1112.032
306.964	25.818	1403.206	1110.341
307.979	25.922	1402.661	1110.450
308.993	25.682	1401.543	1107.989
310.008	25.654	1399.659	1106.229
311.022	25.804	1398.826	1106.396
312.037	25.861	1397.902	1105.914
313.052	25.924	1397.338	1105.760
314.066	25.877	1396.182	1104.458
315.081	26.108	1395.102	1104.921
316.095	25.698	1393.929	1101.388
317.110	25.235	1392.945	1097.678
318.125	25.298	1392.248	1097.417
319.139	25.318	1391.369	1096.749
320.154	25.268	1390.602	1095.745
321.168	25.423	1388.762	1095.144
322.183	25.514	1388.185	1095.142
323.197	25.496	1388.045	1094.825
324.212	25.465	1386.615	1093.411
325.227	25.524	1385.989	1093.180
326.241	25.901	1384.591	1094.271
327.256	25.701	1384.460	1092.858
328.270	25.697	1383.461	1091.947
329.285	25.435	1383.015	1089.913
330.300	25.353	1381.760	1088.329
331.314	25.614	1380.349	1088.699
332.329	25.704	1380.394	1089.187
333.343	25.532	1378.666	1086.682
334.358	25.550	1378.169	1086.305
335.373	25.650	1377.350	1086.168
336.387	25.914	1377.742	1087.972
337.402	25.874	1376.543	1086.688
338.416	25.840	1377.628	1087.247
339.431	25.920	1376.438	1086.691
340.446	26.052	1375.385	1086.563
341.460	26.196	1374.327	1086.491
342.475	26.292	1373.104	1086.010
343.489	26.468	1372.614	1086.584
344.504	26.311	1371.487	1084.650
345.519	26.351	1370.723	1084.190
346.533	26.346	1369.663	1083.224
347.548	26.284	1369.847	1082.904
348.562	26.305	1368.469	1081.847
349.577	26.538	1367.985	1082.763
350.592	26.291	1367.319	1080.659
351.606	25.938	1365.545	1077.056
352.621	25.942	1364.186	1075.910
353.635	25.909	1363.396	1074.994
354.650	25.759	1362.631	1073.406
355.665	25.831	1361.474	1072.828
356.679	25.778	1360.262	1071.463
357.694	25.904	1359.420	1071.452
358.708	25.816	1358.878	1070.406
359.723	26.097	1357.822	1071.152
360.738	26.109	1356.536	1070.113
361.752	26.269	1354.368	1069.254
362.767	25.896	1354.481	1067.040
363.781	26.055	1352.769	1066.535
364.796	26.093	1352.255	1066.261
365.810	25.842	1353.217	1065.442
366.825	26.172	1351.813	1066.193
367.840	26.432	1351.272	1067.207
368.854	26.442	1351.164	1067.082
369.869	26.500	1350.053	1066.455
370.883	26.483	1350.335	1066.482
371.898	26.535	1349.114	1065.730
372.913	26.047	1348.149	1061.999
373.927	26.330	1346.021	1061.894
374.942	26.366	1345.950	1061.956
375.956	26.425	1345.620	1061.944
376.971	26.493	1345.116	1061.853
377.986	26.354	1343.618	1059.763
379.000	26.080	1344.097	1058.437
380.015	26.227	1342.707	1058.113
381.029	26.445	1341.813	1058.591
382.044	26.308	1342.323	1058.095
383.059	26.732	1340.044	1058.685
384.073	26.722	1339.741	1058.291
385.088	26.612	1339.368	1057.260
386.102	26.274	1339.288	1055.135
387.117	26.444	1337.437	1054.573
388.132	26.414	1338.067	1054.798
389.146	26.090	1335.859	1051.078
390.161	25.979	1335.586	1050.129
391.175	26.020	1335.040	1049.840
392.190	26.006	1333.474	1048.438
393.205	25.955	1332.899	1047.597
394.219	26.440	1332.256	1049.814
395.234	26.481	1331.869	1049.653
396.248	26.589	1330.363	1048.997
397.263	26.062	1328.312	1044.237
398.278	25.885	1327.842	1042.755
399.292	25.852	1327.058	1041.853
400.307	26.138	1324.984	1041.788
401.321	26.114	1325.044	1041.599
402.336	26.099	1324.505	1040.999
403.350	26.191	1321.747	1039.268
404.365	25.579	1322.117	1035.944
405.380	25.857	1320.062	1035.841
406.394	26.195	1319.247	1037.051
407.409	26.038	1319.033	1035.888
408.423	26.035	1318.598	1035.439
409.438	26.362	1318.257	1036.952
410.453	26.515	1317.320	1037.005
411.467	26.715	1316.921	1037.743
412.482	26.527	1317.040	1036.667
413.496	26.640	1316.105	1036.489
414.511	26.704	1315.197	1036.045
415.526	26.525	1314.517	1034.398
416.540	26.781	1312.869	1034.469
417.555	26.778	1312.989	1034.456
418.569	27.159	1311.930	1035.698
419.584	26.831	1312.011	1033.801
420.599	26.416	1312.270	1031.551
421.613	142.448	1436.047	1792.443
422.628	138.209	1454.014	1792.521
