DTS Sentinel unit serial number:	SN413079Multiplexer serial number:	ORYXHardware model number:	OX4-SRSoftware version number:	ORYX F/W v4.00 Oryx Data Collector v3.7.2.0data status	okinstallation	princeton_trtdifferential loss correction	single-endedforward channel	channel 4reverse channel	N/Adate	2019/09/19time	12:49:35forward acquisition time	60.00reverse acquisition time	0.00gamma	496.2192k internal	0.2317k external	0.2317temperature offset calibration	1.0020default loss term (dB/km)	0.3790temperature slope calibration	1.0000multiplexer offset coefficient	1.0000multiplexer slope coefficient	1.0000fibre end	0.00T internal ref (°C)	28.06T ext. ref 1 (°C)	0.90T ext. ref 2 (°C)	26.26length (m)	temperature (°C)	Stokes	anti-Stokes-747.200	-161.700	0.255	0.013
-746.185	-59.949	0.371	0.161
-745.171	-90.283	0.158	-0.046
-744.156	-200.000	0.007	0.247
-743.142	-9.887	0.091	-0.061
-742.127	514.178	-0.066	-0.157
-741.112	-200.000	-0.013	-0.124
-740.098	-200.000	0.032	0.186
-739.083	287.100	0.086	-0.157
-738.069	-22.730	0.121	0.074
-737.054	-43.416	0.385	0.197
-736.039	-130.499	-0.553	-0.076
-735.025	-157.123	-0.102	-0.006
-734.010	140.707	0.076	-0.101
-732.996	85.146	-0.201	-0.223
-731.981	568.672	-0.114	-0.279
-730.966	-200.000	0.003	0.020
-729.952	139.013	-0.132	0.176
-728.937	-11.287	-0.190	0.127
-727.923	-200.000	-0.027	-0.198
-726.908	-200.000	-0.016	-0.341
-725.894	310.917	-0.049	0.093
-724.879	228.032	0.031	-0.050
-723.864	100.899	0.042	0.049
-722.850	-79.388	-0.172	0.059
-721.835	606.321	-0.037	-0.094
-720.821	-89.809	-0.115	0.034
-719.806	-200.000	-0.068	-0.599
-718.791	152.341	-0.255	-0.351
-717.777	-26.977	-0.375	-0.221
-716.762	-16.584	-0.176	0.113
-715.748	-132.950	-0.196	-0.025
-714.733	-66.311	0.249	0.100
-713.718	-149.629	-0.335	-0.027
-712.704	-126.972	-0.378	-0.056
-711.689	445.169	-0.098	-0.218
-710.675	211.502	-0.138	-0.219
-709.660	-153.831	0.433	-0.030
-708.645	274.932	-0.074	0.133
-707.631	-200.000	-0.003	0.207
-706.616	800.000	-0.081	0.297
-705.602	-57.265	-0.249	-0.111
-704.587	-68.109	0.215	-0.085
-703.572	-90.988	-0.316	-0.092
-702.558	-102.656	0.176	-0.042
-701.543	-115.236	0.069	-0.013
-700.529	14.149	0.096	0.076
-699.514	87.160	-0.192	-0.214
-698.499	800.000	0.055	-0.229
-697.485	225.851	-0.174	-0.284
-696.470	-26.748	0.208	0.123
-695.456	-200.000	-0.029	-0.312
-694.441	800.000	0.074	-0.238
-693.426	-200.000	-0.009	-0.115
-692.412	-76.857	0.331	0.117
-691.397	18.073	-0.224	0.181
-690.383	51.368	-0.235	0.225
-689.368	-30.516	-0.264	-0.151
-688.354	800.000	-0.112	-0.331
-687.339	-82.828	0.055	-0.018
-686.324	-71.915	0.040	-0.015
-685.310	62.856	0.105	0.106
-684.295	800.000	0.085	0.256
-683.281	1.944	-0.337	0.245
-682.266	800.000	-0.075	0.232
-681.251	-200.000	-0.038	-0.208
-680.237	-200.000	0.023	0.160
-679.222	681.331	-0.077	0.202
-678.208	-200.000	0.005	0.186
-677.193	68.655	-0.014	-0.015
-676.178	-200.000	-0.001	0.352
-675.164	51.856	-0.038	0.036
-674.149	14.578	0.186	-0.146
-673.135	135.665	0.285	-0.375
-672.120	-88.781	0.437	0.131
-671.105	-16.177	-0.296	-0.190
-670.091	-200.000	-0.004	-0.031
-669.076	455.193	-0.077	-0.173
-668.062	-200.000	-0.022	0.204
-667.047	-17.192	-0.240	0.153
-666.032	-12.651	0.116	0.076
-665.018	-200.000	-0.016	0.325
-664.003	142.048	-0.089	0.119
-662.989	-200.000	-0.018	-0.081
-661.974	-151.407	0.063	0.005
-660.959	-108.011	-0.503	0.110
-659.945	800.000	-0.046	-0.136
-658.930	-194.020	-0.109	-0.001
-657.916	184.085	0.109	-0.162
-656.901	-166.556	-0.084	0.004
-655.886	480.309	0.100	0.229
-654.872	-200.000	-0.014	-0.147
-653.857	390.152	0.172	0.360
-652.843	800.000	-0.061	0.207
-651.828	800.000	-0.054	0.222
-650.814	-120.833	0.305	0.052
-649.799	77.204	-0.133	0.143
-648.784	524.487	-0.133	-0.315
-647.770	-200.000	-0.038	-0.320
-646.755	274.745	0.177	-0.317
-645.741	416.046	0.042	-0.089
-644.726	-143.210	-0.235	0.023
-643.711	-86.651	-0.294	-0.091
-642.697	149.025	0.125	0.170
-641.682	-65.981	0.128	0.051
-640.668	78.104	0.213	0.229
-639.653	249.280	-0.087	0.148
-638.638	-200.000	-0.054	0.277
-637.624	23.573	0.091	0.075
-636.609	800.000	0.077	0.338
-635.595	759.049	-0.082	0.224
-634.580	-200.000	0.016	0.314
-633.565	-200.000	-0.051	0.226
-632.551	-200.000	-0.008	-0.080
-631.536	-200.000	-0.058	0.259
-630.522	-66.492	-0.105	0.042
-629.507	208.988	-0.046	0.073
-628.492	16.555	0.261	-0.208
-627.478	-54.432	0.131	-0.060
-626.463	396.464	0.120	0.252
-625.449	-80.663	0.147	-0.049
-624.434	-200.000	0.011	0.468
-623.419	800.000	0.100	0.364
-622.405	23.814	-0.047	0.039
-621.390	-1.773	-0.079	0.056
-620.376	-200.000	-0.063	-0.449
-619.361	-154.591	-0.210	-0.014
-618.346	-99.925	-0.171	0.043
-617.332	4.345	-0.241	-0.178
-616.317	-6.206	-0.147	-0.101
-615.303	-54.364	-0.099	0.045
-614.288	162.444	-0.109	0.154
-613.273	190.732	0.158	-0.240
-612.259	-117.759	-0.417	0.075
-611.244	-34.257	0.187	0.103
-610.230	-54.863	0.134	0.061
-609.215	800.000	0.066	-0.222
-608.201	242.396	0.051	-0.086
-607.186	-176.659	0.462	-0.012
-606.171	158.048	-0.099	-0.138
-605.157	-167.141	-0.251	-0.010
-604.142	-30.441	0.264	0.151
-603.128	-200.000	-0.068	-0.490
-602.113	-129.478	-0.352	-0.049
-601.098	-200.000	0.011	-0.080
-600.084	-50.017	0.107	-0.051
-599.069	-133.752	-0.425	-0.053
-598.055	6.678	0.354	-0.265
-597.040	-10.031	-0.180	-0.120
-596.025	-32.918	0.207	0.116
-595.011	83.328	0.134	0.147
-593.996	-24.751	-0.254	0.152
-592.982	-51.242	0.123	0.058
-591.967	-63.828	0.204	-0.084
-590.952	-200.000	0.026	-0.174
-589.938	-47.633	-0.143	-0.070
-588.923	800.000	-0.082	-0.249
-587.909	-28.731	0.084	0.049
-586.894	-200.000	-0.088	0.592
-585.879	800.000	-0.065	-0.199
-584.865	81.123	0.165	-0.180
-583.850	67.976	0.101	-0.104
-582.836	313.795	0.136	0.257
-581.821	-92.575	0.314	0.089
-580.806	-90.245	-0.040	-0.012
-579.792	27.627	-0.217	-0.184
-578.777	17.756	-0.200	0.160
-577.763	-1.575	0.196	-0.139
-576.748	-29.512	0.110	0.063
-575.733	-44.742	-0.216	-0.108
-574.719	404.620	-0.036	0.076
-573.704	-109.641	-0.167	-0.035
-572.690	-117.858	-0.096	0.017
-571.675	38.323	0.223	0.199
-570.661	-94.869	-0.246	-0.067
-569.646	800.000	0.056	0.159
-568.631	-115.337	0.576	-0.109
-567.617	-52.172	-0.342	0.160
-566.602	-51.987	-0.189	-0.088
-565.588	-3.355	-0.221	-0.155
-564.573	-130.706	0.203	-0.027
-563.558	-74.005	-0.372	-0.135
-562.544	-75.484	-0.069	0.025
-561.529	-120.958	0.135	0.023
-560.515	234.052	-0.155	-0.257
-559.500	800.000	-0.033	0.114
-558.485	800.000	0.044	0.123
-557.471	153.595	-0.034	-0.046
-556.456	-200.000	-0.002	0.252
-555.442	152.035	0.165	0.226
-554.427	-200.000	-0.035	0.475
-553.412	222.426	-0.016	-0.027
-552.398	800.000	0.026	0.108
-551.383	-200.000	-0.012	-0.088
-550.369	58.312	0.148	-0.146
-549.354	212.690	-0.134	-0.212
-548.339	800.000	0.038	0.165
-547.325	177.682	-0.077	-0.112
-546.310	240.159	0.019	-0.031
-545.296	-68.806	0.064	-0.025
-544.281	-200.000	-0.045	0.303
-543.266	800.000	0.042	-0.153
-542.252	-200.000	-0.041	-0.591
-541.237	-3.677	0.090	0.063
-540.223	90.434	-0.130	0.146
-539.208	-66.803	0.207	-0.082
-538.193	-43.169	0.312	0.159
-537.179	-152.967	-0.222	0.016
-536.164	-147.663	0.350	-0.030
-535.150	-111.898	-0.101	0.020
-534.135	-200.000	0.032	-0.143
-533.121	-200.000	0.032	-0.224
-532.106	-93.788	-0.240	0.066
-531.091	-37.182	-0.555	0.298
-530.077	-112.018	-0.160	-0.032
-529.062	-51.591	0.054	-0.025
-528.048	283.342	-0.094	0.170
-527.033	-45.605	-0.222	-0.110
-526.018	560.816	0.123	-0.298
-525.004	-105.772	0.174	0.040
-523.989	651.650	-0.086	-0.222
-522.975	89.930	0.212	-0.237
-521.960	-200.000	0.090	-0.462
-520.945	-200.000	0.043	0.328
-519.931	746.502	-0.090	0.243
-518.916	-200.000	0.006	-0.106
-517.902	-200.000	-0.006	-0.111
-516.887	134.532	-0.134	-0.174
-515.872	-155.536	-0.064	0.004
-514.858	461.322	-0.058	-0.130
-513.843	431.093	0.068	-0.148
-512.829	115.373	-0.109	0.134
-511.814	-56.224	0.048	-0.021
-510.799	800.000	-0.055	0.182
-509.785	-118.893	0.220	0.039
-508.770	-96.455	-0.418	-0.111
-507.756	52.423	-0.138	-0.132
-506.741	-200.000	-0.063	-0.291
-505.726	245.513	-0.076	0.128
-504.712	-93.787	-0.198	0.055
-503.697	-156.218	-0.205	-0.013
-502.683	231.089	0.110	-0.181
-501.668	800.000	-0.084	-0.334
-500.653	-48.368	-0.139	-0.067
-499.639	-15.635	0.122	0.078
-498.624	87.120	-0.129	0.143
-497.610	80.908	-0.097	0.105
-496.595	800.000	-0.079	0.263
-495.581	-9.278	-0.092	0.062
-494.566	-161.741	-0.473	0.024
-493.551	393.297	-0.031	-0.065
-492.537	1.313	0.115	-0.083
-491.522	-48.986	-0.088	0.042
-490.508	12.783	0.051	0.039
-489.493	173.675	-0.111	-0.160
-488.478	-170.942	0.190	0.007
-487.464	248.269	-0.177	-0.300
-486.449	48.887	0.270	-0.254
-485.435	-200.000	-0.011	-0.056
-484.420	-200.000	-0.080	-0.438
-483.405	-129.912	-0.188	-0.026
-482.391	-200.000	0.006	-0.257
-481.376	-200.000	-0.045	-0.226
-480.362	-23.785	-0.127	0.076
-479.347	136.748	0.116	-0.151
-478.332	21.251	-0.111	0.090
-477.318	157.515	-0.120	-0.167
-476.303	-141.653	0.234	0.024
-475.289	129.053	0.197	-0.252
-474.274	698.525	0.107	0.282
-473.259	-200.000	-0.024	-0.269
-472.245	-69.176	-0.210	-0.081
-471.230	-200.000	0.035	-0.192
-470.216	24.400	-0.315	-0.261
-469.201	150.299	-0.131	-0.178
-468.186	-200.000	-0.018	-0.292
-467.172	800.000	0.046	-0.154
-466.157	328.936	0.173	0.332
-465.143	3.358	-0.045	-0.033
-464.128	800.000	-0.055	0.195
-463.113	-115.119	-0.185	-0.035
-462.099	-122.904	0.198	-0.032
-461.084	-117.662	-0.248	-0.045
-460.070	169.610	0.079	-0.113
-459.055	-62.334	-0.296	0.124
-458.040	19.858	-0.049	-0.039
-457.026	-200.000	0.013	0.152
-456.011	800.000	-0.037	0.136
-454.997	-96.585	0.303	0.080
-453.982	-200.000	0.008	-0.180
-452.968	-94.946	-0.103	-0.028
-451.953	48.437	-0.064	0.060
-450.938	-38.348	-0.324	0.171
-449.924	357.335	-0.090	-0.180
-448.909	62.236	0.421	-0.420
-447.895	-20.975	-0.179	0.110
-446.880	-25.909	0.194	0.114
-445.865	-87.491	0.145	0.044
-444.851	-115.440	-0.095	-0.018
-443.836	-200.000	0.078	-0.394
-442.822	66.526	-0.096	-0.098
-441.807	579.588	0.091	0.223
-440.792	329.026	-0.064	0.123
-439.778	-152.269	0.141	0.010
-438.763	190.157	0.206	0.310
-437.749	-12.955	-0.139	0.090
-436.734	83.659	-0.237	-0.258
-435.719	27.669	-0.218	-0.183
-434.705	378.684	0.198	0.405
-433.690	-90.945	-0.226	0.065
-432.676	800.000	-0.026	0.074
-431.661	-39.241	0.174	0.092
-430.646	217.383	-0.065	0.104
-429.632	-200.000	0.017	0.097
-428.617	-45.673	-0.297	0.147
-427.603	-146.574	0.207	-0.018
-426.588	-10.418	0.130	-0.086
-425.573	-99.714	0.203	-0.051
-424.559	-6.801	-0.213	0.145
-423.544	306.050	0.171	-0.318
-422.530	-38.988	0.309	0.163
-421.515	-78.613	-0.098	-0.034
-420.500	800.000	0.025	-0.071
-419.486	15.354	-0.241	-0.189
-418.471	782.383	-0.105	0.286
-417.457	-39.189	-0.102	-0.053
-416.442	-118.512	0.220	0.039
-415.428	72.072	0.322	0.335
-414.413	-200.000	-0.000	-0.267
-413.398	94.055	-0.123	0.140
-412.384	-200.000	-0.057	-0.305
-411.369	62.844	0.111	-0.111
-410.355	-200.000	-0.020	0.149
-409.340	671.528	0.071	-0.183
-408.325	-200.000	-0.001	-0.065
-407.311	800.000	-0.056	0.195
-406.296	-200.000	0.022	-0.351
-405.282	123.794	0.067	-0.084
-404.267	-51.970	0.057	-0.027
-403.252	363.932	0.056	0.113
-402.238	-162.671	-0.394	-0.019
-401.223	-107.971	-0.114	0.025
-400.209	-200.000	0.045	0.229
-399.194	-47.603	-0.310	0.150
-398.179	10.141	0.148	0.112
-397.165	174.958	0.208	0.300
-396.150	-200.000	0.003	0.154
-395.136	587.301	-0.062	0.153
-394.121	6.551	0.009	0.007
-393.106	800.000	-0.049	0.160
-392.092	800.000	-0.053	0.226
-391.077	42.582	0.106	-0.096
-390.063	325.739	0.179	0.343
-389.048	800.000	0.056	-0.186
-388.033	-169.212	0.099	0.004
-387.019	-66.748	-0.498	0.197
-386.004	-200.000	0.031	-0.149
-384.990	12.684	0.178	-0.137
-383.975	-147.015	0.143	0.012
-382.960	-115.341	0.313	-0.059
-381.946	-21.342	-0.153	-0.093
-380.931	387.511	-0.134	0.276
-379.917	-124.482	0.125	-0.019
-378.902	280.164	0.119	-0.212
-377.888	375.889	0.038	-0.078
-376.873	27.955	-0.201	-0.169
-375.858	269.382	0.097	-0.169
-374.844	-80.614	-0.100	-0.033
-373.829	-17.453	-0.344	-0.216
-372.815	-144.154	-0.130	0.012
-371.800	143.518	-0.096	0.128
-370.785	-200.000	-0.013	-0.110
-369.771	389.235	0.155	0.320
-368.756	702.693	0.026	0.067
-367.742	800.000	0.074	-0.309
-366.727	172.577	0.156	0.224
-365.712	103.579	0.160	0.188
-364.698	-200.000	0.033	-0.248
-363.683	135.545	-0.139	-0.180
-362.669	47.437	-0.231	-0.215
-361.654	57.819	-0.146	-0.142
-360.639	90.749	0.288	0.322
-359.625	34.607	0.051	0.044
-358.610	-164.754	-0.227	0.010
-357.596	-60.681	0.197	0.083
-356.581	72.337	0.296	-0.307
-355.566	606.412	-0.099	-0.246
-354.552	-77.551	0.238	-0.082
-353.537	99.972	-0.260	-0.300
-352.523	71.642	-0.138	-0.143
-351.508	-40.002	-0.198	-0.103
-350.493	-183.499	-0.317	0.005
-349.479	537.617	-0.042	-0.098
-348.464	8.216	0.063	-0.047
-347.450	44.156	-0.168	0.154
-346.435	-7.686	-0.113	0.076
-345.420	-117.958	-0.116	0.021
-344.406	-143.299	-0.109	-0.010
-343.391	-58.853	-0.057	-0.024
-342.377	50.275	0.224	0.211
-341.362	-200.000	-0.029	0.149
-340.348	327.168	-0.134	0.256
-339.333	-157.338	0.269	-0.016
-338.318	-139.689	-0.211	0.022
-337.304	263.273	-0.119	-0.205
-336.289	83.758	0.141	-0.154
-335.275	-51.583	0.136	0.063
-334.260	-200.000	0.005	-0.034
-333.245	317.463	0.119	-0.224
-332.231	444.644	0.104	-0.227
-331.216	3.173	0.143	0.103
-330.202	-191.352	0.144	0.001
-329.187	-1.450	-0.253	-0.178
-328.172	158.863	0.081	-0.112
-327.158	-144.662	-0.122	-0.011
-326.143	20.966	0.270	-0.218
-325.129	-90.657	-0.286	0.082
-324.114	-14.973	-0.344	0.220
-323.099	-128.994	0.265	0.037
-322.085	-200.000	-0.002	-0.132
-321.070	105.413	-0.093	-0.109
-320.056	312.575	0.053	0.100
-319.041	182.732	0.160	0.234
-318.026	-144.452	0.345	0.032
-317.012	557.877	0.114	-0.273
-315.997	-51.996	0.226	0.104
-314.983	800.000	-0.076	0.230
-313.968	-85.354	-0.226	0.070
-312.953	-87.098	-0.234	0.071
-311.939	251.128	0.131	-0.222
-310.924	-156.662	-0.197	0.012
-309.910	99.841	0.194	-0.223
-308.895	142.760	0.050	0.066
-307.880	-116.520	-0.060	0.011
-306.866	-153.278	0.176	-0.012
-305.851	-11.082	0.117	-0.077
-304.837	-197.356	0.255	0.002
-303.822	46.512	0.363	0.335
-302.807	-81.682	0.013	0.004
-301.793	-200.000	0.016	0.182
-300.778	527.556	0.048	0.113
-299.764	58.395	0.021	0.021
-298.749	800.000	0.108	0.340
-297.735	-127.388	0.190	-0.027
-296.720	800.000	0.041	0.127
-295.705	-90.447	-0.186	-0.054
-294.691	800.000	0.047	0.143
-293.676	51.202	-0.243	0.229
-292.662	504.619	0.117	0.271
-291.647	-200.000	-0.008	0.219
-290.632	228.518	0.069	-0.112
-289.618	61.127	0.265	-0.261
-288.603	219.011	0.170	-0.271
-287.589	152.446	-0.053	-0.072
-286.574	-200.000	-0.015	0.148
-285.559	-200.000	0.022	0.263
-284.545	-64.467	0.229	0.093
-283.530	800.000	-0.051	0.148
-282.516	-200.000	-0.000	0.105
-281.501	613.826	0.043	-0.108
-280.486	153.280	-0.091	0.124
-279.472	182.975	0.163	0.240
-278.457	108.862	0.202	0.240
-277.443	706.653	-0.081	0.213
-276.428	-91.809	0.133	0.038
-275.413	-77.209	-0.313	-0.108
-274.399	-188.514	0.153	0.002
-273.384	-162.786	-0.297	-0.014
-272.370	10.424	-0.248	0.188
-271.355	103.884	0.068	-0.079
-270.340	800.000	0.038	-0.166
-269.326	800.000	-0.085	0.267
-268.311	800.000	0.029	-0.105
-267.297	800.000	-0.057	-0.190
-266.282	-200.000	-0.032	0.262
-265.267	137.791	0.257	0.335
-264.253	241.415	0.080	-0.132
-263.238	800.000	-0.032	-0.109
-262.224	581.513	0.066	-0.162
-261.209	113.645	0.334	0.403
-260.195	-99.472	0.086	-0.021
-259.180	115.875	-0.052	-0.063
-258.165	-194.230	-0.399	0.003
-257.151	111.031	0.072	0.086
-256.136	-91.602	0.112	0.032
-255.122	-152.256	0.118	-0.008
-254.107	-200.000	-0.029	-0.208
-253.092	-40.586	0.166	-0.085
-252.078	-103.875	-0.070	0.016
-251.063	800.000	0.009	0.032
-250.049	161.061	-0.089	-0.123
-249.034	800.000	-0.070	0.244
-248.019	-200.000	-0.011	-0.202
-247.005	375.976	0.112	0.227
-245.990	-41.711	0.284	0.145
-244.976	-16.643	-0.144	0.091
-243.961	611.371	-0.099	-0.246
-242.946	1.396	-0.214	-0.153
-241.932	110.003	0.150	0.179
-240.917	800.000	0.113	-0.366
-239.903	-150.449	-0.297	0.023
-238.888	-79.553	-0.047	0.016
-237.873	-14.913	0.129	0.082
-236.859	-200.000	-0.043	-0.269
-235.844	-149.347	-0.169	0.013
-234.830	258.335	-0.112	0.191
-233.815	153.349	-0.140	0.190
-232.800	800.000	0.079	0.240
-231.786	242.901	-0.165	0.275
-230.771	-200.000	0.052	0.379
-229.757	-136.904	0.179	-0.020
-228.742	800.000	0.029	-0.116
-227.727	-114.815	-0.098	0.019
-226.713	363.502	-0.065	0.130
-225.698	-30.863	0.339	0.190
-224.684	-200.000	0.013	-0.141
-223.669	200.231	0.170	0.260
-222.655	-90.989	-0.244	-0.069
-221.640	26.176	0.143	0.118
-220.625	800.000	0.136	0.393
-219.611	-1.409	-0.085	0.060
-218.596	-200.000	0.019	-0.163
-217.582	1.124	-0.049	0.035
-216.567	800.000	0.081	-0.270
-215.552	10.065	-0.063	0.047
-214.538	60.537	-0.470	-0.461
-213.523	-200.000	0.021	-0.263
-212.509	800.000	0.094	-0.260
-211.494	-57.025	0.221	0.097
-210.479	-129.437	-0.175	0.024
-209.465	-77.115	0.142	0.049
-208.450	75.683	0.125	-0.131
-207.436	-61.745	-0.090	0.037
-206.421	60.961	0.110	-0.108
-205.406	12.726	-0.252	-0.193
-204.392	-168.631	0.107	-0.004
-203.377	-99.335	0.085	0.021
-202.363	346.152	-0.133	0.259
-201.348	65.480	0.246	-0.247
-200.333	40.614	0.149	0.133
-199.319	249.890	-0.092	-0.154
-198.304	18.078	0.261	-0.206
-197.290	306.133	0.090	-0.166
-196.275	-105.662	-0.190	0.043
-195.260	77.127	0.062	-0.066
-194.246	-200.000	-0.082	-0.474
-193.231	170.980	0.094	-0.133
-192.217	-36.051	0.239	-0.128
-191.202	-117.725	0.253	0.045
-190.187	-200.000	0.009	-0.199
-189.173	16.779	-0.363	-0.285
-188.158	38.605	-0.112	0.099
-187.144	51.195	0.220	0.207
-186.129	-200.000	0.040	0.235
-185.114	-21.904	0.044	-0.026
-184.100	-200.000	0.001	0.096
-183.085	800.000	0.027	-0.079
-182.071	142.380	0.145	0.190
-181.056	-93.631	0.229	0.063
-180.042	-200.000	0.021	0.163
-179.027	-152.373	-0.120	0.009
-178.012	-72.506	0.286	0.105
-176.998	80.783	0.059	0.063
-175.983	-27.499	-0.190	0.110
-174.969	-200.000	0.022	0.216
-173.954	556.102	0.064	-0.153
-172.939	87.437	0.045	0.049
-171.925	186.852	-0.046	0.068
-170.910	-20.986	0.190	0.115
-169.896	-181.495	0.209	-0.004
-168.881	-200.000	0.043	-0.189
-167.866	-200.000	-0.002	0.182
-166.852	-200.000	0.034	0.319
-165.837	762.770	-0.087	0.234
-164.823	-77.994	-0.132	-0.045
-163.808	-139.416	0.360	0.038
-162.793	78.599	0.232	0.246
-161.779	-200.000	-0.081	-0.352
-160.764	156.138	-0.196	-0.267
-159.750	-113.220	0.168	-0.033
-158.735	-28.471	-0.305	0.174
-157.720	-200.000	-0.001	-0.114
-156.706	58.876	0.129	-0.125
-155.691	800.000	0.049	0.144
-154.677	310.752	0.193	0.358
-153.662	800.000	0.076	0.233
-152.647	-94.960	-0.181	-0.048
-151.633	102.498	0.147	-0.170
-150.618	136.252	0.212	-0.273
-149.604	800.000	0.136	0.475
-148.589	10.273	-0.029	-0.022
-147.574	-92.615	-0.235	0.065
-146.560	-200.000	0.036	0.200
-145.545	-148.565	-0.427	-0.034
-144.531	203.836	-0.089	0.137
-143.516	417.315	-0.206	0.435
-142.502	-118.414	-0.409	-0.072
-141.487	-5.650	-0.115	-0.078
-140.472	8.966	0.087	0.065
-139.458	-73.462	0.322	0.116
-138.443	-200.000	-0.034	0.350
-137.429	-200.000	0.002	0.030
-136.414	-200.000	0.044	0.256
-135.399	58.282	0.282	0.273
-134.385	39.577	0.065	-0.057
-133.370	262.128	0.095	0.163
-132.356	14.598	-0.453	0.350
-131.341	59.533	-0.227	0.221
-130.326	-3.815	0.369	-0.254
-129.312	-71.580	0.234	-0.086
-128.297	-98.984	0.260	0.065
-127.283	10.790	0.138	-0.104
-126.268	-186.025	0.242	0.004
-125.253	-110.421	-0.143	-0.029
-124.239	490.683	-0.086	-0.194
-123.224	-135.719	0.251	0.029
-122.210	-159.083	0.254	0.014
-121.195	800.000	-0.067	0.200
-120.180	-11.944	-0.311	-0.201
-119.166	-48.010	0.203	-0.097
-118.151	47.875	0.078	-0.072
-117.137	-178.689	-0.123	0.003
-116.122	-48.736	-0.200	0.095
-115.107	-200.000	-0.002	-0.035
-114.093	800.000	-0.020	-0.083
-113.078	70.554	0.309	-0.316
-112.064	-190.515	0.205	0.002
-111.049	-132.499	0.290	0.037
-110.034	-138.824	0.124	0.013
-109.020	113.661	0.067	-0.080
-108.005	344.943	0.198	-0.384
-106.991	-9.164	0.206	0.136
-105.976	-85.564	-0.261	-0.080
-104.962	-72.544	0.163	0.059
-103.947	-200.000	0.070	-0.346
-102.932	128.235	0.120	-0.151
-101.918	-172.547	-0.586	-0.018
-100.903	-158.806	-0.369	-0.021
-99.889	-113.751	0.311	0.060
-98.874	-145.075	-0.136	-0.012
-97.859	216.472	-0.082	0.129
-96.845	381.662	-0.171	0.347
-95.830	-88.545	0.050	-0.015
-94.816	106.746	0.138	0.162
-93.801	-2.731	0.071	-0.049
-92.786	-142.596	-0.169	-0.016
-91.772	-131.038	0.114	-0.015
-90.757	-90.147	0.114	0.033
-89.743	-200.000	-0.025	-0.138
-88.728	125.280	-0.157	0.195
-87.713	-27.737	-0.411	0.235
-86.699	138.778	-0.091	0.118
-85.684	-200.000	0.028	-0.297
-84.670	-200.000	0.018	0.161
-83.655	371.861	0.141	0.282
-82.640	-43.291	-0.204	-0.102
-81.626	76.234	0.149	0.156
-80.611	639.106	0.086	0.217
-79.597	62.676	0.143	0.141
-78.582	-68.590	-0.217	-0.083
-77.567	142.395	0.166	-0.217
-76.553	614.194	-0.073	0.181
-75.538	800.000	-0.036	0.103
-74.524	115.718	0.193	0.233
-73.509	-115.274	-0.249	-0.046
-72.494	-200.000	-0.041	-0.207
-71.480	22.192	0.168	-0.135
-70.465	727.939	0.086	0.227
-69.451	800.000	0.089	0.289
-68.436	161.173	0.204	0.281
-67.422	-200.000	-0.008	-0.139
-66.407	-49.710	0.151	0.071
-65.392	104.879	-0.146	0.170
-64.378	-53.389	-0.209	0.094
-63.363	-70.827	0.350	0.130
-62.349	71.555	0.056	-0.057
-61.334	201.076	-0.738	-1.120
-60.319	-8.150	0.938	0.623
-59.305	541.606	-0.476	-1.118
-58.290	289.935	0.702	1.256
-57.276	702.294	0.630	1.636
-56.261	-200.000	109.286	585.132
-55.246	401.205	1534.322	3174.232
-54.232	135.310	2749.313	3522.881
-53.217	91.730	2373.858	2630.845
-52.203	34.289	2115.409	1818.312
-51.188	29.622	2030.432	1702.312
-50.173	28.275	2013.299	1675.567
-49.159	44.549	2072.072	1876.138
-48.144	44.395	2088.479	1889.484
-47.130	30.454	2045.662	1722.534
-46.115	28.119	2035.101	1692.000
-45.100	28.008	2032.474	1688.724
-44.086	28.010	2029.682	1686.359
-43.071	27.893	2027.467	1683.370
-42.057	27.877	2025.527	1681.546
-41.042	27.952	2023.688	1680.638
-40.027	27.953	2021.588	1678.838
-39.013	27.961	2019.745	1677.319
-37.998	27.983	2017.591	1675.662
-36.984	27.993	2015.961	1674.332
-35.969	27.950	2014.061	1672.300
-34.954	27.950	2012.720	1671.117
-33.940	27.993	2010.968	1669.990
-32.925	28.064	2009.094	1669.017
-31.911	28.094	2007.441	1667.852
-30.896	28.129	2005.301	1666.323
-29.881	28.070	2004.162	1664.774
-28.867	28.106	2002.813	1663.909
-27.852	28.096	2000.675	1661.979
-26.838	28.119	1998.923	1660.668
-25.823	28.148	1996.823	1659.122
-24.809	28.149	1994.875	1657.446
-23.794	28.102	1993.674	1655.956
-22.779	28.128	1991.324	1654.169
-21.765	28.079	1990.154	1652.694
-20.750	28.103	1988.025	1651.077
-19.736	28.063	1986.995	1649.795
-18.721	28.104	1985.041	1648.472
-17.706	28.108	1983.541	1647.202
-16.692	28.093	1981.997	1645.718
-15.677	28.101	1980.179	1644.212
-14.663	28.104	1978.836	1643.064
-13.648	28.076	1977.801	1641.885
-12.633	28.009	1976.724	1640.324
-11.619	28.143	1974.636	1639.726
-10.604	28.119	1973.333	1638.363
-9.590	28.011	1972.319	1636.497
-8.575	28.009	1971.127	1635.419
-7.560	28.080	1969.415	1634.566
-6.546	28.078	1967.937	1633.265
-5.531	28.037	1966.873	1631.947
-4.517	28.077	1965.445	1631.054
-3.502	28.074	1964.279	1629.993
-2.487	28.094	1963.196	1629.207
-1.473	28.173	1962.255	1629.071
-0.458	28.334	1957.315	1626.335
0.556	27.606	1938.409	1603.401
1.571	24.046	1920.436	1557.309
2.586	20.106	1944.367	1541.608
3.600	18.845	1979.220	1557.671
4.615	17.973	1972.412	1544.294
5.629	13.818	1869.469	1427.888
6.644	5.787	1748.827	1270.760
7.659	1.355	1712.634	1209.115
8.673	0.981	1709.359	1203.729
9.688	0.969	1708.029	1202.591
10.702	0.926	1706.183	1200.845
11.717	0.743	1702.774	1196.891
12.731	1.221	1701.644	1199.772
13.746	6.807	1712.892	1251.962
14.761	13.894	1727.517	1319.019
15.775	16.936	1732.596	1346.983
16.790	17.325	1732.057	1349.533
17.804	16.457	1729.030	1340.177
18.819	15.485	1725.672	1329.754
19.834	14.855	1723.528	1323.004
20.848	14.560	1721.303	1318.848
21.863	14.349	1719.986	1316.054
22.877	14.078	1718.361	1312.554
23.892	13.819	1716.936	1309.308
24.907	13.652	1715.535	1306.804
25.921	13.600	1714.636	1305.596
26.936	13.601	1713.706	1304.777
27.950	13.649	1713.125	1304.598
28.965	13.689	1712.358	1304.212
29.980	13.747	1711.545	1303.935
30.994	13.857	1710.325	1303.755
32.009	13.856	1709.151	1302.737
33.023	13.853	1708.164	1301.844
34.038	13.990	1707.252	1302.111
35.053	13.936	1706.292	1300.841
36.067	13.882	1705.434	1299.650
37.082	13.833	1704.353	1298.323
38.096	13.846	1703.446	1297.622
39.111	13.767	1703.032	1296.571
40.126	13.837	1701.876	1296.128
41.140	13.885	1700.784	1295.554
42.155	13.828	1699.105	1293.719
43.169	13.682	1698.239	1291.808
44.184	13.708	1697.070	1291.001
45.199	13.661	1695.728	1289.505
46.213	13.723	1694.469	1288.913
47.228	13.598	1693.832	1287.344
48.242	13.775	1692.457	1287.555
49.257	13.783	1690.712	1286.178
50.271	13.759	1689.554	1284.995
51.286	13.840	1688.151	1284.443
52.301	13.809	1687.035	1283.242
53.315	13.825	1685.453	1282.050
54.330	13.775	1684.434	1280.770
55.344	13.695	1682.573	1278.625
56.359	13.767	1681.404	1278.179
57.374	13.730	1680.105	1276.798
58.388	13.594	1679.077	1274.854
59.403	13.735	1677.328	1274.500
60.417	13.748	1675.794	1273.321
61.432	13.695	1674.753	1272.011
62.447	13.719	1673.671	1271.263
63.461	13.697	1672.491	1270.079
64.476	13.615	1671.485	1268.582
65.490	13.619	1670.147	1267.482
66.505	13.628	1669.230	1266.743
67.520	13.668	1668.516	1266.396
68.534	13.733	1667.045	1265.660
69.549	13.703	1665.969	1264.506
70.563	13.653	1665.030	1263.296
71.578	13.696	1663.545	1262.383
72.593	13.588	1662.461	1260.627
73.607	13.574	1661.849	1259.949
74.622	13.665	1659.906	1259.058
75.636	13.653	1658.751	1257.979
76.651	13.600	1658.300	1257.123
77.666	13.549	1657.063	1255.688
78.680	13.660	1656.308	1255.844
79.695	13.556	1655.397	1254.257
80.709	13.652	1654.152	1253.924
81.724	13.624	1653.229	1252.902
82.739	13.572	1652.640	1251.954
83.753	13.667	1650.935	1251.268
84.768	13.661	1650.658	1250.902
85.782	13.793	1649.386	1250.820
86.797	13.745	1648.614	1249.764
87.812	13.753	1647.495	1248.866
88.826	13.715	1646.181	1247.474
89.841	13.746	1645.186	1246.843
90.855	13.715	1644.246	1245.785
91.870	13.740	1642.741	1244.725
92.884	13.726	1642.152	1244.065
93.899	13.785	1640.757	1243.337
94.914	13.803	1639.828	1242.658
95.928	13.945	1638.005	1242.232
96.943	13.889	1637.014	1240.950
97.957	13.863	1635.768	1239.699
98.972	13.873	1633.941	1238.283
99.987	13.781	1633.097	1236.849
101.001	13.899	1630.733	1235.822
102.016	13.802	1629.555	1234.104
103.030	13.701	1628.626	1232.537
104.045	13.777	1627.431	1232.085
105.060	13.760	1625.414	1230.326
106.074	13.814	1623.755	1229.364
107.089	13.744	1622.479	1227.766
108.103	13.741	1620.790	1226.361
109.118	13.694	1619.635	1225.030
110.133	13.616	1618.408	1223.417
111.147	13.596	1616.732	1221.899
112.162	13.654	1615.396	1221.208
113.176	13.710	1613.824	1220.321
114.191	13.738	1612.323	1219.285
115.206	13.774	1611.310	1218.676
116.220	13.771	1610.132	1217.656
117.235	13.752	1608.456	1216.141
118.249	13.682	1607.737	1214.978
119.264	13.738	1606.481	1214.328
120.279	13.710	1605.162	1213.021
121.293	13.734	1603.054	1211.497
122.308	13.722	1601.853	1210.389
123.322	13.777	1599.988	1209.280
124.337	13.674	1598.684	1207.435
125.352	13.707	1597.174	1206.423
126.366	13.593	1596.335	1204.859
127.381	13.722	1594.904	1204.608
128.395	13.630	1594.152	1203.266
129.410	13.691	1592.737	1202.532
130.424	13.658	1591.334	1201.127
131.439	13.662	1590.105	1200.121
132.454	13.858	1587.866	1199.743
133.468	13.787	1586.602	1198.174
134.483	13.797	1585.302	1197.154
135.497	13.868	1583.815	1196.436
136.512	13.732	1582.813	1194.592
137.527	13.823	1581.030	1193.799
138.541	13.803	1579.787	1192.609
139.556	13.923	1577.785	1191.856
140.570	13.890	1576.736	1190.723
141.585	13.900	1575.312	1189.613
142.600	13.904	1574.416	1188.862
143.614	13.883	1573.186	1187.677
144.629	13.940	1572.081	1187.141
145.643	13.936	1570.761	1186.013
146.658	14.056	1569.155	1185.550
147.673	13.975	1568.046	1184.030
148.687	13.963	1566.316	1182.531
149.702	13.925	1564.718	1180.955
150.716	13.983	1562.775	1179.796
151.731	13.992	1561.246	1178.598
152.746	13.963	1560.445	1177.687
153.760	14.025	1558.461	1176.522
154.775	13.929	1557.543	1175.044
155.789	14.070	1555.854	1174.661
156.804	14.045	1554.869	1173.640
157.819	14.099	1553.292	1172.729
158.833	14.104	1552.391	1171.980
159.848	14.044	1551.505	1170.786
160.862	14.185	1549.541	1170.190
161.877	14.159	1548.486	1169.102
162.892	14.069	1547.295	1167.470
163.906	14.101	1546.184	1166.750
164.921	14.046	1544.814	1165.229
165.935	14.073	1544.015	1164.713
166.950	14.018	1542.749	1163.271
167.964	14.060	1541.658	1162.640
168.979	14.025	1540.640	1161.522
169.994	14.085	1539.333	1160.855
171.008	14.002	1538.447	1159.504
172.023	14.072	1537.246	1158.988
173.037	14.149	1535.976	1158.458
174.052	14.154	1534.718	1157.444
175.067	14.132	1533.937	1156.603
176.081	14.157	1532.524	1155.610
177.096	14.092	1531.489	1154.275
178.110	14.132	1529.878	1153.233
179.125	14.179	1528.676	1152.551
180.140	14.111	1527.917	1151.404
181.154	14.152	1526.663	1150.642
182.169	14.206	1525.419	1149.980
183.183	14.288	1523.917	1149.306
184.198	14.293	1523.061	1148.597
185.213	14.319	1521.988	1147.862
186.227	14.346	1520.753	1147.015
187.242	14.316	1519.907	1146.069
188.256	14.334	1518.492	1145.025
189.271	14.467	1517.302	1144.941
190.286	14.487	1516.325	1144.240
191.300	14.381	1515.876	1143.076
192.315	14.244	1514.433	1140.945
193.329	14.217	1513.404	1139.882
194.344	14.210	1512.234	1138.854
195.359	14.280	1510.828	1138.170
196.373	14.393	1509.966	1138.197
197.388	14.325	1508.729	1136.694
198.402	14.432	1507.845	1136.663
199.417	14.382	1506.262	1135.023
200.432	14.560	1505.024	1135.204
201.446	14.528	1504.351	1134.379
202.461	14.524	1503.248	1133.422
203.475	14.511	1502.354	1132.556
204.490	14.577	1500.717	1131.671
205.504	14.682	1499.722	1131.529
206.519	14.611	1498.635	1130.132
207.534	14.548	1497.983	1129.109
208.548	14.602	1496.317	1128.119
209.563	14.519	1495.521	1126.858
210.577	14.591	1494.431	1126.426
211.592	14.528	1493.829	1125.444
212.607	14.533	1492.910	1124.692
213.621	14.703	1491.924	1124.989
214.636	14.683	1491.246	1124.244
215.650	14.620	1490.044	1122.819
216.665	14.700	1489.044	1122.500
217.680	14.673	1488.190	1121.576
218.694	14.801	1487.338	1121.693
219.709	14.779	1486.502	1120.821
220.723	14.810	1485.245	1119.978
221.738	14.772	1484.150	1118.799
222.753	14.788	1483.689	1118.462
223.767	14.744	1482.741	1117.349
224.782	14.740	1481.579	1116.353
225.796	14.773	1480.797	1115.884
226.811	14.906	1479.487	1115.687
227.826	14.907	1478.943	1115.181
228.840	14.954	1477.849	1114.574
229.855	14.832	1477.429	1113.342
230.869	14.796	1476.202	1112.079
231.884	14.740	1475.097	1110.781
232.899	14.888	1473.865	1110.738
233.913	14.918	1472.693	1109.952
234.928	14.853	1471.105	1108.225
235.942	14.952	1470.117	1108.041
236.957	14.910	1468.909	1106.754
237.972	14.926	1467.774	1105.907
238.986	14.887	1466.703	1104.748
240.001	14.906	1465.925	1104.185
241.015	14.948	1464.899	1103.591
242.030	14.947	1463.651	1102.550
243.045	14.998	1462.513	1101.928
244.059	14.935	1461.876	1100.936
245.074	15.098	1460.792	1101.094
246.088	15.036	1459.869	1099.893
247.103	15.091	1459.246	1099.688
248.117	15.152	1458.355	1099.324
249.132	15.147	1457.581	1098.610
250.147	15.134	1456.802	1097.835
251.161	15.212	1456.280	1097.857
252.176	15.204	1455.625	1097.215
253.190	15.314	1454.741	1097.169
254.205	15.311	1454.167	1096.623
255.220	15.334	1452.662	1095.542
256.234	15.378	1452.106	1095.308
257.249	15.427	1450.865	1094.594
258.263	15.408	1450.051	1093.760
259.278	15.349	1449.546	1092.898
260.293	15.379	1448.332	1092.086
261.307	15.450	1447.655	1091.939
262.322	15.433	1447.118	1091.327
263.336	15.440	1446.181	1090.571
264.351	15.592	1444.495	1090.189
265.366	15.574	1443.944	1089.557
266.380	15.537	1443.289	1088.726
267.395	15.614	1442.244	1088.339
268.409	15.493	1441.710	1087.057
269.424	15.546	1440.272	1086.219
270.439	15.518	1439.684	1085.502
271.453	15.509	1438.649	1084.570
272.468	15.545	1437.593	1083.909
273.482	15.605	1436.437	1083.326
274.497	15.630	1435.734	1082.858
275.512	15.572	1434.793	1081.683
276.526	15.584	1434.012	1081.073
277.541	15.632	1432.691	1080.295
278.555	15.650	1432.293	1080.012
279.570	15.650	1431.315	1079.177
280.585	15.710	1429.972	1078.457
281.599	15.707	1429.275	1077.816
282.614	15.837	1428.157	1077.707
283.628	15.784	1427.178	1076.535
284.643	15.822	1425.892	1075.711
285.657	15.778	1425.317	1074.903
286.672	15.602	1424.549	1073.107
287.687	15.767	1423.175	1073.031
288.701	15.820	1422.203	1072.537
289.716	15.806	1421.586	1071.886
290.730	15.830	1420.944	1071.463
291.745	15.838	1419.159	1070.071
292.760	15.944	1418.256	1069.972
293.774	15.905	1417.082	1068.740
294.789	15.933	1416.437	1068.339
295.803	15.969	1415.603	1067.845
296.818	15.999	1414.826	1067.353
297.833	15.829	1413.835	1065.434
298.847	15.890	1412.843	1064.980
299.862	15.985	1411.567	1064.525
300.876	15.972	1410.927	1063.863
301.891	16.009	1409.755	1063.121
302.906	15.971	1409.512	1062.604
303.920	15.990	1408.759	1062.061
304.935	16.075	1407.497	1061.553
305.949	16.112	1407.050	1061.351
306.964	16.170	1405.957	1060.797
307.979	16.200	1405.020	1060.186
308.993	16.216	1403.999	1059.424
310.008	16.155	1403.358	1058.465
311.022	16.257	1402.093	1058.052
312.037	16.218	1400.944	1056.852
313.052	16.220	1400.357	1056.326
314.066	16.166	1399.384	1055.163
315.081	16.294	1397.867	1054.720
316.095	16.216	1396.870	1053.388
317.110	16.222	1395.892	1052.599
318.125	16.238	1394.969	1051.908
319.139	16.202	1393.991	1050.855
320.154	16.192	1392.773	1049.779
321.168	16.265	1392.030	1049.582
322.183	16.240	1390.825	1048.422
323.197	16.295	1390.294	1048.274
324.212	16.328	1389.344	1047.669
325.227	16.316	1388.543	1046.897
326.241	16.296	1387.461	1045.864
327.256	16.285	1386.619	1045.070
328.270	16.396	1385.716	1044.983
329.285	16.338	1385.065	1044.041
330.300	16.296	1384.213	1043.044
331.314	16.364	1382.955	1042.428
332.329	16.386	1381.980	1041.737
333.343	16.392	1381.002	1040.943
334.358	16.396	1380.237	1040.296
335.373	16.457	1379.677	1040.158
336.387	16.406	1378.666	1038.995
337.402	16.369	1378.309	1038.405
338.416	16.507	1377.308	1038.403
339.431	16.649	1376.524	1038.591
340.446	16.617	1375.492	1037.528
341.460	16.591	1374.520	1036.542
342.475	16.616	1373.956	1036.181
343.489	16.626	1372.939	1035.381
344.504	16.622	1372.245	1034.745
345.519	16.643	1371.287	1034.055
346.533	16.748	1369.695	1033.404
347.548	16.728	1369.500	1033.043
348.562	16.705	1368.517	1032.073
349.577	16.752	1367.887	1031.790
350.592	16.738	1367.154	1031.060
351.606	16.793	1365.832	1030.305
352.621	16.671	1365.298	1029.070
353.635	16.646	1363.691	1027.615
354.650	16.676	1362.953	1027.151
355.665	16.712	1362.417	1026.874
356.679	16.703	1361.008	1025.667
357.694	16.793	1359.641	1025.093
358.708	16.783	1358.939	1024.415
359.723	16.788	1357.868	1023.542
360.738	16.889	1356.423	1022.977
361.752	16.903	1355.383	1022.184
362.767	16.792	1354.596	1020.830
363.781	16.861	1353.810	1020.561
364.796	16.917	1352.866	1020.100
365.810	16.959	1351.992	1019.603
366.825	16.960	1351.272	1018.975
367.840	17.059	1350.333	1018.770
368.854	17.049	1349.736	1018.171
369.869	17.052	1349.124	1017.637
370.883	17.094	1348.771	1017.532
371.898	17.108	1347.864	1016.844
372.913	17.004	1347.309	1015.711
373.927	17.139	1346.001	1015.445
374.942	17.028	1345.451	1014.273
375.956	17.198	1344.246	1014.293
376.971	17.271	1343.657	1014.192
377.986	17.271	1342.504	1013.232
379.000	17.178	1342.085	1012.271
380.015	17.188	1341.273	1011.633
381.029	17.258	1340.439	1011.330
382.044	17.298	1339.692	1010.913
383.059	17.307	1339.212	1010.512
384.073	17.309	1338.561	1009.947
385.088	17.399	1337.740	1009.769
386.102	17.363	1337.013	1008.916
387.117	17.261	1336.490	1007.833
388.132	17.407	1335.411	1007.794
389.146	17.445	1334.380	1007.151
390.161	17.341	1333.887	1006.076
391.175	17.316	1333.050	1005.205
392.190	17.359	1332.411	1004.889
393.205	17.376	1331.406	1004.143
394.219	17.416	1330.536	1003.634
395.234	17.542	1328.766	1002.953
396.248	17.448	1328.003	1001.733
397.263	17.487	1326.585	1000.806
398.278	17.429	1325.226	999.348
399.292	17.423	1324.120	998.392
400.307	17.580	1322.781	998.215
401.321	17.455	1321.752	996.620
402.336	17.582	1320.732	996.505
403.350	17.607	1319.471	995.613
404.365	17.397	1319.092	994.010
405.380	17.545	1318.222	994.132
406.394	17.485	1317.630	993.243
407.409	17.536	1316.884	992.890
408.423	17.540	1315.886	992.075
409.438	17.566	1315.257	991.667
410.453	17.674	1314.555	991.678
411.467	17.677	1313.635	990.913
412.482	17.769	1312.911	990.814
413.496	17.795	1312.440	990.521
414.511	17.790	1311.729	989.868
415.526	17.827	1310.913	989.379
416.540	17.712	1310.387	988.227
417.555	17.852	1309.439	988.234
418.569	17.796	1309.139	987.598
419.584	17.925	1308.530	987.799
420.599	17.921	1307.709	987.067
421.613	96.808	1358.790	1475.107
422.628	95.361	1366.169	1475.198
