DTS Sentinel unit serial number:	SN413079Multiplexer serial number:	ORYXHardware model number:	OX4-SRSoftware version number:	ORYX F/W v4.00 Oryx Data Collector v3.7.2.0data status	okinstallation	princeton_trtdifferential loss correction	single-endedforward channel	channel 4reverse channel	N/Adate	2019/09/13time	00:37:34forward acquisition time	60.00reverse acquisition time	0.00gamma	496.2192k internal	0.2317k external	0.2317temperature offset calibration	1.0166default loss term (dB/km)	0.3790temperature slope calibration	1.0000multiplexer offset coefficient	1.0000multiplexer slope coefficient	1.0000fibre end	0.00T internal ref (°C)	28.30T ext. ref 1 (°C)	3.70T ext. ref 2 (°C)	22.90length (m)	temperature (°C)	Stokes	anti-Stokes-747.200	22.748	-0.195	0.162
-746.185	800.000	0.054	0.181
-745.171	-200.000	-0.083	0.493
-744.156	800.000	0.035	-0.101
-743.142	-123.211	0.115	0.019
-742.127	-99.424	0.116	-0.030
-741.112	32.604	0.283	-0.248
-740.098	-200.000	0.014	0.230
-739.083	-200.000	-0.008	0.109
-738.069	-133.182	-0.246	0.031
-737.054	-122.674	0.113	0.018
-736.039	-98.555	-0.232	0.060
-735.025	-144.981	0.088	0.008
-734.010	111.454	0.206	-0.252
-732.996	-0.901	-0.095	0.068
-731.981	298.904	-0.044	-0.083
-730.966	60.468	-0.168	-0.168
-729.952	-151.091	-0.390	0.030
-728.937	96.004	-0.296	-0.342
-727.923	89.805	0.084	-0.095
-726.908	-7.139	0.156	-0.107
-725.894	190.481	-0.118	0.180
-724.879	800.000	-0.077	-0.283
-723.864	-10.081	0.052	-0.035
-722.850	-200.000	-0.032	-0.274
-721.835	-94.124	0.131	-0.036
-720.821	12.127	-0.221	-0.172
-719.806	-59.450	0.328	0.143
-718.791	-200.000	0.001	-0.123
-717.777	482.317	-0.014	0.033
-716.762	80.687	0.048	0.052
-715.748	-200.000	-0.027	0.513
-714.733	-200.000	0.025	0.202
-713.718	115.241	0.064	0.079
-712.704	-51.929	-0.364	0.171
-711.689	48.060	-0.183	0.173
-710.675	-144.296	-0.114	-0.011
-709.660	800.000	-0.054	-0.217
-708.645	33.938	0.109	-0.096
-707.631	322.536	0.060	0.115
-706.616	-99.627	0.242	0.061
-705.602	33.529	-0.260	-0.228
-704.587	125.993	-0.204	-0.261
-703.572	-107.010	0.361	0.081
-702.558	-56.572	0.254	0.114
-701.543	800.000	-0.044	0.158
-700.529	-19.327	-0.025	0.016
-699.514	-55.992	0.280	0.126
-698.499	452.535	-0.074	-0.166
-697.485	294.446	-0.052	0.096
-696.470	-151.076	-0.104	-0.008
-695.456	17.755	0.070	-0.056
-694.441	-200.000	-0.017	-0.199
-693.426	-200.000	-0.006	-0.147
-692.412	-168.178	0.104	-0.004
-691.397	800.000	-0.083	0.311
-690.383	-200.000	0.007	-0.055
-689.368	-139.546	0.140	-0.015
-688.354	-157.468	0.138	0.008
-687.339	601.869	-0.170	-0.426
-686.324	-15.488	-0.138	-0.089
-685.310	-61.586	-0.181	-0.077
-684.295	373.201	0.036	-0.074
-683.281	-31.718	-0.202	0.114
-682.266	-81.832	-0.231	-0.076
-681.251	226.625	-0.068	-0.112
-680.237	160.939	-0.202	0.285
-679.222	-85.007	0.271	0.086
-678.208	-4.370	-0.190	-0.132
-677.193	800.000	-0.042	0.168
-676.178	250.355	0.134	-0.230
-675.164	67.854	-0.122	-0.126
-674.149	-200.000	0.020	-0.291
-673.135	405.008	0.085	-0.181
-672.120	-73.920	0.044	-0.016
-671.105	-33.704	0.122	0.068
-670.091	800.000	0.122	-0.344
-669.076	-69.726	-0.109	-0.042
-668.062	800.000	-0.096	-0.311
-667.047	167.406	-0.129	0.185
-666.032	-91.314	-0.199	-0.058
-665.018	-162.574	-0.306	-0.015
-664.003	221.451	0.085	0.138
-662.989	-200.000	-0.056	-0.255
-661.974	-94.579	0.092	-0.025
-660.959	-91.057	0.132	-0.038
-659.945	-80.164	0.210	-0.071
-658.930	-200.000	-0.037	0.279
-657.916	-98.614	0.244	0.063
-656.901	800.000	0.041	-0.133
-655.886	-200.000	0.018	-0.119
-654.872	-69.917	-0.195	0.075
-653.857	116.478	-0.128	-0.158
-652.843	142.074	0.093	0.124
-651.828	264.282	-0.147	-0.258
-650.814	364.887	0.079	-0.161
-649.799	157.036	-0.102	0.142
-648.784	-85.246	0.095	-0.030
-647.770	37.001	0.081	-0.073
-646.755	7.427	-0.252	-0.190
-645.741	85.221	0.211	-0.234
-644.726	-84.952	-0.134	0.042
-643.711	-11.994	-0.257	-0.170
-642.697	-200.000	0.064	-0.352
-641.682	-188.273	-0.261	-0.003
-640.668	-46.943	0.089	-0.044
-639.653	-200.000	-0.093	0.477
-638.638	-200.000	-0.073	-0.424
-637.624	57.114	-0.247	-0.243
-636.609	68.499	-0.147	0.152
-635.595	-38.905	0.137	-0.073
-634.580	765.695	0.077	0.212
-633.565	449.036	0.074	-0.164
-632.551	-200.000	0.021	-0.186
-631.536	-67.707	0.218	-0.086
-630.522	-30.953	-0.133	-0.076
-629.507	20.706	0.078	0.064
-628.492	68.359	0.310	-0.321
-627.478	-133.908	0.325	-0.041
-626.463	-184.850	-0.336	0.005
-625.449	42.920	-0.160	0.147
-624.434	800.000	0.072	-0.237
-623.419	-42.713	-0.252	0.129
-622.405	352.874	0.142	-0.284
-621.390	-85.904	-0.187	-0.058
-620.376	-137.498	0.297	0.034
-619.361	199.893	0.093	0.144
-618.346	740.503	0.037	-0.100
-617.332	149.391	-0.208	0.284
-616.317	-59.587	0.152	-0.066
-615.303	800.000	0.057	0.203
-614.288	53.524	0.188	0.181
-613.273	-152.271	0.093	-0.007
-612.259	658.593	0.110	0.285
-611.244	-200.000	0.091	-0.460
-610.230	42.159	0.220	-0.201
-609.215	220.946	0.259	-0.419
-608.201	265.956	-0.102	0.179
-607.186	-150.523	0.122	-0.009
-606.171	169.136	-0.200	-0.287
-605.157	253.116	0.133	0.229
-604.142	-49.693	0.205	0.098
-603.128	-9.293	-0.178	0.120
-602.113	800.000	0.046	0.136
-601.098	-88.420	-0.139	-0.042
-600.084	800.000	0.109	0.326
-599.069	-46.168	0.109	0.054
-598.055	295.127	0.065	-0.120
-597.040	487.399	0.040	-0.091
-596.025	175.587	-0.061	-0.089
-595.011	198.873	0.059	-0.091
-593.996	202.973	0.090	0.140
-592.982	-200.000	0.002	-0.161
-591.967	-200.000	-0.016	-0.122
-590.952	-200.000	0.041	-0.374
-589.938	-23.024	0.198	-0.120
-588.923	-200.000	0.004	0.049
-587.909	-200.000	-0.001	0.256
-586.894	108.353	-0.025	0.030
-585.879	-162.769	0.251	0.012
-584.865	158.389	-0.051	0.071
-583.850	39.722	0.137	0.123
-582.836	-200.000	-0.046	0.205
-581.821	-200.000	0.035	-0.196
-580.806	49.996	-0.140	-0.132
-579.792	99.144	-0.099	0.115
-578.777	800.000	-0.069	0.295
-577.763	-33.560	0.145	0.081
-576.748	-77.217	0.175	-0.061
-575.733	109.940	-0.322	0.388
-574.719	-100.122	-0.138	-0.035
-573.704	-200.000	0.023	-0.254
-572.690	-19.693	-0.271	0.169
-571.675	-67.291	-0.127	0.050
-570.661	-200.000	0.006	-0.103
-569.646	-200.000	0.025	-0.136
-568.631	-32.165	-0.215	0.121
-567.617	-200.000	-0.030	0.417
-566.602	-93.689	-0.227	0.063
-565.588	-107.224	-0.192	0.043
-564.573	-200.000	-0.013	-0.183
-563.558	800.000	-0.020	-0.076
-562.544	40.364	0.196	0.177
-561.529	-91.925	0.150	-0.043
-560.515	77.344	0.141	-0.151
-559.500	800.000	-0.196	-0.804
-558.485	-106.563	0.243	-0.054
-557.471	334.803	-0.146	0.285
-556.456	-163.543	-0.387	-0.018
-555.442	-200.000	-0.016	0.138
-554.427	-31.067	-0.077	-0.044
-553.412	-40.558	0.160	-0.083
-552.398	13.564	0.084	0.066
-551.383	57.656	-0.128	-0.126
-550.369	-196.311	0.203	-0.001
-549.354	-4.789	-0.091	0.063
-548.339	-200.000	0.037	-0.274
-547.325	-152.692	-0.204	-0.015
-546.310	295.352	0.194	-0.357
-545.296	177.775	0.143	0.210
-544.281	504.684	-0.005	0.013
-543.266	52.573	0.111	-0.106
-542.252	35.456	-0.221	-0.195
-541.237	-200.000	0.026	0.126
-540.223	219.341	-0.074	0.119
-539.208	-200.000	0.014	-0.502
-538.193	-189.458	-0.374	0.004
-537.179	800.000	-0.098	-0.412
-536.164	800.000	-0.109	-0.465
-535.150	-155.293	0.094	0.006
-534.135	29.330	0.088	0.075
-533.121	-52.008	0.129	0.060
-532.106	-200.000	-0.035	0.309
-531.091	12.881	0.067	0.052
-530.077	-78.043	0.103	0.036
-529.062	-91.511	-0.229	-0.066
-528.048	-0.654	-0.192	0.137
-527.033	-200.000	0.014	-0.306
-526.018	164.147	0.112	0.158
-525.004	-121.383	-0.180	-0.030
-523.989	-200.000	-0.028	-0.132
-522.975	800.000	-0.053	0.226
-521.960	326.553	-0.092	0.177
-520.945	-77.826	0.070	0.024
-519.931	-114.230	-0.351	0.068
-518.916	135.823	-0.119	0.155
-517.902	-116.998	-0.191	0.035
-516.887	110.469	0.229	-0.276
-515.872	800.000	-0.082	-0.291
-514.858	229.145	0.049	-0.081
-513.843	-114.142	0.243	-0.047
-512.829	255.790	-0.113	0.194
-511.814	800.000	0.073	0.244
-510.799	-200.000	-0.017	0.251
-509.785	53.431	-0.182	0.175
-508.770	35.432	0.070	0.062
-507.756	-70.776	0.144	0.055
-506.741	800.000	0.090	0.266
-505.726	-200.000	0.003	0.058
-504.712	49.994	-0.257	-0.243
-503.697	-200.000	-0.034	0.182
-502.683	174.938	0.028	-0.040
-501.668	-200.000	-0.018	0.132
-500.653	-111.065	-0.206	0.042
-499.639	-200.000	-0.016	-0.113
-498.624	44.237	0.177	-0.163
-497.610	6.204	0.121	0.090
-496.595	-101.031	0.202	-0.050
-495.581	-166.460	-0.330	0.014
-494.566	-91.501	-0.134	-0.038
-493.551	800.000	0.065	0.282
-492.537	120.771	-0.204	0.255
-491.522	-141.896	-0.329	0.033
-490.508	-200.000	0.011	-0.089
-489.493	767.156	0.053	-0.144
-488.478	-139.680	-0.322	-0.034
-487.464	800.000	-0.122	-0.500
-486.449	82.824	0.066	-0.071
-485.435	125.262	0.080	0.101
-484.420	170.535	0.116	0.166
-483.405	-29.445	-0.274	0.157
-482.391	-142.314	0.390	0.039
-481.376	-185.236	-0.252	-0.004
-480.362	-104.153	-0.221	0.051
-479.347	-6.178	-0.063	-0.043
-478.332	-115.021	0.120	-0.023
-477.318	800.000	-0.110	-0.419
-476.303	67.264	-0.087	-0.089
-475.289	187.864	0.096	-0.143
-474.274	-26.760	0.202	0.118
-473.259	-200.000	-0.030	-0.148
-472.245	-200.000	-0.012	-0.287
-471.230	-23.091	-0.069	0.041
-470.216	51.228	0.392	0.373
-469.201	79.509	0.228	-0.245
-468.186	800.000	-0.050	0.156
-467.172	-200.000	0.038	0.221
-466.157	-200.000	-0.025	0.149
-465.143	270.120	-0.104	0.183
-464.128	325.024	-0.176	-0.337
-463.113	-73.853	-0.258	0.094
-462.099	-61.071	0.300	0.127
-461.084	-100.956	0.079	-0.019
-460.070	170.312	-0.082	-0.118
-459.055	-178.728	0.165	0.004
-458.040	-200.000	-0.009	-0.185
-457.026	93.134	-0.214	0.242
-456.011	800.000	0.070	-0.230
-454.997	-54.513	-0.283	0.128
-453.982	-200.000	0.009	-0.063
-452.968	138.450	-0.083	-0.109
-451.953	-83.083	-0.138	-0.044
-450.938	-149.419	0.100	0.008
-449.924	492.416	-0.107	-0.245
-448.909	37.446	-0.156	0.139
-447.895	-54.264	-0.200	0.091
-446.880	3.208	-0.113	0.082
-445.865	-168.025	0.416	-0.016
-444.851	800.000	-0.068	-0.261
-443.836	631.396	0.059	0.149
-442.822	-188.493	-0.279	-0.003
-441.807	-200.000	-0.053	-0.264
-440.792	480.853	-0.063	0.143
-439.778	-129.959	-0.100	0.014
-438.763	128.081	-0.104	0.132
-437.749	-200.000	0.003	0.120
-436.734	800.000	0.049	-0.189
-435.719	40.456	-0.162	0.146
-434.705	387.470	0.127	0.263
-433.690	120.584	0.066	-0.082
-432.676	-200.000	-0.021	-0.247
-431.661	800.000	-0.087	0.289
-430.646	-122.152	-0.085	-0.014
-429.632	77.963	0.095	-0.101
-428.617	800.000	-0.063	-0.223
-427.603	-19.422	0.249	0.154
-426.588	-200.000	-0.029	-0.156
-425.573	800.000	0.090	0.263
-424.559	70.757	-0.077	0.080
-423.544	-200.000	0.004	-0.401
-422.530	-189.972	-0.363	0.004
-421.515	210.512	0.094	0.148
-420.500	-58.974	-0.138	-0.060
-419.486	-200.000	-0.035	0.157
-418.471	152.715	-0.148	0.202
-417.457	638.227	0.091	0.231
-416.442	29.622	-0.229	0.195
-415.428	382.218	-0.159	-0.327
-414.413	-31.055	0.149	0.084
-413.398	80.202	-0.021	0.022
-412.384	427.516	-0.024	-0.053
-411.369	354.329	0.040	0.079
-410.355	-200.000	0.052	-0.248
-409.340	5.136	0.077	0.057
-408.325	-200.000	-0.023	-0.215
-407.311	55.970	-0.151	-0.146
-406.296	85.236	-0.069	-0.076
-405.282	-38.967	-0.312	-0.164
-404.267	507.285	0.095	0.221
-403.252	-200.000	0.052	0.277
-402.238	-131.323	0.249	0.033
-401.223	-141.498	0.189	-0.019
-400.209	-200.000	0.005	-0.164
-399.194	576.056	0.054	0.132
-398.179	-200.000	-0.035	0.283
-397.165	255.820	-0.128	0.220
-396.150	-200.000	-0.035	0.205
-395.136	97.798	-0.177	-0.203
-394.121	800.000	0.081	-0.299
-393.106	-42.332	0.146	-0.074
-392.092	16.131	-0.102	-0.080
-391.077	-12.751	0.292	0.190
-390.063	-64.590	0.373	0.151
-389.048	67.108	0.086	0.087
-388.033	-33.680	0.321	0.177
-387.019	800.000	0.102	-0.287
-386.004	407.400	0.091	-0.191
-384.990	-59.917	0.515	0.220
-383.975	14.780	0.199	-0.155
-382.960	-200.000	-0.005	-0.206
-381.946	12.961	0.101	-0.078
-380.931	141.827	0.068	0.089
-379.917	-200.000	0.033	-0.147
-378.902	-117.529	-0.120	-0.022
-377.888	12.502	-0.244	0.188
-376.873	71.114	-0.109	0.113
-375.858	-200.000	0.027	-0.243
-374.844	-38.438	0.027	-0.014
-373.829	-200.000	0.017	-0.160
-372.815	-200.000	-0.014	0.118
-371.800	-165.523	-0.145	-0.006
-370.785	-200.000	0.044	0.341
-369.771	-200.000	0.074	0.370
-368.756	800.000	0.018	-0.059
-367.742	350.218	0.120	-0.238
-366.727	11.402	-0.065	-0.050
-365.712	-200.000	0.029	-0.138
-364.698	-200.000	0.056	0.318
-363.683	-81.593	-0.106	-0.035
-362.669	-93.071	-0.054	-0.015
-361.654	-65.978	-0.233	0.093
-360.639	208.232	-0.123	-0.192
-359.625	128.781	0.102	0.130
-358.610	-175.064	0.255	-0.007
-357.596	20.069	-0.110	0.089
-356.581	294.187	-0.179	0.325
-355.566	91.974	0.307	0.345
-354.552	513.806	-0.142	-0.329
-353.537	-63.962	-0.311	0.127
-352.523	186.765	-0.105	0.155
-351.508	6.051	0.248	0.183
-350.493	-157.500	-0.278	0.017
-349.479	-200.000	-0.001	0.245
-348.464	-122.126	-0.197	-0.032
-347.450	-45.332	0.174	0.086
-346.435	-200.000	-0.006	0.031
-345.420	-145.861	-0.299	-0.026
-344.406	250.960	-0.135	0.228
-343.391	79.086	0.054	-0.058
-342.377	-200.000	0.002	-0.212
-341.362	-99.347	-0.165	0.041
-340.348	-200.000	-0.024	-0.207
-339.333	800.000	-0.081	0.277
-338.318	10.362	0.379	0.287
-337.304	302.881	0.152	-0.280
-336.289	43.242	0.075	0.068
-335.275	-121.022	-0.096	-0.016
-334.260	301.216	-0.067	-0.123
-333.245	-124.951	-0.435	-0.067
-332.231	-106.737	-0.195	-0.043
-331.216	800.000	0.109	0.421
-330.202	800.000	0.065	0.255
-329.187	-200.000	-0.063	-0.418
-328.172	-46.738	0.086	0.042
-327.158	-155.904	0.071	-0.005
-326.143	-148.819	0.280	0.023
-325.129	800.000	-0.060	0.254
-324.114	82.577	0.077	0.083
-323.099	-200.000	-0.001	-0.163
-322.085	-79.583	-0.321	-0.108
-321.070	-19.493	0.248	-0.153
-320.056	-200.000	0.010	-0.071
-319.041	800.000	-0.057	-0.162
-318.026	76.745	-0.246	-0.260
-317.012	67.186	-0.138	-0.140
-315.997	-73.255	0.426	0.155
-314.983	-66.575	0.026	0.010
-313.968	-8.790	-0.345	-0.230
-312.953	187.114	-0.167	0.248
-311.939	800.000	-0.084	0.294
-310.924	800.000	0.076	0.268
-309.910	137.574	0.103	-0.134
-308.895	-200.000	-0.072	0.316
-307.880	33.003	-0.181	-0.156
-306.866	-81.448	0.113	0.037
-305.851	-200.000	-0.216	-0.001
-304.837	-95.687	0.374	-0.100
-303.822	-38.837	-0.235	0.123
-302.807	800.000	0.104	-0.320
-301.793	-200.000	0.022	-0.277
-300.778	-200.000	-0.006	0.135
-299.764	-56.743	-0.175	-0.077
-298.749	-200.000	0.039	-0.268
-297.735	800.000	-0.041	0.149
-296.720	152.799	-0.217	-0.295
-295.705	682.055	0.135	-0.350
-294.691	-87.074	-0.170	0.051
-293.676	398.579	0.036	0.076
-292.662	-151.569	0.067	-0.005
-291.647	33.857	0.178	0.154
-290.632	184.271	0.171	0.252
-289.618	-109.243	-0.194	-0.041
-288.603	398.369	-0.020	0.041
-287.589	287.099	-0.137	0.246
-286.574	208.275	0.210	0.326
-285.559	446.362	0.153	0.334
-284.545	-192.974	-0.208	0.002
-283.530	-105.575	-0.478	-0.108
-282.516	800.000	0.132	-0.425
-281.501	800.000	-0.051	-0.176
-280.486	-48.983	-0.023	0.011
-279.472	800.000	0.035	-0.144
-278.457	197.703	-0.222	0.337
-277.443	-131.893	-0.105	-0.014
-276.428	-49.706	-0.077	0.036
-275.413	48.106	-0.192	0.179
-274.399	-73.088	0.384	-0.140
-273.384	-118.245	-0.234	0.041
-272.370	-24.540	0.311	-0.184
-271.355	-96.413	0.230	0.060
-270.340	-144.753	0.316	-0.029
-269.326	548.921	-0.072	0.172
-268.311	-52.719	-0.262	0.120
-267.297	-200.000	0.073	0.413
-266.282	800.000	-0.041	0.143
-265.267	-47.796	0.323	-0.155
-264.253	394.805	-0.029	-0.059
-263.238	-118.211	0.438	0.078
-262.224	-37.418	-0.150	0.080
-261.209	48.242	-0.143	-0.133
-260.195	-200.000	0.027	0.129
-259.180	51.625	0.248	0.234
-258.165	-78.975	-0.043	-0.014
-257.151	-91.134	-0.380	-0.108
-256.136	-81.638	0.064	-0.021
-255.122	53.966	0.205	0.196
-254.107	3.576	0.269	-0.195
-253.092	38.412	-0.091	-0.080
-252.078	72.863	0.124	0.128
-251.063	-200.000	0.008	-0.374
-250.049	-83.883	0.090	-0.029
-249.034	-74.667	0.357	0.128
-248.019	62.441	-0.122	0.121
-247.005	-40.851	-0.138	0.071
-245.990	-133.203	-0.113	0.014
-244.976	293.671	-0.102	0.186
-243.961	468.475	0.023	0.051
-242.946	6.775	0.150	-0.111
-241.932	-76.303	0.359	-0.125
-240.917	-26.330	-0.067	-0.039
-239.903	-117.735	0.187	-0.033
-238.888	49.966	-0.204	0.191
-237.873	-29.169	0.255	-0.145
-236.859	582.362	-0.078	0.191
-235.844	318.584	0.121	0.227
-234.830	-56.417	-0.210	0.092
-233.815	-90.956	-0.281	0.080
-232.800	-125.530	-0.339	0.051
-231.786	800.000	0.034	-0.135
-230.771	-89.201	0.198	0.058
-229.757	-200.000	0.005	-0.085
-228.742	16.403	0.148	-0.116
-227.727	92.026	-0.279	-0.311
-226.713	185.565	-0.170	-0.250
-225.698	800.000	0.148	0.442
-224.684	-170.237	0.116	0.004
-223.669	152.076	0.167	-0.225
-222.655	229.600	-0.099	-0.160
-221.640	117.915	0.053	-0.065
-220.625	355.751	0.084	-0.166
-219.611	-200.000	0.001	-0.153
-218.596	800.000	-0.085	-0.272
-217.582	-42.508	0.129	0.065
-216.567	-158.478	0.254	0.015
-215.552	89.960	0.117	0.129
-214.538	800.000	0.036	-0.113
-213.523	-136.759	0.148	-0.017
-212.509	800.000	0.035	-0.098
-211.494	424.655	-0.064	-0.137
-210.479	-136.957	0.123	0.014
-209.465	-200.000	-0.003	0.298
-208.450	-200.000	-0.009	0.158
-207.436	12.397	0.150	0.115
-206.421	-118.296	0.378	0.067
-205.406	-127.316	0.372	0.054
-204.392	421.000	0.058	0.124
-203.377	-191.951	-0.238	-0.002
-202.363	3.848	0.078	-0.057
-201.348	45.175	0.120	-0.110
-200.333	-200.000	-0.021	0.198
-199.319	-200.000	0.035	0.207
-198.304	627.677	-0.090	-0.226
-197.290	222.455	0.044	-0.071
-196.275	-70.327	-0.096	0.036
-195.260	-166.104	0.157	0.007
-194.246	-109.403	-0.111	-0.023
-193.231	565.122	0.104	-0.251
-192.217	-138.253	-0.136	-0.015
-191.202	148.051	0.108	-0.144
-190.187	106.610	-0.092	-0.108
-189.173	-200.000	0.066	-0.429
-188.158	-200.000	0.033	-0.246
-187.144	-114.401	0.098	-0.019
-186.129	-58.854	0.263	0.113
-185.114	73.634	0.122	0.126
-184.100	800.000	-0.088	0.350
-183.085	-22.438	0.178	0.107
-182.071	38.659	-0.149	-0.132
-181.056	800.000	0.061	-0.176
-180.042	56.031	-0.092	-0.089
-179.027	15.942	-0.106	0.083
-178.012	72.633	0.065	-0.067
-176.998	-200.000	-0.001	-0.018
-175.983	1.572	-0.116	-0.083
-174.969	-15.156	0.166	-0.105
-173.954	37.409	-0.141	-0.124
-172.939	-200.000	-0.004	0.142
-171.925	1.567	-0.231	0.164
-170.910	354.033	0.241	0.473
-169.896	-154.417	-0.189	-0.013
-168.881	-34.089	0.126	-0.069
-167.866	-166.420	0.144	0.006
-166.852	-9.362	-0.038	-0.025
-165.837	230.378	-0.211	-0.341
-164.823	77.267	0.167	0.176
-163.808	-85.812	0.372	0.114
-162.793	114.917	0.043	-0.052
-161.779	509.194	-0.091	-0.209
-160.764	348.180	-0.118	0.231
-159.750	-200.000	0.005	0.156
-158.735	-130.697	0.201	-0.027
-157.720	-200.000	0.022	0.185
-156.706	-200.000	0.012	-0.073
-155.691	248.319	0.216	0.361
-154.677	109.365	0.123	-0.145
-153.662	265.158	-0.084	0.144
-152.647	157.693	-0.181	-0.249
-151.633	-200.000	0.023	0.271
-150.618	-200.000	-0.003	-0.018
-149.604	201.861	-0.174	0.265
-148.589	-200.000	0.013	0.121
-147.574	186.367	0.032	-0.046
-146.560	800.000	0.049	-0.143
-145.545	53.941	0.140	0.133
-144.531	-169.612	-0.225	0.008
-143.516	-200.000	0.001	-0.141
-142.502	-200.000	-0.057	0.270
-141.487	-11.082	-0.195	-0.127
-140.472	-57.030	-0.054	-0.023
-139.458	384.693	-0.090	-0.184
-138.443	-25.722	0.091	0.053
-137.429	6.355	0.228	-0.167
-136.414	116.434	-0.227	0.275
-135.399	57.949	-0.134	-0.130
-134.385	224.251	-0.166	-0.265
-133.370	222.826	0.168	0.268
-132.356	-200.000	0.002	0.093
-131.341	68.300	-0.241	0.244
-130.326	-200.000	0.061	0.388
-129.312	-44.630	0.348	0.172
-128.297	-200.000	-0.044	0.198
-127.283	-138.798	-0.177	-0.019
-126.268	48.407	-0.024	-0.022
-125.253	201.802	0.072	0.109
-124.239	-131.365	-0.161	-0.021
-123.224	112.203	-0.147	-0.175
-122.210	181.713	-0.076	-0.111
-121.195	-200.000	-0.004	-0.107
-120.180	-51.698	-0.102	-0.047
-119.166	-200.000	-0.008	-0.374
-118.151	137.224	0.107	0.138
-117.137	-31.457	-0.177	-0.098
-116.122	-103.307	-0.164	0.038
-115.107	-170.029	0.178	0.006
-114.093	75.529	0.093	-0.097
-113.078	202.781	-0.138	-0.210
-112.064	15.621	-0.004	-0.003
-111.049	123.153	-0.084	-0.103
-110.034	81.524	0.159	-0.169
-109.020	127.624	-0.015	0.019
-108.005	109.110	0.159	-0.188
-106.991	14.178	0.213	0.164
-105.976	-75.256	-0.192	0.068
-104.962	38.538	0.103	-0.091
-103.947	-133.870	0.364	0.045
-102.932	210.068	0.175	0.271
-101.918	-168.241	0.091	0.003
-100.903	800.000	0.061	0.209
-99.889	126.912	0.226	0.283
-98.874	14.390	0.111	0.085
-97.859	-200.000	-0.058	-0.359
-96.845	166.673	-0.122	0.170
-95.830	-169.769	-0.227	0.008
-94.816	314.442	0.145	-0.270
-93.801	293.640	-0.114	-0.205
-92.786	-58.558	-0.126	-0.054
-91.772	359.953	-0.177	-0.350
-90.757	-200.000	0.023	-0.165
-89.743	-18.217	-0.291	-0.180
-88.728	-200.000	0.031	-0.344
-87.713	255.621	-0.156	-0.264
-86.699	-109.322	0.121	-0.025
-85.684	564.198	0.082	0.195
-84.670	-72.014	0.052	-0.019
-83.655	-35.080	0.219	0.118
-82.640	38.588	0.387	0.341
-81.626	-41.092	-0.353	0.180
-80.611	-200.000	0.017	-0.080
-79.597	800.000	-0.011	0.044
-78.582	-200.000	-0.017	0.193
-77.567	668.387	0.054	-0.139
-76.553	-131.596	-0.197	0.026
-75.538	-200.000	0.035	0.265
-74.524	136.268	-0.023	0.029
-73.509	98.370	-0.245	-0.278
-72.494	-200.000	0.041	-0.231
-71.480	-200.000	-0.046	0.248
-70.465	209.568	0.044	-0.068
-69.451	-200.000	0.088	-0.616
-68.436	120.449	-0.014	-0.018
-67.422	271.077	-0.194	0.337
-66.407	800.000	-0.106	0.358
-65.392	-200.000	-0.013	0.214
-64.378	217.729	0.013	0.020
-63.363	60.458	-0.184	-0.180
-62.349	196.038	-0.092	0.138
-61.334	52.104	-1.109	-1.041
-60.319	69.798	0.624	0.634
-59.305	229.205	-0.553	-0.889
-58.290	800.000	0.430	1.448
-57.276	-200.000	0.269	1.291
-56.261	-200.000	112.939	634.386
-55.246	514.126	1517.130	3487.953
-54.232	174.838	2694.625	3843.371
-53.217	99.918	2317.739	2646.408
-52.203	34.783	2064.597	1779.184
-51.188	30.175	1980.890	1665.704
-50.173	28.673	1964.704	1638.632
-49.159	45.993	2022.897	1844.550
-48.144	45.589	2038.566	1855.108
-47.130	30.673	1997.621	1684.015
-46.115	28.305	1987.144	1653.761
-45.100	28.149	1985.144	1650.626
-44.086	28.256	1981.904	1648.830
-43.071	28.190	1979.165	1645.894
-42.057	28.115	1977.770	1643.997
-41.042	28.178	1975.657	1642.738
-40.027	28.192	1974.386	1641.738
-39.013	28.203	1972.123	1639.893
-37.998	28.242	1970.365	1638.715
-36.984	28.256	1968.293	1637.051
-35.969	28.214	1966.488	1635.110
-34.954	28.193	1965.090	1633.698
-33.940	28.258	1963.480	1632.867
-32.925	28.307	1961.947	1631.971
-31.911	28.300	1960.109	1630.312
-30.896	28.308	1958.238	1628.761
-29.881	28.411	1956.703	1628.339
-28.867	28.346	1955.402	1626.611
-27.852	28.391	1953.584	1625.432
-26.838	28.376	1952.017	1623.930
-25.823	28.428	1950.216	1622.834
-24.809	28.351	1948.358	1620.542
-23.794	28.325	1946.874	1619.009
-22.779	28.289	1945.050	1617.112
-21.765	28.301	1943.361	1615.747
-20.750	28.330	1940.924	1613.914
-19.736	28.322	1940.285	1613.246
-18.721	28.338	1938.362	1611.725
-17.706	28.334	1936.763	1610.298
-16.692	28.386	1935.082	1609.291
-15.677	28.308	1933.892	1607.557
-14.663	28.316	1932.747	1606.610
-13.648	28.311	1931.575	1605.529
-12.633	28.307	1930.503	1604.541
-11.619	28.209	1928.841	1602.232
-10.604	28.224	1927.872	1601.498
-9.590	28.279	1925.847	1600.237
-8.575	28.256	1924.444	1598.806
-7.560	28.311	1923.356	1598.319
-6.546	28.292	1921.878	1596.856
-5.531	28.302	1920.810	1595.992
-4.517	28.379	1919.108	1595.185
-3.502	28.385	1918.101	1594.341
-2.487	28.267	1917.529	1592.778
-1.473	28.305	1916.188	1591.928
-0.458	28.385	1910.995	1588.244
0.556	29.658	1891.671	1559.555
1.571	25.298	1872.488	1507.089
2.586	21.211	1894.844	1490.140
3.600	20.025	1929.818	1507.205
4.615	19.587	1923.443	1498.294
5.629	15.546	1823.380	1386.916
6.644	7.839	1709.298	1240.164
7.659	3.950	1674.668	1185.187
8.673	3.664	1671.940	1180.963
9.688	3.670	1670.350	1179.783
10.702	3.785	1669.260	1179.787
11.717	3.671	1665.228	1175.966
12.731	4.125	1665.016	1179.169
13.746	9.426	1677.725	1228.623
14.761	17.873	1695.748	1306.648
15.775	22.478	1704.317	1348.475
16.790	23.138	1704.304	1353.394
17.804	22.345	1701.563	1345.043
18.819	21.534	1698.628	1336.413
19.834	21.109	1696.627	1331.474
20.848	20.937	1695.939	1329.506
21.863	20.978	1694.813	1328.816
22.877	20.919	1693.618	1327.314
23.892	20.800	1692.764	1325.621
24.907	20.688	1691.334	1323.535
25.921	20.628	1690.230	1322.096
26.936	20.625	1688.630	1320.705
27.950	20.691	1687.566	1320.257
28.965	20.569	1687.748	1319.359
29.980	20.728	1686.720	1319.641
30.994	20.853	1686.132	1320.015
32.009	21.108	1684.519	1320.566
33.023	21.134	1684.235	1320.423
34.038	21.102	1683.014	1319.107
35.053	21.029	1681.992	1317.635
36.067	20.948	1680.430	1315.681
37.082	20.800	1679.612	1313.812
38.096	20.795	1678.759	1312.989
39.111	20.815	1677.875	1312.335
40.126	20.896	1677.462	1312.503
41.140	20.899	1676.500	1311.656
42.155	20.663	1674.426	1308.146
43.169	20.395	1672.119	1304.216
44.184	20.252	1671.377	1302.449
45.199	20.249	1670.108	1301.318
46.213	20.234	1669.627	1300.714
47.228	20.426	1668.579	1301.223
48.242	20.612	1667.849	1301.934
49.257	20.798	1666.383	1302.060
50.271	20.682	1665.957	1300.750
51.286	20.663	1664.237	1299.152
52.301	20.597	1663.142	1297.685
53.315	20.636	1661.606	1296.660
54.330	20.602	1660.230	1295.220
55.344	20.408	1658.567	1292.364
56.359	20.309	1657.084	1290.357
57.374	20.399	1655.661	1289.809
58.388	20.283	1654.613	1288.018
59.403	20.243	1653.400	1286.659
60.417	20.192	1651.721	1284.860
61.432	20.059	1650.890	1283.119
62.447	20.021	1650.061	1282.079
63.461	19.995	1648.520	1280.578
64.476	19.965	1647.487	1279.440
65.490	19.889	1646.270	1277.815
66.505	19.903	1645.354	1277.098
67.520	19.878	1644.278	1275.962
68.534	19.859	1643.203	1274.880
69.549	19.929	1641.782	1274.179
70.563	19.928	1640.902	1273.375
71.578	19.771	1639.531	1271.043
72.593	19.715	1638.486	1269.710
73.607	19.640	1637.045	1267.931
74.622	19.579	1635.911	1266.494
75.636	19.737	1635.115	1266.921
76.651	19.800	1634.823	1267.049
77.666	19.712	1634.173	1265.782
78.680	19.791	1633.191	1265.494
79.695	19.934	1632.294	1265.730
80.709	19.883	1631.925	1264.955
81.724	19.975	1631.340	1265.068
82.739	20.167	1630.757	1265.906
83.753	20.409	1629.201	1266.350
84.768	20.480	1629.111	1266.683
85.782	20.697	1628.730	1267.854
86.797	20.810	1628.601	1268.470
87.812	20.940	1627.408	1268.372
88.826	20.981	1625.971	1267.435
89.841	20.712	1625.375	1264.909
90.855	20.735	1624.362	1264.175
91.870	20.745	1623.498	1263.463
92.884	20.879	1622.749	1263.738
93.899	20.951	1621.824	1263.427
94.914	21.079	1620.513	1263.222
95.928	20.995	1619.672	1261.846
96.943	21.099	1618.316	1261.430
97.957	21.053	1616.856	1259.848
98.972	20.946	1615.150	1257.635
99.987	20.894	1613.875	1256.155
101.001	20.894	1611.452	1254.159
102.016	21.004	1610.242	1253.898
103.030	20.914	1608.883	1252.081
104.045	20.904	1608.063	1251.264
105.060	20.937	1606.978	1250.543
106.074	20.865	1604.812	1248.233
107.089	20.543	1603.666	1244.927
108.103	20.151	1601.158	1240.067
109.118	19.942	1599.594	1237.250
110.133	19.862	1598.165	1235.465
111.147	19.904	1596.561	1234.411
112.162	19.922	1595.532	1233.635
113.176	19.989	1594.046	1232.857
114.191	20.015	1593.031	1232.150
115.206	20.031	1591.750	1231.164
116.220	20.229	1590.360	1231.386
117.235	20.135	1589.285	1229.771
118.249	20.077	1588.144	1228.369
119.264	20.036	1586.583	1226.762
120.279	19.893	1585.467	1224.783
121.293	19.823	1583.806	1222.895
122.308	19.835	1582.169	1221.611
123.322	19.657	1580.942	1219.299
124.337	19.567	1579.261	1217.258
125.352	19.580	1577.590	1215.957
126.366	19.497	1577.097	1214.882
127.381	19.468	1575.923	1213.667
128.395	19.481	1574.684	1212.699
129.410	19.489	1573.239	1211.533
130.424	19.418	1572.507	1210.360
131.439	19.562	1570.770	1209.925
132.454	19.739	1569.826	1210.336
133.468	19.880	1568.878	1210.484
134.483	19.900	1567.660	1209.577
135.497	19.978	1566.509	1209.121
136.512	20.055	1564.924	1208.329
137.527	20.046	1563.986	1207.440
138.541	19.972	1562.873	1205.954
139.556	20.108	1561.294	1205.576
140.570	20.197	1560.190	1205.236
141.585	20.368	1558.668	1205.140
142.600	20.464	1558.020	1205.202
143.614	20.636	1556.956	1205.462
144.629	20.813	1556.333	1206.101
145.643	20.856	1555.146	1205.371
146.658	20.847	1554.003	1204.312
147.673	20.742	1552.205	1202.092
148.687	20.578	1551.015	1199.927
149.702	20.310	1549.291	1196.644
150.716	20.247	1547.091	1194.401
151.731	20.163	1545.589	1192.558
152.746	20.137	1544.433	1191.382
153.760	19.968	1543.078	1189.071
154.775	20.178	1541.921	1189.517
155.789	20.325	1540.509	1189.331
156.804	20.427	1539.995	1189.524
157.819	20.428	1538.807	1188.511
158.833	20.508	1537.574	1187.997
159.848	20.613	1536.314	1187.637
160.862	20.712	1535.669	1187.713
161.877	20.953	1534.329	1188.214
162.892	20.555	1533.514	1184.761
163.906	20.195	1531.407	1180.582
164.921	20.005	1530.121	1178.194
165.935	19.949	1529.378	1177.136
166.950	20.024	1527.884	1176.389
167.964	20.176	1526.876	1176.539
168.979	20.219	1526.022	1176.068
169.994	20.262	1525.167	1175.602
171.008	20.180	1523.906	1173.972
172.023	20.177	1523.053	1173.186
173.037	20.308	1521.888	1173.070
174.052	20.490	1521.019	1173.529
175.067	20.652	1519.841	1173.606
176.081	20.462	1518.749	1171.380
177.096	20.066	1517.175	1167.397
178.110	20.008	1515.284	1165.446
179.125	20.013	1514.797	1165.001
180.140	20.113	1513.453	1164.535
181.154	20.192	1513.275	1164.827
182.169	20.441	1512.521	1165.818
183.183	20.423	1511.693	1164.956
184.198	20.584	1510.491	1165.000
185.213	20.612	1509.396	1164.245
186.227	20.695	1508.481	1163.991
187.242	20.743	1507.378	1163.357
188.256	20.742	1506.686	1162.710
189.271	20.777	1506.084	1162.379
190.286	20.946	1504.797	1162.407
191.300	20.869	1503.967	1161.153
192.315	20.491	1502.321	1157.266
193.329	20.045	1500.785	1153.010
194.344	20.098	1499.481	1152.259
195.359	20.265	1498.180	1152.267
196.373	20.178	1497.876	1151.349
197.388	20.237	1496.506	1150.589
198.402	20.324	1495.752	1150.486
199.417	20.469	1495.084	1150.830
200.432	20.899	1494.585	1153.191
201.446	20.997	1494.606	1153.754
202.461	21.134	1493.335	1153.575
203.475	21.214	1492.591	1153.423
204.490	21.235	1491.813	1152.859
205.504	21.107	1489.650	1150.241
206.519	20.754	1488.220	1146.714
207.534	20.567	1487.728	1144.999
208.548	20.449	1486.153	1142.913
209.563	20.517	1484.996	1142.367
210.577	20.531	1484.048	1141.626
211.592	20.536	1483.247	1140.944
212.607	20.586	1482.695	1140.746
213.621	20.881	1482.133	1142.145
214.636	20.966	1481.340	1141.992
215.650	20.831	1480.341	1140.236
216.665	20.817	1479.285	1139.230
217.680	20.958	1478.621	1139.539
218.694	21.182	1478.114	1140.510
219.709	21.273	1477.743	1140.722
220.723	21.240	1476.612	1139.530
221.738	21.095	1475.846	1137.896
222.753	21.050	1474.793	1136.685
223.767	21.085	1473.282	1135.650
224.782	20.860	1472.218	1133.268
225.796	20.990	1471.808	1133.698
226.811	21.242	1471.487	1134.986
227.826	21.273	1470.628	1134.425
228.840	21.128	1469.613	1132.601
229.855	20.915	1468.787	1130.482
230.869	20.873	1466.980	1128.717
231.884	20.930	1465.672	1127.980
232.899	20.824	1465.085	1126.745
233.913	20.693	1463.582	1124.643
234.928	20.566	1461.570	1122.178
235.942	20.609	1460.501	1121.530
236.957	20.425	1459.600	1119.553
237.972	20.372	1458.565	1118.320
238.986	20.428	1456.968	1117.360
240.001	20.406	1456.758	1116.956
241.015	20.460	1455.315	1116.100
242.030	20.566	1454.164	1115.797
243.045	20.608	1453.717	1115.624
244.059	20.774	1452.503	1115.661
245.074	20.839	1452.126	1115.685
246.088	20.848	1451.551	1115.205
247.103	20.949	1451.114	1115.415
248.117	21.077	1450.420	1115.604
249.132	21.213	1449.855	1115.939
250.147	21.418	1449.106	1116.573
251.161	21.657	1448.875	1117.821
252.176	21.853	1449.074	1119.130
253.190	22.069	1447.885	1119.486
254.205	22.093	1447.217	1119.027
255.220	22.097	1446.467	1118.370
256.234	22.256	1445.675	1118.671
257.249	22.185	1444.968	1117.572
258.263	22.172	1444.501	1117.033
259.278	22.085	1443.462	1115.573
260.293	21.982	1442.345	1113.962
261.307	22.091	1441.287	1113.736
262.322	22.156	1441.247	1114.016
263.336	22.199	1440.548	1113.652
264.351	22.219	1439.592	1112.942
265.366	22.176	1438.415	1111.658
266.380	22.180	1437.182	1110.632
267.395	22.224	1436.536	1110.314
268.409	22.233	1435.724	1109.642
269.424	22.139	1433.953	1107.585
270.439	21.934	1433.194	1105.613
271.453	21.908	1432.202	1104.581
272.468	21.794	1431.542	1103.262
273.482	21.830	1430.120	1102.294
274.497	21.545	1429.711	1100.086
275.512	21.458	1428.810	1098.751
276.526	21.559	1427.716	1098.449
277.541	21.645	1426.402	1097.878
278.555	21.626	1426.112	1097.440
279.570	21.699	1425.557	1097.372
280.585	21.917	1424.448	1097.784
281.599	22.121	1424.115	1098.705
282.614	22.277	1423.066	1098.775
283.628	22.135	1421.573	1096.641
284.643	21.777	1420.612	1093.564
285.657	21.651	1419.404	1091.758
286.672	21.747	1417.841	1091.055
287.687	21.691	1417.430	1090.291
288.701	21.848	1416.078	1090.132
289.716	21.789	1415.890	1089.522
290.730	21.790	1414.987	1088.736
291.745	21.791	1413.748	1087.696
292.760	21.877	1413.070	1087.611
293.774	21.788	1412.041	1086.174
294.789	21.918	1411.124	1086.177
295.803	22.065	1410.889	1086.809
296.818	22.224	1409.741	1086.810
297.833	22.044	1408.610	1084.731
298.847	21.857	1407.517	1082.640
299.862	21.830	1406.207	1081.369
300.876	21.799	1405.328	1080.404
301.891	21.825	1404.757	1080.031
302.906	21.852	1404.502	1079.903
303.920	21.972	1403.953	1080.123
304.935	22.297	1402.957	1081.263
305.949	22.254	1403.179	1081.073
306.964	22.486	1402.181	1081.634
307.979	22.506	1401.258	1080.949
308.993	22.409	1400.352	1079.560
310.008	22.350	1398.303	1077.524
311.022	22.354	1397.653	1076.949
312.037	22.394	1396.867	1076.495
313.052	22.377	1395.974	1075.606
314.066	22.305	1394.911	1074.257
315.081	22.050	1393.634	1071.622
316.095	21.905	1391.970	1069.363
317.110	21.688	1390.815	1067.057
318.125	21.682	1389.624	1066.013
319.139	21.690	1388.825	1065.353
320.154	21.647	1388.046	1064.401
321.168	21.684	1387.352	1063.999
322.183	21.744	1386.118	1063.323
323.197	21.761	1384.781	1062.306
324.212	21.771	1384.292	1061.901
325.227	21.850	1383.827	1061.929
326.241	21.904	1382.837	1061.402
327.256	21.894	1382.389	1060.901
328.270	21.987	1381.193	1060.451
329.285	21.852	1380.223	1058.797
330.300	21.817	1379.217	1057.719
331.314	21.805	1378.449	1056.965
332.329	21.925	1376.999	1056.484
333.343	21.815	1376.555	1055.389
334.358	21.787	1376.371	1054.987
335.373	21.936	1375.511	1055.126
336.387	22.168	1374.381	1055.559
337.402	22.311	1373.924	1055.976
338.416	22.352	1373.569	1055.857
339.431	22.363	1373.401	1055.698
340.446	22.406	1372.868	1055.454
341.460	22.484	1371.635	1054.880
342.475	22.592	1370.947	1054.903
343.489	22.915	1370.223	1056.184
344.504	22.906	1369.729	1055.657
345.519	23.038	1368.227	1055.190
346.533	22.997	1367.496	1054.288
347.548	23.034	1367.037	1054.064
348.562	23.214	1365.782	1054.073
349.577	23.018	1365.677	1052.734
350.592	22.840	1364.302	1050.519
351.606	22.602	1362.714	1047.794
352.621	22.433	1361.159	1045.500
353.635	22.189	1360.470	1043.433
354.650	22.088	1359.311	1041.849
355.665	22.079	1358.087	1040.766
356.679	22.190	1357.215	1040.661
357.694	22.300	1356.391	1040.593
358.708	22.454	1355.366	1040.620
359.723	22.502	1354.971	1040.508
360.738	22.630	1353.515	1040.056
361.752	22.575	1352.887	1039.157
362.767	22.469	1352.102	1037.837
363.781	22.512	1350.909	1037.084
364.796	22.506	1350.362	1036.537
365.810	22.750	1349.228	1037.007
366.825	22.979	1348.778	1037.917
367.840	23.043	1348.906	1038.298
368.854	23.250	1347.897	1038.643
369.869	23.340	1347.761	1038.973
370.883	23.341	1346.811	1038.158
371.898	23.278	1346.136	1037.174
372.913	23.082	1345.019	1035.076
373.927	22.890	1344.421	1033.401
374.942	22.943	1343.488	1032.900
375.956	23.079	1342.790	1033.068
376.971	23.213	1342.127	1033.251
377.986	23.131	1340.876	1031.714
379.000	22.944	1340.495	1030.238
380.015	23.188	1339.847	1031.072
381.029	23.365	1339.016	1031.376
382.044	23.528	1338.362	1031.725
383.059	23.520	1337.763	1031.127
384.073	23.507	1337.009	1030.376
385.088	23.339	1336.418	1028.855
386.102	23.403	1335.351	1028.319
387.117	23.555	1334.705	1028.608
388.132	23.259	1333.957	1026.227
389.146	23.018	1332.330	1023.485
390.161	22.864	1331.645	1021.979
391.175	22.924	1330.937	1021.694
392.190	22.791	1330.140	1020.221
393.205	22.915	1329.469	1020.334
394.219	23.199	1328.441	1021.092
395.234	23.317	1327.641	1021.066
396.248	23.207	1326.164	1019.211
397.263	22.994	1324.473	1016.595
398.278	23.029	1323.303	1015.808
399.292	22.818	1322.755	1014.082
400.307	22.809	1320.838	1012.471
401.321	22.684	1319.947	1010.982
402.336	22.682	1318.770	1009.982
403.350	22.603	1317.656	1008.590
404.365	22.556	1316.745	1007.531
405.380	22.613	1316.013	1007.209
406.394	22.800	1315.176	1007.546
407.409	22.975	1314.458	1007.903
408.423	23.028	1314.119	1007.860
409.438	23.273	1313.719	1008.860
410.453	23.469	1313.117	1009.425
411.467	23.446	1312.766	1008.933
412.482	23.554	1312.565	1009.305
413.496	23.600	1311.877	1008.947
414.511	23.631	1311.217	1008.526
415.526	23.768	1310.300	1008.509
416.540	23.742	1309.869	1007.942
417.555	24.027	1308.984	1008.788
418.569	24.058	1308.231	1008.293
419.584	23.916	1307.541	1006.867
420.599	23.686	1307.135	1005.166
421.613	145.894	1435.278	1796.979
422.628	141.437	1453.896	1797.105
