DTS Sentinel unit serial number:	SN413079Multiplexer serial number:	ORYXHardware model number:	OX4-SRSoftware version number:	ORYX F/W v4.00 Oryx Data Collector v3.7.2.0data status	okinstallation	princeton_trtdifferential loss correction	single-endedforward channel	channel 4reverse channel	N/Adate	2019/09/19time	10:41:35forward acquisition time	60.00reverse acquisition time	0.00gamma	496.2192k internal	0.2328k external	0.2328temperature offset calibration	1.0018default loss term (dB/km)	0.3790temperature slope calibration	1.0000multiplexer offset coefficient	1.0000multiplexer slope coefficient	1.0000fibre end	0.00T internal ref (°C)	24.56T ext. ref 1 (°C)	0.73T ext. ref 2 (°C)	20.13length (m)	temperature (°C)	Stokes	anti-Stokes-747.200	110.823	0.179	0.217
-746.185	222.511	-0.157	0.255
-745.171	-200.000	0.006	0.261
-744.156	119.182	0.103	0.129
-743.142	-200.000	0.020	0.166
-742.127	800.000	-0.077	0.272
-741.112	-134.758	0.423	0.052
-740.098	-176.349	-0.411	-0.011
-739.083	-200.000	-0.040	0.346
-738.069	188.426	0.357	0.538
-737.054	472.179	0.063	-0.142
-736.039	-136.326	-0.234	0.027
-735.025	137.627	-0.099	0.131
-734.010	-55.551	0.187	0.085
-732.996	800.000	-0.062	0.241
-731.981	-200.000	-0.027	-0.189
-730.966	-103.646	-0.286	-0.068
-729.952	-52.310	-0.336	0.157
-728.937	109.164	0.248	-0.299
-727.923	196.155	-0.132	0.203
-726.908	-200.000	-0.014	-0.089
-725.894	800.000	-0.072	-0.283
-724.879	131.919	0.072	-0.093
-723.864	-159.930	-0.198	-0.011
-722.850	-97.420	-0.216	-0.057
-721.835	-28.711	-0.189	0.109
-720.821	239.631	0.089	-0.150
-719.806	243.271	0.113	0.191
-718.791	800.000	-0.101	0.317
-717.777	-58.906	0.362	0.157
-716.762	-86.972	0.167	-0.051
-715.748	512.294	0.140	-0.329
-714.733	800.000	0.030	0.130
-713.718	800.000	-0.086	-0.341
-712.704	-179.880	0.216	-0.005
-711.689	173.744	0.118	-0.172
-710.675	34.557	-0.134	-0.118
-709.660	-101.935	0.274	-0.067
-708.645	-86.474	-0.210	-0.065
-707.631	158.843	0.088	0.123
-706.616	-7.386	0.173	0.118
-705.602	-75.926	0.087	0.031
-704.587	787.358	-0.140	-0.385
-703.572	11.994	-0.339	0.262
-702.558	-200.000	-0.030	-0.208
-701.543	273.858	0.120	-0.214
-700.529	-200.000	0.027	-0.166
-699.514	-171.893	-0.128	0.004
-698.499	56.909	0.230	0.226
-697.485	377.194	-0.139	0.286
-696.470	740.568	-0.119	-0.320
-695.456	-200.000	-0.019	-0.354
-694.441	-200.000	-0.002	-0.116
-693.426	-0.386	-0.203	-0.145
-692.412	-161.659	0.459	-0.024
-691.397	-200.000	-0.021	0.271
-690.383	-200.000	-0.037	0.226
-689.368	-15.039	-0.265	-0.171
-688.354	-13.847	-0.096	-0.062
-687.339	-200.000	0.051	-0.358
-686.324	-97.664	0.172	-0.045
-685.310	183.101	-0.222	-0.330
-684.295	96.524	-0.245	-0.282
-683.281	153.358	-0.222	-0.305
-682.266	45.569	-0.121	-0.112
-681.251	-58.934	-0.082	0.036
-680.237	-200.000	-0.000	0.073
-679.222	233.224	-0.174	-0.288
-678.208	72.736	-0.090	0.095
-677.193	-200.000	-0.013	0.121
-676.178	217.331	0.092	0.148
-675.164	357.945	-0.243	-0.488
-674.149	37.929	-0.113	-0.101
-673.135	96.907	-0.244	0.281
-672.120	-93.202	0.119	0.033
-671.105	-86.539	-0.032	0.010
-670.091	-17.486	-0.135	0.086
-669.076	-141.159	0.391	0.040
-668.062	25.591	0.056	-0.047
-667.047	61.703	-0.196	-0.196
-666.032	-138.561	-0.459	0.051
-665.018	282.239	-0.124	0.224
-664.003	-162.121	0.219	0.011
-662.989	607.865	0.081	0.202
-661.974	95.963	0.162	-0.186
-660.959	-108.074	0.136	0.030
-659.945	12.429	-0.421	0.326
-658.930	-126.956	-0.323	-0.048
-657.916	-115.172	0.413	-0.079
-656.901	92.279	0.137	0.155
-655.886	562.474	-0.108	0.263
-654.872	-164.336	-0.194	0.009
-653.857	-200.000	0.027	0.286
-652.843	-200.000	-0.006	-0.092
-651.828	-200.000	0.003	0.228
-650.814	14.494	-0.077	0.061
-649.799	202.604	0.065	0.101
-648.784	-120.180	0.265	0.046
-647.770	45.668	-0.249	-0.231
-646.755	-200.000	0.003	-0.350
-645.741	0.121	-0.407	-0.291
-644.726	-149.081	0.337	0.027
-643.711	37.817	0.181	0.161
-642.697	800.000	0.047	-0.130
-641.682	72.389	0.097	0.102
-640.668	-200.000	0.039	-0.188
-639.653	-142.278	-0.107	-0.011
-638.638	-19.176	0.160	-0.100
-637.624	-172.129	-0.246	0.008
-636.609	-105.537	0.468	-0.107
-635.595	-200.000	-0.036	-0.188
-634.580	188.246	0.103	-0.154
-633.565	262.055	-0.152	-0.265
-632.551	35.581	-0.247	0.218
-631.536	-45.558	0.308	0.153
-630.522	800.000	-0.062	-0.232
-629.507	-121.070	0.112	0.019
-628.492	-31.815	-0.176	-0.099
-627.478	27.253	-0.234	0.197
-626.463	46.017	-0.171	-0.159
-625.449	-39.615	0.056	0.029
-624.434	-200.000	0.006	-0.197
-623.419	800.000	-0.082	-0.286
-622.405	-123.044	-0.464	-0.075
-621.390	-200.000	0.012	0.108
-620.376	354.673	-0.161	-0.321
-619.361	396.532	0.163	-0.340
-618.346	485.151	-0.040	-0.091
-617.332	-78.263	0.218	-0.075
-616.317	56.979	0.276	-0.270
-615.303	305.163	0.112	-0.208
-614.288	800.000	0.039	-0.111
-613.273	733.513	-0.043	-0.116
-612.259	-30.569	0.136	0.077
-611.244	136.013	-0.096	-0.126
-610.230	-71.093	0.233	0.088
-609.215	-58.693	-0.177	0.077
-608.201	5.035	0.067	-0.049
-607.186	-66.926	0.220	-0.087
-606.171	-200.000	-0.018	0.123
-605.157	-17.478	-0.150	0.095
-604.142	-98.894	0.270	-0.069
-603.128	-200.000	0.034	0.175
-602.113	326.336	0.061	0.117
-601.098	-200.000	0.006	-0.119
-600.084	115.614	-0.057	0.069
-599.069	-99.817	0.159	-0.040
-598.055	800.000	-0.047	-0.190
-597.040	-146.513	0.515	-0.045
-596.025	-15.613	0.194	0.124
-595.011	-177.224	-0.433	0.011
-593.996	-69.741	0.302	0.116
-592.982	196.208	-0.242	0.370
-591.967	-137.550	-0.086	0.010
-590.952	123.916	0.101	0.127
-589.938	74.106	0.311	-0.327
-588.923	-127.167	-0.046	-0.007
-587.909	131.031	0.119	0.152
-586.894	-200.000	0.041	-0.328
-585.879	-22.986	-0.063	0.038
-584.865	-39.520	0.201	0.105
-583.850	185.388	0.223	-0.331
-582.836	52.771	0.101	-0.096
-581.821	-44.771	0.205	0.102
-580.806	12.801	-0.304	-0.235
-579.792	-200.000	0.009	0.204
-578.777	-128.271	-0.334	-0.048
-577.763	219.787	0.073	-0.117
-576.748	-48.341	-0.242	-0.117
-575.733	17.242	0.245	0.195
-574.719	-200.000	0.212	0.001
-573.704	239.380	-0.075	0.124
-572.690	110.718	0.309	0.372
-571.675	536.827	0.077	0.182
-570.661	-169.042	0.176	-0.007
-569.646	110.407	0.259	-0.312
-568.631	-130.352	0.098	-0.013
-567.617	72.707	0.079	0.082
-566.602	176.316	0.086	-0.124
-565.588	-63.386	-0.218	0.090
-564.573	800.000	0.012	0.053
-563.558	556.250	0.151	-0.365
-562.544	-112.129	0.194	0.039
-561.529	42.597	0.273	-0.248
-560.515	-200.000	0.015	-0.191
-559.500	-200.000	-0.105	0.000
-558.485	171.113	-0.183	0.262
-557.471	368.405	0.066	-0.133
-556.456	-109.308	0.200	0.042
-555.442	52.755	0.227	-0.217
-554.427	-115.169	-0.189	-0.036
-553.412	379.343	0.116	-0.237
-552.398	-141.708	-0.067	-0.007
-551.383	-200.000	0.040	0.293
-550.369	800.000	0.043	0.135
-549.354	35.045	-0.211	-0.185
-548.339	-148.657	-0.329	0.027
-547.325	-186.581	-0.247	-0.004
-546.310	-90.607	0.243	-0.070
-545.296	-150.352	-0.037	0.003
-544.281	-200.000	-0.017	-0.244
-543.266	525.663	0.025	-0.059
-542.252	-128.260	0.391	0.056
-541.237	-122.235	0.107	0.018
-540.223	-200.000	-0.013	0.193
-539.208	-58.840	0.158	0.068
-538.193	396.911	0.120	-0.250
-537.179	-200.000	-0.008	0.041
-536.164	-114.087	-0.126	-0.024
-535.150	-200.000	-0.009	0.266
-534.135	-96.074	-0.511	-0.136
-533.121	774.330	-0.015	0.041
-532.106	-126.080	-0.345	0.052
-531.091	-200.000	0.059	0.379
-530.077	230.005	-0.154	0.251
-529.062	-76.229	-0.326	-0.115
-528.048	166.869	0.153	-0.217
-527.033	-200.000	0.211	0.000
-526.018	236.104	0.148	-0.245
-525.004	2.941	-0.082	-0.060
-523.989	-81.670	0.424	-0.139
-522.975	-200.000	0.018	0.296
-521.960	195.115	0.079	0.119
-520.945	-200.000	0.029	0.195
-519.931	-141.250	0.075	0.008
-518.916	76.208	-0.119	-0.126
-517.902	141.642	-0.102	0.135
-516.887	-200.000	-0.005	-0.091
-515.872	-200.000	-0.021	0.190
-514.858	132.297	-0.161	0.207
-513.843	-200.000	0.010	0.315
-512.829	6.645	0.086	-0.064
-511.814	60.033	0.257	0.254
-510.799	-19.451	-0.113	0.070
-509.785	328.798	0.041	-0.078
-508.770	60.006	-0.195	-0.193
-507.756	-138.412	0.582	-0.064
-506.741	-6.904	-0.194	0.132
-505.726	-200.000	0.011	-0.172
-504.712	192.510	-0.182	-0.274
-503.697	800.000	-0.086	0.258
-502.683	-154.485	-0.631	0.042
-501.668	-88.934	0.107	-0.032
-500.653	130.039	-0.163	0.208
-499.639	800.000	0.081	-0.275
-498.624	800.000	0.074	-0.224
-497.610	-102.643	0.213	0.051
-496.595	22.494	0.067	0.054
-495.581	160.103	-0.022	0.031
-494.566	-7.296	0.263	0.178
-493.551	-200.000	-0.078	-0.472
-492.537	622.179	0.036	0.090
-491.522	-44.142	-0.137	0.068
-490.508	41.357	0.026	0.024
-489.493	-187.568	-0.295	-0.004
-488.478	-64.345	-0.106	-0.043
-487.464	145.096	-0.088	-0.117
-486.449	103.859	-0.201	0.235
-485.435	-105.046	0.144	0.033
-484.420	26.335	0.205	0.171
-483.405	-200.000	0.004	-0.167
-482.391	-120.784	0.050	0.008
-481.376	87.301	-0.048	-0.053
-480.362	170.631	0.199	-0.285
-479.347	273.709	-0.134	-0.237
-478.332	479.296	-0.079	0.179
-477.318	-92.875	-0.390	0.109
-476.303	9.577	0.250	0.189
-475.289	-9.087	-0.287	-0.192
-474.274	-200.000	0.011	-0.296
-473.259	-172.289	-0.040	0.001
-472.245	800.000	-0.052	-0.221
-471.230	-19.782	0.096	0.059
-470.216	159.591	0.280	-0.389
-469.201	-187.711	-0.298	-0.004
-468.186	-114.247	-0.163	-0.031
-467.172	-22.701	-0.228	-0.137
-466.157	-29.658	-0.238	-0.135
-465.143	800.000	0.068	-0.203
-464.128	-200.000	-0.009	-0.093
-463.113	358.540	-0.149	-0.296
-462.099	-12.012	-0.333	0.217
-461.084	-99.972	0.234	-0.058
-460.070	-149.013	0.138	-0.011
-459.055	-149.563	0.091	-0.007
-458.040	-35.074	0.310	0.169
-457.026	800.000	0.084	-0.246
-456.011	800.000	0.051	-0.202
-454.997	-145.303	-0.317	-0.029
-453.982	-35.746	-0.123	-0.066
-452.968	-200.000	0.035	0.161
-451.953	209.365	-0.041	0.064
-450.938	-28.089	-0.394	0.227
-449.924	-124.530	0.089	0.014
-448.909	83.963	0.231	-0.252
-447.895	246.611	0.074	0.124
-446.880	-54.659	-0.170	0.076
-445.865	-57.192	0.299	-0.131
-444.851	-19.004	0.487	0.302
-443.836	107.156	0.183	-0.217
-442.822	-38.403	-0.206	-0.108
-441.807	-75.524	-0.073	0.026
-440.792	-74.760	-0.191	-0.068
-439.778	-200.000	0.025	-0.325
-438.763	206.526	-0.013	0.021
-437.749	-78.278	-0.258	0.088
-436.734	-80.695	0.035	0.012
-435.719	-43.638	-0.226	0.113
-434.705	672.102	0.148	-0.383
-433.690	668.718	-0.066	-0.171
-432.676	26.910	-0.060	0.050
-431.661	-200.000	0.051	-0.259
-430.646	46.896	0.399	-0.370
-429.632	-104.591	-0.388	-0.089
-428.617	490.160	-0.088	-0.200
-427.603	-67.081	0.266	-0.105
-426.588	-200.000	-0.023	-0.259
-425.573	28.783	-0.081	0.068
-424.559	-13.504	0.281	0.181
-423.544	-7.881	0.094	0.063
-422.530	58.015	-0.303	0.296
-421.515	310.942	-0.152	-0.283
-420.500	158.809	-0.112	0.155
-419.486	-200.000	-0.022	0.231
-418.471	20.697	-0.322	-0.259
-417.457	-117.204	-0.191	-0.035
-416.442	36.052	-0.139	0.121
-415.428	-186.554	-0.206	-0.003
-414.413	-127.602	-0.217	-0.031
-413.398	256.756	0.077	-0.132
-412.384	800.000	-0.060	0.166
-411.369	-200.000	-0.047	-0.251
-410.355	48.494	-0.048	0.045
-409.340	4.848	0.201	0.147
-408.325	43.111	0.091	-0.083
-407.311	134.110	-0.039	-0.050
-406.296	-200.000	0.004	0.407
-405.282	800.000	-0.069	0.226
-404.267	-85.802	-0.222	-0.068
-403.252	17.774	0.141	0.112
-402.238	-106.709	0.495	-0.109
-401.223	-9.799	0.177	-0.117
-400.209	296.026	-0.036	0.066
-399.194	278.671	-0.166	0.295
-398.179	-158.901	0.124	-0.007
-397.165	800.000	-0.082	0.313
-396.150	-56.681	0.379	-0.167
-395.136	-200.000	0.063	0.413
-394.121	800.000	0.042	0.165
-393.106	800.000	-0.014	0.049
-392.092	-200.000	0.046	0.240
-391.077	-85.843	0.194	-0.060
-390.063	800.000	0.089	-0.343
-389.048	93.898	0.145	-0.163
-388.033	-10.922	0.141	-0.093
-387.019	380.072	0.039	0.080
-386.004	-200.000	-0.002	-0.218
-384.990	211.809	0.077	0.120
-383.975	800.000	-0.087	0.288
-382.960	717.660	-0.072	-0.191
-381.946	-169.260	0.244	-0.009
-380.931	-55.340	-0.078	-0.035
-379.917	149.180	0.070	-0.094
-378.902	203.677	-0.073	0.112
-377.888	37.088	0.174	-0.153
-376.873	-98.676	0.088	-0.022
-375.858	3.719	-0.278	0.201
-374.844	-200.000	0.002	0.109
-373.829	-200.000	0.008	0.117
-372.815	-200.000	0.035	0.198
-371.800	-20.048	-0.133	0.082
-370.785	93.853	-0.192	0.216
-369.771	-200.000	0.039	-0.284
-368.756	-99.525	0.150	-0.037
-367.742	379.391	0.126	0.256
-366.727	154.824	-0.039	0.054
-365.712	-200.000	-0.074	0.330
-364.698	-116.606	-0.191	-0.035
-363.683	547.411	0.074	-0.177
-362.669	-7.688	0.188	0.126
-361.654	-200.000	0.003	-0.294
-360.639	-65.677	0.374	-0.149
-359.625	-110.224	0.265	0.055
-358.610	-58.120	0.278	-0.120
-357.596	-63.318	0.158	0.064
-356.581	161.677	0.085	0.119
-355.566	-15.175	0.276	0.176
-354.552	-27.009	-0.221	-0.128
-353.537	-47.945	-0.126	0.060
-352.523	356.097	-0.083	0.163
-351.508	800.000	-0.024	-0.071
-350.493	-89.821	0.454	-0.132
-349.479	-200.000	0.052	0.352
-348.464	-32.888	-0.344	0.189
-347.450	-200.000	0.011	-0.052
-346.435	296.886	0.088	0.160
-345.420	534.531	0.099	0.234
-344.406	75.023	-0.219	0.229
-343.391	473.517	0.026	-0.058
-342.377	232.491	-0.090	0.147
-341.362	37.305	-0.174	0.153
-340.348	377.347	-0.038	0.076
-339.333	-87.429	0.164	-0.049
-338.318	-200.000	-0.008	-0.185
-337.304	800.000	-0.114	-0.323
-336.289	-135.680	-0.108	-0.013
-335.275	773.198	0.082	0.222
-334.260	-135.908	-0.249	-0.029
-333.245	206.437	-0.193	-0.298
-332.231	574.892	0.054	-0.130
-331.216	-200.000	-0.014	0.109
-330.202	-200.000	0.001	0.031
-329.187	-79.437	-0.226	0.076
-328.172	-94.475	-0.192	0.052
-327.158	-200.000	-0.010	-0.083
-326.143	-200.000	-0.002	0.096
-325.129	33.405	-0.283	0.244
-324.114	-110.706	-0.100	-0.020
-323.099	-46.791	-0.238	-0.115
-322.085	44.220	-0.170	0.155
-321.070	-120.648	0.231	0.039
-320.056	53.042	-0.080	-0.076
-319.041	-200.000	0.062	-0.385
-318.026	-67.986	-0.302	-0.117
-317.012	-110.735	-0.041	-0.008
-315.997	-1.032	-0.157	0.110
-314.983	-68.123	0.165	-0.064
-313.968	-200.000	-0.057	0.579
-312.953	-200.000	0.012	0.063
-311.939	307.263	-0.092	0.170
-310.924	430.262	-0.041	-0.088
-309.910	-8.347	0.155	0.104
-308.895	66.988	-0.078	0.079
-307.880	-50.987	-0.093	0.043
-306.866	-143.734	-0.170	0.016
-305.851	-16.051	0.273	0.172
-304.837	800.000	-0.134	0.391
-303.822	-110.701	-0.357	0.073
-302.807	-200.000	-0.029	0.174
-301.793	-109.940	-0.191	0.040
-300.778	285.483	0.055	0.097
-299.764	-38.272	0.121	-0.064
-298.749	800.000	0.123	0.488
-297.735	-200.000	0.063	-0.318
-296.720	339.593	-0.008	-0.016
-295.705	211.404	-0.165	-0.257
-294.691	127.696	-0.303	-0.381
-293.676	341.210	-0.177	0.342
-292.662	637.198	-0.055	-0.138
-291.647	800.000	0.060	-0.178
-290.632	-60.862	-0.248	0.104
-289.618	102.020	0.258	-0.298
-288.603	-200.000	0.039	-0.175
-287.589	800.000	-0.126	-0.362
-286.574	-200.000	-0.005	0.038
-285.559	-82.994	0.190	-0.061
-284.545	83.522	0.029	0.031
-283.530	-17.811	-0.193	-0.120
-282.516	4.453	0.101	-0.073
-281.501	-48.321	0.083	-0.039
-280.486	38.872	-0.193	0.171
-279.472	800.000	-0.055	-0.159
-278.457	-82.903	0.197	0.063
-277.443	-47.077	0.218	-0.105
-276.428	-28.592	-0.273	0.155
-275.413	197.675	0.042	0.064
-274.399	10.378	0.131	-0.099
-273.384	231.236	0.187	0.302
-272.370	-11.544	-0.038	0.025
-271.355	15.013	0.263	0.204
-270.340	-52.329	0.055	0.025
-269.326	-138.954	0.110	0.012
-268.311	60.761	-0.140	-0.138
-267.297	-70.558	0.230	-0.086
-266.282	-54.063	-0.197	0.088
-265.267	-94.819	-0.455	-0.122
-264.253	106.514	-0.135	0.159
-263.238	-25.928	0.085	0.049
-262.224	133.994	-0.171	0.220
-261.209	-126.798	-0.049	-0.007
-260.195	-122.670	0.278	0.045
-259.180	136.048	-0.010	0.013
-258.165	-55.653	0.161	0.071
-257.151	-200.000	-0.041	-0.294
-256.136	103.538	0.095	-0.110
-255.122	-108.077	-0.131	0.028
-254.107	149.776	-0.249	0.334
-253.092	-33.495	0.347	0.190
-252.078	800.000	-0.054	-0.185
-251.063	141.698	0.117	-0.154
-250.049	600.581	0.195	0.479
-249.034	-200.000	0.028	0.448
-248.019	448.304	0.131	0.284
-247.005	-68.360	0.257	-0.099
-245.990	-75.403	0.145	0.051
-244.976	-200.000	0.005	0.093
-243.961	223.956	0.157	-0.250
-242.946	-200.000	-0.008	-0.151
-241.932	-110.950	0.175	-0.035
-240.917	-36.413	-0.126	-0.067
-239.903	200.502	-0.167	0.254
-238.888	224.651	-0.076	-0.122
-237.873	534.888	0.163	-0.381
-236.859	-88.362	-0.349	0.103
-235.844	-15.102	0.074	0.047
-234.830	-60.836	-0.088	-0.037
-233.815	-200.000	0.019	-0.156
-232.800	-16.253	-0.201	0.126
-231.786	284.918	0.046	-0.083
-230.771	7.607	0.060	-0.045
-229.757	-200.000	-0.015	-0.084
-228.742	44.603	0.158	0.144
-227.727	-107.591	-0.237	-0.051
-226.713	-200.000	0.016	0.336
-225.698	443.040	0.174	-0.376
-224.684	-97.423	0.068	-0.018
-223.669	-38.248	-0.259	0.136
-222.655	150.504	0.088	0.119
-221.640	-45.153	-0.104	-0.051
-220.625	-200.000	0.017	-0.119
-219.611	488.900	0.029	-0.065
-218.596	77.645	0.140	0.147
-217.582	-118.135	0.389	0.069
-216.567	800.000	0.081	0.247
-215.552	208.318	-0.232	0.357
-214.538	54.349	0.081	-0.077
-213.523	612.308	0.121	0.298
-212.509	-92.178	0.200	-0.056
-211.494	-25.085	-0.229	0.134
-210.479	800.000	-0.073	-0.206
-209.465	30.058	-0.139	0.117
-208.450	-200.000	0.016	0.180
-207.436	353.732	0.088	0.172
-206.421	97.102	-0.302	0.342
-205.406	100.888	-0.276	0.316
-204.392	-21.101	-0.124	-0.075
-203.377	288.273	-0.122	0.218
-202.363	-185.316	0.305	0.005
-201.348	-55.578	-0.154	-0.068
-200.333	284.252	-0.195	-0.347
-199.319	-194.391	-0.232	-0.002
-198.304	-200.000	0.005	-0.064
-197.290	22.665	0.072	-0.058
-196.275	-118.675	0.205	-0.036
-195.260	-143.186	0.057	-0.005
-194.246	135.146	-0.076	-0.097
-193.231	100.733	0.224	0.257
-192.217	-126.854	0.281	-0.041
-191.202	-200.000	0.099	-0.475
-190.187	7.999	-0.243	-0.180
-189.173	-70.333	0.328	0.123
-188.158	-97.393	0.147	0.038
-187.144	-42.674	0.119	0.060
-186.129	92.499	-0.109	0.121
-185.114	332.829	-0.090	-0.172
-184.100	-69.723	-0.083	0.031
-183.085	383.257	0.067	0.136
-182.071	-102.212	0.138	0.033
-181.056	800.000	-0.077	-0.316
-180.042	-11.130	0.106	-0.069
-179.027	95.681	0.062	0.070
-178.012	-102.269	0.194	0.046
-176.998	10.608	0.160	0.120
-175.983	-56.174	-0.406	-0.178
-174.969	-78.120	-0.022	-0.007
-173.954	372.281	-0.069	0.139
-172.939	800.000	0.006	-0.020
-171.925	-172.519	-0.150	-0.005
-170.910	-200.000	0.011	-0.341
-169.896	-7.147	-0.120	-0.080
-168.881	-200.000	0.001	0.169
-167.866	464.476	-0.123	-0.272
-166.852	-200.000	-0.019	0.097
-165.837	213.204	-0.287	0.447
-164.823	-81.642	0.163	0.053
-163.808	-14.749	-0.210	0.133
-162.793	116.677	-0.252	0.305
-161.779	-200.000	-0.002	0.475
-160.764	1.278	0.147	-0.104
-159.750	-42.110	-0.238	0.120
-158.735	212.110	0.258	-0.400
-157.720	64.638	-0.079	-0.079
-156.706	40.422	0.236	0.210
-155.691	-128.090	-0.243	-0.034
-154.677	-70.006	-0.143	0.054
-153.662	119.210	0.142	0.173
-152.647	119.515	-0.104	0.127
-151.633	-124.888	-0.370	0.056
-150.618	-180.959	0.004	0.000
-149.604	268.682	-0.084	-0.145
-148.589	711.160	0.038	0.099
-147.574	-63.694	0.327	0.132
-146.560	-200.000	0.067	-0.314
-145.545	145.065	-0.129	-0.170
-144.531	-6.348	-0.250	-0.168
-143.516	-200.000	-0.008	0.172
-142.502	-98.679	0.164	-0.041
-141.487	-48.142	0.196	0.093
-140.472	-147.669	0.188	0.016
-139.458	146.708	0.205	0.271
-138.443	149.250	-0.034	0.045
-137.429	22.525	0.164	-0.132
-136.414	-62.313	-0.193	-0.079
-135.399	-87.684	0.102	0.030
-134.385	109.798	0.170	-0.200
-133.370	-27.834	-0.191	0.109
-132.356	-45.468	-0.243	0.118
-131.341	800.000	-0.037	0.132
-130.326	-57.647	-0.057	-0.025
-129.312	-200.000	-0.025	0.273
-128.297	-200.000	-0.047	0.296
-127.283	800.000	0.079	0.276
-126.268	10.653	-0.271	0.203
-125.253	320.427	0.136	-0.254
-124.239	148.876	0.002	-0.003
-123.224	0.933	0.350	0.247
-122.210	284.195	0.245	-0.433
-121.195	44.630	0.237	-0.214
-120.180	-108.704	0.161	-0.034
-119.166	75.783	0.180	-0.187
-118.151	44.286	-0.258	-0.232
-117.137	67.126	-0.087	-0.087
-116.122	-119.164	-0.340	-0.058
-115.107	86.770	0.008	0.009
-114.093	-102.561	0.150	-0.035
-113.078	40.020	0.213	0.188
-112.064	434.461	-0.147	-0.313
-111.049	109.394	0.112	0.132
-110.034	800.000	-0.097	0.276
-109.020	138.213	0.140	-0.181
-108.005	-200.000	-0.059	-0.319
-106.991	270.232	-0.140	-0.241
-105.976	-200.000	0.024	0.154
-104.962	-200.000	-0.019	0.081
-103.947	-22.981	0.167	0.099
-102.932	68.071	0.098	-0.098
-101.918	327.105	0.078	-0.148
-100.903	317.260	0.096	-0.178
-99.889	-112.953	-0.282	-0.055
-98.874	169.245	0.114	-0.160
-97.859	126.935	-0.074	-0.092
-96.845	210.495	-0.093	0.143
-95.830	-88.797	0.139	0.040
-94.816	-97.878	0.077	-0.020
-93.801	184.325	-0.072	0.105
-92.786	-13.809	-0.061	0.038
-91.772	72.526	-0.272	0.279
-90.757	-200.000	-0.020	0.125
-89.743	-115.859	0.306	-0.056
-88.728	136.944	0.191	-0.246
-87.713	800.000	-0.028	0.096
-86.699	-100.514	0.196	-0.048
-85.684	35.683	0.175	-0.151
-84.670	800.000	0.039	0.125
-83.655	48.334	-0.287	0.264
-82.640	-128.639	-0.204	0.028
-81.626	35.832	0.109	0.095
-80.611	-200.000	0.049	-0.241
-79.597	-38.841	-0.502	-0.260
-78.582	-82.659	0.182	0.058
-77.567	119.815	0.133	-0.161
-76.553	177.541	-0.117	0.168
-75.538	-68.437	0.227	0.087
-74.524	441.697	-0.040	0.085
-73.509	-200.000	-0.012	0.123
-72.494	215.321	0.103	-0.161
-71.480	-156.819	-0.213	0.013
-70.465	398.842	0.124	-0.254
-69.451	-200.000	-0.053	0.293
-68.436	800.000	0.075	-0.302
-67.422	85.494	0.073	0.078
-66.407	-200.000	0.006	0.275
-65.392	-127.162	-0.405	-0.058
-64.378	-80.190	0.122	0.040
-63.363	-157.766	0.103	0.006
-62.349	42.350	0.274	0.244
-61.334	81.466	-1.195	-1.268
-60.319	106.134	0.596	0.693
-59.305	-200.000	-0.054	-1.165
-58.290	451.221	0.450	0.975
-57.276	298.939	0.891	1.609
-56.261	-200.000	121.919	620.249
-55.246	377.087	1579.491	3165.239
-54.232	136.392	2761.363	3533.544
-53.217	86.269	2363.666	2554.310
-52.203	31.036	2103.068	1768.690
-51.188	26.295	2017.150	1653.111
-50.173	25.003	2000.987	1628.067
-49.159	41.904	2068.500	1840.102
-48.144	40.584	2083.474	1841.100
-47.130	26.727	2036.529	1672.715
-46.115	24.603	2025.483	1644.053
-45.100	24.484	2022.759	1640.685
-44.086	24.480	2020.219	1638.528
-43.071	24.398	2017.767	1635.718
-42.057	24.395	2015.426	1633.726
-41.042	24.461	2013.531	1632.728
-40.027	24.474	2011.712	1631.308
-39.013	24.444	2009.795	1629.419
-37.998	24.453	2008.440	1628.339
-36.984	24.421	2006.552	1626.448
-35.969	24.484	2004.047	1624.929
-34.954	24.488	2002.979	1624.038
-33.940	24.553	2000.475	1622.529
-32.925	24.607	1999.547	1622.201
-31.911	24.511	1997.849	1619.889
-30.896	24.513	1996.235	1618.540
-29.881	24.493	1995.137	1617.400
-28.867	24.625	1993.240	1616.993
-27.852	24.620	1991.564	1615.523
-26.838	24.564	1989.416	1613.210
-25.823	24.634	1987.478	1612.204
-24.809	24.614	1985.783	1610.590
-23.794	24.553	1984.485	1608.918
-22.779	24.572	1982.343	1607.290
-21.765	24.620	1980.312	1606.013
-20.750	24.621	1978.509	1604.498
-19.736	24.670	1976.786	1603.474
-18.721	24.623	1976.271	1602.576
-17.706	24.612	1974.516	1600.988
-16.692	24.622	1972.350	1599.253
-15.677	24.654	1970.712	1598.149
-14.663	24.602	1969.239	1596.431
-13.648	24.558	1968.004	1594.969
-12.633	24.588	1966.907	1594.282
-11.619	24.548	1966.353	1593.416
-10.604	24.516	1964.599	1591.650
-9.590	24.597	1962.882	1590.918
-8.575	24.563	1961.750	1589.631
-7.560	24.609	1960.455	1588.926
-6.546	24.628	1959.040	1587.886
-5.531	24.568	1957.836	1586.315
-4.517	24.633	1956.669	1585.880
-3.502	24.562	1955.413	1584.172
-2.487	24.579	1953.910	1583.046
-1.473	24.627	1953.121	1582.769
-0.458	24.703	1948.035	1579.250
0.556	23.443	1928.662	1552.075
1.571	19.468	1910.134	1502.497
2.586	15.611	1933.959	1487.028
3.600	14.670	1969.110	1505.440
4.615	14.428	1963.132	1498.564
5.629	11.430	1862.099	1395.713
6.644	4.787	1745.750	1254.980
7.659	1.031	1712.218	1201.027
8.673	0.803	1709.217	1197.014
9.688	0.762	1708.132	1195.826
10.702	0.716	1706.665	1194.330
11.717	0.648	1702.447	1190.737
12.731	1.125	1700.943	1193.331
13.746	5.945	1712.457	1239.427
14.761	12.944	1726.229	1304.828
15.775	16.614	1731.528	1337.782
16.790	17.104	1732.152	1342.018
17.804	16.274	1728.911	1332.842
18.819	15.318	1725.682	1322.700
19.834	14.724	1723.061	1315.892
20.848	14.417	1721.756	1312.362
21.863	14.300	1719.361	1309.503
22.877	14.007	1717.985	1306.036
23.892	13.774	1716.746	1303.146
24.907	13.606	1715.600	1300.841
25.921	13.622	1714.565	1300.070
26.936	13.574	1713.294	1298.610
27.950	13.697	1712.169	1298.608
28.965	13.706	1712.560	1298.858
29.980	13.696	1711.648	1297.975
30.994	13.755	1710.456	1297.418
32.009	13.775	1709.305	1296.591
33.023	13.902	1708.095	1296.547
34.038	13.767	1708.340	1295.560
35.053	13.788	1706.732	1294.391
36.067	13.731	1705.718	1293.066
37.082	13.802	1704.587	1292.648
38.096	13.700	1703.845	1291.178
39.111	13.793	1702.636	1290.865
40.126	13.760	1701.936	1289.967
41.140	13.792	1700.967	1289.369
42.155	13.773	1699.389	1287.906
43.169	13.709	1697.843	1286.131
44.184	13.650	1697.370	1285.196
45.199	13.596	1695.692	1283.395
46.213	13.633	1694.373	1282.571
47.228	13.649	1692.976	1281.519
48.242	13.596	1692.192	1280.405
49.257	13.670	1690.997	1279.958
50.271	13.670	1689.610	1278.799
51.286	13.737	1688.304	1278.212
52.301	13.728	1686.958	1277.010
53.315	13.708	1685.284	1275.478
54.330	13.609	1684.126	1273.726
55.344	13.674	1682.214	1272.663
56.359	13.631	1680.911	1271.237
57.374	13.646	1679.932	1270.496
58.388	13.600	1678.866	1269.230
59.403	13.564	1677.514	1267.819
60.417	13.625	1675.651	1266.769
61.432	13.543	1674.945	1265.497
62.447	13.580	1673.729	1264.742
63.461	13.539	1672.653	1263.510
64.476	13.532	1671.227	1262.267
65.490	13.623	1670.002	1261.918
66.505	13.492	1668.819	1259.921
67.520	13.565	1667.846	1259.628
68.534	13.577	1666.702	1258.746
69.549	13.644	1665.019	1257.870
70.563	13.652	1663.748	1256.854
71.578	13.613	1662.790	1255.732
72.593	13.630	1661.547	1254.810
73.607	13.473	1661.109	1253.176
74.622	13.459	1659.668	1251.873
75.636	13.532	1658.337	1251.312
76.651	13.546	1657.383	1250.581
77.666	13.494	1656.756	1249.608
78.680	13.504	1655.634	1248.724
79.695	13.541	1654.623	1248.133
80.709	13.482	1653.903	1247.035
81.724	13.510	1653.069	1246.508
82.739	13.558	1652.106	1246.031
83.753	13.713	1650.595	1245.948
84.768	13.624	1649.342	1244.219
85.782	13.640	1648.848	1243.857
86.797	13.746	1647.943	1243.865
87.812	13.729	1647.316	1243.150
88.826	13.731	1644.970	1241.282
89.841	13.669	1644.644	1240.463
90.855	13.664	1643.330	1239.326
91.870	13.617	1642.722	1238.404
92.884	13.690	1641.249	1237.730
93.899	13.694	1640.172	1236.838
94.914	13.746	1638.731	1236.029
95.928	13.774	1637.671	1235.332
96.943	13.721	1636.645	1234.051
97.957	13.734	1635.288	1233.017
98.972	13.681	1633.684	1231.305
99.987	13.750	1631.947	1230.397
101.001	13.653	1630.545	1228.515
102.016	13.789	1629.027	1228.270
103.030	13.669	1627.823	1226.366
104.045	13.736	1626.311	1225.615
105.060	13.713	1625.162	1224.470
106.074	13.749	1623.368	1223.274
107.089	13.665	1621.712	1221.298
108.103	13.631	1620.360	1219.921
109.118	13.615	1618.984	1218.661
110.133	13.582	1617.361	1217.087
111.147	13.528	1616.196	1215.706
112.162	13.639	1614.962	1215.487
113.176	13.615	1613.268	1213.929
114.191	13.677	1612.125	1213.415
115.206	13.696	1610.509	1212.233
116.220	13.667	1609.237	1210.954
117.235	13.642	1608.022	1209.752
118.249	13.639	1606.596	1208.548
119.264	13.692	1604.796	1207.472
120.279	13.709	1603.347	1206.401
121.293	13.733	1602.368	1205.731
122.308	13.617	1601.048	1203.787
123.322	13.672	1599.201	1202.694
124.337	13.600	1597.954	1201.125
125.352	13.648	1596.721	1200.439
126.366	13.631	1595.382	1199.204
127.381	13.650	1594.426	1198.514
128.395	13.644	1592.812	1197.155
129.410	13.563	1591.746	1195.662
130.424	13.622	1590.136	1194.771
131.439	13.616	1589.152	1193.890
132.454	13.599	1588.116	1192.881
133.468	13.639	1586.387	1191.765
134.483	13.723	1584.547	1190.874
135.497	13.783	1582.826	1189.909
136.512	13.725	1581.715	1188.557
137.527	13.735	1581.035	1188.010
138.541	13.770	1579.212	1186.786
139.556	13.755	1577.507	1185.293
140.570	13.739	1576.352	1184.205
141.585	13.819	1574.735	1183.457
142.600	13.864	1573.605	1182.820
143.614	13.813	1572.442	1181.481
144.629	13.945	1571.340	1181.487
145.643	13.865	1569.498	1179.430
146.658	13.923	1568.427	1178.928
147.673	13.918	1566.499	1177.345
148.687	13.896	1565.542	1176.362
149.702	13.766	1564.114	1174.269
150.716	13.818	1562.154	1173.056
151.731	13.857	1561.265	1172.561
152.746	13.844	1559.709	1171.200
153.760	13.893	1558.126	1170.254
154.775	13.882	1556.900	1169.151
155.789	13.929	1555.414	1168.263
156.804	13.932	1554.097	1167.187
157.819	13.970	1552.674	1166.281
158.833	14.020	1551.829	1165.899
159.848	14.101	1550.213	1165.149
160.862	14.073	1549.205	1164.090
161.877	14.128	1547.845	1163.348
162.892	14.047	1547.113	1162.130
163.906	13.968	1545.891	1160.555
164.921	13.975	1544.590	1159.530
165.935	13.969	1543.744	1158.748
166.950	14.069	1542.604	1158.488
167.964	14.057	1541.034	1157.122
168.979	13.993	1540.505	1156.175
169.994	14.020	1538.948	1155.097
171.008	14.064	1537.985	1154.573
172.023	14.063	1536.804	1153.576
173.037	14.047	1536.030	1152.782
174.052	14.084	1534.590	1151.856
175.067	14.171	1533.544	1151.575
176.081	14.081	1532.572	1150.118
177.096	14.101	1531.265	1149.174
178.110	13.944	1529.810	1146.895
179.125	14.024	1528.800	1146.587
180.140	14.080	1526.899	1145.448
181.154	14.166	1526.037	1145.292
182.169	14.186	1524.933	1144.504
183.183	14.111	1524.024	1143.201
184.198	14.189	1522.755	1142.688
185.213	14.226	1521.767	1142.096
186.227	14.219	1520.540	1141.029
187.242	14.280	1519.652	1140.673
188.256	14.346	1518.552	1140.201
189.271	14.353	1517.031	1139.004
190.286	14.310	1516.393	1138.132
191.300	14.288	1514.839	1136.713
192.315	14.275	1513.845	1135.783
193.329	14.164	1513.101	1134.362
194.344	14.176	1511.415	1133.085
195.359	14.202	1510.272	1132.299
196.373	14.216	1509.491	1131.709
197.388	14.239	1508.332	1130.899
198.402	14.408	1507.331	1131.199
199.417	14.364	1506.025	1129.818
200.432	14.473	1504.715	1129.476
201.446	14.495	1503.747	1128.795
202.461	14.517	1502.747	1128.096
203.475	14.478	1501.880	1127.081
204.490	14.662	1500.293	1127.031
205.504	14.512	1499.681	1125.462
206.519	14.538	1498.627	1124.743
207.534	14.457	1497.059	1122.922
208.548	14.495	1496.004	1122.289
209.563	14.471	1495.346	1121.532
210.577	14.539	1494.106	1120.963
211.592	14.498	1492.987	1119.749
212.607	14.522	1492.556	1119.489
213.621	14.552	1491.705	1118.948
214.636	14.540	1491.199	1118.391
215.650	14.646	1489.709	1117.883
216.665	14.726	1488.453	1117.376
217.680	14.727	1487.878	1116.851
218.694	14.611	1487.229	1115.490
219.709	14.628	1486.408	1114.889
220.723	14.722	1485.180	1114.501
221.738	14.819	1483.864	1114.061
222.753	14.783	1483.017	1113.083
223.767	14.809	1481.998	1112.395
224.782	14.718	1481.193	1111.087
225.796	14.789	1479.892	1110.482
226.811	14.843	1479.070	1110.127
227.826	14.794	1478.375	1109.184
228.840	14.848	1477.519	1108.802
229.855	14.809	1476.708	1107.834
230.869	14.744	1475.777	1106.612
231.884	14.857	1474.659	1106.419
232.899	14.885	1473.169	1105.391
233.913	14.943	1471.609	1104.507
234.928	14.915	1470.624	1103.481
235.942	14.853	1469.966	1102.483
236.957	14.842	1468.427	1101.158
237.972	14.825	1467.912	1100.562
238.986	14.886	1466.776	1100.012
240.001	14.946	1465.104	1099.058
241.015	14.865	1464.611	1098.057
242.030	14.928	1463.175	1097.297
243.045	14.939	1462.002	1096.396
244.059	14.910	1461.379	1095.640
245.074	14.978	1460.677	1095.460
246.088	15.018	1459.749	1094.929
247.103	15.012	1458.879	1094.141
248.117	15.046	1458.199	1093.759
249.132	15.094	1457.188	1093.216
250.147	15.028	1456.673	1092.301
251.161	15.195	1455.836	1092.663
252.176	15.191	1455.250	1092.104
253.190	15.222	1454.085	1091.336
254.205	15.291	1453.482	1091.234
255.220	15.309	1452.364	1090.414
256.234	15.474	1451.353	1090.632
257.249	15.270	1450.871	1088.850
258.263	15.261	1450.123	1088.134
259.278	15.329	1448.939	1087.590
260.293	15.408	1447.927	1087.243
261.307	15.416	1446.917	1086.443
262.322	15.433	1446.653	1086.259
263.336	15.441	1445.736	1085.524
264.351	15.453	1444.494	1084.575
265.366	15.495	1443.527	1084.023
266.380	15.555	1442.377	1083.452
267.395	15.528	1441.873	1082.803
268.409	15.442	1441.211	1081.653
269.424	15.531	1439.770	1081.050
270.439	15.486	1438.709	1079.869
271.453	15.622	1437.449	1079.704
272.468	15.581	1437.035	1079.033
273.482	15.448	1436.339	1077.561
274.497	15.480	1435.129	1076.759
275.512	15.507	1434.445	1076.329
276.526	15.581	1433.359	1075.887
277.541	15.599	1432.596	1075.339
278.555	15.560	1431.667	1074.292
279.570	15.604	1430.962	1073.950
280.585	15.651	1429.705	1073.216
281.599	15.675	1429.004	1072.745
282.614	15.706	1427.932	1072.043
283.628	15.757	1426.365	1071.101
284.643	15.726	1425.777	1070.366
285.657	15.707	1424.790	1069.409
286.672	15.692	1423.589	1068.318
287.687	15.824	1422.245	1068.051
288.701	15.806	1421.520	1067.298
289.716	15.803	1421.031	1066.816
290.730	15.727	1420.240	1065.646
291.745	15.883	1418.795	1065.457
292.760	15.846	1418.240	1064.710
293.774	15.788	1416.968	1063.297
294.789	15.862	1416.243	1063.125
295.803	15.883	1415.616	1062.689
296.818	15.975	1414.266	1062.163
297.833	15.944	1413.534	1061.326
298.847	15.964	1412.010	1060.212
299.862	15.900	1411.550	1059.374
300.876	15.917	1410.757	1058.788
301.891	15.959	1409.696	1058.161
302.906	16.022	1408.815	1057.805
303.920	16.014	1408.385	1057.340
304.935	16.000	1407.056	1056.159
305.949	16.102	1406.556	1056.327
306.964	16.093	1405.683	1055.526
307.979	16.126	1404.652	1054.860
308.993	16.152	1403.369	1053.967
310.008	16.157	1402.685	1053.394
311.022	16.168	1401.758	1052.672
312.037	16.142	1400.714	1051.633
313.052	16.251	1399.618	1051.394
314.066	16.140	1399.019	1050.159
315.081	16.185	1397.503	1049.211
316.095	16.099	1396.524	1047.846
317.110	16.135	1395.599	1047.286
318.125	16.187	1394.412	1046.625
319.139	16.120	1393.630	1045.530
320.154	16.214	1392.681	1045.304
321.168	16.135	1392.256	1044.403
322.183	16.165	1390.924	1043.500
323.197	16.271	1389.743	1043.179
324.212	16.300	1388.758	1042.524
325.227	16.305	1388.042	1041.924
326.241	16.324	1387.238	1041.344
327.256	16.267	1386.299	1040.197
328.270	16.172	1385.957	1039.267
329.285	16.320	1384.907	1039.295
330.300	16.393	1383.595	1038.672
331.314	16.381	1382.436	1037.634
332.329	16.379	1381.661	1036.949
333.343	16.230	1381.084	1035.507
334.358	16.400	1379.881	1035.557
335.373	16.332	1379.435	1034.716
336.387	16.383	1378.461	1034.202
337.402	16.465	1377.473	1033.874
338.416	16.425	1376.720	1032.971
339.431	16.421	1376.404	1032.618
340.446	16.506	1375.688	1032.507
341.460	16.532	1374.649	1031.797
342.475	16.566	1373.467	1031.025
343.489	16.549	1373.051	1030.517
344.504	16.625	1371.595	1029.794
345.519	16.607	1370.597	1028.846
346.533	16.566	1369.747	1027.868
347.548	16.644	1369.102	1027.770
348.562	16.618	1368.198	1026.841
349.577	16.701	1366.899	1026.279
350.592	16.718	1366.510	1025.995
351.606	16.712	1365.213	1024.900
352.621	16.727	1364.111	1024.068
353.635	16.753	1362.962	1023.273
354.650	16.699	1362.212	1022.294
355.665	16.702	1361.300	1021.535
356.679	16.775	1360.088	1020.980
357.694	16.928	1358.563	1020.661
358.708	16.788	1358.190	1019.450
359.723	16.761	1357.154	1018.420
360.738	16.775	1356.355	1017.817
361.752	16.778	1355.192	1016.869
362.767	16.824	1353.986	1016.153
363.781	16.822	1352.904	1015.238
364.796	16.749	1352.331	1014.278
365.810	16.785	1351.738	1013.961
366.825	16.924	1350.994	1014.141
367.840	16.993	1349.949	1013.684
368.854	16.992	1349.362	1013.143
369.869	16.963	1349.120	1012.701
370.883	17.060	1348.141	1012.457
371.898	17.025	1347.046	1011.338
372.913	17.013	1346.289	1010.605
373.927	17.047	1345.473	1010.106
374.942	17.109	1344.397	1009.574
375.956	17.162	1343.715	1009.289
376.971	17.074	1342.889	1008.057
377.986	17.200	1342.036	1008.075
379.000	17.208	1340.899	1007.181
380.015	17.135	1340.498	1006.356
381.029	17.233	1339.638	1006.205
382.044	17.174	1339.130	1005.381
383.059	17.190	1338.373	1004.819
384.073	17.185	1337.819	1004.290
385.088	17.284	1337.293	1004.390
386.102	17.339	1336.158	1003.771
387.117	17.329	1335.722	1003.298
388.132	17.331	1334.633	1002.401
389.146	17.375	1333.447	1001.681
390.161	17.339	1332.711	1000.824
391.175	17.197	1332.443	999.702
392.190	17.357	1331.638	999.951
393.205	17.366	1330.401	998.986
394.219	17.368	1329.206	998.014
395.234	17.403	1327.988	997.213
396.248	17.420	1327.094	996.556
397.263	17.479	1325.434	995.565
398.278	17.425	1324.069	994.135
399.292	17.510	1323.680	994.253
400.307	17.482	1322.002	992.740
401.321	17.331	1321.260	991.213
402.336	17.345	1320.501	990.639
403.350	17.444	1319.223	990.167
404.365	17.396	1318.251	989.073
405.380	17.419	1317.200	988.328
406.394	17.538	1316.485	988.397
407.409	17.545	1315.890	987.902
408.423	17.533	1315.000	987.080
409.438	17.627	1314.471	987.139
410.453	17.554	1313.845	986.158
411.467	17.615	1312.951	985.751
412.482	17.578	1312.576	985.169
413.496	17.614	1311.606	984.566
414.511	17.721	1310.598	984.335
415.526	17.779	1309.666	983.884
416.540	17.811	1309.011	983.490
417.555	17.793	1308.394	982.835
418.569	17.819	1308.195	982.748
419.584	17.832	1307.579	982.277
420.599	17.840	1306.938	981.752
421.613	99.614	1361.199	1486.261
422.628	98.053	1369.042	1486.351
