DTS Sentinel unit serial number:	SN413079Multiplexer serial number:	ORYXHardware model number:	OX4-SRSoftware version number:	ORYX F/W v4.00 Oryx Data Collector v3.7.2.0data status	okinstallation	princeton_trtdifferential loss correction	single-endedforward channel	channel 4reverse channel	N/Adate	2019/09/18time	01:57:35forward acquisition time	60.00reverse acquisition time	0.00gamma	496.2192k internal	0.2334k external	0.2334temperature offset calibration	0.9997default loss term (dB/km)	0.3790temperature slope calibration	1.0000multiplexer offset coefficient	1.0000multiplexer slope coefficient	1.0000fibre end	0.00T internal ref (°C)	22.94T ext. ref 1 (°C)	0.17T ext. ref 2 (°C)	16.68length (m)	temperature (°C)	Stokes	anti-Stokes-747.200	-85.149	-0.131	0.041
-746.185	-14.574	-0.127	0.082
-745.171	80.323	0.146	0.158
-744.156	-200.000	-0.053	0.294
-743.142	563.099	-0.043	-0.106
-742.127	-60.797	0.122	0.052
-741.112	-25.847	0.333	0.197
-740.098	94.623	-0.329	0.376
-739.083	-41.556	0.301	0.156
-738.069	-156.298	-0.425	0.027
-737.054	-200.000	0.031	0.285
-736.039	77.523	-0.081	-0.087
-735.025	-107.111	0.350	0.078
-734.010	234.450	-0.131	-0.216
-732.996	-34.266	-0.362	0.200
-731.981	-200.000	0.000	0.006
-730.966	-116.408	-0.299	0.056
-729.952	-145.357	-0.106	0.010
-728.937	-165.250	-0.248	0.011
-727.923	549.305	-0.081	-0.195
-726.908	-72.051	0.114	0.042
-725.894	-30.585	-0.067	0.038
-724.879	-86.774	-0.402	0.124
-723.864	725.773	-0.104	-0.277
-722.850	49.671	-0.143	0.135
-721.835	568.826	0.046	-0.111
-720.821	-15.472	0.071	0.045
-719.806	301.996	-0.074	0.137
-718.791	708.567	-0.031	-0.083
-717.777	800.000	-0.048	-0.199
-716.762	800.000	-0.063	0.255
-715.748	51.740	0.250	0.239
-714.733	-68.110	-0.203	-0.079
-713.718	-141.611	-0.131	0.013
-712.704	38.490	-0.192	-0.172
-711.689	-94.887	-0.035	0.010
-710.675	295.322	-0.104	-0.192
-709.660	-91.219	-0.200	0.057
-708.645	304.557	-0.224	-0.418
-707.631	-190.987	-0.263	0.003
-706.616	-200.000	-0.032	-0.245
-705.602	388.653	0.177	-0.369
-704.587	800.000	-0.069	-0.226
-703.572	2.758	0.142	-0.103
-702.558	321.934	-0.131	-0.250
-701.543	-18.163	-0.178	-0.112
-700.529	50.867	-0.145	-0.138
-699.514	800.000	-0.074	-0.212
-698.499	-97.736	0.087	-0.023
-697.485	-55.778	0.140	-0.063
-696.470	800.000	-0.051	0.185
-695.456	574.682	-0.040	0.099
-694.441	479.295	-0.032	-0.072
-693.426	-25.643	-0.311	-0.184
-692.412	-106.983	-0.097	-0.022
-691.397	34.040	-0.226	0.197
-690.383	53.445	-0.078	0.075
-689.368	-85.155	0.388	0.122
-688.354	-200.000	-0.028	-0.228
-687.339	-85.097	0.475	-0.149
-686.324	-3.904	0.056	0.039
-685.310	-133.015	0.055	0.007
-684.295	-200.000	-0.013	0.234
-683.281	674.696	0.145	0.376
-682.266	116.920	-0.138	-0.170
-681.251	196.833	-0.133	-0.203
-680.237	-200.000	0.013	0.162
-679.222	-27.053	0.211	-0.124
-678.208	-132.003	-0.136	-0.018
-677.193	48.272	-0.117	-0.110
-676.178	184.105	-0.222	-0.330
-675.164	152.777	-0.120	0.165
-674.149	800.000	0.093	-0.388
-673.135	-167.735	-0.279	-0.011
-672.120	-65.896	0.186	0.074
-671.105	-86.919	0.168	0.051
-670.091	-62.337	0.239	-0.100
-669.076	102.397	-0.053	0.062
-668.062	800.000	-0.076	0.215
-667.047	157.584	0.074	0.103
-666.032	-200.000	0.039	-0.244
-665.018	9.974	-0.159	-0.121
-664.003	-200.000	-0.025	0.122
-662.989	-110.174	0.145	-0.030
-661.974	50.938	-0.324	-0.307
-660.959	-200.000	-0.005	-0.129
-659.945	19.876	-0.107	-0.087
-658.930	-11.081	0.286	0.189
-657.916	-48.540	-0.091	-0.044
-656.901	-7.695	-0.221	-0.150
-655.886	-51.171	-0.311	-0.146
-654.872	-200.000	-0.002	0.070
-653.857	-12.589	0.107	-0.070
-652.843	192.398	0.088	-0.133
-651.828	115.290	0.230	-0.281
-650.814	-200.000	-0.015	0.067
-649.799	148.700	-0.126	0.171
-648.784	-200.000	-0.026	-0.319
-647.770	440.200	-0.055	-0.120
-646.755	-21.708	0.274	-0.167
-645.741	143.017	0.181	-0.240
-644.726	800.000	-0.045	-0.161
-643.711	793.639	-0.023	-0.065
-642.697	-129.903	0.261	0.036
-641.682	-200.000	-0.016	-0.359
-640.668	359.552	-0.038	-0.075
-639.653	122.354	-0.252	0.315
-638.638	-159.571	-0.199	0.011
-637.624	9.361	-0.228	0.173
-636.609	-106.736	0.170	-0.038
-635.595	548.240	-0.063	-0.150
-634.580	-79.428	-0.341	0.115
-633.565	15.351	-0.174	-0.137
-632.551	-154.685	-0.115	0.008
-631.536	800.000	0.016	-0.046
-630.522	63.913	-0.205	-0.206
-629.507	427.774	0.209	0.451
-628.492	-200.000	0.044	0.383
-627.478	-200.000	-0.017	0.091
-626.463	-36.831	-0.120	-0.064
-625.449	194.074	-0.068	-0.103
-624.434	17.461	0.018	0.014
-623.419	800.000	-0.054	-0.216
-622.405	-6.584	-0.292	0.199
-621.390	800.000	-0.019	0.074
-620.376	-200.000	-0.004	-0.252
-619.361	615.137	-0.064	-0.161
-618.346	-200.000	0.023	-0.224
-617.332	44.794	-0.231	0.212
-616.317	-200.000	-0.004	0.068
-615.303	-138.359	-0.094	0.010
-614.288	-122.858	-0.403	0.065
-613.273	-107.134	0.201	0.044
-612.259	5.535	-0.238	-0.176
-611.244	153.594	0.065	0.089
-610.230	800.000	-0.034	-0.125
-609.215	800.000	-0.079	-0.318
-608.201	-85.199	0.206	0.065
-607.186	-44.930	-0.037	0.019
-606.171	800.000	0.015	-0.062
-605.157	-200.000	-0.001	0.052
-604.142	-73.632	-0.258	-0.094
-603.128	-200.000	-0.086	-0.476
-602.113	46.723	0.085	0.079
-601.098	56.746	0.141	0.137
-600.084	-200.000	0.015	-0.175
-599.069	-109.491	0.093	-0.020
-598.055	373.638	0.164	-0.334
-597.040	43.998	0.211	-0.193
-596.025	-200.000	0.017	-0.364
-595.011	70.642	-0.320	-0.331
-593.996	-113.527	0.180	-0.035
-592.982	71.875	0.138	-0.143
-591.967	-17.089	-0.087	-0.055
-590.952	-23.473	0.163	0.098
-589.938	-200.000	0.012	-0.351
-588.923	-62.392	-0.178	0.074
-587.909	111.166	-0.118	-0.142
-586.894	-88.845	-0.264	-0.078
-585.879	-12.547	0.014	0.009
-584.865	12.388	-0.295	-0.227
-583.850	-26.488	0.064	0.037
-582.836	-200.000	-0.032	0.194
-581.821	179.869	0.057	0.084
-580.806	-200.000	-0.003	-0.231
-579.792	66.299	-0.377	0.382
-578.777	73.972	-0.218	-0.228
-577.763	-4.053	0.167	0.116
-576.748	175.437	-0.088	0.127
-575.733	-200.000	-0.024	0.186
-574.719	-185.431	-0.261	-0.004
-573.704	154.745	0.240	-0.330
-572.690	-94.624	-0.104	0.028
-571.675	127.846	-0.160	-0.202
-570.661	29.754	0.082	0.069
-569.646	-173.044	0.273	0.008
-568.631	667.766	-0.054	-0.139
-567.617	338.661	0.222	-0.431
-566.602	256.141	0.028	0.047
-565.588	73.055	0.107	0.112
-564.573	171.578	-0.051	-0.073
-563.558	47.155	0.285	0.265
-562.544	-200.000	-0.003	-0.081
-561.529	36.480	-0.048	0.043
-560.515	115.025	-0.108	-0.132
-559.500	-55.584	-0.056	0.025
-558.485	-200.000	0.018	-0.196
-557.471	115.711	-0.229	-0.279
-556.456	63.861	0.178	-0.178
-555.442	-33.875	-0.403	0.222
-554.427	-200.000	0.005	0.304
-553.412	-200.000	0.060	-0.352
-552.398	43.166	-0.118	-0.108
-551.383	-106.081	0.235	-0.053
-550.369	19.887	-0.280	0.225
-549.354	5.101	0.277	-0.203
-548.339	198.942	-0.191	0.291
-547.325	528.307	-0.033	-0.078
-546.310	-200.000	-0.017	-0.237
-545.296	160.914	0.074	0.104
-544.281	-200.000	0.010	0.220
-543.266	-81.802	-0.455	-0.149
-542.252	166.635	0.186	0.262
-541.237	25.824	-0.348	-0.289
-540.223	-2.408	0.102	-0.071
-539.208	162.544	0.069	-0.097
-538.193	-200.000	0.023	-0.103
-537.179	622.413	-0.035	0.089
-536.164	36.624	0.063	0.055
-535.150	800.000	-0.044	0.125
-534.135	800.000	0.033	0.142
-533.121	267.217	-0.144	-0.251
-532.106	24.202	0.102	-0.084
-531.091	391.195	-0.070	0.145
-530.077	33.046	0.260	-0.225
-529.062	-83.028	0.082	-0.026
-528.048	800.000	-0.081	-0.254
-527.033	-181.586	-0.318	-0.006
-526.018	59.013	0.125	0.122
-525.004	-200.000	-0.057	-0.259
-523.989	124.802	-0.108	-0.135
-522.975	61.274	-0.208	-0.206
-521.960	800.000	0.116	-0.366
-520.945	-2.102	0.207	-0.145
-519.931	7.320	0.204	-0.152
-518.916	-96.284	-0.190	-0.050
-517.902	377.598	0.199	-0.406
-516.887	158.950	-0.205	-0.283
-515.872	70.836	0.314	0.324
-514.858	-200.000	0.015	-0.140
-513.843	-93.458	-0.258	0.071
-512.829	-63.268	0.263	0.108
-511.814	-191.572	-0.222	-0.002
-510.799	-61.948	-0.233	-0.097
-509.785	800.000	0.017	0.057
-508.770	800.000	-0.033	-0.118
-507.756	-200.000	-0.012	0.067
-506.741	-56.852	-0.251	-0.110
-505.726	586.595	-0.097	0.238
-504.712	-200.000	-0.056	-0.329
-503.697	-200.000	-0.035	-0.426
-502.683	-44.505	-0.262	0.130
-501.668	800.000	0.049	-0.147
-500.653	570.878	-0.097	0.236
-499.639	-200.000	-0.008	0.395
-498.624	190.131	0.044	0.066
-497.610	-75.709	0.111	0.039
-496.595	-200.000	-0.029	-0.256
-495.581	-125.059	0.551	-0.084
-494.566	234.410	0.142	-0.233
-493.551	17.925	0.228	-0.181
-492.537	-38.806	0.098	0.051
-491.522	-36.505	-0.192	0.103
-490.508	49.421	0.168	-0.157
-489.493	448.671	0.023	-0.050
-488.478	-16.467	0.357	0.225
-487.464	-17.022	-0.105	0.066
-486.449	81.543	0.113	0.122
-485.435	38.374	-0.079	0.070
-484.420	-84.689	0.094	-0.029
-483.405	703.792	-0.036	0.094
-482.391	-176.425	-0.152	-0.004
-481.376	151.039	-0.200	0.271
-480.362	-178.869	-0.154	-0.003
-479.347	225.511	0.087	0.140
-478.332	-41.675	-0.100	0.051
-477.318	800.000	-0.078	0.274
-476.303	-18.846	-0.051	-0.031
-475.289	688.179	0.112	-0.290
-474.274	203.281	-0.210	-0.322
-473.259	-100.690	-0.170	0.042
-472.245	-40.091	0.071	-0.037
-471.230	800.000	-0.040	-0.114
-470.216	244.397	0.046	0.076
-469.201	-200.000	-0.073	-0.412
-468.186	43.173	-0.112	0.102
-467.172	-116.474	0.191	0.035
-466.157	-77.405	-0.249	-0.086
-465.143	-200.000	-0.007	-0.314
-464.128	202.741	0.132	0.202
-463.113	105.220	-0.117	0.137
-462.099	-200.000	0.028	0.188
-461.084	219.017	0.114	0.182
-460.070	-112.591	0.458	-0.091
-459.055	-200.000	-0.017	-0.153
-458.040	12.102	0.097	-0.074
-457.026	800.000	-0.100	0.349
-456.011	-125.141	-0.113	0.017
-454.997	-200.000	0.024	0.174
-453.982	154.055	-0.022	-0.031
-452.968	-91.193	0.194	0.055
-451.953	-200.000	-0.015	0.314
-450.938	209.498	-0.062	0.096
-449.924	-200.000	-0.019	-0.248
-448.909	-7.359	-0.094	0.063
-447.895	-30.748	-0.218	0.122
-446.880	-66.081	0.311	0.123
-445.865	-79.916	-0.351	0.117
-444.851	147.846	-0.221	-0.296
-443.836	-200.000	0.071	0.387
-442.822	31.008	-0.274	-0.233
-441.807	800.000	-0.085	0.320
-440.792	-200.000	0.018	0.249
-439.778	-200.000	0.024	0.143
-438.763	-154.528	-0.056	-0.004
-437.749	-5.403	-0.305	0.208
-436.734	-200.000	0.032	0.293
-435.719	-200.000	-0.007	0.146
-434.705	-200.000	-0.035	0.379
-433.690	800.000	0.029	0.116
-432.676	354.745	0.087	0.172
-431.661	-120.811	-0.231	-0.039
-430.646	-160.878	-0.179	0.009
-429.632	177.379	0.151	-0.219
-428.617	-176.342	0.156	0.004
-427.603	-133.027	-0.201	-0.025
-426.588	-140.408	0.095	-0.010
-425.573	800.000	0.037	0.128
-424.559	-65.456	-0.295	-0.118
-423.544	800.000	-0.114	-0.319
-422.530	16.748	0.213	-0.167
-421.515	123.660	0.131	0.164
-420.500	-97.701	-0.208	-0.053
-419.486	317.018	-0.043	0.081
-418.471	800.000	0.038	-0.121
-417.457	235.365	-0.146	-0.239
-416.442	118.940	-0.062	0.076
-415.428	-85.326	0.301	-0.093
-414.413	-200.000	0.046	-0.286
-413.398	-2.653	-0.257	0.178
-412.384	-7.568	0.124	0.083
-411.369	445.923	0.037	-0.082
-410.355	-32.589	-0.170	0.094
-409.340	-175.659	-0.158	-0.004
-408.325	-200.000	-0.016	-0.504
-407.311	-200.000	0.037	-0.480
-406.296	-17.246	0.378	0.237
-405.282	-200.000	0.004	-0.174
-404.267	-200.000	-0.062	0.349
-403.252	-200.000	0.002	0.230
-402.238	1.215	-0.369	-0.263
-401.223	507.406	0.099	0.227
-400.209	-5.545	-0.012	-0.008
-399.194	100.839	0.037	-0.043
-398.179	0.517	-0.086	-0.061
-397.165	-125.506	-0.171	-0.026
-396.150	-200.000	-0.013	0.079
-395.136	-62.250	0.073	-0.030
-394.121	-200.000	0.043	-0.413
-393.106	-97.061	-0.141	0.037
-392.092	800.000	0.059	-0.235
-391.077	561.616	-0.111	0.266
-390.063	-200.000	-0.025	0.255
-389.048	-162.796	-0.299	0.014
-388.033	-200.000	-0.006	-0.113
-387.019	4.050	-0.073	0.053
-386.004	103.168	0.125	-0.145
-384.990	2.009	-0.161	-0.115
-383.975	201.325	0.078	0.119
-382.960	-30.446	0.132	-0.074
-381.946	-1.427	-0.124	-0.087
-380.931	-199.247	-0.213	0.001
-379.917	-110.167	0.327	-0.068
-378.902	94.132	-0.195	0.219
-377.888	-32.844	-0.236	-0.130
-376.873	-27.828	0.098	0.056
-375.858	-200.000	-0.004	0.076
-374.844	516.419	0.115	-0.266
-373.829	-57.967	0.185	0.080
-372.815	7.234	0.265	-0.196
-371.800	-33.730	-0.067	0.037
-370.785	115.564	-0.149	0.181
-369.771	800.000	-0.012	-0.035
-368.756	339.916	-0.120	-0.232
-367.742	-111.625	0.496	-0.100
-366.727	-141.963	0.110	-0.011
-365.712	800.000	0.119	0.378
-364.698	-200.000	0.035	0.630
-363.683	24.344	-0.100	0.082
-362.669	639.658	0.049	0.124
-361.654	257.886	-0.167	0.285
-360.639	-156.985	0.511	-0.031
-359.625	-55.262	-0.136	-0.061
-358.610	32.463	0.299	0.256
-357.596	-47.392	0.129	-0.062
-356.581	67.372	-0.134	0.136
-355.566	-200.000	0.014	-0.353
-354.552	-110.211	0.447	0.092
-353.537	-53.424	-0.279	-0.126
-352.523	82.654	-0.091	0.098
-351.508	-177.331	0.163	-0.004
-350.493	342.324	0.192	-0.372
-349.479	260.126	-0.123	-0.210
-348.464	502.629	0.128	-0.294
-347.450	80.157	0.160	0.170
-346.435	32.816	0.087	-0.074
-345.420	-3.876	-0.141	0.097
-344.406	-200.000	-0.015	-0.227
-343.391	-200.000	-0.031	-0.504
-342.377	800.000	-0.029	0.120
-341.362	-43.258	0.237	-0.119
-340.348	-200.000	-0.112	-0.488
-339.333	-76.904	0.107	-0.037
-338.318	-162.377	-0.132	0.006
-337.304	-87.589	0.070	-0.021
-336.289	-6.590	0.220	0.148
-335.275	-141.665	-0.097	-0.010
-334.260	77.302	0.178	0.187
-333.245	546.243	-0.021	0.051
-332.231	-28.830	-0.173	-0.098
-331.216	748.043	-0.056	0.150
-330.202	-82.562	0.260	0.084
-329.187	-106.458	-0.365	0.081
-328.172	-120.473	0.385	-0.065
-327.158	-80.773	0.299	0.098
-326.143	159.115	-0.067	0.092
-325.129	-200.000	0.013	0.152
-324.114	-200.000	-0.038	0.292
-323.099	130.220	-0.257	-0.325
-322.085	55.713	0.084	0.081
-321.070	33.585	-0.248	0.213
-320.056	-45.817	-0.090	0.044
-319.041	-15.666	0.287	0.181
-318.026	794.951	0.065	-0.176
-317.012	304.158	-0.027	0.050
-315.997	800.000	-0.125	0.479
-314.983	-104.059	-0.166	-0.038
-313.968	-20.658	-0.077	0.047
-312.953	-13.446	-0.126	0.081
-311.939	-121.530	0.357	0.059
-310.924	-28.758	0.413	-0.235
-309.910	-115.059	-0.592	-0.111
-308.895	-200.000	-0.010	-0.156
-307.880	800.000	0.099	0.297
-306.866	-64.537	-0.026	0.011
-305.851	-200.000	-0.047	-0.234
-304.837	-200.000	-0.040	0.303
-303.822	800.000	-0.031	0.117
-302.807	-200.000	0.007	0.207
-301.793	573.163	-0.151	0.363
-300.778	193.056	0.155	0.232
-299.764	-6.210	-0.066	-0.045
-298.749	518.102	-0.074	-0.171
-297.735	-200.000	0.022	0.286
-296.720	-148.347	0.298	-0.024
-295.705	-200.000	-0.015	-0.111
-294.691	-200.000	0.062	-0.284
-293.676	-148.529	0.367	-0.030
-292.662	800.000	0.029	0.088
-291.647	-200.000	-0.011	-0.205
-290.632	-103.031	0.242	-0.057
-289.618	67.771	0.115	0.116
-288.603	-9.310	0.265	0.175
-287.589	100.229	0.178	-0.204
-286.574	30.277	0.354	0.298
-285.559	228.460	-0.083	-0.134
-284.545	745.185	0.167	-0.443
-283.530	-200.000	-0.267	0.001
-282.516	-200.000	0.021	-0.166
-281.501	70.763	-0.219	-0.224
-280.486	-39.668	-0.057	-0.030
-279.472	-200.000	0.051	0.229
-278.457	-105.638	-0.205	0.046
-277.443	-41.035	0.088	0.045
-276.428	-82.594	-0.113	0.036
-275.413	-86.381	-0.213	0.065
-274.399	-67.340	0.213	-0.083
-273.384	-123.242	0.244	0.039
-272.370	-89.367	-0.076	0.022
-271.355	-200.000	0.059	-0.294
-270.340	-200.000	-0.069	0.307
-269.326	73.598	-0.085	-0.087
-268.311	-91.690	0.132	0.037
-267.297	95.050	0.113	0.127
-266.282	-29.663	-0.100	0.056
-265.267	134.836	-0.048	-0.061
-264.253	0.795	0.301	0.213
-263.238	226.629	-0.106	0.170
-262.224	-34.803	-0.222	0.120
-261.209	106.797	-0.064	0.074
-260.195	-150.908	-0.280	-0.021
-259.180	-200.000	0.073	0.436
-258.165	-63.385	-0.488	0.198
-257.151	-22.723	-0.049	-0.029
-256.136	-200.000	0.009	-0.286
-255.122	-59.279	-0.178	0.076
-254.107	-126.926	-0.351	-0.051
-253.092	800.000	0.062	0.242
-252.078	277.215	-0.100	-0.176
-251.063	-121.149	0.094	0.016
-250.049	216.459	-0.171	0.268
-249.034	-200.000	-0.056	0.287
-248.019	-144.281	-0.099	0.009
-247.005	150.857	-0.078	-0.104
-245.990	303.546	0.164	-0.300
-244.976	-46.182	0.206	0.100
-243.961	-52.560	-0.288	0.131
-242.946	-132.075	0.432	0.055
-241.932	36.501	0.226	0.197
-240.917	24.257	0.288	0.234
-239.903	677.131	0.117	-0.298
-238.888	516.944	-0.025	0.057
-237.873	192.277	-0.096	0.143
-236.859	-200.000	-0.060	0.333
-235.844	-200.000	-0.066	0.347
-234.830	1.617	0.112	-0.079
-233.815	-200.000	-0.040	0.298
-232.800	-11.396	-0.084	0.055
-231.786	800.000	0.029	0.116
-230.771	98.674	0.193	0.219
-229.757	-77.727	-0.061	0.021
-228.742	63.201	-0.138	-0.136
-227.727	-37.628	0.112	0.059
-226.713	349.595	-0.074	-0.145
-225.698	292.575	-0.027	0.049
-224.684	-200.000	0.012	0.174
-223.669	-147.459	0.079	0.007
-222.655	-54.666	0.216	-0.096
-221.640	-94.118	0.035	-0.009
-220.625	620.840	0.172	0.425
-219.611	75.399	-0.190	0.198
-218.596	-106.068	0.222	-0.049
-217.582	-165.734	-0.111	-0.005
-216.567	-112.544	-0.189	-0.037
-215.552	42.558	-0.067	0.060
-214.538	207.845	0.184	-0.283
-213.523	58.769	0.280	-0.270
-212.509	-168.841	-0.443	0.016
-211.494	-148.137	0.082	0.007
-210.479	-173.112	0.322	0.010
-209.465	800.000	-0.056	-0.152
-208.450	630.324	0.126	0.314
-207.436	18.863	0.118	-0.093
-206.421	-200.000	0.005	0.026
-205.406	37.871	0.185	0.162
-204.392	-200.000	0.020	0.088
-203.377	154.559	0.133	0.180
-202.363	-115.963	0.195	-0.036
-201.348	58.922	0.085	0.082
-200.333	-111.428	0.223	0.045
-199.319	-143.725	-0.339	-0.032
-198.304	-46.478	-0.188	-0.091
-197.290	800.000	-0.036	-0.106
-196.275	54.141	0.064	-0.060
-195.260	-200.000	-0.024	0.391
-194.246	771.918	-0.031	0.083
-193.231	-104.365	-0.048	0.011
-192.217	-184.352	-0.161	-0.003
-191.202	205.879	0.177	0.270
-190.187	198.939	-0.065	-0.098
-189.173	-54.517	0.153	-0.068
-188.158	205.779	0.182	0.278
-187.144	-48.279	0.405	0.192
-186.129	800.000	0.042	-0.157
-185.114	227.027	0.205	0.327
-184.100	414.244	-0.063	-0.132
-183.085	305.022	0.078	-0.143
-182.071	389.342	0.075	0.153
-181.056	671.518	0.061	-0.156
-180.042	-22.330	0.132	-0.079
-179.027	-79.637	0.222	-0.074
-178.012	-82.668	0.282	0.090
-176.998	800.000	-0.024	-0.091
-175.983	-114.361	0.203	0.038
-174.969	-200.000	0.002	-0.179
-173.954	52.909	-0.089	0.084
-172.939	-200.000	0.046	0.381
-171.925	-45.198	0.099	-0.048
-170.910	-200.000	0.069	-0.329
-169.896	800.000	-0.078	0.252
-168.881	-200.000	-0.007	0.320
-167.866	-200.000	0.005	-0.025
-166.852	-142.945	0.259	-0.025
-165.837	198.472	0.247	0.371
-164.823	40.932	-0.206	-0.183
-163.808	-200.000	-0.019	0.146
-162.793	469.206	-0.083	0.184
-161.779	-43.685	0.158	0.078
-160.764	-84.047	0.155	0.048
-159.750	-200.000	-0.039	0.262
-158.735	292.854	0.126	-0.226
-157.720	459.197	-0.080	-0.176
-156.706	75.541	-0.144	0.149
-155.691	-47.738	0.042	0.020
-154.677	-200.000	0.004	0.045
-153.662	-200.000	0.005	-0.419
-152.647	-121.054	-0.114	-0.019
-151.633	-200.000	-0.026	-0.232
-150.618	-200.000	-0.015	-0.088
-149.604	-49.940	0.242	0.113
-148.589	800.000	0.068	-0.274
-147.574	-200.000	-0.045	-0.214
-146.560	210.512	0.183	-0.283
-145.545	800.000	0.080	-0.244
-144.531	319.689	-0.110	0.206
-143.516	-129.345	0.283	0.039
-142.502	-18.825	-0.113	-0.069
-141.487	456.384	-0.122	0.266
-140.472	51.958	0.245	0.229
-139.458	53.271	-0.202	0.190
-138.443	81.318	0.059	-0.063
-137.429	210.620	-0.042	-0.064
-136.414	-177.835	-0.454	0.011
-135.399	-200.000	0.079	-0.374
-134.385	-66.980	0.111	-0.043
-133.370	800.000	-0.077	-0.305
-132.356	-200.000	0.012	-0.170
-131.341	800.000	0.029	0.111
-130.326	84.213	-0.121	0.130
-129.312	-114.632	0.294	-0.055
-128.297	-149.536	-0.222	-0.017
-127.283	16.128	0.338	0.261
-126.268	-32.205	0.272	0.149
-125.253	-80.286	-0.187	-0.061
-124.239	-200.000	-0.011	0.271
-123.224	-104.881	0.062	0.014
-122.210	-98.817	0.098	0.024
-121.195	-115.803	0.202	-0.037
-120.180	800.000	0.034	0.146
-119.166	760.937	-0.129	0.343
-118.151	-181.830	-0.127	0.002
-117.137	-128.014	0.485	-0.068
-116.122	-200.000	-0.052	-0.248
-115.107	-128.076	0.139	0.020
-114.093	99.222	0.101	0.114
-113.078	-110.879	-0.118	0.024
-112.064	114.740	-0.056	-0.067
-111.049	-61.500	-0.343	0.141
-110.034	-200.000	-0.004	0.111
-109.020	-63.722	0.238	-0.096
-108.005	26.801	-0.107	-0.088
-106.991	-29.864	0.364	0.203
-105.976	126.246	0.289	-0.359
-104.962	-200.000	-0.006	-0.469
-103.947	-112.663	0.300	-0.058
-102.932	297.062	0.062	0.111
-101.918	-57.344	0.124	-0.054
-100.903	73.736	0.098	-0.101
-99.889	-200.000	0.009	0.193
-98.874	63.288	0.312	-0.306
-97.859	14.677	0.222	0.170
-96.845	-200.000	-0.007	-0.220
-95.830	58.568	0.248	-0.239
-94.816	-200.000	0.047	-0.278
-93.801	800.000	0.067	0.255
-92.786	63.704	0.065	-0.064
-91.772	635.666	0.058	0.144
-90.757	800.000	0.046	0.135
-89.743	12.230	0.274	-0.206
-88.728	29.939	0.223	0.186
-87.713	362.530	-0.190	0.374
-86.699	-200.000	-0.005	0.394
-85.684	-97.649	0.113	-0.029
-84.670	-78.913	0.253	-0.084
-83.655	-200.000	-0.064	0.390
-82.640	800.000	-0.055	-0.204
-81.626	-44.457	0.071	0.035
-80.611	-200.000	-0.024	-0.236
-79.597	16.744	-0.098	-0.076
-78.582	253.657	-0.160	0.267
-77.567	102.469	-0.301	-0.345
-76.553	-62.239	0.067	-0.028
-75.538	-116.956	0.340	-0.061
-74.524	33.823	0.157	0.134
-73.509	800.000	-0.033	0.123
-72.494	800.000	-0.092	0.280
-71.480	800.000	0.055	0.206
-70.465	-152.979	0.188	0.013
-69.451	-124.101	-0.499	-0.077
-68.436	-94.836	-0.263	-0.070
-67.422	-66.771	-0.066	-0.025
-66.407	276.535	-0.066	0.115
-65.392	-200.000	-0.079	0.361
-64.378	-76.614	-0.182	-0.063
-63.363	800.000	-0.061	-0.209
-62.349	-45.765	0.169	0.082
-61.334	97.881	-1.066	-1.200
-60.319	-17.319	0.578	0.356
-59.305	370.858	-0.871	-1.728
-58.290	382.306	0.633	1.273
-57.276	800.000	0.557	1.662
-56.261	-200.000	127.056	671.055
-55.246	410.015	1599.543	3316.067
-54.232	137.118	2765.040	3535.763
-53.217	86.438	2335.583	2518.421
-52.203	29.396	2076.092	1725.704
-51.188	24.709	1991.111	1612.838
-50.173	23.574	1974.900	1589.484
-49.159	42.031	2047.963	1817.803
-48.144	39.817	2061.029	1809.069
-47.130	25.137	2012.621	1633.900
-46.115	22.901	2002.424	1605.260
-45.100	22.933	1998.261	1602.156
-44.086	22.851	1996.176	1599.677
-43.071	22.722	1994.310	1596.951
-42.057	22.784	1992.012	1595.607
-41.042	22.830	1989.565	1593.993
-40.027	22.831	1987.990	1592.685
-39.013	22.836	1986.158	1591.194
-37.998	22.835	1984.633	1589.905
-36.984	22.912	1982.821	1589.079
-35.969	22.865	1980.842	1587.012
-34.954	22.774	1979.611	1585.140
-33.940	22.808	1978.149	1584.210
-32.925	22.941	1976.012	1583.635
-31.911	22.995	1974.635	1582.947
-30.896	22.940	1972.815	1580.934
-29.881	22.977	1971.854	1580.436
-28.867	22.960	1970.001	1578.731
-27.852	22.944	1968.324	1577.184
-26.838	23.009	1965.980	1575.818
-25.823	22.916	1964.321	1573.602
-24.809	23.014	1962.348	1572.827
-23.794	22.962	1961.035	1571.255
-22.779	22.924	1959.580	1569.683
-21.765	22.960	1958.153	1568.802
-20.750	23.028	1956.276	1567.839
-19.736	22.991	1954.528	1566.045
-18.721	23.028	1952.724	1564.871
-17.706	23.046	1950.960	1563.551
-16.692	22.926	1949.460	1561.227
-15.677	22.919	1948.071	1559.989
-14.663	22.920	1946.276	1558.499
-13.648	22.985	1945.466	1558.364
-12.633	22.974	1943.993	1557.021
-11.619	22.995	1942.538	1555.978
-10.604	22.982	1940.870	1554.473
-9.590	22.930	1939.942	1553.209
-8.575	22.978	1938.814	1552.662
-7.560	22.921	1937.493	1551.048
-6.546	22.931	1936.532	1550.303
-5.531	22.970	1934.845	1549.231
-4.517	22.946	1933.512	1547.896
-3.502	22.899	1932.708	1546.778
-2.487	22.968	1930.918	1545.882
-1.473	23.039	1929.773	1545.527
-0.458	23.020	1925.274	1541.693
0.556	21.196	1904.734	1512.286
1.571	16.953	1886.783	1461.421
2.586	13.137	1910.212	1446.089
3.600	12.281	1945.542	1465.069
4.615	12.275	1938.526	1459.599
5.629	9.489	1838.362	1360.543
6.644	3.684	1726.736	1231.628
7.659	0.513	1694.572	1183.742
8.673	0.199	1691.612	1179.106
9.688	0.173	1691.002	1178.377
10.702	0.223	1689.270	1177.454
11.717	0.075	1685.329	1173.454
12.731	0.499	1683.493	1175.368
13.746	5.113	1693.089	1218.045
14.761	12.272	1707.548	1284.525
15.775	16.334	1714.883	1321.788
16.790	16.810	1713.995	1324.707
17.804	15.921	1711.538	1315.750
18.819	14.906	1708.569	1305.426
19.834	14.368	1705.958	1299.125
20.848	14.069	1704.302	1295.417
21.863	13.873	1702.261	1292.224
22.877	13.634	1701.156	1289.413
23.892	13.432	1700.001	1286.852
24.907	13.275	1698.910	1284.696
25.921	13.133	1698.418	1283.107
26.936	13.226	1696.756	1282.458
27.950	13.311	1695.471	1282.031
28.965	13.393	1695.040	1282.227
29.980	13.345	1694.618	1281.427
30.994	13.499	1693.403	1281.581
32.009	13.489	1692.017	1280.347
33.023	13.543	1691.699	1280.404
34.038	13.521	1690.602	1279.298
35.053	13.510	1689.999	1278.637
36.067	13.471	1688.444	1277.051
37.082	13.524	1687.419	1276.572
38.096	13.437	1686.827	1275.342
39.111	13.477	1685.806	1274.766
40.126	13.479	1684.794	1273.902
41.140	13.447	1684.050	1272.979
42.155	13.381	1683.141	1271.674
43.169	13.360	1681.555	1270.202
44.184	13.320	1680.164	1268.726
45.199	13.182	1679.530	1267.081
46.213	13.350	1677.557	1266.769
47.228	13.333	1677.078	1266.160
48.242	13.383	1675.588	1265.311
49.257	13.418	1674.097	1264.339
50.271	13.367	1673.422	1263.324
51.286	13.498	1671.370	1262.663
52.301	13.375	1670.207	1260.738
53.315	13.376	1669.243	1259.907
54.330	13.445	1667.130	1258.721
55.344	13.396	1665.660	1257.127
56.359	13.326	1664.425	1255.557
57.374	13.331	1663.393	1254.707
58.388	13.447	1661.715	1254.206
59.403	13.298	1660.653	1252.163
60.417	13.357	1658.906	1251.184
61.432	13.276	1658.153	1249.893
62.447	13.248	1656.930	1248.646
63.461	13.268	1655.529	1247.635
64.476	13.201	1655.267	1246.818
65.490	13.275	1653.460	1245.905
66.505	13.217	1652.273	1244.465
67.520	13.294	1651.132	1244.075
68.534	13.204	1650.094	1242.503
69.549	13.285	1649.122	1242.274
70.563	13.311	1647.439	1241.088
71.578	13.252	1646.439	1239.784
72.593	13.300	1645.472	1239.307
73.607	13.159	1644.278	1237.242
74.622	13.161	1642.924	1236.129
75.636	13.175	1641.986	1235.414
76.651	13.150	1641.217	1234.541
77.666	13.189	1640.603	1234.265
78.680	13.197	1639.367	1233.281
79.695	13.161	1638.458	1232.222
80.709	13.227	1637.263	1231.709
81.724	13.275	1636.315	1231.240
82.739	13.329	1635.437	1230.871
83.753	13.339	1634.535	1230.160
84.768	13.370	1633.542	1229.532
85.782	13.381	1632.531	1228.749
86.797	13.475	1631.914	1228.868
87.812	13.429	1630.915	1227.667
88.826	13.354	1629.959	1226.286
89.841	13.372	1628.107	1224.915
90.855	13.370	1627.390	1224.252
91.870	13.362	1625.903	1222.969
92.884	13.350	1625.120	1222.185
93.899	13.489	1623.927	1222.199
94.914	13.525	1622.418	1221.225
95.928	13.519	1621.323	1220.251
96.943	13.463	1620.282	1218.946
97.957	13.496	1618.628	1217.833
98.972	13.452	1617.488	1216.547
99.987	13.511	1615.721	1215.544
101.001	13.460	1614.595	1214.210
102.016	13.426	1612.913	1212.595
103.030	13.522	1611.601	1212.203
104.045	13.391	1610.652	1210.419
105.060	13.434	1608.729	1209.185
106.074	13.348	1607.845	1207.782
107.089	13.449	1605.617	1206.740
108.103	13.360	1604.139	1204.877
109.118	13.309	1602.803	1203.392
110.133	13.346	1601.371	1202.481
111.147	13.336	1599.871	1201.173
112.162	13.229	1599.032	1199.665
113.176	13.336	1597.160	1198.924
114.191	13.351	1595.751	1197.871
115.206	13.331	1594.829	1196.931
116.220	13.272	1593.499	1195.396
117.235	13.356	1591.856	1194.666
118.249	13.375	1590.696	1193.826
119.264	13.305	1589.499	1192.322
120.279	13.341	1587.707	1191.131
121.293	13.324	1586.494	1189.989
122.308	13.279	1585.176	1188.577
123.322	13.265	1583.581	1187.172
124.337	13.264	1582.015	1185.883
125.352	13.216	1580.618	1184.393
126.366	13.271	1579.790	1184.061
127.381	13.160	1578.774	1182.395
128.395	13.288	1577.420	1182.193
129.410	13.305	1576.018	1181.158
130.424	13.271	1574.849	1179.938
131.439	13.361	1572.693	1178.860
132.454	13.302	1571.949	1177.774
133.468	13.363	1569.909	1176.575
134.483	13.396	1568.979	1176.014
135.497	13.460	1567.326	1175.123
136.512	13.386	1566.305	1173.727
137.527	13.428	1564.738	1172.746
138.541	13.463	1563.522	1171.982
139.556	13.361	1562.460	1170.356
140.570	13.446	1560.997	1169.758
141.585	13.413	1559.817	1168.539
142.600	13.550	1558.273	1168.245
143.614	13.468	1557.118	1166.702
144.629	13.527	1555.750	1165.989
145.643	13.643	1554.372	1165.667
146.658	13.596	1553.153	1164.317
147.673	13.561	1551.448	1162.690
148.687	13.574	1549.635	1161.320
149.702	13.676	1548.202	1160.857
150.716	13.563	1546.765	1158.889
151.731	13.561	1545.491	1157.817
152.746	13.549	1544.529	1156.908
153.760	13.560	1542.684	1155.506
154.775	13.530	1541.382	1154.216
155.789	13.540	1540.107	1153.227
156.804	13.682	1538.682	1153.046
157.819	13.690	1537.239	1151.920
158.833	13.650	1536.304	1150.838
159.848	13.669	1535.012	1149.903
160.862	13.767	1533.846	1149.603
161.877	13.752	1532.735	1148.568
162.892	13.783	1531.440	1147.708
163.906	13.725	1529.897	1146.053
164.921	13.655	1528.647	1144.532
165.935	13.629	1527.452	1143.357
166.950	13.650	1526.776	1142.892
167.964	13.765	1525.408	1142.560
168.979	13.670	1524.475	1141.105
169.994	13.668	1523.525	1140.278
171.008	13.605	1522.801	1139.202
172.023	13.702	1521.477	1138.780
173.037	13.789	1520.489	1138.533
174.052	13.840	1518.476	1137.275
175.067	13.827	1517.477	1136.336
176.081	13.861	1516.514	1135.751
177.096	13.742	1515.392	1133.999
178.110	13.790	1513.983	1133.168
179.125	13.759	1512.841	1132.001
180.140	13.797	1511.685	1131.298
181.154	13.821	1510.778	1130.681
182.169	13.867	1509.577	1129.997
183.183	13.889	1508.066	1128.913
184.198	13.909	1507.035	1128.180
185.213	13.831	1505.798	1126.624
186.227	14.008	1504.783	1126.965
187.242	14.018	1503.571	1126.021
188.256	13.987	1501.866	1124.442
189.271	13.962	1501.598	1123.968
190.286	14.034	1500.663	1123.657
191.300	13.967	1499.420	1122.174
192.315	13.873	1498.146	1120.483
193.329	13.798	1496.905	1118.954
194.344	13.790	1495.827	1117.993
195.359	13.902	1494.528	1117.681
196.373	14.001	1493.401	1117.400
197.388	13.978	1492.528	1116.496
198.402	14.072	1491.376	1116.166
199.417	14.076	1490.211	1115.226
200.432	14.162	1489.323	1115.033
201.446	14.226	1488.188	1114.517
202.461	14.179	1487.356	1113.480
203.475	14.285	1486.193	1113.222
204.490	14.191	1485.514	1111.987
205.504	14.258	1484.116	1111.288
206.519	14.174	1483.031	1109.816
207.534	14.229	1481.611	1109.022
208.548	14.185	1480.494	1107.797
209.563	14.142	1479.739	1106.845
210.577	14.156	1478.656	1106.033
211.592	14.261	1477.232	1105.564
212.607	14.226	1477.161	1105.180
213.621	14.338	1476.138	1105.062
214.636	14.343	1475.225	1104.315
215.650	14.412	1473.612	1103.465
216.665	14.383	1472.944	1102.672
217.680	14.395	1471.875	1101.857
218.694	14.417	1471.147	1101.362
219.709	14.457	1470.196	1100.814
220.723	14.390	1469.698	1099.904
221.738	14.342	1468.902	1098.894
222.753	14.476	1467.555	1098.670
223.767	14.378	1466.841	1097.392
224.782	14.419	1465.812	1096.797
225.796	14.437	1464.815	1096.072
226.811	14.482	1464.043	1095.691
227.826	14.471	1463.229	1094.916
228.840	14.523	1462.573	1094.665
229.855	14.551	1460.928	1093.524
230.869	14.467	1460.372	1092.458
231.884	14.481	1459.083	1091.489
232.899	14.511	1458.150	1090.889
233.913	14.534	1456.521	1089.728
234.928	14.534	1455.623	1088.960
235.942	14.413	1455.015	1087.618
236.957	14.398	1454.243	1086.847
237.972	14.409	1452.455	1085.487
238.986	14.402	1451.331	1084.503
240.001	14.606	1450.378	1085.024
241.015	14.554	1448.685	1083.323
242.030	14.495	1447.892	1082.250
243.045	14.521	1447.302	1081.885
244.059	14.542	1446.481	1081.311
245.074	14.717	1445.220	1081.407
246.088	14.626	1444.744	1080.366
247.103	14.663	1443.521	1079.591
248.117	14.733	1442.940	1079.518
249.132	14.752	1441.722	1078.634
250.147	14.904	1441.302	1079.202
251.161	14.877	1440.587	1078.395
252.176	14.920	1440.071	1078.192
253.190	14.973	1439.103	1077.712
254.205	14.959	1438.521	1077.092
255.220	15.007	1437.902	1076.844
256.234	14.993	1436.900	1075.909
257.249	15.052	1436.008	1075.522
258.263	15.051	1434.963	1074.639
259.278	15.026	1434.194	1073.805
260.293	15.055	1433.296	1073.226
261.307	15.032	1432.603	1072.465
262.322	15.106	1431.641	1072.127
263.336	15.080	1431.162	1071.504
264.351	15.149	1429.930	1070.929
265.366	15.195	1428.979	1070.412
266.380	15.201	1427.726	1069.422
267.395	15.212	1427.034	1068.878
268.409	15.310	1425.705	1068.409
269.424	15.129	1425.231	1066.808
270.439	15.211	1424.155	1066.433
271.453	15.243	1422.983	1065.661
272.468	15.252	1421.977	1064.873
273.482	15.111	1421.420	1063.467
274.497	15.211	1420.379	1063.226
275.512	15.253	1419.622	1062.832
276.526	15.224	1419.095	1062.159
277.541	15.322	1417.661	1061.613
278.555	15.250	1416.680	1060.331
279.570	15.248	1416.103	1059.789
280.585	15.364	1414.877	1059.511
281.599	15.361	1414.535	1059.146
282.614	15.392	1413.379	1058.382
283.628	15.442	1412.003	1057.571
284.643	15.394	1411.308	1056.655
285.657	15.342	1410.223	1055.422
286.672	15.319	1409.139	1054.373
287.687	15.431	1407.975	1054.110
288.701	15.370	1407.066	1052.952
289.716	15.347	1406.849	1052.554
290.730	15.412	1406.037	1052.263
291.745	15.479	1404.789	1051.653
292.760	15.471	1403.630	1050.641
293.774	15.554	1402.666	1050.345
294.789	15.418	1402.054	1048.946
295.803	15.572	1401.130	1049.121
296.818	15.574	1400.040	1048.228
297.833	15.580	1399.255	1047.587
298.847	15.577	1398.161	1046.652
299.862	15.557	1397.043	1045.603
300.876	15.491	1396.511	1044.697
301.891	15.619	1395.383	1044.559
302.906	15.713	1394.194	1044.162
303.920	15.718	1393.985	1043.938
304.935	15.775	1393.055	1043.507
305.949	15.681	1392.173	1042.173
306.964	15.775	1391.535	1042.186
307.979	15.756	1390.809	1041.427
308.993	15.861	1389.241	1040.814
310.008	15.775	1388.816	1039.870
311.022	15.732	1387.890	1038.820
312.037	15.922	1386.679	1038.992
313.052	15.849	1385.932	1037.894
314.066	15.878	1384.811	1037.141
315.081	15.791	1383.916	1035.840
316.095	15.741	1382.867	1034.654
317.110	15.818	1381.471	1033.994
318.125	15.827	1381.017	1033.616
319.139	15.758	1380.014	1032.354
320.154	15.925	1378.702	1032.302
321.168	15.838	1377.632	1030.877
322.183	15.952	1376.657	1030.758
323.197	15.911	1375.597	1029.620
324.212	15.822	1375.252	1028.727
325.227	15.976	1374.247	1028.822
326.241	15.931	1373.245	1027.709
327.256	15.933	1372.454	1027.040
328.270	16.025	1371.850	1027.058
329.285	15.920	1370.721	1025.478
330.300	16.042	1369.689	1025.363
331.314	15.946	1368.989	1024.158
332.329	16.088	1367.939	1024.147
333.343	16.121	1367.169	1023.678
334.358	15.989	1366.550	1022.325
335.373	16.015	1365.648	1021.715
336.387	16.136	1364.594	1021.570
337.402	16.052	1363.917	1020.469
338.416	16.136	1363.266	1020.399
339.431	16.086	1363.050	1019.841
340.446	16.160	1361.965	1019.389
341.460	16.063	1361.109	1018.072
342.475	16.172	1360.145	1017.917
343.489	16.294	1359.213	1017.864
344.504	16.226	1358.357	1016.724
345.519	16.374	1357.152	1016.621
346.533	16.276	1356.326	1015.326
347.548	16.391	1355.289	1015.153
348.562	16.448	1354.572	1014.865
349.577	16.371	1353.870	1013.790
350.592	16.390	1352.805	1013.017
351.606	16.399	1352.095	1012.450
352.621	16.339	1351.105	1011.260
353.635	16.393	1350.338	1010.916
354.650	16.427	1348.934	1009.979
355.665	16.388	1347.785	1008.800
356.679	16.400	1346.952	1008.156
357.694	16.369	1345.920	1007.110
358.708	16.425	1344.847	1006.549
359.723	16.397	1343.939	1005.616
360.738	16.560	1342.810	1005.651
361.752	16.473	1341.975	1004.423
362.767	16.481	1340.685	1003.416
363.781	16.504	1339.695	1002.719
364.796	16.503	1339.211	1002.263
365.810	16.421	1338.609	1001.237
366.825	16.508	1337.773	1001.040
367.840	16.488	1337.126	1000.349
368.854	16.610	1336.509	1000.520
369.869	16.768	1335.566	1000.659
370.883	16.752	1335.031	1000.073
371.898	16.681	1334.102	998.870
372.913	16.666	1333.502	998.248
373.927	16.662	1332.419	997.323
374.942	16.652	1331.682	996.625
375.956	16.739	1331.016	996.548
376.971	16.812	1329.859	996.024
377.986	16.743	1329.390	995.182
379.000	16.908	1328.196	995.168
380.015	16.794	1327.767	994.086
381.029	16.846	1326.738	993.536
382.044	16.900	1326.356	993.475
383.059	16.884	1325.610	992.739
384.073	16.964	1324.613	992.372
385.088	16.945	1324.178	991.847
386.102	16.890	1323.914	991.236
387.117	17.072	1322.650	991.267
388.132	17.043	1321.721	990.312
389.146	16.954	1321.086	989.234
390.161	16.942	1320.193	988.405
391.175	16.920	1319.034	987.322
392.190	17.008	1318.418	987.284
393.205	17.020	1317.653	986.694
394.219	17.067	1316.224	985.809
395.234	17.178	1314.828	985.321
396.248	17.119	1313.860	984.168
397.263	17.092	1312.746	983.089
398.278	17.075	1311.488	981.963
399.292	17.118	1310.264	981.208
400.307	17.052	1309.446	980.129
401.321	17.063	1308.237	979.197
402.336	17.062	1307.228	978.350
403.350	17.054	1306.463	977.647
404.365	17.163	1305.639	977.568
405.380	17.098	1304.302	976.106
406.394	17.060	1304.030	975.603
407.409	17.198	1302.802	975.386
408.423	17.205	1302.408	975.046
409.438	17.289	1301.704	974.915
410.453	17.317	1300.727	974.259
411.467	17.377	1300.002	973.973
412.482	17.397	1299.509	973.628
413.496	17.368	1298.850	972.885
414.511	17.432	1298.032	972.551
415.526	17.423	1297.258	971.833
416.540	17.408	1296.788	971.310
417.555	17.497	1295.780	970.980
418.569	17.526	1295.470	970.822
419.584	17.555	1294.910	970.484
420.599	17.492	1294.201	969.507
421.613	100.209	1361.265	1488.427
422.628	98.265	1370.968	1488.513
