DTS Sentinel unit serial number:	SN413079Multiplexer serial number:	ORYXHardware model number:	OX4-SRSoftware version number:	ORYX F/W v4.00 Oryx Data Collector v3.7.2.0data status	okinstallation	princeton_trtdifferential loss correction	single-endedforward channel	channel 4reverse channel	N/Adate	2019/09/15time	14:13:34forward acquisition time	60.00reverse acquisition time	0.00gamma	496.2192k internal	0.2288k external	0.2288temperature offset calibration	0.9995default loss term (dB/km)	0.3790temperature slope calibration	1.0000multiplexer offset coefficient	1.0000multiplexer slope coefficient	1.0000fibre end	0.00T internal ref (°C)	38.84T ext. ref 1 (°C)	4.96T ext. ref 2 (°C)	36.14length (m)	temperature (°C)	Stokes	anti-Stokes-747.200	374.583	-0.029	-0.061
-746.185	-200.000	0.051	0.310
-745.171	-200.000	0.024	0.206
-744.156	164.230	0.168	0.242
-743.142	32.845	0.214	0.190
-742.127	40.761	0.304	0.281
-741.112	193.921	-0.282	-0.437
-740.098	800.000	0.030	0.123
-739.083	-59.599	-0.221	0.097
-738.069	-53.526	0.315	-0.148
-737.054	-200.000	-0.012	-0.436
-736.039	35.110	-0.157	0.141
-735.025	-200.000	-0.066	0.514
-734.010	-65.699	-0.211	-0.086
-732.996	157.347	0.294	0.416
-731.981	-200.000	0.079	-0.363
-730.966	-67.172	-0.325	0.131
-729.952	-9.543	-0.336	0.230
-728.937	-138.895	-0.264	-0.029
-727.923	-51.119	0.124	-0.060
-726.908	-82.898	-0.302	-0.100
-725.894	24.604	-0.226	-0.192
-724.879	-89.772	-0.247	0.074
-723.864	-200.000	0.022	-0.272
-722.850	-200.000	-0.022	0.279
-721.835	-155.601	0.183	0.012
-720.821	-89.310	-0.263	-0.079
-719.806	-17.460	0.107	0.069
-718.791	800.000	0.072	-0.272
-717.777	1.770	-0.281	-0.208
-716.762	-96.418	-0.119	0.032
-715.748	-139.476	0.126	-0.014
-714.733	-85.291	0.227	0.072
-713.718	-14.510	0.022	-0.015
-712.704	-85.262	-0.195	0.062
-711.689	-200.000	0.027	-0.124
-710.675	-27.597	-0.234	0.139
-709.660	0.136	-0.224	-0.163
-708.645	111.317	-0.038	-0.047
-707.631	65.272	-0.086	-0.089
-706.616	-2.521	-0.150	-0.108
-705.602	110.342	0.124	0.153
-704.587	-200.000	0.005	-0.197
-703.572	-84.724	0.346	-0.111
-702.558	-200.000	0.085	-0.395
-701.543	800.000	0.136	0.450
-700.529	-64.736	-0.212	-0.088
-699.514	201.469	-0.041	0.064
-698.499	240.345	-0.135	-0.231
-697.485	-200.000	0.077	-0.352
-696.470	-79.402	-0.199	-0.069
-695.456	115.553	0.147	0.184
-694.441	90.828	-0.156	-0.179
-693.426	-113.161	0.282	-0.057
-692.412	-115.032	-0.566	0.110
-691.397	-200.000	0.007	-0.336
-690.383	539.038	-0.018	-0.044
-689.368	61.932	-0.201	-0.205
-688.354	461.056	-0.045	0.102
-687.339	-200.000	0.078	-0.497
-686.324	-95.800	-0.265	-0.072
-685.310	-105.844	-0.075	-0.017
-684.295	-200.000	-0.101	-0.000
-683.281	-115.856	0.105	0.020
-682.266	800.000	0.013	-0.051
-681.251	162.217	-0.084	0.120
-680.237	-131.193	-0.109	0.015
-679.222	-111.028	0.196	-0.041
-678.208	-89.843	-0.316	-0.094
-677.193	800.000	0.053	0.152
-676.178	-70.855	-0.150	-0.058
-675.164	139.873	-0.055	0.074
-674.149	-101.524	0.412	-0.103
-673.135	-200.000	0.012	-0.328
-672.120	-56.975	-0.328	0.148
-671.105	-98.388	-0.168	0.044
-670.091	370.629	-0.107	-0.222
-669.076	-118.442	0.193	-0.035
-668.062	152.228	-0.047	-0.066
-667.047	101.105	0.072	0.086
-666.032	-135.441	-0.214	0.026
-665.018	378.006	0.091	-0.191
-664.003	-173.432	0.232	-0.007
-662.989	-200.000	0.027	-0.141
-661.974	-37.496	-0.211	-0.115
-660.959	-200.000	-0.075	0.386
-659.945	-38.831	-0.317	0.171
-658.930	387.459	-0.114	0.240
-657.916	-63.668	0.120	0.050
-656.901	-38.836	0.140	-0.076
-655.886	-110.112	-0.141	-0.030
-654.872	-168.469	-0.122	0.005
-653.857	-64.764	-0.023	-0.010
-652.843	-136.454	0.069	-0.008
-651.828	139.658	0.405	-0.544
-650.814	-200.000	0.038	-0.427
-649.799	242.292	0.097	-0.166
-648.784	800.000	0.044	-0.139
-647.770	-84.756	0.166	0.053
-646.755	-12.454	0.102	0.068
-645.741	-18.750	-0.103	0.066
-644.726	800.000	-0.092	-0.352
-643.711	3.749	0.031	0.023
-642.697	-174.469	-0.172	-0.005
-641.682	-83.572	-0.168	-0.055
-640.668	23.100	0.197	-0.165
-639.653	-127.563	-0.153	-0.023
-638.638	800.000	0.022	0.096
-637.624	477.436	-0.040	0.091
-636.609	-112.393	-0.310	-0.063
-635.595	-99.778	-0.102	-0.026
-634.580	-155.779	-0.105	0.007
-633.565	-199.521	-0.066	-0.000
-632.551	-159.339	-0.088	-0.005
-631.536	68.166	-0.169	-0.176
-630.522	460.292	0.095	-0.215
-629.507	19.595	-0.121	-0.099
-628.492	393.536	0.053	-0.113
-627.478	15.496	-0.142	0.113
-626.463	800.000	0.073	0.228
-625.449	-155.099	0.514	-0.034
-624.434	57.713	-0.182	-0.182
-623.419	-31.718	-0.047	0.027
-622.405	45.404	0.335	0.316
-621.390	13.524	-0.072	0.057
-620.376	41.132	0.161	-0.148
-619.361	791.642	-0.051	-0.144
-618.346	-200.000	0.022	0.104
-617.332	-82.245	-0.283	0.094
-616.317	222.930	0.049	-0.081
-615.303	-200.000	-0.002	0.202
-614.288	402.968	0.012	-0.025
-613.273	-165.751	0.335	-0.015
-612.259	358.069	-0.083	0.169
-611.244	-159.940	-0.121	-0.007
-610.230	800.000	-0.125	-0.353
-609.215	197.170	-0.143	-0.222
-608.201	-0.581	-0.184	-0.133
-607.186	800.000	0.113	0.327
-606.171	-200.000	-0.087	-0.415
-605.157	461.179	0.018	-0.040
-604.142	124.379	0.104	0.134
-603.128	-132.865	-0.194	0.025
-602.113	31.576	0.314	0.275
-601.098	-200.000	-0.021	-0.208
-600.084	-200.000	-0.028	-0.394
-599.069	-200.000	0.050	-0.262
-598.055	30.386	-0.198	-0.173
-597.040	-95.776	-0.151	-0.041
-596.025	-53.403	-0.325	-0.152
-595.011	3.903	0.402	-0.300
-593.996	-200.000	-0.042	-0.281
-592.982	-72.071	-0.252	0.095
-591.967	73.727	-0.204	0.218
-590.952	-107.608	-0.388	0.086
-589.938	-84.803	-0.456	0.146
-588.923	-71.746	0.230	-0.087
-587.909	-23.676	0.220	0.135
-586.894	11.870	0.270	-0.212
-585.879	-75.000	-0.099	-0.036
-584.865	-15.500	-0.232	-0.151
-583.850	-200.000	0.010	-0.132
-582.836	58.157	0.038	0.038
-581.821	82.514	-0.051	-0.057
-580.806	-31.948	0.135	0.077
-579.792	373.341	-0.038	-0.078
-578.777	122.460	-0.215	-0.274
-577.763	403.981	0.185	-0.396
-576.748	-33.358	-0.212	0.119
-575.733	-34.366	0.362	-0.202
-574.719	-19.987	-0.207	0.130
-573.704	-81.774	-0.333	-0.111
-572.690	-78.051	0.088	-0.031
-571.675	60.483	0.095	0.096
-570.661	-59.611	-0.320	0.140
-569.646	-200.000	-0.072	0.521
-568.631	-68.728	0.028	0.011
-567.617	132.539	-0.183	-0.240
-566.602	194.158	0.104	0.160
-565.588	366.832	0.007	-0.015
-564.573	37.521	-0.097	-0.088
-563.558	646.060	0.012	-0.032
-562.544	54.233	0.241	-0.236
-561.529	-167.790	-0.093	0.004
-560.515	-200.000	-0.001	-0.195
-559.500	108.836	-0.068	-0.083
-558.485	52.081	0.033	-0.032
-557.471	241.667	-0.210	0.358
-556.456	514.973	-0.104	-0.248
-555.442	164.297	-0.055	0.079
-554.427	-51.787	-0.147	0.070
-553.412	-20.904	-0.244	0.152
-552.398	225.803	0.038	0.063
-551.383	-37.632	0.118	-0.064
-550.369	-96.158	0.295	-0.080
-549.354	-200.000	0.019	0.345
-548.339	39.247	-0.205	0.186
-547.325	-48.816	0.074	-0.036
-546.310	137.667	0.048	-0.064
-545.296	-200.000	-0.016	-0.159
-544.281	800.000	0.079	0.228
-543.266	100.196	-0.099	-0.116
-542.252	61.922	0.295	-0.299
-541.237	-192.960	-0.212	0.002
-540.223	-200.000	0.023	-0.469
-539.208	-118.335	-0.243	0.044
-538.193	-9.018	0.107	0.073
-537.179	168.827	0.172	0.250
-536.164	-52.665	0.356	0.167
-535.150	-129.871	-0.388	0.054
-534.135	-39.004	0.233	-0.125
-533.121	-200.000	-0.004	0.052
-532.106	-80.542	-0.511	-0.173
-531.091	800.000	-0.035	-0.123
-530.077	-75.943	-0.049	-0.018
-529.062	677.099	0.014	0.038
-528.048	123.207	-0.301	0.383
-527.033	-200.000	-0.024	-0.434
-526.018	207.146	-0.208	-0.329
-525.004	-60.795	0.173	0.075
-523.989	-99.151	-0.411	-0.106
-522.975	-49.358	-0.082	-0.040
-521.960	-27.027	0.169	-0.100
-520.945	270.257	-0.056	-0.101
-519.931	-200.000	0.041	-0.230
-518.916	-36.743	0.125	0.068
-517.902	53.851	-0.071	0.070
-516.887	-140.265	-0.110	0.012
-515.872	-200.000	-0.001	-0.182
-514.858	53.055	-0.132	0.128
-513.843	6.589	-0.160	0.121
-512.829	-23.402	-0.306	0.187
-511.814	-200.000	-0.015	0.125
-510.799	-61.871	-0.108	0.046
-509.785	-130.762	0.314	0.043
-508.770	-33.314	0.155	0.087
-507.756	-87.183	-0.119	0.037
-506.741	-200.000	-0.003	-0.262
-505.726	693.431	-0.044	-0.118
-504.712	-111.286	-0.292	0.061
-503.697	-150.805	-0.299	0.023
-502.683	-200.000	0.015	-0.327
-501.668	20.298	0.128	-0.105
-500.653	-33.680	0.191	0.107
-499.639	800.000	0.069	-0.263
-498.624	257.733	-0.127	-0.222
-497.610	45.108	0.136	-0.127
-496.595	37.131	-0.181	0.163
-495.581	-104.362	-0.159	0.037
-494.566	-28.406	-0.174	0.102
-493.551	-110.770	0.075	-0.016
-492.537	-200.000	0.006	-0.044
-491.522	427.245	0.061	-0.134
-490.508	-200.000	-0.003	-0.111
-489.493	-41.912	-0.288	-0.150
-488.478	-144.465	-0.207	0.019
-487.464	-18.717	0.041	0.026
-486.449	-200.000	-0.480	0.002
-485.435	142.842	-0.081	0.110
-484.420	-200.000	0.034	0.329
-483.405	610.045	0.074	-0.188
-482.391	258.818	0.141	0.246
-481.376	-78.156	0.340	0.119
-480.362	-130.996	-0.228	0.031
-479.347	-122.482	-0.229	-0.038
-478.332	91.589	0.092	0.105
-477.318	155.318	0.062	-0.086
-476.303	-183.396	-0.337	0.006
-475.289	-200.000	-0.026	0.150
-474.274	130.228	-0.099	-0.129
-473.259	-32.299	-0.315	-0.178
-472.245	-200.000	0.015	-0.203
-471.230	-83.317	0.248	-0.081
-470.216	43.787	0.166	0.154
-469.201	397.655	0.164	-0.349
-468.186	-111.399	0.187	0.039
-467.172	-56.482	-0.176	0.079
-466.157	-99.790	0.130	0.033
-465.143	-26.665	0.106	0.063
-464.128	-200.000	0.000	-0.165
-463.113	226.409	0.086	0.141
-462.099	-200.000	0.024	-0.176
-461.084	113.156	-0.278	0.342
-460.070	4.678	0.103	0.077
-459.055	-200.000	-0.006	0.145
-458.040	-147.242	-0.186	0.016
-457.026	-135.027	0.349	0.043
-456.011	389.452	-0.056	-0.118
-454.997	-31.051	-0.157	-0.090
-453.982	497.440	0.137	-0.319
-452.968	180.253	-0.119	-0.177
-451.953	325.131	0.127	0.247
-450.938	248.113	-0.027	-0.047
-449.924	-156.220	-0.282	0.018
-448.909	-58.282	-0.263	-0.116
-447.895	40.242	-0.251	0.228
-446.880	800.000	-0.041	0.158
-445.865	84.018	0.126	0.139
-444.851	6.019	0.176	0.132
-443.836	800.000	0.111	-0.319
-442.822	-183.400	0.064	0.001
-441.807	-67.958	0.268	0.106
-440.792	65.075	0.089	-0.092
-439.778	-200.000	0.006	0.205
-438.763	-171.815	0.204	0.007
-437.749	-29.175	-0.141	0.082
-436.734	-46.779	-0.268	-0.133
-435.719	-200.000	0.011	0.240
-434.705	57.619	-0.020	0.020
-433.690	-200.000	0.013	-0.109
-432.676	-2.596	-0.257	-0.182
-431.661	-90.281	0.077	-0.023
-430.646	800.000	-0.038	0.111
-429.632	-200.000	-0.008	0.302
-428.617	120.855	0.083	-0.105
-427.603	120.622	0.133	-0.167
-426.588	198.943	0.126	-0.195
-425.573	120.150	0.368	-0.462
-424.559	-106.162	0.371	0.084
-423.544	-200.000	-0.017	-0.088
-422.530	800.000	0.022	-0.085
-421.515	-146.327	0.112	-0.010
-420.500	63.130	0.138	-0.140
-419.486	-125.391	-0.140	-0.022
-418.471	187.874	0.144	0.218
-417.457	246.070	0.184	0.313
-416.442	492.008	-0.061	0.142
-415.428	-96.039	0.093	-0.025
-414.413	-200.000	0.037	0.183
-413.398	-200.000	-0.042	0.387
-412.384	-200.000	-0.020	0.477
-411.369	800.000	-0.031	0.105
-410.355	103.164	0.078	0.092
-409.340	442.658	0.065	-0.145
-408.325	583.012	0.045	0.112
-407.311	-101.432	0.253	-0.062
-406.296	800.000	0.057	0.171
-405.282	-200.000	-0.011	-0.095
-404.267	800.000	-0.090	0.395
-403.252	315.390	0.187	0.357
-402.238	105.814	0.023	-0.027
-401.223	83.222	0.142	-0.157
-400.209	71.451	-0.138	0.145
-399.194	75.007	-0.130	-0.138
-398.179	-200.000	0.052	0.289
-397.165	800.000	0.061	0.234
-396.150	721.138	-0.077	0.207
-395.136	0.522	0.098	0.071
-394.121	6.632	-0.201	0.151
-393.106	-62.341	-0.169	-0.071
-392.092	-200.000	0.007	-0.369
-391.077	-91.565	-0.101	0.029
-390.063	43.092	-0.291	-0.268
-389.048	19.211	0.212	-0.172
-388.033	-146.612	0.091	0.008
-387.019	458.686	-0.084	-0.188
-386.004	105.905	-0.058	-0.069
-384.990	800.000	-0.071	0.247
-383.975	-200.000	0.048	0.383
-382.960	800.000	-0.015	-0.044
-381.946	-200.000	0.005	0.338
-380.931	220.114	0.200	0.324
-379.917	-80.375	0.149	0.050
-378.902	90.985	-0.106	0.120
-377.888	18.716	0.225	0.182
-376.873	-50.857	-0.117	0.055
-375.858	179.278	-0.032	-0.047
-374.844	192.367	-0.184	0.280
-373.829	56.207	-0.115	0.113
-372.815	-64.036	-0.130	0.054
-371.800	-49.441	-0.443	0.213
-370.785	70.357	-0.023	0.024
-369.771	-13.637	-0.064	0.042
-368.756	-200.000	0.034	-0.157
-367.742	-130.512	-0.310	0.042
-366.727	-55.049	0.296	-0.135
-365.712	-99.585	-0.232	0.059
-364.698	52.250	0.310	0.299
-363.683	-122.006	0.272	-0.045
-362.669	-200.000	0.004	0.036
-361.654	41.145	0.143	0.131
-360.639	-200.000	-0.012	0.248
-359.625	-154.167	0.114	0.008
-358.610	-42.277	-0.072	-0.037
-357.596	-14.630	0.079	-0.051
-356.581	-21.320	-0.221	-0.136
-355.566	210.020	0.343	0.543
-354.552	21.140	0.313	0.256
-353.537	206.297	0.067	-0.105
-352.523	146.602	0.118	0.161
-351.508	-200.000	0.032	-0.276
-350.493	-42.480	-0.246	0.127
-349.479	128.083	-0.372	0.477
-348.464	228.134	-0.151	0.248
-347.450	800.000	0.124	0.484
-346.435	245.017	-0.075	-0.127
-345.420	-200.000	0.035	-0.233
-344.406	-126.375	-0.067	-0.010
-343.391	299.868	0.103	-0.191
-342.377	476.916	-0.063	-0.143
-341.362	600.965	-0.043	-0.107
-340.348	-97.421	-0.104	-0.027
-339.333	-154.712	-0.224	-0.015
-338.318	-115.832	0.339	0.064
-337.304	-11.174	0.076	0.051
-336.289	-200.000	-0.017	0.300
-335.275	-115.248	-0.241	-0.046
-334.260	800.000	-0.055	-0.229
-333.245	173.242	-0.221	-0.321
-332.231	-200.000	-0.007	-0.401
-331.216	71.115	0.192	-0.200
-330.202	-200.000	0.042	-0.215
-329.187	-200.000	-0.024	0.225
-328.172	-200.000	-0.087	0.404
-327.158	743.776	0.076	-0.206
-326.143	-200.000	0.026	-0.212
-325.129	29.374	-0.176	0.151
-324.114	-165.025	-0.039	-0.002
-323.099	-5.919	-0.264	-0.182
-322.085	742.792	0.053	0.143
-321.070	80.160	-0.125	0.136
-320.056	323.901	-0.025	0.048
-319.041	186.173	0.168	0.253
-318.026	179.530	-0.145	-0.214
-317.012	-200.000	0.006	-0.213
-315.997	800.000	-0.030	-0.107
-314.983	22.828	0.113	0.093
-313.968	-52.103	0.252	0.118
-312.953	-200.000	-0.000	-0.097
-311.939	-200.000	-0.045	0.218
-310.924	-26.849	0.247	0.146
-309.910	-146.999	0.278	0.024
-308.895	-71.226	0.072	-0.027
-307.880	-28.523	-0.309	-0.180
-306.866	681.482	-0.013	-0.034
-305.851	-200.000	-0.080	0.469
-304.837	-9.263	0.099	0.067
-303.822	304.950	0.132	0.247
-302.807	-68.746	-0.218	0.085
-301.793	-200.000	0.000	0.005
-300.778	-183.855	-0.171	0.003
-299.764	68.465	0.167	-0.173
-298.749	-72.350	0.260	0.097
-297.735	729.670	0.076	-0.205
-296.720	800.000	-0.048	-0.186
-295.705	41.578	0.218	-0.199
-294.691	-200.000	-0.032	0.154
-293.676	-200.000	0.028	-0.195
-292.662	-21.350	0.055	0.034
-291.647	-200.000	-0.012	-0.072
-290.632	-200.000	-0.004	0.131
-289.618	-95.202	-0.237	-0.064
-288.603	702.581	-0.049	-0.130
-287.589	162.431	0.087	0.123
-286.574	92.203	0.142	-0.162
-285.559	-200.000	-0.028	-0.145
-284.545	29.887	-0.147	-0.126
-283.530	470.099	-0.113	-0.257
-282.516	4.711	0.133	-0.098
-281.501	-137.895	0.179	-0.020
-280.486	231.345	-0.079	0.131
-279.472	1.268	-0.111	0.080
-278.457	-89.223	0.358	0.106
-277.443	-1.468	0.307	-0.218
-276.428	-159.867	0.297	0.016
-275.413	30.537	0.020	-0.017
-274.399	450.439	-0.053	0.117
-273.384	407.309	0.145	-0.309
-272.370	16.655	0.046	-0.037
-271.355	-147.214	0.559	0.048
-270.340	800.000	-0.065	0.218
-269.326	-20.635	0.175	-0.108
-268.311	-200.000	0.022	0.106
-267.297	310.453	0.103	-0.194
-266.282	-103.037	0.248	-0.059
-265.267	249.403	-0.068	-0.116
-264.253	-142.492	-0.059	0.006
-263.238	-128.581	0.170	-0.024
-262.224	-200.000	-0.005	0.254
-261.209	800.000	-0.090	0.263
-260.195	39.174	0.046	-0.041
-259.180	-33.170	0.185	-0.103
-258.165	107.606	-0.135	0.162
-257.151	-135.339	-0.315	-0.038
-256.136	378.649	0.047	0.097
-255.122	-136.105	0.211	-0.025
-254.107	177.816	0.066	0.097
-253.092	-200.000	-0.008	-0.192
-252.078	-200.000	-0.055	0.463
-251.063	548.725	-0.117	0.281
-250.049	131.875	0.057	-0.074
-249.034	-171.486	0.173	0.006
-248.019	-95.765	-0.158	-0.042
-247.005	-83.748	-0.294	-0.094
-245.990	371.685	-0.071	0.146
-244.976	486.606	-0.097	-0.223
-243.961	539.571	0.017	0.041
-242.946	89.336	-0.156	0.175
-241.932	317.226	0.236	0.448
-240.917	800.000	0.084	-0.265
-239.903	376.712	0.137	0.280
-238.888	-176.105	-0.072	-0.002
-237.873	-94.446	0.065	0.018
-236.859	-200.000	-0.020	0.221
-235.844	-58.479	0.327	0.143
-234.830	296.827	0.147	0.270
-233.815	-99.430	-0.245	-0.062
-232.800	107.720	0.214	0.256
-231.786	-44.781	0.123	0.062
-230.771	-80.624	-0.223	-0.075
-229.757	362.560	-0.098	-0.198
-228.742	177.084	0.145	-0.212
-227.727	-53.509	-0.157	-0.072
-226.713	631.034	-0.016	0.041
-225.698	-63.233	0.181	-0.075
-224.684	713.171	-0.088	0.235
-223.669	251.339	-0.128	0.219
-222.655	-10.783	0.256	0.170
-221.640	402.711	-0.067	-0.141
-220.625	-87.872	0.499	-0.151
-219.611	-200.000	-0.001	-0.234
-218.596	-200.000	-0.003	-0.295
-217.582	157.925	0.046	-0.064
-216.567	300.672	0.121	0.224
-215.552	-63.353	-0.091	-0.038
-214.538	240.728	0.095	0.159
-213.523	-62.592	0.253	-0.105
-212.509	800.000	0.054	0.153
-211.494	-35.986	0.067	-0.036
-210.479	-200.000	-0.031	-0.152
-209.465	-62.785	-0.071	-0.029
-208.450	557.878	0.044	0.105
-207.436	-200.000	0.047	-0.243
-206.421	-43.074	-0.210	-0.107
-205.406	-200.000	-0.034	0.164
-204.392	441.797	-0.211	0.463
-203.377	-200.000	0.041	-0.345
-202.363	-72.566	0.210	-0.078
-201.348	800.000	-0.013	0.048
-200.333	302.757	0.046	0.086
-199.319	-12.987	0.387	0.253
-198.304	-158.304	-0.391	-0.023
-197.290	-200.000	-0.129	-0.571
-196.275	-98.276	-0.115	-0.030
-195.260	34.941	0.183	-0.160
-194.246	-67.140	-0.137	-0.054
-193.231	-200.000	-0.040	0.266
-192.217	53.204	0.156	-0.150
-191.202	-200.000	-0.022	-0.274
-190.187	56.096	0.232	-0.226
-189.173	133.845	-0.146	-0.190
-188.158	-80.710	0.213	-0.071
-187.144	236.586	0.043	0.072
-186.129	37.580	0.101	-0.090
-185.114	555.335	-0.180	-0.436
-184.100	-81.991	-0.288	0.094
-183.085	-200.000	0.059	0.276
-182.071	190.330	0.070	0.106
-181.056	59.172	-0.051	0.050
-180.042	798.477	0.099	-0.275
-179.027	-67.835	0.152	0.059
-178.012	703.556	-0.125	0.330
-176.998	800.000	-0.083	-0.316
-175.983	-200.000	0.040	-0.313
-174.969	215.212	-0.113	-0.180
-173.954	-47.561	0.145	0.071
-172.939	-151.909	0.394	0.029
-171.925	-200.000	0.150	0.000
-170.910	-200.000	0.018	-0.307
-169.896	-80.439	0.246	-0.082
-168.881	800.000	0.042	-0.131
-167.866	247.431	-0.136	0.231
-166.852	166.787	-0.072	-0.103
-165.837	-78.839	0.093	0.032
-164.823	79.851	0.152	0.163
-163.808	-154.000	-0.306	-0.021
-162.793	-68.203	-0.098	0.038
-161.779	-200.000	-0.025	0.196
-160.764	376.130	0.041	0.085
-159.750	800.000	0.058	0.236
-158.735	-200.000	0.007	-0.268
-157.720	196.605	0.226	-0.346
-156.706	409.186	-0.075	0.160
-155.691	-27.112	-0.154	0.090
-154.677	-94.753	0.192	-0.052
-153.662	-91.567	0.205	0.059
-152.647	-27.072	0.156	0.091
-151.633	800.000	0.054	0.192
-150.618	682.684	0.223	0.582
-149.604	-76.084	0.354	-0.125
-148.589	575.867	-0.090	0.219
-147.574	-200.000	0.025	-0.215
-146.560	-25.808	-0.060	0.036
-145.545	146.386	0.041	0.056
-144.531	204.961	-0.055	0.086
-143.516	-9.935	-0.041	0.027
-142.502	65.959	0.050	-0.051
-141.487	800.000	0.083	-0.332
-140.472	-200.000	-0.252	-0.001
-139.458	89.706	0.196	0.219
-138.443	-0.218	0.214	-0.152
-137.429	-122.059	0.121	0.020
-136.414	-23.193	-0.069	-0.041
-135.399	-200.000	-0.048	0.402
-134.385	42.805	-0.063	-0.058
-133.370	800.000	0.007	-0.029
-132.356	-89.770	-0.207	-0.061
-131.341	-134.795	0.021	0.003
-130.326	-158.560	-0.222	-0.013
-129.312	800.000	-0.017	-0.055
-128.297	-52.134	-0.046	-0.022
-127.283	-45.409	0.251	0.125
-126.268	-74.525	0.076	-0.027
-125.253	-84.264	0.056	0.018
-124.239	57.852	0.119	-0.117
-123.224	57.953	0.114	0.111
-122.210	60.352	0.082	0.082
-121.195	-200.000	0.055	0.383
-120.180	278.570	-0.110	-0.196
-119.166	35.323	-0.057	-0.050
-118.151	-200.000	0.015	-0.070
-117.137	11.678	-0.178	-0.137
-116.122	193.068	0.083	-0.125
-115.107	-174.694	-0.203	-0.006
-114.093	263.077	0.135	0.235
-113.078	564.692	-0.114	-0.277
-112.064	-73.737	-0.087	-0.032
-111.049	132.221	0.078	0.100
-110.034	-144.645	0.188	0.017
-109.020	-4.083	0.107	0.074
-108.005	278.202	0.080	0.142
-106.991	-150.390	0.125	-0.010
-105.976	-104.591	-0.090	-0.021
-104.962	-55.250	-0.348	-0.156
-103.947	-78.484	-0.277	0.095
-102.932	-200.000	0.032	-0.287
-101.918	12.877	0.277	-0.214
-100.903	75.854	-0.166	0.175
-99.889	-43.974	0.105	-0.053
-98.874	-142.008	0.215	0.021
-97.859	106.693	0.138	0.164
-96.845	-137.479	0.127	-0.014
-95.830	217.600	0.189	0.301
-94.816	10.457	-0.187	0.142
-93.801	-72.531	-0.245	0.091
-92.786	30.120	0.352	-0.301
-91.772	-53.517	-0.361	0.165
-90.757	-24.310	-0.152	0.090
-89.743	800.000	-0.170	-0.479
-88.728	-73.693	0.217	0.079
-87.713	800.000	0.078	0.253
-86.699	800.000	0.070	0.199
-85.684	73.351	0.360	0.376
-84.670	-200.000	0.047	0.257
-83.655	-38.008	0.216	0.115
-82.640	-131.602	-0.158	-0.021
-81.626	-141.788	0.390	0.039
-80.611	-200.000	-0.005	0.036
-79.597	172.824	-0.050	-0.072
-78.582	-17.981	0.203	-0.127
-77.567	-28.636	-0.172	0.099
-76.553	-200.000	-0.019	0.101
-75.538	-64.603	-0.072	-0.029
-74.524	151.807	-0.113	-0.154
-73.509	479.273	-0.113	-0.256
-72.494	-200.000	0.050	0.276
-71.480	198.341	0.235	-0.360
-70.465	176.509	0.141	-0.204
-69.451	370.799	-0.136	0.275
-68.436	61.999	-0.171	0.170
-67.422	-47.093	0.195	0.095
-66.407	-200.000	-0.068	0.472
-65.392	-200.000	-0.026	-0.210
-64.378	-35.863	0.347	0.188
-63.363	644.672	0.047	-0.121
-62.349	19.982	0.126	0.101
-61.334	124.648	-0.563	-0.707
-60.319	-24.511	0.219	0.130
-59.305	-200.000	-0.091	-0.537
-58.290	800.000	0.243	0.704
-57.276	287.813	0.766	1.384
-56.261	-200.000	79.274	504.498
-55.246	547.747	1370.671	3275.017
-54.232	179.350	2608.791	3810.413
-53.217	112.902	2393.560	2894.579
-52.203	45.349	2129.064	1960.260
-51.188	40.521	2035.855	1829.949
-50.173	38.949	2016.008	1797.656
-49.159	51.193	2056.407	1947.039
-48.144	54.843	2077.162	2000.374
-47.130	41.573	2040.212	1843.295
-46.115	38.904	2029.175	1808.700
-45.100	38.815	2025.880	1804.868
-44.086	38.715	2024.021	1802.226
-43.071	38.790	2021.499	1800.592
-42.057	38.728	2019.715	1798.370
-41.042	38.720	2017.455	1796.207
-40.027	38.755	2015.616	1794.822
-39.013	38.735	2013.409	1792.598
-37.998	38.827	2011.269	1791.463
-36.984	38.829	2009.220	1789.587
-35.969	38.731	2007.706	1787.271
-34.954	38.852	2005.723	1786.541
-33.940	38.862	2004.240	1785.236
-32.925	38.791	2002.802	1783.239
-31.911	38.909	2000.916	1782.563
-30.896	38.872	1998.928	1780.387
-29.881	38.823	1997.989	1779.039
-28.867	38.883	1996.027	1777.761
-27.852	38.798	1994.612	1775.660
-26.838	38.929	1991.992	1774.439
-25.823	38.886	1990.515	1772.672
-24.809	38.884	1988.864	1771.113
-23.794	38.839	1986.501	1768.532
-22.779	38.825	1985.204	1767.179
-21.765	38.783	1983.586	1765.293
-20.750	38.810	1981.435	1763.544
-19.736	38.806	1980.129	1762.279
-18.721	38.864	1978.477	1761.260
-17.706	38.814	1976.841	1759.284
-16.692	38.840	1975.452	1758.211
-15.677	38.873	1973.157	1756.395
-14.663	38.897	1971.988	1755.502
-13.648	38.881	1970.901	1754.321
-12.633	38.988	1969.110	1753.609
-11.619	38.898	1968.304	1752.017
-10.604	38.907	1967.059	1750.924
-9.590	38.851	1965.882	1749.311
-8.575	38.895	1963.946	1747.907
-7.560	38.864	1962.509	1746.285
-6.546	38.884	1961.405	1745.405
-5.531	38.812	1960.208	1743.636
-4.517	38.885	1958.809	1742.968
-3.502	38.962	1956.821	1741.814
-2.487	38.877	1956.157	1740.398
-1.473	38.904	1954.981	1739.523
-0.458	39.016	1950.720	1736.652
0.556	37.876	1932.190	1713.651
1.571	34.188	1912.946	1664.269
2.586	29.893	1934.390	1644.708
3.600	28.350	1971.063	1661.753
4.615	27.213	1967.028	1647.906
5.629	21.119	1863.023	1508.146
6.644	10.791	1737.211	1322.513
7.659	5.543	1695.790	1249.077
8.673	5.099	1692.066	1242.694
9.688	4.971	1690.641	1240.511
10.702	4.919	1689.173	1238.911
11.717	4.862	1685.931	1235.972
12.731	5.417	1686.311	1240.547
13.746	12.036	1702.312	1305.068
14.761	19.406	1716.760	1374.994
15.775	19.674	1715.191	1375.746
16.790	17.871	1710.398	1357.456
17.804	16.743	1707.070	1345.733
18.819	15.705	1703.833	1334.828
19.834	15.079	1700.535	1327.166
20.848	14.794	1699.265	1323.798
21.863	14.493	1697.461	1319.899
22.877	14.300	1695.708	1316.889
23.892	14.003	1695.042	1313.905
24.907	13.962	1693.130	1311.983
25.921	13.895	1692.551	1310.891
26.936	13.960	1691.519	1310.487
27.950	13.951	1690.569	1309.569
28.965	14.001	1690.116	1309.492
29.980	13.998	1689.535	1308.908
30.994	14.083	1688.632	1308.758
32.009	14.172	1687.247	1308.271
33.023	14.218	1686.407	1307.860
34.038	14.253	1685.099	1307.010
35.053	14.214	1684.023	1305.752
36.067	14.220	1682.742	1304.687
37.082	14.106	1681.760	1302.919
38.096	14.119	1681.022	1302.334
39.111	14.166	1679.887	1301.711
40.126	14.194	1679.705	1301.669
41.140	14.168	1677.938	1299.985
42.155	14.075	1676.693	1298.176
43.169	13.929	1675.394	1295.921
44.184	13.908	1674.083	1294.622
45.199	13.959	1672.622	1293.780
46.213	13.888	1671.423	1292.186
47.228	13.851	1670.435	1291.017
48.242	13.915	1669.694	1290.829
49.257	14.042	1668.271	1290.599
50.271	14.050	1667.284	1289.782
51.286	13.999	1665.799	1288.128
52.301	14.023	1664.538	1287.226
53.315	14.008	1663.187	1285.945
54.330	14.063	1661.682	1285.094
55.344	13.873	1660.164	1282.339
56.359	13.905	1658.652	1281.306
57.374	14.029	1657.323	1281.126
58.388	13.938	1656.286	1279.503
59.403	13.946	1654.487	1278.065
60.417	13.842	1653.708	1276.550
61.432	13.847	1652.529	1275.563
62.447	13.861	1651.417	1274.701
63.461	13.803	1650.057	1273.095
64.476	13.771	1649.187	1272.066
65.490	13.739	1648.123	1270.884
66.505	13.772	1646.947	1270.120
67.520	13.772	1645.869	1269.178
68.534	13.812	1644.603	1268.391
69.549	13.870	1643.293	1267.712
70.563	13.894	1642.120	1266.881
71.578	13.829	1641.019	1265.420
72.593	13.824	1639.538	1264.131
73.607	13.738	1639.150	1263.067
74.622	13.701	1637.814	1261.640
75.636	13.625	1637.361	1260.607
76.651	13.665	1636.673	1260.263
77.666	13.696	1635.474	1259.465
78.680	13.737	1634.664	1259.040
79.695	13.733	1633.579	1258.066
80.709	13.687	1632.630	1256.876
81.724	13.831	1632.017	1257.381
82.739	13.864	1630.752	1256.549
83.753	13.965	1629.709	1256.395
84.768	13.969	1628.529	1255.403
85.782	13.964	1628.372	1255.138
86.797	14.061	1627.256	1254.898
87.812	14.138	1626.148	1254.512
88.826	13.948	1625.732	1252.643
89.841	14.001	1623.889	1251.513
90.855	14.059	1623.071	1251.210
91.870	14.015	1622.126	1250.040
92.884	14.048	1621.207	1249.469
93.899	14.074	1620.180	1248.760
94.914	14.090	1618.789	1247.697
95.928	14.173	1617.417	1247.152
96.943	14.234	1615.886	1246.319
97.957	14.174	1614.657	1244.815
98.972	14.047	1613.268	1242.687
99.987	14.135	1611.510	1241.873
101.001	14.060	1610.226	1240.216
102.016	14.074	1608.901	1239.190
103.030	14.013	1607.246	1237.354
104.045	13.996	1605.991	1236.153
105.060	14.065	1605.123	1235.889
106.074	14.057	1603.372	1234.367
107.089	14.000	1601.779	1232.611
108.103	13.954	1599.722	1230.579
109.118	13.846	1598.201	1228.502
110.133	13.737	1597.245	1226.852
111.147	13.796	1596.177	1226.355
112.162	13.872	1594.610	1225.610
113.176	13.872	1592.696	1224.027
114.191	13.837	1591.591	1222.814
115.206	13.853	1590.729	1222.159
116.220	13.958	1589.166	1221.624
117.235	13.836	1588.488	1220.096
118.249	13.899	1586.709	1219.081
119.264	13.920	1585.162	1217.945
120.279	13.885	1583.914	1216.616
121.293	13.893	1582.491	1215.479
122.308	13.826	1581.149	1213.848
123.322	13.857	1579.717	1212.871
124.337	13.770	1577.928	1210.750
125.352	13.740	1577.022	1209.730
126.366	13.834	1575.588	1209.210
127.381	13.751	1574.954	1208.010
128.395	13.807	1573.557	1207.240
129.410	13.904	1572.216	1206.811
130.424	13.798	1571.064	1205.050
131.439	13.859	1569.433	1204.135
132.454	13.882	1568.366	1203.377
133.468	13.877	1567.079	1202.244
134.483	13.938	1565.319	1201.226
135.497	13.953	1563.676	1199.974
136.512	13.897	1562.906	1198.869
137.527	14.007	1560.809	1197.950
138.541	13.995	1559.575	1196.808
139.556	13.955	1558.523	1195.607
140.570	14.079	1557.047	1195.264
141.585	14.050	1556.083	1194.204
142.600	14.107	1554.984	1193.664
143.614	14.126	1553.947	1192.900
144.629	14.201	1552.372	1192.121
145.643	14.322	1550.908	1191.760
146.658	14.251	1549.258	1189.881
147.673	14.295	1547.885	1189.033
148.687	14.185	1546.619	1187.171
149.702	14.070	1545.043	1185.034
150.716	14.021	1543.556	1183.444
151.731	14.097	1541.920	1182.627
152.746	14.173	1540.650	1182.082
153.760	14.134	1539.465	1180.794
154.775	14.080	1538.477	1179.552
155.789	14.110	1537.211	1178.685
156.804	14.179	1535.966	1178.120
157.819	14.211	1534.152	1176.846
158.833	14.226	1533.236	1176.144
159.848	14.278	1532.350	1175.731
160.862	14.372	1531.098	1175.330
161.877	14.365	1529.658	1174.068
162.892	14.328	1528.973	1173.183
163.906	14.247	1527.380	1171.284
164.921	14.182	1525.843	1169.543
165.935	14.177	1524.988	1168.753
166.950	14.267	1523.928	1168.467
167.964	14.225	1523.068	1167.411
168.979	14.254	1522.181	1166.831
169.994	14.217	1521.272	1165.766
171.008	14.259	1519.506	1164.610
172.023	14.272	1518.318	1163.683
173.037	14.266	1517.498	1162.910
174.052	14.343	1516.530	1162.607
175.067	14.331	1515.656	1161.746
176.081	14.252	1514.164	1159.949
177.096	14.295	1512.605	1158.955
178.110	14.274	1510.998	1157.472
179.125	14.354	1510.015	1157.177
180.140	14.274	1509.518	1156.133
181.154	14.339	1508.010	1155.331
182.169	14.392	1506.926	1154.763
183.183	14.332	1506.071	1153.594
184.198	14.424	1504.990	1153.294
185.213	14.448	1503.868	1152.500
186.227	14.499	1502.813	1151.940
187.242	14.625	1501.535	1151.729
188.256	14.561	1500.947	1150.737
189.271	14.554	1499.447	1149.433
190.286	14.609	1498.683	1149.130
191.300	14.596	1497.686	1148.170
192.315	14.447	1496.234	1145.937
193.329	14.277	1494.731	1143.513
194.344	14.285	1493.975	1142.887
195.359	14.327	1493.065	1142.380
196.373	14.298	1492.061	1141.314
197.388	14.384	1491.024	1141.006
198.402	14.652	1489.331	1141.443
199.417	14.611	1488.885	1140.720
200.432	14.688	1487.632	1140.188
201.446	14.793	1486.622	1140.024
202.461	14.823	1485.694	1139.419
203.475	14.851	1484.568	1138.643
204.490	14.901	1483.209	1137.840
205.504	14.858	1482.503	1136.910
206.519	14.794	1480.892	1135.136
207.534	14.767	1480.004	1134.169
208.548	14.751	1478.829	1133.065
209.563	14.644	1478.113	1131.686
210.577	14.686	1477.102	1131.101
211.592	14.768	1475.864	1130.605
212.607	14.721	1475.157	1129.649
213.621	14.814	1474.960	1130.021
214.636	14.899	1473.831	1129.632
215.650	14.826	1472.915	1128.339
216.665	14.814	1471.803	1127.307
217.680	14.864	1470.725	1126.720
218.694	15.034	1469.687	1126.969
219.709	14.944	1469.433	1126.066
220.723	14.974	1468.284	1125.285
221.738	14.955	1467.385	1124.375
222.753	14.981	1466.686	1123.912
223.767	14.996	1465.436	1122.955
224.782	15.005	1463.962	1121.788
225.796	14.993	1463.884	1121.548
226.811	15.042	1462.924	1121.039
227.826	15.161	1462.076	1121.087
228.840	15.062	1461.187	1119.642
229.855	15.050	1460.282	1118.773
230.869	14.988	1459.147	1117.386
231.884	14.993	1458.158	1116.565
232.899	15.025	1456.661	1115.534
233.913	14.919	1455.919	1114.165
234.928	14.897	1454.612	1112.917
235.942	14.903	1453.294	1111.850
236.957	14.995	1452.197	1111.523
237.972	14.932	1450.681	1109.847
238.986	14.929	1449.993	1109.199
240.001	14.938	1448.683	1108.161
241.015	14.978	1447.579	1107.482
242.030	15.137	1446.083	1107.290
243.045	15.049	1445.605	1106.248
244.059	15.155	1444.633	1106.103
245.074	15.145	1443.640	1105.181
246.088	15.127	1443.127	1104.573
247.103	15.206	1442.580	1104.575
248.117	15.249	1441.529	1103.957
249.132	15.234	1440.907	1103.285
250.147	15.363	1440.356	1103.614
251.161	15.446	1439.750	1103.595
252.176	15.519	1439.336	1103.665
253.190	15.563	1437.900	1102.750
254.205	15.544	1437.303	1102.074
255.220	15.618	1436.017	1101.476
256.234	15.700	1435.174	1101.264
257.249	15.601	1434.505	1100.010
258.263	15.644	1433.672	1099.554
259.278	15.586	1432.710	1098.341
260.293	15.620	1432.087	1097.989
261.307	15.632	1431.395	1097.436
262.322	15.711	1430.859	1097.445
263.336	15.721	1429.631	1096.470
264.351	15.795	1428.271	1095.814
265.366	15.825	1427.295	1095.160
266.380	15.814	1426.718	1094.551
267.395	15.841	1425.799	1093.921
268.409	15.750	1425.070	1092.677
269.424	15.822	1423.529	1091.864
270.439	15.689	1422.842	1090.379
271.453	15.736	1421.407	1089.485
272.468	15.755	1420.838	1089.078
273.482	15.703	1420.235	1088.185
274.497	15.766	1419.021	1087.565
275.512	15.807	1418.165	1087.074
276.526	15.805	1417.578	1086.515
277.541	15.848	1416.454	1085.837
278.555	15.763	1415.836	1084.717
279.570	15.780	1414.787	1083.926
280.585	15.920	1413.542	1083.781
281.599	15.941	1413.091	1083.476
282.614	16.033	1411.689	1082.893
283.628	15.905	1411.009	1081.457
284.643	15.910	1409.708	1080.395
285.657	15.937	1408.416	1079.482
286.672	15.892	1407.587	1078.465
287.687	15.938	1406.591	1077.895
288.701	15.898	1405.487	1076.704
289.716	15.945	1405.023	1076.554
290.730	15.977	1404.558	1076.306
291.745	16.028	1403.331	1075.596
292.760	16.006	1402.219	1074.506
293.774	15.989	1401.378	1073.661
294.789	15.973	1400.850	1073.055
295.803	16.039	1399.525	1072.369
296.818	16.207	1398.851	1072.823
297.833	16.127	1397.650	1071.299
298.847	16.015	1396.869	1069.896
299.862	16.097	1395.556	1069.314
300.876	16.106	1394.588	1068.535
301.891	16.158	1393.607	1068.019
302.906	16.133	1392.923	1067.240
303.920	16.194	1392.477	1067.189
304.935	16.240	1391.568	1066.690
305.949	16.394	1390.529	1066.771
306.964	16.334	1389.691	1065.660
307.979	16.442	1388.893	1065.633
308.993	16.396	1387.903	1064.487
310.008	16.328	1387.003	1063.278
311.022	16.336	1385.991	1062.457
312.037	16.426	1384.984	1062.156
313.052	16.413	1384.240	1061.408
314.066	16.387	1383.344	1060.465
315.081	16.349	1382.030	1059.126
316.095	16.223	1381.007	1057.460
317.110	16.274	1379.679	1056.667
318.125	16.315	1378.897	1056.233
319.139	16.353	1377.749	1055.498
320.154	16.331	1376.688	1054.451
321.168	16.317	1375.934	1053.692
322.183	16.250	1375.202	1052.624
323.197	16.266	1374.062	1051.756
324.212	16.337	1373.330	1051.544
325.227	16.385	1372.592	1051.183
326.241	16.420	1371.256	1050.287
327.256	16.476	1370.517	1049.975
328.270	16.392	1369.875	1048.873
329.285	16.461	1368.817	1048.395
330.300	16.378	1368.189	1047.304
331.314	16.434	1367.124	1046.747
332.329	16.391	1366.056	1045.571
333.343	16.403	1365.128	1044.838
334.358	16.421	1364.537	1044.405
335.373	16.459	1363.911	1044.068
336.387	16.561	1362.842	1043.786
337.402	16.621	1362.020	1043.437
338.416	16.579	1361.110	1042.388
339.431	16.546	1360.587	1041.692
340.446	16.709	1359.742	1041.955
341.460	16.732	1358.975	1041.417
342.475	16.764	1357.603	1040.470
343.489	16.798	1357.084	1040.190
344.504	16.886	1356.080	1039.866
345.519	16.833	1355.265	1038.824
346.533	16.893	1354.283	1038.347
347.548	16.960	1353.301	1037.914
348.562	16.913	1352.854	1037.190
349.577	17.017	1351.906	1037.009
350.592	16.879	1351.230	1035.558
351.606	16.764	1350.624	1034.301
352.621	16.821	1348.971	1033.289
353.635	16.768	1348.294	1032.354
354.650	16.741	1347.172	1031.244
355.665	16.784	1346.242	1030.702
356.679	16.794	1345.214	1029.879
357.694	16.906	1343.745	1029.345
358.708	16.933	1342.531	1028.488
359.723	16.995	1341.569	1028.036
360.738	16.976	1340.448	1026.974
361.752	17.018	1339.473	1026.388
362.767	16.998	1338.607	1025.515
363.781	16.987	1337.690	1024.654
364.796	17.054	1336.716	1024.220
365.810	17.060	1336.118	1023.707
366.825	17.080	1335.789	1023.485
367.840	17.138	1334.876	1023.045
368.854	17.202	1334.417	1022.988
369.869	17.326	1333.602	1023.018
370.883	17.331	1333.044	1022.530
371.898	17.208	1332.194	1021.050
372.913	17.156	1331.292	1019.953
373.927	17.186	1330.421	1019.375
374.942	17.180	1330.021	1018.945
375.956	17.234	1328.837	1018.270
376.971	17.277	1327.872	1017.702
377.986	17.269	1327.282	1017.109
379.000	17.223	1326.566	1016.192
380.015	17.383	1325.232	1016.039
381.029	17.401	1324.890	1015.796
382.044	17.495	1324.095	1015.658
383.059	17.486	1323.363	1014.951
384.073	17.572	1322.631	1014.812
385.088	17.504	1322.121	1013.926
386.102	17.423	1321.927	1013.203
387.117	17.580	1320.593	1013.024
388.132	17.540	1319.760	1012.059
389.146	17.390	1319.289	1010.720
390.161	17.395	1318.248	1009.859
391.175	17.422	1317.529	1009.382
392.190	17.391	1316.826	1008.567
393.205	17.500	1316.331	1008.745
394.219	17.536	1315.005	1007.858
395.234	17.559	1313.670	1006.878
396.248	17.525	1312.452	1005.654
397.263	17.513	1310.822	1004.249
398.278	17.482	1309.895	1003.263
399.292	17.508	1308.723	1002.430
400.307	17.478	1307.797	1001.456
401.321	17.404	1306.725	1000.110
402.336	17.430	1305.509	999.244
403.350	17.488	1304.662	998.849
404.365	17.447	1303.836	997.888
405.380	17.504	1302.606	997.191
406.394	17.501	1301.710	996.400
407.409	17.565	1301.397	996.446
408.423	17.520	1301.142	995.901
409.438	17.651	1300.316	995.946
410.453	17.743	1299.499	995.768
411.467	17.792	1298.468	995.177
412.482	17.860	1298.437	995.464
413.496	17.933	1296.955	994.664
414.511	17.934	1296.438	994.182
415.526	17.908	1295.714	993.387
416.540	17.931	1295.102	992.969
417.555	17.904	1294.836	992.519
418.569	18.006	1293.867	992.279
419.584	17.992	1293.700	991.982
420.599	17.995	1292.689	991.139
421.613	131.593	1425.007	1762.654
422.628	127.251	1444.308	1762.781
