DTS Sentinel unit serial number:	SN413079Multiplexer serial number:	ORYXHardware model number:	OX4-SRSoftware version number:	ORYX F/W v4.00 Oryx Data Collector v3.7.2.0data status	okinstallation	princeton_trtdifferential loss correction	single-endedforward channel	channel 4reverse channel	N/Adate	2019/09/19time	05:45:35forward acquisition time	60.00reverse acquisition time	0.00gamma	496.2192k internal	0.2340k external	0.2340temperature offset calibration	1.0028default loss term (dB/km)	0.3790temperature slope calibration	1.0000multiplexer offset coefficient	1.0000multiplexer slope coefficient	1.0000fibre end	0.00T internal ref (°C)	19.25T ext. ref 1 (°C)	0.58T ext. ref 2 (°C)	12.87length (m)	temperature (°C)	Stokes	anti-Stokes-747.200	22.409	-0.324	0.266
-746.185	-137.214	0.325	-0.037
-745.171	-64.042	0.073	-0.030
-744.156	441.652	-0.156	0.342
-743.142	225.364	-0.225	0.365
-742.127	224.884	-0.024	-0.039
-741.112	-200.000	0.112	0.535
-740.098	800.000	-0.120	0.347
-739.083	106.604	-0.092	-0.110
-738.069	-99.577	-0.245	-0.062
-737.054	48.280	-0.185	0.174
-736.039	41.513	-0.181	0.165
-735.025	-25.632	-0.159	0.094
-734.010	269.545	-0.050	0.089
-732.996	361.366	-0.054	-0.109
-731.981	41.568	-0.109	-0.099
-730.966	10.812	0.126	-0.096
-729.952	-104.061	0.064	-0.015
-728.937	-24.632	0.025	-0.015
-727.923	95.913	-0.093	-0.106
-726.908	125.773	-0.230	-0.292
-725.894	-88.782	0.221	-0.066
-724.879	-75.897	0.268	0.095
-723.864	-68.914	-0.382	-0.148
-722.850	50.470	-0.012	-0.012
-721.835	-32.385	-0.069	-0.038
-720.821	-200.000	-0.055	0.518
-719.806	276.289	-0.104	0.184
-718.791	-33.396	-0.153	0.085
-717.777	800.000	-0.094	-0.360
-716.762	800.000	-0.039	-0.156
-715.748	-90.648	0.112	0.032
-714.733	-69.828	-0.068	-0.026
-713.718	20.965	-0.193	-0.157
-712.704	408.257	-0.081	-0.171
-711.689	-200.000	-0.022	-0.205
-710.675	-25.884	-0.320	-0.188
-709.660	-109.454	0.375	-0.079
-708.645	103.919	-0.180	-0.212
-707.631	800.000	0.099	0.298
-706.616	-119.297	0.370	-0.064
-705.602	-200.000	0.042	-0.501
-704.587	172.686	0.154	-0.223
-703.572	2.194	-0.301	0.218
-702.558	800.000	0.059	-0.213
-701.543	85.941	0.187	0.206
-700.529	-114.460	0.189	0.036
-699.514	-57.936	0.294	0.129
-698.499	-200.000	0.032	-0.151
-697.485	-200.000	-0.028	-0.303
-696.470	-73.345	-0.126	-0.046
-695.456	-200.000	-0.012	0.058
-694.441	800.000	-0.066	0.182
-693.426	-200.000	-0.007	0.215
-692.412	148.080	0.066	-0.089
-691.397	-200.000	0.004	0.129
-690.383	800.000	-0.097	0.288
-689.368	6.715	-0.071	0.053
-688.354	-200.000	-0.087	0.452
-687.339	-200.000	-0.010	-0.311
-686.324	-120.885	0.166	-0.028
-685.310	-23.117	-0.175	-0.105
-684.295	116.713	-0.110	0.136
-683.281	-126.125	0.209	0.031
-682.266	-200.000	-0.063	0.337
-681.251	88.551	-0.279	0.310
-680.237	-46.481	0.192	0.094
-679.222	162.614	0.194	0.273
-678.208	-17.873	-0.078	-0.049
-677.193	-107.202	-0.154	0.034
-676.178	74.886	-0.279	-0.294
-675.164	-87.413	0.318	-0.096
-674.149	390.074	0.050	0.104
-673.135	-154.747	-0.177	-0.012
-672.120	800.000	0.036	0.151
-671.105	-200.000	-0.537	0.002
-670.091	-200.000	0.014	0.255
-669.076	171.586	-0.102	0.146
-668.062	-75.719	0.308	-0.109
-667.047	-99.612	-0.253	0.064
-666.032	15.898	-0.176	0.138
-665.018	800.000	-0.072	0.221
-664.003	-75.613	0.274	0.097
-662.989	250.671	0.110	-0.186
-661.974	-21.836	0.025	-0.015
-660.959	800.000	0.073	-0.262
-659.945	189.260	0.289	0.433
-658.930	-43.597	-0.113	0.057
-657.916	-25.071	0.176	-0.104
-656.901	-192.272	0.183	0.002
-655.886	-200.000	-0.048	0.218
-654.872	-66.849	-0.059	-0.023
-653.857	80.393	0.097	-0.104
-652.843	800.000	-0.098	-0.410
-651.828	59.286	-0.262	0.258
-650.814	-3.789	0.192	0.133
-649.799	-200.000	0.000	-0.099
-648.784	-200.000	0.040	0.199
-647.770	-108.920	-0.356	0.076
-646.755	-135.632	0.191	0.023
-645.741	-51.393	-0.425	0.199
-644.726	-79.209	0.138	-0.047
-643.711	-200.000	-0.019	-0.233
-642.697	121.245	-0.117	-0.145
-641.682	-52.992	-0.207	-0.095
-640.668	-94.582	-0.372	-0.101
-639.653	-94.217	0.280	0.077
-638.638	-115.271	0.125	-0.024
-637.624	-9.855	-0.180	0.120
-636.609	89.485	0.211	-0.235
-635.595	114.999	-0.150	-0.183
-634.580	-69.289	-0.174	0.067
-633.565	467.147	-0.073	-0.164
-632.551	-31.010	-0.111	0.063
-631.536	-200.000	-0.059	0.497
-630.522	290.110	-0.079	-0.143
-629.507	800.000	0.051	-0.193
-628.492	131.573	-0.207	0.266
-627.478	-200.000	0.001	0.082
-626.463	-200.000	0.003	-0.318
-625.449	63.087	0.166	-0.166
-624.434	5.865	-0.102	0.076
-623.419	-82.052	0.256	0.083
-622.405	98.150	0.093	-0.107
-621.390	37.783	0.117	0.104
-620.376	75.362	-0.207	0.218
-619.361	55.864	0.289	-0.280
-618.346	-78.294	-0.209	-0.071
-617.332	-200.000	-0.003	-0.298
-616.317	-8.620	0.052	-0.035
-615.303	200.210	0.139	0.212
-614.288	148.378	0.167	-0.225
-613.273	383.365	-0.079	0.163
-612.259	-74.720	0.238	-0.085
-611.244	-80.011	-0.258	0.086
-610.230	-85.586	-0.204	0.063
-609.215	-200.000	0.031	0.235
-608.201	-31.883	-0.264	0.147
-607.186	-143.026	-0.014	0.001
-606.171	-128.046	-0.355	-0.051
-605.157	-124.252	-0.296	-0.046
-604.142	135.575	0.153	0.199
-603.128	119.436	-0.103	0.127
-602.113	-200.000	0.023	0.103
-601.098	800.000	-0.049	-0.152
-600.084	-200.000	0.012	0.146
-599.069	157.343	-0.109	-0.150
-598.055	-42.581	-0.243	0.123
-597.040	728.260	0.056	-0.149
-596.025	-138.879	-0.084	-0.009
-595.011	654.928	0.095	0.242
-593.996	99.657	0.049	0.057
-592.982	767.532	-0.036	0.098
-591.967	109.142	-0.176	-0.210
-590.952	-81.575	-0.180	-0.059
-589.938	-200.000	0.012	-0.322
-588.923	38.521	-0.261	-0.232
-587.909	-168.139	0.334	-0.013
-586.894	279.936	-0.087	0.155
-585.879	-125.581	0.152	0.023
-584.865	800.000	0.072	0.205
-583.850	-95.359	0.118	0.032
-582.836	10.741	-0.142	-0.108
-581.821	-200.000	-0.004	0.299
-580.806	54.134	-0.037	0.036
-579.792	800.000	0.055	0.163
-578.777	-24.553	0.268	0.159
-577.763	-86.994	-0.271	0.082
-576.748	118.861	-0.007	0.008
-575.733	-10.074	-0.307	0.203
-574.719	800.000	0.039	-0.149
-573.704	483.857	0.037	0.084
-572.690	138.958	-0.107	0.140
-571.675	-60.312	0.148	0.063
-570.661	-200.000	-0.024	-0.345
-569.646	110.827	-0.011	-0.014
-568.631	-57.375	-0.293	0.128
-567.617	29.913	0.049	0.042
-566.602	-22.370	0.406	-0.245
-565.588	-200.000	-0.021	0.194
-564.573	-48.022	0.182	0.087
-563.558	107.469	-0.015	-0.017
-562.544	-200.000	0.028	-0.380
-561.529	291.350	-0.051	-0.092
-560.515	-25.100	-0.319	-0.188
-559.500	8.469	0.135	-0.101
-558.485	429.784	-0.110	-0.236
-557.471	62.645	0.163	-0.162
-556.456	-79.772	-0.122	0.041
-555.442	-60.840	0.105	-0.044
-554.427	-200.000	0.031	0.195
-553.412	39.415	-0.275	-0.246
-552.398	-108.972	-0.426	0.090
-551.383	800.000	-0.057	-0.237
-550.369	95.917	-0.089	-0.101
-549.354	-200.000	0.027	0.171
-548.339	205.514	-0.139	0.216
-547.325	691.972	-0.133	0.348
-546.310	46.674	0.176	0.163
-545.296	64.198	0.171	-0.171
-544.281	-200.000	0.031	-0.154
-543.266	-85.677	-0.022	0.007
-542.252	69.863	-0.112	0.115
-541.237	-171.278	-0.241	-0.008
-540.223	-0.357	0.205	0.145
-539.208	3.522	-0.231	-0.167
-538.193	-120.170	-0.169	0.029
-537.179	62.824	-0.103	0.102
-536.164	800.000	-0.163	-0.638
-535.150	-200.000	-0.031	-0.347
-534.135	139.315	-0.088	-0.115
-533.121	-200.000	0.004	-0.022
-532.106	107.617	0.130	-0.153
-531.091	-40.444	-0.204	-0.105
-530.077	243.649	0.136	0.226
-529.062	800.000	0.068	0.225
-528.048	36.243	0.142	0.124
-527.033	-200.000	-0.026	0.412
-526.018	800.000	-0.183	0.522
-525.004	-128.768	-0.178	0.025
-523.989	-27.002	0.195	0.113
-522.975	-71.321	-0.185	0.069
-521.960	-200.000	0.017	-0.245
-520.945	-85.477	0.163	0.051
-519.931	-200.000	-0.029	-0.157
-518.916	-8.666	-0.111	0.074
-517.902	-117.337	-0.117	0.021
-516.887	85.540	-0.098	0.107
-515.872	-200.000	0.002	-0.085
-514.858	-168.249	0.379	-0.015
-513.843	52.444	-0.297	-0.281
-512.829	800.000	0.005	-0.016
-511.814	-67.089	0.274	0.107
-510.799	30.491	-0.297	-0.252
-509.785	18.709	0.381	0.303
-508.770	264.606	-0.081	-0.141
-507.756	415.607	-0.129	0.272
-506.741	304.091	0.123	0.227
-505.726	800.000	-0.058	0.185
-504.712	-127.311	0.108	-0.016
-503.697	752.929	-0.047	-0.127
-502.683	-163.338	-0.635	-0.030
-501.668	-112.571	0.075	-0.015
-500.653	800.000	-0.186	-0.583
-499.639	800.000	0.092	-0.314
-498.624	-2.986	-0.040	0.028
-497.610	70.721	0.281	-0.289
-496.595	497.537	-0.042	-0.095
-495.581	437.735	0.194	0.421
-494.566	92.877	0.284	0.319
-493.551	-200.000	0.062	0.300
-492.537	73.873	-0.098	-0.102
-491.522	-65.374	-0.215	0.086
-490.508	-200.000	0.002	0.038
-489.493	442.173	0.072	0.157
-488.478	-73.045	-0.173	-0.063
-487.464	-200.000	0.017	0.216
-486.449	551.127	-0.082	-0.195
-485.435	-200.000	-0.032	0.235
-484.420	-104.013	0.432	0.100
-483.405	283.185	-0.218	-0.388
-482.391	112.355	-0.227	-0.272
-481.376	-200.000	0.012	0.309
-480.362	586.594	-0.093	0.227
-479.347	-58.902	-0.134	-0.057
-478.332	-140.358	-0.160	0.017
-477.318	-131.257	-0.389	0.051
-476.303	57.236	0.179	-0.173
-475.289	-109.255	-0.118	-0.025
-474.274	104.110	-0.108	0.126
-473.259	-200.000	0.024	0.413
-472.245	-200.000	-0.005	-0.106
-471.230	28.161	-0.200	-0.167
-470.216	88.409	-0.262	0.288
-469.201	-200.000	-0.026	0.217
-468.186	800.000	-0.151	-0.469
-467.172	48.522	-0.125	0.116
-466.157	800.000	-0.078	0.262
-465.143	-143.052	0.400	0.038
-464.128	-10.618	-0.231	0.152
-463.113	-124.811	0.103	-0.016
-462.099	800.000	0.061	0.248
-461.084	236.672	0.046	-0.076
-460.070	-200.000	-0.080	-0.547
-459.055	170.827	0.131	0.186
-458.040	226.600	-0.211	0.339
-457.026	-200.000	0.029	0.175
-456.011	800.000	-0.063	-0.236
-454.997	-200.000	-0.042	-0.207
-453.982	-111.381	-0.060	0.012
-452.968	44.484	0.133	-0.122
-451.953	-200.000	0.032	-0.190
-450.938	-25.713	0.081	-0.047
-449.924	65.947	-0.147	-0.148
-448.909	-131.638	-0.219	-0.028
-447.895	-200.000	-0.002	0.182
-446.880	69.789	0.174	0.177
-445.865	109.512	0.165	-0.196
-444.851	353.798	0.105	-0.208
-443.836	-200.000	-0.024	0.195
-442.822	184.513	-0.040	-0.058
-441.807	-143.849	0.267	0.025
-440.792	-98.545	0.155	0.039
-439.778	-74.842	-0.071	-0.025
-438.763	-131.400	0.084	-0.011
-437.749	-200.000	0.028	-0.202
-436.734	469.216	-0.065	-0.144
-435.719	-200.000	0.012	-0.356
-434.705	392.328	0.135	-0.279
-433.690	43.693	-0.181	0.164
-432.676	-55.770	0.500	-0.221
-431.661	-155.305	-0.284	-0.018
-430.646	546.073	0.166	-0.393
-429.632	410.110	-0.131	0.274
-428.617	-200.000	-0.026	0.348
-427.603	482.339	0.146	-0.328
-426.588	-62.003	-0.334	0.138
-425.573	418.366	-0.047	0.100
-424.559	89.131	0.178	0.196
-423.544	-200.000	0.021	0.371
-422.530	10.251	-0.107	-0.081
-421.515	42.109	0.083	-0.074
-420.500	-87.500	0.091	-0.027
-419.486	-160.273	0.146	0.008
-418.471	183.779	-0.086	0.126
-417.457	33.428	0.178	-0.153
-416.442	-101.465	0.303	0.073
-415.428	-196.288	0.146	0.001
-414.413	-91.364	-0.314	0.089
-413.398	-21.696	-0.230	0.138
-412.384	-200.000	-0.031	0.000
-411.369	11.516	0.049	0.037
-410.355	-57.871	-0.348	-0.150
-409.340	16.816	0.176	0.138
-408.325	3.637	0.138	0.100
-407.311	-107.699	0.157	-0.034
-406.296	-116.294	0.367	-0.067
-405.282	337.906	0.130	-0.251
-404.267	-61.807	0.123	-0.051
-403.252	625.059	-0.137	0.341
-402.238	50.385	-0.181	-0.169
-401.223	112.235	0.122	0.146
-400.209	516.018	-0.052	0.120
-399.194	81.173	0.226	0.241
-398.179	-200.000	0.029	0.326
-397.165	-52.573	0.114	-0.052
-396.150	-104.355	-0.369	0.085
-395.136	60.679	0.098	0.096
-394.121	592.041	0.047	0.115
-393.106	-138.545	0.258	0.028
-392.092	-109.739	0.130	-0.027
-391.077	345.387	-0.087	0.168
-390.063	-200.000	0.038	0.274
-389.048	-25.586	-0.188	-0.110
-388.033	133.176	-0.287	0.367
-387.019	-128.819	0.178	0.025
-386.004	-85.610	0.155	0.048
-384.990	43.518	-0.153	0.139
-383.975	-168.504	0.333	0.013
-382.960	800.000	0.078	-0.244
-381.946	189.371	-0.172	-0.254
-380.931	-185.293	0.191	0.003
-379.917	-5.541	-0.175	-0.119
-378.902	-200.000	-0.039	0.232
-377.888	15.967	0.135	0.105
-376.873	-200.000	0.089	0.393
-375.858	-114.950	0.050	0.009
-374.844	-80.418	0.521	0.172
-373.829	50.214	-0.086	0.080
-372.815	53.409	0.077	-0.073
-371.800	-200.000	-0.017	0.315
-370.785	523.689	0.076	0.176
-369.771	-31.523	0.120	-0.067
-368.756	194.474	-0.083	0.124
-367.742	-120.928	0.216	0.036
-366.727	-200.000	-0.047	0.264
-365.712	-115.355	0.568	-0.106
-364.698	58.063	0.115	0.111
-363.683	564.761	-0.129	0.308
-362.669	656.299	-0.155	-0.394
-361.654	-15.965	-0.134	-0.084
-360.639	800.000	0.066	0.201
-359.625	-200.000	0.001	0.070
-358.610	355.799	-0.173	0.339
-357.596	774.071	0.133	-0.358
-356.581	262.680	-0.020	0.034
-355.566	-23.740	-0.185	0.109
-354.552	249.765	-0.143	0.240
-353.537	513.071	0.065	-0.149
-352.523	800.000	0.052	-0.176
-351.508	206.339	-0.077	0.119
-350.493	138.938	-0.110	0.143
-349.479	528.960	0.112	0.260
-348.464	-200.000	-0.039	-0.187
-347.450	-200.000	0.020	-0.282
-346.435	-99.047	0.249	0.062
-345.420	-200.000	-0.046	-0.391
-344.406	33.882	0.129	-0.111
-343.391	-51.448	-0.086	-0.040
-342.377	-200.000	0.033	0.307
-341.362	-7.591	0.335	-0.224
-340.348	-200.000	-0.026	-0.248
-339.333	381.252	0.156	-0.315
-338.318	-48.840	-0.121	0.057
-337.304	-88.597	-0.480	0.141
-336.289	-9.609	0.177	-0.116
-335.275	500.850	-0.050	-0.114
-334.260	144.757	-0.047	-0.061
-333.245	60.075	-0.163	-0.159
-332.231	-1.667	0.266	-0.185
-331.216	70.299	-0.104	0.106
-330.202	-1.016	-0.254	0.177
-329.187	-65.837	0.180	0.071
-328.172	800.000	-0.028	-0.118
-327.158	104.218	0.147	0.171
-326.143	-25.269	0.126	0.074
-325.129	-181.914	-0.299	0.006
-324.114	-60.872	0.092	-0.039
-323.099	800.000	0.046	-0.172
-322.085	-59.752	0.217	-0.092
-321.070	-63.990	-0.309	-0.124
-320.056	234.799	0.021	-0.034
-319.041	504.100	-0.035	0.079
-318.026	16.751	0.214	-0.167
-317.012	86.523	-0.241	-0.262
-315.997	-107.631	0.296	0.064
-314.983	-134.428	-0.189	0.023
-313.968	-17.119	0.166	-0.104
-312.953	-171.606	-0.241	0.008
-311.939	-54.493	-0.263	-0.117
-310.924	428.299	0.092	0.195
-309.910	-109.070	-0.541	-0.114
-308.895	-200.000	-0.011	0.140
-307.880	800.000	-0.068	-0.196
-306.866	-200.000	-0.009	0.211
-305.851	-136.948	0.074	0.008
-304.837	800.000	0.056	0.210
-303.822	-95.415	-0.188	0.050
-302.807	-200.000	0.030	-0.214
-301.793	-74.319	-0.095	-0.034
-300.778	-200.000	-0.077	-0.368
-299.764	242.835	-0.166	-0.274
-298.749	13.262	0.256	-0.195
-297.735	-15.185	0.190	0.120
-296.720	-160.396	0.241	0.013
-295.705	-200.000	0.020	-0.145
-294.691	800.000	-0.028	0.110
-293.676	-76.953	-0.238	0.082
-292.662	-103.535	0.149	-0.034
-291.647	-118.123	-0.195	0.034
-290.632	-200.000	-0.012	-0.152
-289.618	800.000	0.150	-0.575
-288.603	800.000	0.069	-0.278
-287.589	18.972	0.105	-0.083
-286.574	-73.582	0.171	-0.061
-285.559	526.841	0.053	-0.123
-284.545	184.918	-0.076	0.111
-283.530	348.168	0.159	0.308
-282.516	-200.000	0.001	0.123
-281.501	-24.321	0.274	0.161
-280.486	50.944	0.236	0.221
-279.472	-94.051	-0.423	-0.114
-278.457	113.034	-0.249	0.298
-277.443	-151.178	0.108	0.008
-276.428	-126.237	0.097	0.014
-275.413	-41.376	0.548	0.278
-274.399	123.108	0.310	0.382
-273.384	548.501	-0.040	-0.094
-272.370	-200.000	0.026	-0.215
-271.355	318.449	-0.048	-0.090
-270.340	320.197	-0.137	-0.257
-269.326	169.334	0.077	-0.108
-268.311	174.883	-0.025	-0.035
-267.297	800.000	-0.025	-0.092
-266.282	-38.715	0.195	-0.101
-265.267	-184.709	0.285	-0.004
-264.253	-200.000	0.012	0.163
-263.238	-200.000	0.035	0.388
-262.224	13.744	0.209	0.160
-261.209	-14.672	-0.274	-0.173
-260.195	224.566	0.226	-0.360
-259.180	-85.559	0.231	-0.071
-258.165	204.527	0.104	-0.159
-257.151	-51.757	0.100	-0.046
-256.136	-6.555	0.046	-0.031
-255.122	-82.016	0.292	-0.094
-254.107	-71.686	0.204	0.075
-253.092	14.843	0.199	-0.153
-252.078	-59.309	-0.135	-0.057
-251.063	8.529	0.181	-0.134
-250.049	-38.066	-0.332	0.173
-249.034	800.000	-0.087	-0.264
-248.019	36.255	-0.040	-0.035
-247.005	-79.107	0.006	-0.002
-245.990	-0.460	0.337	-0.235
-244.976	-200.000	-0.023	-0.199
-243.961	800.000	-0.023	-0.062
-242.946	-112.649	0.413	0.081
-241.932	644.764	-0.026	-0.064
-240.917	402.751	-0.141	-0.292
-239.903	-71.305	0.253	-0.093
-238.888	-155.069	0.196	-0.013
-237.873	1.987	0.089	0.063
-236.859	569.434	-0.055	0.131
-235.844	-13.439	-0.131	-0.083
-234.830	-34.485	-0.367	-0.198
-233.815	62.576	-0.028	-0.027
-232.800	41.382	0.295	-0.262
-231.786	44.289	0.101	0.091
-230.771	308.076	0.109	0.201
-229.757	-36.093	0.097	0.051
-228.742	-115.250	-0.188	0.035
-227.727	800.000	-0.069	-0.267
-226.713	-200.000	0.015	-0.135
-225.698	644.272	0.085	-0.213
-224.684	193.192	-0.238	0.353
-223.669	291.095	-0.016	0.028
-222.655	-153.304	-0.152	-0.010
-221.640	-55.150	0.346	-0.153
-220.625	303.644	0.083	0.152
-219.611	521.331	0.078	0.179
-218.596	-200.000	-0.030	-0.261
-217.582	-200.000	0.008	-0.045
-216.567	716.317	-0.058	0.152
-215.552	-151.664	0.088	0.006
-214.538	-200.000	0.013	-0.153
-213.523	-158.121	-0.342	0.020
-212.509	-200.000	-0.000	-0.215
-211.494	-0.176	0.098	-0.068
-210.479	151.892	0.212	0.284
-209.465	-49.716	-0.102	0.048
-208.450	43.127	0.063	0.056
-207.436	324.238	0.088	0.164
-206.421	-59.820	0.107	0.045
-205.406	-9.985	-0.244	0.159
-204.392	87.435	-0.089	0.096
-203.377	-71.412	0.051	0.019
-202.363	-46.655	0.064	0.031
-201.348	800.000	-0.076	-0.273
-200.333	-58.241	0.207	-0.089
-199.319	-98.885	-0.046	0.011
-198.304	-109.797	0.373	-0.077
-197.290	-82.549	0.063	-0.020
-196.275	-68.428	0.061	0.023
-195.260	-200.000	-0.031	0.142
-194.246	800.000	0.095	-0.268
-193.231	6.782	0.023	-0.017
-192.217	228.896	0.058	0.092
-191.202	800.000	-0.026	0.080
-190.187	800.000	-0.005	-0.021
-189.173	800.000	-0.022	-0.061
-188.158	800.000	0.024	-0.099
-187.144	58.435	-0.128	0.123
-186.129	-200.000	0.038	0.201
-185.114	-83.382	0.433	0.136
-184.100	-99.039	-0.274	0.068
-183.085	-95.425	0.105	0.028
-182.071	-200.000	0.028	0.139
-181.056	70.756	-0.180	0.183
-180.042	-200.000	-0.077	0.366
-179.027	-93.604	0.043	0.012
-178.012	800.000	0.042	0.114
-176.998	800.000	0.105	-0.308
-175.983	120.751	-0.099	-0.121
-174.969	224.532	-0.074	-0.117
-173.954	-44.300	-0.109	0.054
-172.939	21.462	0.083	-0.066
-171.925	800.000	0.118	0.337
-170.910	-42.567	-0.258	-0.129
-169.896	-90.118	-0.211	-0.060
-168.881	334.817	-0.142	0.270
-167.866	800.000	-0.096	0.271
-166.852	800.000	-0.047	0.148
-165.837	-200.000	0.034	0.322
-164.823	163.875	0.190	-0.261
-163.808	45.034	-0.212	-0.191
-162.793	53.165	-0.131	-0.123
-161.779	5.743	0.318	-0.230
-160.764	-110.171	-0.247	-0.051
-159.750	109.066	0.137	0.160
-158.735	166.018	0.022	0.030
-157.720	148.819	0.036	-0.047
-156.706	150.605	-0.233	-0.310
-155.691	-61.619	-0.032	0.013
-154.677	270.606	-0.205	0.353
-153.662	800.000	-0.029	-0.113
-152.647	-130.533	0.291	-0.039
-151.633	800.000	-0.075	-0.286
-150.618	-150.235	-0.149	-0.011
-149.604	-164.052	0.084	0.004
-148.589	-185.848	-0.031	-0.000
-147.574	570.066	0.128	0.305
-146.560	-200.000	0.000	0.106
-145.545	301.631	0.253	0.457
-144.531	-116.246	0.238	0.043
-143.516	-200.000	-0.049	0.353
-142.502	-200.000	-0.002	0.071
-141.487	-139.171	0.326	0.034
-140.472	-142.685	0.132	-0.013
-139.458	-200.000	-0.023	0.191
-138.443	-16.800	-0.150	-0.093
-137.429	-200.000	0.005	0.093
-136.414	-63.468	0.287	-0.116
-135.399	12.540	0.083	-0.063
-134.385	36.323	0.111	0.096
-133.370	-142.063	0.291	-0.028
-132.356	173.134	0.076	0.107
-131.341	-114.430	0.269	0.051
-130.326	-114.625	-0.371	-0.070
-129.312	-200.000	-0.049	0.248
-128.297	-117.495	0.130	-0.023
-127.283	-76.751	0.462	-0.158
-126.268	800.000	-0.069	-0.215
-125.253	-93.834	0.141	0.038
-124.239	-200.000	0.032	0.316
-123.224	-82.353	0.235	-0.075
-122.210	-52.551	-0.236	0.107
-121.195	-200.000	0.158	-0.000
-120.180	-122.165	0.020	-0.003
-119.166	212.502	-0.194	-0.300
-118.151	-107.026	0.553	0.119
-117.137	-64.071	-0.180	0.072
-116.122	295.483	-0.090	0.161
-115.107	82.266	0.081	-0.086
-114.093	31.947	-0.116	-0.098
-113.078	800.000	0.035	0.111
-112.064	-200.000	0.025	0.175
-111.049	292.728	-0.042	-0.076
-110.034	800.000	0.084	0.308
-109.020	-200.000	0.040	-0.192
-108.005	-88.533	0.108	-0.031
-106.991	430.273	0.119	0.251
-105.976	-65.420	-0.156	-0.061
-104.962	-1.775	0.291	-0.200
-103.947	-68.227	0.246	0.094
-102.932	146.634	-0.127	0.167
-101.918	-200.000	0.017	-0.221
-100.903	-79.697	0.073	0.024
-99.889	215.534	-0.027	-0.042
-98.874	-163.671	0.052	-0.002
-97.859	68.992	-0.224	-0.225
-96.845	-21.193	0.462	-0.276
-95.830	-103.162	-0.177	0.041
-94.816	-200.000	-0.006	0.031
-93.801	92.866	-0.116	0.128
-92.786	800.000	0.114	0.456
-91.772	65.547	0.175	-0.174
-90.757	-200.000	0.051	-0.286
-89.743	-200.000	0.028	0.319
-88.728	-200.000	0.020	0.091
-87.713	127.201	-0.118	-0.146
-86.699	-76.207	0.378	0.130
-85.684	340.254	0.068	-0.130
-84.670	-37.254	0.144	0.075
-83.655	-200.000	0.093	-0.496
-82.640	-44.136	0.132	-0.065
-81.626	-145.499	-0.228	0.020
-80.611	-200.000	0.028	0.227
-79.597	-97.558	0.070	-0.018
-78.582	657.243	0.146	0.367
-77.567	17.978	-0.172	0.134
-76.553	-28.386	0.319	0.180
-75.538	-200.000	-0.036	0.319
-74.524	800.000	-0.056	0.241
-73.509	297.062	-0.040	0.072
-72.494	800.000	0.041	-0.162
-71.480	0.884	-0.250	-0.175
-70.465	-52.058	0.107	0.049
-69.451	-50.083	0.084	-0.039
-68.436	-114.397	0.145	-0.027
-67.422	-200.000	-0.019	-0.135
-66.407	-117.266	0.496	-0.088
-65.392	-169.909	-0.216	-0.008
-64.378	-57.434	0.067	0.029
-63.363	96.975	-0.263	-0.294
-62.349	-113.040	-0.036	0.007
-61.334	147.666	-1.037	-1.364
-60.319	-26.964	1.186	0.676
-59.305	315.810	-0.782	-1.439
-58.290	152.717	1.142	1.524
-57.276	404.361	0.771	1.585
-56.261	-200.000	136.479	623.756
-55.246	340.294	1638.496	3120.275
-54.232	135.908	2782.595	3537.132
-53.217	74.022	2337.165	2393.107
-52.203	25.125	2088.619	1691.813
-51.188	20.937	2008.988	1589.153
-50.173	20.043	1995.042	1569.958
-49.159	37.463	2072.711	1793.416
-48.144	34.433	2082.775	1773.916
-47.130	21.184	2035.987	1612.531
-46.115	19.319	2025.180	1586.763
-45.100	19.209	2022.461	1583.558
-44.086	19.140	2019.952	1580.901
-43.071	19.135	2017.429	1578.809
-42.057	19.086	2015.947	1577.138
-41.042	19.156	2013.678	1575.948
-40.027	19.164	2011.534	1574.277
-39.013	19.074	2010.143	1572.304
-37.998	19.149	2008.531	1571.666
-36.984	19.150	2006.637	1570.129
-35.969	19.125	2004.903	1568.481
-34.954	19.179	2003.049	1567.461
-33.940	19.156	2002.166	1566.503
-32.925	19.301	2000.027	1566.078
-31.911	19.211	1998.495	1563.999
-30.896	19.289	1997.171	1563.611
-29.881	19.279	1995.344	1562.028
-28.867	19.327	1993.688	1561.108
-27.852	19.272	1991.786	1559.060
-26.838	19.388	1989.475	1558.235
-25.823	19.368	1987.981	1556.820
-24.809	19.285	1986.573	1554.909
-23.794	19.336	1984.810	1553.922
-22.779	19.260	1983.320	1552.016
-21.765	19.253	1981.826	1550.715
-20.750	19.336	1979.683	1549.723
-19.736	19.259	1978.873	1548.338
-18.721	19.322	1976.841	1547.256
-17.706	19.250	1975.545	1545.528
-16.692	19.273	1973.749	1544.271
-15.677	19.285	1971.804	1542.793
-14.663	19.248	1971.089	1541.847
-13.648	19.218	1969.939	1540.617
-12.633	19.320	1967.881	1539.857
-11.619	19.303	1966.920	1538.889
-10.604	19.301	1965.178	1537.447
-9.590	19.250	1964.178	1536.149
-8.575	19.223	1962.679	1534.682
-7.560	19.204	1961.739	1533.711
-6.546	19.274	1959.840	1532.785
-5.531	19.265	1959.220	1532.164
-4.517	19.283	1957.496	1530.912
-3.502	19.286	1956.557	1530.143
-2.487	19.264	1955.523	1529.081
-1.473	19.220	1954.863	1528.115
-0.458	19.285	1949.229	1524.225
0.556	17.926	1928.543	1494.199
1.571	13.530	1909.417	1441.083
2.586	9.725	1932.108	1424.522
3.600	8.788	1966.945	1441.649
4.615	8.880	1958.228	1435.962
5.629	7.066	1858.695	1347.413
6.644	2.976	1750.422	1235.969
7.659	0.770	1721.006	1197.626
8.673	0.615	1718.096	1194.269
9.688	0.612	1716.970	1193.358
10.702	0.571	1715.979	1192.240
11.717	0.543	1711.393	1188.732
12.731	0.749	1709.484	1188.922
13.746	4.142	1715.839	1219.979
14.761	10.713	1729.725	1281.754
15.775	15.866	1739.454	1329.657
16.790	17.020	1741.144	1339.948
17.804	16.193	1737.944	1330.848
18.819	15.337	1734.865	1321.627
19.834	14.759	1731.643	1314.506
20.848	14.379	1730.824	1310.778
21.863	14.230	1729.158	1308.230
22.877	14.028	1727.513	1305.285
23.892	13.761	1726.186	1302.071
24.907	13.594	1724.896	1299.671
25.921	13.572	1724.014	1298.723
26.936	13.622	1722.533	1297.883
27.950	13.594	1721.827	1297.015
28.965	13.685	1721.304	1297.218
29.980	13.737	1720.757	1297.097
30.994	13.746	1719.399	1296.030
32.009	13.739	1718.909	1295.493
33.023	13.878	1717.554	1295.440
34.038	13.820	1716.676	1294.214
35.053	13.787	1716.045	1293.365
36.067	13.820	1714.772	1292.546
37.082	13.778	1714.083	1291.590
38.096	13.773	1713.592	1291.066
39.111	13.851	1711.869	1290.260
40.126	13.764	1711.372	1289.093
41.140	13.781	1710.095	1288.151
42.155	13.666	1709.116	1286.405
43.169	13.649	1707.157	1284.683
44.184	13.646	1706.670	1284.185
45.199	13.653	1705.473	1283.227
46.213	13.578	1704.460	1281.764
47.228	13.680	1702.665	1281.092
48.242	13.693	1701.445	1280.163
49.257	13.694	1700.336	1279.217
50.271	13.702	1699.369	1278.446
51.286	13.699	1697.669	1277.028
52.301	13.722	1696.090	1275.900
53.315	13.714	1694.716	1274.695
54.330	13.692	1693.653	1273.612
55.344	13.694	1691.993	1272.269
56.359	13.635	1689.975	1270.190
57.374	13.657	1689.290	1269.725
58.388	13.637	1687.668	1268.245
59.403	13.600	1686.601	1267.046
60.417	13.574	1685.221	1265.701
61.432	13.562	1684.069	1264.633
62.447	13.643	1682.340	1263.838
63.461	13.563	1681.339	1262.364
64.476	13.618	1680.338	1261.922
65.490	13.525	1679.240	1260.273
66.505	13.543	1678.039	1259.399
67.520	13.581	1676.726	1258.595
68.534	13.615	1675.259	1257.639
69.549	13.586	1674.675	1256.868
70.563	13.604	1672.915	1255.575
71.578	13.622	1671.727	1254.705
72.593	13.519	1671.016	1253.279
73.607	13.558	1669.422	1252.266
74.622	13.521	1668.010	1250.819
75.636	13.420	1667.436	1249.516
76.651	13.461	1666.652	1249.125
77.666	13.446	1665.357	1247.931
78.680	13.501	1664.321	1247.464
79.695	13.438	1663.877	1246.540
80.709	13.389	1662.413	1244.967
81.724	13.516	1661.459	1245.099
82.739	13.560	1660.592	1244.669
83.753	13.566	1660.051	1244.196
84.768	13.677	1658.025	1243.403
85.782	13.622	1657.736	1242.662
86.797	13.651	1656.962	1242.190
87.812	13.670	1656.235	1241.674
88.826	13.728	1654.187	1240.464
89.841	13.688	1653.094	1239.237
90.855	13.665	1652.394	1238.428
91.870	13.654	1651.497	1237.564
92.884	13.735	1649.847	1236.826
93.899	13.657	1649.109	1235.585
94.914	13.748	1647.689	1235.086
95.928	13.761	1646.482	1234.165
96.943	13.908	1644.548	1233.702
97.957	13.849	1644.056	1232.782
98.972	13.758	1642.192	1230.601
99.987	13.684	1640.693	1228.821
101.001	13.849	1638.402	1228.217
102.016	13.743	1637.537	1226.679
103.030	13.694	1635.590	1224.749
104.045	13.738	1635.086	1224.586
105.060	13.706	1633.063	1222.730
106.074	13.741	1630.951	1221.295
107.089	13.679	1629.516	1219.659
108.103	13.640	1628.047	1218.169
109.118	13.683	1626.526	1217.231
110.133	13.622	1625.286	1215.754
111.147	13.584	1623.896	1214.325
112.162	13.650	1622.359	1213.552
113.176	13.650	1621.135	1212.528
114.191	13.757	1619.575	1212.040
115.206	13.714	1618.452	1210.777
116.220	13.790	1617.102	1210.211
117.235	13.748	1615.418	1208.540
118.249	13.701	1614.365	1207.301
119.264	13.658	1613.288	1206.075
120.279	13.622	1611.778	1204.578
121.293	13.728	1609.988	1203.903
122.308	13.643	1608.731	1202.239
123.322	13.575	1607.029	1200.370
124.337	13.631	1605.278	1199.362
125.352	13.555	1604.705	1198.277
126.366	13.524	1602.962	1196.650
127.381	13.716	1601.192	1196.602
128.395	13.632	1600.058	1195.045
129.410	13.614	1598.703	1193.797
130.424	13.629	1597.469	1192.880
131.439	13.561	1596.701	1191.714
132.454	13.714	1594.844	1191.317
133.468	13.689	1593.243	1189.842
134.483	13.642	1591.803	1188.318
135.497	13.711	1590.482	1187.726
136.512	13.715	1589.227	1186.712
137.527	13.719	1588.041	1185.750
138.541	13.746	1586.998	1185.057
139.556	13.755	1584.996	1183.519
140.570	13.754	1583.730	1182.466
141.585	13.832	1582.507	1182.001
142.600	13.836	1581.474	1181.155
143.614	13.881	1579.991	1180.260
144.629	13.939	1578.875	1179.737
145.643	13.914	1577.666	1178.554
146.658	13.922	1576.518	1177.646
147.673	13.956	1574.485	1176.264
148.687	13.840	1573.633	1174.703
149.702	13.913	1571.120	1173.239
150.716	13.872	1569.892	1171.931
151.731	13.944	1568.125	1171.017
152.746	13.855	1567.261	1169.638
153.760	13.883	1565.401	1168.346
154.775	13.931	1564.337	1167.782
155.789	13.933	1563.674	1167.200
156.804	13.971	1562.117	1166.200
157.819	13.941	1560.733	1164.857
158.833	14.026	1559.171	1164.183
159.848	13.988	1558.219	1163.102
160.862	14.082	1556.599	1162.446
161.877	14.029	1555.824	1161.391
162.892	14.056	1554.761	1160.685
163.906	13.974	1553.058	1158.739
164.921	13.993	1551.617	1157.693
165.935	13.978	1550.776	1156.863
166.950	14.032	1549.069	1155.858
167.964	14.074	1548.546	1155.662
168.979	14.046	1547.559	1154.623
169.994	14.022	1546.234	1153.369
171.008	14.045	1545.322	1152.750
172.023	14.080	1543.876	1151.808
173.037	14.071	1542.980	1150.976
174.052	14.166	1541.971	1150.778
175.067	14.195	1540.744	1149.964
176.081	14.090	1539.605	1148.287
177.096	14.097	1538.243	1147.212
178.110	14.170	1536.621	1146.409
179.125	14.083	1536.167	1145.368
180.140	14.225	1534.479	1144.983
181.154	14.165	1533.632	1143.842
182.169	14.250	1532.482	1143.467
183.183	14.198	1530.824	1141.767
184.198	14.182	1530.330	1141.189
185.213	14.241	1529.253	1140.689
186.227	14.260	1527.986	1139.771
187.242	14.351	1526.744	1139.366
188.256	14.369	1525.842	1138.717
189.271	14.369	1524.651	1137.725
190.286	14.439	1523.459	1137.218
191.300	14.321	1522.892	1135.886
192.315	14.266	1521.129	1134.096
193.329	14.188	1519.935	1132.577
194.344	14.208	1519.306	1132.141
195.359	14.131	1518.662	1131.041
196.373	14.301	1517.177	1130.989
197.388	14.383	1515.720	1130.356
198.402	14.390	1514.569	1129.445
199.417	14.423	1513.725	1128.942
200.432	14.422	1512.544	1127.954
201.446	14.542	1511.191	1127.658
202.461	14.618	1509.889	1127.100
203.475	14.579	1509.244	1126.250
204.490	14.543	1507.836	1124.862
205.504	14.589	1506.719	1124.235
206.519	14.616	1505.042	1123.068
207.534	14.564	1504.312	1122.077
208.548	14.645	1502.734	1121.342
209.563	14.480	1502.390	1119.882
210.577	14.528	1501.320	1119.301
211.592	14.536	1500.404	1118.577
212.607	14.675	1499.414	1118.668
213.621	14.678	1498.758	1118.100
214.636	14.682	1497.979	1117.449
215.650	14.642	1496.789	1116.192
216.665	14.646	1496.065	1115.582
217.680	14.692	1494.945	1114.955
218.694	14.734	1494.156	1114.548
219.709	14.802	1493.121	1114.135
220.723	14.686	1492.330	1112.671
221.738	14.761	1491.148	1112.191
222.753	14.684	1490.352	1110.989
223.767	14.810	1489.331	1110.965
224.782	14.762	1488.391	1109.847
225.796	14.821	1487.152	1109.214
226.811	14.948	1485.794	1108.949
227.826	14.863	1485.546	1108.103
228.840	14.964	1484.668	1108.018
229.855	14.952	1483.205	1106.745
230.869	14.811	1482.848	1105.451
231.884	14.909	1481.383	1104.905
232.899	14.789	1480.434	1103.306
233.913	14.789	1479.370	1102.418
234.928	14.901	1477.610	1101.746
235.942	14.861	1476.662	1100.681
236.957	14.772	1475.454	1099.097
237.972	14.844	1474.611	1098.842
238.986	14.937	1473.317	1098.392
240.001	14.908	1472.365	1097.398
241.015	14.866	1471.347	1096.263
242.030	14.842	1470.071	1095.058
243.045	14.928	1469.850	1095.360
244.059	15.065	1468.218	1094.943
245.074	15.124	1467.052	1094.367
246.088	15.023	1466.948	1093.527
247.103	15.008	1466.237	1092.804
248.117	15.101	1464.897	1092.319
249.132	15.164	1463.733	1091.764
250.147	15.124	1463.240	1091.040
251.161	15.223	1462.719	1091.200
252.176	15.245	1461.806	1090.564
253.190	15.315	1461.197	1090.464
254.205	15.251	1460.235	1089.233
255.220	15.335	1459.456	1089.106
256.234	15.349	1458.938	1088.711
257.249	15.289	1458.090	1087.593
258.263	15.287	1457.324	1086.915
259.278	15.435	1456.157	1086.905
260.293	15.456	1455.035	1086.107
261.307	15.390	1454.312	1085.043
262.322	15.488	1453.549	1085.013
263.336	15.507	1452.470	1084.233
264.351	15.429	1451.912	1083.220
265.366	15.434	1450.876	1082.383
266.380	15.593	1449.517	1082.298
267.395	15.621	1448.131	1081.344
268.409	15.579	1447.271	1080.341
269.424	15.578	1446.786	1079.872
270.439	15.552	1445.740	1078.828
271.453	15.547	1444.781	1077.990
272.468	15.499	1444.069	1077.051
273.482	15.568	1443.208	1076.757
274.497	15.569	1442.629	1076.236
275.512	15.627	1441.173	1075.426
276.526	15.675	1440.256	1074.957
277.541	15.657	1439.318	1074.044
278.555	15.623	1438.645	1073.227
279.570	15.652	1438.002	1072.840
280.585	15.680	1436.621	1071.891
281.599	15.784	1435.587	1071.690
282.614	15.842	1434.489	1071.142
283.628	15.759	1433.469	1069.758
284.643	15.737	1433.022	1069.191
285.657	15.780	1431.729	1068.405
286.672	15.714	1430.424	1066.918
287.687	15.713	1429.734	1066.306
288.701	15.682	1428.970	1065.442
289.716	15.684	1428.490	1065.005
290.730	15.772	1427.590	1064.793
291.745	15.964	1425.651	1064.468
292.760	15.911	1425.034	1063.579
293.774	15.913	1423.833	1062.603
294.789	15.836	1422.876	1061.307
295.803	15.942	1422.187	1061.370
296.818	16.022	1421.171	1061.017
297.833	15.944	1420.435	1059.887
298.847	15.938	1419.473	1059.036
299.862	15.961	1418.383	1058.271
300.876	15.948	1417.490	1057.429
301.891	16.005	1416.219	1056.747
302.906	15.929	1416.068	1056.067
303.920	16.003	1415.169	1055.765
304.935	16.100	1414.343	1055.660
305.949	16.117	1413.489	1055.036
306.964	16.188	1412.442	1054.608
307.979	16.135	1411.691	1053.619
308.993	16.225	1410.462	1053.172
310.008	16.168	1409.749	1052.190
311.022	16.248	1408.409	1051.594
312.037	16.232	1407.340	1050.604
313.052	16.213	1406.459	1049.736
314.066	16.263	1405.536	1049.265
315.081	16.201	1404.540	1048.041
316.095	16.142	1403.657	1046.926
317.110	16.222	1402.590	1046.536
318.125	16.235	1401.741	1045.887
319.139	16.274	1400.470	1045.091
320.154	16.134	1399.800	1043.633
321.168	16.224	1398.620	1043.218
322.183	16.278	1397.444	1042.576
323.197	16.321	1396.700	1042.197
324.212	16.298	1395.902	1041.364
325.227	16.298	1395.151	1040.716
326.241	16.309	1394.021	1039.851
327.256	16.280	1393.657	1039.307
328.270	16.236	1392.701	1038.230
329.285	16.294	1391.540	1037.628
330.300	16.277	1390.397	1036.579
331.314	16.407	1389.251	1036.433
332.329	16.345	1388.378	1035.309
333.343	16.293	1387.804	1034.474
334.358	16.386	1387.147	1034.462
335.373	16.436	1386.398	1034.114
336.387	16.557	1385.246	1033.904
337.402	16.431	1384.364	1032.382
338.416	16.472	1383.817	1032.136
339.431	16.447	1383.406	1031.587
340.446	16.629	1382.116	1031.644
341.460	16.539	1381.508	1030.549
342.475	16.553	1380.553	1029.832
343.489	16.591	1379.581	1029.243
344.504	16.638	1378.581	1028.691
345.519	16.644	1377.214	1027.621
346.533	16.765	1376.407	1027.660
347.548	16.763	1375.884	1027.168
348.562	16.790	1374.600	1026.280
349.577	16.789	1374.133	1025.832
350.592	16.828	1373.187	1025.274
351.606	16.749	1372.291	1024.034
352.621	16.750	1371.322	1023.229
353.635	16.781	1369.683	1022.105
354.650	16.747	1369.280	1021.508
355.665	16.785	1368.108	1020.771
356.679	16.785	1367.348	1020.110
357.694	16.716	1366.662	1019.098
358.708	16.806	1365.419	1018.622
359.723	16.792	1364.380	1017.672
360.738	16.871	1362.913	1016.963
361.752	16.866	1361.832	1016.036
362.767	16.901	1360.940	1015.487
363.781	16.872	1359.780	1014.357
364.796	16.908	1359.309	1014.130
365.810	16.887	1358.863	1013.584
366.825	16.999	1357.445	1013.103
367.840	17.009	1356.778	1012.579
368.854	16.967	1356.192	1011.800
369.869	17.097	1355.430	1011.917
370.883	17.059	1355.000	1011.280
371.898	17.051	1354.403	1010.696
372.913	17.142	1353.250	1010.291
373.927	17.028	1352.928	1009.281
374.942	17.100	1351.466	1008.528
375.956	17.070	1350.893	1007.838
376.971	17.084	1350.066	1007.211
377.986	17.051	1349.265	1006.332
379.000	17.034	1348.596	1005.640
380.015	17.180	1347.439	1005.551
381.029	17.296	1346.638	1005.551
382.044	17.297	1345.980	1004.976
383.059	17.167	1345.326	1003.636
384.073	17.319	1344.244	1003.635
385.088	17.284	1343.993	1003.150
386.102	17.312	1343.579	1002.919
387.117	17.360	1342.173	1002.061
388.132	17.313	1341.978	1001.555
389.146	17.336	1340.529	1000.517
390.161	17.320	1339.796	999.790
391.175	17.340	1338.938	999.175
392.190	17.301	1338.252	998.350
393.205	17.360	1337.229	997.844
394.219	17.400	1336.091	997.140
395.234	17.547	1334.645	996.834
396.248	17.411	1333.705	995.249
397.263	17.450	1332.162	994.238
398.278	17.469	1330.827	993.263
399.292	17.456	1329.862	992.377
400.307	17.532	1328.604	991.792
401.321	17.396	1327.858	990.356
402.336	17.390	1326.867	989.493
403.350	17.489	1325.618	989.051
404.365	17.504	1324.961	988.563
405.380	17.541	1323.827	987.843
406.394	17.468	1323.444	987.048
407.409	17.509	1322.795	986.713
408.423	17.575	1321.761	986.235
409.438	17.583	1321.105	985.704
410.453	17.693	1319.995	985.426
411.467	17.726	1319.540	985.189
412.482	17.712	1318.550	984.285
413.496	17.708	1318.275	983.967
414.511	17.767	1317.568	983.691
415.526	17.708	1316.613	982.552
416.540	17.750	1316.076	982.304
417.555	17.829	1315.152	981.986
418.569	17.792	1314.577	981.257
419.584	17.834	1313.898	980.903
420.599	17.927	1313.061	980.727
421.613	102.075	1364.551	1493.654
422.628	100.577	1371.989	1493.724
