DTS Sentinel unit serial number:	SN413079Multiplexer serial number:	ORYXHardware model number:	OX4-SRSoftware version number:	ORYX F/W v4.00 Oryx Data Collector v3.7.2.0data status	okinstallation	princeton_trtdifferential loss correction	single-endedforward channel	channel 4reverse channel	N/Adate	2019/09/16time	17:49:35forward acquisition time	60.00reverse acquisition time	0.00gamma	496.2192k internal	0.2298k external	0.2298temperature offset calibration	0.9946default loss term (dB/km)	0.3790temperature slope calibration	1.0000multiplexer offset coefficient	1.0000multiplexer slope coefficient	1.0000fibre end	0.00T internal ref (°C)	37.92T ext. ref 1 (°C)	15.59T ext. ref 2 (°C)	31.81length (m)	temperature (°C)	Stokes	anti-Stokes-747.200	-52.600	-0.082	0.039
-746.185	-200.000	0.039	0.267
-745.171	-62.412	0.133	-0.056
-744.156	-101.899	-0.214	-0.053
-743.142	-53.438	-0.343	0.160
-742.127	800.000	-0.089	0.286
-741.112	-114.248	-0.117	0.023
-740.098	-200.000	0.075	0.661
-739.083	-200.000	-0.007	0.339
-738.069	211.196	0.073	0.117
-737.054	800.000	0.093	0.368
-736.039	800.000	-0.059	0.217
-735.025	-200.000	0.001	-0.056
-734.010	183.698	-0.016	-0.024
-732.996	800.000	0.012	-0.044
-731.981	-200.000	0.002	0.094
-730.966	-78.081	0.211	0.074
-729.952	257.198	-0.048	0.083
-728.937	56.515	0.130	-0.129
-727.923	-53.490	-0.109	-0.051
-726.908	65.324	-0.243	0.251
-725.894	-200.000	-0.052	0.294
-724.879	-15.139	0.194	0.127
-723.864	169.575	0.028	-0.041
-722.850	-200.000	-0.039	-0.247
-721.835	33.975	-0.274	-0.243
-720.821	-200.000	0.044	-0.252
-719.806	-177.997	-0.278	-0.007
-718.791	800.000	-0.143	-0.403
-717.777	73.699	-0.138	0.147
-716.762	800.000	-0.064	0.211
-715.748	-200.000	0.067	0.379
-714.733	133.671	0.325	-0.429
-713.718	280.692	0.110	-0.200
-712.704	68.641	-0.408	-0.427
-711.689	429.476	-0.014	0.031
-710.675	-200.000	0.023	0.114
-709.660	86.208	0.095	0.107
-708.645	80.046	0.284	-0.311
-707.631	-86.378	-0.118	-0.037
-706.616	-60.593	-0.054	-0.023
-705.602	454.324	0.101	-0.229
-704.587	-200.000	0.056	-0.302
-703.572	-200.000	0.031	-0.283
-702.558	265.110	0.152	-0.270
-701.543	-75.754	0.026	-0.010
-700.529	-111.176	-0.208	-0.043
-699.514	85.481	0.077	0.086
-698.499	-83.520	-0.096	-0.031
-697.485	-200.000	0.021	0.329
-696.470	-200.000	-0.028	0.339
-695.456	800.000	-0.068	0.289
-694.441	67.942	0.358	-0.373
-693.426	-54.273	-0.134	0.062
-692.412	-41.419	-0.204	0.107
-691.397	21.557	0.173	0.144
-690.383	36.950	-0.210	-0.189
-689.368	-200.000	-0.065	0.301
-688.354	-93.747	-0.167	0.047
-687.339	47.878	-0.065	-0.062
-686.324	-200.000	-0.011	-0.188
-685.310	-200.000	0.007	0.175
-684.295	800.000	0.024	-0.082
-683.281	-47.336	-0.134	0.067
-682.266	-200.000	-0.020	0.092
-681.251	-54.527	0.109	0.050
-680.237	165.909	0.101	-0.145
-679.222	-151.772	0.211	0.016
-678.208	-200.000	-0.014	0.151
-677.193	-77.632	-0.158	-0.056
-676.178	414.048	-0.060	0.131
-675.164	17.451	-0.142	0.115
-674.149	800.000	-0.046	-0.167
-673.135	800.000	0.042	-0.138
-672.120	-27.966	0.220	0.130
-671.105	116.907	0.119	0.149
-670.091	-200.000	-0.031	0.252
-669.076	-200.000	0.026	0.195
-668.062	-27.684	-0.152	0.090
-667.047	-143.977	0.109	-0.010
-666.032	-118.086	-0.277	-0.050
-665.018	-63.258	-0.218	-0.091
-664.003	-200.000	-0.018	0.252
-662.989	800.000	0.050	-0.159
-661.974	-74.282	-0.249	0.092
-660.959	-59.527	-0.331	-0.145
-659.945	-200.000	-0.068	-0.315
-658.930	79.222	-0.280	0.305
-657.916	204.944	0.119	-0.188
-656.901	-134.393	0.112	-0.014
-655.886	-148.010	-0.152	-0.013
-654.872	-134.331	0.174	-0.022
-653.857	408.547	-0.059	-0.127
-652.843	-33.718	0.236	0.132
-651.828	-11.324	-0.205	-0.137
-650.814	139.787	-0.077	-0.103
-649.799	519.794	-0.065	-0.155
-648.784	-200.000	-0.073	-0.344
-647.770	800.000	0.115	-0.344
-646.755	200.758	0.141	0.220
-645.741	64.868	-0.129	-0.133
-644.726	57.251	0.155	0.154
-643.711	-7.098	0.056	0.038
-642.697	-120.516	-0.213	-0.037
-641.682	251.409	0.217	-0.376
-640.668	-108.701	-0.074	-0.016
-639.653	-16.504	0.182	0.117
-638.638	-200.000	-0.016	-0.110
-637.624	102.419	-0.225	-0.267
-636.609	364.165	0.032	-0.066
-635.595	-78.011	-0.288	-0.101
-634.580	231.983	-0.045	-0.075
-633.565	-125.903	0.249	0.038
-632.551	-90.120	0.281	0.083
-631.536	-43.838	0.088	0.045
-630.522	225.952	-0.084	0.139
-629.507	127.558	0.092	-0.119
-628.492	44.225	0.127	-0.119
-627.478	-200.000	-0.030	0.162
-626.463	349.833	0.071	-0.142
-625.449	61.319	-0.211	-0.213
-624.434	-104.381	-0.305	0.072
-623.419	154.113	-0.094	0.131
-622.405	133.993	0.192	-0.253
-621.390	-163.642	0.108	-0.005
-620.376	510.252	0.091	0.216
-619.361	-200.000	0.059	0.334
-618.346	-200.000	0.107	-0.585
-617.332	-41.386	-0.163	-0.086
-616.317	-200.000	-0.009	-0.112
-615.303	300.584	0.092	0.172
-614.288	255.320	0.139	-0.242
-613.273	589.502	0.046	-0.114
-612.259	-112.668	0.186	0.038
-611.244	-200.000	-0.029	0.273
-610.230	-113.273	0.104	-0.021
-609.215	57.826	0.126	0.125
-608.201	800.000	-0.033	0.100
-607.186	-200.000	-0.026	-0.283
-606.171	-55.222	0.273	0.125
-605.157	99.767	0.209	0.246
-604.142	117.550	0.178	0.222
-603.128	24.069	0.148	0.124
-602.113	-92.893	-0.370	0.105
-601.098	-148.149	-0.226	0.019
-600.084	161.248	-0.082	-0.116
-599.069	-119.023	0.345	-0.061
-598.055	-38.152	-0.271	-0.146
-597.040	36.646	0.079	0.071
-596.025	-37.418	-0.515	0.279
-595.011	-106.471	-0.269	0.061
-593.996	293.828	0.099	-0.183
-592.982	-160.644	0.107	-0.006
-591.967	180.343	0.215	-0.321
-590.952	131.055	-0.084	-0.109
-589.938	-53.179	0.230	-0.107
-588.923	-152.520	-0.218	0.016
-587.909	-92.525	-0.092	-0.026
-586.894	182.034	-0.111	-0.166
-585.879	377.874	0.095	-0.197
-584.865	175.670	0.079	0.116
-583.850	202.514	-0.087	-0.136
-582.836	12.950	0.334	-0.262
-581.821	-156.372	-0.324	0.021
-580.806	-19.737	0.260	-0.163
-579.792	-200.000	-0.004	-0.172
-578.777	800.000	-0.047	0.162
-577.763	358.398	0.176	0.357
-576.748	-59.933	-0.262	-0.114
-575.733	-9.632	0.077	-0.052
-574.719	166.292	0.096	0.138
-573.704	423.070	0.017	0.038
-572.690	20.389	0.249	0.204
-571.675	-200.000	-0.008	-0.228
-570.661	-200.000	-0.027	0.196
-569.646	-116.125	-0.129	-0.024
-568.631	-21.419	0.258	0.160
-567.617	763.865	0.079	0.218
-566.602	-200.000	0.023	-0.163
-565.588	211.355	0.155	-0.247
-564.573	127.510	-0.096	-0.123
-563.558	-169.373	-0.141	0.005
-562.544	-200.000	0.009	0.121
-561.529	-81.361	0.259	0.087
-560.515	-15.318	-0.208	-0.135
-559.500	-200.000	-0.003	-0.397
-558.485	-24.140	0.120	-0.072
-557.471	-163.301	-0.142	-0.007
-556.456	-98.251	0.251	-0.065
-555.442	99.502	0.150	-0.176
-554.427	-19.552	0.091	-0.057
-553.412	-29.497	-0.189	0.109
-552.398	25.148	-0.065	0.055
-551.383	305.542	0.070	0.132
-550.369	-141.270	-0.216	-0.022
-549.354	-24.922	0.111	-0.067
-548.339	55.026	0.177	0.173
-547.325	800.000	-0.032	-0.120
-546.310	-76.213	-0.231	-0.083
-545.296	-104.659	0.061	0.014
-544.281	8.706	-0.033	-0.025
-543.266	-146.067	-0.356	0.032
-542.252	-8.971	0.166	0.113
-541.237	800.000	-0.080	0.327
-540.223	-200.000	0.049	-0.306
-539.208	-3.853	0.156	-0.110
-538.193	286.952	0.077	-0.140
-537.179	-200.000	-0.001	0.070
-536.164	-33.206	-0.210	-0.118
-535.150	-160.309	0.273	0.015
-534.135	92.206	-0.105	0.120
-533.121	62.813	0.217	-0.220
-532.106	-200.000	-0.042	-0.447
-531.091	11.726	0.132	-0.102
-530.077	-200.000	-0.025	0.228
-529.062	-200.000	0.030	0.234
-528.048	-110.931	-0.158	-0.033
-527.033	-3.454	-0.436	-0.307
-526.018	-200.000	0.001	0.096
-525.004	-200.000	-0.033	-0.301
-523.989	-108.069	-0.161	-0.035
-522.975	391.163	0.121	0.254
-521.960	-200.000	-0.015	0.105
-520.945	800.000	-0.053	0.156
-519.931	132.747	0.129	-0.168
-518.916	137.865	0.160	0.212
-517.902	-200.000	0.052	-0.343
-516.887	167.458	0.078	-0.112
-515.872	-200.000	0.020	-0.112
-514.858	-122.479	0.210	-0.035
-513.843	-48.150	0.073	0.036
-512.829	212.641	0.248	-0.395
-511.814	1.041	0.235	0.170
-510.799	-169.161	-0.294	0.011
-509.785	-191.828	-0.166	0.002
-508.770	-88.122	-0.251	-0.076
-507.756	8.325	-0.156	-0.119
-506.741	-123.170	0.223	0.036
-505.726	-52.433	0.065	0.031
-504.712	-200.000	-0.003	-0.014
-503.697	383.935	-0.120	-0.249
-502.683	68.249	-0.201	-0.209
-501.668	185.028	0.166	0.250
-500.653	-79.252	0.094	-0.032
-499.639	-200.000	0.034	-0.469
-498.624	-178.818	-0.080	-0.002
-497.610	217.116	0.071	-0.114
-496.595	-65.147	0.068	-0.028
-495.581	157.846	0.094	-0.132
-494.566	-200.000	0.076	0.426
-493.551	-200.000	0.066	0.315
-492.537	-55.218	0.133	-0.060
-491.522	307.991	-0.112	0.211
-490.508	142.486	-0.185	0.249
-489.493	-3.595	-0.065	0.045
-488.478	-200.000	-0.019	0.169
-487.464	-92.187	0.118	-0.034
-486.449	-54.971	-0.395	-0.180
-485.435	-154.943	0.130	0.009
-484.420	-58.233	-0.121	0.053
-483.405	423.930	-0.075	0.162
-482.391	255.424	0.122	-0.211
-481.376	79.503	-0.117	0.127
-480.362	270.082	0.227	0.404
-479.347	800.000	0.098	0.331
-478.332	-88.966	0.088	-0.026
-477.318	218.675	0.058	0.094
-476.303	-200.000	0.037	0.236
-475.289	157.859	-0.100	0.139
-474.274	118.206	0.163	0.203
-473.259	-73.071	0.189	0.070
-472.245	-152.132	0.225	-0.017
-471.230	-11.954	0.190	-0.126
-470.216	-200.000	-0.002	-0.022
-469.201	-115.785	-0.460	-0.087
-468.186	-200.000	0.023	-0.115
-467.172	-31.291	-0.128	-0.073
-466.157	-59.953	-0.120	-0.052
-465.143	-200.000	0.026	-0.369
-464.128	800.000	0.030	0.112
-463.113	-39.652	-0.359	0.190
-462.099	685.604	-0.076	0.201
-461.084	800.000	0.033	-0.141
-460.070	-51.474	-0.461	-0.217
-459.055	-6.912	0.192	0.132
-458.040	34.262	0.174	0.153
-457.026	529.060	0.127	-0.303
-456.011	-146.209	0.031	-0.003
-454.997	-105.413	-0.082	-0.019
-453.982	557.052	0.050	0.121
-452.968	-181.078	-0.251	0.005
-451.953	-111.212	0.120	0.025
-450.938	-200.000	-0.001	0.082
-449.924	9.461	-0.364	0.278
-448.909	14.210	0.237	-0.186
-447.895	4.799	-0.054	0.040
-446.880	800.000	0.024	0.097
-445.865	257.691	-0.255	-0.442
-444.851	-200.000	-0.024	-0.140
-443.836	-87.914	0.220	0.067
-442.822	-200.000	-0.026	-0.164
-441.807	504.071	-0.062	0.145
-440.792	-28.967	0.080	0.046
-439.778	586.246	0.076	0.188
-438.763	96.931	0.132	-0.153
-437.749	800.000	-0.056	-0.158
-436.734	-128.542	0.105	0.015
-435.719	-19.427	-0.261	0.163
-434.705	26.466	-0.112	-0.094
-433.690	-81.412	-0.322	0.107
-432.676	-139.229	-0.365	-0.040
-431.661	800.000	0.027	0.110
-430.646	-20.324	-0.110	0.068
-429.632	-185.844	-0.321	-0.005
-428.617	-66.802	0.275	-0.110
-427.603	-43.291	0.172	-0.088
-426.588	-94.591	-0.105	-0.029
-425.573	14.864	-0.123	0.097
-424.559	-52.130	-0.070	0.033
-423.544	-200.000	-0.010	0.112
-422.530	104.678	0.140	-0.166
-421.515	266.942	-0.100	0.177
-420.500	149.028	0.154	-0.210
-419.486	268.787	0.167	-0.295
-418.471	124.630	-0.140	0.177
-417.457	113.213	-0.182	-0.222
-416.442	-200.000	-0.025	0.210
-415.428	-161.107	-0.241	-0.013
-414.413	34.794	0.096	0.084
-413.398	163.661	-0.175	0.249
-412.384	231.704	-0.100	0.165
-411.369	-75.345	-0.104	0.037
-410.355	-112.465	0.180	-0.036
-409.340	-60.941	0.123	-0.052
-408.325	-200.000	0.084	0.449
-407.311	9.327	-0.162	-0.123
-406.296	54.332	0.147	-0.143
-405.282	800.000	-0.090	-0.272
-404.267	56.897	0.142	-0.139
-403.252	-130.545	0.186	0.025
-402.238	-115.286	-0.074	0.014
-401.223	-87.445	-0.443	-0.135
-400.209	-30.216	-0.039	-0.022
-399.194	-200.000	-0.029	0.450
-398.179	-16.002	-0.110	0.071
-397.165	-12.051	0.440	0.290
-396.150	800.000	0.121	0.476
-395.136	800.000	0.026	-0.080
-394.121	800.000	0.023	-0.070
-393.106	-123.451	0.206	-0.033
-392.092	-95.306	-0.110	0.030
-391.077	-155.614	0.226	-0.015
-390.063	5.584	0.369	-0.275
-389.048	-18.261	0.216	-0.136
-388.033	-154.666	-0.598	0.040
-387.019	269.800	-0.044	0.078
-386.004	264.191	0.135	-0.237
-384.990	-156.912	-0.030	0.002
-383.975	-115.294	0.267	0.051
-382.960	372.098	0.093	0.190
-381.946	177.820	-0.153	0.224
-380.931	-83.993	0.171	-0.055
-379.917	-104.843	-0.186	-0.043
-378.902	-2.461	0.134	-0.095
-377.888	-100.772	-0.141	0.035
-376.873	70.141	0.186	-0.193
-375.858	-103.839	-0.252	-0.059
-374.844	-82.042	-0.245	-0.081
-373.829	800.000	-0.084	0.247
-372.815	-69.144	-0.118	0.046
-371.800	123.623	-0.190	-0.240
-370.785	-118.180	-0.414	0.074
-369.771	34.041	0.212	0.186
-368.756	-47.165	0.238	-0.117
-367.742	-43.038	0.165	0.084
-366.727	-200.000	-0.010	-0.257
-365.712	54.585	-0.174	0.169
-364.698	294.424	-0.039	-0.072
-363.683	233.244	-0.106	0.176
-362.669	-104.080	-0.226	0.053
-361.654	-123.981	-0.094	0.015
-360.639	-21.477	-0.073	0.045
-359.625	67.062	0.050	-0.051
-358.610	-200.000	-0.007	-0.030
-357.596	40.548	-0.170	-0.154
-356.581	30.345	-0.085	0.073
-355.566	-200.000	-0.060	0.381
-354.552	-42.208	-0.247	0.127
-353.537	209.155	-0.138	0.218
-352.523	25.104	0.225	0.188
-351.508	800.000	0.135	-0.415
-350.493	730.331	-0.025	0.068
-349.479	-8.177	0.055	-0.037
-348.464	-99.530	0.156	-0.039
-347.450	49.994	-0.232	-0.220
-346.435	-113.274	0.396	-0.078
-345.420	800.000	0.022	-0.064
-344.406	135.093	0.107	0.140
-343.391	93.030	0.124	-0.141
-342.377	101.830	0.107	-0.125
-341.362	130.237	-0.158	0.203
-340.348	-200.000	0.003	-0.111
-339.333	-51.456	-0.468	-0.220
-338.318	62.103	0.077	0.077
-337.304	-109.113	0.243	-0.052
-336.289	282.394	-0.173	-0.312
-335.275	-137.351	-0.278	-0.032
-334.260	-12.461	0.190	0.124
-333.245	-110.518	0.104	-0.022
-332.231	315.993	0.057	-0.109
-331.216	-200.000	0.019	0.163
-330.202	124.572	-0.285	0.360
-329.187	-91.690	0.400	0.114
-328.172	74.236	-0.062	0.065
-327.158	-169.062	-0.253	-0.009
-326.143	-56.781	-0.130	0.058
-325.129	1.589	-0.066	-0.048
-324.114	-200.000	0.005	-0.135
-323.099	38.434	-0.084	0.075
-322.085	-92.230	-0.205	0.058
-321.070	19.550	0.115	-0.092
-320.056	422.081	0.038	-0.082
-319.041	14.370	0.281	0.220
-318.026	-200.000	0.002	-0.025
-317.012	78.364	-0.130	0.140
-315.997	555.949	-0.135	-0.327
-314.983	180.488	0.063	-0.093
-313.968	-200.000	-0.009	-0.289
-312.953	-200.000	0.042	-0.329
-311.939	-66.114	-0.110	0.044
-310.924	59.437	-0.051	-0.051
-309.910	233.423	0.112	0.184
-308.895	800.000	-0.119	-0.382
-307.880	3.019	0.135	-0.098
-306.866	572.517	0.036	-0.089
-305.851	-14.398	0.148	-0.096
-304.837	-69.481	0.076	0.029
-303.822	138.102	0.081	-0.107
-302.807	-129.371	-0.343	0.048
-301.793	-76.359	0.154	-0.054
-300.778	384.485	0.024	-0.050
-299.764	213.039	-0.154	0.244
-298.749	106.759	0.198	0.236
-297.735	19.492	0.063	-0.051
-296.720	-37.329	0.377	-0.202
-295.705	-49.600	-0.019	-0.009
-294.691	60.038	-0.184	-0.182
-293.676	64.683	0.139	-0.141
-292.662	118.241	0.272	-0.336
-291.647	172.484	0.014	0.021
-290.632	55.801	-0.222	0.216
-289.618	12.720	0.146	0.113
-288.603	-200.000	0.056	0.378
-287.589	101.726	-0.169	-0.198
-286.574	720.162	0.085	0.228
-285.559	-11.059	-0.166	-0.110
-284.545	254.507	0.141	-0.243
-283.530	-175.432	-0.252	0.007
-282.516	-200.000	0.003	0.239
-281.501	-62.341	-0.249	-0.104
-280.486	-5.692	0.127	0.087
-279.472	151.075	0.155	-0.212
-278.457	349.318	-0.052	-0.103
-277.443	-36.876	-0.387	-0.208
-276.428	-200.000	-0.002	0.294
-275.413	-71.901	0.159	0.059
-274.399	-200.000	0.005	0.125
-273.384	523.905	-0.199	0.468
-272.370	-49.323	-0.199	-0.095
-271.355	-147.913	0.171	0.014
-270.340	-200.000	-0.070	0.365
-269.326	800.000	-0.042	0.166
-268.311	82.724	-0.155	-0.169
-267.297	-200.000	0.011	0.213
-266.282	298.441	-0.162	0.299
-265.267	-73.520	-0.176	-0.064
-264.253	161.505	-0.153	0.214
-263.238	-107.255	0.185	0.041
-262.224	-200.000	0.011	-0.124
-261.209	800.000	0.026	-0.089
-260.195	775.434	0.075	-0.204
-259.180	-67.844	0.267	-0.104
-258.165	-3.969	0.221	-0.154
-257.151	-122.126	0.114	0.019
-256.136	-125.502	-0.104	-0.016
-255.122	-34.405	-0.255	-0.140
-254.107	-200.000	0.014	0.232
-253.092	-55.134	0.035	0.016
-252.078	52.812	0.013	-0.012
-251.063	-61.273	0.422	0.178
-250.049	-56.245	0.198	0.088
-249.034	-159.692	0.141	0.008
-248.019	-125.929	0.222	0.034
-247.005	213.806	0.215	0.341
-245.990	-200.000	0.008	0.096
-244.976	-21.247	0.210	0.129
-243.961	-163.335	-0.220	-0.011
-242.946	-49.645	0.196	0.093
-241.932	79.093	0.139	0.149
-240.917	800.000	-0.048	0.186
-239.903	-35.419	-0.081	-0.044
-238.888	800.000	-0.058	0.230
-237.873	-107.950	0.110	-0.024
-236.859	-115.472	-0.289	0.054
-235.844	5.573	-0.331	0.245
-234.830	-200.000	-0.037	0.422
-233.815	-17.308	-0.007	-0.005
-232.800	93.515	0.074	0.084
-231.786	78.531	0.138	0.148
-230.771	77.730	0.160	-0.170
-229.757	-108.030	-0.252	-0.055
-228.742	436.592	-0.080	0.175
-227.727	-157.195	-0.044	0.003
-226.713	61.675	0.179	-0.179
-225.698	194.597	0.033	0.051
-224.684	581.831	0.036	0.089
-223.669	529.924	-0.099	0.234
-222.655	160.841	0.189	-0.264
-221.640	290.345	-0.109	0.199
-220.625	-140.150	0.114	0.012
-219.611	144.258	0.168	0.225
-218.596	47.020	0.328	-0.305
-217.582	206.064	-0.081	0.127
-216.567	406.336	-0.014	0.029
-215.552	-131.900	-0.157	-0.020
-214.538	150.366	0.043	0.058
-213.523	-55.707	0.151	-0.068
-212.509	97.116	-0.218	-0.251
-211.494	209.879	-0.150	-0.235
-210.479	-30.723	-0.324	0.183
-209.465	-148.261	0.133	0.011
-208.450	-69.417	-0.250	-0.096
-207.436	505.994	-0.106	0.245
-206.421	800.000	-0.060	-0.237
-205.406	15.505	-0.069	-0.055
-204.392	800.000	-0.063	-0.233
-203.377	-18.644	0.273	-0.170
-202.363	-174.968	0.050	-0.001
-201.348	225.211	0.087	0.140
-200.333	-99.681	0.259	0.065
-199.319	800.000	0.143	0.418
-198.304	-27.355	-0.089	0.052
-197.290	487.219	-0.018	-0.041
-196.275	800.000	0.056	0.243
-195.260	-181.834	-0.288	0.006
-194.246	-23.476	0.232	-0.139
-193.231	-200.000	0.027	0.168
-192.217	193.946	-0.151	0.228
-191.202	-184.499	0.321	0.005
-190.187	-111.939	0.076	-0.015
-189.173	800.000	-0.046	0.161
-188.158	-25.382	0.208	0.123
-187.144	22.978	-0.247	0.203
-186.129	-125.482	-0.139	0.021
-185.114	275.726	0.049	0.086
-184.100	800.000	-0.019	0.052
-183.085	-108.356	0.366	0.079
-182.071	601.285	0.177	0.439
-181.056	-68.368	0.286	-0.111
-180.042	-103.646	-0.169	0.040
-179.027	-54.021	0.117	-0.053
-178.012	147.977	-0.054	-0.073
-176.998	-200.000	0.049	-0.348
-175.983	-200.000	0.010	-0.080
-174.969	167.893	-0.045	-0.063
-173.954	211.299	0.086	0.135
-172.939	800.000	-0.172	-0.494
-171.925	-200.000	-0.024	0.196
-170.910	800.000	0.037	-0.138
-169.896	484.177	-0.051	0.117
-168.881	112.030	-0.149	-0.180
-167.866	-3.304	-0.318	-0.221
-166.852	-200.000	-0.045	-0.223
-165.837	267.410	-0.092	0.160
-164.823	31.371	-0.184	0.158
-163.808	49.035	0.210	0.197
-162.793	73.886	-0.354	0.371
-161.779	-17.762	-0.176	-0.110
-160.764	621.758	0.032	0.080
-159.750	-109.492	0.148	-0.031
-158.735	47.972	0.093	-0.087
-157.720	160.145	0.023	-0.032
-156.706	-37.573	0.297	-0.158
-155.691	-130.318	-0.032	-0.004
-154.677	800.000	0.067	-0.264
-153.662	54.215	-0.246	-0.236
-152.647	-200.000	0.013	-0.197
-151.633	-136.041	-0.103	0.012
-150.618	-200.000	0.044	-0.206
-149.604	-200.000	0.051	0.439
-148.589	800.000	0.060	0.177
-147.574	-200.000	0.006	0.224
-146.560	-69.525	-0.413	0.158
-145.545	800.000	-0.020	0.057
-144.531	-59.037	0.126	0.054
-143.516	-200.000	-0.026	0.159
-142.502	-155.199	0.183	0.012
-141.487	370.962	0.058	0.118
-140.472	-72.560	-0.241	0.089
-139.458	-200.000	-0.020	-0.109
-138.443	-97.251	0.194	-0.050
-137.429	800.000	-0.037	-0.139
-136.414	0.466	-0.120	-0.086
-135.399	-121.287	-0.171	0.029
-134.385	-200.000	0.010	-0.058
-133.370	-46.663	-0.343	0.168
-132.356	127.997	0.030	-0.037
-131.341	28.624	0.176	-0.149
-130.326	-140.830	0.358	-0.037
-129.312	-200.000	0.016	0.148
-128.297	800.000	0.133	0.414
-127.283	294.736	0.092	0.168
-126.268	-200.000	-0.319	-0.001
-125.253	800.000	-0.070	0.193
-124.239	146.437	-0.163	0.219
-123.224	-60.361	0.090	0.038
-122.210	-200.000	0.018	0.087
-121.195	-200.000	-0.061	-0.296
-120.180	5.978	0.132	-0.097
-119.166	18.084	0.418	0.332
-118.151	-31.424	0.273	-0.153
-117.137	800.000	0.087	0.247
-116.122	122.853	0.102	0.127
-115.107	-7.457	0.147	0.099
-114.093	561.418	-0.084	0.202
-113.078	800.000	-0.063	0.219
-112.064	-200.000	-0.004	-0.157
-111.049	-78.239	-0.150	-0.051
-110.034	-96.972	-0.155	0.040
-109.020	-200.000	-0.200	0.000
-108.005	800.000	-0.090	-0.307
-106.991	154.608	0.185	-0.253
-105.976	-112.949	0.496	-0.098
-104.962	3.009	-0.129	-0.093
-103.947	415.684	-0.158	0.335
-102.932	-148.529	-0.300	0.024
-101.918	291.050	0.148	0.269
-100.903	800.000	0.064	0.178
-99.889	189.022	-0.361	0.538
-98.874	287.195	0.073	0.131
-97.859	194.811	-0.178	0.268
-96.845	58.193	0.096	0.094
-95.830	230.177	-0.191	0.310
-94.816	-18.833	0.198	0.123
-93.801	-11.708	0.298	0.195
-92.786	-73.341	0.136	0.049
-91.772	-13.794	-0.171	-0.110
-90.757	276.978	-0.289	0.511
-89.743	162.328	-0.161	0.225
-88.728	13.423	-0.195	-0.151
-87.713	306.107	-0.139	-0.257
-86.699	-27.730	0.170	0.098
-85.684	-120.638	-0.045	0.008
-84.670	-31.620	-0.321	0.179
-83.655	234.601	0.085	0.140
-82.640	-200.000	0.042	0.225
-81.626	19.242	-0.103	0.082
-80.611	-77.839	0.155	-0.053
-79.597	-200.000	-0.007	0.096
-78.582	-53.292	0.258	0.118
-77.567	-124.143	-0.217	0.034
-76.553	-200.000	-0.038	0.315
-75.538	-138.486	-0.516	-0.056
-74.524	-200.000	-0.007	-0.101
-73.509	800.000	-0.069	0.249
-72.494	-181.431	-0.384	0.007
-71.480	-59.397	0.116	-0.050
-70.465	800.000	-0.054	-0.163
-69.451	-33.277	0.356	0.196
-68.436	800.000	-0.068	-0.192
-67.422	144.725	-0.227	0.302
-66.407	60.682	-0.093	-0.092
-65.392	-200.000	-0.022	-0.169
-64.378	800.000	0.078	-0.276
-63.363	151.626	-0.041	-0.055
-62.349	-200.000	-0.026	0.158
-61.334	147.465	-0.843	-1.129
-60.319	607.656	0.228	0.566
-59.305	800.000	-0.252	-1.047
-58.290	800.000	0.313	0.997
-57.276	-200.000	0.288	1.427
-56.261	-200.000	87.436	508.674
-55.246	481.089	1369.459	3088.837
-54.232	148.391	2581.019	3463.492
-53.217	104.502	2352.636	2753.256
-52.203	44.330	2095.676	1911.806
-51.188	39.622	2006.572	1787.892
-50.173	38.135	1986.610	1756.665
-49.159	50.813	2033.421	1913.724
-48.144	54.237	2053.047	1963.323
-47.130	40.474	2013.295	1801.341
-46.115	38.000	2000.963	1767.854
-45.100	37.885	1998.282	1764.379
-44.086	37.846	1996.127	1762.053
-43.071	37.820	1993.331	1759.280
-42.057	37.902	1990.867	1757.776
-41.042	37.819	1989.654	1755.888
-40.027	37.858	1987.496	1754.262
-39.013	37.911	1984.746	1752.243
-37.998	37.826	1983.223	1750.061
-36.984	37.867	1981.833	1749.132
-35.969	37.906	1979.989	1747.787
-34.954	37.867	1978.009	1745.617
-33.940	37.910	1976.943	1744.998
-32.925	37.914	1975.200	1743.426
-31.911	37.935	1973.432	1741.982
-30.896	37.954	1971.550	1740.424
-29.881	38.014	1969.809	1739.350
-28.867	38.093	1967.790	1738.204
-27.852	37.980	1966.465	1735.956
-26.838	37.999	1964.256	1734.109
-25.823	37.947	1962.536	1732.055
-24.809	37.928	1960.717	1730.215
-23.794	37.906	1959.196	1728.610
-22.779	37.967	1957.271	1727.382
-21.765	37.912	1955.609	1725.357
-20.750	37.927	1953.742	1723.774
-19.736	37.929	1952.386	1722.533
-18.721	37.873	1950.959	1720.705
-17.706	37.910	1949.270	1719.477
-16.692	37.951	1947.159	1717.903
-15.677	37.931	1945.631	1716.311
-14.663	37.905	1944.310	1714.856
-13.648	38.003	1943.097	1714.577
-12.633	37.965	1941.562	1712.816
-11.619	37.906	1940.661	1711.437
-10.604	37.965	1939.293	1710.679
-9.590	37.917	1937.618	1708.720
-8.575	37.879	1936.461	1707.291
-7.560	37.895	1935.143	1706.205
-6.546	37.841	1934.100	1704.749
-5.531	37.955	1932.137	1703.945
-4.517	37.862	1931.571	1702.561
-3.502	37.893	1929.944	1701.336
-2.487	37.885	1928.471	1699.901
-1.473	37.857	1928.192	1699.343
-0.458	38.040	1923.032	1696.319
0.556	35.141	1903.491	1665.600
1.571	30.402	1881.944	1605.745
2.586	25.906	1902.259	1583.535
3.600	24.466	1937.632	1599.941
4.615	23.880	1934.796	1592.211
5.629	21.963	1844.537	1501.413
6.644	18.195	1737.088	1383.417
7.659	15.887	1701.268	1336.469
8.673	15.635	1697.808	1331.636
9.688	15.676	1696.497	1330.812
10.702	15.564	1695.326	1328.890
11.717	15.486	1692.095	1325.628
12.731	15.676	1690.759	1325.964
13.746	18.197	1696.286	1350.102
14.761	20.141	1698.900	1367.413
15.775	18.698	1694.136	1352.097
16.790	17.037	1688.983	1334.810
17.804	15.859	1685.235	1322.483
18.819	14.768	1682.312	1311.514
19.834	14.182	1679.110	1304.306
20.848	13.759	1677.067	1299.290
21.863	13.382	1675.581	1295.075
22.877	13.049	1674.381	1291.425
23.892	12.917	1673.107	1289.296
24.907	12.802	1672.230	1287.610
25.921	12.868	1670.621	1286.770
26.936	12.802	1669.588	1285.350
27.950	12.848	1668.640	1284.862
28.965	12.951	1668.060	1285.106
29.980	12.976	1666.967	1284.348
30.994	13.055	1665.901	1284.021
32.009	13.027	1665.052	1283.039
33.023	13.078	1664.069	1282.561
34.038	13.137	1663.008	1282.093
35.053	13.125	1661.503	1280.725
36.067	13.010	1660.536	1278.975
37.082	13.017	1659.370	1278.019
38.096	13.014	1658.582	1277.275
39.111	13.012	1657.612	1276.398
40.126	13.051	1656.689	1275.873
41.140	13.005	1655.928	1274.819
42.155	12.928	1654.535	1273.039
43.169	12.894	1652.980	1271.474
44.184	12.819	1652.031	1270.053
45.199	12.782	1650.766	1268.683
46.213	12.846	1649.426	1268.028
47.228	12.851	1648.333	1267.114
48.242	12.950	1646.795	1266.584
49.257	12.987	1646.027	1266.164
50.271	12.982	1644.629	1264.935
51.286	12.907	1643.336	1263.257
52.301	12.858	1642.582	1262.193
53.315	13.029	1640.592	1261.861
54.330	12.952	1639.378	1260.222
55.344	12.862	1637.854	1258.254
56.359	12.839	1636.392	1256.847
57.374	12.848	1635.555	1256.162
58.388	12.926	1633.830	1255.314
59.403	12.848	1632.714	1253.753
60.417	12.832	1630.960	1252.173
61.432	12.781	1630.326	1251.188
62.447	12.793	1628.909	1250.087
63.461	12.742	1628.248	1249.076
64.476	12.671	1627.166	1247.598
65.490	12.695	1625.900	1246.698
66.505	12.811	1624.133	1246.112
67.520	12.740	1623.603	1245.056
68.534	12.783	1622.662	1244.550
69.549	12.778	1621.651	1243.630
70.563	12.777	1620.428	1242.573
71.578	12.726	1619.164	1241.112
72.593	12.658	1618.093	1239.668
73.607	12.699	1617.093	1239.098
74.622	12.684	1615.531	1237.684
75.636	12.625	1615.544	1237.135
76.651	12.714	1614.032	1236.537
77.666	12.662	1613.081	1235.309
78.680	12.689	1612.182	1234.712
79.695	12.693	1611.764	1234.314
80.709	12.650	1611.147	1233.414
81.724	12.689	1609.786	1232.556
82.739	12.655	1608.884	1231.498
83.753	12.774	1608.185	1231.741
84.768	12.828	1607.125	1231.223
85.782	12.975	1606.137	1231.460
86.797	12.970	1605.597	1230.901
87.812	12.982	1604.375	1229.939
88.826	12.877	1602.995	1227.994
89.841	12.854	1602.153	1227.071
90.855	12.906	1600.995	1226.460
91.870	12.895	1600.014	1225.518
92.884	12.977	1598.736	1225.038
93.899	12.991	1597.629	1224.189
94.914	13.056	1596.176	1223.444
95.928	13.023	1595.140	1222.300
96.943	13.060	1593.949	1221.554
97.957	13.091	1592.651	1220.676
98.972	12.985	1591.165	1218.653
99.987	12.991	1590.105	1217.772
101.001	12.952	1588.356	1216.042
102.016	12.918	1587.041	1214.678
103.030	12.973	1585.408	1213.725
104.045	13.039	1584.207	1213.178
105.060	12.997	1582.459	1211.427
106.074	12.955	1580.910	1209.825
107.089	12.890	1579.752	1208.354
108.103	12.838	1577.812	1206.380
109.118	12.768	1576.645	1204.873
110.133	12.782	1575.104	1203.692
111.147	12.792	1573.840	1202.694
112.162	12.808	1572.282	1201.513
113.176	12.811	1570.852	1200.334
114.191	12.894	1569.438	1199.751
115.206	12.828	1568.566	1198.501
116.220	12.912	1567.116	1197.894
117.235	12.846	1565.661	1196.195
118.249	12.813	1564.393	1194.880
119.264	12.869	1563.118	1194.213
120.279	12.845	1561.572	1192.750
121.293	12.825	1560.160	1191.421
122.308	12.738	1559.097	1189.876
123.322	12.816	1557.120	1188.827
124.337	12.762	1555.827	1187.345
125.352	12.796	1554.577	1186.528
126.366	12.788	1553.526	1185.561
127.381	12.778	1552.071	1184.276
128.395	12.771	1551.150	1183.419
129.410	12.844	1549.428	1182.526
130.424	12.776	1548.496	1181.223
131.439	12.894	1547.304	1181.050
132.454	12.885	1545.712	1179.669
133.468	12.922	1544.703	1179.056
134.483	13.040	1542.570	1178.169
135.497	12.940	1541.433	1176.481
136.512	12.961	1540.067	1175.482
137.527	12.941	1538.975	1174.403
138.541	12.907	1537.959	1173.283
139.556	12.968	1536.518	1172.518
140.570	13.034	1535.045	1171.755
141.585	13.107	1533.544	1171.022
142.600	13.053	1532.796	1169.969
143.614	13.130	1531.156	1169.156
144.629	13.126	1530.075	1168.199
145.643	13.213	1528.606	1167.586
146.658	13.204	1527.381	1166.488
147.673	13.106	1525.677	1164.392
148.687	13.172	1524.184	1163.616
149.702	13.098	1522.550	1161.744
150.716	13.051	1521.418	1160.443
151.731	12.940	1520.471	1158.838
152.746	12.976	1518.871	1157.772
153.760	13.024	1517.657	1157.077
154.775	12.973	1516.326	1155.607
155.789	13.074	1515.103	1155.281
156.804	13.152	1513.684	1154.638
157.819	13.216	1512.264	1153.899
158.833	13.135	1511.847	1152.912
159.848	13.298	1509.988	1152.532
160.862	13.269	1509.245	1151.661
161.877	13.281	1508.143	1150.799
162.892	13.345	1506.407	1149.821
163.906	13.180	1505.095	1147.570
164.921	13.141	1503.960	1146.330
165.935	13.111	1502.939	1145.245
166.950	13.086	1502.279	1144.466
167.964	13.120	1500.890	1143.544
168.979	13.233	1499.851	1143.436
169.994	13.236	1498.509	1142.331
171.008	13.170	1497.621	1141.097
172.023	13.204	1496.090	1140.061
173.037	13.275	1495.481	1139.989
174.052	13.295	1494.208	1139.057
175.067	13.296	1493.215	1138.205
176.081	13.291	1492.132	1137.240
177.096	13.223	1490.985	1135.798
178.110	13.254	1489.293	1134.624
179.125	13.215	1488.253	1133.460
180.140	13.266	1487.114	1132.844
181.154	13.227	1486.685	1132.151
182.169	13.313	1485.545	1131.770
183.183	13.305	1484.203	1130.594
184.198	13.346	1483.011	1129.866
185.213	13.467	1481.968	1129.796
186.227	13.434	1481.092	1128.803
187.242	13.446	1480.089	1128.022
188.256	13.503	1479.070	1127.535
189.271	13.529	1477.693	1126.558
190.286	13.506	1477.023	1125.793
191.300	13.581	1475.585	1125.110
192.315	13.384	1474.489	1122.837
193.329	13.273	1473.430	1121.178
194.344	13.312	1471.869	1120.155
195.359	13.383	1470.940	1119.827
196.373	13.454	1469.900	1119.421
197.388	13.423	1469.395	1118.724
198.402	13.522	1468.140	1118.340
199.417	13.550	1467.053	1117.598
200.432	13.545	1465.982	1116.654
201.446	13.704	1465.014	1116.888
202.461	13.674	1463.857	1115.706
203.475	13.763	1462.829	1115.418
204.490	13.738	1461.903	1114.450
205.504	13.716	1460.712	1113.295
206.519	13.759	1459.464	1112.530
207.534	13.677	1458.484	1111.137
208.548	13.568	1457.502	1109.560
209.563	13.673	1456.489	1109.392
210.577	13.710	1455.278	1108.620
211.592	13.716	1454.264	1107.791
212.607	13.749	1453.653	1107.447
213.621	13.796	1452.970	1107.146
214.636	13.833	1452.093	1106.623
215.650	13.902	1451.250	1106.344
216.665	13.904	1450.222	1105.477
217.680	13.889	1449.414	1104.662
218.694	13.935	1448.500	1104.172
219.709	13.926	1447.803	1103.481
220.723	13.930	1446.464	1102.390
221.738	13.948	1445.760	1101.879
222.753	13.875	1445.010	1100.726
223.767	13.844	1444.301	1099.882
224.782	13.889	1443.414	1099.405
225.796	13.932	1441.924	1098.456
226.811	13.986	1441.115	1098.102
227.826	13.985	1440.444	1097.486
228.840	14.115	1439.217	1097.312
229.855	13.999	1438.725	1096.078
230.869	14.113	1437.342	1095.675
231.884	14.043	1436.454	1094.445
232.899	13.960	1435.438	1093.022
233.913	13.964	1434.178	1091.997
234.928	14.009	1432.816	1091.154
235.942	13.951	1431.983	1090.043
236.957	13.858	1431.064	1088.640
237.972	13.973	1429.441	1088.060
238.986	13.982	1428.137	1087.034
240.001	14.054	1427.689	1087.067
241.015	14.007	1426.850	1086.024
242.030	13.965	1425.654	1084.739
243.045	14.075	1424.594	1084.555
244.059	14.151	1423.631	1084.226
245.074	14.143	1422.265	1083.036
246.088	14.093	1422.211	1082.574
247.103	14.105	1421.186	1081.777
248.117	14.160	1420.594	1081.584
249.132	14.341	1419.445	1081.788
250.147	14.258	1419.057	1080.859
251.161	14.349	1418.547	1080.969
252.176	14.454	1417.386	1080.668
253.190	14.505	1416.424	1080.171
254.205	14.521	1415.808	1079.706
255.220	14.447	1415.354	1078.786
256.234	14.548	1414.263	1078.514
257.249	14.568	1413.611	1078.050
258.263	14.519	1412.508	1076.800
259.278	14.609	1411.390	1076.427
260.293	14.583	1410.499	1075.486
261.307	14.623	1409.746	1075.077
262.322	14.681	1409.124	1074.877
263.336	14.583	1408.714	1073.839
264.351	14.715	1407.037	1073.314
265.366	14.634	1406.832	1072.544
266.380	14.755	1405.256	1072.021
267.395	14.727	1404.692	1071.320
268.409	14.814	1403.768	1071.076
269.424	14.784	1402.716	1069.991
270.439	14.765	1401.502	1068.843
271.453	14.755	1400.398	1067.848
272.468	14.765	1399.775	1067.338
273.482	14.686	1399.192	1066.294
274.497	14.710	1398.625	1065.923
275.512	14.651	1397.686	1064.735
276.526	14.749	1396.769	1064.571
277.541	14.796	1395.189	1063.572
278.555	14.678	1394.692	1062.348
279.570	14.771	1393.535	1061.960
280.585	14.809	1392.860	1061.596
281.599	14.813	1392.017	1060.886
282.614	14.846	1391.154	1060.342
283.628	14.893	1389.867	1059.565
284.643	14.896	1388.933	1058.775
285.657	14.804	1387.956	1057.358
286.672	14.815	1387.030	1056.625
287.687	14.921	1385.940	1056.375
288.701	14.946	1384.568	1055.392
289.716	14.974	1384.083	1055.103
290.730	14.982	1383.311	1054.472
291.745	14.942	1382.750	1053.702
292.760	15.004	1381.534	1053.070
293.774	15.066	1380.570	1052.630
294.789	15.040	1379.788	1051.782
295.803	15.046	1378.791	1050.966
296.818	15.057	1378.082	1050.402
297.833	15.102	1376.848	1049.652
298.847	15.058	1375.784	1048.466
299.862	15.043	1374.755	1047.499
300.876	15.082	1374.079	1047.138
301.891	15.045	1373.128	1046.084
302.906	15.103	1372.297	1045.721
303.920	15.177	1371.633	1045.586
304.935	15.143	1371.067	1044.849
305.949	15.212	1369.889	1044.290
306.964	15.242	1369.163	1043.830
307.979	15.270	1368.236	1043.204
308.993	15.369	1366.947	1042.745
310.008	15.255	1366.556	1041.647
311.022	15.215	1365.861	1040.777
312.037	15.368	1364.063	1040.266
313.052	15.260	1363.683	1039.210
314.066	15.319	1362.578	1038.645
315.081	15.352	1360.990	1037.548
316.095	15.240	1360.339	1036.265
317.110	15.242	1359.520	1035.565
318.125	15.310	1357.856	1034.625
319.139	15.389	1357.245	1034.555
320.154	15.413	1356.402	1033.968
321.168	15.353	1355.106	1032.519
322.183	15.293	1354.516	1031.608
323.197	15.342	1353.634	1031.145
324.212	15.306	1352.860	1030.246
325.227	15.352	1352.161	1029.901
326.241	15.405	1351.221	1029.417
327.256	15.337	1350.630	1028.463
328.270	15.471	1349.477	1028.312
329.285	15.428	1348.323	1027.082
330.300	15.420	1347.789	1026.532
331.314	15.448	1346.601	1025.707
332.329	15.424	1346.011	1025.025
333.343	15.499	1344.915	1024.553
334.358	15.408	1344.241	1023.396
335.373	15.496	1343.389	1023.194
336.387	15.527	1342.491	1022.610
337.402	15.618	1341.733	1022.492
338.416	15.623	1341.309	1022.113
339.431	15.643	1340.580	1021.588
340.446	15.598	1340.078	1020.842
341.460	15.721	1338.833	1020.549
342.475	15.679	1338.008	1019.574
343.489	15.693	1337.479	1019.165
344.504	15.844	1335.844	1018.741
345.519	15.773	1335.149	1017.696
346.533	15.824	1334.397	1017.338
347.548	15.874	1333.433	1016.817
348.562	15.848	1332.736	1016.035
349.577	15.969	1331.667	1015.864
350.592	15.916	1331.026	1014.965
351.606	15.855	1329.802	1013.574
352.621	15.809	1328.966	1012.572
353.635	15.837	1327.513	1011.538
354.650	15.683	1327.000	1010.135
355.665	15.823	1326.173	1010.260
356.679	15.797	1325.038	1009.145
357.694	15.847	1323.862	1008.463
358.708	15.832	1322.835	1007.503
359.723	15.912	1321.915	1007.188
360.738	15.966	1320.799	1006.574
361.752	15.843	1319.981	1005.128
362.767	15.926	1319.018	1004.800
363.781	15.934	1318.244	1004.169
364.796	15.880	1317.581	1003.255
365.810	16.019	1316.323	1003.033
366.825	16.043	1315.613	1002.549
367.840	16.037	1315.370	1002.234
368.854	16.080	1314.613	1001.829
369.869	16.198	1313.522	1001.609
370.883	16.266	1312.977	1001.504
371.898	16.231	1312.312	1000.701
372.913	16.230	1311.547	1000.022
373.927	16.168	1310.773	998.977
374.942	16.175	1309.907	998.269
375.956	16.257	1308.897	997.900
376.971	16.316	1308.433	997.803
377.986	16.198	1307.850	996.575
379.000	16.274	1306.884	996.198
380.015	16.307	1305.852	995.520
381.029	16.333	1305.212	995.095
382.044	16.363	1304.485	994.632
383.059	16.359	1303.862	994.046
384.073	16.406	1303.262	993.773
385.088	16.527	1301.972	993.417
386.102	16.340	1301.866	992.146
387.117	16.481	1301.345	992.488
388.132	16.443	1300.400	991.460
389.146	16.465	1298.998	990.431
390.161	16.386	1298.519	989.517
391.175	16.353	1297.742	988.646
392.190	16.351	1297.003	987.982
393.205	16.420	1296.427	987.860
394.219	16.520	1295.144	987.375
395.234	16.454	1294.143	986.143
396.248	16.435	1292.860	984.965
397.263	16.434	1291.454	983.800
398.278	16.498	1290.178	983.115
399.292	16.428	1289.632	982.207
400.307	16.399	1288.369	980.985
401.321	16.479	1287.190	980.466
402.336	16.399	1286.285	979.226
403.350	16.376	1285.788	978.632
404.365	16.418	1284.869	978.087
405.380	16.416	1284.055	977.368
406.394	16.495	1282.892	976.853
407.409	16.512	1282.239	976.367
408.423	16.712	1281.387	976.789
409.438	16.690	1280.775	976.107
410.453	16.680	1280.288	975.592
411.467	16.781	1279.320	975.350
412.482	16.714	1278.885	974.548
413.496	16.751	1278.371	974.278
414.511	16.813	1277.375	973.789
415.526	16.807	1276.814	973.241
416.540	16.883	1275.856	972.866
417.555	16.904	1275.233	972.425
418.569	16.888	1275.006	972.070
419.584	16.849	1274.413	971.312
420.599	16.833	1273.513	970.448
421.613	85.735	1337.461	1415.438
422.628	83.994	1346.762	1415.578
