DTS Sentinel unit serial number:	SN413079Multiplexer serial number:	ORYXHardware model number:	OX4-SRSoftware version number:	ORYX F/W v4.00 Oryx Data Collector v3.7.2.0data status	okinstallation	princeton_trtdifferential loss correction	single-endedforward channel	channel 4reverse channel	N/Adate	2019/09/15time	07:37:35forward acquisition time	60.00reverse acquisition time	0.00gamma	496.2192k internal	0.2311k external	0.2311temperature offset calibration	1.0035default loss term (dB/km)	0.3790temperature slope calibration	1.0000multiplexer offset coefficient	1.0000multiplexer slope coefficient	1.0000fibre end	0.00T internal ref (°C)	30.62T ext. ref 1 (°C)	4.97T ext. ref 2 (°C)	25.43length (m)	temperature (°C)	Stokes	anti-Stokes-747.200	492.155	-0.057	0.132
-746.185	84.846	-0.133	-0.148
-745.171	-19.547	-0.106	-0.066
-744.156	-18.038	-0.116	0.074
-743.142	49.650	0.153	-0.147
-742.127	800.000	-0.065	0.240
-741.112	270.185	0.068	0.121
-740.098	76.687	-0.310	0.334
-739.083	-132.191	0.213	0.028
-738.069	657.120	0.017	0.043
-737.054	-93.199	-0.099	-0.028
-736.039	800.000	-0.109	-0.421
-735.025	280.967	0.174	0.315
-734.010	586.058	-0.057	0.142
-732.996	-123.135	-0.399	0.065
-731.981	-28.826	0.203	-0.118
-730.966	-64.830	0.059	-0.024
-729.952	-153.612	0.588	-0.041
-728.937	800.000	0.036	0.158
-727.923	-200.000	0.006	-0.115
-726.908	800.000	-0.043	0.179
-725.894	382.560	-0.036	-0.075
-724.879	-92.943	-0.258	0.073
-723.864	800.000	-0.094	0.387
-722.850	-121.541	-0.300	0.050
-721.835	162.820	0.126	0.179
-720.821	-30.448	-0.141	-0.081
-719.806	-45.562	0.270	0.135
-718.791	-50.320	-0.109	0.052
-717.777	-80.969	-0.215	0.072
-716.762	-11.965	-0.149	0.099
-715.748	-92.087	-0.142	0.041
-714.733	121.173	-0.019	-0.024
-713.718	-200.000	0.048	0.306
-712.704	-104.593	0.412	-0.096
-711.689	-15.912	-0.173	-0.112
-710.675	204.273	-0.078	0.122
-709.660	104.954	-0.088	0.105
-708.645	-33.960	-0.158	0.088
-707.631	103.420	0.185	0.220
-706.616	-65.681	0.218	0.088
-705.602	149.189	0.041	0.057
-704.587	-94.244	-0.215	0.060
-703.572	-120.499	-0.229	-0.039
-702.558	-116.845	-0.291	-0.054
-701.543	-132.319	-0.270	-0.035
-700.529	119.918	-0.201	-0.252
-699.514	101.351	0.027	-0.032
-698.499	282.379	-0.004	0.007
-697.485	136.568	0.055	-0.073
-696.470	158.604	-0.187	-0.264
-695.456	54.287	-0.056	0.055
-694.441	31.853	0.175	0.153
-693.426	622.760	-0.064	-0.164
-692.412	17.549	-0.305	0.246
-691.397	677.690	-0.081	-0.213
-690.383	-74.713	0.091	-0.033
-689.368	100.694	-0.114	0.135
-688.354	-200.000	0.021	0.141
-687.339	-137.778	0.089	-0.010
-686.324	763.387	-0.133	0.366
-685.310	-99.917	-0.174	0.044
-684.295	46.086	-0.161	-0.151
-683.281	-91.173	0.217	0.063
-682.266	421.952	0.094	-0.204
-681.251	58.293	0.388	0.385
-680.237	-65.271	0.062	-0.025
-679.222	-50.715	-0.305	0.145
-678.208	82.434	0.143	0.157
-677.193	430.688	-0.052	0.115
-676.178	800.000	0.045	-0.136
-675.164	-200.000	-0.044	0.196
-674.149	-200.000	0.002	-0.028
-673.135	446.482	0.054	0.120
-672.120	406.925	0.137	-0.293
-671.105	48.869	-0.063	0.060
-670.091	47.803	0.114	-0.108
-669.076	334.158	0.024	-0.048
-668.062	433.007	0.110	0.241
-667.047	145.530	-0.073	-0.099
-666.032	-156.884	0.467	-0.029
-665.018	628.833	0.137	-0.351
-664.003	111.082	0.128	-0.157
-662.989	-196.461	-0.292	0.002
-661.974	-107.052	-0.110	-0.025
-660.959	307.847	0.048	-0.091
-659.945	-14.579	0.064	0.042
-658.930	800.000	-0.049	0.210
-657.916	-76.073	0.082	-0.029
-656.901	-70.574	0.264	-0.101
-655.886	-200.000	0.039	-0.205
-654.872	-120.326	0.245	-0.042
-653.857	-200.000	-0.037	-0.204
-652.843	57.328	-0.170	-0.168
-651.828	201.149	-0.078	-0.122
-650.814	-130.832	-0.150	0.020
-649.799	373.922	-0.095	-0.196
-648.784	312.721	-0.126	0.240
-647.770	170.630	0.061	0.088
-646.755	-8.238	0.092	0.062
-645.741	133.273	0.144	-0.188
-644.726	372.601	0.039	-0.079
-643.711	-82.463	-0.108	0.036
-642.697	-117.101	-0.153	0.028
-641.682	-200.000	0.008	0.175
-640.668	103.511	-0.124	0.148
-639.653	-109.796	0.184	0.039
-638.638	-200.000	0.011	0.082
-637.624	800.000	-0.056	0.190
-636.609	-19.894	-0.307	0.192
-635.595	-51.601	-0.064	0.030
-634.580	-200.000	-0.006	0.351
-633.565	120.455	-0.228	0.287
-632.551	-49.848	0.230	-0.110
-631.536	-200.000	0.008	0.266
-630.522	-157.812	0.150	-0.009
-629.507	6.282	-0.248	0.186
-628.492	61.604	-0.043	0.043
-627.478	-100.892	-0.241	-0.060
-626.463	172.865	0.144	0.209
-625.449	-200.000	0.018	0.285
-624.434	-200.000	0.057	0.318
-623.419	-200.000	0.025	0.138
-622.405	641.523	-0.133	0.342
-621.390	-39.296	0.033	-0.017
-620.376	800.000	-0.111	-0.331
-619.361	-90.330	-0.385	-0.113
-618.346	207.868	0.044	0.070
-617.332	800.000	-0.121	-0.368
-616.317	-84.063	0.370	-0.119
-615.303	-82.207	-0.175	0.058
-614.288	411.109	0.093	-0.198
-613.273	-8.860	0.092	0.063
-612.259	-200.000	0.005	0.226
-611.244	-44.794	-0.124	-0.062
-610.230	-18.354	-0.099	-0.062
-609.215	-176.240	0.193	0.005
-608.201	4.527	-0.137	-0.101
-607.186	-78.948	-0.186	-0.064
-606.171	800.000	0.106	0.308
-605.157	800.000	-0.002	0.007
-604.142	-18.525	-0.273	0.172
-603.128	-200.000	0.031	0.235
-602.113	800.000	-0.066	0.266
-601.098	800.000	-0.041	0.180
-600.084	800.000	0.060	0.195
-599.069	-10.236	-0.060	0.040
-598.055	-26.815	0.026	0.015
-597.040	-200.000	0.037	-0.207
-596.025	43.804	-0.339	-0.313
-595.011	-78.696	-0.170	-0.058
-593.996	-125.613	-0.198	0.030
-592.982	-200.000	-0.028	0.307
-591.967	-127.266	0.219	0.032
-590.952	127.619	-0.186	-0.239
-589.938	87.665	-0.132	-0.147
-588.923	-200.000	0.052	-0.233
-587.909	780.407	0.023	-0.065
-586.894	149.277	0.220	-0.301
-585.879	-200.000	0.053	-0.426
-584.865	227.593	0.192	-0.314
-583.850	-200.000	-0.014	-0.348
-582.836	-46.527	-0.438	0.217
-581.821	-200.000	0.046	0.345
-580.806	-25.123	0.185	0.110
-579.792	-12.713	-0.050	-0.033
-578.777	43.593	-0.357	0.330
-577.763	-69.341	-0.128	0.050
-576.748	185.387	-0.111	-0.167
-575.733	-132.507	-0.193	-0.025
-574.719	-44.085	0.102	0.051
-573.704	341.652	-0.037	0.074
-572.690	-108.661	-0.160	-0.035
-571.675	-200.000	-0.216	-0.001
-570.661	84.755	-0.086	0.095
-569.646	-55.515	-0.229	-0.104
-568.631	-82.645	0.044	-0.014
-567.617	-2.333	-0.032	-0.022
-566.602	-23.341	-0.069	-0.042
-565.588	-144.440	0.242	0.023
-564.573	92.521	-0.193	0.219
-563.558	439.967	0.148	0.326
-562.544	-200.000	0.006	-0.392
-561.529	-119.863	0.138	0.024
-560.515	-84.705	-0.268	0.085
-559.500	121.694	0.179	-0.224
-558.485	181.215	0.211	-0.313
-557.471	-200.000	-0.023	0.187
-556.456	-200.000	0.031	-0.259
-555.442	92.785	-0.060	0.068
-554.427	473.699	0.128	0.292
-553.412	-152.783	0.177	-0.013
-552.398	-144.152	-0.306	-0.029
-551.383	-200.000	-0.032	-0.244
-550.369	-143.966	0.202	0.019
-549.354	800.000	0.065	-0.237
-548.339	-30.861	-0.171	-0.097
-547.325	-200.000	0.008	-0.048
-546.310	800.000	-0.095	-0.300
-545.296	800.000	-0.035	-0.129
-544.281	-7.953	-0.347	-0.236
-543.266	-200.000	0.005	0.065
-542.252	50.342	0.118	-0.112
-541.237	800.000	0.022	0.090
-540.223	800.000	-0.123	-0.376
-539.208	720.853	-0.015	-0.040
-538.193	758.389	-0.030	-0.081
-537.179	-200.000	-0.059	-0.378
-536.164	-29.057	0.169	0.098
-535.150	75.488	0.090	-0.096
-534.135	11.273	0.105	-0.081
-533.121	57.918	-0.198	-0.195
-532.106	-200.000	0.012	-0.118
-531.091	18.917	-0.062	-0.050
-530.077	-200.000	-0.001	0.224
-529.062	36.407	-0.135	-0.120
-528.048	-66.184	0.379	0.152
-527.033	-30.026	0.086	0.049
-526.018	97.537	-0.207	0.239
-525.004	98.611	0.189	-0.220
-523.989	-133.566	0.270	-0.034
-522.975	-200.000	0.048	-0.233
-521.960	-200.000	0.023	0.321
-520.945	-131.197	0.157	0.021
-519.931	-36.993	0.141	0.076
-518.916	-200.000	0.006	-0.112
-517.902	-38.167	-0.257	0.137
-516.887	-71.093	-0.312	-0.118
-515.872	55.484	-0.101	0.098
-514.858	115.618	0.219	-0.270
-513.843	-149.744	0.483	-0.038
-512.829	-46.211	0.165	0.082
-511.814	126.452	-0.225	0.286
-510.799	-119.696	0.168	-0.029
-509.785	-81.801	-0.330	-0.109
-508.770	55.832	0.213	-0.208
-507.756	-200.000	0.051	0.485
-506.741	33.588	0.020	-0.017
-505.726	800.000	0.089	-0.282
-504.712	-200.000	-0.036	0.214
-503.697	-74.776	-0.122	0.044
-502.683	-200.000	-0.367	-0.002
-501.668	172.964	-0.145	0.210
-500.653	-200.000	0.006	-0.261
-499.639	74.716	-0.183	-0.193
-498.624	-92.966	0.121	0.034
-497.610	-28.221	-0.072	0.042
-496.595	-200.000	0.036	0.241
-495.581	-10.359	-0.232	-0.155
-494.566	-105.684	-0.308	-0.070
-493.551	-14.015	0.204	0.133
-492.537	160.079	0.128	-0.180
-491.522	-104.049	-0.092	-0.022
-490.508	69.412	0.152	0.157
-489.493	31.201	0.201	-0.173
-488.478	-46.230	-0.105	-0.052
-487.464	-188.672	0.355	-0.004
-486.449	-13.090	0.214	-0.140
-485.435	800.000	-0.074	-0.224
-484.420	676.632	-0.045	-0.118
-483.405	257.047	-0.087	0.150
-482.391	57.258	0.096	0.094
-481.376	-182.823	-0.210	-0.004
-480.362	70.676	-0.152	0.158
-479.347	126.960	0.185	-0.235
-478.332	-110.810	-0.091	0.019
-477.318	-140.067	0.163	-0.017
-476.303	-54.468	-0.206	-0.094
-475.289	168.988	-0.150	-0.215
-474.274	-115.175	-0.077	-0.015
-473.259	-200.000	-0.028	-0.196
-472.245	346.868	-0.065	0.129
-471.230	-27.427	0.251	-0.147
-470.216	287.291	0.144	-0.262
-469.201	800.000	0.032	-0.139
-468.186	76.714	-0.074	-0.079
-467.172	25.544	0.128	0.107
-466.157	111.752	0.090	-0.109
-465.143	466.778	0.076	0.170
-464.128	96.955	-0.142	-0.163
-463.113	-55.228	-0.093	0.042
-462.099	85.653	0.247	-0.272
-461.084	-200.000	-0.008	-0.131
-460.070	53.640	0.084	0.081
-459.055	-16.885	-0.198	0.125
-458.040	623.665	-0.229	0.579
-457.026	545.583	-0.112	0.269
-456.011	-83.495	-0.175	0.056
-454.997	-54.693	0.284	0.129
-453.982	50.954	0.331	0.314
-452.968	78.937	-0.248	0.266
-451.953	75.153	-0.155	0.164
-450.938	57.071	-0.093	-0.091
-449.924	-200.000	0.001	0.083
-448.909	333.720	-0.087	-0.168
-447.895	64.148	-0.207	-0.209
-446.880	-200.000	0.038	-0.236
-445.865	-200.000	-0.002	-0.242
-444.851	-200.000	0.038	-0.206
-443.836	-62.918	0.276	-0.115
-442.822	-200.000	-0.064	0.379
-441.807	369.963	0.154	0.312
-440.792	-140.482	-0.259	0.027
-439.778	17.110	-0.183	0.146
-438.763	800.000	-0.037	-0.145
-437.749	-177.598	0.209	-0.005
-436.734	50.230	-0.219	0.207
-435.719	226.693	-0.152	-0.248
-434.705	-123.839	-0.400	0.063
-433.690	-65.948	-0.202	0.081
-432.676	-173.439	-0.106	-0.003
-431.661	-125.800	-0.159	0.024
-430.646	22.657	-0.217	0.178
-429.632	-22.851	-0.098	0.059
-428.617	-5.580	0.066	0.046
-427.603	-121.626	-0.091	0.015
-426.588	-200.000	-0.006	0.164
-425.573	54.826	0.167	0.162
-424.559	76.666	-0.221	0.235
-423.544	-40.844	0.275	0.143
-422.530	800.000	0.107	-0.393
-421.515	-106.869	-0.049	0.011
-420.500	-200.000	-0.067	-0.346
-419.486	800.000	-0.082	0.291
-418.471	-162.628	-0.082	0.004
-417.457	-106.511	-0.245	-0.055
-416.442	-200.000	-0.033	-0.199
-415.428	147.400	0.123	-0.166
-414.413	117.614	0.191	0.236
-413.398	-65.513	0.251	0.101
-412.384	-99.796	0.111	0.028
-411.369	551.055	-0.116	-0.279
-410.355	34.789	0.255	0.223
-409.340	24.694	0.277	0.230
-408.325	-167.542	-0.317	-0.013
-407.311	107.153	0.279	0.333
-406.296	800.000	-0.119	-0.368
-405.282	-10.659	0.100	0.066
-404.267	780.495	-0.068	0.188
-403.252	-89.531	0.187	0.055
-402.238	466.741	-0.027	0.060
-401.223	-118.904	-0.218	0.038
-400.209	-134.020	0.289	-0.036
-399.194	-123.538	-0.188	-0.030
-398.179	800.000	0.144	0.584
-397.165	107.679	0.194	0.231
-396.150	-200.000	0.004	0.192
-395.136	-34.038	-0.316	0.174
-394.121	217.474	-0.072	-0.115
-393.106	-200.000	0.015	0.287
-392.092	29.994	-0.188	-0.160
-391.077	-200.000	0.015	-0.089
-390.063	-17.349	-0.272	0.171
-389.048	-200.000	0.016	0.254
-388.033	-120.527	0.380	0.065
-387.019	83.427	-0.079	0.087
-386.004	800.000	0.057	0.174
-384.990	-200.000	0.056	-0.399
-383.975	305.847	0.105	-0.196
-382.960	-28.303	0.342	-0.198
-381.946	-200.000	0.016	-0.308
-380.931	97.210	-0.029	0.033
-379.917	800.000	-0.108	0.405
-378.902	689.268	0.053	0.138
-377.888	394.696	-0.079	-0.164
-376.873	800.000	0.111	0.311
-375.858	-121.144	-0.548	-0.092
-374.844	-142.202	0.238	-0.024
-373.829	780.987	0.142	0.390
-372.815	133.251	-0.057	-0.074
-371.800	-65.876	-0.046	-0.018
-370.785	-200.000	-0.015	-0.206
-369.771	-200.000	0.012	0.077
-368.756	134.521	0.151	-0.196
-367.742	-102.878	0.313	-0.074
-366.727	11.106	-0.130	0.100
-365.712	-81.160	0.107	-0.036
-364.698	43.730	-0.241	-0.220
-363.683	-70.333	0.117	0.044
-362.669	218.895	-0.009	0.014
-361.654	-200.000	0.014	-0.461
-360.639	-145.907	-0.175	-0.015
-359.625	-53.181	0.269	0.123
-358.610	-200.000	-0.011	-0.064
-357.596	-200.000	0.018	-0.178
-356.581	575.989	-0.088	-0.214
-355.566	800.000	-0.034	0.109
-354.552	-200.000	-0.005	-0.144
-353.537	252.462	0.075	-0.128
-352.523	267.965	-0.081	-0.142
-351.508	-163.963	-0.238	-0.011
-350.493	-181.843	-0.322	0.006
-349.479	-173.823	0.193	-0.006
-348.464	-55.285	0.316	-0.142
-347.450	73.312	-0.121	0.126
-346.435	800.000	-0.067	-0.252
-345.420	13.139	-0.234	0.181
-344.406	19.693	0.216	-0.173
-343.391	330.342	-0.038	-0.073
-342.377	-200.000	-0.058	-0.321
-341.362	800.000	-0.065	-0.181
-340.348	466.831	0.133	-0.299
-339.333	800.000	-0.069	0.292
-338.318	-50.005	0.155	0.074
-337.304	-83.580	-0.107	-0.034
-336.289	-13.335	-0.202	0.131
-335.275	-200.000	-0.049	-0.279
-334.260	-122.265	-0.087	-0.014
-333.245	-140.611	0.460	0.048
-332.231	54.765	0.187	0.180
-331.216	61.851	0.108	0.107
-330.202	403.468	0.135	-0.285
-329.187	13.703	0.231	0.179
-328.172	-118.240	-0.242	0.043
-327.158	-107.111	0.059	0.013
-326.143	114.003	0.286	0.348
-325.129	-70.457	0.258	0.098
-324.114	-64.222	-0.221	0.090
-323.099	-74.236	0.294	-0.106
-322.085	800.000	0.018	0.077
-321.070	-84.915	-0.328	-0.103
-320.056	221.774	-0.157	-0.251
-319.041	139.441	-0.298	-0.392
-318.026	92.617	-0.075	-0.084
-317.012	-200.000	-0.065	0.387
-315.997	112.335	0.135	-0.163
-314.983	41.435	0.248	0.224
-313.968	69.311	-0.190	-0.195
-312.953	-71.378	-0.159	0.060
-311.939	-200.000	-0.021	0.550
-310.924	222.683	0.114	0.184
-309.910	-100.496	0.487	-0.120
-308.895	71.842	0.258	-0.267
-307.880	-85.661	0.105	0.033
-306.866	800.000	-0.073	0.292
-305.851	-102.074	-0.259	0.062
-304.837	-101.797	0.270	0.065
-303.822	-200.000	0.022	-0.151
-302.807	8.429	-0.278	-0.209
-301.793	244.474	0.363	-0.609
-300.778	-172.641	0.220	-0.007
-299.764	-91.972	0.588	-0.166
-298.749	-200.000	-0.046	-0.218
-297.735	150.114	0.118	-0.160
-296.720	96.634	0.190	0.217
-295.705	-70.406	0.093	-0.035
-294.691	135.826	-0.186	0.241
-293.676	84.226	0.127	0.139
-292.662	800.000	0.108	0.298
-291.647	2.198	-0.228	-0.164
-290.632	352.521	0.075	0.147
-289.618	-200.000	-0.051	0.304
-288.603	-112.315	0.270	0.054
-287.589	-79.617	-0.346	0.117
-286.574	800.000	0.085	0.276
-285.559	-114.078	-0.269	0.052
-284.545	-144.601	0.146	-0.013
-283.530	-13.212	-0.365	-0.236
-282.516	37.627	-0.073	-0.064
-281.501	800.000	0.033	0.098
-280.486	70.882	-0.112	-0.116
-279.472	-15.184	0.273	0.174
-278.457	631.380	-0.058	0.147
-277.443	-106.918	-0.439	0.097
-276.428	-200.000	-0.014	-0.071
-275.413	104.214	0.232	0.272
-274.399	47.935	-0.175	-0.163
-273.384	-200.000	0.010	-0.406
-272.370	800.000	0.203	-0.723
-271.355	474.370	-0.060	-0.134
-270.340	-200.000	-0.015	-0.067
-269.326	-19.185	0.478	0.296
-268.311	-150.234	0.459	-0.035
-267.297	203.551	-0.090	0.138
-266.282	800.000	0.037	-0.111
-265.267	-42.726	0.131	-0.066
-264.253	-17.253	-0.199	0.125
-263.238	-200.000	-0.012	0.250
-262.224	198.391	0.105	0.160
-261.209	106.352	0.222	-0.262
-260.195	-121.908	0.287	-0.047
-259.180	438.241	-0.093	-0.203
-258.165	11.185	-0.127	0.097
-257.151	-158.525	-0.290	-0.017
-256.136	800.000	0.066	0.194
-255.122	332.739	0.179	0.344
-254.107	800.000	-0.126	-0.354
-253.092	-43.037	-0.150	-0.076
-252.078	305.595	-0.089	-0.165
-251.063	-200.000	-0.046	0.286
-250.049	-200.000	-0.008	-0.179
-249.034	72.878	-0.107	-0.111
-248.019	607.271	-0.113	-0.280
-247.005	-200.000	0.025	-0.289
-245.990	-118.197	-0.216	-0.038
-244.976	163.791	0.043	0.060
-243.961	-200.000	-0.017	0.090
-242.946	-6.764	0.171	-0.116
-241.932	82.586	-0.096	-0.104
-240.917	-61.035	-0.132	-0.056
-239.903	-143.686	-0.031	-0.003
-238.888	-150.167	-0.404	-0.031
-237.873	440.204	0.102	-0.222
-236.859	135.481	0.272	0.353
-235.844	800.000	-0.063	-0.195
-234.830	-199.221	-0.126	-0.001
-233.815	431.519	0.085	-0.184
-232.800	-86.356	-0.234	-0.072
-231.786	202.026	0.150	-0.230
-230.771	332.593	0.070	0.134
-229.757	-200.000	0.005	-0.048
-228.742	201.118	-0.146	0.224
-227.727	9.286	0.110	-0.083
-226.713	800.000	0.055	0.172
-225.698	-200.000	-0.001	-0.383
-224.684	-200.000	0.012	-0.222
-223.669	-5.131	-0.181	-0.124
-222.655	-71.014	-0.115	-0.043
-221.640	668.242	0.028	-0.072
-220.625	-200.000	-0.019	-0.145
-219.611	582.341	0.109	-0.265
-218.596	420.999	0.069	0.147
-217.582	606.513	0.084	0.208
-216.567	-83.737	-0.226	0.072
-215.552	-146.626	0.192	-0.017
-214.538	-79.541	0.269	0.090
-213.523	-200.000	0.003	0.254
-212.509	-55.862	0.302	0.134
-211.494	-61.104	0.198	0.083
-210.479	-200.000	-0.008	-0.191
-209.465	800.000	0.080	0.283
-208.450	261.743	0.102	0.176
-207.436	-106.411	0.253	0.056
-206.421	112.235	-0.054	0.065
-205.406	93.689	0.193	-0.217
-204.392	82.291	0.114	-0.123
-203.377	-200.000	-0.000	-0.018
-202.363	-176.548	0.345	0.009
-201.348	85.993	-0.094	-0.103
-200.333	-200.000	0.044	-0.211
-199.319	-200.000	-0.033	0.424
-198.304	-60.552	0.324	0.137
-197.290	687.348	-0.069	-0.180
-196.275	10.665	-0.259	-0.196
-195.260	366.106	-0.071	-0.142
-194.246	800.000	0.031	0.090
-193.231	76.617	0.151	-0.159
-192.217	-5.687	-0.173	0.118
-191.202	40.875	-0.132	-0.119
-190.187	116.088	0.160	-0.194
-189.173	261.019	-0.185	0.317
-188.158	77.064	-0.197	-0.208
-187.144	-118.123	0.439	0.078
-186.129	-200.000	0.033	0.292
-185.114	-135.679	0.294	-0.035
-184.100	186.535	-0.213	0.315
-183.085	708.358	0.048	0.125
-182.071	120.336	0.283	0.349
-181.056	-55.756	0.091	-0.040
-180.042	-18.476	0.150	0.093
-179.027	96.602	0.093	-0.105
-178.012	72.955	-0.074	-0.077
-176.998	-98.262	0.164	0.042
-175.983	-120.939	0.297	-0.050
-174.969	231.862	0.134	0.218
-173.954	7.322	-0.173	-0.128
-172.939	-200.000	-0.003	0.019
-171.925	68.656	-0.198	0.201
-170.910	91.445	0.046	-0.051
-169.896	-63.549	-0.354	-0.144
-168.881	-29.895	0.019	0.011
-167.866	800.000	-0.025	0.081
-166.852	-200.000	0.018	-0.083
-165.837	29.630	0.285	-0.240
-164.823	-200.000	-0.016	-0.163
-163.808	20.103	-0.287	0.230
-162.793	485.062	-0.088	-0.198
-161.779	20.725	-0.294	-0.236
-160.764	76.804	-0.166	0.174
-159.750	-200.000	0.011	0.338
-158.735	-200.000	0.092	0.571
-157.720	-41.656	0.068	0.035
-156.706	-168.748	0.175	0.007
-155.691	-136.825	-0.431	-0.049
-154.677	219.218	0.070	0.111
-153.662	-157.140	0.141	-0.009
-152.647	-24.772	0.179	-0.106
-151.633	-41.979	0.147	-0.075
-150.618	44.648	0.226	-0.206
-149.604	-180.147	0.244	0.005
-148.589	72.768	-0.162	-0.168
-147.574	474.887	0.103	-0.230
-146.560	207.668	-0.146	-0.227
-145.545	-67.202	0.183	0.071
-144.531	-66.517	0.121	0.047
-143.516	-123.081	-0.270	0.043
-142.502	-10.933	0.082	0.054
-141.487	-97.405	-0.125	-0.032
-140.472	800.000	-0.017	-0.045
-139.458	-128.881	-0.087	0.012
-138.443	377.387	-0.030	0.061
-137.429	-84.535	-0.162	-0.051
-136.414	-200.000	-0.001	0.110
-135.399	-200.000	-0.009	0.118
-134.385	-200.000	0.228	0.000
-133.370	380.690	0.113	-0.229
-132.356	78.985	-0.132	0.140
-131.341	-43.080	0.273	0.137
-130.326	151.018	0.109	0.147
-129.312	-155.900	0.163	-0.010
-128.297	459.342	-0.101	-0.224
-127.283	800.000	0.032	0.098
-126.268	-23.618	0.100	0.059
-125.253	500.821	-0.142	0.324
-124.239	-196.473	0.339	0.002
-123.224	-78.581	0.352	-0.119
-122.210	-74.444	-0.284	-0.101
-121.195	-154.242	0.263	-0.018
-120.180	-200.000	0.029	0.407
-119.166	-135.970	-0.373	0.043
-118.151	283.881	-0.085	0.152
-117.137	-43.804	0.183	-0.091
-116.122	-11.866	-0.210	-0.136
-115.107	-5.503	0.191	-0.130
-114.093	-200.000	-0.020	-0.140
-113.078	12.761	-0.053	-0.040
-112.064	-21.146	0.327	0.198
-111.049	-59.741	-0.132	-0.056
-110.034	-75.442	0.089	-0.032
-109.020	228.079	-0.035	-0.057
-108.005	-144.086	0.170	0.016
-106.991	-90.882	-0.247	-0.070
-105.976	23.848	-0.166	-0.136
-104.962	800.000	0.016	-0.043
-103.947	132.270	-0.103	-0.131
-102.932	62.969	-0.139	0.138
-101.918	-140.220	0.269	-0.028
-100.903	81.328	0.120	0.128
-99.889	-190.938	0.324	-0.003
-98.874	-121.527	-0.238	-0.039
-97.859	106.538	0.046	-0.054
-96.845	-200.000	-0.062	-0.420
-95.830	-200.000	0.009	0.116
-94.816	-31.225	0.198	-0.110
-93.801	60.876	0.139	-0.137
-92.786	-200.000	0.002	-0.011
-91.772	-137.981	0.144	0.016
-90.757	84.908	-0.193	0.209
-89.743	171.577	-0.029	0.042
-88.728	103.057	0.020	-0.023
-87.713	113.111	0.050	-0.060
-86.699	-168.271	-0.227	-0.009
-85.684	65.427	0.056	0.056
-84.670	-200.000	-0.100	-0.523
-83.655	5.286	0.232	-0.169
-82.640	131.921	0.099	0.127
-81.626	-99.193	-0.256	-0.064
-80.611	-146.841	-0.232	-0.020
-79.597	-25.735	0.437	0.255
-78.582	-155.233	-0.266	-0.017
-77.567	-137.822	0.008	-0.001
-76.553	6.371	0.217	0.160
-75.538	-200.000	-0.004	0.157
-74.524	-200.000	-0.040	0.185
-73.509	-42.018	0.234	0.118
-72.494	-4.435	-0.105	-0.072
-71.480	448.194	-0.014	-0.030
-70.465	77.438	0.152	0.160
-69.451	-86.726	0.325	-0.098
-68.436	-6.434	-0.239	-0.161
-67.422	-111.421	0.407	0.082
-66.407	3.228	-0.267	0.192
-65.392	-14.311	-0.255	0.163
-64.378	130.706	0.141	-0.179
-63.363	-89.493	-0.411	0.119
-62.349	130.287	0.106	0.134
-61.334	119.849	-0.878	-1.075
-60.319	140.490	0.586	0.764
-59.305	367.448	-0.511	-1.019
-58.290	123.487	0.644	0.798
-57.276	800.000	0.539	1.493
-56.261	-200.000	103.104	594.537
-55.246	544.204	1437.295	3391.129
-54.232	182.677	2635.318	3841.471
-53.217	106.369	2317.567	2714.071
-52.203	37.222	2069.403	1810.958
-51.188	32.270	1983.072	1690.937
-50.173	30.820	1964.795	1662.350
-49.159	46.485	2018.913	1850.338
-48.144	47.326	2036.465	1873.976
-47.130	32.923	1996.370	1707.913
-46.115	30.582	1985.592	1677.536
-45.100	30.569	1982.536	1674.765
-44.086	30.556	1980.384	1672.767
-43.071	30.451	1977.729	1669.512
-42.057	30.473	1975.741	1667.963
-41.042	30.479	1973.704	1666.234
-40.027	30.553	1971.599	1665.051
-39.013	30.613	1969.768	1663.975
-37.998	30.563	1967.831	1661.831
-36.984	30.585	1965.957	1660.374
-35.969	30.456	1964.516	1657.945
-34.954	30.539	1962.393	1656.824
-33.940	30.651	1960.711	1656.334
-32.925	30.600	1959.116	1654.468
-31.911	30.577	1957.740	1653.034
-30.896	30.666	1955.393	1651.782
-29.881	30.655	1954.986	1651.274
-28.867	30.655	1953.383	1649.858
-27.852	30.728	1951.165	1648.559
-26.838	30.731	1949.385	1647.016
-25.823	30.697	1947.482	1645.045
-24.809	30.664	1946.208	1643.616
-23.794	30.702	1944.237	1642.217
-22.779	30.674	1942.507	1640.442
-21.765	30.696	1940.679	1639.033
-20.750	30.633	1939.456	1637.375
-19.736	30.574	1937.963	1635.535
-18.721	30.644	1935.874	1634.319
-17.706	30.674	1934.573	1633.423
-16.692	30.627	1933.384	1631.937
-15.677	30.613	1931.118	1629.836
-14.663	30.659	1929.847	1629.107
-13.648	30.660	1928.560	1627.962
-12.633	30.649	1927.461	1626.877
-11.619	30.615	1925.657	1624.987
-10.604	30.671	1923.994	1624.013
-9.590	30.652	1923.072	1623.003
-8.575	30.635	1921.637	1621.580
-7.560	30.584	1920.407	1620.035
-6.546	30.601	1919.097	1619.009
-5.531	30.555	1917.992	1617.613
-4.517	30.638	1916.703	1617.182
-3.502	30.630	1915.370	1615.930
-2.487	30.609	1914.685	1615.103
-1.473	30.689	1912.997	1614.307
-0.458	30.721	1908.392	1610.634
0.556	29.771	1889.416	1583.386
1.571	25.719	1870.287	1532.791
2.586	21.853	1893.224	1518.061
3.600	20.805	1929.299	1537.605
4.615	20.331	1923.582	1528.731
5.629	15.973	1824.073	1413.048
6.644	8.550	1709.777	1265.828
7.659	5.301	1675.746	1215.285
8.673	5.057	1672.578	1210.987
9.688	4.934	1671.197	1208.925
10.702	4.954	1669.977	1208.093
11.717	4.935	1666.727	1205.486
12.731	5.303	1665.943	1207.658
13.746	10.324	1677.509	1254.926
14.761	16.954	1692.029	1317.334
15.775	19.138	1694.110	1335.808
16.790	18.408	1691.415	1327.904
17.804	17.368	1688.140	1317.170
18.819	16.358	1685.130	1306.889
19.834	15.702	1682.638	1299.770
20.848	15.361	1681.154	1295.881
21.863	15.182	1679.606	1293.188
22.877	14.999	1677.585	1290.106
23.892	14.735	1676.357	1287.012
24.907	14.625	1675.351	1285.281
25.921	14.636	1674.631	1284.698
26.936	14.643	1673.617	1283.860
27.950	14.714	1672.149	1283.171
28.965	14.625	1672.386	1282.551
29.980	14.778	1671.345	1282.819
30.994	14.938	1669.546	1282.546
32.009	14.980	1668.512	1281.964
33.023	14.978	1668.067	1281.493
34.038	15.097	1666.788	1281.306
35.053	14.924	1665.982	1279.251
36.067	14.892	1664.625	1277.850
37.082	14.837	1663.660	1276.578
38.096	14.799	1662.434	1275.236
39.111	14.813	1661.421	1274.451
40.126	14.917	1661.279	1275.017
41.140	14.813	1660.070	1273.191
42.155	14.735	1658.769	1271.482
43.169	14.672	1657.009	1269.542
44.184	14.625	1655.512	1267.928
45.199	14.477	1654.889	1266.215
46.213	14.574	1653.392	1265.689
47.228	14.571	1652.392	1264.791
48.242	14.757	1651.181	1265.164
49.257	14.759	1650.072	1264.213
50.271	14.757	1649.165	1263.392
51.286	14.841	1647.167	1262.383
52.301	14.804	1646.301	1261.328
53.315	14.776	1644.843	1259.890
54.330	14.739	1643.692	1258.619
55.344	14.706	1641.836	1256.835
56.359	14.650	1640.181	1255.039
57.374	14.593	1639.911	1254.292
58.388	14.710	1637.989	1253.593
59.403	14.621	1636.768	1251.878
60.417	14.523	1636.087	1250.514
61.432	14.499	1634.755	1249.204
62.447	14.606	1633.447	1248.893
63.461	14.598	1631.782	1247.448
64.476	14.458	1631.332	1245.948
65.490	14.514	1629.829	1245.111
66.505	14.409	1628.808	1243.439
67.520	14.423	1628.161	1242.939
68.534	14.499	1626.669	1242.255
69.549	14.520	1625.888	1241.701
70.563	14.601	1624.122	1240.849
71.578	14.546	1623.014	1239.480
72.593	14.506	1622.470	1238.659
73.607	14.372	1621.552	1236.853
74.622	14.420	1620.179	1236.055
75.636	14.373	1619.599	1235.153
76.651	14.418	1618.480	1234.527
77.666	14.430	1617.475	1233.740
78.680	14.428	1616.647	1232.981
79.695	14.542	1615.638	1232.944
80.709	14.523	1614.692	1231.972
81.724	14.572	1614.006	1231.705
82.739	14.589	1613.428	1231.276
83.753	14.625	1612.125	1230.444
84.768	14.649	1611.520	1230.045
85.782	14.651	1610.621	1229.266
86.797	14.822	1610.101	1230.018
87.812	14.860	1608.867	1229.248
88.826	14.720	1607.518	1227.083
89.841	14.788	1605.850	1226.194
90.855	14.771	1605.283	1225.534
91.870	14.758	1604.479	1224.711
92.884	14.820	1603.515	1224.326
93.899	14.811	1602.296	1223.222
94.914	14.796	1600.994	1222.009
95.928	14.941	1599.933	1222.148
96.943	14.894	1598.785	1220.822
97.957	14.931	1596.560	1219.284
98.972	14.819	1595.589	1217.616
99.987	14.890	1593.825	1216.679
101.001	14.822	1592.286	1214.905
102.016	14.753	1591.155	1213.430
103.030	14.871	1589.028	1212.557
104.045	14.837	1588.828	1212.053
105.060	14.879	1586.364	1210.373
106.074	14.777	1585.378	1208.775
107.089	14.723	1583.805	1207.077
108.103	14.616	1581.968	1204.797
109.118	14.585	1580.711	1203.513
110.133	14.562	1579.233	1202.111
111.147	14.481	1577.964	1200.456
112.162	14.555	1576.476	1199.748
113.176	14.567	1575.110	1198.687
114.191	14.634	1573.848	1198.103
115.206	14.648	1572.598	1197.146
116.220	14.631	1570.994	1195.700
117.235	14.612	1569.824	1194.567
118.249	14.625	1568.588	1193.613
119.264	14.594	1567.272	1192.287
120.279	14.523	1566.325	1190.949
121.293	14.534	1564.466	1189.510
122.308	14.461	1563.270	1187.978
123.322	14.522	1561.544	1186.997
124.337	14.582	1559.519	1185.778
125.352	14.542	1558.770	1184.815
126.366	14.454	1557.595	1183.193
127.381	14.534	1556.369	1182.725
128.395	14.536	1554.962	1181.570
129.410	14.542	1554.055	1180.815
130.424	14.506	1552.509	1179.281
131.439	14.589	1551.178	1178.754
132.454	14.559	1550.212	1177.704
133.468	14.562	1548.650	1176.432
134.483	14.605	1547.582	1175.821
135.497	14.590	1546.268	1174.615
136.512	14.583	1545.013	1173.510
137.527	14.663	1543.255	1172.632
138.541	14.657	1542.285	1171.747
139.556	14.760	1540.246	1170.815
140.570	14.677	1539.501	1169.566
141.585	14.800	1537.729	1168.975
142.600	14.815	1537.292	1168.647
143.614	14.888	1536.040	1168.101
144.629	14.944	1535.020	1167.614
145.643	15.025	1532.991	1166.528
146.658	14.951	1532.119	1165.250
147.673	14.944	1530.457	1163.831
148.687	14.895	1528.967	1162.253
149.702	14.873	1527.213	1160.668
150.716	14.823	1525.571	1158.971
151.731	14.754	1524.656	1157.691
152.746	14.811	1523.035	1156.753
153.760	14.868	1521.661	1155.999
154.775	14.814	1520.434	1154.598
155.789	14.880	1518.963	1153.828
156.804	14.974	1517.623	1153.363
157.819	14.904	1517.171	1152.433
158.833	14.860	1516.212	1151.299
159.848	14.969	1515.037	1151.051
160.862	15.045	1513.839	1150.563
161.877	15.116	1512.412	1149.866
162.892	14.961	1511.056	1147.669
163.906	14.892	1509.854	1146.183
164.921	14.880	1508.513	1144.984
165.935	14.908	1507.691	1144.445
166.950	14.961	1506.953	1144.148
167.964	14.894	1505.621	1142.577
168.979	15.007	1504.653	1142.514
169.994	15.014	1503.602	1141.664
171.008	14.989	1502.627	1140.648
172.023	15.040	1501.707	1140.199
173.037	15.038	1500.448	1139.127
174.052	15.110	1499.161	1138.538
175.067	15.097	1498.264	1137.672
176.081	15.117	1496.760	1136.565
177.096	15.024	1495.789	1135.092
178.110	14.943	1494.341	1133.348
179.125	14.948	1493.293	1132.483
180.140	15.004	1492.249	1131.974
181.154	15.088	1491.199	1131.644
182.169	15.116	1490.054	1130.862
183.183	15.076	1488.775	1129.520
184.198	15.134	1487.837	1129.101
185.213	15.287	1486.318	1128.879
186.227	15.235	1485.312	1127.662
187.242	15.267	1484.340	1127.046
188.256	15.259	1483.330	1126.119
189.271	15.270	1482.371	1125.372
190.286	15.412	1481.307	1125.411
191.300	15.359	1480.258	1124.160
192.315	15.160	1478.841	1121.656
193.329	15.023	1477.623	1119.713
194.344	14.870	1476.582	1117.807
195.359	15.087	1475.265	1118.159
196.373	15.079	1474.544	1117.457
197.388	15.126	1473.789	1117.102
198.402	15.257	1472.278	1116.731
199.417	15.393	1470.808	1116.419
200.432	15.430	1470.630	1116.431
201.446	15.508	1469.523	1116.013
202.461	15.472	1468.663	1115.021
203.475	15.580	1466.969	1114.350
204.490	15.540	1466.607	1113.714
205.504	15.619	1465.571	1113.352
206.519	15.515	1463.865	1111.272
207.534	15.464	1462.995	1110.172
208.548	15.501	1461.573	1109.242
209.563	15.533	1460.265	1108.362
210.577	15.520	1459.589	1107.662
211.592	15.491	1458.750	1106.738
212.607	15.480	1458.364	1106.276
213.621	15.532	1457.802	1106.093
214.636	15.667	1456.428	1105.842
215.650	15.574	1455.477	1104.409
216.665	15.612	1454.585	1103.885
217.680	15.635	1453.815	1103.355
218.694	15.690	1452.871	1102.901
219.709	15.702	1452.096	1102.292
220.723	15.714	1451.346	1101.705
221.738	15.775	1450.149	1101.097
222.753	15.668	1449.643	1099.914
223.767	15.700	1448.179	1098.917
224.782	15.718	1447.773	1098.632
225.796	15.829	1446.216	1098.073
226.811	15.816	1445.768	1097.556
227.826	15.805	1445.179	1096.940
228.840	15.750	1443.823	1095.455
229.855	15.811	1443.163	1095.253
230.869	15.788	1442.104	1094.199
231.884	15.766	1440.765	1092.946
232.899	15.768	1439.750	1092.095
233.913	15.798	1438.703	1091.395
234.928	15.693	1437.493	1089.700
235.942	15.623	1436.344	1088.283
236.957	15.693	1435.169	1087.748
237.972	15.624	1433.990	1086.310
238.986	15.679	1433.077	1085.876
240.001	15.725	1432.416	1085.580
241.015	15.705	1431.279	1084.495
242.030	15.700	1430.321	1083.635
243.045	15.769	1429.339	1083.240
244.059	15.889	1428.234	1083.082
245.074	15.987	1426.769	1082.507
246.088	16.027	1426.228	1082.251
247.103	15.905	1426.203	1081.354
248.117	15.997	1425.155	1081.054
249.132	16.093	1423.833	1080.575
250.147	16.148	1423.442	1080.531
251.161	16.228	1423.207	1080.773
252.176	16.202	1422.542	1080.004
253.190	16.335	1421.548	1080.002
254.205	16.323	1421.250	1079.605
255.220	16.393	1420.177	1079.143
256.234	16.337	1419.367	1078.076
257.249	16.423	1418.564	1077.915
258.263	16.445	1417.646	1077.265
259.278	16.408	1416.529	1076.085
260.293	16.452	1415.785	1075.707
261.307	16.361	1414.842	1074.313
262.322	16.453	1414.472	1074.526
263.336	16.496	1413.301	1073.812
264.351	16.530	1412.389	1073.238
265.366	16.602	1411.203	1072.701
266.380	16.564	1410.717	1071.997
267.395	16.529	1409.993	1071.130
268.409	16.550	1408.913	1070.349
269.424	16.579	1407.426	1069.305
270.439	16.569	1406.659	1068.564
271.453	16.507	1405.548	1067.235
272.468	16.593	1404.760	1067.083
273.482	16.508	1404.146	1065.988
274.497	16.438	1403.396	1064.883
275.512	16.515	1402.293	1064.437
276.526	16.531	1401.536	1063.868
277.541	16.449	1400.778	1062.686
278.555	16.561	1399.334	1062.198
279.570	16.585	1398.389	1061.537
280.585	16.546	1398.254	1061.098
281.599	16.690	1397.125	1061.048
282.614	16.729	1396.244	1060.527
283.628	16.698	1394.962	1059.267
284.643	16.706	1393.521	1058.131
285.657	16.649	1393.085	1057.350
286.672	16.699	1392.088	1056.812
287.687	16.701	1391.125	1055.996
288.701	16.654	1389.690	1054.521
289.716	16.741	1389.070	1054.500
290.730	16.733	1388.458	1053.892
291.745	16.745	1387.785	1053.364
292.760	16.716	1387.338	1052.749
293.774	16.798	1385.909	1052.082
294.789	16.859	1384.808	1051.533
295.803	16.834	1384.117	1050.758
296.818	16.801	1383.578	1050.051
297.833	16.763	1382.413	1048.837
298.847	16.796	1381.452	1048.221
299.862	16.812	1380.182	1047.267
300.876	16.790	1379.314	1046.379
301.891	16.908	1378.101	1046.090
302.906	16.812	1377.805	1045.181
303.920	16.954	1376.759	1045.171
304.935	16.992	1376.446	1045.075
305.949	17.101	1375.434	1044.889
306.964	17.014	1374.808	1043.780
307.979	17.113	1373.815	1043.544
308.993	17.084	1372.808	1042.508
310.008	17.081	1371.480	1041.391
311.022	17.069	1370.833	1040.733
312.037	17.035	1369.898	1039.721
313.052	17.101	1368.877	1039.263
314.066	17.141	1367.832	1038.619
315.081	17.126	1366.430	1037.374
316.095	17.106	1365.111	1036.159
317.110	17.031	1364.017	1034.776
318.125	16.974	1363.172	1033.698
319.139	17.063	1362.609	1033.723
320.154	17.050	1361.665	1032.832
321.168	17.035	1360.435	1031.719
322.183	17.096	1359.524	1031.306
323.197	16.919	1359.080	1029.807
324.212	17.035	1358.082	1029.660
325.227	17.078	1357.383	1029.301
326.241	17.043	1356.254	1028.140
327.256	17.157	1355.339	1028.048
328.270	17.182	1354.776	1027.680
329.285	17.179	1353.618	1026.693
330.300	17.151	1352.682	1025.721
331.314	17.034	1352.134	1024.511
332.329	17.103	1351.128	1024.072
333.343	17.238	1349.960	1023.910
334.358	17.182	1349.330	1023.004
335.373	17.187	1348.570	1022.368
336.387	17.280	1347.677	1022.158
337.402	17.287	1346.783	1021.435
338.416	17.359	1346.316	1021.423
339.431	17.333	1346.177	1021.071
340.446	17.325	1345.281	1020.249
341.460	17.529	1343.829	1020.282
342.475	17.485	1343.134	1019.400
343.489	17.521	1342.328	1018.914
344.504	17.615	1341.224	1018.551
345.519	17.638	1340.743	1018.232
346.533	17.680	1339.445	1017.405
347.548	17.684	1338.550	1016.660
348.562	17.751	1337.610	1016.258
349.577	17.742	1337.201	1015.803
350.592	17.664	1336.217	1014.501
351.606	17.576	1335.276	1013.171
352.621	17.530	1334.368	1012.117
353.635	17.555	1333.399	1011.446
354.650	17.594	1332.228	1010.695
355.665	17.484	1331.717	1009.568
356.679	17.621	1330.239	1009.172
357.694	17.532	1328.958	1007.584
358.708	17.610	1328.136	1007.329
359.723	17.706	1327.179	1007.085
360.738	17.703	1325.962	1006.051
361.752	17.699	1324.818	1005.070
362.767	17.749	1323.968	1004.632
363.781	17.744	1323.064	1003.829
364.796	17.702	1322.621	1003.157
365.810	17.716	1321.828	1002.547
366.825	17.930	1320.892	1003.010
367.840	17.804	1320.580	1001.943
368.854	17.986	1319.716	1002.267
369.869	18.070	1319.131	1002.225
370.883	18.018	1318.758	1001.549
371.898	18.064	1317.866	1001.050
372.913	17.967	1316.600	999.435
373.927	17.986	1315.628	998.721
374.942	18.021	1314.986	998.348
375.956	18.029	1314.571	997.993
376.971	18.038	1313.576	997.202
377.986	18.077	1312.775	996.728
379.000	18.026	1311.977	995.741
380.015	18.188	1310.587	995.538
381.029	18.239	1310.186	995.444
382.044	18.254	1309.659	995.044
383.059	18.273	1309.065	994.612
384.073	18.226	1308.092	993.515
385.088	18.245	1307.566	993.135
386.102	18.310	1306.934	992.947
387.117	18.260	1306.335	992.113
388.132	18.240	1305.547	991.307
389.146	18.086	1304.746	989.725
390.161	18.088	1303.817	988.944
391.175	18.126	1302.932	988.404
392.190	18.121	1302.213	987.741
393.205	18.118	1301.332	986.969
394.219	18.318	1300.167	987.148
395.234	18.320	1298.962	986.160
396.248	18.337	1297.664	985.184
397.263	18.165	1296.875	983.510
398.278	18.211	1295.083	982.325
399.292	18.154	1293.975	981.072
400.307	18.169	1292.955	980.300
401.321	18.153	1291.580	979.079
402.336	18.211	1290.652	978.619
403.350	18.193	1289.895	977.859
404.365	18.263	1289.234	977.667
405.380	18.287	1288.064	976.834
406.394	18.339	1287.079	976.293
407.409	18.278	1286.631	975.521
408.423	18.345	1286.084	975.404
409.438	18.394	1285.461	975.119
410.453	18.446	1285.036	975.007
411.467	18.585	1283.815	974.788
412.482	18.571	1283.527	974.401
413.496	18.549	1283.014	973.800
414.511	18.671	1281.903	973.562
415.526	18.757	1280.834	973.155
416.540	18.810	1280.207	972.892
417.555	18.648	1280.034	971.755
418.569	18.773	1279.294	971.817
419.584	18.720	1278.795	971.052
420.599	18.739	1277.767	970.289
421.613	140.644	1432.005	1794.179
422.628	135.394	1454.459	1794.284
