DTS Sentinel unit serial number:	SN413079Multiplexer serial number:	ORYXHardware model number:	OX4-SRSoftware version number:	ORYX F/W v4.00 Oryx Data Collector v3.7.2.0data status	okinstallation	princeton_trtdifferential loss correction	single-endedforward channel	channel 4reverse channel	N/Adate	2019/09/14time	09:33:34forward acquisition time	60.00reverse acquisition time	0.00gamma	496.2192k internal	0.2305k external	0.2305temperature offset calibration	1.0133default loss term (dB/km)	0.3790temperature slope calibration	1.0000multiplexer offset coefficient	1.0000multiplexer slope coefficient	1.0000fibre end	0.00T internal ref (°C)	31.61T ext. ref 1 (°C)	3.87T ext. ref 2 (°C)	29.68length (m)	temperature (°C)	Stokes	anti-Stokes-747.200	-50.388	0.065	-0.031
-746.185	800.000	0.035	0.147
-745.171	-200.000	0.002	0.053
-744.156	-200.000	-0.013	0.488
-743.142	-200.000	0.011	-0.446
-742.127	-200.000	-0.090	0.475
-741.112	-200.000	0.000	-0.080
-740.098	-127.271	0.174	-0.026
-739.083	-115.242	-0.311	0.060
-738.069	-200.000	0.047	0.551
-737.054	91.237	-0.194	0.222
-736.039	800.000	-0.095	-0.269
-735.025	-98.152	0.485	0.127
-734.010	-141.947	-0.249	0.025
-732.996	-22.197	-0.609	-0.376
-731.981	-95.676	-0.209	0.057
-730.966	-113.109	0.187	-0.038
-729.952	36.866	-0.109	0.098
-728.937	-80.357	-0.257	-0.087
-727.923	215.326	0.076	-0.122
-726.908	-159.990	-0.274	-0.015
-725.894	-200.000	0.004	0.045
-724.879	-52.501	-0.403	-0.190
-723.864	-32.750	0.173	0.098
-722.850	-162.587	-0.082	-0.004
-721.835	-22.504	0.238	0.147
-720.821	-45.604	-0.131	0.066
-719.806	-8.228	-0.256	0.175
-718.791	-200.000	0.035	0.204
-717.777	-37.727	0.290	0.157
-716.762	84.398	0.205	-0.228
-715.748	-37.567	0.225	0.122
-714.733	-89.679	-0.297	-0.088
-713.718	-169.386	0.305	-0.011
-712.704	-33.846	-0.085	-0.048
-711.689	59.487	-0.230	-0.230
-710.675	-114.153	0.090	-0.018
-709.660	800.000	0.030	0.107
-708.645	180.095	-0.129	-0.193
-707.631	-55.192	-0.202	0.092
-706.616	-33.379	-0.172	-0.096
-705.602	698.563	-0.110	-0.294
-704.587	112.307	0.324	-0.399
-703.572	-2.606	0.302	0.215
-702.558	-200.000	-0.019	-0.154
-701.543	514.609	-0.083	0.196
-700.529	800.000	-0.093	0.279
-699.514	-200.000	-0.058	-0.281
-698.499	-114.944	0.280	-0.054
-697.485	157.811	-0.076	-0.107
-696.470	44.922	0.384	0.359
-695.456	363.129	-0.065	-0.132
-694.441	776.049	0.063	-0.176
-693.426	-139.081	-0.500	-0.055
-692.412	-168.455	-0.207	0.008
-691.397	11.494	-0.289	0.225
-690.383	-200.000	0.043	-0.218
-689.368	-130.405	-0.353	0.049
-688.354	-118.779	-0.444	-0.079
-687.339	-168.547	-0.190	-0.007
-686.324	-200.000	0.020	0.263
-685.310	107.639	-0.103	-0.125
-684.295	800.000	0.057	-0.209
-683.281	-99.656	0.099	0.025
-682.266	-72.529	-0.393	0.148
-681.251	660.392	-0.092	0.239
-680.237	90.462	0.184	0.209
-679.222	-140.572	0.257	-0.027
-678.208	175.270	-0.105	0.155
-677.193	18.894	0.167	0.136
-676.178	-88.269	0.104	-0.032
-675.164	-200.000	-0.062	-0.280
-674.149	28.370	-0.215	-0.184
-673.135	-39.474	0.208	-0.111
-672.120	-78.840	0.048	0.016
-671.105	-200.000	0.005	0.026
-670.091	-147.051	0.121	0.011
-669.076	-200.000	0.021	0.160
-668.062	-38.443	0.115	-0.062
-667.047	-22.463	0.141	0.086
-666.032	740.782	0.178	0.486
-665.018	-79.204	-0.207	0.071
-664.003	-42.200	-0.410	-0.213
-662.989	99.279	0.135	-0.159
-661.974	-2.749	0.093	-0.066
-660.959	-144.900	0.199	0.018
-659.945	-174.031	-0.173	-0.005
-658.930	-200.000	0.022	-0.152
-657.916	759.495	-0.025	-0.068
-656.901	-15.429	0.155	-0.100
-655.886	3.059	-0.184	-0.136
-654.872	114.264	0.170	-0.210
-653.857	182.640	-0.175	-0.262
-652.843	419.389	0.124	-0.269
-651.828	-175.194	0.197	0.006
-650.814	720.286	0.061	0.165
-649.799	-141.250	0.359	0.037
-648.784	-200.000	-0.024	-0.123
-647.770	19.986	-0.273	0.223
-646.755	-73.551	-0.213	0.079
-645.741	314.993	0.055	-0.106
-644.726	52.265	-0.144	0.139
-643.711	-124.053	-0.073	-0.012
-642.697	-127.402	-0.255	0.038
-641.682	-7.941	-0.164	-0.112
-640.668	-28.991	0.113	-0.066
-639.653	800.000	0.052	0.158
-638.638	-57.283	0.361	0.161
-637.624	617.293	-0.082	0.209
-636.609	-164.324	0.135	0.006
-635.595	-101.683	0.066	-0.016
-634.580	-200.000	0.003	-0.170
-633.565	800.000	0.114	0.443
-632.551	13.152	0.033	-0.026
-631.536	-200.000	-0.013	0.081
-630.522	41.240	0.199	-0.183
-629.507	346.252	0.065	-0.130
-628.492	-200.000	-0.040	0.257
-627.478	7.521	-0.065	-0.049
-626.463	590.454	-0.122	0.305
-625.449	-75.486	-0.348	0.125
-624.434	-87.039	-0.085	0.026
-623.419	-62.111	-0.139	0.059
-622.405	-200.000	0.011	-0.169
-621.390	-75.195	-0.074	-0.027
-620.376	104.589	-0.070	-0.084
-619.361	74.925	-0.254	-0.270
-618.346	-200.000	-0.005	-0.131
-617.332	91.954	-0.118	0.135
-616.317	-88.950	-0.232	0.070
-615.303	-68.055	-0.080	0.031
-614.288	229.846	-0.094	0.156
-613.273	11.724	-0.105	0.081
-612.259	-90.111	-0.326	-0.096
-611.244	93.017	0.039	-0.045
-610.230	-200.000	-0.047	-0.388
-609.215	-56.378	0.152	0.068
-608.201	82.563	-0.103	-0.113
-607.186	800.000	-0.019	0.053
-606.171	76.863	0.047	0.051
-605.157	-175.263	0.477	-0.013
-604.142	-63.271	0.210	0.088
-603.128	-139.456	-0.349	0.038
-602.113	622.137	-0.119	-0.304
-601.098	-91.515	-0.110	-0.032
-600.084	-16.883	-0.163	0.104
-599.069	-200.000	0.009	0.128
-598.055	-48.513	-0.095	0.046
-597.040	-116.058	0.151	0.028
-596.025	-187.356	-0.438	0.006
-595.011	-150.736	0.085	0.007
-593.996	191.588	0.179	0.274
-592.982	-149.019	0.095	0.008
-591.967	201.613	0.124	0.194
-590.952	-109.104	-0.245	0.053
-589.938	333.819	-0.115	-0.225
-588.923	261.866	0.156	0.273
-587.909	-120.080	-0.117	0.020
-586.894	39.519	-0.140	0.127
-585.879	-47.939	-0.168	0.082
-584.865	-62.798	-0.263	0.110
-583.850	-200.000	0.023	-0.233
-582.836	-200.000	0.008	0.374
-581.821	113.794	-0.250	-0.308
-580.806	257.994	0.196	-0.342
-579.792	147.285	-0.320	-0.436
-578.777	123.659	0.131	-0.166
-577.763	-66.200	-0.089	-0.036
-576.748	800.000	-0.101	-0.338
-575.733	53.215	0.082	0.079
-574.719	-200.000	0.008	0.073
-573.704	12.174	-0.131	0.102
-572.690	-70.170	0.258	-0.099
-571.675	208.476	-0.092	0.145
-570.661	31.570	-0.243	0.211
-569.646	623.398	0.135	-0.344
-568.631	-200.000	0.039	-0.212
-567.617	67.621	0.235	0.243
-566.602	-200.000	0.008	-0.043
-565.588	494.993	0.125	-0.290
-564.573	51.319	-0.230	-0.221
-563.558	-118.460	0.481	0.086
-562.544	181.712	0.082	-0.123
-561.529	-200.000	-0.026	-0.256
-560.515	-200.000	-0.023	0.416
-559.500	-200.000	-0.002	0.052
-558.485	90.650	-0.050	-0.056
-557.471	165.372	0.269	-0.384
-556.456	-8.786	-0.092	-0.062
-555.442	51.641	0.219	-0.210
-554.427	96.129	0.045	-0.052
-553.412	-200.000	0.030	-0.171
-552.398	724.017	0.039	-0.106
-551.383	5.472	-0.531	0.396
-550.369	16.844	0.174	-0.139
-549.354	60.990	0.065	-0.065
-548.339	259.136	-0.038	0.066
-547.325	-144.603	0.373	0.035
-546.310	-200.000	0.015	-0.326
-545.296	549.708	-0.035	-0.086
-544.281	-123.422	-0.464	-0.075
-543.266	-158.939	0.267	0.015
-542.252	-200.000	-0.006	0.156
-541.237	-117.613	0.249	0.045
-540.223	68.913	0.216	-0.225
-539.208	-200.000	0.036	-0.212
-538.193	350.701	-0.014	-0.027
-537.179	-200.000	-0.001	0.125
-536.164	-49.132	-0.065	0.031
-535.150	757.475	0.053	-0.144
-534.135	-200.000	-0.047	-0.363
-533.121	800.000	0.099	0.335
-532.106	23.925	0.330	0.275
-531.091	-20.932	-0.226	0.140
-530.077	129.882	-0.007	-0.009
-529.062	-47.389	0.184	-0.090
-528.048	-70.819	0.261	-0.099
-527.033	31.790	0.230	-0.200
-526.018	-200.000	-0.016	-0.495
-525.004	365.528	-0.100	0.204
-523.989	147.883	-0.070	0.095
-522.975	-200.000	-0.028	-0.392
-521.960	557.984	-0.068	0.166
-520.945	-84.125	0.111	-0.036
-519.931	800.000	0.054	0.162
-518.916	-200.000	-0.028	0.228
-517.902	137.923	0.037	-0.049
-516.887	-43.870	0.233	0.118
-515.872	255.552	-0.088	-0.153
-514.858	-200.000	0.079	-0.397
-513.843	254.240	0.183	-0.315
-512.829	-200.000	-0.014	0.405
-511.814	512.809	0.163	0.384
-510.799	657.340	-0.061	-0.158
-509.785	12.086	-0.166	0.129
-508.770	213.315	0.069	-0.111
-507.756	-137.141	0.132	-0.015
-506.741	-184.343	-0.194	-0.003
-505.726	-138.437	-0.168	0.019
-504.712	-200.000	-0.012	-0.392
-503.697	-200.000	0.004	0.124
-502.683	-12.586	-0.106	0.070
-501.668	-103.319	-0.136	0.032
-500.653	-30.181	0.074	0.042
-499.639	-200.000	0.022	-0.135
-498.624	84.385	-0.037	-0.040
-497.610	-44.848	0.258	0.130
-496.595	-59.513	0.220	-0.095
-495.581	452.724	-0.124	-0.277
-494.566	-161.601	0.454	0.023
-493.551	-200.000	-0.009	0.104
-492.537	800.000	0.046	-0.177
-491.522	30.727	-0.051	0.044
-490.508	569.301	-0.118	0.290
-489.493	80.186	0.242	-0.262
-488.478	-6.507	-0.215	0.148
-487.464	800.000	-0.044	0.137
-486.449	-200.000	-0.010	-0.122
-485.435	-187.833	-0.318	0.004
-484.420	-148.012	-0.277	0.023
-483.405	-101.192	-0.255	0.063
-482.391	-39.600	-0.397	-0.210
-481.376	241.419	-0.076	0.128
-480.362	552.156	-0.049	-0.120
-479.347	-200.000	-0.035	0.193
-478.332	92.919	-0.026	0.029
-477.318	800.000	0.068	-0.218
-476.303	-16.249	-0.160	0.103
-475.289	-200.000	-0.061	-0.364
-474.274	756.000	0.099	-0.269
-473.259	11.546	0.136	0.105
-472.245	-200.000	0.008	-0.234
-471.230	-200.000	0.041	-0.300
-470.216	-200.000	-0.005	-0.026
-469.201	-80.104	-0.115	-0.039
-468.186	15.387	-0.244	-0.193
-467.172	-39.496	0.349	0.184
-466.157	303.800	-0.179	0.333
-465.143	-60.522	-0.113	0.048
-464.128	-132.855	0.317	-0.041
-463.113	-200.000	-0.052	-0.271
-462.099	3.634	-0.233	0.171
-461.084	800.000	-0.107	0.389
-460.070	800.000	-0.019	-0.075
-459.055	159.846	0.193	0.271
-458.040	19.370	0.107	0.087
-457.026	800.000	0.015	0.064
-456.011	140.074	-0.181	0.240
-454.997	56.360	0.100	-0.098
-453.982	145.211	-0.127	0.170
-452.968	581.336	0.027	-0.066
-451.953	49.980	0.129	-0.122
-450.938	-14.723	0.198	-0.128
-449.924	76.227	0.253	0.270
-448.909	-136.972	-0.053	0.006
-447.895	82.784	-0.131	0.144
-446.880	-148.457	-0.217	-0.018
-445.865	329.861	0.136	0.264
-444.851	-87.416	0.151	-0.046
-443.836	-37.625	0.058	0.031
-442.822	-146.354	-0.144	-0.013
-441.807	17.959	-0.232	-0.186
-440.792	-200.000	-0.020	-0.236
-439.778	-110.644	0.267	0.056
-438.763	125.283	-0.075	0.095
-437.749	291.245	0.066	0.121
-436.734	-81.800	-0.102	0.034
-435.719	-66.560	-0.294	0.117
-434.705	14.669	0.182	0.143
-433.690	15.661	0.118	-0.093
-432.676	-30.023	-0.080	0.046
-431.661	-89.699	0.191	-0.056
-430.646	312.666	-0.048	-0.091
-429.632	-200.000	-0.023	-0.209
-428.617	39.688	-0.162	0.146
-427.603	-61.768	0.220	-0.093
-426.588	-200.000	0.005	-0.160
-425.573	139.178	0.147	0.195
-424.559	647.311	0.055	-0.141
-423.544	85.520	0.171	-0.189
-422.530	-1.424	0.246	-0.174
-421.515	800.000	-0.086	0.327
-420.500	-75.558	0.330	-0.118
-419.486	-101.924	0.212	0.051
-418.471	281.489	-0.201	0.362
-417.457	-111.850	0.208	-0.042
-416.442	7.809	-0.235	0.177
-415.428	296.135	0.028	0.051
-414.413	-11.609	0.337	0.222
-413.398	-200.000	-0.075	0.350
-412.384	-183.446	-0.092	-0.002
-411.369	124.630	-0.061	-0.077
-410.355	51.281	0.033	0.031
-409.340	-200.000	0.004	-0.175
-408.325	-99.192	-0.162	0.041
-407.311	-101.037	0.144	0.035
-406.296	-103.414	0.078	-0.018
-405.282	-137.291	-0.452	0.052
-404.267	701.270	0.089	0.234
-403.252	-32.028	-0.142	-0.080
-402.238	-11.482	0.157	0.104
-401.223	-172.349	-0.284	0.009
-400.209	800.000	0.096	-0.324
-399.194	-59.431	-0.464	0.200
-398.179	-41.517	0.372	0.192
-397.165	582.729	0.086	-0.211
-396.150	-114.644	0.078	-0.015
-395.136	410.622	-0.124	-0.263
-394.121	791.248	-0.107	0.296
-393.106	-109.050	0.154	0.033
-392.092	735.140	-0.099	-0.266
-391.077	-102.297	-0.342	0.082
-390.063	-41.011	0.162	-0.084
-389.048	800.000	-0.044	-0.177
-388.033	-112.712	-0.095	0.019
-387.019	356.329	0.140	-0.280
-386.004	-23.168	-0.314	-0.190
-384.990	800.000	-0.054	0.154
-383.975	-119.376	-0.199	-0.035
-382.960	-35.996	-0.207	0.113
-381.946	49.434	0.147	0.139
-380.931	-61.098	0.074	0.031
-379.917	-130.204	-0.116	-0.016
-378.902	-105.449	-0.093	0.021
-377.888	-91.258	0.047	-0.014
-376.873	-114.963	-0.321	0.061
-375.858	-200.000	0.002	0.036
-374.844	-61.705	0.318	-0.134
-373.829	-200.000	0.000	-0.080
-372.815	-61.188	0.359	-0.152
-371.800	-15.169	-0.338	-0.217
-370.785	578.816	-0.055	-0.136
-369.771	54.947	-0.291	-0.282
-368.756	800.000	0.052	0.228
-367.742	267.063	-0.228	0.400
-366.727	18.659	0.039	0.031
-365.712	-93.046	-0.521	0.146
-364.698	480.245	0.119	0.271
-363.683	526.703	-0.074	0.174
-362.669	-70.900	-0.269	0.102
-361.654	210.048	-0.213	0.335
-360.639	280.874	0.183	0.329
-359.625	-200.000	-0.007	0.030
-358.610	-200.000	0.016	-0.133
-357.596	384.596	-0.065	-0.133
-356.581	-125.371	0.078	-0.012
-355.566	800.000	-0.030	-0.087
-354.552	62.829	-0.145	0.146
-353.537	290.924	-0.051	0.093
-352.523	800.000	0.074	0.272
-351.508	-83.733	-0.356	-0.114
-350.493	-156.063	-0.111	0.007
-349.479	-200.000	0.005	-0.273
-348.464	800.000	-0.031	0.110
-347.450	-85.960	-0.254	0.079
-346.435	461.263	0.097	0.216
-345.420	436.497	0.095	-0.207
-344.406	-92.684	0.208	-0.059
-343.391	800.000	-0.058	0.193
-342.377	-89.181	0.102	0.030
-341.362	-40.351	0.021	0.011
-340.348	-15.355	-0.220	-0.141
-339.333	-163.962	0.339	-0.016
-338.318	81.339	0.231	0.250
-337.304	94.037	0.037	0.042
-336.289	-92.939	-0.453	0.127
-335.275	800.000	-0.033	0.124
-334.260	-18.459	0.166	-0.104
-333.245	800.000	-0.086	0.278
-332.231	22.609	-0.197	0.161
-331.216	-115.294	0.245	0.046
-330.202	796.857	0.081	0.224
-329.187	-71.062	0.079	-0.030
-328.172	-136.327	-0.127	0.015
-327.158	-165.449	0.223	-0.010
-326.143	45.255	0.227	0.210
-325.129	139.092	0.087	-0.115
-324.114	-200.000	0.033	0.296
-323.099	-145.450	-0.275	0.025
-322.085	-200.000	-0.057	0.298
-321.070	230.502	0.094	-0.154
-320.056	-1.502	-0.275	0.194
-319.041	404.534	0.076	-0.160
-318.026	-30.538	-0.213	0.121
-317.012	-6.689	0.442	-0.301
-315.997	3.895	0.160	-0.117
-314.983	84.184	0.022	0.024
-313.968	144.793	-0.193	-0.258
-312.953	-200.000	-0.021	-0.209
-311.939	129.329	0.140	-0.179
-310.924	-166.938	-0.093	-0.004
-309.910	18.214	-0.104	0.083
-308.895	-39.606	0.249	-0.131
-307.880	-1.166	0.085	-0.060
-306.866	-7.103	-0.086	0.059
-305.851	-10.549	-0.119	0.079
-304.837	477.731	0.023	-0.053
-303.822	-200.000	0.008	-0.129
-302.807	21.188	0.053	-0.043
-301.793	-54.639	-0.377	-0.171
-300.778	-200.000	0.180	-0.001
-299.764	-200.000	-0.095	-0.415
-298.749	-200.000	-0.038	-0.197
-297.735	498.507	0.069	0.160
-296.720	701.354	-0.099	-0.261
-295.705	-2.391	-0.147	-0.103
-294.691	-36.777	-0.176	-0.095
-293.676	13.588	0.298	0.231
-292.662	-158.622	0.301	-0.017
-291.647	-49.256	-0.477	0.228
-290.632	44.141	0.149	0.137
-289.618	-121.235	0.347	0.058
-288.603	-56.681	0.181	-0.080
-287.589	-200.000	0.032	0.147
-286.574	-200.000	-0.029	0.247
-285.559	383.686	0.164	0.337
-284.545	-200.000	-0.009	0.303
-283.530	342.426	0.166	0.324
-282.516	61.844	0.186	0.185
-281.501	800.000	-0.078	-0.327
-280.486	600.251	0.107	-0.266
-279.472	-156.847	-0.187	0.011
-278.457	-200.000	0.068	0.303
-277.443	-79.080	0.137	0.047
-276.428	48.145	0.171	0.160
-275.413	507.832	0.142	-0.329
-274.399	-153.865	-0.036	-0.002
-273.384	16.598	-0.243	0.192
-272.370	-200.000	-0.009	-0.441
-271.355	-200.000	-0.008	-0.116
-270.340	293.944	0.132	-0.241
-269.326	-200.000	0.022	0.222
-268.311	182.094	0.137	0.201
-267.297	-200.000	0.001	-0.013
-266.282	261.491	-0.182	0.316
-265.267	496.913	-0.022	0.051
-264.253	-38.630	0.231	0.122
-263.238	40.623	-0.153	-0.137
-262.224	-121.570	-0.049	-0.008
-261.209	800.000	0.042	-0.154
-260.195	-80.611	-0.053	0.018
-259.180	-118.123	0.465	-0.083
-258.165	-61.380	0.391	0.164
-257.151	16.244	0.131	-0.103
-256.136	16.707	0.219	0.173
-255.122	-70.261	-0.103	-0.039
-254.107	87.840	0.122	0.135
-253.092	-134.864	0.202	-0.024
-252.078	-115.446	-0.309	-0.058
-251.063	-109.054	0.267	0.057
-250.049	460.692	-0.023	0.052
-249.034	-116.734	0.304	-0.056
-248.019	-200.000	0.087	0.521
-247.005	-200.000	-0.015	0.288
-245.990	-200.000	-0.011	-0.287
-244.976	653.341	0.089	-0.229
-243.961	162.511	-0.049	-0.069
-242.946	27.210	-0.179	0.150
-241.932	221.172	0.037	0.059
-240.917	-200.000	-0.009	-0.187
-239.903	-63.231	0.186	-0.077
-238.888	197.985	0.058	0.089
-237.873	-25.452	0.115	-0.068
-236.859	271.420	0.119	0.209
-235.844	-36.154	0.557	0.300
-234.830	-141.689	-0.206	-0.021
-233.815	-109.127	-0.115	0.024
-232.800	-17.156	-0.199	-0.125
-231.786	51.825	0.231	-0.219
-230.771	-32.495	0.336	-0.187
-229.757	153.598	-0.251	-0.343
-228.742	-200.000	-0.015	-0.276
-227.727	-193.023	-0.286	0.003
-226.713	-200.000	0.006	0.185
-225.698	129.369	-0.070	0.089
-224.684	507.211	-0.099	-0.228
-223.669	281.851	-0.114	-0.203
-222.655	747.825	0.038	-0.102
-221.640	800.000	-0.048	0.195
-220.625	39.210	-0.077	-0.068
-219.611	800.000	-0.020	0.059
-218.596	8.480	0.239	0.180
-217.582	-143.335	-0.440	-0.042
-216.567	95.902	-0.113	0.129
-215.552	-200.000	-0.046	0.278
-214.538	-40.689	0.198	-0.102
-213.523	268.771	-0.155	-0.270
-212.509	-67.963	0.226	0.088
-211.494	233.029	0.066	-0.108
-210.479	-159.180	0.519	-0.029
-209.465	127.295	0.289	-0.365
-208.450	800.000	-0.062	0.190
-207.436	578.277	-0.042	0.103
-206.421	2.687	0.108	-0.078
-205.406	-72.903	0.139	-0.051
-204.392	-200.000	0.004	-0.117
-203.377	-185.294	0.142	-0.002
-202.363	-200.000	0.072	0.352
-201.348	42.510	-0.132	0.120
-200.333	-200.000	0.060	-0.457
-199.319	-50.197	-0.164	-0.077
-198.304	800.000	0.054	-0.196
-197.290	254.271	0.037	-0.063
-196.275	349.363	0.133	-0.262
-195.260	-200.000	-0.021	-0.181
-194.246	22.598	0.064	0.053
-193.231	-103.750	0.100	-0.023
-192.217	421.974	-0.054	-0.115
-191.202	-78.917	0.383	0.130
-190.187	-95.244	0.476	0.128
-189.173	800.000	-0.120	0.393
-188.158	686.675	0.034	-0.087
-187.144	-200.000	-0.015	0.094
-186.129	-56.860	-0.357	0.157
-185.114	-151.725	-0.105	-0.008
-184.100	360.512	0.046	0.092
-183.085	-58.792	0.301	-0.130
-182.071	101.161	-0.149	-0.172
-181.056	353.310	-0.155	-0.307
-180.042	9.908	-0.054	-0.041
-179.027	-126.969	-0.162	0.024
-178.012	-200.000	0.008	0.260
-176.998	137.679	0.052	-0.068
-175.983	144.319	-0.268	-0.356
-174.969	-59.609	-0.139	-0.059
-173.954	371.236	0.119	-0.240
-172.939	79.317	-0.178	0.190
-171.925	-139.103	-0.140	0.015
-170.910	148.289	-0.269	-0.361
-169.896	-53.396	-0.314	0.143
-168.881	316.175	0.258	0.484
-167.866	-42.290	-0.090	-0.046
-166.852	-134.692	-0.110	-0.013
-165.837	46.782	0.032	0.030
-164.823	147.478	-0.111	-0.148
-163.808	-21.049	-0.133	0.081
-162.793	31.915	-0.279	0.239
-161.779	3.955	0.158	0.115
-160.764	-152.983	0.278	-0.020
-159.750	-62.647	0.077	-0.032
-158.735	800.000	-0.026	-0.106
-157.720	-200.000	-0.016	0.118
-156.706	-43.303	-0.047	-0.024
-155.691	800.000	-0.077	0.287
-154.677	-8.877	0.344	-0.229
-153.662	12.323	0.202	-0.155
-152.647	-186.149	-0.079	-0.001
-151.633	-78.488	-0.223	-0.076
-150.618	-135.349	0.293	0.035
-149.604	79.825	-0.029	-0.031
-148.589	-200.000	-0.029	0.138
-147.574	-200.000	0.024	-0.142
-146.560	356.249	0.135	0.267
-145.545	185.913	-0.280	0.414
-144.531	800.000	0.035	0.139
-143.516	-16.588	-0.159	0.100
-142.502	-200.000	-0.027	0.123
-141.487	336.239	-0.162	-0.313
-140.472	-88.440	-0.280	-0.083
-139.458	-52.068	0.087	0.040
-138.443	-200.000	-0.021	-0.294
-137.429	-7.405	0.260	-0.175
-136.414	-200.000	0.034	0.163
-135.399	-161.886	0.102	-0.005
-134.385	-139.698	0.230	0.024
-133.370	-91.446	-0.092	0.026
-132.356	65.062	-0.230	-0.231
-131.341	-200.000	0.019	0.115
-130.326	222.250	-0.115	-0.184
-129.312	-130.356	-0.547	0.074
-128.297	261.822	-0.086	0.148
-127.283	-110.174	-0.176	0.037
-126.268	158.126	-0.153	0.211
-125.253	-96.463	-0.187	0.049
-124.239	195.588	-0.238	0.360
-123.224	-12.948	0.170	0.110
-122.210	-40.665	0.109	0.056
-121.195	-200.000	-0.043	-0.313
-120.180	-28.463	0.180	-0.103
-119.166	74.309	-0.238	0.249
-118.151	234.361	-0.081	-0.132
-117.137	54.688	0.285	-0.273
-116.122	372.507	-0.093	0.187
-115.107	-83.525	-0.214	-0.068
-114.093	-167.401	0.241	-0.010
-113.078	328.386	0.110	0.209
-112.064	-16.534	0.118	-0.074
-111.049	-200.000	-0.002	0.063
-110.034	-36.914	-0.034	0.018
-109.020	-200.000	-0.008	-0.057
-108.005	320.949	0.081	0.153
-106.991	8.038	0.207	0.154
-105.976	458.100	-0.178	0.392
-104.962	-200.000	-0.036	0.182
-103.947	-200.000	-0.024	-0.211
-102.932	-12.534	0.109	0.070
-101.918	-77.494	-0.291	-0.100
-100.903	-65.033	-0.289	-0.116
-99.889	62.578	-0.216	-0.214
-98.874	-42.091	0.397	-0.202
-97.859	20.144	-0.027	-0.021
-96.845	179.304	-0.150	0.218
-95.830	36.620	-0.367	-0.322
-94.816	4.614	-0.251	-0.183
-93.801	-95.272	0.161	-0.043
-92.786	124.153	0.052	-0.064
-91.772	-38.944	-0.073	-0.038
-90.757	38.322	-0.200	0.177
-89.743	695.061	0.097	0.253
-88.728	65.101	-0.136	-0.136
-87.713	-119.128	-0.169	0.029
-86.699	-124.353	-0.431	-0.067
-85.684	-94.349	-0.143	-0.039
-84.670	-78.889	0.059	-0.020
-83.655	-59.500	-0.092	-0.039
-82.640	-200.000	0.007	0.297
-81.626	-32.943	-0.137	-0.076
-80.611	42.016	-0.037	-0.033
-79.597	800.000	-0.055	0.226
-78.582	252.950	-0.070	-0.119
-77.567	15.192	-0.176	-0.136
-76.553	-162.240	0.339	0.017
-75.538	8.370	-0.346	0.258
-74.524	350.089	-0.074	-0.145
-73.509	-145.660	0.301	0.027
-72.494	-37.930	0.094	0.049
-71.480	800.000	0.066	0.220
-70.465	71.923	0.010	-0.010
-69.451	-103.773	-0.275	0.064
-68.436	-18.170	-0.050	0.031
-67.422	-200.000	0.001	0.179
-66.407	800.000	-0.085	0.254
-65.392	1.007	0.162	0.115
-64.378	-200.000	0.017	0.351
-63.363	-57.211	-0.200	-0.087
-62.349	13.991	0.166	0.128
-61.334	54.328	-1.029	-0.982
-60.319	800.000	0.120	0.517
-59.305	357.883	-0.423	-0.836
-58.290	25.145	0.704	0.579
-57.276	800.000	0.540	1.759
-56.261	-200.000	96.088	581.779
-55.246	597.811	1413.664	3471.673
-54.232	183.538	2620.997	3838.742
-53.217	108.287	2343.194	2769.600
-52.203	38.359	2097.016	1850.823
-51.188	33.298	2011.294	1729.010
-50.173	31.648	1992.968	1698.231
-49.159	46.828	2042.334	1879.964
-48.144	48.048	2059.243	1906.647
-47.130	33.930	2022.062	1743.789
-46.115	31.688	2011.013	1713.705
-45.100	31.522	2008.736	1710.178
-44.086	31.478	2006.586	1707.881
-43.071	31.410	2003.370	1704.454
-42.057	31.326	2001.290	1701.849
-41.042	31.434	1999.395	1701.152
-40.027	31.497	1996.720	1699.383
-39.013	31.514	1995.313	1698.270
-37.998	31.493	1993.533	1696.499
-36.984	31.541	1991.486	1695.130
-35.969	31.581	1989.272	1693.540
-34.954	31.480	1988.174	1691.622
-33.940	31.603	1986.461	1691.209
-32.925	31.597	1984.649	1689.546
-31.911	31.612	1983.018	1688.224
-30.896	31.673	1981.494	1687.407
-29.881	31.743	1979.582	1686.346
-28.867	31.638	1978.102	1684.068
-27.852	31.609	1976.686	1682.537
-26.838	31.706	1974.300	1681.314
-25.823	31.595	1973.071	1679.206
-24.809	31.608	1971.475	1677.894
-23.794	31.607	1969.222	1675.899
-22.779	31.606	1967.089	1674.008
-21.765	31.549	1965.899	1672.420
-20.750	31.624	1963.829	1671.264
-19.736	31.552	1962.410	1669.348
-18.721	31.685	1960.466	1668.812
-17.706	31.646	1959.198	1667.317
-16.692	31.563	1957.833	1665.354
-15.677	31.588	1955.918	1663.880
-14.663	31.728	1953.870	1663.314
-13.648	31.621	1953.378	1661.879
-12.633	31.652	1952.043	1660.951
-11.619	31.668	1950.919	1660.074
-10.604	31.641	1949.126	1658.242
-9.590	31.631	1947.624	1656.811
-8.575	31.631	1946.131	1655.472
-7.560	31.695	1944.729	1654.787
-6.546	31.598	1943.918	1653.172
-5.531	31.689	1942.269	1652.501
-4.517	31.695	1941.012	1651.422
-3.502	31.618	1940.348	1650.112
-2.487	31.670	1939.014	1649.373
-1.473	31.661	1937.909	1648.291
-0.458	31.845	1933.545	1646.127
0.556	33.266	1914.882	1623.459
1.571	29.851	1898.119	1580.002
2.586	26.332	1921.994	1569.247
3.600	25.470	1958.989	1591.677
4.615	24.360	1952.756	1576.671
5.629	18.255	1846.151	1439.284
6.644	8.533	1724.726	1267.760
7.659	4.176	1687.727	1206.588
8.673	3.863	1684.620	1201.830
9.688	3.862	1682.967	1200.540
10.702	3.863	1682.074	1199.803
11.717	3.871	1678.675	1197.334
12.731	4.353	1678.755	1201.011
13.746	10.636	1693.739	1260.558
14.761	18.762	1710.552	1336.448
15.775	21.102	1713.047	1356.500
16.790	20.350	1710.774	1348.735
17.804	19.459	1706.841	1338.609
18.819	18.397	1704.168	1328.159
19.834	17.732	1701.978	1321.187
20.848	17.634	1699.826	1318.643
21.863	17.405	1698.600	1315.801
22.877	17.065	1697.570	1312.262
23.892	16.895	1695.857	1309.508
24.907	16.867	1695.075	1308.568
25.921	16.792	1694.221	1307.215
26.936	16.822	1692.867	1306.285
27.950	16.766	1692.304	1305.308
28.965	16.841	1691.526	1305.172
29.980	17.036	1690.260	1305.575
30.994	17.025	1689.800	1305.024
32.009	17.104	1688.164	1304.247
33.023	17.144	1688.020	1304.330
34.038	17.141	1687.010	1303.413
35.053	17.065	1685.686	1301.694
36.067	16.990	1684.896	1300.392
37.082	17.057	1682.918	1299.260
38.096	16.995	1682.334	1298.223
39.111	17.125	1680.994	1298.065
40.126	17.057	1681.214	1297.603
41.140	17.011	1680.223	1296.371
42.155	16.897	1678.319	1293.914
43.169	16.820	1676.803	1292.044
44.184	16.695	1675.347	1289.856
45.199	16.724	1673.956	1288.890
46.213	16.678	1673.265	1287.893
47.228	16.724	1672.059	1287.202
48.242	16.822	1670.870	1286.920
49.257	16.968	1669.695	1287.010
50.271	16.858	1668.557	1285.183
51.286	16.916	1667.124	1284.402
52.301	16.854	1665.824	1282.825
53.315	16.895	1664.788	1282.220
54.330	16.852	1662.816	1280.261
55.344	16.802	1661.387	1278.674
56.359	16.693	1659.695	1276.436
57.374	16.728	1658.804	1275.901
58.388	16.760	1657.487	1275.015
59.403	16.638	1656.219	1273.012
60.417	16.597	1655.024	1271.670
61.432	16.609	1653.932	1270.810
62.447	16.564	1652.519	1269.274
63.461	16.677	1651.454	1269.191
64.476	16.614	1649.853	1267.374
65.490	16.475	1649.630	1266.054
66.505	16.491	1648.103	1264.884
67.520	16.518	1647.102	1264.210
68.534	16.543	1645.831	1263.310
69.549	16.510	1645.190	1262.459
70.563	16.513	1643.928	1261.400
71.578	16.615	1642.478	1260.936
72.593	16.570	1641.111	1259.443
73.607	16.485	1640.073	1257.900
74.622	16.396	1639.034	1256.328
75.636	16.346	1638.918	1255.756
76.651	16.530	1637.306	1255.779
77.666	16.481	1636.881	1254.980
78.680	16.482	1636.260	1254.400
79.695	16.460	1635.123	1253.249
80.709	16.506	1634.192	1252.768
81.724	16.592	1633.330	1252.634
82.739	16.663	1632.400	1252.332
83.753	16.729	1631.438	1251.974
84.768	16.781	1630.894	1251.831
85.782	16.939	1630.188	1252.340
86.797	17.085	1629.287	1252.617
87.812	16.970	1628.735	1251.236
88.826	16.983	1626.689	1249.650
89.841	16.922	1626.041	1248.593
90.855	16.928	1625.475	1248.093
91.870	16.983	1623.947	1247.211
92.884	16.951	1623.412	1246.453
93.899	17.041	1622.163	1246.045
94.914	17.100	1621.041	1245.503
95.928	17.061	1620.001	1244.310
96.943	17.161	1618.460	1243.753
97.957	17.198	1616.725	1242.575
98.972	16.927	1615.670	1239.677
99.987	16.951	1613.902	1238.385
101.001	17.060	1612.174	1237.743
102.016	16.985	1610.774	1236.015
103.030	17.028	1609.015	1234.864
104.045	17.083	1608.341	1234.641
105.060	16.997	1606.833	1232.751
106.074	16.945	1605.676	1231.373
107.089	16.864	1603.785	1229.226
108.103	16.676	1602.012	1226.401
109.118	16.537	1600.738	1224.307
110.133	16.595	1599.092	1223.363
111.147	16.584	1597.832	1222.205
112.162	16.579	1596.350	1220.932
113.176	16.620	1595.007	1220.093
114.191	16.662	1593.461	1219.106
115.206	16.714	1592.526	1218.651
116.220	16.678	1591.176	1217.256
117.235	16.682	1589.794	1216.119
118.249	16.658	1588.658	1214.972
119.264	16.767	1586.887	1214.288
120.279	16.759	1585.083	1212.746
121.293	16.579	1584.583	1210.965
122.308	16.522	1582.493	1208.852
123.322	16.547	1580.682	1207.540
124.337	16.511	1579.249	1206.085
125.352	16.518	1577.553	1204.733
126.366	16.454	1577.128	1203.841
127.381	16.362	1576.083	1202.287
128.395	16.447	1574.929	1201.902
129.410	16.527	1573.542	1201.305
130.424	16.554	1572.144	1200.323
131.439	16.618	1570.733	1199.595
132.454	16.629	1569.758	1198.825
133.468	16.669	1568.162	1197.781
134.483	16.725	1566.827	1197.047
135.497	16.730	1565.444	1195.926
136.512	16.738	1563.943	1194.725
137.527	16.751	1563.043	1194.023
138.541	16.758	1561.625	1192.884
139.556	16.784	1560.043	1191.757
140.570	16.809	1558.998	1191.024
141.585	16.951	1557.128	1190.487
142.600	17.006	1556.228	1190.080
143.614	17.023	1555.055	1189.203
144.629	17.077	1554.260	1188.864
145.643	17.220	1553.256	1188.989
146.658	17.192	1551.446	1187.304
147.673	17.094	1549.677	1185.163
148.687	17.019	1547.831	1183.121
149.702	16.989	1546.366	1181.690
150.716	16.900	1545.099	1180.000
151.731	16.762	1543.989	1178.084
152.746	16.777	1542.491	1176.943
153.760	16.954	1540.578	1176.604
154.775	16.924	1539.687	1175.618
155.789	17.020	1538.271	1175.092
156.804	17.014	1537.480	1174.347
157.819	17.036	1536.077	1173.318
158.833	17.030	1534.695	1172.118
159.848	17.044	1534.214	1171.748
160.862	17.244	1532.508	1171.718
161.877	17.254	1531.707	1171.069
162.892	17.149	1530.499	1169.321
163.906	16.949	1529.052	1166.735
164.921	16.947	1527.228	1165.231
165.935	16.880	1526.519	1164.127
166.950	16.978	1525.208	1163.695
167.964	17.027	1524.163	1163.129
168.979	17.048	1523.183	1162.422
169.994	17.037	1522.373	1161.628
171.008	16.952	1521.582	1160.339
172.023	17.056	1519.804	1159.592
173.037	17.125	1518.913	1159.281
174.052	17.160	1517.876	1158.626
175.067	17.237	1517.227	1158.550
176.081	17.184	1515.447	1156.730
177.096	17.045	1513.855	1154.464
178.110	16.987	1512.836	1153.193
179.125	17.030	1512.103	1152.824
180.140	17.156	1510.582	1152.417
181.154	17.092	1509.917	1151.372
182.169	17.102	1508.912	1150.574
183.183	17.202	1507.521	1150.086
184.198	17.229	1507.051	1149.812
185.213	17.299	1505.857	1149.270
186.227	17.286	1504.694	1148.196
187.242	17.376	1504.145	1148.278
188.256	17.323	1502.718	1146.733
189.271	17.323	1501.785	1145.919
190.286	17.504	1500.386	1145.969
191.300	17.421	1499.585	1144.698
192.315	17.196	1497.825	1141.739
193.329	17.031	1496.081	1139.204
194.344	16.996	1495.027	1138.065
195.359	17.086	1494.457	1138.135
196.373	17.059	1493.398	1137.042
197.388	17.232	1492.244	1137.220
198.402	17.274	1491.620	1136.925
199.417	17.412	1490.601	1136.970
200.432	17.484	1489.726	1136.685
201.446	17.596	1488.586	1136.462
202.461	17.694	1487.292	1136.028
203.475	17.669	1486.071	1134.825
204.490	17.686	1485.937	1134.738
205.504	17.681	1484.193	1133.270
206.519	17.603	1482.804	1131.596
207.534	17.534	1481.675	1130.171
208.548	17.500	1480.320	1128.817
209.563	17.561	1479.602	1128.573
210.577	17.559	1478.592	1127.687
211.592	17.475	1478.082	1126.645
212.607	17.551	1477.152	1126.336
213.621	17.652	1476.919	1126.730
214.636	17.716	1475.669	1126.097
215.650	17.671	1474.491	1124.801
216.665	17.567	1473.811	1123.495
217.680	17.680	1473.065	1123.574
218.694	17.794	1472.253	1123.606
219.709	17.839	1471.389	1123.143
220.723	17.876	1470.074	1122.282
221.738	17.796	1469.329	1121.088
222.753	17.813	1468.397	1120.392
223.767	17.745	1467.516	1119.170
224.782	17.705	1466.566	1118.087
225.796	17.886	1465.341	1118.242
226.811	17.886	1465.073	1117.938
227.826	18.039	1464.162	1118.143
228.840	17.941	1463.176	1116.654
229.855	17.809	1461.978	1114.775
230.869	17.832	1460.866	1113.982
231.884	17.800	1460.039	1113.041
232.899	17.800	1458.646	1111.881
233.913	17.799	1457.366	1110.801
234.928	17.776	1456.012	1109.522
235.942	17.663	1455.072	1107.971
236.957	17.667	1453.871	1106.984
237.972	17.710	1452.620	1106.213
238.986	17.673	1451.883	1105.313
240.001	17.638	1451.253	1104.509
241.015	17.683	1450.312	1103.989
242.030	17.718	1448.853	1103.005
243.045	17.780	1447.748	1102.465
244.059	17.847	1446.734	1102.032
245.074	17.864	1445.881	1101.393
246.088	17.980	1445.031	1101.396
247.103	18.061	1444.188	1101.177
248.117	18.106	1443.346	1100.726
249.132	18.096	1442.889	1100.218
250.147	18.145	1442.432	1100.088
251.161	18.232	1442.394	1100.518
252.176	18.415	1441.235	1100.719
253.190	18.500	1440.122	1100.311
254.205	18.412	1439.979	1099.542
255.220	18.575	1438.705	1099.516
256.234	18.633	1437.594	1098.940
257.249	18.501	1437.157	1097.663
258.263	18.548	1436.121	1097.079
259.278	18.590	1434.899	1096.318
260.293	18.510	1434.245	1095.209
261.307	18.484	1433.656	1094.493
262.322	18.541	1433.117	1094.353
263.336	18.650	1432.011	1094.107
264.351	18.685	1431.363	1093.734
265.366	18.684	1430.349	1092.858
266.380	18.737	1429.184	1092.209
267.395	18.711	1428.371	1091.328
268.409	18.687	1427.921	1090.731
269.424	18.774	1426.328	1089.971
270.439	18.666	1424.939	1088.126
271.453	18.694	1424.088	1087.563
272.468	18.570	1423.539	1086.262
273.482	18.544	1422.539	1085.233
274.497	18.533	1421.857	1084.550
275.512	18.524	1420.800	1083.589
276.526	18.545	1419.905	1082.944
277.541	18.596	1418.542	1082.130
278.555	18.605	1417.738	1081.479
279.570	18.649	1416.600	1080.794
280.585	18.797	1415.549	1080.824
281.599	18.773	1415.447	1080.498
282.614	18.836	1414.740	1080.260
283.628	18.814	1413.211	1078.861
284.643	18.632	1412.259	1076.897
285.657	18.722	1410.837	1076.278
286.672	18.690	1410.365	1075.625
287.687	18.723	1408.692	1074.462
288.701	18.735	1407.996	1073.911
289.716	18.793	1407.243	1073.601
290.730	18.802	1406.588	1073.063
291.745	18.793	1405.295	1071.924
292.760	18.830	1404.399	1071.377
293.774	18.838	1403.886	1070.942
294.789	18.821	1402.802	1069.916
295.803	18.975	1401.830	1070.039
296.818	18.898	1401.561	1069.256
297.833	18.969	1399.961	1068.382
298.847	18.956	1398.603	1067.172
299.862	18.917	1397.837	1066.255
300.876	18.890	1396.900	1065.277
301.891	18.884	1396.326	1064.704
302.906	18.857	1395.752	1064.007
303.920	19.048	1395.074	1064.579
304.935	19.089	1393.941	1063.874
305.949	19.205	1393.588	1064.226
306.964	19.362	1392.789	1064.490
307.979	19.261	1392.045	1063.203
308.993	19.193	1390.618	1061.603
310.008	19.201	1389.633	1060.806
311.022	19.208	1388.649	1060.001
312.037	19.206	1387.792	1059.244
313.052	19.237	1386.778	1058.565
314.066	19.194	1385.789	1057.456
315.081	19.193	1384.583	1056.434
316.095	19.094	1383.739	1055.086
317.110	18.928	1382.401	1052.962
318.125	18.983	1381.761	1052.716
319.139	18.993	1380.364	1051.619
320.154	18.989	1379.815	1051.083
321.168	19.060	1378.340	1050.300
322.183	19.102	1377.488	1049.813
323.197	19.147	1376.305	1049.094
324.212	19.120	1375.931	1048.551
325.227	19.060	1375.299	1047.610
326.241	19.197	1374.006	1047.365
327.256	19.126	1373.121	1046.170
328.270	19.181	1372.400	1045.861
329.285	19.208	1371.543	1045.281
330.300	19.129	1370.210	1043.693
331.314	19.217	1369.733	1043.770
332.329	19.232	1368.484	1042.814
333.343	19.107	1368.136	1041.699
334.358	19.184	1367.264	1041.413
335.373	19.199	1366.691	1040.975
336.387	19.305	1365.589	1040.682
337.402	19.278	1365.271	1040.187
338.416	19.430	1364.017	1040.052
339.431	19.422	1363.537	1039.547
340.446	19.485	1362.689	1039.188
341.460	19.465	1361.777	1038.277
342.475	19.688	1360.746	1038.744
343.489	19.673	1359.745	1037.795
344.504	19.811	1359.335	1038.219
345.519	19.786	1357.975	1036.937
346.533	19.789	1357.330	1036.377
347.548	19.744	1356.544	1035.409
348.562	19.892	1355.289	1035.248
349.577	19.797	1355.242	1034.553
350.592	19.756	1354.122	1033.362
351.606	19.637	1353.071	1031.754
352.621	19.540	1351.510	1029.898
353.635	19.549	1350.528	1029.110
354.650	19.613	1349.419	1028.559
355.665	19.564	1348.817	1027.715
356.679	19.672	1347.388	1027.179
357.694	19.659	1346.792	1026.556
358.708	19.666	1345.764	1025.722
359.723	19.619	1344.792	1024.613
360.738	19.769	1343.576	1024.480
361.752	19.709	1342.894	1023.514
362.767	19.830	1341.248	1022.890
363.781	19.771	1340.345	1021.760
364.796	19.851	1339.397	1021.419
365.810	19.809	1339.172	1020.906
366.825	19.843	1338.499	1020.506
367.840	19.946	1338.005	1020.648
368.854	20.033	1337.188	1020.448
369.869	20.162	1336.828	1020.840
370.883	20.127	1336.144	1020.020
371.898	20.007	1335.762	1018.931
372.913	20.029	1333.994	1017.623
373.927	20.026	1333.132	1016.859
374.942	19.939	1332.381	1015.687
375.956	20.045	1331.856	1015.818
376.971	20.163	1330.933	1015.713
377.986	20.090	1330.337	1014.742
379.000	20.214	1328.683	1014.113
380.015	20.098	1328.920	1013.527
381.029	20.326	1327.977	1014.049
382.044	20.336	1327.031	1013.299
383.059	20.363	1326.405	1012.889
384.073	20.305	1326.094	1012.221
385.088	20.266	1325.551	1011.494
386.102	20.281	1325.011	1011.080
387.117	20.320	1323.536	1010.087
388.132	20.359	1322.659	1009.560
389.146	20.204	1321.834	1007.939
390.161	20.204	1320.783	1007.047
391.175	20.104	1320.122	1005.876
392.190	20.204	1319.525	1005.910
393.205	20.309	1318.172	1005.400
394.219	20.353	1317.409	1004.981
395.234	20.386	1316.057	1004.050
396.248	20.357	1315.171	1003.122
397.263	20.275	1313.777	1001.493
398.278	20.199	1312.371	999.895
399.292	20.248	1310.775	998.872
400.307	20.248	1310.010	998.200
401.321	20.177	1308.687	996.696
402.336	20.154	1307.740	995.755
403.350	20.272	1306.578	995.463
404.365	20.175	1305.841	994.254
405.380	20.088	1305.190	993.173
406.394	20.243	1304.283	993.279
407.409	20.151	1303.765	992.273
408.423	20.448	1303.197	993.449
409.438	20.502	1302.356	993.030
410.453	20.562	1301.967	992.991
411.467	20.539	1301.194	992.178
412.482	20.615	1300.787	992.218
413.496	20.507	1300.626	991.387
414.511	20.715	1299.255	991.444
415.526	20.900	1297.977	991.429
416.540	20.782	1297.803	990.537
417.555	20.926	1297.117	990.747
418.569	20.767	1296.584	989.349
419.584	20.754	1296.205	988.897
420.599	20.654	1295.186	987.463
421.613	142.172	1433.522	1791.300
422.628	137.427	1453.682	1791.423
