DTS Sentinel unit serial number:	SN413079Multiplexer serial number:	ORYXHardware model number:	OX4-SRSoftware version number:	ORYX F/W v4.00 Oryx Data Collector v3.7.2.0data status	okinstallation	princeton_trtdifferential loss correction	single-endedforward channel	channel 4reverse channel	N/Adate	2019/09/16time	00:33:34forward acquisition time	60.00reverse acquisition time	0.00gamma	496.2192k internal	0.2323k external	0.2323temperature offset calibration	0.9965default loss term (dB/km)	0.3790temperature slope calibration	1.0000multiplexer offset coefficient	1.0000multiplexer slope coefficient	1.0000fibre end	0.00T internal ref (°C)	27.52T ext. ref 1 (°C)	9.59T ext. ref 2 (°C)	21.62length (m)	temperature (°C)	Stokes	anti-Stokes-747.200	41.520	0.202	-0.185
-746.185	28.294	-0.407	0.347
-745.171	-29.216	-0.129	0.075
-744.156	530.023	0.054	0.130
-743.142	161.595	0.111	-0.157
-742.127	-128.417	-0.118	-0.017
-741.112	18.155	0.136	0.110
-740.098	9.955	-0.335	0.257
-739.083	17.257	0.245	0.196
-738.069	-97.122	0.399	-0.105
-737.054	-73.320	0.304	0.112
-736.039	-129.797	-0.219	0.030
-735.025	73.295	0.330	-0.349
-734.010	-43.696	-0.140	-0.071
-732.996	152.061	-0.037	0.051
-731.981	-20.913	-0.238	-0.147
-730.966	18.064	-0.266	0.214
-729.952	16.943	-0.158	-0.126
-728.937	-95.291	0.037	-0.010
-727.923	-179.404	-0.434	-0.010
-726.908	-12.165	0.055	-0.036
-725.894	387.036	0.158	-0.329
-724.879	409.957	0.139	-0.296
-723.864	49.218	-0.111	0.105
-722.850	-200.000	0.004	-0.158
-721.835	-45.787	-0.020	-0.010
-720.821	800.000	0.046	0.140
-719.806	-81.203	-0.322	-0.107
-718.791	-200.000	-0.026	-0.144
-717.777	-200.000	0.014	0.185
-716.762	9.744	0.111	0.085
-715.748	70.916	0.136	-0.143
-714.733	-56.567	-0.136	0.061
-713.718	-79.753	0.135	-0.046
-712.704	60.138	-0.196	-0.196
-711.689	153.256	-0.273	-0.377
-710.675	-152.612	-0.182	0.013
-709.660	-8.807	0.236	0.159
-708.645	-139.287	-0.327	0.035
-707.631	-141.400	0.260	0.027
-706.616	-200.000	0.066	0.298
-705.602	276.844	0.032	-0.058
-704.587	-200.000	0.042	0.303
-703.572	200.166	-0.135	-0.209
-702.558	77.592	0.057	-0.061
-701.543	-162.856	-0.398	-0.020
-700.529	-74.551	-0.104	-0.038
-699.514	97.787	-0.118	-0.137
-698.499	75.645	-0.089	0.094
-697.485	59.854	0.052	0.052
-696.470	467.980	0.108	-0.243
-695.456	-55.163	0.182	0.083
-694.441	197.319	0.178	-0.273
-693.426	-74.048	-0.067	-0.025
-692.412	800.000	-0.139	0.401
-691.397	-200.000	-0.052	0.259
-690.383	-1.499	0.142	0.101
-689.368	109.252	-0.011	0.013
-688.354	-200.000	-0.013	-0.216
-687.339	-167.427	-0.495	-0.020
-686.324	5.842	-0.369	0.275
-685.310	-98.254	-0.194	0.050
-684.295	-87.902	-0.304	-0.092
-683.281	-20.956	-0.157	0.097
-682.266	800.000	-0.049	0.176
-681.251	-200.000	-0.021	-0.101
-680.237	-147.975	-0.246	-0.021
-679.222	-135.354	0.159	0.019
-678.208	-104.327	-0.250	-0.058
-677.193	-115.375	-0.437	-0.083
-676.178	-200.000	0.045	0.199
-675.164	332.951	0.114	0.221
-674.149	-109.960	-0.167	0.035
-673.135	-53.387	-0.270	-0.125
-672.120	-200.000	0.018	0.690
-671.105	800.000	-0.100	0.287
-670.091	-124.507	0.272	0.043
-669.076	73.033	-0.239	0.252
-668.062	-89.397	-0.120	0.036
-667.047	-65.944	-0.255	0.102
-666.032	108.427	0.151	0.181
-665.018	-58.813	0.150	-0.066
-664.003	-99.597	0.086	-0.022
-662.989	61.080	0.175	-0.174
-661.974	-84.939	0.131	-0.041
-660.959	-128.707	-0.347	0.049
-659.945	532.372	-0.053	0.127
-658.930	-27.670	0.049	0.028
-657.916	-200.000	0.005	0.116
-656.901	800.000	-0.040	-0.159
-655.886	800.000	0.083	-0.335
-654.872	-128.570	-0.351	0.050
-653.857	-200.000	-0.067	-0.523
-652.843	-200.000	0.009	0.054
-651.828	59.048	0.131	-0.130
-650.814	374.003	-0.034	0.070
-649.799	265.115	0.182	0.319
-648.784	54.882	-0.085	0.083
-647.770	-8.058	0.087	0.059
-646.755	-62.986	0.244	0.101
-645.741	-52.005	0.153	-0.071
-644.726	17.350	0.198	-0.158
-643.711	-80.759	0.254	-0.085
-642.697	8.403	-0.232	0.175
-641.682	311.541	0.151	-0.284
-640.668	-105.554	0.105	-0.024
-639.653	68.823	-0.234	0.242
-638.638	23.418	0.047	0.039
-637.624	284.880	0.084	-0.153
-636.609	125.229	-0.349	-0.443
-635.595	-103.677	0.079	-0.019
-634.580	-18.019	-0.266	-0.168
-633.565	-52.050	-0.151	0.070
-632.551	-15.660	0.178	-0.114
-631.536	-74.007	0.419	-0.153
-630.522	800.000	-0.010	0.030
-629.507	282.589	0.058	-0.104
-628.492	45.234	-0.253	0.235
-627.478	93.904	0.362	0.413
-626.463	109.012	0.008	-0.009
-625.449	167.997	-0.139	0.199
-624.434	223.436	-0.083	-0.135
-623.419	-171.924	0.399	0.013
-622.405	242.196	0.023	0.039
-621.390	259.352	0.164	-0.285
-620.376	82.463	-0.292	0.319
-619.361	-22.223	0.109	0.067
-618.346	47.876	-0.182	-0.171
-617.332	26.083	0.171	0.144
-616.317	-4.652	-0.059	0.041
-615.303	-200.000	-0.004	0.039
-614.288	151.478	0.120	0.165
-613.273	-46.806	-0.281	-0.138
-612.259	362.004	0.065	0.130
-611.244	149.491	-0.194	0.264
-610.230	-200.000	0.009	0.053
-609.215	-83.511	0.211	-0.068
-608.201	-56.572	0.093	0.041
-607.186	-114.065	-0.164	-0.032
-606.171	62.253	-0.095	-0.095
-605.157	-85.206	-0.086	0.027
-604.142	-200.000	0.029	-0.144
-603.128	-200.000	0.001	0.070
-602.113	153.174	-0.017	0.024
-601.098	800.000	-0.094	-0.349
-600.084	-49.385	0.094	-0.045
-599.069	255.401	-0.089	-0.153
-598.055	43.413	0.212	-0.194
-597.040	-200.000	0.028	-0.276
-596.025	800.000	-0.136	-0.390
-595.011	-28.845	-0.066	-0.038
-593.996	-100.693	-0.179	0.044
-592.982	-86.974	-0.058	-0.018
-591.967	-200.000	0.028	-0.192
-590.952	45.883	0.132	0.122
-589.938	56.554	0.086	-0.084
-588.923	289.583	-0.089	-0.162
-587.909	-104.831	0.147	-0.034
-586.894	509.372	-0.025	0.059
-585.879	-13.296	-0.156	0.102
-584.865	33.733	0.071	-0.062
-583.850	-10.950	-0.271	-0.180
-582.836	-200.000	0.058	-0.285
-581.821	-200.000	0.006	0.121
-580.806	-52.034	-0.140	0.065
-579.792	-200.000	-0.016	-0.299
-578.777	-104.986	-0.204	-0.047
-577.763	-25.665	-0.295	0.175
-576.748	-10.468	0.074	-0.049
-575.733	219.889	0.156	-0.251
-574.719	800.000	-0.092	-0.284
-573.704	-200.000	0.025	0.167
-572.690	-10.189	0.221	-0.147
-571.675	88.189	-0.065	0.072
-570.661	-74.984	0.334	-0.120
-569.646	334.642	-0.181	-0.351
-568.631	-144.881	-0.026	0.002
-567.617	-7.602	0.238	-0.161
-566.602	255.467	0.107	-0.184
-565.588	-13.006	0.284	-0.185
-564.573	392.442	-0.089	-0.185
-563.558	-200.000	0.000	0.031
-562.544	800.000	-0.028	0.092
-561.529	49.383	0.017	0.016
-560.515	-197.221	-0.167	0.001
-559.500	416.630	-0.065	-0.139
-558.485	-200.000	-0.016	-0.455
-557.471	541.822	-0.165	0.394
-556.456	-51.942	0.258	-0.120
-555.442	-79.192	-0.171	0.058
-554.427	-47.194	-0.201	-0.098
-553.412	423.378	-0.037	-0.079
-552.398	85.864	0.082	0.090
-551.383	462.713	-0.114	-0.256
-550.369	-9.219	-0.126	0.085
-549.354	-19.814	-0.203	0.126
-548.339	55.745	0.139	-0.135
-547.325	-39.307	-0.221	0.116
-546.310	-17.701	-0.107	0.067
-545.296	133.333	-0.056	-0.072
-544.281	117.550	-0.107	-0.131
-543.266	38.918	0.150	0.134
-542.252	150.568	-0.247	0.336
-541.237	-39.332	-0.332	-0.175
-540.223	-131.272	-0.089	0.012
-539.208	75.038	-0.151	-0.159
-538.193	203.894	-0.058	0.090
-537.179	200.775	0.050	-0.077
-536.164	-200.000	-0.011	-0.088
-535.150	103.807	0.124	-0.146
-534.135	-163.555	0.134	-0.006
-533.121	-200.000	-0.038	0.201
-532.106	800.000	-0.057	-0.239
-531.091	49.577	-0.103	0.097
-530.077	-153.295	-0.191	-0.013
-529.062	-117.683	0.321	-0.058
-528.048	0.880	-0.262	0.188
-527.033	-99.040	0.355	-0.090
-526.018	500.378	0.072	-0.166
-525.004	148.386	0.239	0.324
-523.989	-152.632	-0.305	-0.022
-522.975	144.787	-0.183	-0.245
-521.960	-58.002	0.125	-0.055
-520.945	-137.387	-0.182	-0.021
-519.931	75.373	-0.314	-0.332
-518.916	229.299	0.303	-0.494
-517.902	-123.640	0.229	0.036
-516.887	800.000	-0.029	0.127
-515.872	481.963	-0.053	-0.121
-514.858	13.444	0.125	0.097
-513.843	-51.873	0.284	0.132
-512.829	286.287	-0.052	0.094
-511.814	-136.839	0.475	-0.055
-510.799	-188.448	0.142	0.002
-509.785	-57.832	-0.176	0.077
-508.770	-146.077	-0.279	0.025
-507.756	-150.290	0.316	-0.024
-506.741	37.749	-0.043	0.038
-505.726	3.343	0.170	0.124
-504.712	50.973	-0.119	-0.113
-503.697	181.598	0.062	0.092
-502.683	74.042	-0.144	-0.152
-501.668	-200.000	-0.012	0.354
-500.653	-11.668	0.135	-0.089
-499.639	253.453	0.080	0.137
-498.624	542.892	-0.111	0.266
-497.610	54.681	0.119	0.115
-496.595	800.000	0.122	0.411
-495.581	-200.000	0.025	-0.221
-494.566	227.620	-0.094	-0.154
-493.551	-25.750	-0.167	-0.099
-492.537	4.081	0.301	-0.220
-491.522	-105.331	-0.250	-0.057
-490.508	-200.000	-0.030	-0.209
-489.493	557.030	-0.138	0.333
-488.478	800.000	-0.018	0.060
-487.464	1.646	-0.146	-0.105
-486.449	185.799	-0.149	-0.221
-485.435	-69.270	-0.433	-0.166
-484.420	-158.602	-0.397	-0.023
-483.405	-200.000	0.025	0.183
-482.391	-75.850	0.167	-0.059
-481.376	-163.374	-0.190	0.009
-480.362	-200.000	-0.015	0.382
-479.347	545.301	0.057	-0.137
-478.332	87.091	-0.089	-0.098
-477.318	147.769	-0.174	-0.234
-476.303	254.903	0.113	-0.194
-475.289	-200.000	0.034	-0.157
-474.274	-8.013	0.178	0.120
-473.259	-43.062	-0.089	0.045
-472.245	-89.066	0.083	0.025
-471.230	76.822	0.325	0.344
-470.216	800.000	0.127	0.373
-469.201	163.948	0.108	0.152
-468.186	599.469	-0.057	0.142
-467.172	-82.092	-0.292	-0.095
-466.157	-11.357	-0.186	-0.123
-465.143	-160.986	-0.266	0.014
-464.128	-200.000	-0.042	-0.234
-463.113	-86.061	-0.163	0.050
-462.099	-155.846	-0.300	0.019
-461.084	161.343	-0.215	-0.300
-460.070	533.832	-0.090	0.213
-459.055	-200.000	0.029	-0.237
-458.040	-87.766	0.073	0.022
-457.026	359.063	-0.078	-0.155
-456.011	394.390	0.097	-0.202
-454.997	-200.000	0.008	-0.115
-453.982	44.567	0.179	-0.165
-452.968	28.097	0.090	-0.076
-451.953	532.306	-0.158	-0.373
-450.938	-28.977	-0.363	-0.208
-449.924	-112.182	-0.086	0.017
-448.909	210.287	-0.006	0.009
-447.895	-84.201	-0.054	-0.017
-446.880	550.457	-0.060	0.144
-445.865	800.000	0.048	-0.147
-444.851	16.100	-0.193	0.152
-443.836	-100.602	-0.239	-0.059
-442.822	-123.510	0.269	0.043
-441.807	-200.000	-0.000	-0.128
-440.792	800.000	0.142	-0.465
-439.778	-200.000	0.072	-0.367
-438.763	-147.735	-0.197	0.016
-437.749	-135.042	-0.136	-0.016
-436.734	-57.022	0.317	0.140
-435.719	66.941	-0.178	-0.181
-434.705	-104.617	-0.264	0.061
-433.690	-200.000	-0.024	-0.193
-432.676	-200.000	0.021	-0.131
-431.661	-116.477	-0.291	0.054
-430.646	181.227	-0.079	-0.116
-429.632	-200.000	-0.000	-0.141
-428.617	-125.906	0.122	0.018
-427.603	309.573	-0.115	0.215
-426.588	-117.545	-0.045	0.008
-425.573	-90.140	0.234	0.068
-424.559	-200.000	0.029	-0.143
-423.544	716.907	-0.037	0.098
-422.530	-24.341	0.202	0.120
-421.515	217.400	-0.083	0.132
-420.500	111.324	-0.008	-0.010
-419.486	-142.987	0.243	-0.023
-418.471	150.951	-0.023	-0.032
-417.457	39.541	0.073	-0.066
-416.442	141.432	-0.127	-0.167
-415.428	88.976	0.064	0.071
-414.413	-145.396	0.249	-0.022
-413.398	255.979	0.108	-0.185
-412.384	10.760	-0.040	0.030
-411.369	30.306	-0.178	-0.152
-410.355	-200.000	-0.020	0.158
-409.340	313.961	0.175	0.327
-408.325	318.643	0.186	-0.352
-407.311	800.000	-0.043	-0.163
-406.296	179.154	-0.135	-0.197
-405.282	-200.000	-0.019	-0.138
-404.267	-135.863	-0.313	0.037
-403.252	168.221	0.180	0.256
-402.238	-104.224	-0.250	-0.058
-401.223	93.559	-0.066	0.075
-400.209	117.705	0.190	-0.234
-399.194	-81.148	0.108	0.035
-398.179	-22.082	0.313	0.189
-397.165	-200.000	-0.003	-0.301
-396.150	-200.000	0.000	-0.193
-395.136	157.533	0.203	0.280
-394.121	-58.264	-0.160	0.069
-393.106	-200.000	-0.086	-0.449
-392.092	585.461	0.036	0.087
-391.077	-200.000	0.034	0.262
-390.063	175.874	0.128	-0.185
-389.048	-200.000	0.034	-0.375
-388.033	-200.000	0.022	-0.334
-387.019	-91.984	0.284	-0.080
-386.004	-200.000	-0.014	0.255
-384.990	-41.816	0.154	-0.079
-383.975	91.079	-0.228	-0.255
-382.960	52.543	0.104	0.099
-381.946	-23.730	0.080	0.047
-380.931	710.352	0.045	0.119
-379.917	25.890	0.069	-0.057
-378.902	-200.000	-0.031	-0.183
-377.888	800.000	-0.064	0.234
-376.873	-97.314	-0.385	0.100
-375.858	-200.000	-0.027	0.392
-374.844	-103.519	-0.156	0.037
-373.829	-111.615	0.317	0.064
-372.815	295.967	-0.056	0.103
-371.800	-152.524	-0.377	0.027
-370.785	383.319	0.108	0.220
-369.771	-82.604	0.307	0.099
-368.756	322.733	-0.104	-0.197
-367.742	-200.000	-0.020	-0.215
-366.727	-200.000	0.015	0.173
-365.712	-138.262	-0.285	-0.031
-364.698	-51.663	0.343	-0.159
-363.683	-71.386	-0.249	0.093
-362.669	800.000	-0.035	-0.130
-361.654	273.263	0.089	0.157
-360.639	15.423	0.205	0.160
-359.625	-57.424	-0.102	-0.045
-358.610	60.522	-0.024	-0.024
-357.596	-70.135	0.238	-0.090
-356.581	609.162	0.132	0.329
-355.566	-142.109	0.330	-0.033
-354.552	-93.568	0.456	0.125
-353.537	-10.973	-0.120	-0.079
-352.523	-105.635	0.417	0.094
-351.508	189.829	0.022	0.034
-350.493	-37.267	-0.207	0.110
-349.479	524.465	-0.022	-0.051
-348.464	-97.659	-0.089	-0.023
-347.450	216.568	0.037	-0.059
-346.435	96.855	0.179	-0.204
-345.420	160.436	-0.058	-0.080
-344.406	39.357	-0.255	0.227
-343.391	325.042	-0.089	-0.170
-342.377	-8.447	-0.242	0.162
-341.362	-200.000	-0.035	0.258
-340.348	93.298	0.064	0.071
-339.333	89.135	0.137	-0.152
-338.318	288.989	-0.092	-0.165
-337.304	-200.000	-0.003	0.222
-336.289	748.103	-0.018	0.049
-335.275	-153.422	-0.295	0.020
-334.260	502.433	0.114	0.261
-333.245	-200.000	0.031	-0.193
-332.231	111.048	-0.080	0.096
-331.216	149.072	-0.088	-0.119
-330.202	-200.000	-0.040	0.415
-329.187	215.803	-0.104	0.163
-328.172	458.085	-0.075	0.165
-327.158	-200.000	-0.064	0.326
-326.143	-15.226	-0.272	-0.173
-325.129	94.817	-0.095	-0.107
-324.114	189.610	0.129	0.192
-323.099	-87.385	0.275	-0.083
-322.085	478.647	-0.085	-0.191
-321.070	-60.744	0.051	0.021
-320.056	-127.977	0.176	0.025
-319.041	117.811	0.094	-0.115
-318.026	800.000	0.080	-0.334
-317.012	-114.680	-0.117	-0.022
-315.997	-32.665	0.166	0.092
-314.983	292.826	-0.055	0.100
-313.968	546.766	0.142	0.337
-312.953	323.511	-0.319	0.604
-311.939	47.045	0.236	-0.218
-310.924	-200.000	-0.038	-0.218
-309.910	800.000	0.034	-0.110
-308.895	-200.000	0.069	0.322
-307.880	1.278	0.125	0.089
-306.866	55.361	0.153	-0.147
-305.851	704.527	0.077	0.201
-304.837	-70.550	0.217	-0.082
-303.822	-116.699	0.213	-0.039
-302.807	16.228	-0.098	0.077
-301.793	79.625	-0.176	0.187
-300.778	800.000	0.106	0.393
-299.764	-124.993	0.365	-0.056
-298.749	-200.000	-0.036	0.209
-297.735	232.381	0.156	0.254
-296.720	800.000	-0.044	-0.161
-295.705	-160.273	-0.315	-0.017
-294.691	-134.179	-0.055	0.007
-293.676	-82.387	-0.112	0.036
-292.662	2.396	0.132	-0.095
-291.647	-155.613	0.209	0.013
-290.632	-7.144	0.172	0.116
-289.618	-191.564	0.433	-0.004
-288.603	447.686	-0.066	0.143
-287.589	-51.440	0.083	0.038
-286.574	366.677	0.258	-0.516
-285.559	-143.364	-0.123	0.012
-284.545	-200.000	-0.050	0.256
-283.530	-132.047	0.157	-0.020
-282.516	752.729	0.026	-0.069
-281.501	800.000	-0.082	0.247
-280.486	800.000	-0.111	0.332
-279.472	94.178	-0.112	-0.126
-278.457	-200.000	-0.037	0.318
-277.443	800.000	0.144	-0.522
-276.428	-156.913	-0.144	0.009
-275.413	518.320	-0.101	-0.234
-274.399	800.000	-0.073	-0.278
-273.384	-64.786	0.332	0.133
-272.370	-131.228	-0.354	0.047
-271.355	523.158	0.147	-0.341
-270.340	-200.000	-0.006	-0.033
-269.326	-107.743	-0.429	0.093
-268.311	46.407	0.124	0.114
-267.297	122.736	-0.148	0.183
-266.282	-32.176	0.274	-0.152
-265.267	-200.000	0.048	-0.307
-264.253	-97.600	-0.064	0.016
-263.238	-142.456	0.242	-0.024
-262.224	665.429	0.044	-0.114
-261.209	111.425	0.170	0.203
-260.195	-200.000	-0.168	-0.000
-259.180	-92.396	0.208	-0.058
-258.165	-84.703	0.158	-0.049
-257.151	157.600	0.104	0.143
-256.136	621.759	0.030	0.076
-255.122	-132.688	0.131	0.017
-254.107	-73.720	-0.415	-0.150
-253.092	332.125	-0.177	-0.339
-252.078	-123.922	-0.134	0.021
-251.063	-131.024	-0.284	0.038
-250.049	22.762	-0.120	0.097
-249.034	-79.881	-0.078	0.026
-248.019	-200.000	-0.001	-0.190
-247.005	192.970	-0.238	0.357
-245.990	-171.285	0.222	-0.007
-244.976	147.035	0.109	0.145
-243.961	-200.000	0.001	-0.077
-242.946	43.214	0.214	-0.194
-241.932	800.000	0.012	0.049
-240.917	-200.000	-0.027	0.125
-239.903	95.720	-0.132	0.149
-238.888	23.053	-0.200	0.163
-237.873	71.357	0.348	0.357
-236.859	800.000	0.033	0.102
-235.844	-108.769	-0.363	-0.077
-234.830	-14.306	0.313	0.199
-233.815	-152.707	0.136	-0.010
-232.800	-55.510	0.484	0.215
-231.786	-200.000	-0.014	0.071
-230.771	-111.283	0.286	-0.058
-229.757	-200.000	0.017	0.261
-228.742	-79.505	-0.250	0.083
-227.727	220.243	0.145	0.230
-226.713	800.000	0.080	0.306
-225.698	-53.225	-0.082	-0.037
-224.684	-184.808	-0.188	0.003
-223.669	-52.239	-0.077	0.035
-222.655	-200.000	-0.025	0.214
-221.640	-132.403	0.353	0.045
-220.625	-200.000	0.037	0.303
-219.611	-115.911	-0.323	-0.060
-218.596	316.308	-0.147	-0.275
-217.582	800.000	-0.045	0.159
-216.567	443.228	0.156	-0.339
-215.552	-200.000	-0.022	-0.232
-214.538	-32.596	-0.352	0.194
-213.523	248.611	0.148	0.248
-212.509	-24.887	-0.136	0.080
-211.494	-179.497	0.207	0.004
-210.479	58.174	-0.074	0.072
-209.465	19.243	0.131	0.104
-208.450	362.269	-0.076	-0.150
-207.436	-90.453	0.230	-0.066
-206.421	309.831	0.092	-0.170
-205.406	-92.041	-0.325	0.091
-204.392	800.000	0.046	0.145
-203.377	149.223	0.083	0.111
-202.363	118.590	0.128	0.156
-201.348	-200.000	0.021	0.456
-200.333	-67.328	-0.242	0.094
-199.319	-189.832	-0.280	0.003
-198.304	454.884	0.065	0.142
-197.290	28.969	0.077	0.065
-196.275	-135.438	-0.078	0.009
-195.260	-148.820	-0.381	-0.031
-194.246	221.759	0.068	0.107
-193.231	40.444	0.068	-0.061
-192.217	14.870	-0.113	-0.087
-191.202	-200.000	0.004	-0.330
-190.187	402.740	-0.044	-0.091
-189.173	761.029	0.114	0.306
-188.158	-200.000	-0.058	-0.380
-187.144	115.298	0.057	0.069
-186.129	185.939	-0.173	0.255
-185.114	142.756	0.202	0.265
-184.100	557.165	0.022	-0.054
-183.085	-200.000	0.056	0.312
-182.071	800.000	0.044	0.124
-181.056	159.226	-0.186	0.256
-180.042	-42.765	-0.182	-0.092
-179.027	-53.338	0.156	0.071
-178.012	401.756	0.053	0.110
-176.998	-110.833	0.205	-0.042
-175.983	-40.768	0.080	-0.041
-174.969	-200.000	0.019	-0.137
-173.954	-200.000	0.006	0.380
-172.939	138.124	0.067	0.086
-171.925	-143.820	-0.162	-0.015
-170.910	-94.424	0.024	-0.006
-169.896	-200.000	0.038	0.268
-168.881	-53.089	0.149	-0.068
-167.866	800.000	-0.059	-0.247
-166.852	-144.637	0.236	-0.021
-165.837	-33.680	0.204	0.111
-164.823	-88.837	0.326	0.096
-163.808	-133.903	0.233	-0.029
-162.793	-0.577	0.049	0.034
-161.779	145.418	0.191	-0.252
-160.764	800.000	-0.074	0.237
-159.750	132.563	-0.212	0.270
-158.735	699.415	0.033	0.086
-157.720	-125.133	-0.359	0.054
-156.706	523.761	-0.069	0.160
-155.691	-175.472	-0.127	0.003
-154.677	-39.308	0.206	-0.107
-153.662	-155.831	0.221	-0.014
-152.647	-7.844	-0.470	-0.313
-151.633	-172.769	-0.308	-0.009
-150.618	32.486	-0.229	-0.195
-149.604	-139.872	-0.300	-0.031
-148.589	-80.158	0.317	-0.105
-147.574	176.046	0.212	0.304
-146.560	267.138	0.189	-0.327
-145.545	-200.000	0.054	-0.240
-144.531	-64.073	-0.122	-0.049
-143.516	-26.641	0.203	-0.117
-142.502	146.184	0.184	0.244
-141.487	74.420	-0.273	-0.283
-140.472	146.332	0.038	-0.050
-139.458	-200.000	0.039	-0.471
-138.443	800.000	0.108	-0.368
-137.429	412.058	-0.125	-0.263
-136.414	-200.000	-0.049	-0.277
-135.399	435.337	-0.127	-0.272
-134.385	-139.786	-0.130	-0.014
-133.370	166.225	-0.124	0.174
-132.356	-200.000	0.004	0.054
-131.341	81.327	0.259	0.276
-130.326	-171.268	-0.113	0.004
-129.312	-198.623	0.240	0.001
-128.297	79.315	0.019	-0.020
-127.283	800.000	0.068	0.229
-126.268	800.000	0.040	0.118
-125.253	-140.536	0.081	0.008
-124.239	386.453	0.071	0.144
-123.224	-200.000	-0.032	0.282
-122.210	636.030	0.083	-0.209
-121.195	274.079	0.285	-0.497
-120.180	421.883	0.083	-0.176
-119.166	-200.000	-0.031	-0.308
-118.151	-114.445	0.136	-0.026
-117.137	-200.000	0.072	-0.365
-116.122	-100.826	0.263	-0.064
-115.107	-141.389	0.077	-0.008
-114.093	547.481	-0.070	-0.165
-113.078	-192.764	0.362	0.003
-112.064	-125.903	0.125	-0.019
-111.049	800.000	0.197	0.582
-110.034	377.026	0.127	-0.255
-109.020	7.012	0.297	0.218
-108.005	-5.142	0.351	0.238
-106.991	-200.000	-0.005	0.063
-105.976	-45.702	-0.092	0.045
-104.962	-200.000	-0.022	-0.119
-103.947	167.261	-0.116	0.163
-102.932	557.866	0.116	-0.277
-101.918	-200.000	-0.005	-0.071
-100.903	-26.246	-0.285	0.165
-99.889	-200.000	-0.034	0.173
-98.874	-40.851	0.218	0.111
-97.859	147.956	0.091	0.121
-96.845	-149.126	0.190	-0.015
-95.830	267.186	0.028	-0.048
-94.816	333.882	0.086	-0.164
-93.801	-117.141	0.138	0.025
-92.786	-33.038	-0.173	-0.094
-91.772	-93.895	0.248	0.067
-90.757	524.219	0.144	-0.333
-89.743	-72.411	-0.059	-0.022
-88.728	-71.242	0.217	0.080
-87.713	-71.423	-0.306	0.113
-86.699	-200.000	0.019	0.364
-85.684	-25.703	0.198	-0.115
-84.670	584.117	-0.129	-0.313
-83.655	-91.870	-0.342	-0.096
-82.640	-200.000	-0.026	-0.315
-81.626	33.258	-0.158	-0.135
-80.611	55.525	-0.124	-0.118
-79.597	26.484	0.146	0.120
-78.582	-74.003	-0.089	0.032
-77.567	-200.000	0.005	-0.118
-76.553	-200.000	0.028	-0.187
-75.538	-34.770	0.116	-0.062
-74.524	-200.000	-0.031	-0.187
-73.509	-171.610	0.407	0.013
-72.494	800.000	-0.063	-0.254
-71.480	-126.676	0.199	-0.029
-70.465	-6.559	0.113	0.075
-69.451	67.048	-0.216	-0.216
-68.436	-25.544	0.318	0.185
-67.422	19.815	0.188	-0.149
-66.407	153.046	0.111	-0.150
-65.392	-159.148	0.010	-0.001
-64.378	187.988	0.134	-0.197
-63.363	800.000	-0.027	-0.088
-62.349	158.507	0.281	0.383
-61.334	162.966	-0.909	-1.255
-60.319	262.830	0.344	0.587
-59.305	-200.000	-0.039	-1.106
-58.290	212.245	0.661	1.024
-57.276	501.084	0.638	1.447
-56.261	-200.000	112.607	649.684
-55.246	481.588	1494.369	3335.518
-54.232	147.135	2664.873	3524.852
-53.217	94.746	2308.784	2581.144
-52.203	33.778	2059.467	1761.199
-51.188	29.275	1974.550	1648.349
-50.173	27.898	1957.914	1622.180
-49.159	45.891	2015.473	1832.468
-48.144	45.211	2031.270	1840.640
-47.130	29.852	1991.211	1667.197
-46.115	27.553	1981.389	1638.270
-45.100	27.490	1978.344	1635.116
-44.086	27.478	1975.655	1632.728
-43.071	27.376	1973.553	1630.011
-42.057	27.332	1971.281	1627.679
-41.042	27.396	1969.474	1626.691
-40.027	27.363	1967.449	1624.654
-39.013	27.497	1965.613	1624.271
-37.998	27.419	1963.999	1622.179
-36.984	27.471	1961.918	1620.855
-35.969	27.385	1960.383	1618.759
-34.954	27.389	1958.592	1617.257
-33.940	27.520	1956.832	1616.902
-32.925	27.555	1955.378	1615.944
-31.911	27.538	1954.175	1614.733
-30.896	27.504	1952.286	1612.808
-29.881	27.519	1951.032	1611.838
-28.867	27.520	1949.481	1610.505
-27.852	27.492	1948.027	1608.991
-26.838	27.527	1946.020	1607.582
-25.823	27.582	1943.890	1606.239
-24.809	27.570	1942.065	1604.564
-23.794	27.590	1939.673	1602.702
-22.779	27.605	1938.428	1601.741
-21.765	27.572	1936.899	1600.123
-20.750	27.487	1935.073	1597.803
-19.736	27.567	1933.506	1597.147
-18.721	27.606	1932.004	1596.183
-17.706	27.586	1930.403	1594.623
-16.692	27.545	1928.838	1592.915
-15.677	27.590	1927.010	1591.736
-14.663	27.551	1925.721	1590.266
-13.648	27.583	1924.711	1589.644
-12.633	27.499	1923.472	1587.823
-11.619	27.455	1922.304	1586.417
-10.604	27.475	1920.623	1585.142
-9.590	27.500	1919.529	1584.393
-8.575	27.513	1917.814	1583.025
-7.560	27.513	1917.240	1582.489
-6.546	27.592	1914.861	1581.151
-5.531	27.455	1914.256	1579.396
-4.517	27.547	1912.924	1579.035
-3.502	27.569	1911.893	1578.314
-2.487	27.554	1910.573	1577.024
-1.473	27.543	1909.829	1576.261
-0.458	27.614	1904.652	1572.531
0.556	25.270	1885.681	1544.458
1.571	21.113	1865.993	1492.718
2.586	17.259	1888.745	1477.350
3.600	16.303	1923.759	1496.136
4.615	16.059	1917.847	1489.255
5.629	14.631	1825.449	1405.359
6.644	11.537	1721.917	1300.930
7.659	9.757	1691.162	1263.643
8.673	9.631	1687.534	1259.835
9.688	9.639	1686.503	1259.017
10.702	9.546	1685.283	1257.270
11.717	9.525	1681.202	1253.954
12.731	9.658	1679.764	1253.803
13.746	11.912	1684.796	1275.016
14.761	15.472	1691.697	1307.906
15.775	17.288	1694.363	1324.008
16.790	17.000	1692.277	1320.023
17.804	15.971	1689.180	1309.492
18.819	15.015	1685.842	1299.375
19.834	14.342	1683.044	1291.883
20.848	13.912	1681.597	1287.324
21.863	13.808	1680.001	1285.181
22.877	13.524	1678.143	1281.451
23.892	13.271	1677.325	1278.755
24.907	13.111	1676.411	1276.706
25.921	13.239	1674.609	1276.213
26.936	13.098	1674.195	1274.697
27.950	13.168	1673.068	1274.262
28.965	13.165	1673.142	1274.188
29.980	13.292	1671.593	1273.868
30.994	13.321	1670.879	1273.442
32.009	13.342	1669.414	1272.374
33.023	13.417	1668.575	1272.199
34.038	13.612	1667.538	1272.790
35.053	13.519	1666.072	1270.848
36.067	13.389	1664.964	1268.889
37.082	13.420	1663.886	1268.197
38.096	13.369	1663.141	1267.125
39.111	13.409	1661.906	1266.373
40.126	13.454	1661.327	1266.167
41.140	13.352	1660.811	1264.880
42.155	13.274	1659.042	1262.831
43.169	13.167	1658.166	1261.235
44.184	13.082	1657.136	1259.684
45.199	13.110	1655.396	1258.466
46.213	13.118	1654.221	1257.525
47.228	13.101	1653.330	1256.602
48.242	13.149	1652.178	1255.981
49.257	13.267	1651.310	1256.112
50.271	13.254	1649.155	1254.259
51.286	13.281	1647.853	1253.365
52.301	13.298	1646.367	1252.252
53.315	13.285	1645.395	1251.306
54.330	13.286	1643.454	1249.727
55.344	13.146	1642.109	1247.534
56.359	13.176	1640.578	1246.483
57.374	13.273	1639.506	1246.296
58.388	13.257	1638.524	1245.312
59.403	13.175	1637.329	1243.677
60.417	13.156	1636.116	1242.506
61.432	13.097	1635.062	1241.154
62.447	13.058	1633.978	1239.925
63.461	13.111	1632.320	1238.956
64.476	13.040	1631.440	1237.646
65.490	13.009	1630.471	1236.570
66.505	13.118	1629.213	1236.318
67.520	13.101	1627.907	1235.096
68.534	13.086	1626.679	1233.943
69.549	13.068	1626.219	1233.352
70.563	13.110	1625.032	1232.655
71.578	13.039	1623.877	1231.141
72.593	12.998	1622.731	1229.854
73.607	12.974	1622.028	1229.031
74.622	12.962	1620.593	1227.748
75.636	13.000	1619.454	1227.056
76.651	12.924	1618.440	1225.620
77.666	12.945	1618.129	1225.431
78.680	13.017	1617.063	1225.049
79.695	13.058	1616.222	1224.605
80.709	13.061	1615.206	1223.749
81.724	13.096	1614.191	1223.131
82.739	13.128	1613.583	1222.803
83.753	13.176	1612.376	1222.135
84.768	13.209	1611.642	1221.715
85.782	13.262	1611.114	1221.599
86.797	13.349	1610.199	1221.437
87.812	13.353	1609.155	1220.568
88.826	13.311	1608.118	1219.360
89.841	13.258	1606.752	1217.831
90.855	13.308	1605.926	1217.460
91.870	13.262	1605.130	1216.409
92.884	13.320	1604.253	1216.069
93.899	13.320	1602.894	1214.932
94.914	13.344	1601.494	1213.941
95.928	13.330	1600.439	1212.926
96.943	13.425	1598.776	1212.254
97.957	13.361	1597.757	1210.905
98.972	13.293	1596.442	1209.305
99.987	13.312	1594.632	1207.964
101.001	13.326	1592.794	1206.573
102.016	13.344	1591.319	1205.475
103.030	13.276	1589.689	1203.637
104.045	13.296	1588.578	1202.834
105.060	13.339	1587.198	1201.996
106.074	13.220	1585.798	1199.967
107.089	13.281	1584.038	1198.972
108.103	13.129	1582.782	1196.813
109.118	13.043	1581.320	1194.983
110.133	13.038	1580.555	1194.261
111.147	13.068	1578.631	1192.919
112.162	13.058	1577.592	1191.953
113.176	13.085	1576.006	1190.850
114.191	13.218	1574.451	1190.522
115.206	13.146	1573.229	1188.974
116.220	13.141	1572.356	1188.179
117.235	13.287	1570.562	1187.762
118.249	13.146	1569.362	1185.742
119.264	13.210	1567.993	1185.058
120.279	13.150	1566.689	1183.536
121.293	13.178	1564.964	1182.334
122.308	13.155	1563.508	1180.961
123.322	13.157	1562.164	1179.855
124.337	13.145	1560.827	1178.658
125.352	13.108	1559.470	1177.267
126.366	13.075	1558.452	1176.159
127.381	13.114	1557.213	1175.397
128.395	13.120	1555.754	1174.235
129.410	12.994	1555.201	1172.816
130.424	13.100	1553.384	1172.094
131.439	13.178	1551.298	1170.969
132.454	13.175	1550.542	1170.277
133.468	13.141	1549.288	1168.982
134.483	13.231	1547.301	1168.017
135.497	13.238	1546.343	1167.238
136.512	13.253	1545.110	1166.311
137.527	13.240	1544.133	1165.377
138.541	13.286	1542.370	1164.268
139.556	13.265	1540.870	1162.889
140.570	13.400	1539.433	1162.645
141.585	13.355	1538.285	1161.363
142.600	13.371	1537.134	1160.501
143.614	13.420	1536.188	1160.031
144.629	13.382	1535.229	1158.937
145.643	13.429	1533.639	1157.960
146.658	13.530	1531.782	1157.160
147.673	13.519	1530.195	1155.784
148.687	13.324	1529.204	1153.578
149.702	13.389	1527.613	1152.724
150.716	13.382	1525.681	1151.115
151.731	13.405	1524.382	1150.196
152.746	13.367	1523.368	1149.061
153.760	13.278	1521.783	1147.150
154.775	13.401	1520.723	1147.099
155.789	13.498	1519.814	1146.989
156.804	13.441	1518.249	1145.310
157.819	13.539	1516.957	1144.909
158.833	13.465	1516.276	1143.783
159.848	13.429	1515.213	1142.632
160.862	13.596	1513.752	1142.578
161.877	13.629	1512.463	1141.736
162.892	13.468	1511.939	1140.127
163.906	13.449	1509.971	1138.412
164.921	13.457	1508.809	1137.493
165.935	13.401	1508.069	1136.449
166.950	13.486	1506.613	1135.833
167.964	13.553	1505.768	1135.553
168.979	13.583	1504.977	1135.065
169.994	13.562	1503.555	1133.750
171.008	13.630	1502.461	1133.284
172.023	13.556	1501.567	1132.006
173.037	13.589	1500.207	1131.105
174.052	13.708	1498.899	1130.832
175.067	13.678	1498.373	1130.134
176.081	13.627	1497.207	1128.807
177.096	13.613	1495.180	1127.083
178.110	13.486	1494.599	1125.682
179.125	13.609	1493.050	1125.246
180.140	13.618	1492.172	1124.551
181.154	13.634	1490.897	1123.599
182.169	13.644	1489.971	1122.868
183.183	13.630	1488.779	1121.772
184.198	13.754	1487.753	1121.740
185.213	13.766	1486.961	1121.124
186.227	13.866	1485.447	1120.558
187.242	13.756	1484.672	1119.132
188.256	13.884	1483.272	1118.846
189.271	13.868	1482.765	1118.253
190.286	13.937	1481.378	1117.570
191.300	13.859	1480.223	1116.081
192.315	13.782	1478.865	1114.437
193.329	13.524	1477.660	1111.697
194.344	13.674	1476.259	1111.554
195.359	13.620	1475.601	1110.601
196.373	13.734	1474.470	1110.410
197.388	13.759	1473.705	1109.906
198.402	13.927	1472.288	1109.864
199.417	13.867	1471.549	1108.807
200.432	14.005	1470.287	1108.675
201.446	14.033	1469.364	1108.068
202.461	14.028	1469.031	1107.686
203.475	14.124	1467.392	1106.992
204.490	14.122	1466.487	1106.199
205.504	14.133	1465.045	1105.085
206.519	14.022	1464.506	1103.843
207.534	14.035	1462.642	1102.431
208.548	13.979	1461.645	1101.206
209.563	13.949	1461.060	1100.470
210.577	14.049	1460.009	1100.243
211.592	14.079	1458.735	1099.385
212.607	14.107	1458.106	1098.997
213.621	14.137	1457.586	1098.706
214.636	14.191	1456.587	1098.212
215.650	14.233	1455.611	1097.656
216.665	14.222	1454.755	1096.846
217.680	14.183	1453.981	1095.907
218.694	14.223	1453.296	1095.553
219.709	14.372	1451.960	1095.428
220.723	14.237	1451.414	1094.037
221.738	14.231	1450.117	1092.924
222.753	14.252	1449.242	1092.300
223.767	14.221	1448.839	1091.700
224.782	14.334	1447.402	1091.258
225.796	14.309	1446.570	1090.372
226.811	14.322	1445.971	1089.911
227.826	14.366	1445.462	1089.720
228.840	14.385	1444.233	1088.817
229.855	14.298	1443.546	1087.639
230.869	14.271	1442.184	1086.335
231.884	14.371	1441.212	1086.162
232.899	14.324	1439.799	1084.692
233.913	14.357	1438.929	1084.157
234.928	14.240	1437.968	1082.577
235.942	14.255	1436.507	1081.479
236.957	14.310	1435.150	1080.717
237.972	14.288	1434.098	1079.687
238.986	14.293	1433.179	1078.933
240.001	14.408	1432.294	1078.915
241.015	14.201	1431.581	1076.944
242.030	14.309	1430.089	1076.423
243.045	14.451	1428.865	1076.323
244.059	14.390	1428.579	1075.617
245.074	14.518	1427.130	1075.256
246.088	14.427	1427.002	1074.479
247.103	14.486	1426.087	1074.075
248.117	14.444	1425.478	1073.254
249.132	14.612	1424.024	1073.144
250.147	14.588	1423.931	1072.825
251.161	14.723	1423.149	1073.007
252.176	14.862	1422.310	1073.174
253.190	14.823	1421.594	1072.288
254.205	14.850	1421.068	1071.967
255.220	14.897	1419.864	1071.264
256.234	14.910	1419.149	1070.713
257.249	14.891	1418.493	1070.002
258.263	14.920	1417.221	1069.138
259.278	14.861	1416.492	1068.112
260.293	14.952	1415.234	1067.654
261.307	14.973	1414.362	1067.036
262.322	14.944	1414.332	1066.730
263.336	15.081	1412.857	1066.399
264.351	15.071	1411.816	1065.457
265.366	15.087	1410.970	1064.824
266.380	15.037	1410.002	1063.678
267.395	15.194	1409.313	1064.060
268.409	15.125	1408.580	1062.979
269.424	15.080	1407.502	1061.788
270.439	15.090	1406.077	1060.682
271.453	15.006	1405.500	1059.620
272.468	15.051	1404.539	1059.082
273.482	15.120	1403.642	1058.748
274.497	15.053	1402.964	1057.722
275.512	15.037	1401.965	1056.777
276.526	14.998	1401.220	1055.872
277.541	15.006	1400.163	1055.032
278.555	15.081	1399.028	1054.559
279.570	15.057	1398.112	1053.626
280.585	15.085	1397.432	1053.192
281.599	15.181	1396.891	1053.297
282.614	15.236	1395.790	1052.715
283.628	15.224	1394.424	1051.519
284.643	15.231	1393.363	1050.668
285.657	15.147	1392.667	1049.524
286.672	15.189	1391.380	1048.725
287.687	15.209	1390.771	1048.296
288.701	15.254	1389.773	1047.737
289.716	15.226	1389.231	1047.062
290.730	15.195	1388.227	1046.018
291.745	15.327	1386.759	1045.640
292.760	15.375	1386.143	1045.382
293.774	15.314	1384.949	1044.007
294.789	15.349	1384.160	1043.544
295.803	15.408	1383.408	1043.250
296.818	15.506	1382.314	1042.938
297.833	15.404	1381.503	1041.604
298.847	15.424	1380.312	1040.735
299.862	15.436	1379.449	1040.066
300.876	15.419	1378.589	1039.225
301.891	15.410	1377.402	1038.180
302.906	15.435	1377.112	1038.027
303.920	15.441	1376.505	1037.512
304.935	15.512	1375.618	1037.189
305.949	15.434	1374.608	1035.853
306.964	15.604	1373.848	1036.240
307.979	15.764	1372.630	1036.214
308.993	15.618	1371.956	1034.714
310.008	15.613	1371.266	1034.076
311.022	15.608	1369.889	1032.910
312.037	15.688	1369.212	1032.803
313.052	15.747	1368.141	1032.268
314.066	15.669	1367.040	1030.864
315.081	15.638	1366.147	1029.910
316.095	15.541	1365.062	1028.406
317.110	15.575	1364.019	1027.740
318.125	15.694	1362.738	1027.408
319.139	15.556	1362.054	1025.958
320.154	15.547	1361.328	1025.268
321.168	15.668	1360.105	1024.990
322.183	15.588	1359.155	1023.701
323.197	15.644	1357.951	1023.041
324.212	15.601	1357.763	1022.545
325.227	15.695	1356.840	1022.337
326.241	15.739	1355.920	1021.816
327.256	15.657	1354.722	1020.329
328.270	15.664	1354.163	1019.859
329.285	15.732	1352.972	1019.284
330.300	15.756	1352.225	1018.773
331.314	15.674	1351.448	1017.604
332.329	15.739	1350.214	1016.977
333.343	15.693	1349.535	1016.096
334.358	15.795	1348.741	1016.030
335.373	15.804	1347.782	1015.268
336.387	15.751	1346.957	1014.239
337.402	15.804	1346.760	1014.319
338.416	15.825	1346.259	1013.980
339.431	15.971	1345.366	1014.096
340.446	15.997	1344.391	1013.427
341.460	16.023	1343.294	1012.664
342.475	16.039	1342.727	1012.246
343.489	16.142	1341.678	1011.984
344.504	16.162	1340.879	1011.412
345.519	16.153	1339.953	1010.571
346.533	16.123	1339.027	1009.603
347.548	16.182	1338.428	1009.415
348.562	16.211	1337.255	1008.614
349.577	16.310	1336.282	1008.382
350.592	16.145	1336.326	1007.341
351.606	16.116	1334.770	1005.906
352.621	16.181	1333.378	1005.155
353.635	16.202	1332.289	1004.367
354.650	16.084	1331.393	1002.906
355.665	16.140	1330.678	1002.607
356.679	16.114	1329.644	1001.585
357.694	16.128	1328.599	1000.791
358.708	16.270	1327.497	1000.715
359.723	16.199	1326.298	999.304
360.738	16.284	1325.256	998.937
361.752	16.400	1324.298	998.806
362.767	16.380	1323.369	997.902
363.781	16.266	1322.296	996.329
364.796	16.211	1321.972	995.675
365.810	16.320	1321.143	995.608
366.825	16.302	1320.698	995.073
367.840	16.343	1319.922	994.646
368.854	16.465	1319.025	994.599
369.869	16.483	1318.750	994.410
370.883	16.626	1318.013	994.605
371.898	16.545	1316.956	993.243
372.913	16.543	1316.266	992.626
373.927	16.520	1315.459	991.794
374.942	16.616	1314.291	991.385
375.956	16.546	1314.110	990.751
376.971	16.573	1312.939	989.940
377.986	16.544	1312.265	989.174
379.000	16.536	1311.146	988.196
380.015	16.639	1310.219	988.012
381.029	16.642	1310.009	987.783
382.044	16.806	1309.073	987.948
383.059	16.678	1308.639	986.786
384.073	16.724	1307.712	986.267
385.088	16.717	1307.403	985.907
386.102	16.796	1306.232	985.398
387.117	16.793	1305.448	984.697
388.132	16.781	1304.623	983.919
389.146	16.763	1303.910	983.192
390.161	16.689	1302.508	981.619
391.175	16.727	1302.173	981.497
392.190	16.772	1301.341	981.045
393.205	16.762	1300.713	980.429
394.219	16.816	1299.461	979.707
395.234	16.852	1298.273	978.938
396.248	16.876	1296.944	977.983
397.263	16.918	1295.749	977.238
398.278	16.900	1294.227	975.901
399.292	16.726	1293.401	974.191
400.307	16.788	1292.626	973.875
401.321	16.676	1291.212	972.081
402.336	16.809	1290.389	972.142
403.350	16.781	1289.420	971.163
404.365	16.805	1288.405	970.451
405.380	16.797	1287.937	969.968
406.394	16.794	1287.149	969.271
407.409	16.893	1286.319	969.126
408.423	16.794	1285.940	968.191
409.438	16.988	1284.956	968.467
410.453	17.120	1283.897	968.339
411.467	17.062	1283.636	967.725
412.482	17.215	1282.973	968.009
413.496	17.130	1282.511	967.095
414.511	17.212	1281.124	966.429
415.526	17.212	1280.590	965.941
416.540	17.364	1279.758	966.088
417.555	17.276	1279.231	965.105
418.569	17.239	1278.492	964.257
419.584	17.317	1277.879	964.148
420.599	17.310	1277.120	963.449
421.613	96.875	1356.151	1477.085
422.628	94.610	1367.599	1477.169
