DTS Sentinel unit serial number:	SN413079Multiplexer serial number:	ORYXHardware model number:	OX4-SRSoftware version number:	ORYX F/W v4.00 Oryx Data Collector v3.7.2.0data status	okinstallation	princeton_trtdifferential loss correction	single-endedforward channel	channel 4reverse channel	N/Adate	2019/09/18time	00:49:35forward acquisition time	60.00reverse acquisition time	0.00gamma	496.2192k internal	0.2334k external	0.2334temperature offset calibration	0.9998default loss term (dB/km)	0.3790temperature slope calibration	1.0000multiplexer offset coefficient	1.0000multiplexer slope coefficient	1.0000fibre end	0.00T internal ref (°C)	23.37T ext. ref 1 (°C)	0.16T ext. ref 2 (°C)	17.05length (m)	temperature (°C)	Stokes	anti-Stokes-747.200	113.607	-0.262	0.320
-746.185	169.957	-0.132	0.189
-745.171	126.359	0.196	-0.250
-744.156	111.135	-0.066	0.080
-743.142	800.000	-0.055	-0.187
-742.127	-144.297	0.190	-0.018
-741.112	-85.469	0.153	-0.048
-740.098	67.240	-0.293	0.300
-739.083	-108.396	0.275	0.060
-738.069	14.990	-0.113	0.089
-737.054	-46.166	-0.124	-0.061
-736.039	-187.589	-0.287	-0.004
-735.025	131.060	0.178	-0.230
-734.010	-30.179	0.097	0.056
-732.996	104.268	-0.103	0.122
-731.981	124.713	-0.214	-0.270
-730.966	-200.000	-0.004	0.180
-729.952	-108.697	0.202	-0.043
-728.937	-159.040	-0.082	0.005
-727.923	193.954	-0.014	0.021
-726.908	176.769	0.224	0.327
-725.894	43.801	-0.200	-0.184
-724.879	-108.011	0.256	-0.056
-723.864	669.534	0.064	0.167
-722.850	0.826	-0.328	0.236
-721.835	21.500	0.236	-0.193
-720.821	-200.000	-0.037	0.166
-719.806	800.000	0.085	-0.306
-718.791	-13.300	-0.214	-0.140
-717.777	14.447	-0.064	-0.051
-716.762	-129.310	-0.276	0.039
-715.748	-200.000	-0.015	-0.158
-714.733	206.009	-0.128	-0.200
-713.718	-92.193	-0.328	0.093
-712.704	-200.000	0.028	0.294
-711.689	-74.339	-0.529	0.192
-710.675	-62.807	-0.070	0.029
-709.660	-49.708	-0.178	0.085
-708.645	-200.000	-0.001	0.151
-707.631	-200.000	-0.015	-0.169
-706.616	-200.000	0.010	0.057
-705.602	-114.209	0.403	0.078
-704.587	443.940	-0.125	0.275
-703.572	123.737	0.097	0.122
-702.558	-75.874	-0.243	-0.086
-701.543	-200.000	-0.016	-0.134
-700.529	-87.021	0.141	-0.043
-699.514	-200.000	-0.017	0.289
-698.499	800.000	0.027	0.101
-697.485	-35.302	0.190	-0.104
-696.470	117.582	-0.141	-0.174
-695.456	-200.000	0.011	0.148
-694.441	51.750	-0.135	-0.129
-693.426	-56.581	-0.192	0.085
-692.412	-80.678	0.300	-0.100
-691.397	-200.000	-0.045	-0.335
-690.383	-154.420	0.124	0.008
-689.368	800.000	0.079	0.228
-688.354	800.000	-0.086	0.240
-687.339	800.000	-0.024	0.097
-686.324	-29.089	0.252	-0.145
-685.310	-200.000	0.015	0.446
-684.295	54.468	-0.130	-0.125
-683.281	216.492	-0.058	-0.092
-682.266	-91.403	-0.424	0.121
-681.251	527.361	-0.089	0.210
-680.237	145.429	-0.080	0.107
-679.222	-191.332	-0.250	0.003
-678.208	800.000	-0.110	0.310
-677.193	-200.000	0.011	0.179
-676.178	38.494	-0.276	-0.247
-675.164	-200.000	-0.003	-0.019
-674.149	-21.286	-0.226	-0.138
-673.135	-200.000	0.010	0.062
-672.120	-200.000	0.025	-0.327
-671.105	24.167	0.232	0.192
-670.091	-48.947	-0.149	-0.072
-669.076	800.000	0.082	0.279
-668.062	-128.119	0.477	0.068
-667.047	-145.273	-0.124	-0.011
-666.032	-5.398	0.249	0.171
-665.018	800.000	0.104	0.341
-664.003	800.000	0.019	-0.075
-662.989	44.847	0.125	-0.115
-661.974	188.605	-0.093	-0.140
-660.959	31.687	-0.054	0.047
-659.945	54.981	-0.080	-0.078
-658.930	-200.000	0.024	-0.224
-657.916	135.280	0.118	0.154
-656.901	-26.661	-0.124	0.073
-655.886	296.716	0.112	-0.206
-654.872	-200.000	0.043	-0.209
-653.857	119.013	-0.229	0.284
-652.843	-109.278	-0.400	-0.085
-651.828	11.753	0.107	0.082
-650.814	310.094	-0.165	-0.309
-649.799	77.517	-0.202	0.216
-648.784	-200.000	0.011	0.092
-647.770	-52.145	0.366	-0.170
-646.755	515.071	-0.016	-0.037
-645.741	14.187	0.220	0.172
-644.726	-0.607	-0.141	-0.100
-643.711	64.618	0.090	-0.091
-642.697	94.737	-0.127	0.144
-641.682	128.707	0.096	-0.123
-640.668	-131.999	-0.246	0.032
-639.653	800.000	0.043	-0.178
-638.638	251.392	0.290	-0.493
-637.624	-120.925	0.090	-0.015
-636.609	74.734	0.142	0.149
-635.595	-66.991	0.055	0.022
-634.580	45.968	-0.247	0.228
-633.565	434.429	-0.084	-0.183
-632.551	-56.666	-0.179	0.079
-631.536	137.978	0.044	0.058
-630.522	-90.117	0.134	0.039
-629.507	28.723	-0.120	-0.102
-628.492	20.082	0.145	0.117
-627.478	-200.000	0.015	-0.158
-626.463	-145.022	-0.178	0.016
-625.449	-200.000	0.010	-0.046
-624.434	167.348	-0.069	-0.098
-623.419	-200.000	0.061	-0.388
-622.405	-187.767	-0.093	0.001
-621.390	-155.553	-0.231	0.015
-620.376	228.382	0.089	-0.145
-619.361	-200.000	-0.278	-0.001
-618.346	-200.000	0.003	-0.294
-617.332	9.687	0.156	0.118
-616.317	800.000	-0.048	-0.141
-615.303	-70.929	-0.265	0.100
-614.288	218.933	0.264	-0.422
-613.273	-169.765	0.157	0.006
-612.259	-91.817	-0.167	0.047
-611.244	196.536	-0.101	0.154
-610.230	140.912	-0.119	0.157
-609.215	11.810	-0.121	0.093
-608.201	-135.790	-0.248	-0.029
-607.186	103.022	-0.088	-0.103
-606.171	-200.000	-0.046	0.213
-605.157	-200.000	-0.064	0.323
-604.142	173.155	-0.106	-0.152
-603.128	-200.000	0.037	0.224
-602.113	-200.000	-0.003	0.157
-601.098	138.597	-0.199	0.261
-600.084	-152.546	-0.257	-0.018
-599.069	275.981	-0.161	-0.286
-598.055	153.609	0.095	-0.130
-597.040	419.079	0.062	0.132
-596.025	800.000	0.060	0.222
-595.011	-200.000	0.001	0.312
-593.996	-200.000	-0.002	-0.423
-592.982	24.625	-0.068	-0.056
-591.967	-200.000	-0.017	0.308
-590.952	79.485	-0.140	0.150
-589.938	800.000	-0.023	-0.078
-588.923	203.507	-0.081	-0.125
-587.909	-200.000	-0.002	-0.272
-586.894	-105.749	0.178	-0.040
-585.879	800.000	0.156	-0.464
-584.865	-115.657	-0.075	-0.014
-583.850	38.600	-0.025	-0.022
-582.836	53.805	-0.174	-0.167
-581.821	56.378	-0.120	0.117
-580.806	-108.424	-0.122	0.026
-579.792	66.813	0.151	0.154
-578.777	-114.923	-0.093	-0.018
-577.763	112.037	-0.182	0.219
-576.748	276.368	0.077	-0.136
-575.733	754.559	0.077	-0.208
-574.719	-105.572	-0.268	0.061
-573.704	-1.639	0.386	-0.272
-572.690	-120.089	-0.040	-0.007
-571.675	-200.000	-0.020	-0.373
-570.661	-200.000	-0.021	-0.188
-569.646	-86.197	0.315	-0.097
-568.631	-15.294	-0.164	-0.105
-567.617	-116.103	0.244	0.045
-566.602	-200.000	-0.014	0.130
-565.588	339.115	-0.160	0.311
-564.573	443.437	0.052	-0.114
-563.558	35.110	-0.102	0.089
-562.544	14.358	0.180	0.141
-561.529	279.884	0.106	-0.188
-560.515	95.876	-0.032	-0.037
-559.500	93.464	0.239	0.270
-558.485	-17.090	-0.289	-0.182
-557.471	-200.000	0.049	0.429
-556.456	179.850	0.139	0.203
-555.442	-200.000	-0.043	0.538
-554.427	-99.992	-0.250	0.062
-553.412	-180.980	-0.227	-0.005
-552.398	364.425	0.041	-0.083
-551.383	-200.000	0.030	0.143
-550.369	296.461	-0.131	0.240
-549.354	-54.239	-0.326	-0.148
-548.339	577.928	-0.059	-0.143
-547.325	-107.517	0.073	-0.016
-546.310	-92.766	0.164	-0.046
-545.296	-88.641	-0.207	-0.061
-544.281	24.562	-0.161	-0.133
-543.266	1.268	-0.211	0.151
-542.252	800.000	-0.040	0.170
-541.237	231.492	0.130	0.212
-540.223	-160.532	-0.080	-0.004
-539.208	-86.685	-0.053	0.016
-538.193	101.040	-0.119	0.138
-537.179	-0.228	-0.060	0.043
-536.164	-72.625	0.342	0.126
-535.150	-13.189	0.123	-0.079
-534.135	-101.591	0.260	0.063
-533.121	-128.936	-0.264	0.037
-532.106	-198.619	-0.124	-0.001
-531.091	-77.670	-0.074	-0.025
-530.077	38.339	-0.083	-0.074
-529.062	20.376	-0.037	0.030
-528.048	-200.000	0.000	-0.024
-527.033	190.540	0.071	0.106
-526.018	800.000	0.059	-0.165
-525.004	-97.395	-0.249	-0.064
-523.989	-35.412	0.222	-0.120
-522.975	800.000	-0.015	0.051
-521.960	449.349	-0.101	0.223
-520.945	-102.279	0.132	-0.032
-519.931	-122.738	0.120	-0.019
-518.916	-88.700	0.257	0.076
-517.902	655.114	0.054	0.139
-516.887	-113.104	-0.361	0.071
-515.872	194.792	-0.124	-0.188
-514.858	-130.768	-0.487	0.065
-513.843	-85.917	-0.366	0.113
-512.829	195.010	-0.215	0.326
-511.814	-200.000	0.016	-0.096
-510.799	193.840	-0.108	-0.163
-509.785	-43.572	-0.239	0.120
-508.770	-94.794	0.174	-0.047
-507.756	-200.000	-0.000	0.194
-506.741	392.160	-0.092	0.191
-505.726	-200.000	-0.003	-0.181
-504.712	450.631	0.147	-0.323
-503.697	30.461	-0.061	0.052
-502.683	-119.404	-0.181	0.031
-501.668	800.000	0.100	-0.284
-500.653	-200.000	-0.014	-0.127
-499.639	316.742	0.059	-0.110
-498.624	197.047	0.168	-0.256
-497.610	26.912	0.185	-0.154
-496.595	21.747	0.206	-0.167
-495.581	-76.774	-0.187	0.065
-494.566	264.200	-0.144	-0.249
-493.551	378.243	0.118	0.239
-492.537	-124.793	0.152	0.023
-491.522	-39.084	-0.159	0.083
-490.508	50.798	0.182	-0.172
-489.493	800.000	-0.076	-0.221
-488.478	-18.340	-0.220	-0.137
-487.464	-27.516	0.207	0.120
-486.449	-200.000	0.042	-0.207
-485.435	38.165	-0.130	-0.115
-484.420	27.209	0.135	0.113
-483.405	-39.414	-0.107	0.056
-482.391	770.395	0.110	0.298
-481.376	291.827	-0.030	-0.055
-480.362	-146.373	0.254	0.022
-479.347	-113.129	-0.239	-0.047
-478.332	-31.144	-0.021	0.012
-477.318	-0.302	-0.176	0.125
-476.303	-114.824	-0.241	-0.046
-475.289	106.747	0.147	0.173
-474.274	800.000	0.043	0.142
-473.259	-81.414	-0.260	-0.085
-472.245	5.616	0.104	-0.077
-471.230	107.056	-0.135	0.159
-470.216	-200.000	0.054	-0.308
-469.201	714.021	-0.048	0.126
-468.186	-200.000	-0.013	0.089
-467.172	-148.980	-0.365	0.029
-466.157	-86.751	-0.256	-0.078
-465.143	-60.793	-0.123	0.052
-464.128	-56.642	-0.452	-0.199
-463.113	800.000	0.098	-0.280
-462.099	-200.000	0.002	-0.018
-461.084	-200.000	0.004	0.055
-460.070	572.732	0.170	0.413
-459.055	-31.531	0.189	0.106
-458.040	35.618	-0.182	0.159
-457.026	98.995	-0.231	-0.265
-456.011	440.470	0.093	-0.202
-454.997	-200.000	0.024	-0.152
-453.982	54.228	0.141	-0.135
-452.968	-30.939	0.345	-0.194
-451.953	-86.721	-0.250	0.076
-450.938	-47.622	-0.309	0.149
-449.924	-200.000	-0.005	-0.127
-448.909	27.182	-0.225	-0.188
-447.895	263.352	-0.088	-0.153
-446.880	300.469	-0.030	0.056
-445.865	670.544	-0.029	-0.074
-444.851	582.066	-0.075	-0.182
-443.836	-91.071	-0.292	-0.083
-442.822	-200.000	-0.054	0.284
-441.807	-93.336	0.131	0.036
-440.792	-168.258	0.138	-0.005
-439.778	625.099	-0.106	0.267
-438.763	113.093	-0.029	0.035
-437.749	53.310	-0.233	0.222
-436.734	-200.000	0.022	0.412
-435.719	-4.411	0.208	0.143
-434.705	-200.000	-0.050	-0.264
-433.690	-200.000	0.207	-0.000
-432.676	-99.540	0.205	-0.051
-431.661	-30.649	-0.098	0.055
-430.646	-200.000	-0.059	-0.368
-429.632	163.464	-0.037	0.052
-428.617	183.467	0.087	-0.128
-427.603	15.559	0.081	0.063
-426.588	800.000	-0.046	0.194
-425.573	-4.401	0.087	-0.060
-424.559	19.442	-0.046	0.037
-423.544	49.144	0.242	-0.225
-422.530	-200.000	-0.001	-0.164
-421.515	316.478	0.036	-0.068
-420.500	-200.000	-0.014	0.195
-419.486	-200.000	0.052	0.424
-418.471	800.000	-0.075	0.227
-417.457	-133.491	0.280	-0.035
-416.442	424.040	-0.123	0.262
-415.428	66.705	0.085	-0.086
-414.413	-78.349	0.363	0.124
-413.398	-200.000	0.050	-0.305
-412.384	800.000	0.081	0.331
-411.369	-200.000	-0.100	0.502
-410.355	-53.190	0.187	0.085
-409.340	-200.000	0.032	-0.210
-408.325	-115.353	-0.020	-0.004
-407.311	800.000	0.097	-0.340
-406.296	-31.622	0.202	0.113
-405.282	384.314	0.047	0.097
-404.267	272.016	0.085	-0.148
-403.252	800.000	0.035	0.130
-402.238	-200.000	0.047	0.231
-401.223	312.895	0.122	0.227
-400.209	800.000	0.060	0.205
-399.194	-200.000	0.027	0.205
-398.179	502.838	0.023	0.052
-397.165	-118.129	-0.283	0.050
-396.150	0.218	0.339	-0.240
-395.136	-157.843	0.388	-0.023
-394.121	-138.640	-0.065	-0.007
-393.106	-133.546	0.471	0.058
-392.092	-93.425	0.194	-0.053
-391.077	19.580	0.302	0.241
-390.063	-144.925	-0.179	0.016
-389.048	-200.000	0.003	-0.168
-388.033	81.839	-0.263	-0.283
-387.019	79.388	0.099	0.105
-386.004	792.588	0.091	0.249
-384.990	236.967	0.132	0.217
-383.975	93.683	0.221	-0.248
-382.960	684.878	-0.071	0.183
-381.946	54.558	0.121	0.116
-380.931	65.020	-0.398	-0.398
-379.917	-189.021	0.439	0.005
-378.902	-200.000	0.003	-0.188
-377.888	-70.039	0.196	-0.074
-376.873	-2.044	-0.425	0.296
-375.858	79.486	0.085	-0.090
-374.844	800.000	-0.044	-0.146
-373.829	104.346	0.110	-0.128
-372.815	-200.000	0.033	0.367
-371.800	-149.633	0.321	0.025
-370.785	-200.000	0.074	-0.407
-369.771	-200.000	-0.030	0.142
-368.756	-83.302	0.034	0.011
-367.742	320.424	-0.084	0.158
-366.727	-146.005	0.149	0.013
-365.712	-56.855	0.204	-0.089
-364.698	20.042	-0.111	-0.088
-363.683	-167.458	0.147	0.006
-362.669	-106.892	-0.265	0.058
-361.654	-90.726	0.122	0.035
-360.639	-114.672	0.224	-0.042
-359.625	-200.000	0.037	0.209
-358.610	-19.324	0.274	-0.168
-357.596	13.398	0.140	-0.107
-356.581	-104.786	0.113	-0.026
-355.566	-200.000	0.019	0.164
-354.552	0.006	0.072	-0.051
-353.537	520.100	-0.029	0.068
-352.523	-75.531	-0.225	0.079
-351.508	-124.995	0.070	-0.011
-350.493	800.000	0.066	-0.211
-349.479	-138.618	-0.087	-0.009
-348.464	-200.000	-0.041	0.258
-347.450	-200.000	-0.049	-0.309
-346.435	-16.880	-0.250	0.156
-345.420	-200.000	-0.007	-0.032
-344.406	100.602	-0.044	-0.050
-343.391	-9.212	-0.219	-0.145
-342.377	117.979	0.066	0.081
-341.362	380.414	-0.035	0.071
-340.348	93.415	-0.041	0.046
-339.333	-145.435	-0.079	0.007
-338.318	-83.527	0.422	-0.134
-337.304	17.858	-0.074	0.058
-336.289	-12.692	-0.099	-0.064
-335.275	-4.122	-0.161	-0.110
-334.260	800.000	-0.103	0.408
-333.245	247.503	-0.098	0.164
-332.231	-79.150	0.224	-0.075
-331.216	-200.000	-0.035	0.177
-330.202	-152.845	0.105	-0.007
-329.187	-124.528	-0.192	0.030
-328.172	-200.000	-0.343	-0.001
-327.158	-13.127	0.179	0.115
-326.143	-15.107	0.093	0.059
-325.129	-71.028	-0.188	-0.070
-324.114	-20.141	0.054	-0.033
-323.099	-103.241	-0.447	0.104
-322.085	-67.238	0.292	-0.114
-321.070	-200.000	0.075	0.328
-320.056	39.467	0.142	0.125
-319.041	-129.457	0.249	-0.034
-318.026	-163.169	-0.097	0.005
-317.012	-21.740	-0.112	-0.067
-315.997	800.000	0.058	0.201
-314.983	125.913	-0.196	0.245
-313.968	356.156	-0.047	-0.092
-312.953	28.083	-0.150	-0.125
-311.939	253.617	0.104	-0.175
-310.924	95.931	-0.131	0.148
-309.910	-113.187	-0.084	-0.016
-308.895	-200.000	0.001	-0.408
-307.880	-94.839	-0.191	-0.051
-306.866	-112.875	0.301	0.059
-305.851	-200.000	-0.052	0.464
-304.837	-200.000	0.008	0.256
-303.822	-200.000	-0.002	-0.119
-302.807	47.026	-0.204	-0.188
-301.793	800.000	0.088	-0.276
-300.778	520.098	-0.077	-0.179
-299.764	33.772	-0.099	0.085
-298.749	-73.877	-0.259	0.093
-297.735	-97.850	0.203	0.052
-296.720	689.417	0.156	-0.403
-295.705	800.000	-0.029	-0.116
-294.691	-200.000	0.018	-0.167
-293.676	800.000	0.017	0.055
-292.662	-200.000	0.029	0.309
-291.647	800.000	0.174	-0.540
-290.632	-200.000	-0.059	-0.350
-289.618	483.350	0.138	0.310
-288.603	96.881	-0.162	0.184
-287.589	29.746	0.235	0.197
-286.574	-62.534	0.486	-0.199
-285.559	800.000	0.036	0.151
-284.545	112.277	-0.159	0.190
-283.530	561.373	0.103	-0.246
-282.516	800.000	-0.055	0.164
-281.501	-67.772	-0.036	-0.014
-280.486	-200.000	0.000	0.233
-279.472	-13.254	-0.087	-0.056
-278.457	800.000	-0.055	-0.161
-277.443	-82.756	-0.158	0.050
-276.428	800.000	-0.066	0.276
-275.413	-74.555	-0.411	0.146
-274.399	-200.000	-0.001	-0.346
-273.384	-62.808	0.139	-0.057
-272.370	243.384	-0.122	-0.202
-271.355	3.935	-0.167	0.121
-270.340	8.435	0.335	0.248
-269.326	-200.000	-0.001	0.380
-268.311	-119.413	-0.291	-0.050
-267.297	-98.274	0.287	-0.073
-266.282	342.970	-0.187	-0.361
-265.267	242.556	0.316	-0.522
-264.253	135.290	-0.155	-0.199
-263.238	-79.834	-0.038	0.012
-262.224	100.836	-0.041	0.046
-261.209	8.133	-0.116	-0.086
-260.195	-200.000	-0.004	0.066
-259.180	-42.104	-0.172	0.087
-258.165	83.054	0.064	0.069
-257.151	-200.000	0.074	0.513
-256.136	800.000	-0.080	-0.230
-255.122	-200.000	-0.005	-0.073
-254.107	-83.305	0.067	-0.021
-253.092	182.375	0.120	-0.175
-252.078	-117.049	0.175	-0.031
-251.063	-182.837	-0.278	0.005
-250.049	-17.446	0.129	-0.080
-249.034	-122.469	-0.148	-0.024
-248.019	63.674	0.217	0.215
-247.005	349.100	-0.156	-0.304
-245.990	34.552	0.387	0.333
-244.976	65.782	0.150	0.150
-243.961	-41.850	0.333	-0.168
-242.946	800.000	-0.072	-0.300
-241.932	743.265	-0.070	-0.184
-240.917	-24.242	0.170	0.100
-239.903	114.797	0.157	0.189
-238.888	-39.592	-0.300	0.155
-237.873	-52.836	0.395	-0.179
-236.859	-79.760	-0.204	0.068
-235.844	68.308	-0.147	-0.148
-234.830	800.000	0.059	-0.161
-233.815	-105.501	0.258	0.058
-232.800	47.811	0.286	-0.263
-231.786	379.008	-0.111	0.224
-230.771	-42.640	0.210	0.105
-229.757	-200.000	0.009	0.095
-228.742	215.779	-0.125	-0.196
-227.727	-118.226	-0.154	0.027
-226.713	-200.000	0.022	0.190
-225.698	-133.515	-0.098	0.012
-224.684	-55.395	-0.190	0.084
-223.669	-33.700	-0.163	-0.089
-222.655	173.324	0.222	0.316
-221.640	790.363	-0.167	0.452
-220.625	399.326	-0.195	-0.402
-219.611	15.071	0.245	-0.189
-218.596	-43.898	0.220	0.109
-217.582	-138.695	0.303	0.033
-216.567	147.173	0.254	-0.336
-215.552	-91.910	-0.216	-0.060
-214.538	-75.491	-0.206	-0.072
-213.523	56.789	0.134	-0.128
-212.509	800.000	-0.143	-0.421
-211.494	273.275	-0.035	-0.060
-210.479	-41.950	0.090	0.046
-209.465	-73.983	0.344	-0.123
-208.450	800.000	0.053	-0.210
-207.436	-200.000	0.005	-0.124
-206.421	800.000	0.063	0.222
-205.406	407.272	-0.083	0.173
-204.392	-74.683	0.215	0.076
-203.377	-37.581	-0.082	0.043
-202.363	307.986	0.080	-0.147
-201.348	122.440	-0.210	0.258
-200.333	-40.817	-0.186	0.095
-199.319	182.346	0.102	-0.148
-198.304	87.459	0.355	0.387
-197.290	-105.871	0.234	-0.052
-196.275	-15.058	-0.082	0.052
-195.260	-144.578	-0.345	0.031
-194.246	130.790	-0.274	0.346
-193.231	-200.000	-0.027	0.129
-192.217	-40.833	0.131	0.067
-191.202	800.000	0.032	-0.131
-190.187	-200.000	0.003	-0.064
-189.173	-136.717	-0.206	0.023
-188.158	-47.472	0.172	0.082
-187.144	65.045	0.361	0.359
-186.129	-200.000	0.063	-0.303
-185.114	439.403	-0.034	-0.074
-184.100	114.031	0.147	0.175
-183.085	156.585	-0.087	-0.118
-182.071	-200.000	-0.026	-0.315
-181.056	2.536	-0.180	-0.128
-180.042	-29.784	-0.276	0.155
-179.027	-58.197	0.407	0.174
-178.012	701.848	-0.043	-0.112
-176.998	800.000	-0.085	0.275
-175.983	-125.659	-0.088	-0.013
-174.969	43.092	-0.058	-0.052
-173.954	800.000	-0.103	-0.323
-172.939	-200.000	0.025	0.119
-171.925	106.444	0.302	0.352
-170.910	110.962	0.183	-0.216
-169.896	482.386	-0.067	0.150
-168.881	277.903	0.072	-0.126
-167.866	374.594	0.116	-0.233
-166.852	301.805	0.095	-0.172
-165.837	800.000	-0.062	0.174
-164.823	-136.380	0.364	-0.042
-163.808	-17.408	0.106	-0.066
-162.793	-108.999	-0.160	0.034
-161.779	-70.447	-0.228	0.085
-160.764	-186.543	0.046	0.001
-159.750	246.911	0.095	-0.158
-158.735	530.330	-0.163	-0.378
-157.720	218.519	0.056	0.088
-156.706	-73.541	0.228	-0.082
-155.691	0.312	-0.133	-0.093
-154.677	-42.998	0.244	-0.121
-153.662	43.218	-0.195	0.175
-152.647	490.421	-0.065	-0.146
-151.633	-129.427	-0.091	0.012
-150.618	52.988	0.354	0.332
-149.604	37.388	0.240	0.209
-148.589	90.030	0.280	-0.307
-147.574	-58.378	-0.131	-0.056
-146.560	-200.000	-0.051	0.279
-145.545	800.000	0.016	0.053
-144.531	-200.000	0.062	0.435
-143.516	-200.000	0.003	-0.114
-142.502	481.153	-0.200	0.446
-141.487	-124.976	0.412	0.062
-140.472	667.894	-0.083	0.211
-139.458	217.333	0.161	-0.252
-138.443	-115.871	-0.189	-0.035
-137.429	-200.000	0.001	0.221
-136.414	-147.818	0.098	0.008
-135.399	17.835	0.133	-0.104
-134.385	59.245	-0.159	0.154
-133.370	-119.770	-0.112	0.019
-132.356	-94.757	-0.240	0.064
-131.341	-176.475	0.104	-0.003
-130.326	-10.014	-0.032	-0.021
-129.312	-159.329	0.285	-0.016
-128.297	-152.322	-0.193	0.014
-127.283	800.000	-0.172	-0.511
-126.268	-77.378	0.125	0.043
-125.253	80.053	0.224	0.236
-124.239	366.295	0.092	0.182
-123.224	-58.679	-0.415	-0.177
-122.210	-192.676	0.268	0.002
-121.195	-0.795	-0.448	-0.311
-120.180	-80.072	-0.069	-0.023
-119.166	10.132	0.194	0.144
-118.151	-128.929	0.124	-0.017
-117.137	-159.422	0.142	0.008
-116.122	218.695	0.140	-0.220
-115.107	31.857	0.141	0.119
-114.093	124.179	0.107	-0.132
-113.078	-11.420	-0.211	0.136
-112.064	39.677	-0.114	-0.100
-111.049	800.000	-0.054	-0.181
-110.034	-56.396	-0.205	-0.089
-109.020	332.555	-0.165	-0.312
-108.005	-52.886	0.138	0.062
-106.991	38.419	-0.152	0.133
-105.976	203.159	-0.093	-0.141
-104.962	378.769	-0.057	0.115
-103.947	113.616	-0.102	-0.122
-102.932	-158.880	-0.202	0.011
-101.918	0.106	0.227	0.158
-100.903	800.000	-0.132	0.453
-99.889	110.919	0.063	-0.074
-98.874	-49.797	0.408	0.190
-97.859	361.551	0.257	0.504
-96.845	-1.882	-0.139	0.096
-95.830	199.991	0.081	-0.121
-94.816	45.814	-0.117	-0.106
-93.801	800.000	-0.015	0.047
-92.786	-114.098	0.064	-0.012
-91.772	122.890	0.185	-0.227
-90.757	-85.755	0.076	-0.023
-89.743	294.250	0.059	-0.105
-88.728	-97.998	0.285	0.072
-87.713	153.461	-0.026	-0.035
-86.699	26.121	0.171	0.140
-85.684	-69.909	-0.276	0.103
-84.670	-115.120	-0.115	-0.021
-83.655	157.614	0.237	-0.322
-82.640	612.438	-0.043	0.106
-81.626	-200.000	0.010	-0.180
-80.611	675.637	0.065	-0.166
-79.597	-105.271	0.318	0.071
-78.582	365.760	-0.005	-0.010
-77.567	31.743	-0.248	0.209
-76.553	-200.000	-0.015	0.276
-75.538	521.887	-0.218	0.501
-74.524	800.000	0.118	0.344
-73.509	-200.000	-0.026	-0.161
-72.494	-135.593	-0.339	0.039
-71.480	416.236	-0.057	0.118
-70.465	280.677	-0.035	0.061
-69.451	-71.594	-0.161	-0.059
-68.436	-46.798	-0.507	0.243
-67.422	-105.638	-0.355	0.079
-66.407	-34.197	0.075	0.041
-65.392	-200.000	0.037	0.207
-64.378	-200.000	-0.013	0.164
-63.363	800.000	0.061	0.259
-62.349	479.205	0.074	-0.164
-61.334	65.767	-1.247	-1.237
-60.319	308.930	0.455	0.831
-59.305	800.000	-0.473	-1.359
-58.290	272.848	0.890	1.537
-57.276	463.471	0.863	1.886
-56.261	-200.000	124.958	676.588
-55.246	431.973	1566.051	3321.896
-54.232	142.220	2723.698	3536.086
-53.217	88.176	2321.358	2520.497
-52.203	29.875	2068.181	1724.114
-51.188	25.124	1983.871	1611.182
-50.173	23.915	1967.646	1587.160
-49.159	42.627	2040.721	1817.301
-48.144	40.432	2053.174	1808.321
-47.130	25.569	2005.136	1632.229
-46.115	23.367	1994.586	1603.680
-45.100	23.351	1991.172	1600.721
-44.086	23.249	1988.959	1597.963
-43.071	23.223	1986.612	1595.774
-42.057	23.202	1984.839	1594.100
-41.042	23.254	1982.770	1592.842
-40.027	23.324	1980.508	1591.587
-39.013	23.215	1978.892	1589.247
-37.998	23.316	1976.995	1588.569
-36.984	23.315	1975.595	1587.376
-35.969	23.282	1973.524	1585.351
-34.954	23.248	1972.096	1583.837
-33.940	23.314	1970.174	1582.824
-32.925	23.351	1968.896	1582.064
-31.911	23.357	1967.559	1580.982
-30.896	23.356	1966.140	1579.762
-29.881	23.310	1964.880	1578.278
-28.867	23.429	1962.498	1577.363
-27.852	23.434	1960.899	1576.063
-26.838	23.563	1958.655	1575.342
-25.823	23.467	1957.409	1573.418
-24.809	23.398	1955.994	1571.614
-23.794	23.410	1954.057	1570.102
-22.779	23.435	1951.935	1568.554
-21.765	23.387	1950.942	1567.269
-20.750	23.394	1949.415	1566.045
-19.736	23.394	1947.716	1564.612
-18.721	23.417	1945.991	1563.373
-17.706	23.372	1944.657	1561.835
-16.692	23.454	1942.569	1560.823
-15.677	23.458	1941.464	1559.911
-14.663	23.374	1939.800	1557.772
-13.648	23.432	1938.203	1556.934
-12.633	23.396	1937.706	1556.155
-11.619	23.371	1936.240	1554.696
-10.604	23.451	1934.531	1553.968
-9.590	23.345	1933.419	1552.080
-8.575	23.325	1932.008	1550.712
-7.560	23.399	1930.881	1550.399
-6.546	23.395	1928.978	1548.766
-5.531	23.422	1927.988	1548.150
-4.517	23.378	1926.781	1546.739
-3.502	23.354	1926.003	1545.841
-2.487	23.316	1924.965	1544.611
-1.473	23.395	1923.523	1544.084
-0.458	23.383	1918.931	1540.234
0.556	21.573	1898.634	1510.900
1.571	17.348	1879.637	1459.473
2.586	13.582	1902.397	1444.240
3.600	12.633	1937.228	1462.133
4.615	12.556	1929.848	1455.751
5.629	9.745	1830.135	1356.792
6.644	3.772	1718.220	1226.415
7.659	0.437	1686.455	1177.629
8.673	0.182	1683.259	1173.312
9.688	0.209	1681.921	1172.484
10.702	0.172	1680.659	1171.214
11.717	0.077	1676.535	1167.494
12.731	0.543	1675.052	1169.976
13.746	5.253	1684.820	1213.346
14.761	12.387	1700.098	1279.987
15.775	16.304	1706.579	1315.326
16.790	16.795	1705.890	1318.498
17.804	15.892	1702.916	1309.065
18.819	14.945	1699.695	1299.121
19.834	14.266	1697.907	1292.375
20.848	14.083	1695.929	1289.337
21.863	13.790	1694.751	1286.053
22.877	13.566	1693.249	1283.062
23.892	13.363	1691.354	1279.944
24.907	13.281	1690.209	1278.335
25.921	13.196	1689.362	1276.922
26.936	13.285	1688.287	1276.682
27.950	13.332	1687.254	1276.151
28.965	13.334	1686.927	1275.806
29.980	13.366	1686.034	1275.264
30.994	13.431	1684.757	1274.685
32.009	13.475	1683.879	1274.252
33.023	13.472	1683.621	1273.914
34.038	13.535	1682.262	1273.261
35.053	13.614	1681.257	1272.994
36.067	13.592	1680.100	1271.837
37.082	13.459	1679.360	1270.141
38.096	13.520	1678.119	1269.560
39.111	13.463	1677.664	1268.664
40.126	13.477	1676.816	1268.023
41.140	13.549	1675.347	1267.345
42.155	13.476	1673.616	1265.368
43.169	13.322	1672.868	1263.512
44.184	13.279	1671.963	1262.392
45.199	13.270	1670.335	1260.984
46.213	13.246	1669.227	1259.852
47.228	13.298	1668.208	1259.370
48.242	13.342	1666.613	1258.388
49.257	13.374	1665.607	1257.756
50.271	13.388	1664.624	1257.011
51.286	13.351	1662.922	1255.334
52.301	13.373	1661.654	1254.435
53.315	13.435	1659.982	1253.525
54.330	13.446	1658.061	1252.051
55.344	13.310	1656.806	1249.965
56.359	13.309	1655.462	1248.835
57.374	13.249	1654.734	1247.722
58.388	13.328	1653.769	1247.478
59.403	13.387	1651.717	1246.265
60.417	13.330	1650.480	1244.793
61.432	13.281	1649.697	1243.724
62.447	13.224	1648.780	1242.493
63.461	13.184	1647.393	1241.038
64.476	13.262	1645.817	1240.325
65.490	13.188	1645.120	1239.134
66.505	13.274	1643.252	1238.260
67.520	13.286	1642.592	1237.746
68.534	13.274	1641.395	1236.642
69.549	13.313	1640.181	1235.911
70.563	13.255	1639.160	1234.599
71.578	13.282	1637.313	1233.299
72.593	13.209	1636.266	1231.860
73.607	13.200	1635.499	1231.105
74.622	13.224	1633.830	1229.919
75.636	13.100	1633.679	1228.769
76.651	13.192	1632.279	1228.297
77.666	13.106	1631.810	1227.193
78.680	13.127	1630.874	1226.541
79.695	13.175	1629.684	1225.890
80.709	13.198	1628.561	1225.110
81.724	13.162	1627.812	1224.170
82.739	13.238	1627.119	1224.103
83.753	13.278	1625.804	1223.304
84.768	13.327	1624.641	1222.677
85.782	13.362	1624.177	1222.480
86.797	13.407	1623.074	1221.873
87.812	13.350	1622.566	1220.967
88.826	13.420	1620.482	1219.800
89.841	13.320	1619.646	1218.327
90.855	13.345	1619.125	1218.012
91.870	13.320	1618.134	1216.979
92.884	13.340	1617.302	1216.394
93.899	13.394	1615.632	1215.420
94.914	13.405	1614.479	1214.532
95.928	13.485	1613.049	1213.933
96.943	13.566	1611.717	1213.416
97.957	13.476	1610.391	1211.654
98.972	13.453	1609.204	1210.486
99.987	13.495	1607.027	1209.047
101.001	13.408	1605.957	1207.500
102.016	13.395	1604.772	1206.409
103.030	13.442	1602.926	1205.255
104.045	13.346	1602.648	1204.238
105.060	13.464	1600.977	1203.734
106.074	13.439	1599.626	1202.431
107.089	13.332	1597.985	1200.313
108.103	13.297	1596.644	1198.946
109.118	13.293	1595.223	1197.746
110.133	13.179	1593.893	1195.815
111.147	13.336	1592.075	1195.479
112.162	13.261	1590.828	1193.898
113.176	13.287	1589.379	1192.893
114.191	13.278	1587.790	1191.525
115.206	13.436	1586.510	1191.600
116.220	13.406	1585.355	1190.412
117.235	13.287	1583.980	1188.417
118.249	13.351	1582.745	1187.846
119.264	13.353	1581.491	1186.815
120.279	13.300	1580.347	1185.475
121.293	13.326	1578.655	1184.281
122.308	13.363	1577.120	1183.292
123.322	13.303	1575.922	1181.860
124.337	13.295	1574.678	1180.762
125.352	13.260	1573.410	1179.457
126.366	13.336	1572.104	1178.916
127.381	13.229	1571.364	1177.493
128.395	13.299	1569.778	1176.704
129.410	13.362	1568.117	1175.800
130.424	13.285	1566.805	1174.165
131.439	13.313	1565.488	1173.274
132.454	13.408	1563.973	1172.709
133.468	13.370	1562.980	1171.589
134.483	13.386	1561.387	1170.406
135.497	13.408	1559.841	1169.297
136.512	13.276	1558.804	1167.489
137.527	13.357	1557.548	1167.016
138.541	13.406	1556.092	1166.165
139.556	13.457	1554.570	1165.284
140.570	13.529	1552.878	1164.417
141.585	13.485	1551.495	1162.967
142.600	13.489	1550.575	1162.199
143.614	13.456	1549.623	1161.155
144.629	13.521	1548.371	1160.565
145.643	13.634	1546.773	1160.058
146.658	13.571	1545.509	1158.568
147.673	13.598	1543.754	1157.336
148.687	13.557	1542.276	1155.845
149.702	13.621	1541.082	1155.294
150.716	13.508	1539.305	1153.072
151.731	13.617	1537.729	1152.547
152.746	13.565	1536.838	1151.417
153.760	13.588	1535.131	1150.191
154.775	13.629	1533.868	1149.431
155.789	13.631	1532.713	1148.476
156.804	13.541	1531.677	1146.972
157.819	13.665	1530.255	1146.665
158.833	13.647	1529.266	1145.702
159.848	13.646	1527.948	1144.604
160.862	13.734	1526.572	1144.078
161.877	13.735	1525.463	1143.154
162.892	13.706	1524.427	1142.078
163.906	13.631	1523.128	1140.485
164.921	13.677	1521.601	1139.559
165.935	13.588	1521.132	1138.493
166.950	13.673	1519.452	1137.722
167.964	13.728	1518.286	1137.125
168.979	13.698	1517.255	1136.045
169.994	13.676	1516.254	1135.041
171.008	13.652	1515.172	1133.966
172.023	13.691	1514.646	1133.742
173.037	13.772	1513.026	1132.980
174.052	13.879	1511.506	1132.470
175.067	13.770	1510.867	1131.153
176.081	13.820	1509.674	1130.497
177.096	13.767	1508.268	1128.983
178.110	13.776	1506.844	1127.882
179.125	13.775	1506.193	1127.287
180.140	13.740	1504.987	1126.047
181.154	13.834	1503.760	1125.668
182.169	13.850	1502.469	1124.711
183.183	13.796	1501.291	1123.362
184.198	13.903	1500.384	1123.311
185.213	14.035	1499.418	1123.378
186.227	13.947	1498.445	1121.954
187.242	14.032	1496.593	1121.043
188.256	14.039	1495.706	1120.326
189.271	14.026	1494.658	1119.357
190.286	14.044	1493.849	1118.774
191.300	13.973	1493.038	1117.585
192.315	13.981	1491.186	1116.158
193.329	13.907	1490.024	1114.692
194.344	13.849	1489.033	1113.461
195.359	13.892	1487.887	1112.791
196.373	13.995	1486.801	1112.576
197.388	14.070	1485.534	1112.028
198.402	14.080	1484.909	1111.532
199.417	14.104	1483.575	1110.592
200.432	14.153	1482.770	1110.216
201.446	14.118	1482.233	1109.483
202.461	14.232	1480.876	1109.130
203.475	14.231	1479.302	1107.844
204.490	14.272	1477.816	1106.906
205.504	14.262	1477.161	1106.254
206.519	14.287	1475.958	1105.418
207.534	14.229	1474.722	1104.014
208.548	14.185	1473.908	1103.011
209.563	14.243	1472.882	1102.535
210.577	14.179	1472.356	1101.614
211.592	14.162	1471.320	1100.634
212.607	14.264	1470.363	1100.490
213.621	14.316	1469.704	1100.244
214.636	14.401	1468.486	1099.796
215.650	14.362	1467.372	1098.607
216.665	14.359	1466.816	1098.074
217.680	14.338	1465.713	1097.014
218.694	14.408	1464.914	1096.782
219.709	14.457	1463.931	1096.272
220.723	14.528	1462.543	1095.602
221.738	14.329	1462.584	1094.229
222.753	14.431	1461.337	1093.864
223.767	14.451	1460.217	1093.064
224.782	14.443	1459.239	1092.182
225.796	14.456	1458.379	1091.523
226.811	14.576	1457.554	1091.594
227.826	14.602	1456.678	1091.015
228.840	14.460	1456.284	1089.692
229.855	14.484	1454.853	1088.684
230.869	14.507	1454.070	1088.151
231.884	14.497	1452.989	1087.183
232.899	14.526	1451.454	1086.125
233.913	14.492	1450.472	1085.073
234.928	14.501	1449.331	1084.179
235.942	14.475	1447.870	1082.823
236.957	14.538	1446.952	1082.450
237.972	14.523	1445.617	1081.258
238.986	14.548	1444.502	1080.494
240.001	14.538	1443.709	1079.734
241.015	14.554	1442.787	1079.055
242.030	14.484	1441.857	1077.810
243.045	14.612	1440.252	1077.345
244.059	14.688	1439.632	1077.276
245.074	14.665	1438.913	1076.494
246.088	14.738	1438.054	1076.228
247.103	14.723	1437.361	1075.513
248.117	14.780	1436.473	1075.122
249.132	14.732	1435.967	1074.340
250.147	14.912	1434.728	1074.473
251.161	15.007	1434.042	1074.473
252.176	14.890	1433.758	1073.417
253.190	15.072	1432.555	1073.589
254.205	14.929	1432.131	1072.258
255.220	14.958	1430.824	1071.374
256.234	14.998	1430.216	1071.075
257.249	15.045	1429.464	1070.718
258.263	15.122	1428.461	1070.364
259.278	15.140	1427.734	1069.842
260.293	15.060	1426.590	1068.378
261.307	15.125	1425.672	1068.008
262.322	15.169	1424.986	1067.687
263.336	15.156	1424.694	1067.287
264.351	15.186	1423.165	1066.237
265.366	15.211	1422.379	1065.713
266.380	15.140	1421.535	1064.537
267.395	15.166	1420.524	1063.849
268.409	15.262	1419.820	1063.835
269.424	15.296	1418.706	1063.125
270.439	15.295	1417.123	1061.837
271.453	15.322	1416.224	1061.242
272.468	15.195	1416.286	1060.391
273.482	15.194	1415.262	1059.524
274.497	15.224	1414.470	1059.028
275.512	15.348	1412.991	1058.606
276.526	15.289	1412.478	1057.759
277.541	15.310	1411.217	1056.852
278.555	15.250	1410.358	1055.739
279.570	15.304	1409.550	1055.380
280.585	15.345	1408.723	1054.927
281.599	15.362	1408.119	1054.484
282.614	15.424	1407.064	1053.991
283.628	15.349	1405.821	1052.498
284.643	15.350	1404.782	1051.632
285.657	15.402	1403.802	1051.135
286.672	15.474	1402.776	1050.719
287.687	15.481	1401.839	1049.969
288.701	15.366	1401.377	1048.814
289.716	15.426	1400.351	1048.328
290.730	15.420	1399.478	1047.544
291.745	15.518	1398.348	1047.214
292.760	15.426	1397.464	1045.889
293.774	15.502	1396.552	1045.588
294.789	15.503	1395.294	1044.559
295.803	15.614	1394.678	1044.696
296.818	15.566	1393.871	1043.696
297.833	15.553	1392.730	1042.673
298.847	15.571	1391.538	1041.796
299.862	15.615	1390.557	1041.243
300.876	15.591	1389.646	1040.320
301.891	15.619	1388.755	1039.736
302.906	15.709	1387.934	1039.583
303.920	15.614	1387.578	1038.641
304.935	15.639	1386.770	1038.096
305.949	15.711	1386.273	1038.077
306.964	15.826	1384.882	1037.651
307.979	15.842	1383.916	1036.934
308.993	15.794	1382.687	1035.629
310.008	15.830	1382.174	1035.371
311.022	15.803	1381.149	1034.350
312.037	15.815	1380.471	1033.822
313.052	15.977	1378.919	1033.561
314.066	15.938	1378.214	1032.703
315.081	15.896	1377.110	1031.527
316.095	15.852	1375.918	1030.273
317.110	15.664	1375.565	1028.766
318.125	15.887	1374.250	1029.060
319.139	15.773	1373.331	1027.580
320.154	15.853	1372.480	1027.341
321.168	15.917	1370.978	1026.515
322.183	15.828	1370.549	1025.562
323.197	15.931	1369.619	1025.402
324.212	16.019	1368.543	1025.045
325.227	15.822	1367.952	1023.313
326.241	15.877	1367.365	1023.119
327.256	16.036	1365.914	1022.908
328.270	15.932	1365.397	1021.799
329.285	15.945	1364.498	1021.115
330.300	15.868	1363.543	1019.839
331.314	15.964	1362.226	1019.347
332.329	16.122	1360.820	1019.157
333.343	15.970	1360.382	1017.821
334.358	16.027	1360.101	1017.868
335.373	16.109	1359.072	1017.501
336.387	16.022	1358.437	1016.411
337.402	16.080	1357.346	1015.853
338.416	16.142	1356.768	1015.707
339.431	16.105	1356.193	1014.962
340.446	16.262	1355.303	1015.151
341.460	16.223	1354.654	1014.339
342.475	16.216	1353.525	1013.362
343.489	16.382	1352.361	1013.397
344.504	16.392	1351.265	1012.544
345.519	16.265	1351.065	1011.549
346.533	16.336	1349.783	1010.922
347.548	16.386	1348.856	1010.439
348.562	16.463	1347.778	1010.003
349.577	16.480	1347.564	1009.850
350.592	16.478	1346.755	1009.147
351.606	16.474	1345.974	1008.448
352.621	16.529	1344.182	1007.343
353.635	16.383	1343.645	1005.983
354.650	16.375	1342.525	1005.006
355.665	16.380	1341.792	1004.396
356.679	16.397	1340.729	1003.615
357.694	16.371	1339.694	1002.597
358.708	16.433	1338.277	1001.817
359.723	16.495	1337.177	1001.272
360.738	16.557	1336.318	1000.903
361.752	16.466	1335.185	999.429
362.767	16.604	1333.945	999.230
363.781	16.568	1333.188	998.358
364.796	16.528	1332.687	997.664
365.810	16.643	1331.689	997.503
366.825	16.581	1331.207	996.691
367.840	16.576	1330.778	996.248
368.854	16.702	1329.931	996.271
369.869	16.705	1329.274	995.708
370.883	16.789	1328.536	995.560
371.898	16.833	1327.426	994.898
372.913	16.709	1327.098	993.836
373.927	16.712	1325.996	992.940
374.942	16.747	1324.989	992.302
375.956	16.704	1324.691	991.739
376.971	16.862	1323.711	991.842
377.986	16.811	1322.852	990.812
379.000	16.832	1322.087	990.276
380.015	16.903	1321.340	990.044
381.029	16.925	1319.985	989.070
382.044	16.935	1319.467	988.654
383.059	16.934	1318.999	988.211
384.073	16.963	1318.625	988.009
385.088	17.002	1317.390	987.225
386.102	16.924	1317.640	986.872
387.117	17.023	1316.603	986.583
388.132	17.101	1315.273	985.949
389.146	17.037	1314.939	985.244
390.161	17.015	1313.600	984.024
391.175	16.911	1313.126	982.979
392.190	17.008	1312.092	982.680
393.205	17.051	1311.239	982.202
394.219	17.088	1310.306	981.631
395.234	17.147	1309.232	981.079
396.248	17.018	1308.228	979.494
397.263	17.066	1306.965	978.740
398.278	17.041	1305.618	977.501
399.292	17.120	1304.030	976.680
400.307	17.106	1303.412	976.050
401.321	16.957	1302.469	974.403
402.336	16.984	1301.938	974.071
403.350	17.090	1300.179	973.278
404.365	17.052	1299.462	972.440
405.380	17.081	1298.560	971.845
406.394	17.156	1297.844	971.649
407.409	17.196	1296.811	971.021
408.423	17.170	1296.473	970.531
409.438	17.341	1295.689	970.838
410.453	17.289	1294.957	969.905
411.467	17.369	1294.183	969.694
412.482	17.377	1293.648	969.257
413.496	17.355	1293.153	968.671
414.511	17.398	1292.007	967.974
415.526	17.402	1291.260	967.353
416.540	17.548	1290.803	967.755
417.555	17.458	1290.293	966.772
418.569	17.513	1289.605	966.481
419.584	17.476	1288.857	965.630
420.599	17.579	1288.406	965.790
421.613	100.315	1360.782	1488.657
422.628	98.214	1371.245	1488.740
