DTS Sentinel unit serial number:	SN413079Multiplexer serial number:	ORYXHardware model number:	OX4-SRSoftware version number:	ORYX F/W v4.00 Oryx Data Collector v3.7.2.0data status	okinstallation	princeton_trtdifferential loss correction	single-endedforward channel	channel 4reverse channel	N/Adate	2019/09/13time	08:49:35forward acquisition time	60.00reverse acquisition time	0.00gamma	496.2192k internal	0.2315k external	0.2315temperature offset calibration	1.0200default loss term (dB/km)	0.3790temperature slope calibration	1.0000multiplexer offset coefficient	1.0000multiplexer slope coefficient	1.0000fibre end	0.00T internal ref (°C)	28.06T ext. ref 1 (°C)	4.34T ext. ref 2 (°C)	25.01length (m)	temperature (°C)	Stokes	anti-Stokes-747.200	165.789	-0.060	-0.086
-746.185	-110.554	0.264	0.055
-745.171	246.220	0.008	0.013
-744.156	-52.043	-0.125	0.059
-743.142	800.000	0.089	0.346
-742.127	800.000	0.036	-0.139
-741.112	800.000	-0.026	0.080
-740.098	800.000	0.032	0.100
-739.083	-84.518	-0.157	0.050
-738.069	-67.451	0.150	-0.060
-737.054	800.000	0.070	0.211
-736.039	-75.587	-0.009	0.003
-735.025	21.712	0.332	-0.274
-734.010	-90.401	-0.390	-0.115
-732.996	-61.507	-0.264	0.112
-731.981	211.219	-0.218	0.347
-730.966	121.253	-0.195	-0.246
-729.952	-20.839	-0.305	-0.189
-728.937	266.925	-0.173	-0.306
-727.923	-99.048	-0.149	0.038
-726.908	-200.000	0.005	0.095
-725.894	-200.000	-0.021	0.136
-724.879	50.057	0.189	0.181
-723.864	-102.628	-0.056	0.013
-722.850	137.121	0.200	0.265
-721.835	458.462	-0.055	0.123
-720.821	-158.671	0.118	-0.007
-719.806	582.997	-0.054	0.134
-718.791	-17.296	0.145	0.092
-717.777	-200.000	0.010	0.062
-716.762	78.034	0.259	0.280
-715.748	800.000	0.029	-0.088
-714.733	201.665	-0.068	-0.105
-713.718	-52.022	0.180	-0.085
-712.704	73.314	-0.049	0.052
-711.689	-81.879	-0.161	-0.053
-710.675	-4.666	0.225	-0.157
-709.660	441.465	0.261	-0.577
-708.645	99.378	-0.207	-0.242
-707.631	-200.000	-0.047	0.295
-706.616	198.714	0.064	0.098
-705.602	-125.230	0.255	-0.040
-704.587	800.000	0.061	-0.250
-703.572	-83.983	-0.034	0.011
-702.558	85.068	0.221	0.246
-701.543	-200.000	-0.026	-0.212
-700.529	-44.832	0.204	-0.103
-699.514	-54.120	0.103	-0.047
-698.499	98.642	0.226	0.264
-697.485	174.617	-0.107	0.157
-696.470	216.675	0.006	-0.010
-695.456	-168.997	0.261	0.010
-694.441	800.000	-0.019	-0.059
-693.426	-96.885	0.204	-0.054
-692.412	62.994	0.062	0.063
-691.397	-84.909	-0.099	0.031
-690.383	-40.537	0.012	0.006
-689.368	-200.000	-0.009	0.131
-688.354	-10.050	0.294	0.198
-687.339	185.750	-0.050	0.074
-686.324	-124.076	0.281	-0.045
-685.310	634.789	-0.036	-0.093
-684.295	-200.000	-0.001	-0.054
-683.281	-200.000	-0.405	0.001
-682.266	136.942	-0.086	-0.113
-681.251	-200.000	0.014	0.092
-680.237	-179.675	0.218	-0.005
-679.222	-150.124	0.060	0.005
-678.208	119.407	-0.144	-0.180
-677.193	800.000	-0.060	0.188
-676.178	-8.799	0.240	0.163
-675.164	44.648	0.171	-0.159
-674.149	101.801	0.030	0.035
-673.135	29.462	-0.179	0.153
-672.120	74.705	0.263	0.280
-671.105	187.355	-0.048	0.072
-670.091	-147.257	-0.050	0.004
-669.076	77.646	0.111	-0.120
-668.062	-200.000	-0.035	-0.358
-667.047	401.598	0.037	0.079
-666.032	505.419	-0.089	0.209
-665.018	-163.959	-0.225	-0.011
-664.003	335.085	-0.039	0.076
-662.989	108.566	0.040	0.049
-661.974	-144.635	-0.218	0.020
-660.959	206.275	-0.058	-0.092
-659.945	-14.052	0.075	-0.049
-658.930	-69.567	-0.057	-0.022
-657.916	800.000	-0.043	-0.160
-656.901	446.480	0.066	-0.146
-655.886	-95.612	0.072	0.019
-654.872	-117.098	-0.187	0.034
-653.857	800.000	-0.053	-0.231
-652.843	72.046	-0.091	-0.095
-651.828	-22.307	0.049	-0.030
-650.814	-102.836	-0.234	0.056
-649.799	699.309	0.062	0.166
-648.784	-198.333	0.140	0.001
-647.770	800.000	0.077	0.249
-646.755	-37.198	-0.086	-0.047
-645.741	190.546	-0.054	0.081
-644.726	-200.000	-0.010	0.075
-643.711	-6.432	0.060	0.041
-642.697	159.176	-0.083	-0.117
-641.682	-136.840	-0.392	0.045
-640.668	111.229	-0.118	-0.144
-639.653	-72.196	0.163	-0.061
-638.638	79.087	-0.073	0.079
-637.624	-148.166	0.060	0.005
-636.609	-62.043	-0.318	-0.134
-635.595	193.888	0.175	-0.268
-634.580	344.108	-0.100	0.198
-633.565	-200.000	0.039	-0.301
-632.551	-33.745	-0.236	-0.132
-631.536	435.009	0.158	0.347
-630.522	-130.231	0.057	-0.008
-629.507	350.016	-0.125	-0.249
-628.492	191.281	-0.209	-0.317
-627.478	-97.854	0.494	0.129
-626.463	-200.000	-0.076	0.340
-625.449	203.755	-0.181	0.282
-624.434	-126.092	0.353	0.053
-623.419	211.492	-0.130	-0.207
-622.405	800.000	0.110	-0.335
-621.390	43.158	-0.125	-0.115
-620.376	-200.000	-0.057	-0.288
-619.361	-137.772	0.266	-0.030
-618.346	-46.504	-0.273	-0.135
-617.332	-200.000	0.040	-0.330
-616.317	-82.157	0.279	-0.092
-615.303	351.899	0.067	0.133
-614.288	108.191	0.146	0.175
-613.273	138.302	0.043	-0.056
-612.259	800.000	0.073	-0.232
-611.244	-48.801	-0.222	0.107
-610.230	163.893	-0.016	-0.023
-609.215	377.783	0.139	0.286
-608.201	209.198	0.151	-0.239
-607.186	-134.844	-0.145	0.018
-606.171	151.013	0.038	0.052
-605.157	103.190	0.196	0.231
-604.142	-56.944	-0.269	0.120
-603.128	116.632	-0.041	-0.050
-602.113	-200.000	0.023	0.257
-601.098	800.000	-0.090	-0.305
-600.084	-86.333	-0.108	-0.033
-599.069	-124.186	-0.528	-0.083
-598.055	-122.186	-0.208	0.034
-597.040	103.806	0.266	0.315
-596.025	-99.772	-0.353	0.089
-595.011	25.669	0.411	0.344
-593.996	-14.907	0.093	0.060
-592.982	571.042	-0.060	0.146
-591.967	-22.112	0.297	-0.182
-590.952	295.258	-0.162	0.298
-589.938	22.600	0.186	0.154
-588.923	-200.000	-0.054	-0.277
-587.909	147.461	-0.127	0.172
-586.894	479.796	0.126	0.287
-585.879	370.991	0.149	-0.305
-584.865	-191.329	-0.155	0.002
-583.850	-109.923	0.349	-0.074
-582.836	-141.381	0.237	-0.024
-581.821	-113.717	-0.231	0.045
-580.806	89.755	0.206	0.231
-579.792	-200.000	-0.009	-0.254
-578.777	-82.360	0.328	-0.107
-577.763	616.550	-0.149	-0.376
-576.748	361.308	-0.054	-0.108
-575.733	83.176	0.071	-0.078
-574.719	-92.013	0.223	-0.064
-573.704	425.767	-0.060	0.129
-572.690	-105.009	-0.102	-0.023
-571.675	-99.519	0.319	0.081
-570.661	453.944	0.076	0.169
-569.646	-200.000	-0.038	-0.226
-568.631	-22.864	-0.152	-0.092
-567.617	74.244	-0.170	0.179
-566.602	-104.800	0.257	-0.059
-565.588	-200.000	-0.009	-0.185
-564.573	146.679	0.041	-0.056
-563.558	6.142	0.202	-0.151
-562.544	-200.000	0.016	0.102
-561.529	-98.941	0.210	-0.054
-560.515	800.000	0.052	0.160
-559.500	68.548	0.183	0.188
-558.485	-16.709	-0.130	-0.083
-557.471	800.000	-0.018	0.064
-556.456	-86.449	0.283	-0.087
-555.442	186.023	-0.191	0.286
-554.427	416.600	-0.044	-0.094
-553.412	-146.200	0.298	-0.026
-552.398	542.034	0.131	0.314
-551.383	15.503	-0.195	-0.154
-550.369	-49.985	-0.294	0.140
-549.354	-123.688	0.714	-0.114
-548.339	-200.000	-0.018	-0.286
-547.325	-200.000	0.019	0.091
-546.310	800.000	0.070	0.210
-545.296	-161.373	-0.210	0.011
-544.281	20.598	0.131	-0.106
-543.266	72.754	-0.087	-0.092
-542.252	93.410	0.068	-0.077
-541.237	-96.067	0.291	0.078
-540.223	332.051	-0.118	-0.228
-539.208	386.619	-0.054	0.112
-538.193	800.000	-0.029	-0.087
-537.179	-200.000	0.024	-0.366
-536.164	154.036	-0.131	-0.180
-535.150	-27.491	0.094	-0.055
-534.135	89.197	0.179	0.200
-533.121	-200.000	0.005	-0.113
-532.106	-125.846	-0.361	-0.055
-531.091	-45.773	0.203	-0.101
-530.077	616.061	0.003	0.007
-529.062	341.868	-0.086	-0.168
-528.048	-66.467	-0.125	0.050
-527.033	-152.528	0.092	-0.007
-526.018	-177.138	0.247	0.006
-525.004	-98.855	-0.052	-0.013
-523.989	420.626	0.167	-0.360
-522.975	-166.412	-0.329	-0.014
-521.960	120.658	-0.162	-0.203
-520.945	-97.220	-0.072	0.019
-519.931	-162.833	-0.266	0.013
-518.916	-200.000	0.026	-0.143
-517.902	315.975	0.035	-0.067
-516.887	2.083	-0.122	-0.088
-515.872	692.991	-0.033	0.086
-514.858	-74.080	0.105	-0.038
-513.843	-127.580	-0.152	-0.022
-512.829	2.196	-0.257	0.186
-511.814	11.936	0.088	0.068
-510.799	-77.409	0.364	-0.127
-509.785	222.137	-0.202	0.326
-508.770	216.261	0.099	-0.158
-507.756	34.778	0.126	0.111
-506.741	74.567	-0.295	-0.312
-505.726	-80.374	-0.366	-0.123
-504.712	-16.618	-0.163	0.104
-503.697	-200.000	-0.034	-0.225
-502.683	121.942	0.241	-0.301
-501.668	-119.270	0.093	0.016
-500.653	-200.000	0.030	-0.316
-499.639	-200.000	0.044	0.276
-498.624	-105.522	-0.188	-0.043
-497.610	113.022	0.166	-0.201
-496.595	5.197	-0.314	0.232
-495.581	-200.000	0.002	0.115
-494.566	320.650	-0.102	0.194
-493.551	-90.576	-0.141	-0.041
-492.537	465.979	-0.193	0.433
-491.522	-92.994	-0.099	0.028
-490.508	443.697	0.085	-0.187
-489.493	-117.837	0.243	-0.044
-488.478	800.000	-0.100	-0.385
-487.464	17.785	0.201	0.160
-486.449	245.445	0.027	-0.046
-485.435	-8.683	-0.160	-0.108
-484.420	-18.184	0.327	0.205
-483.405	295.734	0.044	0.081
-482.391	800.000	-0.061	0.179
-481.376	524.365	0.088	-0.207
-480.362	230.806	0.032	0.052
-479.347	-114.310	-0.148	0.029
-478.332	-127.062	0.279	-0.041
-477.318	-200.000	0.036	0.358
-476.303	564.375	0.161	0.391
-475.289	247.082	-0.054	0.091
-474.274	165.936	0.177	-0.251
-473.259	95.357	-0.048	0.055
-472.245	23.198	0.226	-0.186
-471.230	759.487	-0.116	-0.315
-470.216	18.334	-0.280	0.224
-469.201	-146.986	0.247	-0.021
-468.186	-200.000	0.042	0.267
-467.172	-200.000	0.045	0.291
-466.157	-112.115	0.153	0.031
-465.143	-200.000	0.007	-0.135
-464.128	10.267	-0.264	-0.201
-463.113	-25.603	-0.118	0.070
-462.099	88.484	0.216	-0.240
-461.084	-200.000	-0.011	-0.212
-460.070	-117.546	-0.068	-0.012
-459.055	176.200	0.009	0.012
-458.040	-23.423	0.171	0.103
-457.026	-148.175	-0.128	-0.011
-456.011	-34.057	-0.242	0.133
-454.997	204.400	-0.073	0.113
-453.982	-200.000	0.015	-0.282
-452.968	38.152	-0.256	-0.228
-451.953	-200.000	0.014	-0.130
-450.938	-200.000	-0.011	-0.112
-449.924	42.530	-0.089	0.081
-448.909	-200.000	-0.023	-0.322
-447.895	-200.000	-0.031	0.260
-446.880	58.655	0.282	-0.278
-445.865	-22.414	-0.037	-0.023
-444.851	-82.592	0.104	0.034
-443.836	-21.823	0.151	-0.092
-442.822	-124.184	0.210	0.033
-441.807	-200.000	0.095	0.467
-440.792	-200.000	0.035	0.215
-439.778	279.034	-0.189	0.337
-438.763	-125.406	-0.214	-0.033
-437.749	250.168	0.096	0.163
-436.734	-41.813	-0.187	0.096
-435.719	-60.200	0.281	-0.120
-434.705	-72.030	0.091	-0.034
-433.690	-154.958	-0.375	0.025
-432.676	-200.000	-0.013	-0.120
-431.661	140.562	0.092	0.121
-430.646	137.934	0.083	-0.108
-429.632	-139.400	-0.240	-0.026
-428.617	800.000	-0.044	-0.178
-427.603	688.457	-0.055	-0.145
-426.588	-14.364	0.348	-0.224
-425.573	168.490	-0.187	-0.267
-424.559	-131.207	0.211	-0.028
-423.544	-200.000	-0.005	-0.214
-422.530	-7.586	0.144	0.097
-421.515	-110.456	0.385	0.080
-420.500	30.625	-0.016	-0.013
-419.486	-22.587	-0.250	-0.151
-418.471	-118.384	-0.111	-0.020
-417.457	112.199	0.160	-0.194
-416.442	292.306	0.138	-0.251
-415.428	128.766	-0.138	-0.176
-414.413	800.000	0.144	0.401
-413.398	-7.047	-0.110	0.075
-412.384	-59.485	0.082	-0.035
-411.369	-97.532	-0.279	-0.073
-410.355	-103.189	0.471	0.111
-409.340	115.563	0.102	0.125
-408.325	25.834	-0.120	0.100
-407.311	-38.038	-0.083	0.044
-406.296	-200.000	0.280	0.000
-405.282	-200.000	-0.016	0.339
-404.267	-45.229	0.089	0.044
-403.252	-124.579	-0.183	0.028
-402.238	220.611	-0.144	0.231
-401.223	-15.081	0.240	0.154
-400.209	-133.729	0.088	-0.011
-399.194	-200.000	0.042	0.459
-398.179	235.930	-0.063	0.104
-397.165	800.000	-0.030	-0.126
-396.150	-51.725	-0.201	-0.094
-395.136	45.228	0.187	-0.172
-394.121	-200.000	0.028	0.305
-393.106	110.395	0.146	-0.175
-392.092	97.024	0.029	-0.033
-391.077	72.879	-0.082	0.085
-390.063	-134.323	0.383	0.047
-389.048	-7.369	0.236	0.160
-388.033	18.137	0.152	0.122
-387.019	48.919	0.224	-0.210
-386.004	-26.225	-0.198	-0.116
-384.990	448.188	0.068	0.151
-383.975	85.388	0.211	0.232
-382.960	-200.000	-0.009	-0.316
-381.946	607.978	-0.085	-0.211
-380.931	51.795	-0.084	-0.080
-379.917	800.000	-0.057	-0.233
-378.902	430.251	-0.030	0.065
-377.888	139.496	0.089	-0.117
-376.873	284.232	-0.158	0.283
-375.858	-143.344	-0.364	-0.035
-374.844	-58.434	-0.318	0.138
-373.829	78.837	-0.358	-0.383
-372.815	105.122	0.139	-0.163
-371.800	-11.130	0.219	-0.144
-370.785	-32.748	-0.381	0.212
-369.771	-72.876	0.209	-0.077
-368.756	-200.000	0.034	0.198
-367.742	800.000	0.013	0.056
-366.727	123.394	-0.220	-0.276
-365.712	107.238	0.163	0.193
-364.698	21.222	-0.139	0.112
-363.683	308.214	0.121	0.226
-362.669	331.908	-0.047	-0.091
-361.654	217.835	-0.093	-0.148
-360.639	638.781	-0.040	0.102
-359.625	800.000	0.075	0.221
-358.610	-192.848	-0.172	-0.002
-357.596	-103.158	-0.163	-0.039
-356.581	25.228	-0.113	-0.094
-355.566	-115.799	-0.377	-0.070
-354.552	113.438	-0.109	0.132
-353.537	-18.099	0.286	-0.179
-352.523	-42.632	0.284	-0.144
-351.508	-200.000	-0.036	-0.307
-350.493	-109.963	0.341	0.071
-349.479	-200.000	0.002	-0.135
-348.464	-26.656	-0.147	-0.086
-347.450	-13.407	-0.139	-0.090
-346.435	-96.721	-0.150	0.039
-345.420	-200.000	0.046	-0.278
-344.406	-200.000	-0.118	0.000
-343.391	-57.280	-0.332	-0.145
-342.377	-18.691	0.286	-0.178
-341.362	-1.682	-0.227	-0.160
-340.348	-81.011	-0.048	0.016
-339.333	-39.672	0.204	0.107
-338.318	576.224	-0.042	0.103
-337.304	-200.000	0.005	-0.096
-336.289	40.072	-0.078	0.070
-335.275	-160.319	0.252	-0.014
-334.260	-64.055	0.218	0.089
-333.245	-84.335	-0.067	0.021
-332.231	7.813	0.106	0.079
-331.216	59.838	-0.163	-0.160
-330.202	-200.000	-0.019	-0.118
-329.187	-200.000	-0.007	-0.478
-328.172	-33.392	0.232	-0.128
-327.158	139.640	-0.124	0.163
-326.143	-90.429	-0.062	0.018
-325.129	-10.496	-0.164	-0.108
-324.114	456.850	0.140	-0.310
-323.099	-143.962	-0.219	-0.020
-322.085	-125.637	-0.193	0.029
-321.070	-200.000	0.082	-0.414
-320.056	-85.868	-0.116	0.036
-319.041	26.109	-0.120	0.100
-318.026	-29.093	0.176	-0.101
-317.012	-200.000	-0.013	-0.071
-315.997	9.159	-0.060	-0.045
-314.983	800.000	0.076	0.295
-313.968	-52.834	-0.245	-0.113
-312.953	-200.000	-0.037	-0.216
-311.939	75.492	-0.009	0.009
-310.924	-103.525	0.172	0.040
-309.910	-99.171	-0.317	0.080
-308.895	-44.979	0.259	-0.128
-307.880	-141.404	0.239	-0.024
-306.866	22.300	0.284	-0.231
-305.851	-200.000	0.030	-0.230
-304.837	56.261	0.191	0.185
-303.822	-145.145	0.225	0.020
-302.807	-130.737	-0.527	0.071
-301.793	396.534	0.029	0.060
-300.778	378.448	0.133	0.272
-299.764	-200.000	-0.074	0.457
-298.749	-69.047	-0.115	-0.044
-297.735	-6.745	0.053	0.036
-296.720	-112.406	-0.352	0.070
-295.705	471.867	0.086	0.194
-294.691	763.721	-0.107	0.288
-293.676	800.000	-0.093	-0.291
-292.662	-65.660	-0.385	0.154
-291.647	-200.000	0.022	-0.149
-290.632	75.343	0.135	-0.142
-289.618	122.827	-0.088	-0.109
-288.603	-61.351	0.129	-0.054
-287.589	127.280	0.149	0.189
-286.574	-200.000	0.004	-0.429
-285.559	-200.000	0.029	-0.160
-284.545	-200.000	-0.062	0.357
-283.530	148.589	-0.280	0.376
-282.516	95.955	0.098	-0.112
-281.501	-74.541	-0.317	-0.114
-280.486	-34.748	-0.051	-0.028
-279.472	-37.878	0.050	0.026
-278.457	134.681	-0.102	-0.132
-277.443	11.377	-0.118	0.090
-276.428	13.176	-0.121	-0.093
-275.413	89.855	0.093	-0.104
-274.399	299.942	0.030	0.055
-273.384	281.266	0.090	0.161
-272.370	-200.000	0.097	0.000
-271.355	-28.932	-0.282	0.161
-270.340	-94.895	0.217	0.059
-269.326	219.099	-0.096	0.152
-268.311	-59.642	-0.427	0.182
-267.297	800.000	0.049	0.139
-266.282	-139.341	-0.239	-0.026
-265.267	160.584	0.176	-0.245
-264.253	-111.655	0.426	-0.086
-263.238	-74.440	-0.182	0.065
-262.224	-63.691	0.138	0.056
-261.209	-83.691	-0.031	0.010
-260.195	15.493	0.097	-0.076
-259.180	800.000	-0.070	0.255
-258.165	-29.360	-0.170	0.097
-257.151	333.552	-0.158	-0.303
-256.136	493.023	-0.048	0.110
-255.122	800.000	0.075	0.206
-254.107	-114.076	0.228	-0.044
-253.092	800.000	-0.104	-0.308
-252.078	-73.599	0.142	-0.051
-251.063	444.807	0.164	0.358
-250.049	-99.294	-0.424	0.106
-249.034	-200.000	-0.051	0.222
-248.019	-137.111	0.136	0.015
-247.005	-107.181	-0.145	0.032
-245.990	88.953	0.286	0.316
-244.976	-200.000	0.037	-0.253
-243.961	145.242	0.109	0.145
-242.946	-1.396	-0.163	0.114
-241.932	-115.950	0.397	0.074
-240.917	25.099	-0.294	0.242
-239.903	-91.455	-0.156	0.044
-238.888	-114.819	0.093	0.018
-237.873	-200.000	-0.007	0.214
-236.859	127.126	0.253	-0.318
-235.844	-200.000	0.055	0.379
-234.830	487.409	0.053	0.119
-233.815	-19.613	-0.193	-0.119
-232.800	-112.714	0.115	-0.023
-231.786	3.101	0.198	-0.143
-230.771	-200.000	0.012	-0.073
-229.757	-200.000	0.048	0.243
-228.742	-171.961	-0.333	-0.011
-227.727	-27.465	-0.072	-0.042
-226.713	132.984	-0.128	-0.164
-225.698	-68.930	-0.066	-0.025
-224.684	-131.048	-0.233	0.031
-223.669	185.630	-0.162	-0.239
-222.655	-119.479	0.220	-0.038
-221.640	-170.607	0.163	0.006
-220.625	800.000	-0.124	0.414
-219.611	523.110	0.100	-0.234
-218.596	73.545	0.135	-0.140
-217.582	800.000	-0.072	0.291
-216.567	100.974	0.138	0.160
-215.552	-92.808	0.292	-0.081
-214.538	42.609	0.140	-0.126
-213.523	-200.000	-0.049	0.286
-212.509	-96.304	0.105	0.028
-211.494	27.093	-0.206	0.172
-210.479	-115.371	-0.307	0.057
-209.465	-200.000	0.039	-0.228
-208.450	285.525	-0.080	-0.142
-207.436	-140.936	0.232	-0.024
-206.421	175.657	0.078	0.113
-205.406	-185.959	0.381	0.006
-204.392	-200.000	-0.011	-0.092
-203.377	800.000	0.087	0.288
-202.363	189.233	0.383	0.569
-201.348	-128.739	-0.484	-0.068
-200.333	-200.000	0.065	-0.337
-199.319	800.000	-0.059	-0.239
-198.304	196.895	-0.065	0.098
-197.290	-200.000	0.034	-0.147
-196.275	-200.000	-0.006	-0.425
-195.260	-34.012	-0.207	0.113
-194.246	-200.000	-0.038	0.226
-193.231	-52.342	0.472	-0.217
-192.217	-107.902	0.365	0.079
-191.202	51.365	-0.200	0.188
-190.187	-1.652	-0.231	0.161
-189.173	-122.885	-0.410	-0.066
-188.158	-55.531	0.043	-0.019
-187.144	-153.435	0.207	-0.014
-186.129	49.741	-0.056	-0.053
-185.114	-111.713	-0.282	0.057
-184.100	737.526	0.063	0.167
-183.085	-74.751	-0.254	-0.091
-182.071	800.000	0.135	0.395
-181.056	-19.729	-0.307	0.188
-180.042	-200.000	0.008	0.056
-179.027	-200.000	-0.025	0.236
-178.012	800.000	0.083	-0.234
-176.998	189.204	-0.263	0.391
-175.983	-13.582	0.350	0.224
-174.969	-200.000	-0.014	0.177
-173.954	-140.222	0.198	0.021
-172.939	-19.273	0.091	-0.056
-171.925	-170.669	0.110	-0.004
-170.910	-155.001	-0.166	0.011
-169.896	41.621	0.241	0.216
-168.881	-118.167	0.201	-0.035
-167.866	150.611	-0.239	0.322
-166.852	29.130	-0.089	0.075
-165.837	58.779	0.172	-0.168
-164.823	800.000	0.086	0.303
-163.808	148.682	-0.122	-0.163
-162.793	-37.349	-0.313	0.166
-161.779	129.128	-0.039	0.049
-160.764	-74.840	-0.254	-0.090
-159.750	-81.123	0.210	0.069
-158.735	410.880	-0.177	-0.373
-157.720	800.000	-0.071	0.194
-156.706	151.461	-0.141	-0.190
-155.691	600.916	-0.022	-0.055
-154.677	290.303	-0.039	0.070
-153.662	58.333	-0.015	0.015
-152.647	-200.000	0.002	-0.102
-151.633	-200.000	0.009	-0.126
-150.618	-83.507	0.408	-0.129
-149.604	-60.443	-0.136	-0.057
-148.589	-200.000	0.048	0.306
-147.574	-120.417	0.345	-0.058
-146.560	37.581	0.220	-0.193
-145.545	-147.627	0.186	-0.015
-144.531	-57.162	0.272	-0.118
-143.516	13.457	0.091	0.070
-142.502	684.774	-0.117	-0.302
-141.487	-57.107	-0.214	-0.093
-140.472	-196.120	-0.166	0.001
-139.458	208.608	0.092	0.142
-138.443	-5.538	-0.070	0.048
-137.429	800.000	0.038	0.109
-136.414	138.566	0.147	-0.191
-135.399	-200.000	-0.018	0.118
-134.385	800.000	0.044	0.132
-133.370	99.024	-0.147	0.167
-132.356	18.340	0.083	-0.065
-131.341	-53.302	-0.242	-0.110
-130.326	-200.000	0.002	-0.131
-129.312	-121.469	-0.073	0.012
-128.297	107.993	0.166	-0.195
-127.283	86.802	-0.055	0.060
-126.268	-172.039	0.170	0.005
-125.253	-1.358	-0.112	0.078
-124.239	800.000	0.022	0.073
-123.224	-200.000	-0.001	0.073
-122.210	-200.000	-0.005	0.150
-121.195	-111.727	0.550	0.110
-120.180	-200.000	-0.013	0.254
-119.166	71.405	-0.254	0.261
-118.151	-22.160	-0.191	0.114
-117.137	133.119	0.144	0.184
-116.122	-191.639	0.471	-0.005
-115.107	-200.000	0.003	-0.082
-114.093	-136.001	-0.278	0.032
-113.078	-200.000	0.022	0.116
-112.064	-22.758	-0.200	0.119
-111.049	-43.327	0.389	0.195
-110.034	-200.000	0.055	0.282
-109.020	-54.208	-0.291	0.131
-108.005	-6.564	-0.105	-0.071
-106.991	28.832	-0.128	0.108
-105.976	-151.988	0.434	-0.031
-104.962	541.261	-0.029	-0.068
-103.947	13.528	-0.184	0.141
-102.932	800.000	-0.146	0.464
-101.918	-137.348	0.250	-0.028
-100.903	800.000	0.088	0.314
-99.889	18.258	0.210	0.165
-98.874	-56.560	-0.082	0.036
-97.859	-144.382	-0.366	0.034
-96.845	10.063	0.147	0.111
-95.830	0.025	0.199	0.140
-94.816	-92.751	0.075	-0.021
-93.801	-51.378	-0.270	-0.125
-92.786	-5.954	0.145	-0.098
-91.772	-79.525	0.463	0.155
-90.757	800.000	-0.088	-0.357
-89.743	-106.386	0.266	0.059
-88.728	378.148	-0.064	0.129
-87.713	0.472	0.288	0.203
-86.699	561.663	0.083	0.198
-85.684	577.859	0.067	0.163
-84.670	-200.000	0.011	-0.158
-83.655	-200.000	-0.015	0.193
-82.640	-0.680	-0.216	-0.152
-81.626	-99.196	0.138	-0.034
-80.611	800.000	0.044	-0.132
-79.597	10.055	0.193	0.144
-78.582	-75.614	0.096	-0.034
-77.567	-200.000	-0.009	-0.162
-76.553	471.278	0.127	0.281
-75.538	-0.727	-0.231	0.162
-74.524	9.381	0.272	-0.203
-73.509	-38.337	-0.066	0.034
-72.494	-16.923	0.083	-0.052
-71.480	-122.781	0.220	-0.035
-70.465	-146.718	0.207	0.018
-69.451	-44.142	-0.218	-0.108
-68.436	-64.973	0.289	0.115
-67.422	38.380	0.072	-0.063
-66.407	-27.097	0.098	0.056
-65.392	-124.053	0.306	0.047
-64.378	377.776	0.047	0.096
-63.363	-90.978	0.246	0.070
-62.349	321.527	-0.140	-0.262
-61.334	43.205	-1.127	-1.015
-60.319	129.727	0.462	0.582
-59.305	482.924	-0.460	-1.032
-58.290	337.121	0.789	1.513
-57.276	316.058	0.753	1.402
-56.261	-200.000	110.919	604.926
-55.246	489.150	1529.937	3448.301
-54.232	170.294	2721.828	3841.481
-53.217	97.884	2341.647	2656.437
-52.203	34.479	2086.947	1797.050
-51.188	29.930	2002.242	1682.797
-50.173	28.415	1986.288	1655.649
-49.159	44.501	2046.425	1853.934
-48.144	44.323	2062.285	1866.589
-47.130	30.342	2019.263	1700.612
-46.115	28.068	2009.101	1671.230
-45.100	28.038	2006.042	1668.348
-44.086	27.941	2003.993	1665.688
-43.071	27.904	2001.294	1663.046
-42.057	27.911	1999.017	1661.149
-41.042	27.956	1997.217	1660.001
-40.027	27.999	1996.104	1659.398
-39.013	27.984	1993.630	1657.135
-37.998	27.955	1992.007	1655.462
-36.984	27.997	1989.685	1653.845
-35.969	27.947	1987.715	1651.690
-34.954	27.983	1986.253	1650.733
-33.940	27.996	1984.771	1649.553
-32.925	28.083	1983.268	1649.027
-31.911	28.037	1981.577	1647.138
-30.896	28.002	1980.136	1645.556
-29.881	28.078	1977.914	1644.330
-28.867	28.095	1976.972	1643.636
-27.852	28.070	1975.022	1641.721
-26.838	28.134	1973.034	1640.583
-25.823	28.086	1971.595	1638.886
-24.809	28.123	1969.312	1637.255
-23.794	28.097	1967.682	1635.604
-22.779	28.084	1965.508	1633.615
-21.765	28.128	1963.804	1632.532
-20.750	28.066	1962.109	1630.500
-19.736	28.028	1961.126	1629.285
-18.721	28.135	1959.040	1628.435
-17.706	28.077	1957.830	1626.848
-16.692	28.108	1955.631	1625.237
-15.677	28.048	1954.362	1623.578
-14.663	28.186	1952.855	1623.491
-13.648	28.046	1951.988	1621.460
-12.633	28.082	1950.574	1620.543
-11.619	28.168	1948.943	1619.882
-10.604	28.124	1948.017	1618.664
-9.590	28.092	1946.502	1617.055
-8.575	28.057	1945.312	1615.696
-7.560	28.075	1943.711	1614.464
-6.546	28.128	1942.559	1613.908
-5.531	28.058	1941.520	1612.364
-4.517	28.042	1940.744	1611.508
-3.502	28.110	1938.669	1610.320
-2.487	28.124	1937.545	1609.446
-1.473	28.157	1936.810	1609.062
-0.458	28.292	1931.727	1605.960
0.556	30.559	1912.318	1580.293
1.571	26.601	1894.525	1532.041
2.586	22.859	1918.426	1519.108
3.600	21.925	1954.120	1539.048
4.615	21.219	1947.637	1527.635
5.629	16.523	1845.544	1408.405
6.644	8.504	1729.382	1256.824
7.659	4.555	1694.374	1200.814
8.673	4.199	1691.311	1195.787
9.688	4.332	1689.941	1195.738
10.702	4.430	1688.609	1195.445
11.717	4.379	1685.010	1192.400
12.731	4.835	1684.523	1195.451
13.746	10.442	1697.452	1247.788
14.761	18.501	1714.877	1322.928
15.775	22.194	1721.124	1356.178
16.790	22.455	1720.385	1357.487
17.804	21.625	1717.306	1348.549
18.819	20.695	1714.444	1339.025
19.834	20.117	1711.715	1332.339
20.848	19.823	1711.075	1329.463
21.863	19.808	1709.931	1328.344
22.877	19.639	1708.613	1325.899
23.892	19.561	1707.117	1324.022
24.907	19.500	1706.027	1322.594
25.921	19.375	1704.986	1320.713
26.936	19.409	1703.537	1319.734
27.950	19.472	1702.520	1319.312
28.965	19.455	1702.515	1319.066
29.980	19.499	1701.967	1318.859
30.994	19.667	1700.384	1318.793
32.009	19.684	1699.949	1318.472
33.023	19.906	1699.148	1319.428
34.038	19.903	1698.289	1318.620
35.053	19.746	1697.023	1316.323
36.067	19.693	1695.262	1314.436
37.082	19.692	1693.873	1313.235
38.096	19.618	1693.561	1312.316
39.111	19.683	1692.374	1311.776
40.126	19.718	1691.881	1311.539
41.140	19.750	1691.300	1311.216
42.155	19.492	1689.209	1307.526
43.169	19.257	1687.445	1304.271
44.184	19.109	1686.676	1302.442
45.199	19.148	1685.064	1301.370
46.213	19.113	1684.047	1300.204
47.228	19.216	1683.176	1300.200
48.242	19.457	1682.180	1301.134
49.257	19.630	1681.187	1301.549
50.271	19.470	1680.442	1299.658
51.286	19.438	1679.160	1298.311
52.301	19.605	1677.456	1298.129
53.315	19.548	1676.380	1296.755
54.330	19.438	1674.508	1294.365
55.344	19.361	1672.311	1291.974
56.359	19.236	1671.027	1289.937
57.374	19.331	1669.947	1289.697
58.388	19.310	1669.012	1288.706
59.403	19.197	1667.475	1286.558
60.417	19.102	1666.332	1284.856
61.432	19.039	1665.218	1283.409
62.447	19.029	1664.209	1282.446
63.461	18.971	1662.765	1280.785
64.476	18.893	1662.058	1279.548
65.490	18.857	1660.598	1278.048
66.505	18.840	1659.359	1276.850
67.520	18.810	1658.610	1275.940
68.534	18.959	1657.580	1276.140
69.549	18.999	1656.229	1275.284
70.563	19.003	1655.013	1274.266
71.578	18.832	1654.058	1272.152
72.593	18.741	1652.836	1270.424
73.607	18.642	1651.829	1268.807
74.622	18.622	1650.743	1267.713
75.636	18.650	1649.673	1266.986
76.651	18.720	1648.777	1266.698
77.666	18.743	1648.126	1266.259
78.680	18.730	1647.375	1265.471
79.695	18.823	1646.596	1265.449
80.709	18.918	1645.524	1265.210
81.724	18.925	1645.256	1264.944
82.739	19.174	1644.158	1265.821
83.753	19.271	1642.470	1265.117
84.768	19.245	1642.998	1265.221
85.782	19.477	1641.966	1266.020
86.797	19.751	1641.236	1267.351
87.812	19.753	1640.618	1266.775
88.826	19.597	1639.546	1264.695
89.841	19.489	1638.545	1263.024
90.855	19.592	1637.287	1262.695
91.870	19.579	1636.577	1261.940
92.884	19.607	1635.818	1261.445
93.899	19.680	1634.812	1261.089
94.914	19.756	1633.374	1260.426
95.928	19.847	1632.289	1260.138
96.943	19.770	1631.128	1258.573
97.957	19.757	1629.612	1257.196
98.972	19.736	1627.695	1255.455
99.987	19.630	1626.558	1253.692
101.001	19.714	1624.618	1252.701
102.016	19.686	1623.256	1251.335
103.030	19.677	1622.201	1250.344
104.045	19.742	1620.594	1249.465
105.060	19.687	1619.524	1248.132
106.074	19.584	1617.785	1245.937
107.089	19.364	1616.294	1243.093
108.103	19.049	1614.293	1239.177
109.118	18.892	1612.539	1236.592
110.133	18.867	1611.098	1235.198
111.147	18.875	1609.830	1234.178
112.162	18.925	1608.424	1233.350
113.176	18.948	1607.123	1232.405
114.191	18.990	1605.655	1231.471
115.206	19.148	1604.502	1231.605
116.220	19.163	1603.601	1230.911
117.235	19.038	1602.355	1228.953
118.249	19.069	1601.078	1228.087
119.264	19.070	1599.360	1226.671
120.279	18.987	1597.873	1224.832
121.293	18.822	1596.653	1222.609
122.308	18.932	1595.028	1222.042
123.322	18.812	1593.563	1219.956
124.337	18.654	1592.043	1217.563
125.352	18.577	1591.030	1216.139
126.366	18.605	1589.658	1215.181
127.381	18.564	1589.120	1214.371
128.395	18.592	1587.353	1213.113
129.410	18.658	1585.814	1212.296
130.424	18.705	1584.411	1211.444
131.439	18.775	1583.643	1211.245
132.454	18.801	1582.652	1210.560
133.468	18.981	1580.996	1210.458
134.483	19.006	1579.885	1209.678
135.497	19.137	1578.377	1209.335
136.512	19.096	1577.295	1208.108
137.527	19.111	1576.060	1207.159
138.541	19.124	1574.754	1206.145
139.556	19.261	1573.136	1205.759
140.570	19.243	1571.866	1204.555
141.585	19.361	1570.719	1204.393
142.600	19.350	1570.253	1203.847
143.614	19.531	1569.135	1204.153
144.629	19.646	1568.066	1204.022
145.643	19.692	1566.774	1203.243
146.658	19.715	1566.128	1202.800
147.673	19.586	1563.885	1200.079
148.687	19.440	1562.463	1197.866
149.702	19.291	1560.664	1195.348
150.716	19.285	1558.610	1193.625
151.731	19.130	1557.498	1191.599
152.746	19.180	1556.055	1190.733
153.760	19.187	1554.657	1189.608
154.775	19.114	1553.812	1188.354
155.789	19.273	1552.780	1188.552
156.804	19.372	1551.390	1188.069
157.819	19.437	1550.310	1187.581
158.833	19.494	1549.071	1186.917
159.848	19.566	1548.356	1186.761
160.862	19.620	1547.491	1186.363
161.877	19.849	1545.740	1186.490
162.892	19.655	1544.074	1183.773
163.906	19.295	1542.910	1180.312
164.921	19.084	1541.339	1177.563
165.935	19.070	1540.374	1176.628
166.950	19.199	1539.129	1176.452
167.964	19.298	1537.833	1176.036
168.979	19.371	1537.230	1175.964
169.994	19.330	1536.327	1174.895
171.008	19.206	1535.063	1172.979
172.023	19.235	1534.093	1172.330
173.037	19.289	1533.311	1171.993
174.052	19.494	1531.880	1172.188
175.067	19.591	1531.307	1172.304
176.081	19.491	1529.459	1170.112
177.096	19.150	1528.175	1166.715
178.110	19.139	1526.495	1165.253
179.125	19.171	1525.135	1164.331
180.140	19.169	1524.899	1164.033
181.154	19.362	1523.251	1163.971
182.169	19.350	1522.498	1163.218
183.183	19.532	1521.600	1163.656
184.198	19.620	1520.763	1163.503
185.213	19.662	1519.588	1162.782
186.227	19.629	1518.864	1161.906
187.242	19.651	1517.642	1161.014
188.256	19.741	1517.173	1161.161
189.271	19.827	1515.713	1160.517
190.286	19.901	1514.764	1160.179
191.300	19.862	1513.417	1158.789
192.315	19.496	1512.038	1155.179
193.329	19.044	1510.670	1151.011
194.344	19.151	1509.428	1150.675
195.359	19.215	1508.623	1150.390
196.373	19.315	1507.897	1150.397
197.388	19.400	1506.804	1150.031
198.402	19.469	1505.798	1149.618
199.417	19.639	1505.010	1150.051
200.432	19.876	1504.143	1150.862
201.446	20.027	1503.209	1151.046
202.461	20.206	1502.381	1151.503
203.475	20.087	1502.036	1150.342
204.490	20.232	1500.904	1150.336
205.504	20.114	1499.378	1148.286
206.519	19.861	1497.715	1145.234
207.534	19.773	1496.739	1143.802
208.548	19.695	1495.386	1142.153
209.563	19.674	1494.267	1141.061
210.577	19.713	1493.414	1140.567
211.592	19.684	1492.741	1139.758
212.607	19.691	1492.290	1139.360
213.621	19.919	1491.977	1140.524
214.636	20.072	1490.705	1140.455
215.650	20.066	1489.190	1139.158
216.665	19.958	1488.407	1137.749
217.680	19.916	1488.226	1137.234
218.694	20.172	1487.356	1138.150
219.709	20.302	1486.640	1138.349
220.723	20.233	1485.573	1136.985
221.738	20.186	1484.288	1135.587
222.753	20.106	1483.536	1134.388
223.767	20.094	1482.526	1133.443
224.782	20.128	1481.314	1132.638
225.796	20.125	1480.792	1132.119
226.811	20.360	1479.798	1132.789
227.826	20.366	1479.712	1132.662
228.840	20.235	1478.717	1130.947
229.855	20.105	1477.379	1128.978
230.869	20.029	1476.521	1127.725
231.884	20.056	1475.083	1126.704
232.899	19.967	1474.179	1125.336
233.913	19.929	1472.532	1123.734
234.928	19.820	1471.123	1121.848
235.942	19.736	1469.967	1120.325
236.957	19.769	1468.685	1119.460
237.972	19.726	1467.273	1118.011
238.986	19.691	1466.657	1117.213
240.001	19.832	1465.721	1117.312
241.015	19.785	1464.403	1115.904
242.030	19.796	1463.350	1115.076
243.045	19.836	1462.810	1114.822
244.059	19.999	1461.777	1114.985
245.074	20.042	1460.934	1114.523
246.088	20.090	1460.517	1114.416
247.103	20.171	1459.772	1114.266
248.117	20.262	1458.964	1114.135
249.132	20.481	1457.692	1114.473
250.147	20.494	1458.188	1114.833
251.161	20.828	1457.391	1116.268
252.176	20.909	1456.777	1116.215
253.190	21.020	1456.141	1116.342
254.205	21.009	1455.362	1115.578
255.220	21.035	1454.592	1115.055
256.234	21.116	1454.124	1115.117
257.249	21.049	1453.311	1113.967
258.263	21.071	1452.245	1113.190
259.278	21.138	1451.239	1112.748
260.293	20.988	1450.388	1111.043
261.307	20.979	1449.431	1110.151
262.322	21.112	1448.799	1110.416
263.336	21.152	1448.464	1110.316
264.351	21.194	1446.904	1109.290
265.366	21.222	1446.367	1108.955
266.380	21.189	1445.604	1108.066
267.395	21.162	1444.732	1107.127
268.409	21.244	1443.347	1106.487
269.424	21.062	1442.378	1104.494
270.439	20.956	1440.902	1102.594
271.453	20.978	1440.179	1102.085
272.468	20.984	1439.099	1101.194
273.482	20.799	1438.431	1099.422
274.497	20.832	1436.832	1098.310
275.512	20.702	1436.222	1096.927
276.526	20.773	1435.569	1096.776
277.541	20.704	1434.764	1095.630
278.555	20.807	1433.911	1095.531
279.570	20.860	1432.843	1094.950
280.585	20.965	1432.380	1095.161
281.599	21.115	1431.695	1095.483
282.614	21.279	1430.796	1095.721
283.628	21.118	1429.495	1093.624
284.643	21.014	1427.731	1091.527
285.657	20.915	1426.531	1089.889
286.672	20.968	1425.732	1089.513
287.687	20.979	1424.817	1088.791
288.701	20.930	1424.346	1088.026
289.716	20.919	1423.435	1087.166
290.730	20.914	1422.702	1086.479
291.745	21.024	1421.362	1086.043
292.760	20.991	1420.580	1085.144
293.774	21.067	1419.143	1084.427
294.789	21.160	1418.441	1084.368
295.803	21.285	1417.890	1084.629
296.818	21.348	1416.968	1084.216
297.833	21.104	1416.272	1082.078
298.847	20.915	1415.099	1079.912
299.862	21.018	1413.390	1079.151
300.876	21.108	1412.413	1078.865
301.891	21.021	1412.090	1077.988
302.906	21.105	1411.632	1078.059
303.920	21.267	1410.733	1078.277
304.935	21.428	1409.943	1078.574
305.949	21.434	1409.804	1078.409
306.964	21.608	1408.786	1078.605
307.979	21.722	1407.879	1078.519
308.993	21.566	1406.195	1076.175
310.008	21.520	1405.392	1075.180
311.022	21.462	1404.509	1074.052
312.037	21.488	1403.756	1073.544
313.052	21.547	1402.861	1073.125
314.066	21.512	1401.354	1071.661
315.081	21.363	1400.166	1069.746
316.095	21.141	1398.841	1067.281
317.110	20.925	1398.115	1065.312
318.125	21.026	1396.687	1064.749
319.139	21.057	1396.050	1064.357
320.154	21.030	1394.980	1063.284
321.168	21.011	1394.208	1062.488
322.183	21.044	1393.325	1061.920
323.197	21.173	1391.807	1061.456
324.212	21.117	1390.930	1060.351
325.227	21.190	1390.511	1060.378
326.241	21.253	1389.471	1059.876
327.256	21.327	1388.907	1059.801
328.270	21.170	1388.163	1058.189
329.285	21.110	1387.263	1057.043
330.300	21.127	1386.303	1056.324
331.314	21.223	1385.361	1056.093
332.329	21.130	1384.311	1054.637
333.343	21.219	1382.961	1054.051
334.358	21.188	1382.526	1053.437
335.373	21.329	1381.920	1053.736
336.387	21.482	1381.226	1054.033
337.402	21.505	1380.323	1053.392
338.416	21.523	1379.733	1052.953
339.431	21.474	1379.544	1052.423
340.446	21.660	1378.834	1052.908
341.460	21.751	1377.760	1052.538
342.475	21.920	1376.896	1052.803
343.489	22.040	1376.085	1052.808
344.504	21.992	1375.724	1052.152
345.519	22.078	1374.700	1051.788
346.533	22.205	1373.491	1051.529
347.548	22.155	1373.056	1050.803
348.562	22.144	1372.237	1050.019
349.577	22.231	1371.559	1049.929
350.592	22.079	1370.403	1048.040
351.606	21.766	1369.282	1045.226
352.621	21.663	1367.621	1043.255
353.635	21.544	1366.231	1041.390
354.650	21.584	1365.179	1040.735
355.665	21.524	1364.511	1039.776
356.679	21.645	1363.445	1039.593
357.694	21.618	1362.334	1038.492
358.708	21.805	1361.830	1039.127
359.723	21.829	1360.631	1038.260
360.738	21.837	1359.573	1037.407
361.752	21.840	1358.609	1036.600
362.767	21.914	1357.467	1036.073
363.781	21.933	1356.523	1035.369
364.796	22.029	1355.605	1035.148
365.810	21.854	1355.412	1033.878
366.825	22.184	1354.322	1034.895
367.840	22.299	1353.833	1035.109
368.854	22.435	1353.657	1035.682
369.869	22.478	1353.206	1035.496
370.883	22.516	1352.462	1035.057
371.898	22.577	1351.391	1034.505
372.913	22.347	1350.956	1032.732
373.927	22.212	1349.812	1030.975
374.942	22.243	1348.859	1030.336
375.956	22.305	1348.310	1030.190
376.971	22.340	1347.705	1029.842
377.986	22.388	1346.095	1028.801
379.000	22.294	1345.920	1028.026
380.015	22.510	1344.832	1028.363
381.029	22.624	1344.179	1028.442
382.044	22.700	1343.738	1028.453
383.059	22.565	1343.180	1027.147
384.073	22.592	1342.315	1026.556
385.088	22.530	1342.018	1025.878
386.102	22.519	1340.969	1024.919
387.117	22.567	1340.197	1024.518
388.132	22.489	1339.216	1023.226
389.146	22.254	1337.971	1020.819
390.161	22.222	1336.929	1019.746
391.175	22.235	1336.516	1019.415
392.190	22.192	1335.530	1018.326
393.205	22.281	1334.626	1018.060
394.219	22.386	1334.267	1018.302
395.234	22.556	1332.577	1017.908
396.248	22.444	1331.660	1016.471
397.263	22.332	1329.909	1014.401
398.278	22.327	1328.135	1012.924
399.292	22.303	1326.905	1011.761
400.307	22.080	1326.310	1009.936
401.321	22.132	1324.668	1008.896
402.336	22.043	1323.688	1007.548
403.350	21.936	1323.258	1006.521
404.365	21.952	1321.954	1005.531
405.380	22.039	1321.387	1005.506
406.394	22.207	1320.447	1005.662
407.409	22.289	1319.848	1005.588
408.423	22.431	1319.223	1005.835
409.438	22.556	1318.630	1006.004
410.453	22.765	1317.980	1006.615
411.467	22.754	1317.380	1006.001
412.482	22.813	1316.797	1005.808
413.496	22.856	1316.566	1005.785
414.511	22.945	1315.202	1005.162
415.526	23.063	1314.660	1005.329
416.540	23.044	1314.081	1004.689
417.555	23.089	1313.781	1004.625
418.569	23.238	1313.012	1004.797
419.584	23.177	1312.733	1004.148
420.599	22.970	1312.146	1002.433
421.613	146.515	1435.141	1795.459
422.628	142.214	1453.016	1795.542
