DTS Sentinel unit serial number:	SN413079Multiplexer serial number:	ORYXHardware model number:	OX4-SRSoftware version number:	ORYX F/W v4.00 Oryx Data Collector v3.7.2.0data status	okinstallation	princeton_trtdifferential loss correction	single-endedforward channel	channel 4reverse channel	N/Adate	2019/09/14time	09:49:35forward acquisition time	60.00reverse acquisition time	0.00gamma	496.2192k internal	0.2303k external	0.2303temperature offset calibration	1.0136default loss term (dB/km)	0.3790temperature slope calibration	1.0000multiplexer offset coefficient	1.0000multiplexer slope coefficient	1.0000fibre end	0.00T internal ref (°C)	32.44T ext. ref 1 (°C)	3.95T ext. ref 2 (°C)	30.65length (m)	temperature (°C)	Stokes	anti-Stokes-747.200	-106.140	0.265	-0.061
-746.185	240.327	-0.066	0.112
-745.171	-128.786	0.245	0.035
-744.156	20.761	-0.152	0.126
-743.142	-123.621	0.159	0.026
-742.127	-170.798	0.154	0.005
-741.112	134.384	0.031	-0.041
-740.098	-118.816	0.207	-0.037
-739.083	93.854	-0.154	-0.178
-738.069	217.698	-0.248	0.402
-737.054	144.094	0.248	-0.336
-736.039	-200.000	0.027	0.267
-735.025	149.927	0.274	-0.378
-734.010	44.783	-0.141	-0.132
-732.996	-115.137	-0.103	0.020
-731.981	-52.054	-0.089	-0.042
-730.966	-13.199	0.333	-0.220
-729.952	27.823	0.029	0.025
-728.937	-200.000	-0.060	-0.351
-727.923	59.842	-0.112	-0.113
-726.908	-125.387	-0.183	-0.028
-725.894	800.000	0.011	0.040
-724.879	441.910	-0.101	-0.225
-723.864	-29.197	0.037	0.021
-722.850	-200.000	-0.017	-0.130
-721.835	78.978	0.150	0.164
-720.821	3.529	-0.150	-0.112
-719.806	-42.464	-0.132	-0.068
-718.791	5.960	-0.308	-0.232
-717.777	47.391	-0.076	0.072
-716.762	-183.532	-0.147	0.003
-715.748	-185.706	-0.255	0.004
-714.733	-57.504	0.178	0.079
-713.718	-71.757	0.102	-0.039
-712.704	2.800	0.093	-0.069
-711.689	-200.000	-0.027	-0.319
-710.675	800.000	-0.036	-0.106
-709.660	90.032	-0.022	0.025
-708.645	37.060	-0.304	0.273
-707.631	800.000	0.025	-0.098
-706.616	133.421	0.052	-0.068
-705.602	301.153	0.202	0.380
-704.587	-113.429	-0.220	0.044
-703.572	-42.583	0.251	0.130
-702.558	511.670	0.112	-0.266
-701.543	108.965	-0.197	-0.239
-700.529	545.634	0.074	0.180
-699.514	18.225	0.142	-0.116
-698.499	800.000	-0.023	-0.095
-697.485	-82.279	0.291	0.096
-696.470	245.748	0.232	-0.398
-695.456	28.536	0.144	-0.124
-694.441	-74.600	-0.073	0.027
-693.426	800.000	0.044	-0.136
-692.412	-84.030	0.328	0.106
-691.397	-30.704	-0.255	-0.147
-690.383	-37.646	-0.217	-0.118
-689.368	-200.000	-0.008	-0.278
-688.354	-31.186	0.139	0.080
-687.339	-76.990	0.141	-0.050
-686.324	153.017	-0.164	-0.229
-685.310	-139.400	0.177	0.019
-684.295	-200.000	0.033	-0.180
-683.281	-200.000	-0.002	-0.295
-682.266	800.000	-0.071	0.297
-681.251	-200.000	-0.030	-0.154
-680.237	181.043	0.096	-0.143
-679.222	800.000	-0.061	0.184
-678.208	227.623	-0.025	-0.041
-677.193	-39.449	-0.102	0.054
-676.178	-200.000	-0.017	0.221
-675.164	644.455	0.039	0.102
-674.149	-85.227	-0.116	0.037
-673.135	196.561	0.233	0.361
-672.120	800.000	-0.048	0.209
-671.105	295.827	0.089	-0.165
-670.091	-32.658	-0.289	-0.163
-669.076	103.927	-0.270	0.322
-668.062	56.075	0.228	0.224
-667.047	-80.997	-0.403	-0.136
-666.032	117.503	-0.029	-0.037
-665.018	197.758	0.120	0.187
-664.003	98.932	0.034	0.040
-662.989	-92.661	0.516	-0.147
-661.974	-200.000	0.104	-0.565
-660.959	-123.961	-0.144	-0.023
-659.945	181.113	-0.135	0.202
-658.930	-200.000	0.015	0.352
-657.916	-43.497	-0.076	-0.039
-656.901	-200.000	-0.027	-0.487
-655.886	62.827	0.138	-0.140
-654.872	800.000	-0.068	-0.203
-653.857	800.000	-0.069	0.218
-652.843	153.296	-0.110	0.153
-651.828	-72.555	0.173	0.065
-650.814	800.000	-0.067	-0.229
-649.799	27.908	-0.133	0.114
-648.784	-200.000	0.036	-0.217
-647.770	120.259	-0.246	-0.310
-646.755	-66.364	0.206	0.083
-645.741	104.435	-0.099	-0.118
-644.726	137.558	0.085	-0.112
-643.711	39.565	-0.152	-0.138
-642.697	-35.904	0.196	-0.108
-641.682	79.455	-0.063	-0.068
-640.668	112.957	-0.147	-0.180
-639.653	-64.438	0.292	-0.121
-638.638	-153.549	0.242	0.017
-637.624	-56.214	-0.073	-0.033
-636.609	-106.789	-0.243	0.055
-635.595	-18.293	-0.096	0.061
-634.580	177.518	-0.172	-0.254
-633.565	-142.996	-0.091	0.009
-632.551	-120.897	0.310	0.053
-631.536	-130.503	0.299	0.041
-630.522	419.005	-0.161	0.350
-629.507	-200.000	0.004	-0.021
-628.492	-106.353	-0.371	0.084
-627.478	-197.327	0.014	0.000
-626.463	46.515	-0.058	-0.054
-625.449	-10.439	-0.087	-0.058
-624.434	89.836	0.183	0.207
-623.419	-69.619	-0.487	-0.189
-622.405	517.103	0.110	-0.261
-621.390	-59.886	-0.297	0.129
-620.376	-200.000	0.010	-0.236
-619.361	712.117	0.178	0.478
-618.346	-120.487	-0.266	0.046
-617.332	36.857	0.099	-0.089
-616.317	-96.981	0.233	-0.062
-615.303	-154.593	0.359	0.024
-614.288	-83.010	-0.191	-0.062
-613.273	-70.306	-0.417	-0.161
-612.259	800.000	-0.139	0.468
-611.244	-200.000	0.017	0.085
-610.230	173.095	0.097	0.142
-609.215	-128.281	0.299	-0.043
-608.201	167.386	-0.298	-0.429
-607.186	14.144	0.119	-0.094
-606.171	-40.778	0.209	-0.110
-605.157	88.397	0.038	-0.042
-604.142	800.000	0.122	-0.361
-603.128	-103.212	-0.098	-0.023
-602.113	-18.089	0.115	-0.073
-601.098	291.237	0.094	-0.172
-600.084	-200.000	0.028	0.178
-599.069	-103.658	-0.043	0.010
-598.055	98.321	-0.118	-0.138
-597.040	-23.824	0.083	0.050
-596.025	-199.495	-0.291	0.002
-595.011	200.997	0.269	0.419
-593.996	-94.495	0.100	-0.028
-592.982	-200.000	0.001	0.032
-591.967	-129.292	-0.358	-0.051
-590.952	-123.952	0.260	0.041
-589.938	-127.789	-0.083	0.012
-588.923	17.720	-0.356	0.287
-587.909	800.000	0.008	0.030
-586.894	-200.000	0.016	0.146
-585.879	8.655	0.241	0.184
-584.865	-145.917	-0.153	-0.014
-583.850	303.912	-0.041	0.077
-582.836	-136.195	-0.118	0.014
-581.821	727.416	0.016	-0.043
-580.806	-45.584	0.377	0.189
-579.792	-200.000	-0.006	-0.280
-578.777	-10.379	0.127	0.085
-577.763	800.000	0.074	0.213
-576.748	-127.945	-0.054	0.008
-575.733	-200.000	0.007	0.107
-574.719	-83.337	-0.151	-0.049
-573.704	-10.717	-0.410	0.274
-572.690	2.510	-0.286	0.210
-571.675	29.139	-0.152	0.130
-570.661	756.758	0.069	0.190
-569.646	-63.995	0.273	0.113
-568.631	72.156	0.132	0.139
-567.617	92.978	0.026	0.030
-566.602	800.000	-0.078	-0.220
-565.588	-51.494	0.149	-0.070
-564.573	-50.715	-0.398	0.190
-563.558	800.000	-0.041	-0.164
-562.544	171.929	0.249	-0.362
-561.529	-48.254	0.214	0.105
-560.515	157.729	-0.156	0.218
-559.500	798.642	0.164	0.458
-558.485	-17.241	-0.265	-0.169
-557.471	-191.093	-0.344	0.004
-556.456	800.000	-0.051	-0.155
-555.442	-0.748	-0.145	-0.104
-554.427	-79.126	0.230	-0.079
-553.412	438.628	-0.067	0.149
-552.398	149.289	-0.094	0.129
-551.383	71.061	0.282	-0.295
-550.369	-71.357	0.070	0.026
-549.354	68.297	-0.075	-0.077
-548.339	46.810	-0.188	0.177
-547.325	-156.546	0.102	0.006
-546.310	-35.282	0.188	0.103
-545.296	197.660	-0.211	-0.326
-544.281	800.000	-0.050	0.176
-543.266	-22.865	0.180	0.110
-542.252	-200.000	-0.012	-0.379
-541.237	-185.752	-0.258	0.004
-540.223	299.945	-0.205	-0.381
-539.208	-193.613	-0.211	0.002
-538.193	265.650	-0.128	-0.226
-537.179	50.614	-0.340	-0.325
-536.164	800.000	-0.056	-0.158
-535.150	-97.821	-0.206	0.054
-534.135	283.533	-0.120	-0.217
-533.121	179.573	0.104	-0.154
-532.106	156.770	-0.356	0.497
-531.091	-200.000	0.008	0.108
-530.077	89.254	-0.046	0.052
-529.062	-100.548	0.098	-0.024
-528.048	-200.000	-0.008	-0.198
-527.033	218.230	-0.134	0.215
-526.018	-83.126	-0.304	0.099
-525.004	-110.319	0.156	0.033
-523.989	-97.871	-0.175	0.046
-522.975	3.850	0.156	0.115
-521.960	-200.000	-0.002	0.184
-520.945	800.000	-0.031	-0.109
-519.931	-30.704	-0.239	-0.137
-518.916	33.288	-0.080	-0.070
-517.902	-50.939	0.196	-0.093
-516.887	-45.891	0.081	0.041
-515.872	-56.547	0.395	0.177
-514.858	-17.720	0.305	0.193
-513.843	-32.638	-0.087	-0.049
-512.829	-43.161	0.298	-0.152
-511.814	150.961	-0.195	-0.267
-510.799	27.450	-0.207	-0.176
-509.785	-75.623	0.049	0.018
-508.770	158.181	0.138	-0.193
-507.756	-39.585	-0.023	0.012
-506.741	-93.142	0.164	0.046
-505.726	800.000	0.016	-0.050
-504.712	414.503	-0.170	-0.366
-503.697	89.606	0.096	-0.108
-502.683	9.804	-0.072	0.055
-501.668	-71.118	-0.292	-0.111
-500.653	691.733	-0.095	0.251
-499.639	228.838	0.057	-0.094
-498.624	-76.034	-0.136	-0.049
-497.610	-110.712	0.315	-0.066
-496.595	-200.000	-0.043	-0.272
-495.581	199.639	-0.150	0.231
-494.566	800.000	-0.045	0.171
-493.551	-34.682	0.132	-0.073
-492.537	-200.000	0.012	0.070
-491.522	-0.752	0.166	-0.118
-490.508	41.254	0.120	0.109
-489.493	-136.737	0.319	0.037
-488.478	-200.000	-0.026	0.286
-487.464	-45.627	0.144	-0.072
-486.449	800.000	-0.030	-0.087
-485.435	800.000	-0.021	-0.073
-484.420	-118.887	-0.364	0.064
-483.405	-93.806	0.139	0.038
-482.391	-88.629	-0.146	-0.044
-481.376	-125.391	0.228	-0.035
-480.362	-56.494	0.039	-0.018
-479.347	-117.001	-0.281	0.052
-478.332	800.000	0.014	-0.046
-477.318	-28.069	0.138	0.080
-476.303	61.641	-0.129	-0.129
-475.289	-200.000	0.061	0.270
-474.274	-200.000	-0.033	0.152
-473.259	196.488	-0.060	-0.092
-472.245	219.668	-0.128	0.206
-471.230	217.029	0.172	0.277
-470.216	800.000	0.032	-0.138
-469.201	800.000	-0.071	0.222
-468.186	106.648	-0.264	-0.315
-467.172	-52.113	-0.325	-0.152
-466.157	29.075	0.078	0.067
-465.143	-75.296	0.240	0.086
-464.128	-200.000	-0.027	0.286
-463.113	-10.141	-0.105	-0.070
-462.099	171.115	0.148	0.213
-461.084	403.525	0.126	0.268
-460.070	315.307	-0.062	-0.117
-459.055	26.884	0.064	-0.054
-458.040	34.910	0.124	0.110
-457.026	-136.183	-0.023	0.003
-456.011	-200.000	-0.003	-0.138
-454.997	241.452	-0.122	-0.205
-453.982	546.813	0.025	-0.060
-452.968	-200.000	0.002	-0.075
-451.953	-0.074	-0.132	0.095
-450.938	-90.008	0.320	-0.094
-449.924	-120.736	-0.414	0.071
-448.909	356.217	-0.132	-0.265
-447.895	26.834	0.309	0.261
-446.880	107.040	-0.196	-0.234
-445.865	-71.064	0.348	-0.132
-444.851	-160.973	-0.267	0.014
-443.836	583.674	-0.088	0.218
-442.822	-200.000	-0.063	0.000
-441.807	-81.429	-0.185	-0.061
-440.792	-163.519	0.154	-0.007
-439.778	-149.569	-0.213	0.017
-438.763	25.233	-0.280	-0.234
-437.749	16.993	0.022	0.018
-436.734	99.503	-0.175	0.204
-435.719	-68.320	-0.263	-0.103
-434.705	-200.000	0.027	-0.208
-433.690	-165.658	0.159	-0.007
-432.676	-42.283	0.266	-0.137
-431.661	800.000	-0.090	-0.359
-430.646	-64.672	0.155	-0.063
-429.632	111.909	0.265	-0.322
-428.617	-200.000	0.014	0.087
-427.603	226.829	-0.213	0.349
-426.588	333.883	0.146	0.285
-425.573	-91.546	0.224	-0.064
-424.559	158.293	-0.134	0.187
-423.544	-134.142	-0.114	0.014
-422.530	755.609	0.093	-0.252
-421.515	-200.000	0.031	0.390
-420.500	-140.058	0.193	-0.020
-419.486	-73.274	0.197	-0.072
-418.471	-119.505	-0.275	0.048
-417.457	-66.367	0.258	-0.103
-416.442	-200.000	0.096	-0.427
-415.428	503.297	0.077	-0.179
-414.413	-40.149	-0.089	0.047
-413.398	58.711	0.111	0.110
-412.384	-126.303	-0.154	-0.023
-411.369	800.000	0.085	0.239
-410.355	-200.000	0.002	0.070
-409.340	23.629	0.173	0.143
-408.325	76.770	-0.182	0.194
-407.311	-200.000	-0.014	-0.221
-406.296	-200.000	-0.028	-0.127
-405.282	60.649	0.201	0.200
-404.267	-200.000	0.036	0.480
-403.252	15.152	0.198	-0.156
-402.238	20.786	0.043	0.035
-401.223	-54.004	-0.265	0.121
-400.209	-200.000	-0.046	0.356
-399.194	-200.000	-0.366	0.000
-398.179	-200.000	0.000	-0.207
-397.165	372.683	0.115	-0.235
-396.150	102.575	0.131	0.153
-395.136	12.546	0.255	-0.198
-394.121	32.182	0.216	-0.187
-393.106	49.644	0.133	0.126
-392.092	127.259	0.096	0.123
-391.077	-103.763	-0.140	-0.033
-390.063	67.618	-0.076	-0.078
-389.048	-155.960	-0.096	0.006
-388.033	-140.487	0.229	-0.024
-387.019	-23.345	0.304	-0.184
-386.004	-200.000	0.006	0.123
-384.990	151.397	0.110	-0.150
-383.975	79.357	0.159	-0.171
-382.960	-77.716	-0.120	-0.042
-381.946	-111.463	-0.372	-0.076
-380.931	-200.000	0.057	0.314
-379.917	-200.000	0.003	0.237
-378.902	-99.833	-0.223	0.056
-377.888	-200.000	-0.054	-0.253
-376.873	-77.030	-0.298	0.104
-375.858	-200.000	0.018	0.389
-374.844	-106.034	-0.204	0.046
-373.829	-200.000	-0.003	-0.111
-372.815	84.078	0.207	-0.227
-371.800	-54.736	-0.205	-0.093
-370.785	-171.720	-0.159	0.005
-369.771	764.864	-0.096	-0.263
-368.756	-11.129	0.094	0.062
-367.742	-119.110	-0.252	-0.044
-366.727	230.315	0.049	-0.080
-365.712	-18.879	0.215	-0.134
-364.698	-200.000	0.002	0.030
-363.683	204.716	0.341	-0.531
-362.669	-200.000	0.012	0.108
-361.654	145.813	-0.115	-0.155
-360.639	651.018	-0.093	-0.240
-359.625	234.992	0.199	0.330
-358.610	-200.000	-0.061	0.338
-357.596	-113.306	-0.140	0.028
-356.581	-121.197	-0.196	-0.033
-355.566	305.092	0.158	-0.295
-354.552	-77.556	-0.237	-0.082
-353.537	-50.441	-0.321	-0.152
-352.523	28.403	0.084	0.071
-351.508	53.980	0.136	0.131
-350.493	358.713	-0.164	0.330
-349.479	-20.000	0.182	0.113
-348.464	-128.666	0.324	0.046
-347.450	-56.693	0.152	0.068
-346.435	-61.707	-0.388	-0.163
-345.420	-47.725	0.282	-0.137
-344.406	800.000	-0.082	-0.289
-343.391	-200.000	-0.021	-0.121
-342.377	-124.792	-0.127	0.020
-341.362	-167.639	-0.486	-0.019
-340.348	95.719	0.300	-0.343
-339.333	99.335	0.100	-0.116
-338.318	-200.000	0.019	-0.126
-337.304	168.771	-0.101	0.144
-336.289	-0.253	0.086	-0.061
-335.275	-152.537	0.247	-0.018
-334.260	800.000	0.073	-0.278
-333.245	-20.210	-0.205	-0.127
-332.231	800.000	0.099	-0.323
-331.216	-61.642	0.271	-0.114
-330.202	53.025	0.077	0.074
-329.187	-68.474	0.127	-0.049
-328.172	-32.921	0.207	0.115
-327.158	-25.364	0.314	-0.186
-326.143	90.570	0.090	-0.101
-325.129	800.000	0.023	-0.074
-324.114	-200.000	0.024	0.108
-323.099	205.237	-0.289	0.449
-322.085	421.334	-0.110	-0.236
-321.070	-200.000	-0.019	-0.250
-320.056	56.770	0.080	0.078
-319.041	225.171	0.044	0.072
-318.026	-200.000	-0.013	-0.284
-317.012	297.976	0.070	0.128
-315.997	-150.629	-0.304	-0.023
-314.983	454.364	-0.030	0.066
-313.968	-35.972	-0.094	-0.051
-312.953	790.027	-0.046	0.127
-311.939	116.903	-0.285	-0.351
-310.924	-116.882	0.216	-0.040
-309.910	378.957	-0.137	0.282
-308.895	265.422	0.095	0.166
-307.880	-56.411	0.277	-0.123
-306.866	128.479	-0.121	-0.154
-305.851	10.490	-0.082	-0.063
-304.837	-100.097	-0.371	0.093
-303.822	223.820	0.127	0.206
-302.807	386.202	-0.042	0.087
-301.793	800.000	-0.046	0.197
-300.778	69.029	0.182	0.187
-299.764	135.829	0.193	0.251
-298.749	467.980	-0.080	0.179
-297.735	45.916	-0.075	0.070
-296.720	-109.189	0.355	0.076
-295.705	140.680	0.188	0.249
-294.691	193.246	0.041	-0.062
-293.676	292.422	0.191	0.348
-292.662	-42.254	-0.215	-0.110
-291.647	297.905	-0.080	-0.147
-290.632	213.676	-0.060	-0.095
-289.618	-178.225	0.074	-0.002
-288.603	172.980	0.152	0.219
-287.589	800.000	-0.059	0.208
-286.574	-200.000	0.033	-0.237
-285.559	-49.799	0.129	0.061
-284.545	28.222	0.261	-0.220
-283.530	57.687	0.200	0.195
-282.516	-77.377	0.245	-0.085
-281.501	140.533	0.050	0.067
-280.486	24.448	-0.327	-0.271
-279.472	100.727	0.156	-0.182
-278.457	3.613	0.198	0.144
-277.443	293.979	0.133	0.242
-276.428	-47.466	0.399	-0.194
-275.413	12.785	-0.220	-0.170
-274.399	-22.108	0.080	-0.048
-273.384	63.247	0.170	0.170
-272.370	-93.122	-0.259	0.072
-271.355	-200.000	-0.023	0.248
-270.340	181.624	0.048	-0.071
-269.326	72.623	-0.300	0.313
-268.311	577.905	0.028	0.069
-267.297	15.802	-0.063	0.049
-266.282	199.139	-0.254	0.389
-265.267	99.478	-0.095	0.110
-264.253	-200.000	-0.039	-0.188
-263.238	-37.441	0.601	-0.321
-262.224	140.393	0.163	0.215
-261.209	-200.000	0.003	0.038
-260.195	-28.237	-0.178	-0.103
-259.180	-69.666	-0.161	0.061
-258.165	-200.000	-0.004	0.105
-257.151	-8.031	-0.338	-0.228
-256.136	800.000	0.031	0.124
-255.122	-33.578	-0.179	-0.099
-254.107	-59.805	0.163	-0.070
-253.092	-47.215	-0.275	0.134
-252.078	609.043	-0.123	0.306
-251.063	38.842	0.186	-0.166
-250.049	-56.592	0.069	0.030
-249.034	-101.301	0.264	0.064
-248.019	601.098	-0.161	0.400
-247.005	-130.552	-0.018	-0.002
-245.990	86.785	0.047	-0.052
-244.976	-13.261	-0.318	-0.206
-243.961	-4.315	-0.230	-0.159
-242.946	-200.000	-0.002	-0.186
-241.932	29.184	-0.258	0.219
-240.917	-108.563	0.241	0.052
-239.903	-200.000	-0.010	-0.129
-238.888	9.840	-0.190	-0.144
-237.873	-140.972	0.143	-0.015
-236.859	-200.000	-0.009	-0.098
-235.844	77.719	-0.040	0.043
-234.830	-67.975	0.093	0.036
-233.815	-58.910	-0.154	-0.067
-232.800	396.963	0.099	0.206
-231.786	201.548	-0.068	0.105
-230.771	306.654	-0.120	-0.223
-229.757	800.000	-0.141	-0.460
-228.742	-114.851	0.197	0.037
-227.727	123.626	-0.272	-0.341
-226.713	-180.660	0.184	0.004
-225.698	105.457	-0.364	0.429
-224.684	41.070	0.125	-0.113
-223.669	535.757	-0.097	0.230
-222.655	-200.000	0.027	0.242
-221.640	339.108	-0.086	0.167
-220.625	-200.000	-0.056	0.392
-219.611	559.539	0.125	0.301
-218.596	-0.527	0.218	0.154
-217.582	-200.000	-0.027	-0.240
-216.567	-97.477	-0.085	0.022
-215.552	-143.419	0.152	-0.014
-214.538	800.000	0.094	0.269
-213.523	37.980	0.226	0.200
-212.509	-200.000	0.043	-0.562
-211.494	0.782	-0.227	0.162
-210.479	-33.744	-0.124	-0.068
-209.465	455.897	0.054	0.119
-208.450	-88.083	-0.317	0.095
-207.436	-162.216	0.263	-0.013
-206.421	800.000	-0.044	0.161
-205.406	-102.033	0.272	0.065
-204.392	734.542	0.025	-0.067
-203.377	151.736	0.185	0.252
-202.363	-51.849	-0.169	-0.078
-201.348	-153.905	0.206	0.014
-200.333	259.178	0.113	-0.195
-199.319	800.000	0.169	-0.514
-198.304	-59.800	0.180	0.077
-197.290	-200.000	-0.049	-0.249
-196.275	-11.256	0.193	-0.127
-195.260	249.721	-0.046	-0.078
-194.246	-200.000	-0.030	-0.143
-193.231	-2.419	0.271	0.189
-192.217	103.505	0.242	0.283
-191.202	-42.243	0.089	-0.045
-190.187	71.733	0.095	-0.099
-189.173	-126.982	0.203	-0.030
-188.158	800.000	-0.031	0.102
-187.144	420.045	-0.027	-0.057
-186.129	-16.497	0.125	0.079
-185.114	233.867	0.070	-0.114
-184.100	-200.000	-0.000	-0.258
-183.085	64.767	-0.193	-0.195
-182.071	28.139	-0.218	-0.183
-181.056	106.878	-0.016	-0.019
-180.042	-113.050	0.176	0.035
-179.027	83.806	0.299	0.326
-178.012	-200.000	-0.019	0.099
-176.998	-38.711	0.113	-0.059
-175.983	-53.154	0.143	-0.066
-174.969	-200.000	-0.010	-0.149
-173.954	-112.207	0.250	-0.050
-172.939	-0.798	0.087	-0.061
-171.925	-150.147	-0.214	0.017
-170.910	-143.131	-0.132	0.013
-169.896	-200.000	0.013	0.090
-168.881	8.472	0.208	0.156
-167.866	800.000	-0.038	-0.110
-166.852	-200.000	0.033	-0.166
-165.837	-158.870	-0.385	0.022
-164.823	-191.624	-0.293	-0.003
-163.808	24.794	0.125	0.103
-162.793	13.781	0.141	0.110
-161.779	45.393	0.121	0.111
-160.764	-52.992	-0.267	-0.122
-159.750	621.726	0.108	0.271
-158.735	800.000	0.062	0.212
-157.720	-130.966	-0.101	0.013
-156.706	800.000	0.011	0.045
-155.691	74.213	-0.101	-0.106
-154.677	-200.000	-0.035	0.185
-153.662	39.291	0.322	0.287
-152.647	323.100	-0.074	0.140
-151.633	639.593	0.024	-0.061
-150.618	161.000	0.046	-0.064
-149.604	-82.977	-0.054	-0.017
-148.589	-200.000	0.024	-0.366
-147.574	122.933	0.056	-0.069
-146.560	800.000	-0.066	0.193
-145.545	-200.000	0.002	0.270
-144.531	323.134	0.087	0.165
-143.516	152.480	0.095	0.130
-142.502	-200.000	-0.005	0.065
-141.487	-108.583	0.205	0.044
-140.472	346.995	-0.201	0.394
-139.458	171.865	-0.085	-0.121
-138.443	520.313	-0.095	-0.221
-137.429	162.770	0.183	0.255
-136.414	-121.437	0.453	-0.075
-135.399	800.000	0.044	-0.130
-134.385	-84.433	0.273	0.086
-133.370	-163.633	-0.042	0.002
-132.356	800.000	-0.022	-0.090
-131.341	-75.970	0.122	0.043
-130.326	-65.135	0.314	0.126
-129.312	744.176	-0.089	-0.239
-128.297	129.223	-0.154	0.196
-127.283	306.536	0.101	0.187
-126.268	-106.097	-0.173	-0.039
-125.253	-200.000	0.007	0.037
-124.239	170.617	0.078	0.111
-123.224	-95.237	-0.303	-0.081
-122.210	-69.959	-0.196	0.074
-121.195	-149.996	-0.148	0.011
-120.180	184.809	-0.252	0.372
-119.166	82.233	-0.166	0.179
-118.151	166.298	-0.067	-0.095
-117.137	-143.927	0.219	0.021
-116.122	98.901	0.165	-0.190
-115.107	-53.062	0.255	0.116
-114.093	-200.000	0.012	0.195
-113.078	-153.390	-0.202	0.014
-112.064	531.358	-0.033	0.077
-111.049	-99.582	0.123	0.031
-110.034	-47.401	0.205	-0.099
-109.020	-78.905	0.073	0.025
-108.005	118.494	-0.129	-0.158
-106.991	800.000	0.042	-0.166
-105.976	118.838	-0.114	-0.140
-104.962	55.804	0.116	-0.112
-103.947	-100.603	0.245	0.060
-102.932	800.000	-0.110	-0.430
-101.918	-200.000	-0.030	-0.256
-100.903	23.909	-0.077	-0.063
-99.889	800.000	0.086	-0.278
-98.874	-141.481	0.212	0.021
-97.859	338.419	-0.183	0.354
-96.845	373.398	0.022	-0.044
-95.830	-16.438	0.116	-0.073
-94.816	160.352	0.077	-0.107
-93.801	276.913	0.027	-0.047
-92.786	21.888	0.128	0.103
-91.772	-200.000	-0.021	-0.114
-90.757	-132.656	0.180	-0.023
-89.743	538.855	-0.188	0.445
-88.728	55.439	-0.264	0.254
-87.713	-38.067	-0.192	-0.101
-86.699	6.826	-0.179	-0.132
-85.684	98.956	-0.123	0.141
-84.670	-102.587	0.308	-0.073
-83.655	65.456	0.084	-0.084
-82.640	-56.205	-0.185	-0.082
-81.626	-33.780	0.129	0.070
-80.611	477.446	-0.121	0.271
-79.597	-172.464	0.379	0.012
-78.582	-200.000	0.235	-0.000
-77.567	271.949	-0.153	0.268
-76.553	15.061	-0.233	-0.181
-75.538	-171.932	-0.048	0.002
-74.524	-92.417	-0.169	-0.047
-73.509	-97.132	-0.096	0.025
-72.494	-102.969	0.120	0.028
-71.480	-94.667	-0.089	-0.024
-70.465	-200.000	0.052	0.619
-69.451	-200.000	-0.053	0.510
-68.436	-200.000	-0.023	-0.248
-67.422	78.730	0.105	0.112
-66.407	-48.065	-0.378	-0.181
-65.392	-49.525	0.255	0.121
-64.378	-200.000	0.016	-0.201
-63.363	-87.267	-0.233	-0.070
-62.349	215.609	0.062	-0.097
-61.334	70.531	-0.833	-0.855
-60.319	106.607	0.552	0.650
-59.305	439.897	-0.506	-1.097
-58.290	346.844	0.612	1.194
-57.276	800.000	0.450	1.473
-56.261	-200.000	97.882	591.706
-55.246	593.906	1437.499	3524.601
-54.232	178.417	2651.665	3839.841
-53.217	109.105	2358.652	2798.378
-52.203	39.139	2105.377	1867.433
-51.188	34.188	2019.354	1745.798
-50.173	32.644	2000.910	1715.744
-49.159	48.138	2051.182	1901.945
-48.144	49.569	2069.446	1931.982
-47.130	34.815	2030.144	1760.630
-46.115	32.510	2018.966	1729.718
-45.100	32.310	2015.980	1725.256
-44.086	32.283	2013.233	1722.591
-43.071	32.267	2010.926	1720.404
-42.057	32.198	2008.506	1717.633
-41.042	32.256	2006.925	1716.746
-40.027	32.332	2004.955	1715.686
-39.013	32.301	2002.881	1713.558
-37.998	32.333	2000.566	1711.802
-36.984	32.295	1999.315	1710.313
-35.969	32.415	1996.917	1709.285
-34.954	32.398	1995.509	1707.861
-33.940	32.450	1993.699	1706.717
-32.925	32.373	1992.936	1705.291
-31.911	32.487	1990.635	1704.293
-30.896	32.477	1989.069	1702.787
-29.881	32.480	1987.828	1701.688
-28.867	32.532	1986.032	1700.557
-27.852	32.458	1984.750	1698.718
-26.838	32.536	1982.034	1697.031
-25.823	32.476	1979.944	1694.630
-24.809	32.428	1978.704	1693.073
-23.794	32.439	1976.904	1691.563
-22.779	32.488	1975.166	1690.455
-21.765	32.554	1972.892	1689.028
-20.750	32.475	1971.594	1687.140
-19.736	32.453	1969.401	1685.005
-18.721	32.457	1968.543	1684.238
-17.706	32.473	1966.622	1682.675
-16.692	32.435	1964.861	1680.755
-15.677	32.392	1963.716	1679.331
-14.663	32.510	1961.831	1678.697
-13.648	32.500	1960.703	1677.582
-12.633	32.404	1960.043	1676.092
-11.619	32.406	1958.626	1674.834
-10.604	32.453	1957.248	1674.003
-9.590	32.408	1955.506	1672.048
-8.575	32.443	1953.921	1670.942
-7.560	32.441	1952.722	1669.834
-6.546	32.493	1951.436	1669.125
-5.531	32.446	1950.363	1667.723
-4.517	32.560	1948.721	1667.265
-3.502	32.483	1947.659	1665.611
-2.487	32.518	1945.953	1664.396
-1.473	32.521	1945.234	1663.737
-0.458	32.600	1941.471	1661.154
0.556	34.131	1922.702	1638.637
1.571	30.717	1905.073	1594.277
2.586	27.185	1928.447	1582.999
3.600	26.249	1965.428	1604.899
4.615	24.998	1958.861	1588.312
5.629	18.558	1852.591	1447.826
6.644	8.796	1729.815	1274.440
7.659	4.317	1692.420	1211.860
8.673	3.954	1689.197	1206.613
9.688	3.982	1687.648	1205.612
10.702	3.935	1686.298	1204.178
11.717	3.949	1683.083	1201.887
12.731	4.466	1682.683	1205.505
13.746	10.768	1698.097	1265.670
14.761	19.003	1715.990	1343.479
15.775	21.254	1717.595	1362.196
16.790	20.359	1715.109	1353.126
17.804	19.404	1711.898	1343.042
18.819	18.416	1708.415	1332.508
19.834	17.735	1706.455	1325.570
20.848	17.528	1704.780	1322.549
21.863	17.282	1703.371	1319.428
22.877	17.170	1701.775	1317.208
23.892	16.857	1700.838	1313.936
24.907	16.845	1699.000	1312.307
25.921	16.794	1698.450	1311.374
26.936	16.782	1697.512	1310.440
27.950	16.798	1696.514	1309.677
28.965	16.909	1696.093	1310.093
29.980	17.030	1694.603	1309.764
30.994	17.072	1693.985	1309.490
32.009	17.023	1693.343	1308.504
33.023	17.208	1692.245	1308.959
34.038	17.165	1691.331	1307.812
35.053	17.169	1689.891	1306.612
36.067	17.075	1688.777	1304.909
37.082	17.066	1687.411	1303.667
38.096	16.992	1686.492	1302.276
39.111	17.046	1686.135	1302.299
40.126	17.089	1685.400	1301.947
41.140	17.091	1683.823	1300.627
42.155	16.929	1682.633	1298.358
43.169	16.779	1680.890	1295.749
44.184	16.691	1679.809	1294.124
45.199	16.629	1678.835	1292.788
46.213	16.616	1677.775	1291.760
47.228	16.772	1675.700	1291.237
48.242	16.806	1675.207	1291.001
49.257	16.863	1674.183	1290.532
50.271	16.975	1672.797	1290.204
51.286	16.976	1671.362	1288.986
52.301	16.997	1670.336	1288.241
53.315	16.954	1669.190	1286.915
54.330	16.937	1667.705	1285.532
55.344	16.810	1665.870	1283.040
56.359	16.721	1664.511	1281.209
57.374	16.823	1662.929	1280.645
58.388	16.788	1662.173	1279.689
59.403	16.704	1660.320	1277.510
60.417	16.694	1658.823	1276.175
61.432	16.640	1658.290	1275.240
62.447	16.542	1657.218	1273.567
63.461	16.587	1655.867	1272.753
64.476	16.561	1654.831	1271.652
65.490	16.565	1653.342	1270.427
66.505	16.615	1651.707	1269.432
67.520	16.576	1651.183	1268.622
68.534	16.575	1650.219	1267.766
69.549	16.613	1648.969	1266.978
70.563	16.518	1648.483	1265.782
71.578	16.560	1647.306	1265.077
72.593	16.524	1645.762	1263.509
73.607	16.454	1644.531	1261.929
74.622	16.375	1643.692	1260.585
75.636	16.462	1642.984	1260.578
76.651	16.374	1641.742	1258.862
77.666	16.459	1641.146	1258.927
78.680	16.412	1640.518	1257.982
79.695	16.546	1639.134	1257.805
80.709	16.465	1638.842	1256.869
81.724	16.623	1637.425	1256.842
82.739	16.695	1636.880	1256.849
83.753	16.815	1635.815	1256.811
84.768	16.858	1635.021	1256.407
85.782	16.898	1634.216	1255.975
86.797	17.071	1633.422	1256.533
87.812	17.175	1632.452	1256.446
88.826	17.021	1631.050	1254.114
89.841	16.860	1630.319	1252.253
90.855	16.920	1629.305	1251.810
91.870	17.006	1628.265	1251.529
92.884	17.028	1627.173	1250.747
93.899	17.080	1626.351	1250.388
94.914	17.090	1624.550	1248.965
95.928	17.012	1624.097	1247.933
96.943	17.225	1622.296	1248.001
97.957	17.135	1621.320	1246.478
98.972	17.031	1619.674	1244.338
99.987	17.062	1617.958	1243.141
101.001	17.027	1616.741	1241.840
102.016	17.082	1614.769	1240.616
103.030	17.007	1613.714	1239.148
104.045	16.981	1612.833	1238.169
105.060	17.141	1610.842	1237.696
106.074	16.947	1609.800	1235.376
107.089	16.904	1607.956	1233.542
108.103	16.671	1606.816	1230.863
109.118	16.609	1605.051	1228.954
110.133	16.536	1603.217	1226.906
111.147	16.558	1601.871	1225.927
112.162	16.611	1600.464	1225.126
113.176	16.631	1599.104	1224.126
114.191	16.603	1597.777	1222.797
115.206	16.760	1596.439	1222.798
116.220	16.767	1595.727	1222.197
117.235	16.650	1594.284	1220.138
118.249	16.760	1592.672	1219.587
119.264	16.674	1591.530	1217.987
120.279	16.622	1590.308	1216.567
121.293	16.602	1588.508	1214.942
122.308	16.693	1586.829	1214.205
123.322	16.554	1585.349	1211.969
124.337	16.513	1583.576	1210.208
125.352	16.495	1582.707	1209.311
126.366	16.530	1581.536	1208.560
127.381	16.447	1580.698	1207.218
128.395	16.496	1579.346	1206.428
129.410	16.486	1577.917	1205.160
130.424	16.498	1576.913	1204.369
131.439	16.524	1575.621	1203.467
132.454	16.589	1574.368	1202.860
133.468	16.751	1572.606	1202.563
134.483	16.715	1571.357	1201.247
135.497	16.700	1570.586	1200.438
136.512	16.789	1568.369	1199.273
137.527	16.865	1567.230	1198.835
138.541	16.804	1565.989	1197.344
139.556	16.848	1564.361	1196.307
140.570	16.813	1563.331	1195.167
141.585	16.885	1561.863	1194.445
142.600	16.850	1561.525	1193.835
143.614	17.016	1560.079	1193.788
144.629	17.079	1558.706	1193.075
145.643	17.161	1557.040	1192.268
146.658	17.197	1556.014	1191.636
147.673	17.087	1554.811	1189.836
148.687	17.052	1552.607	1187.797
149.702	16.963	1551.185	1185.982
150.716	16.902	1549.583	1184.230
151.731	16.902	1547.962	1182.886
152.746	16.944	1546.752	1182.147
153.760	16.817	1545.636	1180.302
154.775	16.880	1543.982	1179.375
155.789	17.026	1543.075	1179.594
156.804	17.094	1541.628	1178.857
157.819	17.015	1540.552	1177.378
158.833	17.021	1539.746	1176.703
159.848	17.068	1538.705	1176.130
160.862	17.205	1537.216	1175.832
161.877	17.232	1536.369	1175.268
162.892	17.187	1534.700	1173.579
163.906	17.041	1533.198	1171.317
164.921	16.898	1531.880	1169.223
165.935	16.954	1530.754	1168.642
166.950	16.914	1529.744	1167.495
167.964	17.040	1528.869	1167.591
168.979	17.037	1527.705	1166.578
169.994	17.007	1526.737	1165.528
171.008	17.054	1525.726	1164.973
172.023	16.973	1524.648	1163.496
173.037	17.090	1523.178	1163.073
174.052	17.226	1522.220	1163.168
175.067	17.196	1521.441	1162.265
176.081	17.162	1520.021	1160.841
177.096	17.019	1518.644	1158.711
178.110	16.930	1517.592	1157.200
179.125	17.040	1515.644	1156.366
180.140	17.057	1514.358	1155.393
181.154	17.047	1513.854	1154.841
182.169	17.186	1512.944	1154.992
183.183	17.212	1511.888	1154.256
184.198	17.265	1510.823	1153.701
185.213	17.307	1509.901	1153.181
186.227	17.374	1508.685	1152.604
187.242	17.327	1507.948	1151.620
188.256	17.463	1506.662	1151.455
189.271	17.388	1505.736	1150.143
190.286	17.456	1504.580	1149.617
191.300	17.476	1503.440	1148.776
192.315	17.195	1502.076	1145.738
193.329	16.971	1500.518	1142.939
194.344	16.875	1499.565	1141.466
195.359	17.030	1498.445	1141.557
196.373	17.104	1497.628	1141.332
197.388	17.307	1496.293	1141.574
198.402	17.286	1495.447	1140.689
199.417	17.398	1494.469	1140.592
200.432	17.497	1493.639	1140.522
201.446	17.534	1492.957	1140.147
202.461	17.705	1491.553	1140.114
203.475	17.672	1490.827	1139.241
204.490	17.746	1489.323	1138.481
205.504	17.697	1488.296	1137.274
206.519	17.537	1487.326	1135.360
207.534	17.491	1485.854	1133.834
208.548	17.492	1484.690	1132.848
209.563	17.385	1483.741	1131.315
210.577	17.570	1483.024	1131.900
211.592	17.540	1482.361	1131.093
212.607	17.557	1481.721	1130.613
213.621	17.710	1480.787	1130.818
214.636	17.779	1479.221	1129.981
215.650	17.681	1478.334	1128.553
216.665	17.639	1477.980	1127.908
217.680	17.651	1477.278	1127.348
218.694	17.723	1476.436	1127.086
219.709	17.869	1475.668	1127.358
220.723	17.907	1474.426	1126.565
221.738	17.838	1473.227	1125.092
222.753	17.828	1472.666	1124.496
223.767	17.777	1471.807	1123.407
224.782	17.896	1470.287	1122.930
225.796	17.799	1469.790	1121.816
226.811	17.939	1469.172	1122.165
227.826	17.890	1468.627	1121.322
228.840	17.877	1466.983	1119.883
229.855	17.901	1465.877	1119.101
230.869	17.865	1464.878	1118.001
231.884	17.841	1463.682	1116.831
232.899	17.758	1462.772	1115.497
233.913	17.753	1461.429	1114.340
234.928	17.727	1459.971	1112.963
235.942	17.615	1459.232	1111.572
236.957	17.694	1457.643	1110.774
237.972	17.490	1456.753	1108.670
238.986	17.698	1455.495	1108.969
240.001	17.729	1454.506	1108.315
241.015	17.752	1453.721	1107.768
242.030	17.685	1452.673	1106.442
243.045	17.837	1451.865	1106.715
244.059	17.875	1450.821	1106.065
245.074	17.851	1449.577	1104.862
246.088	17.906	1449.401	1104.985
247.103	17.985	1448.301	1104.560
248.117	18.006	1447.660	1104.111
249.132	18.068	1446.764	1103.728
250.147	18.187	1446.377	1104.103
251.161	18.337	1445.575	1104.362
252.176	18.476	1445.341	1104.985
253.190	18.405	1444.225	1103.576
254.205	18.564	1443.467	1103.922
255.220	18.665	1442.467	1103.709
256.234	18.596	1441.888	1102.726
257.249	18.639	1440.829	1102.094
258.263	18.607	1439.968	1101.131
259.278	18.596	1439.004	1100.229
260.293	18.551	1438.209	1099.236
261.307	18.586	1437.169	1098.564
262.322	18.655	1436.820	1098.643
263.336	18.735	1435.788	1098.266
264.351	18.691	1435.075	1097.344
265.366	18.820	1433.592	1096.937
266.380	18.744	1432.800	1095.750
267.395	18.791	1431.849	1095.221
268.409	18.741	1431.207	1094.315
269.424	18.680	1429.916	1092.844
270.439	18.675	1428.754	1091.830
271.453	18.649	1427.627	1090.705
272.468	18.575	1426.788	1089.496
273.482	18.573	1426.230	1088.960
274.497	18.570	1425.162	1088.032
275.512	18.534	1424.189	1086.963
276.526	18.611	1423.355	1086.721
277.541	18.676	1422.355	1086.271
278.555	18.546	1421.826	1084.947
279.570	18.651	1420.639	1084.610
280.585	18.720	1419.660	1084.203
281.599	18.858	1419.012	1084.483
282.614	18.749	1418.528	1083.332
283.628	18.815	1416.693	1082.246
284.643	18.704	1415.683	1080.681
285.657	18.670	1414.852	1079.736
286.672	18.775	1413.730	1079.446
287.687	18.793	1412.576	1078.581
288.701	18.702	1411.736	1077.276
289.716	18.740	1410.950	1076.816
290.730	18.834	1409.997	1076.585
291.745	18.835	1408.752	1075.548
292.760	18.867	1408.201	1075.230
293.774	18.836	1407.205	1074.183
294.789	18.958	1406.001	1073.926
295.803	19.051	1405.108	1073.734
296.818	18.961	1405.031	1073.016
297.833	18.853	1403.930	1071.404
298.847	18.794	1402.636	1069.957
299.862	18.771	1402.009	1069.238
300.876	18.860	1400.485	1068.539
301.891	18.991	1399.778	1068.717
302.906	18.909	1399.073	1067.578
303.920	19.117	1398.026	1067.975
304.935	19.032	1397.526	1066.966
305.949	19.153	1396.795	1067.068
306.964	19.237	1396.068	1066.937
307.979	19.297	1395.249	1066.588
308.993	19.279	1393.985	1065.418
310.008	19.260	1392.991	1064.443
311.022	19.074	1392.421	1062.765
312.037	19.287	1390.932	1062.850
313.052	19.310	1389.853	1062.073
314.066	19.195	1389.429	1060.944
315.081	19.144	1387.611	1059.150
316.095	19.040	1386.765	1057.772
317.110	18.963	1385.791	1056.464
318.125	18.996	1385.005	1055.971
319.139	18.997	1384.095	1055.193
320.154	19.063	1382.793	1054.509
321.168	19.070	1381.994	1053.850
322.183	19.133	1380.999	1053.382
323.197	19.078	1380.065	1052.242
324.212	19.072	1379.277	1051.511
325.227	19.133	1378.372	1051.103
326.241	19.211	1377.114	1050.521
327.256	19.134	1376.708	1049.654
328.270	19.110	1376.229	1049.045
329.285	19.205	1374.959	1048.567
330.300	19.145	1373.846	1047.257
331.314	19.163	1372.853	1046.515
332.329	19.079	1371.822	1045.127
333.343	19.164	1370.546	1044.581
334.358	19.173	1370.441	1044.463
335.373	19.259	1369.790	1044.395
336.387	19.396	1368.424	1044.092
337.402	19.314	1368.057	1043.220
338.416	19.447	1367.488	1043.497
339.431	19.486	1366.404	1042.817
340.446	19.508	1366.007	1042.552
341.460	19.481	1365.419	1041.848
342.475	19.634	1364.519	1041.995
343.489	19.691	1363.509	1041.473
344.504	19.729	1362.198	1040.609
345.519	19.849	1360.962	1040.297
346.533	19.845	1360.231	1039.621
347.548	19.785	1359.677	1038.746
348.562	19.848	1358.836	1038.389
349.577	19.930	1358.048	1038.188
350.592	19.710	1357.650	1036.470
351.606	19.724	1356.132	1035.304
352.621	19.627	1354.882	1033.679
353.635	19.519	1354.022	1032.286
354.650	19.541	1352.900	1031.468
355.665	19.529	1352.000	1030.617
356.679	19.666	1350.774	1030.411
357.694	19.641	1349.774	1029.406
358.708	19.776	1348.520	1029.162
359.723	19.715	1347.751	1028.121
360.738	19.823	1346.642	1027.826
361.752	19.752	1345.806	1026.679
362.767	19.690	1344.688	1025.368
363.781	19.759	1344.023	1025.180
364.796	19.680	1343.503	1024.222
365.810	19.791	1342.904	1024.332
366.825	19.909	1341.680	1024.007
367.840	20.060	1341.168	1024.418
368.854	20.078	1340.462	1023.895
369.869	20.055	1340.385	1023.606
370.883	20.225	1339.364	1023.744
371.898	20.128	1338.929	1022.749
372.913	20.099	1337.612	1021.479
373.927	20.047	1336.691	1020.378
374.942	20.029	1335.802	1019.505
375.956	20.033	1335.327	1019.074
376.971	20.213	1334.231	1019.207
377.986	20.170	1333.516	1018.318
379.000	20.134	1332.768	1017.446
380.015	20.213	1331.906	1017.161
381.029	20.242	1331.235	1016.725
382.044	20.377	1330.550	1016.907
383.059	20.348	1329.875	1016.130
384.073	20.342	1329.495	1015.712
385.088	20.287	1328.740	1014.724
386.102	20.329	1327.854	1014.205
387.117	20.395	1326.870	1013.749
388.132	20.393	1325.900	1012.903
389.146	20.225	1325.151	1011.264
390.161	20.082	1324.796	1010.068
391.175	20.402	1323.057	1010.517
392.190	20.216	1322.125	1008.638
393.205	20.192	1322.059	1008.354
394.219	20.409	1320.533	1008.362
395.234	20.429	1319.432	1007.548
396.248	20.268	1318.592	1005.885
397.263	20.284	1317.264	1004.876
398.278	20.293	1315.312	1003.348
399.292	20.233	1314.356	1002.183
400.307	20.091	1313.448	1000.583
401.321	20.204	1312.265	1000.244
402.336	20.226	1310.917	999.255
403.350	20.053	1310.455	997.821
404.365	20.118	1309.747	997.567
405.380	20.246	1308.547	997.302
406.394	20.245	1307.822	996.656
407.409	20.306	1307.432	996.617
408.423	20.236	1307.212	995.963
409.438	20.434	1306.386	996.378
410.453	20.561	1305.008	995.968
411.467	20.604	1304.381	995.650
412.482	20.671	1303.838	995.530
413.496	20.692	1302.993	994.917
414.511	20.668	1302.800	994.541
415.526	20.689	1302.038	993.991
416.540	20.744	1300.990	993.420
417.555	20.821	1300.359	993.290
418.569	20.830	1299.945	992.938
419.584	20.830	1299.352	992.395
420.599	20.774	1298.534	991.366
421.613	142.154	1433.567	1792.464
422.628	137.522	1453.234	1792.572
