DTS Sentinel unit serial number:	SN413079Multiplexer serial number:	ORYXHardware model number:	OX4-SRSoftware version number:	ORYX F/W v4.00 Oryx Data Collector v3.7.2.0data status	okinstallation	princeton_trtdifferential loss correction	single-endedforward channel	channel 4reverse channel	N/Adate	2019/09/13time	10:05:35forward acquisition time	60.00reverse acquisition time	0.00gamma	496.2192k internal	0.2309k external	0.2309temperature offset calibration	1.0191default loss term (dB/km)	0.3790temperature slope calibration	1.0000multiplexer offset coefficient	1.0000multiplexer slope coefficient	1.0000fibre end	0.00T internal ref (°C)	30.39T ext. ref 1 (°C)	4.50T ext. ref 2 (°C)	27.66length (m)	temperature (°C)	Stokes	anti-Stokes-747.200	-18.403	-0.411	-0.261
-746.185	-26.749	-0.221	-0.131
-745.171	28.819	-0.152	0.131
-744.156	-112.146	0.236	-0.048
-743.142	-19.503	-0.086	-0.054
-742.127	-166.246	0.151	-0.006
-741.112	104.056	-0.041	0.049
-740.098	800.000	-0.084	0.261
-739.083	302.365	-0.072	0.135
-738.069	299.668	-0.102	0.192
-737.054	95.726	0.065	-0.075
-736.039	-200.000	0.008	-0.106
-735.025	-72.361	0.359	0.135
-734.010	-97.215	0.161	-0.043
-732.996	21.020	0.256	-0.211
-731.981	-200.000	0.010	-0.160
-730.966	162.213	-0.135	-0.192
-729.952	-11.330	-0.247	-0.165
-728.937	85.912	-0.154	-0.172
-727.923	23.474	0.063	-0.053
-726.908	-122.187	-0.309	0.051
-725.894	-4.206	0.108	-0.076
-724.879	8.346	-0.339	0.259
-723.864	-200.000	0.040	0.279
-722.850	-112.589	0.003	-0.001
-721.835	55.928	-0.055	0.054
-720.821	-25.476	-0.148	-0.089
-719.806	-200.000	0.019	0.159
-718.791	-22.537	0.069	-0.042
-717.777	-66.877	0.111	-0.045
-716.762	255.973	-0.054	0.094
-715.748	100.934	0.218	0.257
-714.733	326.025	-0.069	0.133
-713.718	141.293	-0.077	0.104
-712.704	800.000	-0.008	0.023
-711.689	-200.000	0.018	-0.121
-710.675	611.169	-0.086	-0.218
-709.660	-200.000	0.025	0.229
-708.645	800.000	0.084	0.237
-707.631	800.000	-0.005	0.017
-706.616	800.000	-0.022	0.080
-705.602	450.296	0.081	-0.182
-704.587	-150.442	-0.073	0.006
-703.572	-142.657	0.472	0.047
-702.558	164.659	0.131	0.187
-701.543	47.177	-0.229	-0.217
-700.529	267.197	0.111	-0.197
-699.514	-138.806	0.096	0.011
-698.499	37.105	0.206	-0.185
-697.485	-27.326	-0.150	-0.089
-696.470	436.779	0.038	0.084
-695.456	95.617	-0.134	0.156
-694.441	-117.847	0.261	-0.048
-693.426	365.607	0.044	0.090
-692.412	-95.662	-0.173	-0.047
-691.397	8.629	0.283	-0.216
-690.383	122.680	0.175	-0.222
-689.368	800.000	0.104	-0.430
-688.354	562.989	0.089	-0.218
-687.339	800.000	0.051	-0.159
-686.324	-200.000	0.008	0.056
-685.310	-56.066	-0.405	0.183
-684.295	17.276	0.100	-0.080
-683.281	184.768	0.064	0.097
-682.266	-18.665	0.222	-0.140
-681.251	-116.826	-0.285	0.053
-680.237	-0.958	-0.283	0.203
-679.222	-100.801	0.016	0.004
-678.208	-80.544	0.084	-0.029
-677.193	-15.308	-0.236	-0.153
-676.178	-200.000	0.008	-0.129
-675.164	-200.000	-0.001	-0.195
-674.149	-13.882	-0.062	-0.041
-673.135	-85.606	-0.180	0.057
-672.120	-200.000	0.009	0.426
-671.105	800.000	-0.093	0.277
-670.091	59.394	-0.200	0.200
-669.076	99.037	0.158	0.185
-668.062	-42.248	0.124	0.064
-667.047	-159.448	0.211	0.012
-666.032	183.952	0.044	-0.067
-665.018	-69.549	0.134	0.052
-664.003	725.678	0.131	-0.353
-662.989	353.086	-0.038	-0.076
-661.974	159.295	-0.057	-0.080
-660.959	-76.061	0.390	-0.139
-659.945	124.166	0.099	-0.126
-658.930	248.075	0.069	0.119
-657.916	-200.000	0.010	-0.472
-656.901	303.805	-0.138	-0.260
-655.886	468.307	0.142	-0.322
-654.872	-121.332	-0.106	0.018
-653.857	-123.564	0.482	0.077
-652.843	-68.972	0.288	0.112
-651.828	-200.000	0.007	-0.088
-650.814	91.248	-0.087	-0.099
-649.799	561.751	-0.033	0.081
-648.784	162.695	-0.118	-0.167
-647.770	68.367	0.114	-0.118
-646.755	-46.324	-0.318	-0.158
-645.741	193.042	-0.170	0.261
-644.726	-95.051	0.101	0.028
-643.711	-51.302	-0.134	0.064
-642.697	-94.930	-0.328	0.090
-641.682	-60.480	0.205	0.088
-640.668	800.000	-0.072	0.265
-639.653	-32.366	0.128	0.072
-638.638	34.308	0.041	-0.036
-637.624	-59.338	0.039	-0.017
-636.609	21.405	0.022	0.018
-635.595	-36.112	-0.295	-0.161
-634.580	-79.323	-0.123	0.042
-633.565	800.000	0.054	-0.196
-632.551	-155.841	-0.141	0.009
-631.536	485.358	0.024	0.056
-630.522	-200.000	0.043	-0.201
-629.507	-200.000	-0.070	0.442
-628.492	-71.903	-0.109	-0.041
-627.478	85.828	0.046	-0.051
-626.463	176.913	-0.176	0.259
-625.449	-200.000	-0.012	0.295
-624.434	46.280	0.060	-0.056
-623.419	34.534	-0.229	-0.202
-622.405	800.000	-0.044	0.152
-621.390	-200.000	0.001	-0.233
-620.376	58.447	0.023	-0.023
-619.361	340.269	-0.107	-0.212
-618.346	-200.000	0.003	0.152
-617.332	-107.091	-0.197	0.044
-616.317	507.445	0.080	-0.188
-615.303	-19.438	0.193	0.121
-614.288	450.076	0.062	-0.138
-613.273	-200.000	-0.026	0.249
-612.259	-200.000	-0.052	-0.411
-611.244	800.000	-0.096	-0.292
-610.230	173.834	0.079	0.116
-609.215	140.878	0.111	0.148
-608.201	-200.000	0.016	-0.138
-607.186	364.485	-0.054	-0.111
-606.171	800.000	0.041	-0.134
-605.157	-132.634	0.194	0.025
-604.142	-9.460	0.062	0.042
-603.128	1.535	0.091	0.066
-602.113	44.585	0.133	-0.124
-601.098	182.055	-0.103	-0.153
-600.084	-200.000	0.017	0.195
-599.069	335.415	-0.071	-0.138
-598.055	-73.326	0.407	0.150
-597.040	390.213	0.039	0.081
-596.025	392.955	-0.125	0.262
-595.011	156.774	0.060	0.084
-593.996	-147.212	-0.132	-0.011
-592.982	28.486	-0.431	0.368
-591.967	-146.397	0.194	-0.017
-590.952	-83.839	-0.279	0.090
-589.938	-38.043	-0.240	0.128
-588.923	95.132	-0.045	0.052
-587.909	231.582	-0.119	0.197
-586.894	800.000	-0.013	-0.038
-585.879	306.111	0.081	0.152
-584.865	800.000	-0.043	0.152
-583.850	-200.000	-0.037	-0.452
-582.836	-200.000	0.021	-0.268
-581.821	110.063	0.214	0.259
-580.806	-99.169	0.328	-0.084
-579.792	175.353	0.196	-0.287
-578.777	148.661	0.249	-0.339
-577.763	-148.860	-0.266	-0.022
-576.748	-51.100	-0.080	0.038
-575.733	-136.397	0.109	0.013
-574.719	-40.085	-0.111	-0.058
-573.704	772.478	-0.113	0.310
-572.690	-77.002	0.186	-0.066
-571.675	19.730	-0.210	-0.170
-570.661	-100.119	0.465	0.117
-569.646	-116.187	-0.381	0.071
-568.631	148.559	0.097	0.132
-567.617	-200.000	-0.007	0.036
-566.602	-44.206	0.233	-0.118
-565.588	18.102	-0.167	-0.135
-564.573	-27.053	-0.168	-0.099
-563.558	55.929	-0.451	-0.442
-562.544	-18.275	-0.089	-0.056
-561.529	31.485	0.217	0.188
-560.515	282.011	-0.064	-0.116
-559.500	-200.000	0.052	-0.252
-558.485	371.725	0.141	0.288
-557.471	-158.080	0.306	0.018
-556.456	-29.419	-0.281	0.162
-555.442	9.407	0.268	-0.205
-554.427	54.275	0.174	-0.169
-553.412	-200.000	0.008	-0.206
-552.398	-112.728	-0.134	0.027
-551.383	140.109	-0.078	-0.103
-550.369	-192.467	-0.292	0.003
-549.354	-200.000	0.012	-0.230
-548.339	-155.006	0.079	-0.005
-547.325	-200.000	-0.004	-0.371
-546.310	800.000	0.072	-0.286
-545.296	8.803	0.048	-0.036
-544.281	800.000	0.066	-0.256
-543.266	-3.568	-0.146	0.102
-542.252	-10.392	0.082	-0.055
-541.237	-200.000	0.003	-0.196
-540.223	-49.650	-0.225	-0.108
-539.208	-77.965	-0.291	0.101
-538.193	-29.831	0.079	-0.045
-537.179	-109.415	-0.148	-0.032
-536.164	-200.000	-0.012	-0.235
-535.150	-106.271	0.269	0.061
-534.135	14.549	-0.156	0.123
-533.121	41.296	-0.143	0.130
-532.106	-200.000	0.001	0.066
-531.091	-41.309	-0.147	-0.076
-530.077	800.000	-0.071	0.298
-529.062	340.095	-0.081	0.158
-528.048	74.738	-0.073	0.077
-527.033	-109.355	-0.133	0.028
-526.018	-8.275	0.350	-0.237
-525.004	-32.881	-0.153	0.085
-523.989	68.978	-0.253	0.262
-522.975	13.964	0.115	-0.090
-521.960	-126.544	-0.269	-0.040
-520.945	-98.184	0.314	0.081
-519.931	-148.408	-0.069	-0.006
-518.916	-46.870	-0.193	-0.095
-517.902	-177.873	-0.125	-0.003
-516.887	90.756	-0.070	-0.079
-515.872	169.235	0.168	-0.242
-514.858	-200.000	0.005	0.268
-513.843	-76.325	-0.185	0.066
-512.829	29.288	0.346	-0.296
-511.814	118.829	0.064	-0.080
-510.799	-97.231	-0.269	0.071
-509.785	273.497	0.111	0.198
-508.770	-97.591	0.071	-0.019
-507.756	-200.000	0.050	0.341
-506.741	140.131	0.139	-0.184
-505.726	800.000	-0.084	-0.289
-504.712	146.308	0.053	0.071
-503.697	112.810	-0.180	0.220
-502.683	66.970	-0.320	0.328
-501.668	-6.520	-0.330	-0.227
-500.653	495.974	0.089	0.206
-499.639	-21.442	-0.077	0.048
-498.624	-52.005	0.283	0.132
-497.610	-52.302	0.085	-0.040
-496.595	82.735	0.171	0.187
-495.581	-200.000	0.069	0.362
-494.566	-68.654	-0.068	0.026
-493.551	800.000	0.035	0.118
-492.537	114.790	0.182	0.223
-491.522	317.267	-0.078	-0.149
-490.508	-107.791	-0.387	-0.085
-489.493	256.872	-0.026	-0.044
-488.478	-169.567	-0.209	-0.008
-487.464	311.476	0.110	-0.207
-486.449	122.085	0.173	-0.217
-485.435	-150.821	-0.187	-0.014
-484.420	-151.989	-0.199	-0.015
-483.405	-82.102	0.229	0.075
-482.391	-106.405	0.289	-0.065
-481.376	-90.397	0.162	0.047
-480.362	-96.342	-0.146	0.039
-479.347	13.043	0.215	0.167
-478.332	253.083	-0.134	0.231
-477.318	165.175	0.253	0.359
-476.303	-200.000	0.048	0.315
-475.289	-26.605	0.129	-0.076
-474.274	108.088	-0.287	-0.344
-473.259	-200.000	0.035	-0.169
-472.245	-61.558	0.201	0.085
-471.230	-13.547	0.074	0.048
-470.216	-200.000	-0.037	0.171
-469.201	180.151	-0.148	-0.218
-468.186	800.000	-0.035	-0.101
-467.172	-200.000	-0.025	0.134
-466.157	-123.819	-0.155	0.025
-465.143	-111.774	-0.315	-0.064
-464.128	-9.193	0.185	0.124
-463.113	-87.215	-0.263	0.080
-462.099	-200.000	-0.013	0.366
-461.084	-109.409	-0.127	-0.027
-460.070	-105.288	0.225	-0.052
-459.055	-200.000	-0.027	0.202
-458.040	-200.000	-0.025	0.229
-457.026	36.334	0.041	0.036
-456.011	-200.000	-0.051	-0.416
-454.997	-140.109	-0.394	-0.042
-453.982	378.430	-0.055	-0.112
-452.968	-109.723	-0.301	0.064
-451.953	37.204	0.180	-0.160
-450.938	-200.000	-0.034	0.159
-449.924	150.041	-0.082	-0.112
-448.909	118.623	0.220	-0.272
-447.895	-200.000	-0.044	0.229
-446.880	223.657	0.224	0.362
-445.865	-58.959	-0.149	-0.065
-444.851	-132.658	0.115	0.015
-443.836	116.885	0.121	0.150
-442.822	195.017	-0.139	-0.212
-441.807	-200.000	-0.004	0.064
-440.792	-85.022	0.294	0.092
-439.778	27.646	0.218	-0.185
-438.763	800.000	-0.061	-0.185
-437.749	9.976	0.199	0.152
-436.734	170.388	-0.137	-0.196
-435.719	-161.066	0.233	-0.012
-434.705	800.000	0.083	-0.274
-433.690	162.650	-0.121	0.170
-432.676	-200.000	0.032	-0.229
-431.661	-200.000	-0.083	-0.419
-430.646	-200.000	0.015	-0.140
-429.632	260.833	-0.073	-0.127
-428.617	131.710	-0.106	-0.136
-427.603	-162.473	0.037	0.002
-426.588	-22.755	0.260	0.158
-425.573	523.128	0.041	-0.096
-424.559	-13.745	-0.072	0.046
-423.544	622.035	-0.124	0.312
-422.530	244.456	-0.156	-0.263
-421.515	35.295	-0.078	-0.069
-420.500	37.147	0.150	0.133
-419.486	-200.000	0.007	0.049
-418.471	29.736	-0.085	-0.073
-417.457	800.000	0.012	0.043
-416.442	800.000	0.133	-0.454
-415.428	701.833	0.071	-0.188
-414.413	735.956	0.121	0.325
-413.398	349.661	0.173	0.342
-412.384	-200.000	-0.049	0.265
-411.369	-200.000	0.026	-0.228
-410.355	-74.440	0.138	0.050
-409.340	170.941	-0.061	-0.087
-408.325	-128.543	-0.461	-0.065
-407.311	-170.682	0.075	-0.003
-406.296	-66.918	-0.091	-0.036
-405.282	-50.383	0.063	-0.030
-404.267	506.133	-0.133	0.309
-403.252	-200.000	0.070	-0.343
-402.238	14.373	-0.140	-0.109
-401.223	-26.395	-0.327	0.192
-400.209	800.000	0.091	-0.336
-399.194	109.334	-0.137	-0.164
-398.179	-200.000	-0.005	0.035
-397.165	-200.000	-0.006	0.297
-396.150	-200.000	0.026	0.345
-395.136	-200.000	-0.027	0.123
-394.121	57.741	0.062	0.061
-393.106	36.621	-0.151	-0.134
-392.092	-200.000	-0.030	-0.321
-391.077	-110.058	-0.087	0.018
-390.063	-37.289	0.146	-0.078
-389.048	-25.419	0.252	-0.150
-388.033	-28.079	0.244	-0.141
-387.019	-83.353	-0.100	-0.032
-386.004	-137.121	0.466	-0.053
-384.990	-136.950	-0.285	0.033
-383.975	-45.949	0.102	-0.050
-382.960	-1.468	0.120	-0.085
-381.946	-125.736	0.260	0.039
-380.931	-57.479	-0.342	0.150
-379.917	100.445	0.135	0.156
-378.902	-9.501	0.166	-0.111
-377.888	-119.031	-0.373	-0.065
-376.873	-54.109	-0.251	-0.114
-375.858	-37.191	-0.166	-0.089
-374.844	-89.393	-0.272	-0.080
-373.829	-10.660	-0.023	-0.015
-372.815	14.047	0.346	0.270
-371.800	-45.066	0.262	0.131
-370.785	201.949	-0.154	-0.238
-369.771	57.120	0.110	-0.107
-368.756	-200.000	-0.018	0.114
-367.742	223.190	0.059	0.095
-366.727	247.326	-0.076	0.128
-365.712	625.946	-0.070	-0.178
-364.698	277.600	-0.102	-0.182
-363.683	92.797	0.100	0.113
-362.669	-148.408	0.220	-0.018
-361.654	-24.726	-0.333	0.198
-360.639	-7.879	0.226	-0.153
-359.625	-51.759	-0.300	0.140
-358.610	44.309	-0.183	-0.168
-357.596	-61.393	0.149	0.063
-356.581	-67.180	-0.182	0.072
-355.566	-164.489	0.171	0.008
-354.552	-179.484	0.342	-0.008
-353.537	217.932	-0.253	-0.404
-352.523	-200.000	-0.072	-0.369
-351.508	25.540	-0.357	-0.297
-350.493	-12.216	0.322	0.211
-349.479	-200.000	-0.005	-0.262
-348.464	84.317	0.248	0.271
-347.450	684.259	-0.070	-0.182
-346.435	-200.000	-0.063	0.277
-345.420	69.456	-0.306	-0.316
-344.406	-109.036	0.161	-0.034
-343.391	-127.422	-0.288	-0.042
-342.377	-134.486	-0.380	0.046
-341.362	-121.749	-0.243	-0.040
-340.348	-34.527	0.223	-0.122
-339.333	-49.626	0.125	0.060
-338.318	800.000	0.032	0.101
-337.304	288.145	-0.067	-0.121
-336.289	17.645	0.113	0.090
-335.275	-71.118	0.307	-0.115
-334.260	-200.000	0.044	0.262
-333.245	-143.332	0.125	0.012
-332.231	-159.149	0.075	0.004
-331.216	223.720	0.174	0.281
-330.202	-57.592	0.376	0.165
-329.187	-200.000	0.001	-0.113
-328.172	210.423	0.195	0.307
-327.158	-75.513	-0.207	-0.073
-326.143	-21.675	0.087	0.053
-325.129	-72.207	0.261	0.097
-324.114	58.214	-0.069	-0.068
-323.099	-200.000	-0.033	0.191
-322.085	-200.000	-0.030	-0.382
-321.070	207.797	0.089	0.139
-320.056	220.730	0.140	-0.225
-319.041	-200.000	0.050	-0.230
-318.026	8.269	0.202	-0.151
-317.012	305.113	0.110	-0.205
-315.997	82.849	-0.087	-0.094
-314.983	-8.196	0.160	-0.107
-313.968	38.611	-0.210	-0.187
-312.953	-73.641	0.292	0.106
-311.939	-135.751	-0.258	-0.030
-310.924	99.659	0.164	0.189
-309.910	703.209	0.033	-0.088
-308.895	-200.000	0.032	0.346
-307.880	-17.544	0.396	0.248
-306.866	-16.695	0.093	0.059
-305.851	-200.000	0.035	-0.246
-304.837	-58.863	-0.056	-0.024
-303.822	305.740	-0.118	-0.218
-302.807	189.164	0.043	0.065
-301.793	-200.000	-0.008	-0.155
-300.778	-7.144	0.243	-0.165
-299.764	78.772	0.187	-0.200
-298.749	-200.000	-0.033	-0.291
-297.735	-200.000	-0.019	0.146
-296.720	-107.928	-0.302	0.066
-295.705	-200.000	0.017	-0.091
-294.691	-181.370	-0.208	0.004
-293.676	99.470	-0.123	-0.142
-292.662	-200.000	-0.051	0.259
-291.647	-115.630	0.553	0.104
-290.632	800.000	0.044	0.130
-289.618	52.143	-0.121	0.115
-288.603	-41.911	0.507	0.260
-287.589	298.611	-0.203	0.373
-286.574	-163.799	-0.325	-0.015
-285.559	138.272	0.204	0.267
-284.545	-200.000	-0.015	0.107
-283.530	-124.505	-0.173	-0.027
-282.516	-82.099	0.224	0.073
-281.501	24.739	-0.171	-0.142
-280.486	26.987	0.212	-0.177
-279.472	-161.852	-0.168	0.009
-278.457	-31.819	0.353	0.198
-277.443	69.699	-0.150	0.154
-276.428	71.337	-0.057	0.059
-275.413	270.668	0.058	0.102
-274.399	60.760	-0.115	-0.114
-273.384	-90.914	0.260	0.075
-272.370	800.000	0.030	-0.107
-271.355	-25.182	0.168	0.099
-270.340	-200.000	-0.010	-0.195
-269.326	-71.119	0.129	-0.048
-268.311	800.000	-0.069	0.238
-267.297	800.000	0.070	0.257
-266.282	-200.000	0.045	0.278
-265.267	-200.000	-0.003	0.139
-264.253	800.000	-0.126	-0.428
-263.238	-53.268	-0.227	-0.104
-262.224	-185.225	0.493	-0.008
-261.209	8.060	-0.129	0.097
-260.195	-200.000	-0.032	0.434
-259.180	238.902	-0.083	-0.138
-258.165	117.280	-0.152	0.187
-257.151	800.000	0.066	0.280
-256.136	-76.707	-0.134	-0.047
-255.122	-135.318	-0.256	0.031
-254.107	0.169	0.203	0.144
-253.092	470.458	0.025	-0.055
-252.078	28.598	-0.092	0.078
-251.063	-102.805	-0.391	-0.093
-250.049	73.919	0.196	-0.205
-249.034	461.894	0.039	-0.086
-248.019	-200.000	0.030	0.136
-247.005	286.442	0.099	-0.178
-245.990	800.000	0.054	-0.183
-244.976	-68.664	0.170	-0.066
-243.961	53.450	0.150	0.144
-242.946	131.824	-0.241	0.309
-241.932	279.715	-0.087	-0.155
-240.917	353.217	-0.017	-0.033
-239.903	-3.531	-0.166	-0.115
-238.888	31.039	0.169	0.144
-237.873	65.307	-0.274	0.276
-236.859	-103.277	0.190	-0.045
-235.844	800.000	-0.049	0.163
-234.830	-124.447	0.210	-0.033
-233.815	-200.000	-0.023	0.210
-232.800	270.043	-0.158	-0.277
-231.786	-187.813	0.086	0.001
-230.771	26.297	0.066	-0.054
-229.757	-180.403	-0.412	0.009
-228.742	397.852	-0.019	-0.039
-227.727	-12.194	-0.097	-0.063
-226.713	800.000	0.100	0.342
-225.698	-33.051	0.036	0.020
-224.684	800.000	-0.067	-0.257
-223.669	21.907	0.029	0.024
-222.655	-87.036	0.114	0.035
-221.640	-200.000	-0.026	-0.121
-220.625	170.084	-0.096	0.136
-219.611	800.000	-0.083	0.288
-218.596	542.646	-0.093	0.220
-217.582	181.209	0.165	0.242
-216.567	19.758	-0.104	0.084
-215.552	-200.000	-0.078	0.348
-214.538	-154.515	0.197	-0.013
-213.523	530.615	0.174	-0.409
-212.509	800.000	-0.028	0.111
-211.494	10.387	0.159	-0.120
-210.479	61.464	-0.262	0.260
-209.465	-200.000	-0.012	0.196
-208.450	388.793	-0.130	-0.267
-207.436	-200.000	-0.009	-0.141
-206.421	-200.000	-0.010	0.193
-205.406	-121.411	0.386	0.064
-204.392	800.000	-0.063	-0.188
-203.377	-64.357	-0.150	-0.061
-202.363	-2.586	0.258	0.180
-201.348	47.463	-0.038	-0.035
-200.333	6.358	-0.047	0.035
-199.319	125.337	0.164	-0.206
-198.304	-97.558	-0.332	-0.086
-197.290	29.461	-0.168	-0.142
-196.275	-77.418	0.142	0.049
-195.260	800.000	0.054	0.152
-194.246	-200.000	-0.014	0.261
-193.231	5.975	-0.121	-0.089
-192.217	521.848	0.036	0.085
-191.202	-200.000	-0.048	0.214
-190.187	-90.340	-0.178	-0.051
-189.173	-120.078	0.414	-0.070
-188.158	-24.417	-0.225	-0.133
-187.144	800.000	-0.054	0.220
-186.129	-25.844	0.328	0.192
-185.114	-74.370	0.388	0.139
-184.100	225.725	-0.061	0.099
-183.085	-200.000	-0.013	-0.056
-182.071	-53.720	-0.243	0.110
-181.056	283.409	-0.219	-0.392
-180.042	127.579	-0.072	-0.091
-179.027	800.000	0.059	-0.190
-178.012	-145.232	0.194	-0.017
-176.998	786.464	0.060	0.164
-175.983	163.705	-0.167	-0.234
-174.969	-55.294	-0.246	-0.110
-173.954	355.929	0.129	-0.255
-172.939	-33.710	-0.205	-0.112
-171.925	-111.143	0.069	-0.014
-170.910	800.000	0.124	-0.344
-169.896	800.000	-0.045	-0.150
-168.881	-13.257	0.226	-0.146
-167.866	800.000	0.061	-0.248
-166.852	-49.801	-0.229	0.108
-165.837	-54.135	0.356	0.161
-164.823	480.471	0.162	0.365
-163.808	-101.452	-0.307	-0.074
-162.793	-200.000	-0.033	-0.180
-161.779	-14.136	0.315	0.202
-160.764	-147.342	-0.120	-0.010
-159.750	-200.000	0.019	-0.085
-158.735	3.801	-0.195	-0.141
-157.720	38.787	0.126	-0.111
-156.706	-200.000	0.020	0.408
-155.691	145.942	0.053	0.071
-154.677	-144.023	-0.123	0.012
-153.662	-98.431	0.266	-0.068
-152.647	800.000	0.048	0.157
-151.633	-93.707	0.334	0.092
-150.618	60.273	0.240	0.236
-149.604	154.567	0.138	-0.189
-148.589	146.820	0.237	0.316
-147.574	-93.999	0.213	-0.058
-146.560	48.338	-0.181	0.168
-145.545	800.000	0.070	-0.295
-144.531	-70.620	0.313	0.117
-143.516	154.968	-0.008	-0.011
-142.502	-58.791	-0.184	-0.079
-141.487	-12.895	-0.208	0.134
-140.472	53.399	0.126	-0.120
-139.458	-200.000	0.050	0.363
-138.443	-200.000	-0.067	0.364
-137.429	359.673	0.077	-0.153
-136.414	-25.523	0.103	-0.060
-135.399	221.790	-0.111	-0.177
-134.385	204.194	-0.238	-0.366
-133.370	503.601	-0.082	0.188
-132.356	24.212	0.369	-0.302
-131.341	-200.000	-0.082	-0.374
-130.326	-200.000	-0.107	0.499
-129.312	308.834	0.159	0.295
-128.297	-28.532	0.098	-0.056
-127.283	-94.985	0.246	0.066
-126.268	-139.913	0.234	-0.025
-125.253	-137.550	-0.317	0.035
-124.239	-200.000	0.001	0.162
-123.224	800.000	-0.060	-0.199
-122.210	-200.000	0.030	0.288
-121.195	128.769	0.150	0.190
-120.180	-45.688	-0.292	-0.143
-119.166	-200.000	0.017	0.114
-118.151	800.000	0.052	0.186
-117.137	121.594	-0.151	-0.186
-116.122	95.628	-0.089	-0.100
-115.107	-200.000	-0.002	-0.167
-114.093	93.096	0.214	0.240
-113.078	-200.000	-0.004	0.084
-112.064	304.129	0.067	0.123
-111.049	203.217	-0.159	0.244
-110.034	800.000	0.020	0.077
-109.020	118.590	0.277	-0.339
-108.005	-46.649	-0.118	0.057
-106.991	-200.000	0.037	0.191
-105.976	-119.871	-0.178	-0.030
-104.962	-93.296	0.116	-0.032
-103.947	34.459	0.233	0.202
-102.932	356.350	0.052	0.103
-101.918	-6.933	-0.158	0.106
-100.903	244.239	-0.134	0.223
-99.889	-15.349	-0.474	-0.300
-98.874	-200.000	0.011	0.173
-97.859	-58.813	0.231	-0.099
-96.845	89.296	-0.479	0.528
-95.830	-200.000	-0.008	-0.096
-94.816	-113.747	0.071	0.014
-93.801	82.583	0.082	-0.088
-92.786	325.035	0.147	-0.278
-91.772	20.238	-0.041	0.033
-90.757	800.000	0.048	-0.187
-89.743	1.861	0.237	0.169
-88.728	-122.261	-0.177	-0.029
-87.713	800.000	-0.063	-0.238
-86.699	800.000	-0.091	0.268
-85.684	122.201	0.299	-0.369
-84.670	-97.846	0.208	0.053
-83.655	601.767	-0.071	0.175
-82.640	-47.634	0.253	-0.121
-81.626	-93.862	-0.452	-0.123
-80.611	-0.503	-0.146	-0.103
-79.597	51.793	0.136	0.128
-78.582	20.045	0.077	-0.061
-77.567	-55.167	0.265	0.118
-76.553	-109.744	0.201	-0.042
-75.538	-165.808	0.259	-0.011
-74.524	800.000	0.067	0.186
-73.509	17.334	0.074	0.058
-72.494	-200.000	0.009	-0.162
-71.480	311.530	0.191	-0.355
-70.465	-9.816	0.142	-0.093
-69.451	-137.049	-0.120	-0.014
-68.436	101.756	0.057	0.066
-67.422	-34.558	-0.080	0.043
-66.407	-124.801	-0.184	0.028
-65.392	182.070	-0.165	0.241
-64.378	205.217	-0.079	-0.122
-63.363	-48.561	0.229	-0.109
-62.349	-109.866	0.162	-0.034
-61.334	-26.969	-1.388	-0.802
-60.319	800.000	0.146	0.487
-59.305	338.775	-0.399	-0.768
-58.290	177.468	0.608	0.875
-57.276	800.000	0.357	1.535
-56.261	-200.000	101.296	587.755
-55.246	531.374	1440.121	3367.530
-54.232	179.933	2651.545	3842.547
-53.217	105.271	2335.502	2726.714
-52.203	36.930	2086.156	1824.215
-51.188	32.013	1999.440	1703.814
-50.173	30.582	1980.654	1674.857
-49.159	45.730	2034.669	1859.305
-48.144	46.543	2051.846	1882.356
-47.130	32.761	2011.727	1720.836
-46.115	30.333	2001.475	1689.930
-45.100	30.286	1998.421	1686.856
-44.086	30.297	1995.855	1684.724
-43.071	30.204	1993.021	1681.417
-42.057	30.132	1991.306	1679.252
-41.042	30.219	1989.281	1678.266
-40.027	30.265	1987.210	1676.864
-39.013	30.308	1985.612	1675.842
-37.998	30.310	1983.474	1673.992
-36.984	30.283	1981.372	1671.904
-35.969	30.245	1979.641	1670.035
-34.954	30.417	1977.502	1669.711
-33.940	30.361	1976.362	1668.182
-32.925	30.367	1974.888	1666.921
-31.911	30.334	1973.367	1665.275
-30.896	30.379	1971.937	1664.404
-29.881	30.416	1969.817	1662.886
-28.867	30.406	1968.409	1661.542
-27.852	30.448	1966.442	1660.185
-26.838	30.471	1964.418	1658.616
-25.823	30.399	1962.935	1656.654
-24.809	30.403	1961.400	1655.332
-23.794	30.396	1959.503	1653.601
-22.779	30.327	1957.825	1651.508
-21.765	30.367	1956.476	1650.659
-20.750	30.368	1954.669	1649.082
-19.736	30.461	1952.542	1648.046
-18.721	30.398	1951.289	1646.367
-17.706	30.440	1949.692	1645.321
-16.692	30.470	1947.930	1644.034
-15.677	30.374	1946.851	1642.211
-14.663	30.472	1945.272	1641.677
-13.648	30.396	1944.241	1640.075
-12.633	30.520	1942.171	1639.354
-11.619	30.430	1941.164	1637.651
-10.604	30.458	1939.797	1636.673
-9.590	30.410	1938.715	1635.278
-8.575	30.342	1937.174	1633.312
-7.560	30.444	1935.496	1632.724
-6.546	30.433	1934.273	1631.538
-5.531	30.474	1933.177	1630.905
-4.517	30.353	1932.419	1629.138
-3.502	30.388	1931.040	1628.220
-2.487	30.353	1929.805	1626.806
-1.473	30.417	1928.565	1626.256
-0.458	30.573	1923.635	1623.400
0.556	32.769	1904.923	1598.533
1.571	28.677	1886.279	1548.322
2.586	24.822	1909.967	1534.642
3.600	23.894	1946.350	1555.618
4.615	22.945	1940.029	1542.155
5.629	17.828	1837.790	1418.325
6.644	9.187	1720.219	1259.969
7.659	4.803	1684.001	1199.615
8.673	4.459	1680.754	1194.547
9.688	4.503	1679.839	1194.131
10.702	4.530	1678.393	1193.199
11.717	4.508	1674.906	1190.451
12.731	5.073	1674.572	1194.432
13.746	10.957	1688.185	1249.343
14.761	19.013	1705.582	1324.374
15.775	22.373	1710.705	1354.135
16.790	22.446	1709.528	1353.648
17.804	21.487	1706.817	1344.013
18.819	20.500	1703.686	1333.861
19.834	19.923	1701.467	1327.579
20.848	19.686	1699.891	1324.413
21.863	19.726	1698.507	1323.530
22.877	19.531	1697.242	1320.931
23.892	19.383	1695.950	1318.677
24.907	19.248	1695.194	1316.944
25.921	19.245	1694.060	1315.923
26.936	19.239	1692.882	1314.847
27.950	19.286	1691.933	1314.349
28.965	19.242	1691.412	1313.489
29.980	19.234	1690.959	1312.960
30.994	19.387	1689.931	1313.213
32.009	19.562	1688.486	1313.308
33.023	19.646	1687.961	1313.422
34.038	19.607	1687.206	1312.423
35.053	19.637	1685.684	1311.345
36.067	19.600	1684.242	1309.834
37.082	19.452	1683.617	1308.104
38.096	19.393	1682.618	1306.764
39.111	19.490	1681.724	1306.688
40.126	19.526	1681.359	1306.564
41.140	19.454	1680.416	1305.169
42.155	19.216	1678.537	1301.798
43.169	19.065	1676.623	1299.058
44.184	18.986	1675.344	1297.359
45.199	18.913	1674.694	1296.187
46.213	18.989	1673.062	1295.380
47.228	19.004	1672.106	1294.641
48.242	19.258	1671.193	1295.727
49.257	19.363	1670.750	1296.064
50.271	19.336	1669.481	1294.759
51.286	19.329	1668.210	1293.610
52.301	19.374	1666.794	1292.731
53.315	19.297	1665.553	1291.080
54.330	19.246	1664.226	1289.550
55.344	19.082	1662.101	1286.568
56.359	18.945	1660.605	1284.272
57.374	19.013	1659.628	1283.909
58.388	19.020	1658.219	1282.756
59.403	18.926	1657.260	1281.204
60.417	18.980	1655.243	1279.933
61.432	18.848	1654.972	1278.623
62.447	18.842	1653.198	1277.099
63.461	18.756	1652.444	1275.762
64.476	18.699	1651.382	1274.410
65.490	18.672	1649.607	1272.729
66.505	18.714	1648.522	1272.090
67.520	18.710	1647.670	1271.289
68.534	18.713	1646.571	1270.352
69.549	18.707	1646.346	1270.023
70.563	18.772	1644.637	1269.067
71.578	18.689	1643.168	1267.208
72.593	18.691	1641.951	1266.173
73.607	18.558	1640.970	1264.327
74.622	18.543	1639.462	1262.941
75.636	18.500	1638.959	1262.125
76.651	18.486	1638.286	1261.394
77.666	18.595	1637.459	1261.448
78.680	18.689	1636.370	1261.185
79.695	18.681	1635.768	1260.552
80.709	18.728	1635.175	1260.324
81.724	18.785	1634.520	1260.131
82.739	18.938	1633.731	1260.529
83.753	18.987	1632.562	1259.881
84.768	19.156	1631.771	1260.393
85.782	19.220	1631.704	1260.696
86.797	19.396	1630.850	1261.216
87.812	19.512	1629.966	1261.266
88.826	19.494	1628.484	1259.879
89.841	19.303	1627.930	1257.943
90.855	19.297	1626.968	1257.047
91.870	19.379	1625.700	1256.550
92.884	19.519	1624.752	1256.725
93.899	19.566	1623.731	1256.166
94.914	19.601	1622.471	1255.334
95.928	19.572	1621.709	1254.421
96.943	19.671	1620.032	1253.732
97.957	19.596	1618.991	1252.272
98.972	19.510	1617.601	1250.466
99.987	19.509	1615.746	1248.910
101.001	19.454	1614.473	1247.419
102.016	19.446	1613.131	1246.217
103.030	19.428	1612.069	1245.153
104.045	19.472	1611.090	1244.608
105.060	19.474	1609.233	1243.077
106.074	19.451	1607.898	1241.766
107.089	19.257	1605.767	1238.615
108.103	18.888	1604.164	1234.619
109.118	18.721	1602.564	1232.083
110.133	18.727	1600.803	1230.666
111.147	18.705	1600.106	1229.861
112.162	18.750	1598.656	1228.961
113.176	18.798	1596.965	1227.895
114.191	18.781	1596.336	1227.181
115.206	18.924	1595.615	1227.541
116.220	18.900	1593.914	1225.949
117.235	18.902	1592.425	1224.713
118.249	18.900	1590.669	1223.237
119.264	18.820	1589.579	1221.725
120.279	18.743	1588.306	1220.087
121.293	18.712	1586.494	1218.369
122.308	18.602	1585.516	1216.730
123.322	18.620	1583.351	1215.091
124.337	18.465	1581.990	1212.841
125.352	18.489	1579.921	1211.314
126.366	18.437	1579.612	1210.601
127.381	18.526	1578.671	1210.405
128.395	18.448	1577.563	1208.895
129.410	18.506	1575.894	1207.921
130.424	18.538	1574.171	1206.719
131.439	18.572	1573.081	1206.015
132.454	18.691	1572.178	1206.049
133.468	18.787	1571.012	1205.726
134.483	18.846	1569.585	1204.936
135.497	18.808	1568.308	1203.583
136.512	18.858	1566.975	1202.802
137.527	18.964	1565.740	1202.493
138.541	18.900	1564.770	1201.195
139.556	18.866	1563.510	1199.886
140.570	18.988	1562.046	1199.505
141.585	19.143	1560.645	1199.402
142.600	19.209	1559.888	1199.176
143.614	19.328	1558.692	1198.973
144.629	19.420	1557.646	1198.706
145.643	19.462	1556.453	1197.971
146.658	19.510	1555.040	1197.111
147.673	19.356	1553.765	1194.958
148.687	19.333	1551.622	1193.046
149.702	19.137	1550.065	1190.382
150.716	19.039	1548.450	1188.359
151.731	18.935	1546.966	1186.401
152.746	18.929	1546.099	1185.589
153.760	18.943	1544.761	1184.554
154.775	19.011	1543.337	1183.826
155.789	19.110	1542.131	1183.479
156.804	19.241	1541.248	1183.597
157.819	19.232	1540.344	1182.735
158.833	19.311	1539.191	1182.285
159.848	19.357	1538.008	1181.587
160.862	19.558	1536.951	1182.047
161.877	19.704	1535.668	1181.952
162.892	19.440	1534.475	1179.128
163.906	19.155	1533.004	1175.949
164.921	18.984	1531.702	1173.679
165.935	18.917	1530.194	1171.963
166.950	18.941	1529.682	1171.629
167.964	19.134	1528.227	1171.722
168.979	19.207	1527.712	1171.722
169.994	19.142	1526.414	1170.179
171.008	19.095	1525.198	1168.829
172.023	19.162	1524.080	1168.319
173.037	19.247	1522.976	1167.949
174.052	19.423	1522.153	1168.403
175.067	19.604	1521.046	1168.675
176.081	19.352	1519.988	1166.059
177.096	19.077	1517.965	1162.544
178.110	19.028	1516.507	1160.995
179.125	19.064	1515.551	1160.405
180.140	19.117	1514.576	1159.908
181.154	19.175	1513.619	1159.465
182.169	19.262	1512.849	1159.360
183.183	19.444	1511.700	1159.601
184.198	19.407	1511.308	1158.945
185.213	19.424	1510.273	1158.162
186.227	19.641	1508.871	1158.442
187.242	19.576	1507.469	1156.825
188.256	19.620	1506.719	1156.447
189.271	19.716	1506.143	1156.543
190.286	19.668	1505.134	1155.342
191.300	19.652	1503.986	1154.254
192.315	19.349	1502.242	1150.794
193.329	19.011	1500.108	1146.801
194.344	18.968	1499.377	1145.858
195.359	19.069	1498.884	1146.052
196.373	19.153	1497.611	1145.533
197.388	19.270	1496.550	1145.400
198.402	19.358	1495.691	1145.228
199.417	19.481	1494.863	1145.308
200.432	19.744	1493.993	1146.285
201.446	19.836	1493.585	1146.477
202.461	19.953	1492.130	1146.034
203.475	19.979	1491.459	1145.589
204.490	20.014	1490.495	1144.976
205.504	19.949	1489.247	1143.488
206.519	19.699	1487.810	1140.634
207.534	19.566	1486.820	1138.900
208.548	19.512	1485.329	1137.300
209.563	19.493	1484.434	1136.385
210.577	19.576	1483.198	1135.889
211.592	19.546	1482.181	1134.814
212.607	19.551	1481.975	1134.584
213.621	19.761	1481.275	1135.326
214.636	19.919	1480.199	1135.440
215.650	19.823	1479.078	1133.852
216.665	19.841	1478.437	1133.374
217.680	19.868	1477.637	1132.841
218.694	19.917	1477.587	1133.020
219.709	20.120	1476.329	1133.285
220.723	20.060	1475.183	1131.911
221.738	20.099	1474.065	1131.210
222.753	19.967	1473.446	1129.774
223.767	19.947	1472.276	1128.645
224.782	19.921	1471.238	1127.580
225.796	19.866	1470.754	1126.749
226.811	20.138	1470.062	1127.893
227.826	20.167	1469.692	1127.696
228.840	20.038	1468.149	1125.577
229.855	19.973	1467.061	1124.217
230.869	19.874	1466.021	1122.677
231.884	19.863	1465.026	1121.750
232.899	19.872	1463.498	1120.535
233.913	19.769	1462.625	1119.101
234.928	19.614	1461.207	1116.913
235.942	19.644	1459.708	1115.864
236.957	19.609	1458.312	1114.475
237.972	19.587	1457.261	1113.428
238.986	19.579	1456.269	1112.522
240.001	19.716	1455.328	1112.584
241.015	19.679	1454.566	1111.665
242.030	19.653	1452.745	1110.011
243.045	19.694	1452.509	1109.992
244.059	19.878	1451.449	1110.266
245.074	19.907	1450.939	1109.967
246.088	19.928	1450.261	1109.484
247.103	19.995	1449.680	1109.368
248.117	20.064	1449.136	1109.300
249.132	20.144	1448.043	1108.872
250.147	20.342	1447.963	1109.979
251.161	20.624	1447.512	1111.336
252.176	20.686	1446.905	1111.172
253.190	20.818	1446.224	1111.390
254.205	20.836	1445.235	1110.651
255.220	20.951	1444.462	1110.688
256.234	20.944	1444.013	1110.199
257.249	20.960	1443.185	1109.568
258.263	20.938	1441.980	1108.405
259.278	20.943	1440.959	1107.554
260.293	20.820	1440.132	1106.039
261.307	20.880	1439.398	1105.755
262.322	20.920	1438.894	1105.523
263.336	21.098	1438.061	1105.913
264.351	21.053	1437.221	1104.888
265.366	21.073	1436.167	1104.106
266.380	21.031	1435.078	1102.902
267.395	21.155	1434.341	1103.023
268.409	21.124	1433.238	1101.886
269.424	20.919	1432.402	1099.851
270.439	20.895	1430.546	1098.173
271.453	20.840	1429.508	1096.933
272.468	20.836	1428.692	1096.187
273.482	20.702	1428.088	1094.782
274.497	20.645	1426.748	1093.301
275.512	20.680	1426.201	1093.007
276.526	20.698	1425.760	1092.685
277.541	20.639	1424.002	1090.870
278.555	20.604	1423.466	1090.139
279.570	20.809	1422.330	1090.461
280.585	20.809	1421.748	1089.919
281.599	20.934	1421.606	1090.494
282.614	21.202	1420.051	1090.879
283.628	20.873	1419.089	1087.989
284.643	20.801	1418.004	1086.612
285.657	20.738	1417.111	1085.441
286.672	20.779	1415.837	1084.624
287.687	20.836	1414.564	1083.908
288.701	20.800	1414.070	1083.206
289.716	20.881	1413.150	1082.913
290.730	20.749	1412.936	1081.833
291.745	20.819	1411.750	1081.263
292.760	20.897	1410.569	1080.745
293.774	20.911	1409.387	1079.833
294.789	20.971	1409.213	1079.970
295.803	21.122	1408.254	1080.078
296.818	21.094	1407.755	1079.427
297.833	21.029	1406.266	1077.786
298.847	20.822	1405.346	1075.705
299.862	20.840	1403.852	1074.579
300.876	20.909	1402.862	1074.153
301.891	21.001	1402.101	1074.042
302.906	20.916	1401.772	1073.171
303.920	21.079	1400.983	1073.473
304.935	21.191	1400.416	1073.634
305.949	21.375	1399.539	1073.997
306.964	21.413	1399.248	1073.914
307.979	21.515	1397.803	1073.337
308.993	21.474	1396.673	1072.124
310.008	21.338	1395.260	1070.111
311.022	21.309	1394.721	1069.425
312.037	21.365	1394.400	1069.427
313.052	21.395	1393.007	1068.444
314.066	21.362	1391.684	1067.135
315.081	21.166	1390.609	1065.022
316.095	21.054	1389.585	1063.458
317.110	20.855	1388.399	1061.244
318.125	21.012	1386.893	1060.955
319.139	20.979	1386.431	1060.304
320.154	20.942	1385.436	1059.229
321.168	20.897	1384.261	1057.960
322.183	20.933	1383.489	1057.497
323.197	20.973	1382.268	1056.712
324.212	20.964	1381.833	1056.232
325.227	21.074	1381.263	1056.371
326.241	21.098	1379.767	1055.277
327.256	21.020	1379.223	1054.294
328.270	21.133	1377.998	1053.949
329.285	21.074	1377.410	1053.051
330.300	21.115	1376.148	1052.240
331.314	21.106	1375.350	1051.478
332.329	20.987	1374.753	1050.214
333.343	20.992	1373.864	1049.471
334.358	21.127	1372.913	1049.463
335.373	21.145	1372.281	1048.999
336.387	21.308	1371.623	1049.379
337.402	21.362	1370.673	1048.887
338.416	21.445	1370.239	1048.955
339.431	21.488	1369.513	1048.567
340.446	21.500	1369.135	1048.259
341.460	21.603	1368.003	1047.915
342.475	21.764	1367.244	1048.200
343.489	21.857	1366.445	1048.054
344.504	21.900	1365.105	1047.191
345.519	21.882	1364.872	1046.810
346.533	21.931	1363.989	1046.335
347.548	22.098	1362.729	1046.268
348.562	22.192	1361.823	1046.042
349.577	22.057	1361.366	1044.794
350.592	21.965	1360.341	1043.369
351.606	21.757	1359.039	1041.041
352.621	21.595	1357.810	1039.048
353.635	21.509	1356.546	1037.479
354.650	21.408	1355.542	1036.021
355.665	21.356	1354.749	1035.012
356.679	21.382	1353.703	1034.275
357.694	21.580	1352.861	1034.709
358.708	21.627	1351.842	1034.120
359.723	21.725	1350.893	1033.880
360.738	21.694	1349.832	1032.791
361.752	21.798	1348.690	1032.442
362.767	21.778	1347.582	1031.385
363.781	21.725	1346.979	1030.518
364.796	21.772	1346.168	1030.086
365.810	21.766	1345.573	1029.504
366.825	21.855	1345.333	1029.750
367.840	22.026	1344.412	1029.959
368.854	22.258	1343.576	1030.583
369.869	22.298	1343.626	1030.764
370.883	22.318	1342.999	1030.310
371.898	22.293	1342.046	1029.343
372.913	22.056	1341.200	1027.217
373.927	22.131	1339.473	1026.242
374.942	22.133	1338.669	1025.547
375.956	22.231	1338.198	1025.665
376.971	22.257	1337.640	1025.302
377.986	22.192	1336.794	1024.180
379.000	22.072	1335.943	1022.742
380.015	22.292	1335.438	1023.543
381.029	22.440	1334.690	1023.738
382.044	22.461	1334.192	1023.389
383.059	22.618	1332.935	1023.248
384.073	22.513	1333.051	1022.635
385.088	22.345	1332.237	1020.946
386.102	22.405	1331.558	1020.680
387.117	22.575	1330.305	1020.613
388.132	22.321	1329.777	1018.650
389.146	22.122	1328.683	1016.572
390.161	22.036	1327.533	1015.105
391.175	22.125	1326.525	1014.760
392.190	22.048	1325.897	1013.741
393.205	22.124	1325.229	1013.584
394.219	22.308	1324.331	1013.865
395.234	22.378	1323.076	1013.219
396.248	22.280	1321.600	1011.433
397.263	22.228	1320.541	1010.235
398.278	22.211	1319.111	1008.953
399.292	22.117	1317.553	1007.134
400.307	21.993	1316.801	1005.763
401.321	21.965	1315.266	1004.341
402.336	22.051	1314.120	1003.865
403.350	22.004	1313.272	1002.864
404.365	21.950	1312.394	1001.793
405.380	22.014	1311.732	1001.567
406.394	22.104	1310.841	1001.306
407.409	22.174	1310.103	1001.054
408.423	22.354	1309.846	1001.795
409.438	22.491	1309.744	1002.411
410.453	22.491	1308.777	1001.578
411.467	22.587	1308.167	1001.572
412.482	22.764	1307.658	1002.096
413.496	22.698	1307.087	1001.196
414.511	22.785	1306.201	1000.921
415.526	22.914	1305.377	1000.932
416.540	22.976	1304.562	1000.572
417.555	23.019	1304.338	1000.556
418.569	23.069	1303.884	1000.400
419.584	23.036	1303.103	999.527
420.599	22.876	1302.172	997.817
421.613	145.682	1433.288	1795.288
422.628	141.108	1452.360	1795.375
