DTS Sentinel unit serial number:	SN413079Multiplexer serial number:	ORYXHardware model number:	OX4-SRSoftware version number:	ORYX F/W v4.00 Oryx Data Collector v3.7.2.0data status	okinstallation	princeton_trtdifferential loss correction	single-endedforward channel	channel 4reverse channel	N/Adate	2019/09/12time	19:06:19forward acquisition time	15.00reverse acquisition time	0.00gamma	496.2192k internal	0.2307k external	0.2307temperature offset calibration	1.0136default loss term (dB/km)	0.3790temperature slope calibration	1.0000multiplexer offset coefficient	1.0000multiplexer slope coefficient	1.0000fibre end	0.00T internal ref (°C)	32.62T ext. ref 1 (°C)	3.03T ext. ref 2 (°C)	27.15length (m)	temperature (°C)	Stokes	anti-Stokes-747.200	187.608	-0.070	-0.107
-746.185	176.431	0.217	-0.321
-745.171	-144.644	0.473	-0.044
-744.156	-200.000	-0.039	0.711
-743.142	-126.789	-0.665	-0.100
-742.127	-38.749	0.409	-0.220
-741.112	53.943	0.586	0.573
-740.098	423.156	-0.295	-0.645
-739.083	-40.942	-0.092	-0.048
-738.069	418.696	0.319	0.694
-737.054	-200.000	0.084	0.967
-736.039	-121.076	-0.948	-0.162
-735.025	434.293	0.331	0.731
-734.010	163.082	0.281	0.402
-732.996	800.000	-0.113	0.496
-731.981	31.654	0.573	0.501
-730.966	64.781	-0.456	-0.468
-729.952	800.000	0.182	-0.779
-728.937	-28.579	-0.635	-0.372
-727.923	329.380	-0.310	0.605
-726.908	800.000	-0.139	-0.440
-725.894	58.677	-0.205	0.205
-724.879	50.089	0.277	-0.265
-723.864	94.072	0.403	-0.464
-722.850	-198.424	-0.795	-0.005
-721.835	-39.591	-0.166	0.088
-720.821	315.044	0.484	0.928
-719.806	-79.973	-0.565	-0.193
-718.791	10.797	0.742	0.575
-717.777	-67.741	0.689	-0.274
-716.762	-38.924	-0.496	0.265
-715.748	-63.654	-0.480	0.200
-714.733	800.000	-0.097	0.363
-713.718	-105.622	-0.414	-0.095
-712.704	-200.000	-0.097	-0.801
-711.689	-19.066	-0.109	-0.069
-710.675	800.000	0.020	0.069
-709.660	-137.794	-0.499	0.057
-708.645	-200.000	0.003	-0.289
-707.631	-83.710	-0.782	0.254
-706.616	328.978	-0.095	0.185
-705.602	-200.000	0.042	0.332
-704.587	-93.936	0.376	0.105
-703.572	-75.702	0.126	-0.046
-702.558	800.000	-0.177	0.640
-701.543	-168.493	-0.747	0.029
-700.529	-200.000	0.108	0.996
-699.514	-111.367	0.537	0.111
-698.499	-200.000	0.123	-0.757
-697.485	285.483	-0.127	0.232
-696.470	33.815	-0.485	0.429
-695.456	-193.914	0.939	0.008
-694.441	-63.978	-0.539	-0.223
-693.426	-200.000	-0.063	0.601
-692.412	29.342	-0.106	-0.092
-691.397	203.644	-0.072	0.113
-690.383	92.483	-0.062	0.071
-689.368	-146.986	-0.922	0.080
-688.354	-13.250	-0.390	0.257
-687.339	44.517	0.660	0.616
-686.324	-177.208	0.489	-0.012
-685.310	800.000	-0.274	-0.822
-684.295	-112.493	-0.932	-0.189
-683.281	-198.111	1.503	0.009
-682.266	-121.869	-0.887	-0.148
-681.251	639.967	-0.180	0.464
-680.237	-147.832	-0.390	0.033
-679.222	-161.611	-0.902	-0.047
-678.208	198.338	0.168	-0.261
-677.193	255.874	0.173	-0.301
-676.178	124.770	-0.290	-0.370
-675.164	116.340	-0.178	-0.222
-674.149	-73.431	-0.499	0.185
-673.135	-109.960	-0.438	0.093
-672.120	330.484	0.330	0.645
-671.105	-69.260	0.696	0.271
-670.091	200.752	-0.453	0.706
-669.076	800.000	-0.174	-0.727
-668.062	-200.000	-0.022	-0.459
-667.047	83.119	0.446	0.492
-666.032	87.753	0.057	0.064
-665.018	177.305	-0.299	-0.442
-664.003	110.361	-0.558	0.680
-662.989	-200.000	-0.117	0.639
-661.974	-88.199	-0.227	0.069
-660.959	-200.000	0.109	0.586
-659.945	305.248	-0.206	-0.388
-658.930	-200.000	0.138	1.081
-657.916	24.616	-0.207	-0.174
-656.901	-111.272	0.522	0.108
-655.886	13.248	0.560	-0.439
-654.872	171.857	-0.578	-0.841
-653.857	-200.000	-0.120	1.055
-652.843	800.000	-0.117	0.337
-651.828	41.624	-0.271	0.248
-650.814	-53.433	-0.162	-0.075
-649.799	7.049	0.405	-0.306
-648.784	278.342	-0.304	0.548
-647.770	31.090	-0.371	0.323
-646.755	-125.078	0.339	0.053
-645.741	-90.502	-0.825	0.242
-644.726	42.743	-0.859	-0.793
-643.711	343.305	-0.351	0.696
-642.697	460.999	-0.149	-0.337
-641.682	800.000	0.132	-0.515
-640.668	139.316	-0.206	0.275
-639.653	94.988	-0.425	0.490
-638.638	-200.000	0.158	0.789
-637.624	-192.100	0.762	-0.007
-636.609	800.000	-0.069	-0.276
-635.595	465.441	0.136	0.308
-634.580	91.281	0.418	0.475
-633.565	-17.169	-0.662	-0.423
-632.551	415.805	-0.539	1.163
-631.536	6.456	0.301	-0.227
-630.522	-111.119	0.734	-0.152
-629.507	-163.107	-0.335	-0.016
-628.492	-0.658	0.290	-0.208
-627.478	116.363	-0.179	-0.222
-626.463	-200.000	-0.032	-0.501
-625.449	197.086	-0.114	-0.176
-624.434	37.384	-0.089	0.079
-623.419	-88.326	-0.465	0.141
-622.405	68.278	-0.275	0.285
-621.390	-97.022	-0.861	0.228
-620.376	-78.328	0.272	0.094
-619.361	-166.243	1.329	0.057
-618.346	70.463	0.153	-0.160
-617.332	135.355	0.382	-0.503
-616.317	-91.884	0.857	0.246
-615.303	800.000	-0.163	0.614
-614.288	-40.107	-0.374	-0.197
-613.273	17.867	0.491	-0.396
-612.259	800.000	0.053	0.207
-611.244	117.919	0.234	-0.292
-610.230	6.469	-0.655	0.492
-609.215	5.276	-0.556	0.415
-608.201	64.654	0.427	0.436
-607.186	-65.368	-0.123	0.050
-606.171	440.894	-0.147	0.325
-605.157	46.187	0.237	0.222
-604.142	2.661	-0.552	-0.405
-603.128	-188.182	0.622	0.008
-602.113	36.599	-0.505	-0.451
-601.098	-16.307	-0.833	0.535
-600.084	-200.000	0.027	0.703
-599.069	749.240	-0.415	-1.133
-598.055	389.715	0.311	-0.651
-597.040	-98.632	0.344	-0.089
-596.025	16.581	-0.623	-0.498
-595.011	-16.210	0.445	-0.286
-593.996	-14.358	0.407	-0.265
-592.982	172.310	0.645	-0.938
-591.967	-110.152	0.799	-0.169
-590.952	-200.000	0.084	0.665
-589.938	-84.870	-0.488	0.155
-588.923	-26.414	0.190	0.113
-587.909	-112.256	0.528	-0.107
-586.894	42.754	0.535	-0.492
-585.879	-34.867	-0.975	0.538
-584.865	800.000	0.066	-0.202
-583.850	-200.000	-0.159	0.860
-582.836	91.027	0.544	0.617
-581.821	-15.354	-0.610	-0.394
-580.806	-46.544	-0.673	0.334
-579.792	-200.000	-0.006	-0.413
-578.777	-200.000	0.081	-0.673
-577.763	800.000	0.139	0.404
-576.748	-8.206	0.453	0.308
-575.733	18.226	-0.337	-0.272
-574.719	589.333	-0.276	0.687
-573.704	539.801	-0.195	-0.468
-572.690	-200.000	-0.182	-0.877
-571.675	-75.300	0.224	-0.081
-570.661	-49.240	-1.012	-0.488
-569.646	800.000	-0.112	-0.326
-568.631	-55.430	-0.258	-0.117
-567.617	168.301	0.393	-0.566
-566.602	112.210	0.437	0.533
-565.588	28.856	0.396	0.339
-564.573	591.163	0.018	0.045
-563.558	-200.000	-0.009	-0.781
-562.544	-160.919	-0.070	-0.004
-561.529	62.618	-0.699	0.706
-560.515	-117.093	-0.491	-0.090
-559.500	-61.822	0.361	-0.153
-558.485	-104.535	-0.871	0.203
-557.471	16.262	-0.416	0.331
-556.456	-52.874	-0.249	-0.116
-555.442	641.847	0.170	0.438
-554.427	-149.840	-0.524	-0.041
-553.412	800.000	-0.058	0.205
-552.398	-108.393	0.284	-0.062
-551.383	-52.366	-0.815	-0.381
-550.369	-200.000	-0.081	0.719
-549.354	-200.000	-0.089	0.678
-548.339	-40.207	-0.515	-0.271
-547.325	-200.000	-0.051	-0.471
-546.310	-143.779	0.353	0.034
-545.296	547.869	-0.398	-0.962
-544.281	-186.836	0.241	-0.003
-543.266	-200.000	0.042	0.603
-542.252	55.100	0.252	0.246
-541.237	-15.364	-0.460	0.297
-540.223	-114.967	-0.149	0.029
-539.208	-38.805	-0.310	0.165
-538.193	800.000	0.166	-0.527
-537.179	-133.511	-0.066	-0.008
-536.164	-200.000	-0.014	0.427
-535.150	44.641	0.348	0.323
-534.135	800.000	-0.247	-0.825
-533.121	432.528	-0.265	-0.579
-532.106	49.999	-0.495	0.471
-531.091	104.309	-0.382	0.454
-530.077	230.567	-0.197	0.325
-529.062	101.192	-0.359	0.421
-528.048	99.024	-0.344	-0.400
-527.033	800.000	-0.114	0.318
-526.018	11.637	-0.433	0.335
-525.004	-40.218	0.287	0.151
-523.989	-102.222	0.615	0.149
-522.975	275.128	0.282	-0.503
-521.960	51.932	-0.224	-0.215
-520.945	-26.336	-0.839	0.496
-519.931	-39.172	-0.297	-0.157
-518.916	191.786	-0.684	-1.039
-517.902	146.299	0.183	-0.248
-516.887	800.000	0.162	0.700
-515.872	-200.000	0.075	0.696
-514.858	-140.656	-0.656	0.069
-513.843	-64.187	0.610	-0.251
-512.829	-72.839	0.046	0.017
-511.814	5.119	-0.325	0.241
-510.799	-20.364	-0.283	0.175
-509.785	9.751	-0.589	-0.450
-508.770	65.565	0.349	0.356
-507.756	-139.882	0.862	0.092
-506.741	97.116	0.358	-0.413
-505.726	-200.000	0.008	-0.281
-504.712	-16.148	0.107	-0.069
-503.697	90.145	0.426	0.479
-502.683	-99.338	0.695	0.177
-501.668	-11.531	-1.352	0.895
-500.653	-200.000	-0.059	-0.976
-499.639	-100.267	0.267	0.067
-498.624	-85.224	-0.875	-0.275
-497.610	72.758	0.515	0.542
-496.595	-135.279	0.176	0.021
-495.581	-104.058	0.074	-0.017
-494.566	0.778	-0.087	0.063
-493.551	61.873	0.376	-0.377
-492.537	-200.000	0.075	1.002
-491.522	-87.087	-0.302	-0.093
-490.508	7.542	0.983	-0.740
-489.493	31.099	-0.864	0.746
-488.478	511.857	-0.177	0.414
-487.464	6.183	0.393	0.294
-486.449	-46.630	0.342	-0.169
-485.435	-172.015	0.461	-0.015
-484.420	61.033	-0.265	-0.265
-483.405	225.627	-0.033	-0.054
-482.391	163.242	0.483	-0.683
-481.376	-200.000	0.013	-0.158
-480.362	-200.000	0.066	0.471
-479.347	-69.984	-0.520	-0.199
-478.332	-47.540	-0.353	-0.173
-477.318	102.745	-0.239	0.282
-476.303	-8.728	-0.304	-0.205
-475.289	588.997	-0.401	0.995
-474.274	190.776	-0.219	-0.331
-473.259	800.000	-0.155	-0.503
-472.245	227.136	-0.480	0.784
-471.230	-38.116	0.178	0.095
-470.216	124.353	0.271	0.344
-469.201	-200.000	0.089	-0.898
-468.186	-200.000	0.002	-0.039
-467.172	-86.475	0.376	-0.116
-466.157	535.172	0.159	-0.379
-465.143	-85.548	0.656	0.205
-464.128	-200.000	0.028	-0.284
-463.113	-200.000	0.071	1.053
-462.099	-92.133	-0.303	-0.086
-461.084	-200.000	0.008	-0.208
-460.070	106.102	0.325	0.388
-459.055	-200.000	0.075	-0.455
-458.040	-12.235	0.486	-0.320
-457.026	544.292	0.134	0.323
-456.011	800.000	-0.036	-0.151
-454.997	-108.145	0.248	0.054
-453.982	-200.000	0.015	-0.114
-452.968	-53.949	-0.339	0.155
-451.953	112.423	0.255	-0.311
-450.938	170.707	-0.588	-0.847
-449.924	137.289	0.173	-0.228
-448.909	16.008	0.288	-0.228
-447.895	800.000	-0.148	-0.559
-446.880	13.253	-0.359	-0.280
-445.865	-183.045	0.383	0.007
-444.851	800.000	-0.013	-0.048
-443.836	-45.326	0.499	0.249
-442.822	-101.647	0.199	0.049
-441.807	800.000	-0.288	-0.828
-440.792	682.429	-0.173	-0.453
-439.778	21.441	0.303	-0.247
-438.763	133.972	-0.177	0.231
-437.749	262.364	-0.624	1.088
-436.734	34.861	0.323	-0.284
-435.719	253.704	-0.327	-0.562
-434.705	21.120	0.578	-0.472
-433.690	-22.018	0.816	0.498
-432.676	800.000	-0.284	1.060
-431.661	-38.517	-1.048	-0.557
-430.646	113.328	0.492	0.600
-429.632	-200.000	-0.024	-0.400
-428.617	3.984	0.345	0.253
-427.603	-72.965	0.495	-0.183
-426.588	-200.000	0.395	0.002
-425.573	-59.328	-0.289	0.125
-424.559	-69.318	-0.647	0.250
-423.544	-81.712	-0.348	0.115
-422.530	-47.725	-0.662	-0.322
-421.515	196.126	-0.252	-0.385
-420.500	417.947	0.202	0.434
-419.486	59.394	0.447	-0.443
-418.471	-200.000	-0.158	0.769
-417.457	-200.000	-0.044	-0.280
-416.442	800.000	-0.125	-0.393
-415.428	-6.512	0.360	0.246
-414.413	800.000	-0.232	-0.807
-413.398	103.177	0.546	-0.643
-412.384	607.838	-0.078	-0.196
-411.369	800.000	-0.348	1.053
-410.355	-63.145	-0.246	0.102
-409.340	-81.418	-0.890	-0.294
-408.325	800.000	0.236	0.880
-407.311	-200.000	-0.019	0.732
-406.296	800.000	-0.097	-0.335
-405.282	800.000	0.211	0.688
-404.267	7.920	0.484	-0.364
-403.252	-200.000	0.027	-0.308
-402.238	-200.000	-0.250	1.165
-401.223	-11.086	-0.280	0.185
-400.209	-200.000	-0.088	0.438
-399.194	54.352	-0.507	-0.490
-398.179	-169.703	-0.433	-0.016
-397.165	717.985	-0.071	0.189
-396.150	7.261	0.176	0.132
-395.136	-154.249	-0.881	-0.060
-394.121	147.097	0.102	-0.138
-393.106	-156.815	-0.297	-0.018
-392.092	-136.114	-0.459	-0.054
-391.077	92.620	0.584	-0.661
-390.063	89.982	0.171	-0.192
-389.048	-120.570	-0.164	0.028
-388.033	-62.507	-0.445	-0.186
-387.019	-144.603	0.616	0.057
-386.004	143.188	-0.412	-0.549
-384.990	-21.287	0.282	0.173
-383.975	98.691	-0.293	0.339
-382.960	-105.499	0.373	0.085
-381.946	-200.000	0.078	-0.489
-380.931	149.221	0.555	0.753
-379.917	-40.705	-0.617	-0.321
-378.902	800.000	0.128	-0.537
-377.888	-146.731	0.854	0.074
-376.873	-200.000	0.051	0.523
-375.858	-18.722	-0.908	-0.567
-374.844	-200.000	-0.020	0.889
-373.829	-103.082	0.866	0.206
-372.815	800.000	0.022	-0.082
-371.800	800.000	0.163	0.548
-370.785	-5.622	-0.311	0.214
-369.771	91.812	-0.364	-0.411
-368.756	-1.067	0.416	0.295
-367.742	-155.888	0.372	-0.024
-366.727	-200.000	0.037	-0.473
-365.712	232.677	-0.454	0.747
-364.698	-200.000	-0.010	-0.100
-363.683	-161.771	0.611	-0.031
-362.669	-127.951	0.499	-0.072
-361.654	166.527	0.337	0.478
-360.639	254.414	0.189	0.324
-359.625	-200.000	-0.010	0.308
-358.610	-9.107	0.392	-0.263
-357.596	-103.612	0.693	-0.163
-356.581	-47.901	0.803	0.389
-355.566	-87.896	1.042	-0.314
-354.552	-200.000	-0.130	-1.420
-353.537	-85.068	0.398	-0.125
-352.523	81.448	-0.545	0.590
-351.508	158.519	-0.133	0.185
-350.493	55.667	-0.299	0.290
-349.479	167.204	0.545	0.775
-348.464	37.419	-0.250	-0.222
-347.450	800.000	-0.152	-0.472
-346.435	-61.543	0.192	-0.081
-345.420	-62.478	-0.530	0.221
-344.406	-95.760	-0.610	-0.163
-343.391	-101.340	0.942	0.230
-342.377	40.143	-0.448	-0.403
-341.362	-200.000	-0.004	-0.133
-340.348	-17.965	-0.686	-0.430
-339.333	-143.367	-0.654	-0.063
-338.318	56.989	0.113	0.110
-337.304	535.536	-0.462	-1.097
-336.289	-200.000	-0.065	-0.489
-335.275	-23.720	0.504	0.302
-334.260	120.164	0.522	-0.649
-333.245	-161.130	0.136	0.007
-332.231	99.543	0.226	0.262
-331.216	-137.095	0.152	-0.017
-330.202	-136.305	-0.368	0.043
-329.187	-117.893	0.418	-0.075
-328.172	-200.000	0.148	0.759
-327.158	136.169	0.532	0.693
-326.143	-26.156	0.702	0.413
-325.129	-34.888	-0.287	0.157
-324.114	422.133	-0.140	0.301
-323.099	-26.436	-0.431	-0.253
-322.085	-28.528	-0.436	-0.251
-321.070	-43.520	0.454	-0.229
-320.056	490.362	-0.302	0.690
-319.041	-200.000	0.013	-0.507
-318.026	594.764	-0.177	-0.438
-317.012	-200.000	-0.036	-0.216
-315.997	800.000	-0.078	-0.236
-314.983	171.936	-0.448	0.643
-313.968	-92.996	-0.650	0.181
-312.953	368.726	0.058	-0.117
-311.939	-200.000	-0.172	-0.821
-310.924	-200.000	0.049	-0.274
-309.910	800.000	0.033	0.110
-308.895	-93.765	-0.599	0.165
-307.880	-19.262	-0.365	0.226
-306.866	-48.344	-0.114	0.055
-305.851	75.492	0.679	-0.717
-304.837	254.509	-0.439	0.752
-303.822	-74.709	-0.945	0.340
-302.807	-200.000	-0.097	-0.688
-301.793	-79.207	0.810	-0.275
-300.778	53.767	0.398	-0.382
-299.764	800.000	0.202	0.595
-298.749	340.579	0.316	0.616
-297.735	85.220	0.429	-0.470
-296.720	324.893	0.099	0.190
-295.705	108.060	-0.673	0.802
-294.691	-51.824	0.686	0.319
-293.676	185.797	-0.142	-0.210
-292.662	16.255	0.679	0.535
-291.647	-200.000	-0.078	-0.522
-290.632	155.985	0.734	-1.011
-289.618	-200.000	0.097	0.429
-288.603	-114.954	0.313	-0.059
-287.589	-153.129	0.570	-0.040
-286.574	49.317	0.570	0.536
-285.559	-200.000	-0.116	0.616
-284.545	72.745	0.237	-0.247
-283.530	137.766	-0.178	-0.232
-282.516	-200.000	-0.080	-0.974
-281.501	-200.000	0.048	-0.241
-280.486	800.000	0.183	0.510
-279.472	199.040	-0.380	0.582
-278.457	-38.897	0.455	-0.240
-277.443	344.335	0.688	1.347
-276.428	-5.137	-0.364	0.250
-275.413	-110.675	-0.646	-0.133
-274.399	1.069	0.187	-0.134
-273.384	-140.067	0.749	-0.079
-272.370	133.219	-0.231	-0.298
-271.355	-200.000	0.006	-0.075
-270.340	43.376	-0.622	0.567
-269.326	688.337	0.233	0.609
-268.311	29.013	-0.235	0.199
-267.297	144.528	0.138	-0.185
-266.282	-127.359	0.723	0.105
-265.267	-94.437	-0.443	0.121
-264.253	556.120	-0.138	-0.331
-263.238	93.239	0.507	-0.573
-262.224	15.845	0.618	-0.486
-261.209	-150.429	0.345	0.026
-260.195	-200.000	-0.021	-0.171
-259.180	563.806	-0.193	0.467
-258.165	281.659	-0.348	0.623
-257.151	619.111	-0.305	0.765
-256.136	483.366	-0.577	-1.308
-255.122	255.665	0.129	0.221
-254.107	800.000	-0.127	-0.422
-253.092	-95.161	0.137	0.037
-252.078	-133.204	-0.525	0.066
-251.063	-145.837	-0.314	0.028
-250.049	102.422	-0.362	-0.422
-249.034	-144.870	-0.306	-0.028
-248.019	-3.699	0.330	0.229
-247.005	595.808	-0.131	-0.323
-245.990	251.564	-0.329	0.558
-244.976	152.457	-0.333	-0.454
-243.961	-163.198	0.709	0.034
-242.946	-33.628	0.498	-0.274
-241.932	-200.000	-0.237	-1.407
-240.917	275.739	0.117	-0.206
-239.903	488.412	0.109	-0.249
-238.888	55.103	0.714	0.688
-237.873	-144.108	0.731	0.068
-236.859	-145.978	0.483	0.043
-235.844	-154.747	0.699	0.046
-234.830	-25.784	-0.260	0.153
-233.815	-34.922	-0.248	-0.135
-232.800	-117.059	0.462	0.084
-231.786	15.817	-0.732	-0.574
-230.771	-200.000	-0.039	-0.310
-229.757	-200.000	-0.105	-0.560
-228.742	-200.000	0.060	-0.382
-227.727	251.831	-0.224	-0.380
-226.713	-75.670	-0.777	0.275
-225.698	547.663	0.079	0.188
-224.684	474.816	-0.166	-0.373
-223.669	186.370	-0.315	-0.467
-222.655	-113.418	0.154	-0.030
-221.640	200.444	-0.233	0.357
-220.625	-32.947	0.732	0.405
-219.611	166.790	-0.342	0.483
-218.596	-67.709	0.168	-0.066
-217.582	129.881	0.215	-0.274
-216.567	411.761	0.288	-0.609
-215.552	-200.000	-0.075	-0.640
-214.538	-147.314	0.471	-0.040
-213.523	761.505	0.440	1.190
-212.509	-41.236	0.101	0.052
-211.494	-200.000	-0.147	0.704
-210.479	-75.138	0.991	-0.353
-209.465	-200.000	0.061	-0.510
-208.450	-200.000	0.089	0.466
-207.436	-200.000	-0.014	-0.108
-206.421	97.469	-0.258	-0.295
-205.406	55.762	0.206	0.199
-204.392	-200.000	-0.027	0.602
-203.377	314.545	-0.295	0.553
-202.363	-126.848	0.299	-0.044
-201.348	679.538	-0.347	-0.900
-200.333	800.000	0.142	0.418
-199.319	-49.506	-0.120	0.057
-198.304	164.820	0.084	-0.119
-197.290	21.454	-0.273	0.221
-196.275	800.000	-0.258	-0.782
-195.260	-16.663	0.506	-0.319
-194.246	-39.129	-0.253	-0.132
-193.231	-59.295	0.379	0.162
-192.217	-117.029	-0.104	-0.019
-191.202	-95.403	-0.348	0.093
-190.187	-200.000	-0.217	-1.044
-189.173	800.000	-0.013	0.043
-188.158	39.007	0.324	0.288
-187.144	108.656	-0.486	0.578
-186.129	-200.000	-0.127	0.571
-185.114	800.000	-0.251	-0.782
-184.100	-56.123	-0.387	-0.172
-183.085	604.219	0.127	0.315
-182.071	-200.000	0.036	0.593
-181.056	106.233	-0.275	0.324
-180.042	-200.000	-0.005	0.333
-179.027	-18.066	0.341	-0.213
-178.012	-106.186	0.941	0.210
-176.998	104.536	-0.100	-0.117
-175.983	-85.327	0.305	0.095
-174.969	-83.240	-0.380	0.121
-173.954	-57.390	0.207	0.091
-172.939	3.855	0.526	0.382
-171.925	-1.342	0.739	0.519
-170.910	-200.000	-0.058	-0.529
-169.896	6.328	-0.328	-0.242
-168.881	-55.012	0.279	0.125
-167.866	83.986	-0.235	-0.255
-166.852	800.000	-0.067	0.240
-165.837	456.134	-0.128	-0.281
-164.823	-200.000	0.004	-0.465
-163.808	-200.000	0.113	-0.744
-162.793	800.000	0.027	-0.084
-161.779	-53.563	-0.695	-0.316
-160.764	-118.686	-0.662	0.116
-159.750	213.180	-0.224	0.352
-158.735	-97.375	0.963	0.249
-157.720	340.234	0.190	-0.368
-156.706	152.145	-0.377	0.511
-155.691	50.019	0.318	0.298
-154.677	88.175	-0.158	0.174
-153.662	-42.663	0.581	-0.294
-152.647	800.000	0.177	-0.510
-151.633	-48.353	0.634	-0.304
-150.618	-13.614	0.587	0.378
-149.604	-200.000	-0.079	0.395
-148.589	-11.556	0.767	0.501
-147.574	-9.610	0.384	-0.254
-146.560	-93.297	0.577	-0.159
-145.545	-151.506	-0.273	-0.020
-144.531	-200.000	-0.220	1.107
-143.516	-130.802	-0.756	-0.101
-142.502	800.000	0.289	-1.117
-141.487	-102.871	-0.004	-0.001
-140.472	-66.152	-1.056	0.418
-139.458	30.078	-0.337	-0.286
-138.443	473.232	-0.362	-0.811
-137.429	213.919	0.529	-0.832
-136.414	482.483	-0.229	0.517
-135.399	-200.000	0.173	0.868
-134.385	800.000	-0.075	0.278
-133.370	-11.631	-0.958	0.625
-132.356	800.000	0.234	0.678
-131.341	-98.559	-0.447	0.113
-130.326	439.045	-0.244	-0.528
-129.312	800.000	0.230	-0.653
-128.297	-200.000	0.012	0.597
-127.283	-200.000	-0.202	1.042
-126.268	800.000	0.191	-0.570
-125.253	19.199	-0.939	0.748
-124.239	201.809	-0.057	-0.088
-123.224	259.956	-0.333	0.570
-122.210	36.134	0.096	-0.084
-121.195	359.367	0.252	-0.501
-120.180	381.088	0.276	0.561
-119.166	-152.386	0.510	0.036
-118.151	800.000	0.095	0.384
-117.137	14.157	-0.059	-0.046
-116.122	-75.575	0.413	-0.146
-115.107	800.000	-0.121	-0.488
-114.093	-200.000	-0.082	0.481
-113.078	11.242	-0.264	-0.201
-112.064	135.111	-0.137	0.177
-111.049	800.000	-0.156	0.552
-110.034	561.727	-0.041	-0.098
-109.020	800.000	-0.121	-0.474
-108.005	67.219	0.379	-0.384
-106.991	376.626	0.524	1.061
-105.976	-7.745	-0.823	0.551
-104.962	-10.859	-0.517	0.339
-103.947	230.295	0.267	-0.432
-102.932	21.518	-0.643	-0.519
-101.918	-13.512	0.721	-0.463
-100.903	351.442	0.333	-0.653
-99.889	-160.230	0.833	-0.045
-98.874	-200.000	0.093	-0.476
-97.859	17.925	-0.366	0.290
-96.845	10.865	0.541	-0.410
-95.830	146.406	-0.436	0.581
-94.816	-45.355	-1.347	0.663
-93.801	367.597	0.215	0.430
-92.786	800.000	0.231	0.647
-91.772	-81.593	-0.253	-0.082
-90.757	96.275	-0.252	0.286
-89.743	345.816	0.520	-1.014
-88.728	11.421	-0.279	-0.212
-87.713	-35.345	0.490	-0.264
-86.699	-16.415	-0.305	-0.191
-85.684	157.272	-0.316	-0.433
-84.670	-119.947	0.396	-0.067
-83.655	-82.432	0.402	0.130
-82.640	556.638	0.113	-0.270
-81.626	-200.000	0.040	-0.231
-80.611	-28.546	0.233	0.133
-79.597	7.184	-0.804	-0.594
-78.582	-174.744	-0.779	0.022
-77.567	93.843	0.265	0.298
-76.553	74.618	-0.234	-0.244
-75.538	-134.267	-0.657	0.080
-74.524	-29.530	-0.357	0.202
-73.509	-67.288	-0.830	-0.323
-72.494	-200.000	0.060	-0.543
-71.480	-98.132	0.873	-0.223
-70.465	-171.322	0.370	-0.012
-69.451	-200.000	0.009	0.209
-68.436	-62.318	-1.141	-0.470
-67.422	54.518	0.087	-0.083
-66.407	-200.000	0.089	-0.648
-65.392	52.577	-0.270	0.255
-64.378	-80.130	-0.984	-0.326
-63.363	800.000	-0.166	0.485
-62.349	403.233	0.372	0.776
-61.334	-0.313	-1.111	-0.782
-60.319	-97.729	-0.888	0.228
-59.305	274.520	-0.819	-1.435
-58.290	324.237	0.564	1.066
-57.276	194.903	0.684	1.029
-56.261	-200.000	95.228	593.489
-55.246	659.739	1358.129	3461.176
-54.232	199.847	2527.081	3839.518
-53.217	108.716	2280.022	2696.798
-52.203	39.223	2044.983	1811.476
-51.188	34.331	1961.437	1694.036
-50.173	32.804	1944.965	1666.270
-49.159	48.141	1996.608	1848.127
-48.144	49.044	2013.218	1871.513
-47.130	34.977	1975.844	1711.991
-46.115	32.428	1966.159	1680.800
-45.100	32.555	1962.400	1678.650
-44.086	32.393	1960.854	1675.820
-43.071	32.575	1957.010	1674.088
-42.057	32.336	1956.037	1671.064
-41.042	32.438	1952.717	1669.064
-40.027	32.470	1951.408	1668.164
-39.013	32.432	1949.118	1665.807
-37.998	32.479	1947.283	1664.586
-36.984	32.320	1946.839	1662.737
-35.969	32.527	1943.903	1661.989
-34.954	32.716	1941.923	1661.898
-33.940	32.614	1940.437	1659.662
-32.925	32.565	1940.167	1658.930
-31.911	32.731	1936.585	1657.265
-30.896	32.657	1935.910	1655.969
-29.881	32.690	1934.336	1654.845
-28.867	32.711	1933.404	1654.172
-27.852	32.933	1929.963	1653.100
-26.838	32.617	1928.358	1648.895
-25.823	32.618	1926.506	1647.257
-24.809	32.581	1926.407	1646.784
-23.794	32.744	1924.002	1646.090
-22.779	32.469	1922.489	1642.328
-21.765	32.513	1920.523	1640.965
-20.750	32.655	1918.603	1640.493
-19.736	32.683	1917.448	1639.691
-18.721	32.647	1915.772	1637.876
-17.706	32.694	1913.717	1636.465
-16.692	32.671	1911.830	1634.580
-15.677	32.713	1910.851	1634.044
-14.663	32.757	1908.255	1632.146
-13.648	32.505	1907.870	1629.564
-12.633	32.721	1906.741	1630.403
-11.619	32.644	1906.767	1629.699
-10.604	32.644	1903.538	1626.870
-9.590	32.481	1903.628	1625.481
-8.575	32.592	1901.534	1624.583
-7.560	32.719	1900.272	1624.539
-6.546	32.755	1899.251	1623.908
-5.531	32.707	1897.146	1621.627
-4.517	32.452	1897.523	1619.692
-3.502	32.439	1895.720	1617.980
-2.487	32.622	1893.766	1617.821
-1.473	32.807	1892.353	1618.134
-0.458	32.648	1889.322	1614.118
0.556	33.604	1868.514	1585.206
1.571	29.204	1849.402	1532.353
2.586	25.192	1871.670	1516.822
3.600	24.031	1906.791	1535.139
4.615	23.356	1900.993	1524.527
5.629	17.854	1801.971	1399.981
6.644	8.289	1683.386	1234.101
7.659	3.463	1645.586	1169.744
8.673	3.109	1642.192	1164.545
9.688	3.059	1641.728	1163.737
10.702	2.982	1639.968	1161.802
11.717	2.970	1635.600	1158.513
12.731	3.309	1635.102	1160.617
13.746	9.785	1651.711	1221.465
14.761	19.857	1671.608	1312.879
15.775	24.385	1679.577	1353.458
16.790	24.839	1680.605	1357.609
17.804	24.780	1679.481	1356.136
18.819	24.476	1677.432	1352.063
19.834	24.627	1676.054	1351.976
20.848	24.688	1676.738	1352.868
21.863	24.968	1674.429	1352.996
22.877	24.896	1674.269	1352.207
23.892	24.874	1673.475	1351.281
24.907	24.964	1672.102	1350.728
25.921	24.770	1672.161	1349.195
26.936	24.936	1670.600	1349.069
27.950	24.830	1669.762	1347.474
28.965	25.002	1668.154	1347.347
29.980	24.858	1667.892	1345.933
30.994	24.878	1666.924	1345.184
32.009	25.055	1666.035	1345.679
33.023	25.008	1666.232	1345.369
34.038	25.142	1664.511	1344.862
35.053	24.920	1662.992	1341.850
36.067	24.992	1662.317	1341.725
37.082	24.981	1660.951	1340.428
38.096	24.831	1660.906	1339.147
39.111	24.950	1659.327	1338.646
40.126	25.112	1658.586	1339.142
41.140	24.771	1658.764	1336.618
42.155	24.947	1656.643	1336.099
43.169	24.754	1655.612	1333.713
44.184	24.400	1655.670	1331.006
45.199	24.517	1653.876	1330.318
46.213	24.587	1652.267	1329.420
47.228	24.646	1650.863	1328.615
48.242	24.736	1650.905	1329.202
49.257	24.683	1650.539	1328.394
50.271	24.654	1649.405	1327.146
51.286	24.933	1647.062	1327.210
52.301	25.004	1646.143	1326.882
53.315	24.987	1644.462	1325.281
54.330	24.956	1644.072	1324.619
55.344	24.819	1641.678	1321.563
56.359	24.747	1640.836	1320.242
57.374	24.525	1640.486	1318.201
58.388	24.647	1638.962	1317.761
59.403	24.616	1637.734	1316.425
60.417	24.630	1636.511	1315.429
61.432	24.633	1635.339	1314.397
62.447	24.811	1633.748	1314.304
63.461	24.545	1632.520	1311.248
64.476	24.481	1632.519	1310.662
65.490	24.755	1630.273	1310.754
66.505	24.506	1630.665	1309.128
67.520	24.426	1629.542	1307.520
68.534	24.517	1628.895	1307.555
69.549	24.698	1627.442	1307.595
70.563	24.540	1626.349	1305.447
71.578	24.558	1624.290	1303.811
72.593	24.719	1623.787	1304.470
73.607	24.425	1623.572	1302.032
74.622	24.269	1622.729	1300.102
75.636	24.490	1621.727	1300.798
76.651	24.448	1621.323	1300.054
77.666	24.716	1618.919	1299.960
78.680	24.457	1620.006	1298.835
79.695	24.510	1617.634	1297.200
80.709	24.285	1617.157	1295.072
81.724	24.621	1616.401	1296.787
82.739	24.705	1616.809	1297.611
83.753	24.832	1615.064	1297.014
84.768	25.130	1613.686	1297.950
85.782	25.063	1614.406	1297.929
86.797	25.073	1612.840	1296.630
87.812	25.114	1612.528	1296.557
88.826	25.108	1611.201	1295.333
89.841	25.108	1608.636	1293.156
90.855	24.931	1609.220	1292.237
91.870	24.956	1608.145	1291.437
92.884	25.063	1607.303	1291.416
93.899	25.030	1606.132	1290.127
94.914	25.251	1604.949	1290.654
95.928	25.161	1604.663	1289.660
96.943	25.204	1602.270	1287.935
97.957	25.032	1601.128	1285.666
98.972	25.118	1600.843	1285.941
99.987	25.185	1598.446	1284.384
101.001	25.028	1597.029	1282.006
102.016	25.116	1595.123	1280.992
103.030	24.863	1595.168	1279.108
104.045	24.917	1594.593	1278.915
105.060	25.141	1591.927	1278.260
106.074	25.037	1590.614	1276.352
107.089	24.920	1589.095	1274.187
108.103	24.988	1586.671	1272.615
109.118	24.673	1586.070	1269.783
110.133	24.554	1585.391	1268.284
111.147	24.628	1583.875	1267.484
112.162	24.311	1583.244	1264.616
113.176	24.622	1582.673	1266.256
114.191	24.888	1580.726	1266.470
115.206	24.875	1580.708	1266.249
116.220	24.541	1578.853	1262.293
117.235	24.807	1577.546	1263.014
118.249	24.685	1577.566	1262.059
119.264	24.446	1575.441	1258.559
120.279	24.796	1572.584	1258.625
121.293	24.574	1572.026	1256.511
122.308	24.646	1571.813	1256.734
123.322	24.686	1569.567	1255.111
124.337	24.344	1568.842	1252.018
125.352	24.438	1567.334	1251.360
126.366	24.187	1567.242	1249.413
127.381	24.273	1567.496	1250.115
128.395	24.567	1566.067	1250.920
129.410	24.383	1564.223	1248.048
130.424	24.429	1562.098	1246.567
131.439	24.429	1561.014	1245.591
132.454	24.331	1560.891	1244.700
133.468	24.400	1558.901	1243.479
134.483	24.336	1559.008	1243.015
135.497	24.459	1558.127	1243.058
136.512	24.664	1556.015	1242.688
137.527	24.816	1554.342	1242.297
138.541	24.634	1553.586	1240.319
139.556	24.546	1552.761	1238.937
140.570	24.796	1551.377	1239.456
141.585	25.090	1549.409	1239.810
142.600	25.003	1549.481	1239.155
143.614	24.838	1548.144	1236.834
144.629	25.081	1547.101	1237.573
145.643	25.110	1546.726	1237.360
146.658	24.759	1545.818	1234.105
147.673	24.687	1545.202	1233.010
148.687	25.034	1542.197	1232.893
149.702	25.042	1541.341	1232.148
150.716	24.893	1540.587	1230.414
151.731	24.620	1538.915	1227.096
152.746	24.566	1536.196	1224.452
153.760	24.617	1534.729	1223.521
154.775	24.714	1535.100	1224.376
155.789	24.797	1534.596	1224.433
156.804	24.994	1534.192	1225.346
157.819	24.757	1533.514	1223.075
158.833	24.898	1531.136	1222.038
159.848	24.921	1529.840	1221.047
160.862	24.987	1529.481	1221.106
161.877	25.020	1528.470	1220.415
162.892	24.706	1529.094	1218.666
163.906	24.739	1526.254	1216.520
164.921	24.683	1525.334	1215.298
165.935	24.678	1524.099	1214.169
166.950	24.767	1522.050	1213.036
167.964	24.876	1521.424	1213.166
168.979	25.164	1520.516	1214.287
169.994	25.046	1519.785	1212.794
171.008	24.932	1518.834	1211.157
172.023	24.652	1519.140	1209.404
173.037	24.747	1517.692	1208.782
174.052	24.931	1515.745	1208.368
175.067	25.067	1515.428	1208.924
176.081	24.895	1515.079	1207.384
177.096	24.732	1513.539	1204.949
178.110	24.533	1512.475	1202.652
179.125	24.745	1510.709	1202.571
180.140	24.773	1509.425	1201.632
181.154	24.670	1508.730	1200.280
182.169	24.946	1508.136	1201.552
183.183	24.735	1507.204	1199.291
184.198	24.624	1506.075	1197.538
185.213	24.633	1506.083	1197.498
186.227	25.077	1504.980	1199.490
187.242	24.931	1504.287	1197.853
188.256	24.941	1503.332	1197.054
189.271	25.297	1500.848	1197.344
190.286	25.087	1500.621	1195.656
191.300	24.983	1500.275	1194.580
192.315	24.918	1498.506	1192.638
193.329	24.877	1497.101	1191.140
194.344	24.700	1497.886	1190.480
195.359	25.035	1496.623	1191.601
196.373	24.798	1494.288	1188.064
197.388	24.492	1494.082	1185.757
198.402	24.431	1491.823	1183.459
199.417	24.555	1492.227	1184.493
200.432	24.931	1490.698	1185.670
201.446	25.277	1490.895	1188.011
202.461	25.188	1490.044	1186.639
203.475	24.967	1489.930	1184.979
204.490	25.159	1487.966	1184.584
205.504	24.784	1487.781	1181.853
206.519	24.585	1486.402	1179.338
207.534	24.611	1485.044	1178.332
208.548	24.731	1484.283	1178.412
209.563	24.411	1483.832	1175.838
210.577	24.582	1482.371	1175.705
211.592	24.490	1480.451	1173.473
212.607	24.407	1479.829	1172.331
213.621	24.591	1480.743	1174.163
214.636	25.147	1480.039	1177.147
215.650	24.927	1478.790	1174.606
216.665	24.733	1478.710	1173.166
217.680	24.700	1477.192	1171.645
218.694	25.058	1476.994	1173.729
219.709	25.156	1476.155	1173.598
220.723	24.945	1474.687	1170.953
221.738	24.715	1474.645	1169.311
222.753	24.674	1472.775	1167.456
223.767	24.955	1471.649	1168.292
224.782	24.570	1470.052	1164.415
225.796	24.561	1469.928	1164.155
226.811	24.938	1469.952	1166.522
227.826	25.093	1468.185	1166.027
228.840	25.129	1467.623	1165.711
229.855	25.194	1466.143	1164.853
230.869	24.815	1465.271	1161.597
231.884	24.845	1464.267	1160.893
232.899	24.768	1464.295	1160.316
233.913	24.462	1463.614	1157.690
234.928	24.662	1460.492	1156.413
235.942	24.620	1459.558	1155.299
236.957	24.782	1458.765	1155.613
237.972	24.651	1457.979	1154.045
238.986	24.354	1457.308	1151.491
240.001	24.465	1456.026	1151.096
241.015	24.541	1454.895	1150.590
242.030	24.584	1454.321	1150.306
243.045	24.819	1452.337	1150.148
244.059	24.762	1451.718	1149.192
245.074	24.868	1450.954	1149.168
246.088	24.736	1451.194	1148.407
247.103	25.130	1450.187	1150.037
248.117	24.987	1450.336	1149.134
249.132	25.026	1449.971	1148.995
250.147	25.146	1448.713	1148.661
251.161	25.394	1447.726	1149.368
252.176	25.790	1447.329	1151.481
253.190	25.729	1446.954	1150.691
254.205	25.461	1445.960	1148.089
255.220	25.900	1444.788	1149.854
256.234	25.760	1445.023	1149.046
257.249	25.848	1444.260	1148.902
258.263	25.905	1442.480	1147.744
259.278	25.636	1442.742	1146.143
260.293	25.661	1441.376	1145.111
261.307	25.468	1440.578	1143.149
262.322	25.483	1440.668	1143.217
263.336	25.704	1439.255	1143.399
264.351	25.566	1437.998	1141.419
265.366	25.674	1437.079	1141.278
266.380	25.436	1437.030	1139.624
267.395	25.781	1435.013	1140.110
268.409	25.719	1434.564	1139.261
269.424	25.334	1434.698	1136.832
270.439	25.491	1431.971	1135.563
271.453	25.382	1432.206	1134.957
272.468	25.651	1430.831	1135.462
273.482	25.232	1430.495	1132.452
274.497	25.247	1429.127	1131.364
275.512	25.128	1428.444	1129.977
276.526	25.452	1427.764	1131.377
277.541	25.485	1425.810	1129.937
278.555	25.360	1425.533	1128.832
279.570	25.383	1424.632	1128.164
280.585	25.265	1424.749	1127.414
281.599	25.653	1424.912	1129.880
282.614	25.753	1423.358	1129.174
283.628	25.536	1421.062	1125.892
284.643	25.344	1420.510	1124.158
285.657	25.329	1419.706	1123.325
286.672	25.175	1419.046	1121.742
287.687	25.232	1417.455	1120.741
288.701	25.349	1416.989	1121.006
289.716	25.279	1416.888	1120.386
290.730	25.334	1416.397	1120.242
291.745	25.399	1414.338	1118.922
292.760	25.311	1414.005	1118.012
293.774	25.407	1412.563	1117.370
294.789	25.373	1412.266	1116.820
295.803	25.688	1410.879	1117.582
296.818	26.002	1409.913	1118.665
297.833	25.382	1410.177	1114.928
298.847	25.294	1409.060	1113.403
299.862	25.582	1406.598	1113.143
300.876	25.551	1406.308	1112.623
301.891	25.577	1404.097	1110.936
302.906	25.225	1406.023	1110.182
303.920	25.445	1405.003	1110.638
304.935	25.599	1404.601	1111.174
305.949	25.915	1403.195	1111.916
306.964	26.125	1402.091	1112.232
307.979	25.952	1401.720	1110.778
308.993	25.875	1401.522	1110.045
310.008	25.675	1400.224	1107.692
311.022	25.784	1398.090	1106.575
312.037	25.525	1399.180	1105.746
313.052	25.802	1397.362	1105.913
314.066	25.538	1396.744	1103.705
315.081	25.530	1396.138	1103.080
316.095	25.358	1394.454	1100.594
317.110	25.330	1391.927	1098.333
318.125	25.079	1391.581	1096.431
319.139	25.098	1391.432	1096.330
320.154	25.146	1390.368	1095.687
321.168	25.335	1388.395	1095.187
322.183	25.232	1387.261	1093.568
323.197	25.227	1387.096	1093.314
324.212	25.165	1387.029	1092.783
325.227	25.467	1386.216	1093.884
326.241	25.341	1385.096	1092.142
327.256	25.586	1384.258	1092.870
328.270	25.672	1382.614	1092.000
329.285	25.511	1382.313	1090.686
330.300	25.383	1381.658	1089.295
331.314	25.457	1380.910	1089.063
332.329	25.570	1379.986	1088.918
333.343	25.447	1379.030	1087.326
334.358	25.421	1378.767	1086.864
335.373	25.581	1377.036	1086.370
336.387	25.644	1376.876	1086.530
337.402	25.841	1376.302	1087.170
338.416	25.909	1375.992	1087.239
339.431	25.856	1376.032	1086.854
340.446	25.847	1375.305	1086.129
341.460	25.867	1373.317	1084.579
342.475	26.147	1373.074	1085.979
343.489	26.138	1373.675	1086.305
344.504	26.122	1372.176	1084.927
345.519	25.951	1371.675	1083.404
346.533	26.224	1369.720	1083.403
347.548	26.135	1369.484	1082.589
348.562	26.315	1368.317	1082.649
349.577	26.142	1367.900	1081.185
350.592	25.822	1367.664	1078.985
351.606	25.639	1366.277	1076.701
352.621	25.954	1363.707	1076.462
353.635	25.639	1362.328	1073.400
354.650	25.679	1361.529	1072.913
355.665	25.403	1362.188	1071.693
356.679	25.574	1360.039	1070.923
357.694	25.525	1359.244	1069.913
358.708	25.772	1358.245	1070.499
359.723	25.930	1356.707	1070.132
360.738	25.925	1356.478	1069.827
361.752	25.979	1355.165	1069.015
362.767	25.833	1353.633	1066.851
363.781	25.692	1353.049	1065.457
364.796	25.632	1351.868	1064.080
365.810	25.719	1352.253	1064.806
366.825	26.058	1351.190	1065.876
367.840	26.364	1351.501	1067.838
368.854	26.222	1349.816	1065.569
369.869	26.304	1350.906	1066.818
370.883	26.189	1349.655	1065.062
371.898	26.189	1348.524	1064.072
372.913	26.008	1347.595	1062.183
373.927	26.135	1346.948	1062.322
374.942	26.059	1345.251	1060.446
375.956	26.082	1345.450	1060.643
376.971	26.416	1344.363	1061.655
377.986	26.155	1343.086	1059.020
379.000	26.136	1342.959	1058.718
380.015	26.194	1342.533	1058.629
381.029	26.376	1342.101	1059.261
382.044	26.458	1341.057	1058.821
383.059	26.404	1341.201	1058.523
384.073	26.229	1339.155	1055.794
385.088	26.488	1338.919	1057.025
386.102	26.333	1337.338	1054.782
387.117	26.220	1337.568	1054.212
388.132	26.147	1337.790	1053.868
389.146	25.836	1336.896	1051.250
390.161	25.968	1335.291	1050.664
391.175	26.176	1333.638	1050.486
392.190	25.996	1332.193	1048.204
393.205	25.875	1333.055	1048.087
394.219	26.349	1331.642	1049.636
395.234	26.505	1330.304	1049.395
396.248	26.395	1329.747	1048.222
397.263	25.880	1328.627	1044.267
398.278	25.989	1326.015	1042.753
399.292	25.926	1325.491	1041.883
400.307	25.835	1325.635	1041.378
401.321	25.954	1324.279	1040.906
402.336	26.138	1322.938	1040.823
403.350	26.007	1321.182	1038.594
404.365	25.776	1320.444	1036.594
405.380	26.048	1320.355	1037.998
406.394	26.090	1319.773	1037.685
407.409	25.971	1319.674	1036.833
408.423	26.174	1318.071	1036.652
409.438	26.204	1318.496	1037.066
410.453	26.307	1318.185	1037.316
411.467	26.427	1316.503	1036.588
412.482	26.631	1315.839	1037.142
413.496	26.644	1315.163	1036.596
414.511	26.382	1314.492	1034.473
415.526	26.584	1314.161	1035.280
416.540	26.647	1313.213	1034.801
417.555	26.451	1312.401	1032.952
418.569	26.482	1312.958	1033.475
419.584	26.411	1312.390	1032.530
420.599	26.733	1310.903	1033.106
421.613	142.440	1435.476	1793.119
422.628	138.170	1453.563	1793.190
