DTS Sentinel unit serial number:	SN413079Multiplexer serial number:	ORYXHardware model number:	OX4-SRSoftware version number:	ORYX F/W v4.00 Oryx Data Collector v3.7.2.0data status	okinstallation	princeton_trtdifferential loss correction	single-endedforward channel	channel 4reverse channel	N/Adate	2019/09/13time	08:01:35forward acquisition time	60.00reverse acquisition time	0.00gamma	496.2192k internal	0.2319k external	0.2319temperature offset calibration	1.0196default loss term (dB/km)	0.3790temperature slope calibration	1.0000multiplexer offset coefficient	1.0000multiplexer slope coefficient	1.0000fibre end	0.00T internal ref (°C)	26.87T ext. ref 1 (°C)	4.24T ext. ref 2 (°C)	23.13length (m)	temperature (°C)	Stokes	anti-Stokes-747.200	169.489	-0.164	0.237
-746.185	-46.479	-0.282	0.140
-745.171	171.424	-0.238	-0.346
-744.156	-109.196	0.133	-0.029
-743.142	332.852	-0.121	0.237
-742.127	316.391	-0.148	0.283
-741.112	-156.500	0.622	-0.039
-740.098	794.295	-0.090	0.252
-739.083	-107.815	0.353	-0.078
-738.069	-136.558	-0.090	-0.011
-737.054	800.000	0.090	0.351
-736.039	800.000	0.066	0.196
-735.025	-200.000	0.013	0.276
-734.010	-159.002	-0.231	-0.013
-732.996	-189.393	0.090	-0.001
-731.981	581.335	-0.133	-0.328
-730.966	153.492	-0.157	0.217
-729.952	-200.000	-0.004	0.041
-728.937	-80.119	-0.280	0.095
-727.923	39.475	0.089	-0.081
-726.908	-200.000	0.038	-0.312
-725.894	4.209	0.124	-0.092
-724.879	800.000	0.082	-0.231
-723.864	130.771	-0.163	-0.212
-722.850	97.927	-0.091	-0.105
-721.835	-200.000	-0.103	-0.463
-720.821	-200.000	0.026	-0.149
-719.806	800.000	0.118	-0.448
-718.791	-200.000	-0.054	-0.332
-717.777	26.597	-0.080	0.068
-716.762	800.000	-0.042	-0.181
-715.748	-200.000	-0.037	-0.178
-714.733	-49.227	0.179	0.086
-713.718	-200.000	-0.056	-0.297
-712.704	800.000	-0.089	-0.345
-711.689	348.162	0.028	0.056
-710.675	800.000	0.063	0.264
-709.660	-200.000	-0.019	0.087
-708.645	201.302	0.089	-0.139
-707.631	-43.319	-0.119	0.061
-706.616	-200.000	0.042	-0.265
-705.602	-97.709	0.158	-0.041
-704.587	407.821	-0.052	-0.112
-703.572	-200.000	-0.010	0.048
-702.558	-37.132	-0.021	-0.012
-701.543	800.000	0.049	-0.183
-700.529	754.435	-0.118	-0.323
-699.514	-22.930	-0.069	0.042
-698.499	-105.240	0.221	0.051
-697.485	-115.177	-0.160	-0.031
-696.470	-200.000	0.025	0.343
-695.456	-11.872	0.264	0.175
-694.441	335.683	0.184	-0.361
-693.426	-57.999	-0.235	-0.104
-692.412	519.041	0.142	0.335
-691.397	-41.410	-0.250	0.130
-690.383	49.250	-0.049	0.047
-689.368	-187.462	-0.117	0.002
-688.354	132.883	-0.154	0.201
-687.339	-18.478	0.163	0.102
-686.324	754.907	-0.119	-0.324
-685.310	-12.211	0.063	0.042
-684.295	-143.801	0.078	-0.007
-683.281	-200.000	-0.005	0.071
-682.266	159.627	0.152	-0.214
-681.251	-84.983	0.097	-0.031
-680.237	800.000	-0.100	-0.373
-679.222	-69.027	0.340	-0.132
-678.208	143.843	0.100	0.134
-677.193	556.928	0.040	-0.097
-676.178	-200.000	-0.003	-0.034
-675.164	214.969	-0.208	0.332
-674.149	-122.925	-0.100	0.016
-673.135	485.572	-0.089	-0.205
-672.120	61.916	0.191	0.192
-671.105	-75.224	0.180	0.065
-670.091	-4.787	0.135	0.094
-669.076	144.695	0.092	-0.124
-668.062	177.018	0.079	-0.115
-667.047	28.401	-0.158	-0.135
-666.032	-85.249	-0.095	-0.030
-665.018	67.435	-0.282	-0.290
-664.003	709.714	-0.080	0.213
-662.989	-200.000	-0.044	-0.269
-661.974	-95.802	-0.206	0.055
-660.959	-200.000	0.012	-0.337
-659.945	-82.460	0.055	-0.018
-658.930	-45.971	0.153	0.076
-657.916	-200.000	-0.023	-0.120
-656.901	-76.466	0.306	0.108
-655.886	100.382	0.070	-0.082
-654.872	800.000	0.083	-0.308
-653.857	132.958	0.313	0.408
-652.843	480.976	0.086	-0.197
-651.828	-200.000	0.019	0.279
-650.814	-84.807	0.081	-0.026
-649.799	-54.245	-0.310	-0.142
-648.784	394.883	0.039	0.082
-647.770	800.000	0.046	0.135
-646.755	-0.393	0.211	-0.151
-645.741	-101.915	-0.225	-0.055
-644.726	800.000	0.056	-0.184
-643.711	-95.325	0.150	0.041
-642.697	-80.583	-0.227	-0.076
-641.682	-171.565	-0.170	-0.006
-640.668	-200.000	-0.031	-0.280
-639.653	58.200	-0.261	-0.258
-638.638	58.610	0.168	0.166
-637.624	-101.612	-0.134	0.033
-636.609	242.542	-0.055	-0.093
-635.595	13.786	0.182	0.142
-634.580	-200.000	-0.007	-0.108
-633.565	800.000	-0.032	0.097
-632.551	-200.000	-0.006	-0.085
-631.536	-58.244	-0.474	-0.208
-630.522	235.680	0.065	-0.109
-629.507	800.000	-0.051	-0.206
-628.492	-179.666	0.274	-0.006
-627.478	-125.964	-0.078	0.012
-626.463	-200.000	-0.013	0.119
-625.449	800.000	-0.061	0.204
-624.434	-107.701	-0.302	0.066
-623.419	54.281	-0.143	0.139
-622.405	226.061	-0.139	0.226
-621.390	-22.109	0.140	-0.086
-620.376	-200.000	-0.004	0.183
-619.361	74.377	-0.256	-0.271
-618.346	-99.456	-0.160	-0.041
-617.332	156.446	-0.126	-0.175
-616.317	800.000	0.066	-0.286
-615.303	800.000	-0.074	-0.268
-614.288	-121.584	-0.016	0.003
-613.273	69.903	0.113	-0.117
-612.259	-200.000	-0.038	-0.297
-611.244	428.917	-0.023	-0.050
-610.230	-139.410	0.251	-0.027
-609.215	115.467	0.117	0.143
-608.201	142.237	0.199	0.265
-607.186	-93.692	0.159	-0.044
-606.171	490.909	-0.024	0.055
-605.157	-37.301	0.237	-0.127
-604.142	8.551	0.100	0.076
-603.128	16.642	0.184	0.147
-602.113	-76.949	-0.088	0.031
-601.098	-200.000	0.032	0.239
-600.084	-32.329	-0.288	0.162
-599.069	80.533	0.232	0.251
-598.055	800.000	0.044	-0.170
-597.040	21.016	-0.037	-0.030
-596.025	559.170	0.174	0.422
-595.011	43.915	0.074	-0.068
-593.996	-108.293	0.294	-0.064
-592.982	288.920	0.072	0.132
-591.967	800.000	-0.027	-0.116
-590.952	800.000	0.032	0.107
-589.938	-200.000	0.017	0.113
-588.923	101.455	-0.139	0.163
-587.909	208.667	-0.020	0.032
-586.894	800.000	-0.110	0.376
-585.879	152.804	-0.136	0.187
-584.865	800.000	0.149	0.451
-583.850	-52.823	0.178	-0.082
-582.836	-45.270	-0.178	-0.089
-581.821	-200.000	-0.004	0.083
-580.806	281.105	-0.154	0.278
-579.792	-113.794	-0.295	0.058
-578.777	31.403	-0.304	-0.263
-577.763	-28.825	0.162	0.094
-576.748	782.608	-0.055	0.150
-575.733	-129.421	-0.223	0.031
-574.719	112.620	0.100	-0.122
-573.704	0.439	0.022	-0.016
-572.690	-200.000	0.013	0.203
-571.675	800.000	0.075	-0.269
-570.661	210.993	-0.129	-0.204
-569.646	-119.942	0.146	0.025
-568.631	139.746	0.093	0.123
-567.617	477.678	0.054	-0.122
-566.602	-200.000	-0.005	0.035
-565.588	-85.176	0.170	-0.053
-564.573	-109.463	-0.160	0.034
-563.558	800.000	0.031	0.092
-562.544	166.077	0.096	-0.137
-561.529	-7.433	0.175	-0.119
-560.515	46.029	-0.143	0.133
-559.500	-200.000	-0.018	-0.216
-558.485	17.018	-0.122	-0.097
-557.471	-78.677	-0.196	0.067
-556.456	10.130	-0.148	-0.113
-555.442	131.826	0.101	0.130
-554.427	45.746	-0.143	-0.133
-553.412	-102.921	-0.242	-0.058
-552.398	-200.000	-0.002	-0.249
-551.383	-117.985	0.464	-0.083
-550.369	412.600	-0.118	-0.251
-549.354	800.000	0.027	-0.096
-548.339	71.324	-0.227	-0.236
-547.325	142.686	0.142	-0.190
-546.310	-200.000	0.030	0.178
-545.296	80.670	-0.079	-0.085
-544.281	335.282	0.047	-0.092
-543.266	800.000	-0.009	0.032
-542.252	-42.529	0.322	-0.164
-541.237	-142.909	-0.239	0.023
-540.223	1.500	0.382	-0.276
-539.208	302.277	-0.066	0.122
-538.193	-200.000	-0.012	0.355
-537.179	-104.262	0.057	0.013
-536.164	-165.305	-0.016	0.001
-535.150	10.279	0.087	0.067
-534.135	-200.000	0.013	-0.120
-533.121	-67.369	0.102	0.040
-532.106	-68.172	0.192	-0.075
-531.091	-143.106	0.274	0.026
-530.077	-200.000	0.022	0.361
-529.062	-70.206	-0.104	-0.039
-528.048	282.645	0.182	-0.327
-527.033	-39.219	0.164	0.086
-526.018	-200.000	0.092	0.000
-525.004	-62.598	-0.318	-0.132
-523.989	98.445	-0.163	-0.189
-522.975	800.000	-0.038	0.150
-521.960	43.427	-0.124	0.114
-520.945	-76.843	0.136	-0.048
-519.931	-45.035	0.050	0.025
-518.916	-200.000	0.003	0.119
-517.902	48.187	0.219	-0.206
-516.887	287.205	0.056	-0.101
-515.872	-200.000	-0.021	-0.306
-514.858	-35.292	0.442	-0.241
-513.843	53.751	0.266	-0.256
-512.829	-200.000	-0.049	0.217
-511.814	-6.284	0.289	0.198
-510.799	343.154	-0.064	0.127
-509.785	70.477	-0.125	-0.129
-508.770	75.028	0.054	-0.057
-507.756	800.000	-0.083	0.282
-506.741	205.698	-0.068	0.106
-505.726	-18.740	-0.203	-0.127
-504.712	46.633	0.067	0.062
-503.697	-200.000	0.028	-0.205
-502.683	15.224	-0.221	-0.174
-501.668	-146.418	0.229	-0.020
-500.653	95.793	0.255	0.292
-499.639	-28.295	0.121	0.070
-498.624	-101.194	-0.179	0.044
-497.610	35.435	-0.180	0.158
-496.595	-160.331	0.422	0.023
-495.581	309.848	0.015	-0.027
-494.566	800.000	0.092	-0.377
-493.551	-200.000	-0.041	-0.289
-492.537	-24.532	0.340	0.203
-491.522	-74.529	0.169	0.061
-490.508	-7.263	-0.318	-0.216
-489.493	-73.021	-0.276	0.102
-488.478	-149.420	-0.162	0.013
-487.464	-163.054	0.264	-0.013
-486.449	13.375	0.163	-0.127
-485.435	-192.008	-0.202	-0.002
-484.420	-180.493	0.196	-0.004
-483.405	111.437	-0.135	0.162
-482.391	293.304	0.130	-0.238
-481.376	-115.579	0.161	0.030
-480.362	-129.672	0.229	-0.032
-479.347	-91.083	0.062	-0.018
-478.332	-82.112	0.045	0.015
-477.318	-85.600	-0.279	-0.087
-476.303	-76.342	-0.309	-0.109
-475.289	713.352	0.117	-0.309
-474.274	80.755	0.136	0.147
-473.259	800.000	-0.061	-0.169
-472.245	89.305	-0.317	-0.353
-471.230	232.543	0.216	0.355
-470.216	-71.008	-0.421	-0.159
-469.201	167.331	0.093	0.133
-468.186	-14.225	0.108	0.070
-467.172	-19.765	0.066	-0.041
-466.157	-15.040	-0.278	0.178
-465.143	71.660	0.129	0.134
-464.128	-143.150	0.290	0.028
-463.113	-36.798	-0.244	0.131
-462.099	800.000	0.038	0.122
-461.084	-200.000	-0.001	0.099
-460.070	-52.438	0.270	-0.125
-459.055	785.606	-0.104	0.287
-458.040	-200.000	-0.014	0.099
-457.026	-54.605	0.221	0.100
-456.011	463.625	-0.080	-0.179
-454.997	748.183	-0.050	-0.134
-453.982	163.433	0.114	-0.161
-452.968	-200.000	-0.123	-0.584
-451.953	-2.881	0.168	-0.117
-450.938	-38.240	0.137	0.073
-449.924	51.521	-0.085	-0.081
-448.909	-200.000	0.054	0.263
-447.895	-153.174	0.264	0.018
-446.880	661.415	0.142	0.365
-445.865	-200.000	0.002	-0.266
-444.851	12.115	-0.172	0.132
-443.836	295.509	0.187	-0.342
-442.822	800.000	0.039	0.163
-441.807	292.083	-0.043	0.078
-440.792	-64.736	0.272	-0.110
-439.778	-29.817	0.205	-0.117
-438.763	141.991	0.180	-0.238
-437.749	-200.000	-0.010	-0.176
-436.734	395.602	-0.113	-0.236
-435.719	5.377	-0.194	0.143
-434.705	-98.951	0.250	-0.063
-433.690	800.000	0.009	0.031
-432.676	-41.970	0.108	-0.055
-431.661	-56.732	0.329	-0.146
-430.646	6.717	-0.501	-0.373
-429.632	-31.885	-0.046	-0.026
-428.617	-123.593	0.127	0.020
-427.603	-122.587	0.257	0.042
-426.588	-200.000	0.020	0.242
-425.573	109.765	-0.103	0.123
-424.559	-200.000	-0.012	-0.173
-423.544	249.007	0.137	0.232
-422.530	26.866	-0.086	0.072
-421.515	800.000	0.060	0.189
-420.500	-112.739	-0.165	-0.033
-419.486	-49.062	-0.249	-0.119
-418.471	-50.669	-0.036	-0.017
-417.457	-193.762	-0.416	0.004
-416.442	131.769	0.045	0.057
-415.428	800.000	-0.026	-0.080
-414.413	-147.874	-0.101	0.008
-413.398	800.000	-0.085	-0.257
-412.384	-4.221	0.167	0.115
-411.369	-99.374	-0.379	0.095
-410.355	186.558	0.068	-0.101
-409.340	800.000	-0.063	0.175
-408.325	-200.000	0.041	-0.333
-407.311	133.412	-0.209	0.269
-406.296	800.000	0.093	0.288
-405.282	646.975	-0.108	-0.275
-404.267	-161.904	0.273	-0.014
-403.252	800.000	-0.041	-0.178
-402.238	-65.040	-0.309	0.125
-401.223	40.355	-0.032	0.029
-400.209	-109.774	-0.162	0.034
-399.194	289.909	0.027	-0.050
-398.179	-200.000	0.051	0.542
-397.165	-7.013	-0.252	0.170
-396.150	78.726	-0.190	0.203
-395.136	-10.641	-0.306	-0.202
-394.121	-109.344	-0.048	-0.010
-393.106	-200.000	-0.004	-0.045
-392.092	1.459	0.236	-0.169
-391.077	-59.865	-0.212	-0.090
-390.063	-123.389	0.260	-0.041
-389.048	-46.864	-0.305	0.149
-388.033	800.000	-0.018	0.076
-387.019	-121.131	-0.134	0.022
-386.004	31.659	-0.266	0.228
-384.990	-160.757	-0.209	0.011
-383.975	104.353	0.129	-0.151
-382.960	629.096	-0.072	-0.180
-381.946	-130.765	0.073	-0.010
-380.931	-84.646	-0.111	-0.035
-379.917	306.240	0.090	0.167
-378.902	-200.000	0.022	-0.098
-377.888	-200.000	-0.051	0.247
-376.873	800.000	-0.094	0.387
-375.858	144.231	0.116	0.155
-374.844	800.000	-0.009	-0.035
-373.829	-60.963	-0.242	-0.102
-372.815	-25.742	0.111	-0.065
-371.800	800.000	-0.022	-0.085
-370.785	-200.000	-0.017	0.114
-369.771	-60.072	0.226	-0.096
-368.756	-44.007	-0.214	0.107
-367.742	268.796	0.126	0.221
-366.727	800.000	-0.080	-0.242
-365.712	300.553	0.059	-0.109
-364.698	171.743	0.255	-0.366
-363.683	-200.000	0.002	-0.157
-362.669	81.954	0.057	0.061
-361.654	-57.955	-0.150	0.065
-360.639	-200.000	-0.002	0.039
-359.625	-200.000	-0.007	0.060
-358.610	-145.916	-0.182	0.016
-357.596	800.000	-0.028	0.078
-356.581	-200.000	0.013	-0.088
-355.566	-50.822	-0.290	-0.136
-354.552	-4.059	0.152	0.105
-353.537	288.877	-0.075	-0.135
-352.523	-145.753	-0.130	0.012
-351.508	-173.307	0.058	0.002
-350.493	-59.467	0.314	0.135
-349.479	-156.723	0.089	0.005
-348.464	-200.000	-0.004	0.116
-347.450	12.295	-0.103	-0.079
-346.435	800.000	0.115	0.359
-345.420	-200.000	0.036	0.296
-344.406	800.000	-0.103	0.354
-343.391	800.000	-0.026	-0.099
-342.377	800.000	0.116	-0.338
-341.362	-33.298	0.184	-0.102
-340.348	-102.030	0.263	0.063
-339.333	-200.000	0.032	0.152
-338.318	57.103	-0.047	0.045
-337.304	-50.675	-0.098	-0.046
-336.289	-30.314	-0.136	-0.077
-335.275	-10.505	0.229	-0.151
-334.260	-14.374	0.487	-0.312
-333.245	-124.635	-0.201	0.031
-332.231	-27.484	-0.225	-0.130
-331.216	-175.883	-0.233	0.006
-330.202	443.121	0.108	0.236
-329.187	-82.617	0.454	0.146
-328.172	-28.052	0.096	-0.055
-327.158	800.000	0.135	0.413
-326.143	-4.468	0.256	0.176
-325.129	-115.296	-0.029	0.005
-324.114	291.958	0.148	-0.268
-323.099	151.450	0.247	0.334
-322.085	-44.721	-0.119	0.059
-321.070	-200.000	-0.006	-0.044
-320.056	34.018	-0.082	0.071
-319.041	310.274	-0.218	0.405
-318.026	-89.693	-0.190	0.055
-317.012	176.745	0.222	0.321
-315.997	-20.421	0.343	-0.210
-314.983	-73.505	0.107	0.039
-313.968	-36.103	-0.330	0.177
-312.953	9.191	0.068	-0.051
-311.939	800.000	-0.008	-0.032
-310.924	-172.818	-0.348	0.011
-309.910	278.341	-0.177	0.314
-308.895	531.622	0.118	0.279
-307.880	800.000	0.038	0.123
-306.866	-200.000	0.026	-0.121
-305.851	-124.015	0.221	0.034
-304.837	-200.000	-0.034	0.181
-303.822	50.483	0.170	0.159
-302.807	0.003	-0.086	0.061
-301.793	60.220	-0.072	0.071
-300.778	70.858	-0.127	0.130
-299.764	800.000	-0.020	-0.081
-298.749	28.107	-0.076	-0.064
-297.735	-113.564	-0.274	-0.053
-296.720	385.275	0.069	0.142
-295.705	167.760	-0.285	0.403
-294.691	-200.000	0.003	0.244
-293.676	84.911	-0.073	0.079
-292.662	-20.293	-0.326	-0.199
-291.647	-200.000	-0.091	0.418
-290.632	63.435	0.300	0.299
-289.618	-26.811	-0.238	0.138
-288.603	-200.000	-0.006	-0.109
-287.589	296.447	-0.039	0.071
-286.574	-200.000	0.018	0.231
-285.559	153.531	-0.154	-0.209
-284.545	-200.000	0.014	-0.273
-283.530	-25.043	-0.203	-0.120
-282.516	157.814	-0.109	-0.151
-281.501	318.289	-0.085	0.159
-280.486	-116.557	0.351	0.064
-279.472	-50.298	0.410	0.193
-278.457	-47.399	-0.453	-0.219
-277.443	-20.616	0.281	0.171
-276.428	-82.040	0.318	0.103
-275.413	-200.000	-0.010	0.064
-274.399	-8.315	-0.406	0.272
-273.384	-200.000	0.055	-0.449
-272.370	-151.449	-0.169	-0.012
-271.355	-200.000	0.064	-0.391
-270.340	-94.223	-0.234	-0.064
-269.326	-200.000	0.021	0.120
-268.311	800.000	0.051	-0.211
-267.297	-27.757	-0.295	-0.170
-266.282	-5.843	-0.096	-0.066
-265.267	72.403	0.045	0.047
-264.253	108.103	0.135	0.159
-263.238	68.147	-0.328	0.333
-262.224	42.497	0.190	-0.171
-261.209	110.170	0.044	0.053
-260.195	756.523	0.049	0.132
-259.180	-116.544	0.103	-0.019
-258.165	652.686	-0.097	-0.247
-257.151	-59.259	-0.157	-0.067
-256.136	800.000	-0.065	-0.222
-255.122	-114.243	-0.039	-0.007
-254.107	98.699	0.159	-0.182
-253.092	79.779	0.098	0.105
-252.078	-200.000	0.038	-0.236
-251.063	-200.000	0.001	-0.020
-250.049	21.916	0.152	0.123
-249.034	2.793	-0.187	0.135
-248.019	-159.483	-0.180	-0.010
-247.005	-161.682	-0.292	0.015
-245.990	78.580	0.134	0.142
-244.976	138.190	0.163	0.212
-243.961	-90.744	0.225	-0.064
-242.946	106.121	0.041	0.048
-241.932	13.415	-0.040	-0.031
-240.917	-144.858	-0.206	-0.019
-239.903	800.000	-0.060	0.253
-238.888	686.005	-0.026	0.068
-237.873	18.446	-0.150	-0.119
-236.859	-148.352	0.296	0.024
-235.844	423.948	0.037	0.079
-234.830	-119.352	-0.226	-0.039
-233.815	-200.000	-0.012	-0.084
-232.800	-48.565	-0.256	-0.122
-231.786	-56.475	-0.272	0.120
-230.771	75.196	-0.268	0.280
-229.757	-98.947	0.263	-0.066
-228.742	800.000	0.067	0.199
-227.727	-200.000	-0.034	0.239
-226.713	-85.387	0.157	-0.049
-225.698	-48.452	0.356	0.170
-224.684	-200.000	-0.009	-0.198
-223.669	-108.170	-0.135	0.029
-222.655	765.002	0.194	-0.523
-221.640	-149.412	-0.108	-0.008
-220.625	82.714	-0.280	0.301
-219.611	-200.000	0.014	-0.198
-218.596	28.080	-0.371	-0.310
-217.582	49.359	0.194	-0.181
-216.567	251.238	0.124	0.208
-215.552	58.632	-0.090	-0.088
-214.538	-114.414	0.081	0.015
-213.523	233.105	0.144	-0.234
-212.509	146.379	-0.022	-0.029
-211.494	469.038	-0.095	-0.212
-210.479	-48.204	0.373	-0.178
-209.465	-29.298	-0.022	-0.012
-208.450	-127.199	-0.302	-0.044
-207.436	52.737	-0.227	0.215
-206.421	105.756	-0.037	-0.043
-205.406	-200.000	-0.008	-0.041
-204.392	-182.247	-0.356	-0.007
-203.377	467.656	0.077	-0.171
-202.363	-200.000	0.015	0.163
-201.348	86.533	0.177	-0.193
-200.333	800.000	-0.009	0.035
-199.319	-200.000	-0.005	0.153
-198.304	-10.544	0.534	0.350
-197.290	5.910	-0.098	-0.072
-196.275	-200.000	-0.017	-0.112
-195.260	363.266	-0.169	0.336
-194.246	326.843	0.106	0.201
-193.231	127.355	0.227	-0.285
-192.217	-130.795	-0.359	-0.048
-191.202	-140.683	0.411	0.042
-190.187	-32.365	0.134	0.074
-189.173	-22.266	0.111	0.066
-188.158	-92.576	0.560	-0.155
-187.144	3.932	-0.388	-0.281
-186.129	800.000	0.122	-0.429
-185.114	300.989	0.026	0.047
-184.100	64.241	-0.122	0.122
-183.085	-200.000	0.019	-0.463
-182.071	-200.000	-0.052	-0.280
-181.056	-112.711	-0.069	-0.014
-180.042	800.000	0.056	-0.172
-179.027	-176.656	0.332	0.008
-178.012	155.406	0.067	-0.091
-176.998	-98.263	-0.298	0.076
-175.983	-200.000	0.074	-0.331
-174.969	-33.797	-0.190	-0.104
-173.954	498.888	0.049	0.112
-172.939	18.816	0.146	-0.116
-171.925	800.000	0.021	-0.069
-170.910	-79.699	-0.107	-0.036
-169.896	-200.000	0.049	0.271
-168.881	-111.055	-0.085	-0.017
-167.866	-44.669	-0.162	0.080
-166.852	-200.000	-0.017	0.085
-165.837	2.533	0.199	0.143
-164.823	44.755	0.130	0.119
-163.808	800.000	0.084	0.261
-162.793	136.821	-0.193	-0.249
-161.779	-39.538	0.231	-0.120
-160.764	-109.639	0.224	0.047
-159.750	-41.853	-0.220	0.112
-158.735	-200.000	0.035	-0.197
-157.720	-7.210	0.119	0.080
-156.706	65.554	0.096	0.096
-155.691	221.995	-0.063	0.099
-154.677	-200.000	-0.033	-0.314
-153.662	756.992	0.035	0.092
-152.647	-7.417	-0.118	0.079
-151.633	-77.931	-0.040	-0.014
-150.618	-59.137	-0.280	-0.119
-149.604	396.269	0.153	-0.315
-148.589	213.697	-0.068	0.107
-147.574	694.927	-0.046	-0.118
-146.560	44.719	0.097	0.088
-145.545	-200.000	-0.010	0.074
-144.531	-180.424	-0.165	0.003
-143.516	-68.678	0.229	-0.088
-142.502	-115.375	0.356	0.066
-141.487	-200.000	0.012	-0.091
-140.472	-200.000	-0.011	0.233
-139.458	141.014	-0.195	0.254
-138.443	398.466	-0.085	-0.177
-137.429	31.296	-0.176	-0.149
-136.414	-200.000	0.087	-0.404
-135.399	202.690	0.186	-0.283
-134.385	-130.920	0.517	-0.068
-133.370	494.365	0.100	0.227
-132.356	-54.295	0.173	-0.078
-131.341	-104.902	0.112	0.025
-130.326	-200.000	-0.006	-0.243
-129.312	261.009	0.256	0.438
-128.297	57.219	-0.170	0.163
-127.283	104.012	-0.284	0.330
-126.268	-44.686	-0.211	0.104
-125.253	466.875	0.074	0.164
-124.239	184.556	0.202	0.296
-123.224	-157.825	-0.241	-0.014
-122.210	326.852	0.088	-0.167
-121.195	-102.424	0.092	-0.022
-120.180	800.000	0.083	-0.237
-119.166	94.002	-0.080	-0.090
-118.151	-95.539	0.226	0.060
-117.137	-186.842	-0.362	0.005
-116.122	106.357	-0.208	0.243
-115.107	800.000	-0.068	0.191
-114.093	-69.909	0.150	0.056
-113.078	9.571	0.216	0.162
-112.064	800.000	-0.077	0.283
-111.049	800.000	0.077	-0.254
-110.034	800.000	0.096	-0.336
-109.020	240.368	-0.080	-0.131
-108.005	-125.770	-0.134	-0.020
-106.991	-46.732	0.117	0.056
-105.976	11.869	0.210	-0.159
-104.962	151.525	0.079	-0.107
-103.947	800.000	0.015	-0.046
-102.932	-200.000	-0.045	0.234
-101.918	800.000	0.089	-0.287
-100.903	-72.672	-0.132	-0.048
-99.889	-72.673	-0.052	0.019
-98.874	121.361	0.105	0.129
-97.859	602.398	-0.046	0.112
-96.845	-78.959	-0.113	0.038
-95.830	-67.435	-0.161	0.062
-94.816	767.486	0.081	0.216
-93.801	-200.000	0.013	0.411
-92.786	800.000	-0.007	0.029
-91.772	-73.640	0.194	-0.070
-90.757	-102.702	0.172	0.040
-89.743	-29.115	0.315	0.178
-88.728	800.000	0.085	0.251
-87.713	130.533	0.087	0.110
-86.699	95.014	0.038	0.043
-85.684	587.804	0.078	0.190
-84.670	96.278	-0.063	0.071
-83.655	-200.000	-0.001	-0.213
-82.640	322.322	0.063	0.119
-81.626	135.326	0.124	-0.159
-80.611	-200.000	-0.021	0.111
-79.597	14.214	-0.183	-0.141
-78.582	4.425	0.145	-0.105
-77.567	-110.779	0.262	0.053
-76.553	-86.240	-0.486	-0.148
-75.538	-73.359	0.260	-0.094
-74.524	-131.181	-0.150	0.020
-73.509	-200.000	-0.006	-0.157
-72.494	-87.121	-0.120	-0.036
-71.480	-48.797	-0.310	-0.147
-70.465	-200.000	0.038	0.347
-69.451	800.000	-0.018	0.064
-68.436	800.000	-0.032	0.120
-67.422	-76.353	0.285	-0.099
-66.407	-54.266	0.194	-0.087
-65.392	575.979	0.064	-0.153
-64.378	38.227	0.115	0.101
-63.363	-200.000	0.014	0.072
-62.349	27.018	-0.046	-0.038
-61.334	104.273	-0.917	-1.062
-60.319	96.595	0.697	0.786
-59.305	800.000	-0.340	-1.201
-58.290	349.198	0.597	1.161
-57.276	569.719	0.715	1.713
-56.261	-200.000	115.077	659.623
-55.246	529.139	1534.245	3565.742
-54.232	171.883	2716.180	3842.063
-53.217	99.408	2336.609	2660.553
-52.203	33.544	2079.287	1778.523
-51.188	28.599	1992.765	1659.845
-50.173	27.254	1975.972	1633.719
-49.159	45.958	2036.365	1854.748
-48.144	44.467	2050.934	1854.351
-47.130	29.205	2009.161	1678.763
-46.115	26.929	1998.677	1649.282
-45.100	26.908	1995.553	1646.448
-44.086	26.739	1993.542	1643.187
-43.071	26.777	1991.049	1641.408
-42.057	26.778	1988.942	1639.618
-41.042	26.705	1986.950	1637.252
-40.027	26.716	1985.365	1635.984
-39.013	26.815	1983.332	1635.135
-37.998	26.716	1981.745	1632.864
-36.984	26.704	1980.060	1631.305
-35.969	26.806	1977.550	1630.095
-34.954	26.734	1976.280	1628.333
-33.940	26.729	1974.806	1627.009
-32.925	26.842	1972.996	1626.468
-31.911	26.930	1971.070	1625.607
-30.896	26.855	1969.025	1623.183
-29.881	26.850	1968.015	1622.236
-28.867	26.953	1966.119	1621.531
-27.852	26.929	1964.619	1620.015
-26.838	26.972	1962.429	1618.530
-25.823	27.000	1960.972	1617.509
-24.809	26.930	1959.099	1615.281
-23.794	26.951	1957.039	1613.703
-22.779	26.853	1955.735	1611.697
-21.765	26.812	1954.229	1610.029
-20.750	26.932	1952.455	1609.560
-19.736	26.957	1950.583	1608.181
-18.721	26.976	1949.071	1607.034
-17.706	26.878	1947.643	1604.933
-16.692	26.901	1946.021	1603.728
-15.677	26.912	1944.809	1602.765
-14.663	26.934	1942.937	1601.350
-13.648	26.885	1942.030	1600.114
-12.633	26.894	1940.831	1599.140
-11.619	26.858	1938.943	1597.201
-10.604	26.906	1937.935	1596.730
-9.590	26.946	1936.140	1595.541
-8.575	26.825	1935.157	1593.602
-7.560	26.922	1933.860	1593.323
-6.546	26.955	1931.952	1591.975
-5.531	26.935	1931.253	1591.163
-4.517	26.871	1930.382	1589.823
-3.502	26.886	1928.902	1588.671
-2.487	26.860	1927.677	1587.373
-1.473	26.959	1926.400	1587.127
-0.458	26.991	1921.917	1583.645
0.556	29.186	1902.071	1558.088
1.571	25.141	1884.552	1509.621
2.586	21.318	1908.486	1495.995
3.600	20.446	1943.837	1515.965
4.615	19.822	1936.618	1504.777
5.629	15.646	1835.456	1391.545
6.644	8.207	1721.409	1247.010
7.659	4.514	1687.186	1193.773
8.673	4.176	1684.608	1189.248
9.688	4.158	1683.933	1188.528
10.702	4.335	1682.066	1188.464
11.717	4.312	1678.408	1185.600
12.731	4.693	1678.074	1188.167
13.746	9.839	1690.109	1236.081
14.761	17.860	1707.030	1310.160
15.775	21.948	1714.375	1347.136
16.790	22.452	1714.185	1350.736
17.804	21.668	1711.440	1342.442
18.819	20.698	1707.711	1331.981
19.834	20.081	1705.395	1325.340
20.848	19.964	1704.734	1323.812
21.863	19.903	1703.731	1322.449
22.877	19.815	1702.115	1320.403
23.892	19.613	1701.103	1317.962
24.907	19.489	1699.817	1315.902
25.921	19.451	1698.971	1314.846
26.936	19.473	1697.508	1313.764
27.950	19.369	1696.998	1312.463
28.965	19.549	1696.164	1313.066
29.980	19.572	1695.707	1312.770
30.994	19.594	1694.998	1312.272
32.009	19.879	1693.782	1313.380
33.023	19.878	1693.280	1312.866
34.038	19.990	1691.800	1312.455
35.053	19.904	1690.597	1310.756
36.067	19.745	1689.209	1308.358
37.082	19.655	1688.320	1306.871
38.096	19.588	1687.687	1305.758
39.111	19.757	1686.642	1306.110
40.126	19.806	1685.997	1305.867
41.140	19.661	1685.205	1304.045
42.155	19.526	1682.988	1301.199
43.169	19.306	1681.263	1298.089
44.184	19.177	1680.335	1296.285
45.199	19.113	1678.732	1294.455
46.213	19.080	1678.758	1294.117
47.228	19.227	1677.179	1293.884
48.242	19.423	1676.006	1294.337
49.257	19.557	1675.514	1294.844
50.271	19.660	1674.243	1294.522
51.286	19.525	1672.976	1292.419
52.301	19.569	1671.514	1291.504
53.315	19.548	1670.266	1290.265
54.330	19.468	1668.790	1288.415
55.344	19.382	1666.685	1286.033
56.359	19.243	1665.053	1283.624
57.374	19.191	1664.369	1282.600
58.388	19.225	1663.408	1281.996
59.403	19.214	1662.082	1280.780
60.417	19.136	1660.487	1278.861
61.432	19.118	1659.099	1277.540
62.447	19.073	1658.165	1276.380
63.461	18.937	1657.085	1274.420
64.476	18.892	1656.233	1273.325
65.490	18.825	1655.053	1271.808
66.505	18.899	1653.505	1271.052
67.520	18.950	1652.561	1270.592
68.534	18.896	1651.183	1269.020
69.549	18.857	1650.850	1268.367
70.563	18.933	1649.592	1267.845
71.578	18.884	1647.953	1266.115
72.593	18.791	1646.721	1264.372
73.607	18.712	1645.655	1262.861
74.622	18.605	1644.907	1261.386
75.636	18.640	1643.851	1260.723
76.651	18.651	1643.068	1260.091
77.666	18.740	1642.081	1259.874
78.680	18.825	1641.213	1259.718
79.695	18.822	1640.825	1259.289
80.709	19.000	1639.450	1259.428
81.724	19.073	1639.082	1259.565
82.739	19.191	1638.184	1259.624
83.753	19.237	1637.947	1259.673
84.768	19.447	1636.639	1260.089
85.782	19.567	1636.272	1260.569
86.797	19.709	1635.679	1261.037
87.812	19.769	1635.019	1260.857
88.826	19.692	1633.628	1259.106
89.841	19.530	1632.706	1257.107
90.855	19.641	1630.910	1256.422
91.870	19.727	1630.068	1256.289
92.884	19.787	1629.835	1256.431
93.899	19.852	1628.458	1255.732
94.914	19.827	1626.832	1254.184
95.928	19.859	1626.031	1253.685
96.943	19.894	1624.578	1252.711
97.957	19.835	1623.351	1251.222
98.972	19.698	1621.837	1248.955
99.987	19.730	1620.039	1247.691
101.001	19.683	1618.960	1246.416
102.016	19.775	1616.884	1245.364
103.030	19.700	1616.180	1244.177
104.045	19.665	1615.051	1242.941
105.060	19.690	1613.476	1241.800
106.074	19.625	1611.994	1240.084
107.089	19.417	1609.818	1236.813
108.103	19.113	1607.878	1233.035
109.118	18.941	1605.951	1230.219
110.133	18.839	1605.085	1228.715
111.147	18.923	1603.334	1227.862
112.162	18.964	1602.323	1227.275
113.176	19.041	1601.304	1226.934
114.191	18.979	1600.135	1225.487
115.206	19.037	1598.826	1224.788
116.220	19.057	1597.244	1223.611
117.235	19.174	1595.647	1223.112
118.249	19.021	1595.022	1221.440
119.264	18.951	1593.230	1219.461
120.279	18.945	1592.132	1218.472
121.293	18.801	1590.655	1216.214
122.308	18.879	1588.735	1215.187
123.322	18.820	1587.187	1213.483
124.337	18.671	1585.571	1211.086
125.352	18.650	1584.292	1209.855
126.366	18.647	1582.764	1208.558
127.381	18.685	1581.996	1208.134
128.395	18.674	1581.143	1207.299
129.410	18.604	1579.460	1205.415
130.424	18.672	1577.711	1204.450
131.439	18.720	1576.791	1203.978
132.454	18.785	1576.221	1203.891
133.468	18.915	1574.542	1203.409
134.483	19.059	1573.115	1203.220
135.497	19.123	1571.449	1202.288
136.512	19.080	1570.348	1201.043
137.527	19.076	1569.418	1200.193
138.541	19.153	1567.995	1199.533
139.556	19.120	1566.906	1198.370
140.570	19.212	1565.700	1197.978
141.585	19.319	1564.801	1197.930
142.600	19.402	1563.770	1197.608
143.614	19.538	1562.304	1197.323
144.629	19.722	1561.127	1197.593
145.643	19.721	1560.304	1196.847
146.658	19.676	1559.243	1195.615
147.673	19.599	1557.284	1193.477
148.687	19.522	1555.520	1191.485
149.702	19.326	1554.038	1188.895
150.716	19.216	1552.185	1186.613
151.731	19.258	1550.800	1185.742
152.746	19.107	1549.918	1183.923
153.760	19.242	1547.528	1182.916
154.775	19.307	1546.744	1182.659
155.789	19.273	1546.280	1181.969
156.804	19.414	1544.475	1181.453
157.819	19.415	1543.552	1180.649
158.833	19.460	1542.303	1179.894
159.848	19.596	1541.792	1180.327
160.862	19.641	1540.647	1179.657
161.877	19.855	1539.267	1179.952
162.892	19.592	1537.872	1176.985
163.906	19.269	1536.464	1173.608
164.921	19.187	1534.467	1171.422
165.935	19.058	1533.919	1170.022
166.950	19.199	1532.665	1169.919
167.964	19.262	1532.096	1169.805
168.979	19.406	1530.820	1169.704
169.994	19.426	1529.996	1169.111
171.008	19.405	1528.236	1167.516
172.023	19.352	1526.827	1165.981
173.037	19.328	1526.298	1165.313
174.052	19.504	1525.254	1165.599
175.067	19.552	1525.025	1165.644
176.081	19.444	1523.169	1163.397
177.096	19.247	1521.283	1160.526
178.110	19.145	1520.051	1158.795
179.125	19.127	1518.854	1157.658
180.140	19.217	1518.122	1157.606
181.154	19.427	1516.639	1157.783
182.169	19.526	1516.188	1157.997
183.183	19.558	1514.801	1157.050
184.198	19.724	1514.153	1157.563
185.213	19.780	1512.846	1156.836
186.227	19.705	1512.208	1155.746
187.242	19.751	1511.695	1155.562
188.256	19.807	1510.644	1155.026
189.271	19.871	1509.463	1154.453
190.286	19.960	1508.786	1154.425
191.300	19.854	1507.325	1152.496
192.315	19.480	1505.449	1148.471
193.329	19.191	1503.888	1145.259
194.344	19.109	1503.243	1144.121
195.359	19.176	1502.337	1143.773
196.373	19.272	1501.406	1143.605
197.388	19.415	1500.202	1143.536
198.402	19.521	1498.868	1143.113
199.417	19.633	1498.633	1143.578
200.432	19.823	1498.026	1144.273
201.446	20.019	1497.140	1144.785
202.461	20.160	1496.288	1144.964
203.475	20.282	1495.184	1144.826
204.490	20.286	1493.950	1143.805
205.504	20.089	1492.686	1141.437
206.519	19.847	1491.754	1139.031
207.534	19.755	1490.047	1137.024
208.548	19.706	1489.082	1135.863
209.563	19.632	1488.297	1134.676
210.577	19.767	1487.173	1134.605
211.592	19.732	1486.084	1133.445
212.607	19.842	1485.156	1133.358
213.621	20.011	1484.962	1134.218
214.636	20.058	1484.308	1133.926
215.650	20.003	1483.011	1132.476
216.665	20.022	1482.023	1131.746
217.680	20.094	1481.247	1131.522
218.694	20.198	1480.864	1131.808
219.709	20.352	1480.053	1132.089
220.723	20.257	1479.491	1130.941
221.738	20.165	1478.275	1129.315
222.753	20.147	1477.289	1128.345
223.767	20.130	1476.034	1127.178
224.782	20.145	1474.599	1126.077
225.796	20.128	1474.507	1125.799
226.811	20.300	1473.667	1126.171
227.826	20.319	1473.038	1125.713
228.840	20.182	1471.981	1123.918
229.855	20.120	1470.585	1122.355
230.869	20.086	1469.827	1121.452
231.884	20.036	1468.591	1120.087
232.899	19.965	1467.251	1118.509
233.913	19.906	1466.063	1117.126
234.928	19.780	1464.846	1115.287
235.942	19.746	1463.787	1114.160
236.957	19.739	1462.519	1113.050
237.972	19.694	1461.397	1111.808
238.986	19.741	1460.282	1111.167
240.001	19.683	1459.704	1110.257
241.015	19.754	1458.460	1109.664
242.030	19.795	1457.155	1108.835
243.045	19.877	1456.123	1108.478
244.059	20.052	1455.446	1108.988
245.074	20.173	1454.551	1108.978
246.088	20.157	1454.354	1108.630
247.103	20.198	1453.445	1108.098
248.117	20.227	1452.794	1107.692
249.132	20.348	1452.281	1107.975
250.147	20.492	1452.012	1108.592
251.161	20.827	1450.906	1109.784
252.176	20.950	1451.159	1110.661
253.190	21.083	1449.919	1110.462
254.205	21.004	1449.560	1109.585
255.220	21.216	1448.679	1110.161
256.234	21.208	1447.809	1109.344
257.249	21.215	1446.793	1108.516
258.263	21.195	1446.134	1107.785
259.278	21.044	1445.577	1106.302
260.293	20.929	1444.925	1104.978
261.307	21.135	1443.256	1104.903
262.322	21.233	1442.636	1104.953
263.336	21.232	1442.108	1104.443
264.351	21.300	1441.059	1103.974
265.366	21.318	1440.049	1103.218
266.380	21.285	1439.266	1102.309
267.395	21.298	1438.477	1101.688
268.409	21.230	1437.283	1100.249
269.424	21.076	1435.955	1098.168
270.439	21.082	1434.785	1097.214
271.453	21.013	1433.959	1096.048
272.468	21.018	1433.059	1095.294
273.482	21.027	1432.051	1094.485
274.497	20.801	1431.168	1092.293
275.512	20.773	1430.388	1091.426
276.526	20.799	1429.742	1091.001
277.541	20.817	1428.412	1090.006
278.555	20.847	1427.702	1089.550
279.570	20.873	1426.987	1089.072
280.585	21.003	1425.978	1089.019
281.599	21.226	1425.551	1089.987
282.614	21.291	1424.736	1089.671
283.628	21.142	1423.282	1087.534
284.643	21.019	1421.818	1085.559
285.657	20.934	1420.749	1084.112
286.672	21.020	1419.936	1083.936
287.687	21.006	1418.844	1082.917
288.701	20.965	1417.486	1081.528
289.716	20.978	1417.102	1081.219
290.730	21.032	1416.530	1081.028
291.745	21.062	1415.311	1080.182
292.760	21.052	1414.775	1079.616
293.774	21.066	1413.640	1078.745
294.789	21.260	1412.253	1078.790
295.803	21.246	1412.324	1078.658
296.818	21.296	1411.424	1078.184
297.833	21.291	1410.000	1076.970
298.847	21.054	1408.745	1074.459
299.862	21.112	1407.961	1074.122
300.876	21.054	1407.221	1073.105
301.891	21.144	1405.815	1072.493
302.906	21.138	1405.756	1072.316
303.920	21.287	1404.875	1072.464
304.935	21.456	1404.302	1072.966
305.949	21.545	1403.714	1072.971
306.964	21.638	1403.070	1072.950
307.979	21.690	1402.562	1072.788
308.993	21.650	1400.874	1071.156
310.008	21.514	1400.034	1069.586
311.022	21.474	1399.095	1068.533
312.037	21.585	1398.019	1068.289
313.052	21.652	1397.331	1068.079
314.066	21.481	1396.315	1066.168
315.081	21.303	1394.799	1063.829
316.095	21.228	1393.107	1061.993
317.110	21.083	1392.617	1060.643
318.125	21.014	1391.440	1059.235
319.139	21.088	1390.579	1058.931
320.154	21.003	1389.950	1057.842
321.168	21.107	1388.372	1057.178
322.183	21.141	1387.370	1056.530
323.197	21.106	1386.682	1055.703
324.212	21.236	1385.890	1055.787
325.227	21.209	1385.237	1055.035
326.241	21.242	1384.194	1054.346
327.256	21.358	1383.261	1054.245
328.270	21.253	1382.177	1052.692
329.285	21.187	1381.952	1052.027
330.300	21.156	1380.833	1050.897
331.314	21.273	1379.630	1050.591
332.329	21.180	1378.816	1049.318
333.343	21.213	1377.884	1048.715
334.358	21.248	1377.049	1048.201
335.373	21.375	1376.682	1048.590
336.387	21.560	1375.887	1048.999
337.402	21.574	1375.108	1048.394
338.416	21.589	1374.459	1047.896
339.431	21.688	1373.937	1047.999
340.446	21.751	1372.895	1047.491
341.460	21.697	1372.496	1046.769
342.475	21.817	1371.954	1046.978
343.489	22.029	1370.684	1047.181
344.504	22.099	1370.087	1047.051
345.519	22.081	1369.528	1046.425
346.533	22.163	1368.160	1045.774
347.548	22.158	1367.525	1045.164
348.562	22.254	1366.699	1045.015
349.577	22.269	1365.978	1044.460
350.592	22.107	1364.641	1042.380
351.606	21.753	1363.848	1039.587
352.621	21.702	1362.307	1038.016
353.635	21.592	1361.183	1036.415
354.650	21.542	1360.159	1035.248
355.665	21.534	1359.159	1034.348
356.679	21.637	1358.042	1034.017
357.694	21.674	1356.977	1033.333
358.708	21.795	1356.289	1033.429
359.723	21.794	1355.141	1032.459
360.738	21.911	1354.119	1032.279
361.752	21.856	1353.617	1031.479
362.767	21.839	1352.233	1030.231
363.781	21.931	1351.202	1029.898
364.796	21.854	1350.635	1028.919
365.810	21.995	1349.937	1029.127
366.825	22.141	1349.604	1029.636
367.840	22.297	1349.066	1030.047
368.854	22.364	1348.236	1029.717
369.869	22.402	1348.030	1029.690
370.883	22.595	1346.851	1029.826
371.898	22.438	1346.056	1028.209
372.913	22.309	1345.234	1026.736
373.927	22.260	1344.550	1025.841
374.942	22.344	1343.250	1025.244
375.956	22.414	1342.736	1025.173
376.971	22.443	1342.126	1024.780
377.986	22.344	1341.249	1023.446
379.000	22.420	1340.363	1023.122
380.015	22.592	1339.484	1023.357
381.029	22.488	1339.389	1022.593
382.044	22.728	1338.380	1023.123
383.059	22.735	1337.716	1022.567
384.073	22.657	1337.029	1021.497
385.088	22.635	1336.339	1020.754
386.102	22.636	1335.776	1020.238
387.117	22.750	1334.551	1019.874
388.132	22.621	1333.680	1018.370
389.146	22.340	1332.969	1016.113
390.161	22.266	1331.794	1014.703
391.175	22.232	1330.774	1013.642
392.190	22.191	1330.281	1012.938
393.205	22.305	1329.416	1012.846
394.219	22.421	1328.883	1013.019
395.234	22.589	1327.698	1012.992
396.248	22.561	1325.924	1011.388
397.263	22.406	1324.710	1009.485
398.278	22.366	1323.693	1008.388
399.292	22.232	1322.216	1006.409
400.307	22.230	1320.817	1005.240
401.321	22.073	1319.673	1003.384
402.336	22.084	1318.822	1002.711
403.350	22.146	1317.398	1001.895
404.365	22.102	1316.728	1001.046
405.380	22.072	1316.109	1000.314
406.394	22.136	1315.230	999.925
407.409	22.360	1314.538	1000.583
408.423	22.418	1314.472	1000.774
409.438	22.617	1313.692	1001.222
410.453	22.702	1313.099	1001.164
411.467	22.748	1312.555	1000.920
412.482	22.847	1311.859	1000.866
413.496	22.895	1311.232	1000.567
414.511	22.970	1310.595	1000.419
415.526	22.997	1309.709	999.804
416.540	23.112	1309.471	1000.186
417.555	23.145	1308.413	999.478
418.569	23.183	1307.929	999.234
419.584	23.142	1307.525	998.602
420.599	23.019	1306.156	996.775
421.613	147.131	1434.501	1795.324
422.628	142.624	1453.177	1795.411
