DTS Sentinel unit serial number:	SN413079Multiplexer serial number:	ORYXHardware model number:	OX4-SRSoftware version number:	ORYX F/W v4.00 Oryx Data Collector v3.7.2.0data status	okinstallation	princeton_trtdifferential loss correction	single-endedforward channel	channel 4reverse channel	N/Adate	2019/09/11time	19:03:11forward acquisition time	60.00reverse acquisition time	0.00gamma	496.2192k internal	0.2286k external	0.2286temperature offset calibration	1.0036default loss term (dB/km)	0.3790temperature slope calibration	1.0000multiplexer offset coefficient	1.0000multiplexer slope coefficient	1.0000fibre end	0.00T internal ref (°C)	42.11T ext. ref 1 (°C)	1.29T ext. ref 2 (°C)	34.38length (m)	temperature (°C)	Stokes	anti-Stokes-747.200	-77.882	0.273	0.097
-746.185	-98.475	-0.128	0.034
-745.171	800.000	0.035	0.153
-744.156	-154.510	0.218	0.015
-743.142	-108.474	0.347	0.077
-742.127	800.000	-0.097	0.354
-741.112	70.302	-0.062	0.066
-740.098	54.695	-0.224	0.221
-739.083	238.506	-0.077	0.131
-738.069	-74.693	0.164	-0.061
-737.054	51.157	-0.178	-0.174
-736.039	-200.000	-0.001	-0.101
-735.025	470.087	0.057	0.130
-734.010	141.828	-0.087	0.119
-732.996	77.262	0.112	-0.122
-731.981	800.000	-0.028	0.087
-730.966	-200.000	0.034	-0.186
-729.952	-45.367	-0.290	-0.148
-728.937	783.992	-0.028	0.078
-727.923	154.031	0.076	-0.106
-726.908	488.549	0.079	-0.186
-725.894	-123.595	-0.320	-0.052
-724.879	-200.000	-0.015	0.182
-723.864	800.000	-0.087	0.259
-722.850	800.000	0.020	-0.070
-721.835	-200.000	-0.056	-0.278
-720.821	800.000	0.081	-0.241
-719.806	-56.079	-0.430	-0.196
-718.791	208.949	0.171	-0.275
-717.777	-119.338	-0.118	-0.021
-716.762	-107.218	-0.219	-0.049
-715.748	800.000	-0.072	-0.254
-714.733	223.357	0.016	-0.027
-713.718	800.000	-0.082	-0.235
-712.704	800.000	-0.066	0.212
-711.689	86.653	-0.041	-0.046
-710.675	-45.065	0.178	0.091
-709.660	-200.000	0.001	-0.036
-708.645	-200.000	-0.008	0.064
-707.631	-53.265	0.103	-0.049
-706.616	45.478	0.133	-0.126
-705.602	-200.000	-0.001	-0.130
-704.587	101.391	0.128	0.152
-703.572	-200.000	-0.004	-0.078
-702.558	-24.900	-0.127	0.078
-701.543	-60.910	0.411	-0.178
-700.529	-165.056	-0.182	0.008
-699.514	-13.866	0.211	0.140
-698.499	-39.094	0.205	-0.111
-697.485	-200.000	0.001	0.036
-696.470	-124.555	0.181	0.029
-695.456	30.811	-0.261	0.229
-694.441	577.534	0.208	-0.521
-693.426	488.086	-0.101	-0.236
-692.412	-200.000	-0.042	0.427
-691.397	15.990	0.230	-0.185
-690.383	-75.812	-0.286	-0.104
-689.368	-51.180	0.169	0.081
-688.354	-93.677	-0.395	0.112
-687.339	-200.000	-0.000	-0.118
-686.324	297.294	0.076	-0.143
-685.310	-61.041	0.479	-0.207
-684.295	-51.165	-0.239	-0.115
-683.281	-200.000	-0.021	-0.622
-682.266	-17.197	0.195	0.126
-681.251	800.000	-0.080	0.289
-680.237	123.986	-0.185	-0.238
-679.222	583.172	0.099	-0.249
-678.208	-41.418	-0.367	-0.193
-677.193	407.803	-0.044	0.094
-676.178	94.490	0.195	-0.227
-675.164	-200.000	0.010	0.117
-674.149	-122.684	-0.089	-0.015
-673.135	-200.000	0.034	-0.201
-672.120	-102.775	-0.359	-0.088
-671.105	-200.000	-0.001	0.010
-670.091	-123.959	-0.225	0.036
-669.076	149.600	0.129	-0.179
-668.062	-200.000	-0.062	0.423
-667.047	800.000	0.047	-0.165
-666.032	452.185	-0.044	-0.100
-665.018	-200.000	0.023	0.117
-664.003	-20.107	0.225	-0.142
-662.989	-147.180	-0.168	-0.015
-661.974	-157.011	-0.061	-0.004
-660.959	-114.963	-0.276	-0.054
-659.945	85.325	0.205	-0.230
-658.930	-87.929	-0.151	0.046
-657.916	-200.000	-0.004	-0.143
-656.901	-200.000	-0.019	-0.136
-655.886	-200.000	-0.047	-0.310
-654.872	266.696	0.044	-0.078
-653.857	-7.957	-0.116	0.080
-652.843	-137.464	-0.309	0.036
-651.828	-97.033	-0.079	-0.021
-650.814	800.000	-0.042	0.166
-649.799	-200.000	0.024	-0.133
-648.784	800.000	-0.057	-0.230
-647.770	205.457	0.043	0.068
-646.755	136.616	0.221	-0.295
-645.741	24.965	-0.105	0.089
-644.726	245.554	0.135	0.233
-643.711	-69.446	0.041	0.016
-642.697	518.613	-0.049	0.118
-641.682	95.121	0.072	0.084
-640.668	-200.000	-0.025	-0.137
-639.653	64.342	0.144	-0.148
-638.638	-64.917	-0.104	-0.043
-637.624	138.982	0.125	-0.169
-636.609	354.155	0.036	0.074
-635.595	800.000	0.050	0.155
-634.580	-21.002	0.090	-0.056
-633.565	62.745	0.160	0.163
-632.551	-58.089	0.222	0.099
-631.536	158.055	-0.092	0.130
-630.522	448.052	-0.145	-0.326
-629.507	296.759	-0.158	0.296
-628.492	800.000	0.095	-0.286
-627.478	800.000	0.028	-0.104
-626.463	114.486	0.068	0.085
-625.449	167.233	-0.160	0.232
-624.434	31.734	0.200	-0.176
-623.419	-49.330	0.186	0.091
-622.405	800.000	-0.012	-0.047
-621.390	5.654	-0.391	-0.295
-620.376	356.453	-0.065	0.133
-619.361	-63.334	0.045	0.019
-618.346	800.000	-0.047	0.132
-617.332	800.000	-0.071	0.235
-616.317	790.643	-0.050	-0.142
-615.303	-69.095	0.334	0.131
-614.288	800.000	-0.032	0.125
-613.273	307.309	-0.064	0.121
-612.259	-200.000	0.012	-0.220
-611.244	229.397	-0.084	0.141
-610.230	-36.689	-0.172	-0.094
-609.215	800.000	0.040	0.140
-608.201	-170.204	-0.259	0.009
-607.186	-56.341	0.235	-0.107
-606.171	-200.000	0.029	0.155
-605.157	34.999	-0.230	-0.206
-604.142	-96.152	0.084	-0.023
-603.128	41.107	0.081	-0.074
-602.113	40.929	-0.155	0.143
-601.098	198.563	0.024	-0.038
-600.084	-150.185	-0.308	-0.024
-599.069	-200.000	-0.016	-0.454
-598.055	800.000	0.014	0.048
-597.040	50.349	0.159	0.154
-596.025	37.678	-0.329	0.298
-595.011	-33.115	-0.279	0.158
-593.996	-114.368	0.183	0.036
-592.982	800.000	-0.061	-0.200
-591.967	800.000	0.012	-0.052
-590.952	-129.148	0.340	-0.048
-589.938	-44.258	-0.122	-0.062
-588.923	-200.000	0.039	-0.386
-587.909	-72.669	0.164	-0.062
-586.894	40.593	-0.172	-0.158
-585.879	-77.957	-0.177	-0.062
-584.865	800.000	-0.081	0.300
-583.850	-200.000	0.037	0.180
-582.836	-106.460	-0.288	0.066
-581.821	800.000	-0.069	-0.208
-580.806	576.177	0.097	-0.242
-579.792	-200.000	0.025	-0.228
-578.777	-200.000	-0.014	0.146
-577.763	-39.533	0.157	-0.084
-576.748	-200.000	0.005	-0.117
-575.733	4.027	0.144	0.108
-574.719	-19.272	0.378	-0.239
-573.704	-46.030	0.090	0.045
-572.690	-94.471	-0.090	-0.025
-571.675	800.000	0.043	-0.174
-570.661	155.605	0.116	0.162
-569.646	-200.000	0.004	0.120
-568.631	155.020	-0.098	0.138
-567.617	-53.547	-0.192	0.090
-566.602	-98.251	0.198	-0.052
-565.588	24.576	-0.126	-0.106
-564.573	-200.000	-0.013	-0.203
-563.558	54.243	-0.126	-0.124
-562.544	-200.000	0.000	0.154
-561.529	11.896	0.229	-0.180
-560.515	339.191	0.088	-0.175
-559.500	-117.585	-0.086	-0.016
-558.485	-78.948	0.143	0.050
-557.471	-200.000	-0.035	0.288
-556.456	99.183	-0.064	-0.075
-555.442	265.180	0.057	-0.102
-554.427	287.690	0.166	0.307
-553.412	385.022	-0.157	-0.330
-552.398	-15.249	-0.089	-0.058
-551.383	-94.649	0.067	0.019
-550.369	-200.000	0.008	-0.184
-549.354	274.979	-0.107	0.193
-548.339	-85.545	0.352	0.111
-547.325	-154.286	-0.294	-0.020
-546.310	-200.000	0.009	-0.195
-545.296	-200.000	0.008	0.318
-544.281	-91.586	-0.323	0.094
-543.266	126.856	-0.117	-0.151
-542.252	-200.000	0.027	-0.146
-541.237	1.664	0.143	-0.105
-540.223	-149.055	-0.226	-0.019
-539.208	94.721	0.202	-0.234
-538.193	-95.624	0.378	-0.103
-537.179	460.917	-0.124	0.282
-536.164	-63.904	0.350	0.146
-535.150	800.000	-0.023	0.099
-534.135	-200.000	-0.079	0.385
-533.121	-11.027	0.065	-0.044
-532.106	337.125	0.111	-0.220
-531.091	-200.000	-0.013	0.201
-530.077	75.578	0.227	-0.244
-529.062	-96.742	-0.112	0.030
-528.048	800.000	0.055	-0.167
-527.033	-200.000	-0.015	-0.217
-526.018	-71.761	0.091	0.035
-525.004	160.794	0.056	-0.080
-523.989	43.133	-0.178	0.165
-522.975	631.861	-0.069	-0.178
-521.960	70.614	-0.138	-0.146
-520.945	27.907	0.256	-0.220
-519.931	-61.929	-0.006	-0.003
-518.916	507.756	-0.038	-0.089
-517.902	334.503	0.057	-0.112
-516.887	587.324	0.133	-0.334
-515.872	-200.000	0.073	-0.330
-514.858	-132.386	-0.297	0.039
-513.843	110.700	0.087	-0.107
-512.829	-5.470	0.087	0.061
-511.814	-35.944	0.054	-0.030
-510.799	108.387	-0.086	0.104
-509.785	761.630	-0.038	-0.104
-508.770	280.109	0.094	0.170
-507.756	-70.018	0.408	0.158
-506.741	-100.994	0.118	-0.030
-505.726	-14.124	0.094	0.062
-504.712	800.000	-0.076	0.260
-503.697	193.810	-0.266	0.410
-502.683	318.763	-0.086	-0.165
-501.668	125.377	-0.154	-0.198
-500.653	-200.000	0.049	-0.249
-499.639	227.798	-0.109	-0.180
-498.624	-200.000	0.058	0.316
-497.610	-41.617	-0.147	0.077
-496.595	-21.905	0.155	-0.096
-495.581	110.160	0.205	-0.250
-494.566	297.915	0.051	-0.095
-493.551	-51.183	-0.224	0.106
-492.537	-200.000	-0.059	0.316
-491.522	293.869	0.046	-0.085
-490.508	-200.000	0.023	0.106
-489.493	159.279	0.099	0.140
-488.478	-200.000	-0.012	-0.528
-487.464	586.505	-0.066	-0.164
-486.449	24.775	-0.406	-0.342
-485.435	-24.847	-0.113	-0.068
-484.420	-200.000	-0.010	0.076
-483.405	-92.407	0.242	-0.069
-482.391	697.747	-0.037	0.098
-481.376	185.605	0.083	-0.125
-480.362	-87.140	0.180	0.056
-479.347	-200.000	-0.012	0.100
-478.332	70.515	-0.152	0.159
-477.318	-100.761	0.421	-0.105
-476.303	-128.687	0.287	0.041
-475.289	46.132	-0.262	0.246
-474.274	800.000	-0.132	0.384
-473.259	-68.305	-0.130	-0.051
-472.245	-200.000	-0.052	-0.270
-471.230	708.667	-0.190	0.510
-470.216	-122.308	0.237	0.039
-469.201	387.954	0.060	-0.126
-468.186	800.000	-0.007	-0.026
-467.172	-200.000	-0.035	-0.229
-466.157	16.388	-0.220	0.176
-465.143	-200.000	0.000	0.077
-464.128	-35.006	0.278	0.154
-463.113	-7.085	0.103	0.071
-462.099	-123.948	0.260	-0.042
-461.084	-200.000	-0.002	0.060
-460.070	226.205	0.129	-0.212
-459.055	-72.738	-0.227	0.085
-458.040	-145.446	0.162	-0.015
-457.026	172.182	-0.074	-0.108
-456.011	-144.751	0.132	-0.012
-454.997	-103.054	0.037	-0.009
-453.982	-101.012	-0.018	0.005
-452.968	28.519	0.095	-0.082
-451.953	-32.923	-0.213	0.120
-450.938	48.110	0.076	-0.072
-449.924	126.930	0.039	0.050
-448.909	-133.301	-0.105	-0.013
-447.895	402.699	0.091	0.193
-446.880	-52.039	0.109	0.051
-445.865	206.297	0.078	0.124
-444.851	-0.268	-0.151	0.109
-443.836	116.404	-0.146	0.182
-442.822	116.541	0.095	-0.118
-441.807	-109.130	-0.124	-0.027
-440.792	-29.077	0.197	0.115
-439.778	-200.000	0.014	0.235
-438.763	800.000	0.083	-0.289
-437.749	-0.035	0.111	-0.080
-436.734	-39.014	0.335	-0.179
-435.719	800.000	-0.035	-0.114
-434.705	-200.000	-0.016	0.079
-433.690	-62.372	0.466	0.197
-432.676	-50.026	-0.186	0.090
-431.661	14.640	0.240	0.190
-430.646	354.639	-0.043	0.087
-429.632	-200.000	-0.008	-0.184
-428.617	192.714	-0.087	-0.133
-427.603	574.778	-0.072	-0.179
-426.588	125.158	-0.128	0.163
-425.573	-24.623	0.108	0.065
-424.559	800.000	0.059	-0.202
-423.544	-145.112	0.266	-0.024
-422.530	-110.921	0.360	0.075
-421.515	-29.256	-0.105	-0.061
-420.500	3.649	0.349	0.258
-419.486	-44.868	0.131	0.066
-418.471	-99.283	0.181	-0.046
-417.457	189.065	-0.093	0.141
-416.442	800.000	0.111	0.325
-415.428	237.035	-0.248	0.416
-414.413	-171.488	0.643	0.022
-413.398	-59.382	0.326	-0.142
-412.384	-200.000	0.180	0.001
-411.369	-200.000	-0.035	0.182
-410.355	339.200	0.059	0.117
-409.340	288.399	-0.059	0.108
-408.325	65.733	0.173	0.178
-407.311	-200.000	-0.021	0.253
-406.296	-122.888	0.279	0.046
-405.282	-200.000	0.018	-0.240
-404.267	-143.341	-0.093	-0.009
-403.252	-90.658	0.240	0.070
-402.238	-200.000	0.043	0.262
-401.223	800.000	0.069	0.270
-400.209	-200.000	-0.010	-0.169
-399.194	-147.580	-0.104	-0.009
-398.179	318.217	0.158	0.303
-397.165	713.032	-0.081	-0.218
-396.150	21.267	0.230	0.189
-395.136	-95.073	-0.388	0.106
-394.121	273.772	-0.175	0.314
-393.106	-126.646	-0.149	-0.022
-392.092	-32.037	0.152	0.086
-391.077	-42.444	-0.510	-0.263
-390.063	-196.715	0.200	0.001
-389.048	-127.202	0.101	-0.015
-388.033	51.997	0.137	0.132
-387.019	51.738	0.151	0.145
-386.004	-147.092	0.065	-0.006
-384.990	743.825	-0.110	0.301
-383.975	800.000	-0.038	0.136
-382.960	163.483	0.213	0.303
-381.946	-200.000	0.011	-0.133
-380.931	800.000	0.082	-0.257
-379.917	109.392	-0.130	0.157
-378.902	-188.395	-0.071	-0.001
-377.888	-50.642	-0.081	0.039
-376.873	313.699	0.134	-0.255
-375.858	-200.000	-0.016	-0.216
-374.844	-125.793	-0.098	-0.015
-373.829	109.772	0.057	0.069
-372.815	-112.267	-0.377	-0.076
-371.800	-0.132	-0.163	0.117
-370.785	-106.739	-0.199	0.045
-369.771	206.715	-0.138	-0.218
-368.756	-200.000	0.019	0.130
-367.742	45.071	-0.102	0.095
-366.727	-137.100	-0.381	-0.044
-365.712	9.262	-0.277	-0.212
-364.698	-200.000	-0.021	-0.294
-363.683	239.681	0.083	-0.140
-362.669	185.171	-0.152	-0.228
-361.654	-100.055	0.046	-0.012
-360.639	462.001	0.201	-0.453
-359.625	10.074	-0.198	0.152
-358.610	-163.573	0.362	0.017
-357.596	-200.000	-0.016	-0.072
-356.581	146.220	-0.139	0.188
-355.566	660.146	0.081	-0.212
-354.552	519.263	0.158	-0.374
-353.537	27.268	-0.120	-0.102
-352.523	15.753	-0.426	-0.339
-351.508	258.793	-0.134	0.234
-350.493	41.281	0.227	0.207
-349.479	-109.171	-0.300	-0.064
-348.464	800.000	0.039	-0.138
-347.450	-62.081	0.092	-0.039
-346.435	-126.189	-0.417	-0.063
-345.420	-200.000	-0.001	-0.108
-344.406	459.684	-0.103	-0.232
-343.391	-10.912	-0.225	-0.150
-342.377	-50.577	-0.330	0.157
-341.362	-200.000	-0.035	-0.166
-340.348	-200.000	-0.023	-0.107
-339.333	-200.000	0.017	-0.181
-338.318	-56.950	0.182	-0.081
-337.304	-9.652	-0.181	-0.122
-336.289	310.515	-0.076	-0.143
-335.275	507.361	-0.162	-0.380
-334.260	11.177	-0.380	-0.294
-333.245	-68.170	-0.338	0.133
-332.231	-23.540	0.156	0.094
-331.216	-130.978	-0.236	0.032
-330.202	76.410	-0.200	0.214
-329.187	-26.808	0.435	-0.257
-328.172	-8.068	-0.292	-0.199
-327.158	800.000	-0.079	0.222
-326.143	109.601	0.297	0.360
-325.129	-28.260	-0.166	-0.097
-324.114	227.845	-0.103	-0.170
-323.099	-200.000	-0.043	0.190
-322.085	-200.000	-0.044	0.214
-321.070	-63.934	-0.114	-0.047
-320.056	-119.539	0.158	-0.028
-319.041	63.903	-0.304	0.308
-318.026	800.000	0.108	0.419
-317.012	76.796	0.170	-0.182
-315.997	-35.268	0.357	-0.196
-314.983	-164.442	-0.065	0.003
-313.968	16.080	0.053	0.042
-312.953	9.420	-0.174	0.133
-311.939	-118.730	0.284	-0.051
-310.924	-112.007	-0.114	-0.023
-309.910	800.000	0.040	0.129
-308.895	-12.140	-0.165	0.109
-307.880	313.425	0.112	0.213
-306.866	-64.950	-0.071	0.029
-305.851	50.455	0.174	0.166
-304.837	-133.315	-0.228	-0.029
-303.822	-200.000	0.006	0.448
-302.807	-61.119	0.338	0.144
-301.793	800.000	-0.070	0.203
-300.778	20.575	0.223	-0.182
-299.764	-91.245	0.282	-0.081
-298.749	800.000	-0.043	-0.127
-297.735	-161.022	-0.264	-0.014
-296.720	-150.823	-0.502	-0.038
-295.705	305.156	-0.020	-0.038
-294.691	277.511	-0.197	0.354
-293.676	-200.000	0.003	-0.242
-292.662	-27.766	-0.292	0.171
-291.647	564.545	-0.153	0.374
-290.632	-176.924	-0.181	0.005
-289.618	800.000	0.026	0.107
-288.603	241.607	-0.254	-0.429
-287.589	715.517	-0.087	0.232
-286.574	-22.226	-0.156	-0.096
-285.559	656.965	-0.109	0.282
-284.545	-152.605	0.288	-0.021
-283.530	-71.065	-0.067	-0.025
-282.516	-99.312	0.107	-0.027
-281.501	-113.055	-0.146	0.029
-280.486	-145.070	0.165	-0.015
-279.472	-126.364	0.159	-0.024
-278.457	251.002	-0.091	0.156
-277.443	210.568	-0.079	-0.125
-276.428	800.000	-0.048	-0.168
-275.413	-157.115	0.382	-0.023
-274.399	565.189	-0.024	-0.058
-273.384	95.081	0.197	-0.227
-272.370	8.537	-0.010	-0.008
-271.355	-200.000	0.009	-0.185
-270.340	-169.755	0.179	-0.007
-269.326	-148.976	-0.172	0.014
-268.311	64.290	-0.268	-0.272
-267.297	-6.628	-0.219	0.150
-266.282	-48.879	-0.225	0.109
-265.267	-153.346	-0.127	-0.009
-264.253	81.523	0.043	0.047
-263.238	-127.546	0.232	0.034
-262.224	-80.734	-0.149	0.050
-261.209	-46.314	0.116	-0.057
-260.195	800.000	-0.067	-0.245
-259.180	84.081	-0.295	0.325
-258.165	-51.370	0.391	0.184
-257.151	-200.000	0.031	-0.243
-256.136	124.480	0.267	-0.338
-255.122	-200.000	-0.029	-0.238
-254.107	265.590	-0.227	-0.398
-253.092	-128.745	0.102	0.015
-252.078	-200.000	0.042	-0.205
-251.063	-200.000	-0.006	-0.111
-250.049	-200.000	0.007	-0.133
-249.034	-75.257	-0.268	0.096
-248.019	-137.086	-0.312	-0.036
-247.005	129.777	0.148	0.191
-245.990	319.337	-0.222	0.424
-244.976	160.534	0.052	-0.073
-243.961	-200.000	0.051	0.434
-242.946	134.558	0.136	-0.177
-241.932	-200.000	-0.015	-0.131
-240.917	-88.759	-0.121	-0.036
-239.903	-200.000	0.064	-0.284
-238.888	-12.477	-0.206	0.135
-237.873	-111.938	0.284	0.058
-236.859	45.579	-0.385	-0.358
-235.844	-200.000	-0.059	-0.275
-234.830	20.314	0.087	-0.071
-233.815	11.726	0.069	0.053
-232.800	-44.948	0.213	0.107
-231.786	-31.850	0.222	0.125
-230.771	171.646	0.355	0.513
-229.757	95.715	0.112	0.129
-228.742	38.639	0.299	-0.268
-227.727	36.171	0.108	-0.096
-226.713	457.463	0.107	-0.239
-225.698	-200.000	0.027	0.345
-224.684	583.726	-0.076	-0.188
-223.669	-200.000	-0.040	-0.249
-222.655	-114.069	0.283	-0.055
-221.640	-48.671	-0.095	0.046
-220.625	112.569	0.071	-0.086
-219.611	-46.697	-0.364	-0.179
-218.596	-40.140	-0.142	0.074
-217.582	-1.566	-0.255	0.181
-216.567	800.000	-0.038	0.144
-215.552	-200.000	0.038	0.288
-214.538	12.062	0.329	-0.254
-213.523	-43.621	0.217	-0.110
-212.509	-200.000	0.006	0.061
-211.494	86.242	-0.093	0.103
-210.479	-200.000	-0.051	0.340
-209.465	800.000	0.023	0.089
-208.450	530.211	0.032	0.076
-207.436	-200.000	-0.022	-0.251
-206.421	-47.253	-0.095	0.047
-205.406	16.857	-0.159	-0.127
-204.392	-200.000	0.072	-0.380
-203.377	800.000	0.031	0.120
-202.363	-120.740	0.079	0.013
-201.348	800.000	0.074	0.299
-200.333	-200.000	0.025	-0.320
-199.319	-200.000	-0.045	-0.345
-198.304	-89.646	0.169	0.050
-197.290	268.757	-0.028	-0.050
-196.275	-200.000	-0.026	0.298
-195.260	15.145	-0.199	-0.157
-194.246	-51.376	0.343	0.161
-193.231	-93.713	0.220	0.061
-192.217	663.032	-0.088	-0.229
-191.202	224.639	-0.066	0.107
-190.187	-100.748	-0.375	0.093
-189.173	370.121	0.092	0.188
-188.158	-144.862	0.253	-0.023
-187.144	441.434	0.139	0.306
-186.129	-164.207	0.237	0.011
-185.114	29.306	0.096	0.082
-184.100	-200.000	-0.032	0.186
-183.085	164.326	-0.181	-0.257
-182.071	-76.740	0.153	0.054
-181.056	123.511	0.123	-0.155
-180.042	-200.000	0.014	0.188
-179.027	-198.299	-0.257	0.001
-178.012	-200.000	-0.015	0.277
-176.998	366.877	0.153	0.309
-175.983	-5.213	-0.156	0.107
-174.969	-200.000	-0.026	0.133
-173.954	-200.000	0.008	-0.100
-172.939	-43.659	0.244	0.123
-171.925	-200.000	-0.002	0.195
-170.910	-200.000	-0.014	-0.133
-169.896	-3.206	-0.104	0.073
-168.881	94.337	-0.156	-0.178
-167.866	71.502	-0.094	-0.098
-166.852	-22.193	-0.272	0.165
-165.837	355.369	-0.019	-0.039
-164.823	-200.000	0.043	0.264
-163.808	800.000	-0.056	-0.225
-162.793	57.934	0.144	-0.141
-161.779	-75.391	-0.254	0.091
-160.764	-15.903	-0.198	-0.126
-159.750	-200.000	0.010	0.111
-158.735	-115.082	0.197	0.038
-157.720	-63.934	-0.205	0.084
-156.706	-44.159	-0.399	-0.201
-155.691	-170.452	-0.063	0.002
-154.677	-200.000	-0.063	0.670
-153.662	800.000	-0.045	-0.133
-152.647	-156.762	0.086	0.005
-151.633	341.241	0.137	-0.268
-150.618	-200.000	0.002	-0.375
-149.604	-65.051	0.339	0.137
-148.589	-138.969	-0.343	-0.037
-147.574	455.026	0.096	0.214
-146.560	60.447	-0.159	-0.158
-145.545	800.000	-0.074	-0.223
-144.531	-31.141	0.119	0.067
-143.516	-82.827	-0.097	0.031
-142.502	-23.360	0.368	0.222
-141.487	-68.623	-0.008	-0.003
-140.472	-200.000	0.002	-0.207
-139.458	-40.821	0.221	-0.115
-138.443	510.899	0.093	-0.217
-137.429	66.690	0.218	0.223
-136.414	-137.643	-0.263	0.030
-135.399	623.311	0.111	0.281
-134.385	800.000	-0.076	-0.333
-133.370	50.488	0.115	-0.109
-132.356	-14.205	0.262	-0.169
-131.341	-200.000	-0.012	0.107
-130.326	-47.184	0.066	-0.032
-129.312	800.000	-0.085	0.285
-128.297	-68.464	-0.222	0.086
-127.283	800.000	0.064	0.205
-126.268	-53.634	-0.362	-0.166
-125.253	350.109	0.115	-0.227
-124.239	24.361	-0.340	-0.282
-123.224	-121.147	-0.077	0.013
-122.210	190.218	0.197	-0.296
-121.195	289.550	-0.034	-0.063
-120.180	33.737	-0.227	-0.197
-119.166	-77.783	-0.152	0.053
-118.151	99.856	0.136	-0.157
-117.137	-148.474	0.199	0.016
-116.122	-119.951	-0.105	-0.018
-115.107	323.901	-0.041	0.079
-114.093	-181.959	-0.328	0.006
-113.078	-200.000	-0.063	0.342
-112.064	-60.913	0.142	-0.060
-111.049	251.631	-0.254	-0.434
-110.034	97.343	-0.061	0.070
-109.020	-200.000	0.196	-0.001
-108.005	26.492	-0.226	0.189
-106.991	176.501	0.084	-0.122
-105.976	592.914	0.011	0.027
-104.962	-119.853	-0.251	0.043
-103.947	-200.000	-0.053	0.236
-102.932	468.117	0.123	-0.276
-101.918	171.707	0.039	-0.056
-100.903	571.696	0.059	-0.143
-99.889	-101.660	0.620	-0.151
-98.874	275.706	-0.061	0.107
-97.859	426.178	-0.083	-0.178
-96.845	-47.119	-0.090	0.044
-95.830	-91.984	-0.276	0.078
-94.816	22.158	0.052	-0.042
-93.801	-200.000	0.015	-0.065
-92.786	374.708	-0.122	0.248
-91.772	147.360	0.262	-0.353
-90.757	256.965	-0.031	0.054
-89.743	217.582	-0.113	0.181
-88.728	29.535	0.208	-0.177
-87.713	332.091	0.123	0.237
-86.699	495.363	0.076	0.175
-85.684	10.875	0.079	0.060
-84.670	-11.301	-0.121	-0.080
-83.655	-160.759	-0.095	0.005
-82.640	371.835	0.177	0.360
-81.626	-38.785	0.018	-0.009
-80.611	800.000	0.078	0.307
-79.597	83.500	-0.122	-0.133
-78.582	-131.803	0.084	0.011
-77.567	-20.153	0.273	0.168
-76.553	-200.000	0.006	0.132
-75.538	55.694	-0.265	0.257
-74.524	243.649	-0.133	0.224
-73.509	-145.674	0.261	0.023
-72.494	800.000	-0.025	-0.109
-71.480	-200.000	0.026	-0.359
-70.465	-200.000	0.014	-0.110
-69.451	800.000	-0.025	0.089
-68.436	215.450	-0.145	0.230
-67.422	-100.612	-0.166	-0.041
-66.407	-63.483	0.115	-0.047
-65.392	180.552	-0.313	0.459
-64.378	800.000	0.047	0.166
-63.363	-200.000	0.054	-0.276
-62.349	-68.414	-0.217	-0.084
-61.334	28.295	-0.782	-0.660
-60.319	-57.637	0.293	-0.128
-59.305	-200.000	-0.038	-0.449
-58.290	-200.000	0.152	0.797
-57.276	-200.000	0.288	1.607
-56.261	-200.000	76.187	522.929
-55.246	545.475	1313.363	3136.118
-54.232	145.502	2547.405	3408.639
-53.217	111.861	2360.284	2847.429
-52.203	49.411	2098.707	1972.663
-51.188	44.077	2005.956	1837.269
-50.173	42.305	1987.203	1804.097
-49.159	55.127	2025.018	1954.845
-48.144	60.138	2044.986	2019.416
-47.130	45.015	2009.564	1848.786
-46.115	42.124	1998.349	1812.285
-45.100	42.067	1995.691	1809.288
-44.086	41.970	1993.710	1806.548
-43.071	42.003	1990.882	1804.208
-42.057	41.914	1989.162	1801.777
-41.042	41.830	1987.570	1799.506
-40.027	41.957	1985.695	1798.878
-39.013	42.032	1982.977	1797.023
-37.998	41.961	1981.765	1795.217
-36.984	42.026	1979.794	1793.944
-35.969	42.045	1977.947	1792.368
-34.954	42.095	1976.632	1791.549
-33.940	42.101	1974.469	1789.574
-32.925	42.158	1972.965	1788.648
-31.911	42.142	1971.583	1787.183
-30.896	42.102	1969.648	1784.997
-29.881	42.114	1968.370	1783.879
-28.867	42.270	1966.395	1783.409
-27.852	42.220	1964.680	1781.338
-26.838	42.233	1962.583	1779.480
-25.823	42.165	1960.348	1776.776
-24.809	42.231	1958.749	1775.845
-23.794	42.246	1956.939	1774.263
-22.779	42.177	1955.914	1772.652
-21.765	42.091	1954.291	1770.354
-20.750	42.112	1952.744	1769.062
-19.736	42.101	1950.983	1767.307
-18.721	42.100	1949.678	1766.039
-17.706	42.038	1948.514	1764.367
-16.692	42.084	1946.214	1762.627
-15.677	42.081	1944.049	1760.564
-14.663	42.172	1942.619	1759.997
-13.648	42.097	1941.650	1758.394
-12.633	42.133	1940.454	1757.559
-11.619	42.088	1939.208	1755.966
-10.604	42.055	1938.195	1754.693
-9.590	42.098	1936.420	1753.392
-8.575	42.074	1935.114	1751.925
-7.560	42.096	1933.765	1750.829
-6.546	42.070	1932.650	1749.522
-5.531	42.169	1931.200	1749.005
-4.517	42.124	1929.878	1747.341
-3.502	42.108	1929.013	1746.357
-2.487	42.069	1927.672	1744.729
-1.473	42.035	1926.825	1743.603
-0.458	42.122	1922.357	1740.239
0.556	40.918	1901.196	1707.148
1.571	35.696	1878.423	1642.094
2.586	30.644	1897.135	1614.584
3.600	29.128	1933.066	1631.591
4.615	28.243	1930.114	1621.122
5.629	21.403	1826.958	1476.795
6.644	8.785	1698.781	1273.341
7.659	2.022	1653.910	1187.120
8.673	1.368	1650.232	1179.296
9.688	1.325	1648.305	1177.484
10.702	1.285	1646.842	1176.029
11.717	1.172	1644.048	1173.053
12.731	1.452	1643.543	1174.756
13.746	8.750	1661.504	1244.361
14.761	19.684	1685.484	1347.954
15.775	24.710	1694.512	1394.359
16.790	25.279	1695.125	1399.176
17.804	25.398	1694.261	1399.263
18.819	25.408	1693.329	1398.452
19.834	25.515	1692.936	1398.833
20.848	25.760	1692.009	1399.852
21.863	25.721	1690.910	1398.512
22.877	25.683	1689.980	1397.324
23.892	25.740	1689.813	1397.504
24.907	25.775	1688.082	1396.220
25.921	25.795	1686.880	1395.258
26.936	25.763	1685.793	1393.989
27.950	25.797	1685.130	1393.579
28.965	25.715	1684.971	1392.688
29.980	25.730	1683.738	1391.666
30.994	25.689	1682.592	1390.279
32.009	25.667	1681.313	1388.927
33.023	25.789	1680.348	1388.945
34.038	25.734	1679.698	1387.863
35.053	25.740	1678.422	1386.730
36.067	25.789	1677.062	1385.861
37.082	25.745	1676.202	1384.690
38.096	25.721	1675.060	1383.442
39.111	25.728	1674.517	1382.922
40.126	25.713	1673.665	1381.986
41.140	25.812	1672.878	1381.972
42.155	25.636	1672.631	1380.296
43.169	25.673	1671.093	1379.188
44.184	25.725	1669.819	1378.409
45.199	25.791	1668.469	1377.679
46.213	25.657	1667.714	1375.907
47.228	25.642	1666.634	1374.782
48.242	25.692	1665.370	1374.001
49.257	25.755	1664.189	1373.386
50.271	25.767	1662.740	1372.162
51.286	25.789	1661.730	1371.371
52.301	25.776	1660.421	1370.070
53.315	25.669	1659.118	1368.065
54.330	25.761	1657.587	1367.374
55.344	25.726	1656.454	1366.055
56.359	25.686	1655.419	1364.781
57.374	25.697	1654.018	1363.584
58.388	25.709	1653.055	1362.762
59.403	25.664	1652.412	1361.768
60.417	25.748	1650.743	1360.908
61.432	25.692	1649.767	1359.560
62.447	25.712	1648.668	1358.684
63.461	25.787	1647.595	1358.252
64.476	25.745	1646.391	1356.817
65.490	25.698	1645.735	1355.806
66.505	25.724	1644.614	1354.955
67.520	25.764	1643.570	1354.278
68.534	25.787	1642.683	1353.602
69.549	25.729	1641.992	1352.472
70.563	25.691	1640.827	1351.109
71.578	25.745	1639.834	1350.576
72.593	25.804	1638.546	1349.840
73.607	25.925	1637.272	1349.576
74.622	25.719	1636.589	1347.353
75.636	25.801	1635.721	1347.134
76.651	25.840	1634.604	1346.386
77.666	25.738	1634.070	1345.065
78.680	25.764	1633.107	1344.343
79.695	25.772	1632.417	1343.721
80.709	25.773	1631.125	1342.542
81.724	25.807	1630.395	1342.078
82.739	25.844	1629.353	1341.374
83.753	25.775	1628.231	1339.824
84.768	25.766	1627.515	1339.048
85.782	25.699	1627.029	1338.031
86.797	25.761	1625.863	1337.415
87.812	25.746	1625.125	1336.578
88.826	25.786	1623.938	1335.778
89.841	25.773	1623.157	1334.920
90.855	25.743	1622.034	1333.654
91.870	25.809	1621.140	1333.295
92.884	25.823	1619.814	1332.186
93.899	25.857	1618.729	1331.431
94.914	25.854	1618.066	1330.741
95.928	25.875	1616.763	1329.709
96.943	25.776	1615.594	1327.897
97.957	25.809	1614.316	1326.978
98.972	25.832	1612.765	1325.754
99.987	25.828	1611.923	1324.916
101.001	25.751	1610.307	1322.905
102.016	25.733	1608.841	1321.448
103.030	25.713	1607.692	1320.243
104.045	25.754	1606.726	1319.629
105.060	25.788	1605.084	1318.414
106.074	25.737	1604.277	1317.264
107.089	25.821	1602.822	1316.567
108.103	25.780	1601.850	1315.352
109.118	25.873	1600.361	1314.691
110.133	25.874	1599.191	1313.622
111.147	25.731	1598.989	1312.295
112.162	25.918	1597.177	1312.053
113.176	25.910	1596.389	1311.233
114.191	25.841	1594.779	1309.292
115.206	25.864	1593.815	1308.549
116.220	25.765	1593.012	1307.060
117.235	25.885	1591.824	1306.839
118.249	25.900	1590.409	1305.669
119.264	25.806	1589.534	1304.153
120.279	25.794	1588.513	1303.114
121.293	25.916	1586.826	1302.499
122.308	25.868	1586.356	1301.650
123.322	25.986	1584.577	1300.924
124.337	25.930	1583.640	1299.641
125.352	25.924	1582.958	1298.922
126.366	25.950	1581.884	1298.112
127.381	25.999	1580.891	1297.537
128.395	25.914	1580.037	1296.108
129.410	25.960	1578.684	1295.210
130.424	26.071	1577.396	1294.835
131.439	26.047	1576.415	1293.747
132.454	25.924	1575.545	1292.037
133.468	26.045	1574.061	1291.570
134.483	25.901	1573.244	1289.754
135.497	25.937	1571.956	1288.842
136.512	26.057	1570.549	1288.433
137.527	26.017	1569.781	1287.402
138.541	26.054	1568.350	1286.377
139.556	26.029	1567.402	1285.310
140.570	26.052	1566.276	1284.437
141.585	25.942	1565.228	1282.684
142.600	25.937	1564.211	1281.702
143.614	26.037	1563.241	1281.499
144.629	26.041	1562.081	1280.469
145.643	25.939	1560.903	1278.667
146.658	25.997	1559.637	1277.922
147.673	25.903	1558.289	1276.040
148.687	25.873	1557.106	1274.749
149.702	25.938	1556.120	1274.287
150.716	25.979	1554.382	1273.040
151.731	25.920	1553.637	1271.901
152.746	25.915	1552.684	1270.976
153.760	25.972	1551.270	1270.103
154.775	25.934	1550.646	1269.217
155.789	25.958	1549.386	1268.236
156.804	25.918	1548.635	1267.232
157.819	25.975	1547.618	1266.688
158.833	26.000	1546.262	1265.642
159.848	26.012	1545.192	1264.735
160.862	25.984	1544.715	1264.040
161.877	26.063	1543.628	1263.589
162.892	26.045	1542.585	1262.499
163.906	26.084	1541.851	1262.061
164.921	26.056	1540.815	1260.906
165.935	26.097	1539.271	1259.817
166.950	26.019	1538.914	1258.868
167.964	26.083	1537.979	1258.434
168.979	26.043	1537.196	1257.406
169.994	25.916	1536.372	1255.735
171.008	25.995	1535.416	1255.395
172.023	26.024	1534.496	1254.734
173.037	26.102	1533.271	1254.160
174.052	26.020	1532.114	1252.536
175.067	26.051	1531.024	1251.751
176.081	26.005	1530.471	1250.869
177.096	26.111	1529.630	1250.801
178.110	25.988	1528.390	1248.824
179.125	26.085	1527.068	1248.310
180.140	26.041	1526.187	1247.175
181.154	26.090	1525.551	1246.882
182.169	26.122	1524.960	1246.511
183.183	26.155	1523.431	1245.375
184.198	26.146	1522.495	1244.441
185.213	26.176	1522.199	1244.290
186.227	26.137	1521.209	1243.103
187.242	26.075	1520.754	1242.194
188.256	26.187	1519.365	1241.722
189.271	26.320	1518.173	1241.552
190.286	26.283	1517.322	1240.492
191.300	26.274	1516.584	1239.715
192.315	26.211	1515.794	1238.529
193.329	26.177	1515.095	1237.614
194.344	26.151	1513.787	1236.257
195.359	26.111	1513.430	1235.582
196.373	26.238	1512.339	1235.450
197.388	26.213	1511.478	1234.472
198.402	26.123	1510.687	1233.101
199.417	26.147	1509.463	1232.156
200.432	26.191	1508.893	1231.878
201.446	26.214	1508.159	1231.329
202.461	26.198	1507.491	1230.567
203.475	26.172	1506.697	1229.634
204.490	26.226	1505.630	1229.018
205.504	26.174	1505.075	1228.102
206.519	26.250	1504.094	1227.711
207.534	26.199	1503.133	1226.474
208.548	26.351	1501.593	1226.138
209.563	26.208	1501.490	1224.978
210.577	26.127	1501.049	1223.960
211.592	26.174	1499.869	1223.208
212.607	26.316	1498.945	1223.305
213.621	26.198	1498.758	1222.245
214.636	26.303	1497.654	1221.947
215.650	26.362	1496.705	1221.464
216.665	26.360	1495.840	1220.635
217.680	26.311	1495.201	1219.677
218.694	26.251	1494.567	1218.648
219.709	26.324	1493.669	1218.298
220.723	26.449	1492.507	1218.083
221.738	26.272	1492.598	1216.857
222.753	26.323	1490.982	1215.780
223.767	26.250	1490.377	1214.685
224.782	26.212	1489.595	1213.687
225.796	26.267	1488.780	1213.282
226.811	26.316	1488.179	1213.013
227.826	26.288	1487.399	1212.083
228.840	26.415	1486.327	1211.958
229.855	26.344	1485.979	1211.087
230.869	26.412	1485.024	1210.655
231.884	26.396	1484.095	1209.689
232.899	26.280	1483.341	1208.191
233.913	26.221	1481.957	1206.560
234.928	26.345	1480.705	1206.260
235.942	26.465	1479.073	1205.623
236.957	26.503	1478.255	1205.103
237.972	26.444	1477.823	1204.251
238.986	26.508	1476.534	1203.520
240.001	26.425	1475.644	1202.138
241.015	26.449	1474.742	1201.458
242.030	26.437	1474.053	1200.708
243.045	26.600	1472.779	1200.647
244.059	26.581	1471.947	1199.734
245.074	26.603	1470.944	1198.956
246.088	26.583	1470.478	1198.341
247.103	26.697	1469.634	1198.301
248.117	26.634	1469.139	1197.375
249.132	26.556	1468.411	1196.158
250.147	26.513	1467.458	1194.993
251.161	26.611	1466.913	1195.092
252.176	26.655	1466.540	1194.971
253.190	26.745	1465.441	1194.562
254.205	26.590	1464.646	1192.789
255.220	26.648	1463.804	1192.378
256.234	26.617	1463.143	1191.529
257.249	26.667	1462.106	1190.911
258.263	26.661	1461.571	1190.332
259.278	26.674	1460.449	1189.395
260.293	26.750	1459.773	1189.240
261.307	26.691	1459.550	1188.567
262.322	26.763	1458.264	1187.884
263.336	26.864	1457.464	1187.786
264.351	26.699	1456.774	1186.038
265.366	26.645	1455.902	1184.875
266.380	26.742	1455.267	1184.884
267.395	26.833	1453.741	1184.131
268.409	26.739	1453.268	1183.030
269.424	26.751	1452.402	1182.297
270.439	26.680	1451.760	1181.209
271.453	26.748	1450.545	1180.555
272.468	26.763	1449.868	1180.000
273.482	26.744	1449.095	1179.140
274.497	26.755	1448.401	1178.547
275.512	26.771	1447.593	1177.886
276.526	26.831	1447.095	1177.770
277.541	26.826	1446.103	1176.825
278.555	26.820	1444.936	1175.731
279.570	26.817	1444.727	1175.440
280.585	26.777	1443.877	1174.383
281.599	26.722	1443.428	1173.560
282.614	26.809	1442.189	1173.009
283.628	26.864	1440.823	1172.146
284.643	26.901	1439.859	1171.504
285.657	26.899	1438.762	1170.494
286.672	26.804	1438.637	1169.670
287.687	26.827	1437.730	1168.980
288.701	26.813	1436.968	1168.169
289.716	26.845	1436.036	1167.513
290.730	26.968	1435.153	1167.479
291.745	26.978	1434.424	1166.852
292.760	26.958	1433.723	1166.046
293.774	26.886	1432.659	1164.618
294.789	26.972	1431.830	1164.393
295.803	26.996	1431.080	1163.830
296.818	26.931	1429.948	1162.391
297.833	26.998	1429.277	1162.172
298.847	26.929	1428.842	1161.277
299.862	27.013	1427.996	1161.019
300.876	27.065	1426.660	1160.167
301.891	27.046	1426.554	1159.853
302.906	27.015	1425.554	1158.744
303.920	27.033	1424.924	1158.239
304.935	27.093	1424.345	1158.054
305.949	27.060	1423.596	1157.129
306.964	27.208	1422.297	1156.913
307.979	27.087	1421.531	1155.418
308.993	27.082	1420.941	1154.807
310.008	27.165	1419.934	1154.415
311.022	27.183	1419.038	1153.697
312.037	27.111	1418.122	1152.392
313.052	27.074	1417.585	1151.620
314.066	27.217	1416.250	1151.337
315.081	27.213	1415.691	1150.756
316.095	27.162	1414.483	1149.348
317.110	27.132	1413.776	1148.483
318.125	27.182	1412.665	1147.796
319.139	27.137	1412.623	1147.378
320.154	27.214	1411.022	1146.457
321.168	27.272	1410.480	1146.282
322.183	27.233	1409.859	1145.431
323.197	27.192	1409.029	1144.400
324.212	27.173	1408.012	1143.352
325.227	27.197	1407.125	1142.680
326.241	27.228	1406.368	1142.157
327.256	27.203	1405.816	1141.454
328.270	27.311	1404.584	1141.031
329.285	27.334	1403.856	1140.478
330.300	27.349	1403.027	1139.799
331.314	27.272	1402.610	1138.879
332.329	27.291	1401.578	1138.058
333.343	27.312	1400.864	1137.510
334.358	27.455	1399.997	1137.598
335.373	27.325	1399.884	1136.591
336.387	27.437	1398.922	1136.413
337.402	27.402	1398.129	1135.445
338.416	27.539	1397.662	1135.821
339.431	27.496	1396.648	1134.629
340.446	27.421	1396.331	1133.804
341.460	27.481	1395.540	1133.435
342.475	27.492	1394.138	1132.268
343.489	27.605	1393.465	1132.320
344.504	27.554	1392.673	1131.262
345.519	27.508	1391.799	1130.165
346.533	27.499	1390.783	1129.181
347.548	27.512	1390.095	1128.605
348.562	27.572	1389.316	1128.242
349.577	27.621	1388.364	1127.678
350.592	27.601	1388.012	1127.166
351.606	27.584	1387.145	1126.255
352.621	27.433	1386.269	1124.513
353.635	27.539	1385.011	1124.050
354.650	27.518	1384.598	1123.484
355.665	27.617	1383.498	1123.103
356.679	27.559	1382.539	1121.867
357.694	27.683	1381.195	1121.439
358.708	27.660	1380.268	1120.444
359.723	27.650	1379.164	1119.387
360.738	27.612	1378.118	1118.209
361.752	27.665	1377.015	1117.538
362.767	27.600	1376.453	1116.589
363.781	27.674	1375.264	1115.976
364.796	27.712	1374.801	1115.734
365.810	27.809	1373.821	1115.434
366.825	27.743	1373.069	1114.323
367.840	27.679	1372.764	1113.581
368.854	27.753	1371.716	1113.084
369.869	27.801	1371.353	1112.984
370.883	27.756	1370.737	1112.114
371.898	27.872	1369.900	1112.043
372.913	27.848	1369.518	1111.487
373.927	27.659	1368.851	1109.697
374.942	27.854	1367.975	1110.074
375.956	27.973	1366.853	1109.789
376.971	27.944	1366.144	1108.939
377.986	27.769	1365.853	1107.545
379.000	27.774	1364.911	1106.711
380.015	27.834	1364.142	1106.352
381.029	27.948	1362.953	1105.978
382.044	27.880	1363.001	1105.508
383.059	27.817	1361.965	1104.194
384.073	27.963	1361.298	1104.435
385.088	27.875	1361.163	1103.698
386.102	27.922	1360.081	1103.003
387.117	27.929	1359.429	1102.422
388.132	27.946	1358.779	1101.898
389.146	27.945	1358.148	1101.285
390.161	27.977	1357.345	1100.730
391.175	27.959	1356.877	1100.142
392.190	28.054	1355.870	1099.801
393.205	28.019	1355.240	1098.982
394.219	28.076	1354.228	1098.404
395.234	27.980	1353.615	1097.236
396.248	28.034	1352.705	1096.722
397.263	28.094	1351.760	1096.220
398.278	28.157	1350.247	1095.276
399.292	28.196	1349.424	1094.742
400.307	28.164	1348.594	1093.782
401.321	28.145	1347.675	1092.825
402.336	28.164	1346.676	1092.033
403.350	28.141	1345.979	1091.231
404.365	28.179	1344.942	1090.524
405.380	28.249	1344.072	1090.138
406.394	28.216	1343.424	1089.317
407.409	28.179	1342.992	1088.651
408.423	28.249	1342.032	1088.194
409.438	28.268	1341.256	1087.581
410.453	28.292	1340.420	1086.948
411.467	28.300	1340.055	1086.604
412.482	28.283	1339.638	1086.068
413.496	28.279	1338.923	1085.368
414.511	28.299	1338.156	1084.770
415.526	28.312	1337.316	1084.069
416.540	28.384	1336.727	1083.926
417.555	28.351	1335.740	1082.830
418.569	28.419	1335.186	1082.688
419.584	28.341	1335.064	1082.036
420.599	28.361	1334.414	1081.532
421.613	78.982	1325.111	1360.538
422.628	79.290	1323.737	1360.680
