DTS Sentinel unit serial number:	SN413079Multiplexer serial number:	ORYXHardware model number:	OX4-SRSoftware version number:	ORYX F/W v4.00 Oryx Data Collector v3.7.2.0data status	okinstallation	princeton_trtdifferential loss correction	single-endedforward channel	channel 4reverse channel	N/Adate	2019/09/14time	14:53:35forward acquisition time	60.00reverse acquisition time	0.00gamma	496.2192k internal	0.2291k external	0.2291temperature offset calibration	1.0138default loss term (dB/km)	0.3790temperature slope calibration	1.0000multiplexer offset coefficient	1.0000multiplexer slope coefficient	1.0000fibre end	0.00T internal ref (°C)	39.12T ext. ref 1 (°C)	5.02T ext. ref 2 (°C)	33.94length (m)	temperature (°C)	Stokes	anti-Stokes-747.200	-95.397	-0.239	0.066
-746.185	201.036	0.092	0.144
-745.171	76.714	0.153	-0.167
-744.156	-63.074	0.156	0.066
-743.142	-17.236	0.183	-0.118
-742.127	-1.568	-0.324	0.234
-741.112	173.382	-0.100	-0.148
-740.098	-12.934	-0.277	0.185
-739.083	118.213	-0.235	0.297
-738.069	-200.000	-0.024	0.427
-737.054	-90.609	0.331	-0.098
-736.039	234.585	0.081	-0.137
-735.025	-108.138	0.339	-0.075
-734.010	-101.054	-0.506	-0.127
-732.996	-200.000	0.024	-0.112
-731.981	-4.648	-0.192	0.136
-730.966	125.596	0.067	-0.087
-729.952	-200.000	0.028	-0.136
-728.937	-128.520	-0.371	-0.054
-727.923	31.436	0.124	0.109
-726.908	75.120	-0.011	0.011
-725.894	-11.432	-0.232	0.156
-724.879	231.988	-0.051	0.086
-723.864	-200.000	-0.049	-0.222
-722.850	-200.000	-0.010	-0.168
-721.835	-64.491	-0.053	-0.022
-720.821	-165.544	-0.191	0.008
-719.806	-85.219	-0.129	0.041
-718.791	-200.000	0.068	-0.556
-717.777	-3.808	0.213	-0.151
-716.762	6.212	0.112	0.085
-715.748	223.863	0.034	0.055
-714.733	800.000	-0.061	-0.184
-713.718	188.121	0.114	-0.174
-712.704	445.792	0.151	-0.338
-711.689	-87.869	0.179	-0.055
-710.675	119.501	-0.117	-0.148
-709.660	22.081	-0.188	-0.157
-708.645	-134.257	0.300	0.038
-707.631	-91.070	-0.428	-0.126
-706.616	182.360	0.160	0.240
-705.602	-7.834	-0.208	-0.144
-704.587	246.261	-0.121	-0.208
-703.572	-200.000	-0.000	-0.101
-702.558	289.074	-0.130	-0.241
-701.543	-200.000	-0.058	-0.282
-700.529	-63.192	-0.371	-0.156
-699.514	-74.317	-0.140	-0.052
-698.499	529.580	0.070	0.170
-697.485	792.097	0.026	0.072
-696.470	800.000	-0.021	0.064
-695.456	-200.000	-0.000	-0.128
-694.441	-79.690	-0.108	0.037
-693.426	-81.804	0.281	-0.094
-692.412	-52.615	-0.204	-0.096
-691.397	-200.000	-0.009	-0.342
-690.383	11.155	0.181	0.141
-689.368	192.615	-0.212	-0.327
-688.354	-106.341	-0.085	-0.019
-687.339	-200.000	0.037	-0.404
-686.324	-92.792	-0.303	-0.087
-685.310	39.008	0.070	-0.064
-684.295	-93.554	-0.151	0.043
-683.281	1.733	0.197	-0.145
-682.266	261.268	0.155	0.275
-681.251	452.625	-0.100	-0.226
-680.237	82.117	-0.205	-0.226
-679.222	599.650	0.052	-0.131
-678.208	-38.968	0.097	0.052
-677.193	-170.609	-0.198	0.007
-676.178	-200.000	-0.016	-0.087
-675.164	-200.000	0.017	0.113
-674.149	153.350	0.177	-0.248
-673.135	138.591	-0.037	0.049
-672.120	140.805	0.200	0.270
-671.105	-58.360	0.286	0.127
-670.091	-200.000	-0.016	-0.117
-669.076	-200.000	-0.015	0.146
-668.062	-200.000	-0.068	0.466
-667.047	-96.403	0.068	0.018
-666.032	-19.448	-0.092	-0.058
-665.018	204.373	-0.090	0.142
-664.003	-62.252	0.165	-0.070
-662.989	184.471	0.075	-0.114
-661.974	-200.000	-0.079	-0.416
-660.959	10.914	0.269	-0.210
-659.945	-144.017	-0.340	-0.033
-658.930	-200.000	0.071	0.346
-657.916	800.000	-0.056	-0.176
-656.901	800.000	-0.042	-0.139
-655.886	-36.035	0.081	0.045
-654.872	242.227	-0.081	-0.138
-653.857	85.715	-0.168	-0.189
-652.843	106.922	-0.093	-0.112
-651.828	-140.822	0.114	-0.012
-650.814	-10.761	0.097	0.066
-649.799	62.588	0.086	-0.087
-648.784	39.524	0.155	0.141
-647.770	-58.726	0.083	-0.037
-646.755	364.525	-0.059	-0.121
-645.741	-18.769	-0.260	-0.165
-644.726	14.110	-0.360	-0.286
-643.711	-74.575	-0.248	-0.091
-642.697	-0.835	-0.078	0.056
-641.682	68.125	0.128	0.133
-640.668	800.000	0.125	0.387
-639.653	545.718	-0.046	-0.113
-638.638	-200.000	-0.005	-0.189
-637.624	-200.000	0.051	-0.292
-636.609	29.470	0.228	0.197
-635.595	-30.505	-0.267	-0.154
-634.580	-150.082	0.145	-0.012
-633.565	-92.274	-0.130	0.037
-632.551	-200.000	0.005	0.206
-631.536	-85.904	0.368	-0.116
-630.522	-70.187	0.113	-0.044
-629.507	-98.908	0.326	-0.084
-628.492	144.945	-0.105	0.144
-627.478	-62.393	0.294	0.125
-626.463	-36.209	0.335	0.184
-625.449	328.336	0.133	0.260
-624.434	302.388	-0.218	-0.411
-623.419	-200.000	-0.005	0.076
-622.405	-200.000	-0.412	-0.000
-621.390	-87.226	0.017	0.005
-620.376	38.926	0.073	0.067
-619.361	-8.219	0.240	-0.165
-618.346	-200.000	0.026	0.124
-617.332	-111.154	-0.252	-0.053
-616.317	800.000	-0.145	-0.532
-615.303	559.398	-0.059	-0.145
-614.288	-200.000	0.026	0.200
-613.273	-155.760	0.205	0.013
-612.259	800.000	0.032	-0.127
-611.244	258.903	-0.089	0.156
-610.230	-136.810	-0.302	-0.035
-609.215	-200.000	-0.004	0.040
-608.201	52.649	0.341	-0.332
-607.186	-15.898	-0.265	0.172
-606.171	-200.000	-0.031	-0.384
-605.157	-200.000	0.007	-0.041
-604.142	27.308	-0.174	0.149
-603.128	-127.674	0.126	-0.019
-602.113	246.249	-0.149	0.256
-601.098	290.343	-0.080	0.148
-600.084	39.877	-0.062	-0.056
-599.069	-132.260	-0.368	0.049
-598.055	524.513	0.222	-0.532
-597.040	133.114	0.216	0.284
-596.025	-200.000	0.007	-0.126
-595.011	-86.171	-0.384	-0.120
-593.996	-98.841	-0.111	-0.029
-592.982	-200.000	-0.051	-0.327
-591.967	467.725	-0.100	0.229
-590.952	91.460	0.202	-0.231
-589.938	24.960	0.158	-0.133
-588.923	-64.918	0.095	0.039
-587.909	-79.952	0.269	0.092
-586.894	12.881	-0.195	-0.154
-585.879	-200.000	-0.022	-0.151
-584.865	-135.700	0.315	0.038
-583.850	-113.610	-0.218	-0.043
-582.836	191.215	-0.067	-0.102
-581.821	-134.259	0.260	0.033
-580.806	-111.064	0.201	0.042
-579.792	-85.593	-0.181	-0.057
-578.777	-68.154	0.070	0.028
-577.763	-79.876	-0.043	0.015
-576.748	800.000	-0.028	0.118
-575.733	-19.209	-0.179	0.113
-574.719	213.847	-0.265	-0.426
-573.704	469.941	-0.129	-0.295
-572.690	-24.337	0.052	0.032
-571.675	-65.016	0.179	0.074
-570.661	35.287	-0.075	0.066
-569.646	-200.000	-0.062	0.476
-568.631	-164.652	-0.167	-0.008
-567.617	-26.898	-0.181	0.108
-566.602	369.219	0.048	0.098
-565.588	-200.000	0.005	-0.048
-564.573	699.227	-0.071	0.191
-563.558	-14.407	-0.207	-0.136
-562.544	109.767	0.216	-0.263
-561.529	170.803	0.044	-0.064
-560.515	-109.470	-0.382	0.082
-559.500	74.881	-0.211	-0.226
-558.485	178.212	0.197	-0.293
-557.471	-61.244	0.172	0.074
-556.456	-74.836	-0.170	-0.062
-555.442	-200.000	0.004	-0.068
-554.427	265.583	0.082	0.146
-553.412	-11.437	-0.242	0.162
-552.398	-64.762	0.124	-0.051
-551.383	0.361	0.146	-0.106
-550.369	-200.000	0.032	-0.281
-549.354	-112.044	0.140	-0.029
-548.339	800.000	0.057	-0.161
-547.325	-60.120	-0.228	0.099
-546.310	-91.812	0.047	-0.013
-545.296	85.336	-0.097	-0.108
-544.281	152.105	0.099	0.137
-543.266	159.885	-0.089	-0.126
-542.252	4.313	-0.297	0.221
-541.237	-121.239	0.212	-0.036
-540.223	64.805	0.159	0.163
-539.208	174.009	-0.078	-0.115
-538.193	-142.365	-0.538	0.054
-537.179	-200.000	0.020	0.350
-536.164	-76.595	0.215	0.077
-535.150	800.000	-0.054	0.183
-534.135	264.785	0.040	-0.070
-533.121	800.000	0.095	-0.299
-532.106	-200.000	-0.011	0.170
-531.091	27.833	0.114	0.098
-530.077	-9.746	-0.208	-0.141
-529.062	-200.000	0.005	0.179
-528.048	-63.283	-0.444	-0.186
-527.033	198.576	-0.197	-0.307
-526.018	-200.000	0.018	0.157
-525.004	169.375	0.055	-0.080
-523.989	-123.982	-0.096	0.015
-522.975	17.394	-0.220	-0.177
-521.960	265.680	0.110	0.194
-520.945	239.633	-0.064	0.108
-519.931	-200.000	0.008	0.135
-518.916	-83.359	-0.668	-0.218
-517.902	800.000	-0.041	-0.149
-516.887	185.036	-0.111	0.167
-515.872	-200.000	-0.010	-0.427
-514.858	-31.240	0.099	0.057
-513.843	-115.360	0.473	-0.091
-512.829	800.000	-0.044	0.134
-511.814	316.566	-0.046	0.089
-510.799	800.000	0.009	-0.037
-509.785	-104.964	0.132	0.031
-508.770	-200.000	-0.042	-0.361
-507.756	105.846	0.417	0.500
-506.741	2.290	-0.218	0.160
-505.726	-40.879	0.066	0.035
-504.712	84.711	0.076	-0.085
-503.697	55.217	-0.231	-0.227
-502.683	109.778	0.186	0.226
-501.668	-200.000	-0.018	-0.154
-500.653	-68.858	-0.492	0.193
-499.639	60.564	-0.244	0.246
-498.624	-12.539	0.258	0.171
-497.610	545.202	0.043	-0.104
-496.595	-94.079	0.202	0.056
-495.581	-99.096	-0.191	-0.049
-494.566	-98.025	-0.251	-0.066
-493.551	466.607	-0.008	-0.018
-492.537	800.000	-0.117	0.362
-491.522	789.448	0.115	0.320
-490.508	-116.337	0.416	0.078
-489.493	98.544	0.186	0.217
-488.478	-118.043	0.316	0.057
-487.464	800.000	0.066	0.188
-486.449	-11.902	-0.227	0.151
-485.435	594.653	-0.022	0.056
-484.420	-200.000	0.036	-0.175
-483.405	-137.857	0.198	0.022
-482.391	34.666	-0.189	-0.168
-481.376	286.380	-0.136	-0.249
-480.362	-122.137	0.017	-0.003
-479.347	487.528	0.114	0.263
-478.332	800.000	-0.068	-0.222
-477.318	-77.254	0.176	0.062
-476.303	137.421	0.135	-0.179
-475.289	4.963	0.198	0.148
-474.274	641.608	0.068	0.176
-473.259	-94.908	0.265	0.073
-472.245	-40.543	-0.176	0.092
-471.230	-200.000	0.066	0.444
-470.216	-10.609	-0.116	0.078
-469.201	128.403	0.086	0.111
-468.186	85.733	-0.173	0.193
-467.172	-81.835	0.225	-0.075
-466.157	147.085	-0.087	0.118
-465.143	-79.633	0.230	0.078
-464.128	10.181	0.048	-0.037
-463.113	-96.008	-0.175	-0.047
-462.099	-27.830	-0.219	0.129
-461.084	-11.254	-0.143	0.096
-460.070	242.189	0.230	0.390
-459.055	550.909	0.097	0.236
-458.040	4.370	-0.062	0.046
-457.026	-89.508	-0.229	0.068
-456.011	-200.000	0.009	0.136
-454.997	-4.357	0.206	0.144
-453.982	162.156	0.093	-0.132
-452.968	242.142	0.119	-0.201
-451.953	-200.000	0.038	-0.473
-450.938	-1.659	-0.317	0.226
-449.924	166.778	-0.061	0.087
-448.909	-200.000	-0.016	-0.387
-447.895	154.455	-0.222	-0.308
-446.880	-76.354	0.102	0.037
-445.865	-167.391	0.274	0.011
-444.851	122.901	-0.167	0.212
-443.836	203.266	-0.217	-0.340
-442.822	-50.784	-0.147	-0.070
-441.807	33.817	0.139	0.123
-440.792	13.862	-0.052	0.041
-439.778	168.703	0.222	0.321
-438.763	105.489	0.098	-0.117
-437.749	-200.000	-0.003	-0.031
-436.734	-44.954	0.082	0.042
-435.719	-156.895	-0.221	-0.014
-434.705	-60.010	0.239	-0.103
-433.690	106.638	0.132	0.158
-432.676	-98.181	-0.117	0.030
-431.661	109.938	0.173	0.210
-430.646	-63.841	-0.182	-0.075
-429.632	57.325	0.016	0.016
-428.617	-167.900	-0.141	-0.006
-427.603	0.470	0.025	-0.018
-426.588	26.607	-0.197	-0.167
-425.573	-12.058	-0.195	0.129
-424.559	-41.792	0.281	0.146
-423.544	800.000	-0.056	0.183
-422.530	688.279	0.048	-0.126
-421.515	800.000	-0.102	0.324
-420.500	-183.124	-0.326	0.006
-419.486	297.067	-0.091	-0.170
-418.471	17.546	0.019	0.015
-417.457	435.783	-0.096	-0.210
-416.442	54.144	-0.146	-0.142
-415.428	-7.997	0.199	0.136
-414.413	-14.062	-0.092	0.060
-413.398	776.933	-0.053	-0.146
-412.384	800.000	0.095	-0.352
-411.369	-50.377	-0.436	-0.208
-410.355	11.693	0.122	0.094
-409.340	800.000	-0.070	-0.221
-408.325	324.236	0.162	-0.313
-407.311	-200.000	-0.002	0.037
-406.296	-107.738	0.196	0.043
-405.282	642.460	-0.071	-0.182
-404.267	72.373	-0.150	0.158
-403.252	-185.261	-0.035	-0.001
-402.238	-110.897	0.142	-0.030
-401.223	117.315	0.102	-0.126
-400.209	-37.893	0.388	-0.208
-399.194	208.680	0.164	-0.260
-398.179	-200.000	0.011	0.072
-397.165	222.345	0.081	-0.132
-396.150	127.848	-0.052	0.067
-395.136	-11.669	0.111	-0.074
-394.121	437.500	0.094	0.207
-393.106	-161.088	0.467	0.025
-392.092	800.000	0.018	-0.057
-391.077	-180.441	0.012	-0.000
-390.063	-148.132	-0.203	0.017
-389.048	-181.834	-0.156	0.003
-388.033	720.308	-0.036	0.097
-387.019	237.434	-0.075	-0.126
-386.004	-91.047	-0.289	0.084
-384.990	-95.819	-0.439	0.118
-383.975	800.000	-0.071	-0.296
-382.960	-88.288	-0.316	-0.095
-381.946	102.792	-0.234	-0.277
-380.931	-127.757	0.246	-0.036
-379.917	550.003	-0.105	-0.254
-378.902	78.436	0.083	0.089
-377.888	54.215	0.138	-0.134
-376.873	105.088	0.081	-0.096
-375.858	-129.508	0.254	0.035
-374.844	-7.893	-0.295	-0.201
-373.829	-137.075	0.113	-0.013
-372.815	-34.414	0.235	0.130
-371.800	-65.208	0.252	-0.103
-370.785	-200.000	0.027	-0.270
-369.771	-17.228	0.214	0.136
-368.756	-119.458	-0.195	-0.034
-367.742	-98.495	0.039	-0.010
-366.727	152.041	-0.253	0.348
-365.712	93.764	0.032	0.037
-364.698	-17.076	0.359	-0.229
-363.683	-25.712	0.271	-0.161
-362.669	135.268	0.206	-0.270
-361.654	-36.768	-0.099	-0.054
-360.639	355.221	-0.148	0.296
-359.625	563.996	-0.060	0.146
-358.610	-200.000	0.046	0.239
-357.596	-200.000	0.004	0.079
-356.581	-200.000	0.055	0.243
-355.566	800.000	0.094	-0.363
-354.552	-200.000	-0.014	-0.107
-353.537	85.710	0.179	0.198
-352.523	62.105	0.146	0.147
-351.508	97.631	-0.140	0.162
-350.493	89.603	-0.060	0.068
-349.479	-200.000	0.006	0.304
-348.464	47.382	-0.171	-0.160
-347.450	-171.277	-0.629	-0.021
-346.435	-172.216	-0.077	-0.002
-345.420	793.767	0.097	-0.270
-344.406	129.397	0.091	0.117
-343.391	-85.639	0.384	0.120
-342.377	-16.547	0.318	-0.203
-341.362	36.365	-0.128	-0.114
-340.348	111.554	0.186	0.226
-339.333	-41.951	0.106	0.055
-338.318	-103.312	0.262	0.062
-337.304	8.269	-0.093	0.070
-336.289	-200.000	-0.031	0.325
-335.275	72.442	0.168	-0.177
-334.260	-65.834	0.106	-0.043
-333.245	-200.000	-0.004	-0.124
-332.231	-8.198	0.149	-0.101
-331.216	-200.000	0.024	0.261
-330.202	-38.650	0.301	0.160
-329.187	-27.343	0.221	-0.129
-328.172	169.296	0.008	-0.011
-327.158	86.757	0.122	-0.136
-326.143	-30.829	-0.147	0.084
-325.129	-57.869	0.062	0.027
-324.114	-66.501	-0.322	-0.129
-323.099	405.436	-0.223	-0.475
-322.085	359.346	0.121	-0.245
-321.070	-200.000	-0.040	-0.225
-320.056	100.850	-0.028	-0.033
-319.041	131.968	0.219	-0.284
-318.026	-74.055	-0.154	-0.056
-317.012	-15.289	0.067	-0.043
-315.997	502.069	-0.047	0.108
-314.983	-200.000	-0.003	0.083
-313.968	-133.928	0.107	0.013
-312.953	-149.196	0.213	-0.017
-311.939	78.242	-0.153	0.164
-310.924	-200.000	-0.018	-0.252
-309.910	-200.000	-0.021	-0.151
-308.895	393.235	-0.127	0.265
-307.880	-93.592	-0.131	0.037
-306.866	13.995	-0.269	0.210
-305.851	91.117	0.124	-0.140
-304.837	429.942	-0.034	0.074
-303.822	211.757	0.098	-0.155
-302.807	53.189	-0.405	0.390
-301.793	-200.000	-0.026	0.183
-300.778	800.000	0.040	0.169
-299.764	75.745	0.124	-0.132
-298.749	-200.000	0.030	0.234
-297.735	-91.033	-0.109	0.031
-296.720	-14.313	-0.057	0.037
-295.705	-200.000	0.027	-0.240
-294.691	-96.048	-0.049	-0.013
-293.676	34.824	0.153	-0.135
-292.662	800.000	0.062	-0.202
-291.647	154.279	-0.078	0.108
-290.632	517.832	0.045	0.106
-289.618	-200.000	0.004	-0.018
-288.603	-200.000	-0.024	0.256
-287.589	176.858	0.035	-0.052
-286.574	440.429	-0.068	-0.150
-285.559	-200.000	-0.235	0.001
-284.545	-200.000	0.014	0.080
-283.530	57.951	0.134	-0.132
-282.516	-114.919	-0.091	0.017
-281.501	4.807	0.138	-0.102
-280.486	-113.855	-0.141	-0.028
-279.472	22.133	-0.183	0.150
-278.457	139.639	0.169	-0.224
-277.443	588.828	-0.021	-0.052
-276.428	176.477	0.119	-0.174
-275.413	-140.240	0.271	0.029
-274.399	-12.683	0.264	0.173
-273.384	-200.000	-0.099	-0.485
-272.370	-70.428	-0.151	-0.057
-271.355	800.000	-0.057	-0.168
-270.340	-200.000	0.019	-0.312
-269.326	-200.000	-0.000	0.046
-268.311	-121.622	-0.241	0.040
-267.297	-200.000	-0.010	0.054
-266.282	567.025	0.123	0.299
-265.267	-54.009	0.365	0.167
-264.253	153.906	-0.103	-0.142
-263.238	-85.155	0.375	0.118
-262.224	275.582	0.144	0.257
-261.209	42.072	-0.124	-0.113
-260.195	-78.883	-0.090	0.031
-259.180	74.273	0.173	0.183
-258.165	178.763	0.153	0.224
-257.151	8.029	-0.110	0.083
-256.136	800.000	-0.042	0.161
-255.122	169.358	0.219	0.314
-254.107	298.213	-0.158	0.291
-253.092	310.369	0.040	-0.076
-252.078	-10.606	-0.368	-0.245
-251.063	-47.403	-0.246	-0.120
-250.049	-185.749	-0.263	-0.004
-249.034	-200.000	0.003	-0.108
-248.019	-130.051	0.076	0.010
-247.005	-28.490	0.130	0.075
-245.990	-60.079	-0.141	0.061
-244.976	-200.000	0.001	-0.125
-243.961	-200.000	0.034	-0.160
-242.946	165.597	0.096	-0.136
-241.932	31.304	0.309	0.266
-240.917	223.075	-0.128	0.207
-239.903	-116.205	-0.249	0.046
-238.888	800.000	-0.072	-0.230
-237.873	-8.939	-0.159	-0.107
-236.859	567.603	0.014	0.034
-235.844	-78.306	0.272	-0.094
-234.830	85.901	0.056	-0.061
-233.815	740.724	0.060	0.161
-232.800	-41.765	0.226	0.116
-231.786	-73.058	-0.372	-0.137
-230.771	196.315	-0.161	-0.247
-229.757	-142.693	-0.163	-0.016
-228.742	-4.904	0.242	0.167
-227.727	144.762	-0.115	0.154
-226.713	29.117	0.217	0.185
-225.698	-26.563	0.184	0.108
-224.684	-15.715	0.127	0.081
-223.669	-200.000	0.011	0.339
-222.655	-38.634	0.151	-0.080
-221.640	24.566	-0.195	0.162
-220.625	-200.000	0.040	-0.182
-219.611	-35.745	-0.127	-0.069
-218.596	-42.333	0.048	-0.024
-217.582	800.000	-0.037	0.121
-216.567	129.023	-0.114	0.146
-215.552	-200.000	-0.020	-0.266
-214.538	-144.569	0.165	0.015
-213.523	511.090	-0.072	0.169
-212.509	-100.698	0.287	-0.071
-211.494	-145.188	0.088	-0.008
-210.479	800.000	-0.069	0.277
-209.465	-56.100	0.154	0.069
-208.450	99.745	-0.221	0.256
-207.436	-13.750	0.117	0.076
-206.421	226.341	0.059	0.096
-205.406	13.484	0.227	-0.176
-204.392	170.594	-0.179	0.256
-203.377	-38.754	0.416	-0.220
-202.363	-200.000	-0.001	0.083
-201.348	-65.224	-0.200	0.081
-200.333	4.101	0.242	0.178
-199.319	10.983	-0.094	-0.072
-198.304	69.541	0.065	-0.067
-197.290	-94.945	-0.454	-0.123
-196.275	508.124	0.057	-0.133
-195.260	79.141	-0.033	0.036
-194.246	-80.025	0.037	0.012
-193.231	45.128	0.135	-0.125
-192.217	-147.011	-0.163	-0.014
-191.202	-140.745	-0.081	-0.008
-190.187	-200.000	-0.004	-0.092
-189.173	-36.396	-0.126	-0.068
-188.158	7.621	-0.039	-0.029
-187.144	27.960	-0.169	-0.143
-186.129	-118.105	0.410	0.073
-185.114	-200.000	0.035	0.284
-184.100	110.114	0.142	0.170
-183.085	76.932	0.329	-0.350
-182.071	-200.000	0.039	-0.301
-181.056	-178.830	-0.219	-0.005
-180.042	45.873	-0.089	0.082
-179.027	57.047	-0.135	0.132
-178.012	800.000	-0.054	0.169
-176.998	39.453	0.213	0.192
-175.983	800.000	0.077	0.251
-174.969	-115.098	0.192	-0.037
-173.954	24.659	-0.117	0.097
-172.939	800.000	0.090	0.363
-171.925	-120.636	0.079	0.013
-170.910	-27.638	-0.159	0.093
-169.896	800.000	-0.036	0.117
-168.881	340.214	-0.156	0.305
-167.866	106.670	-0.353	0.419
-166.852	-200.000	0.048	-0.367
-165.837	-200.000	0.013	-0.323
-164.823	800.000	0.045	-0.162
-163.808	-116.557	0.275	-0.051
-162.793	-200.000	-0.009	-0.083
-161.779	14.422	-0.190	0.149
-160.764	-18.905	0.331	-0.206
-159.750	-128.537	-0.152	0.022
-158.735	-129.625	0.070	-0.010
-157.720	-5.217	0.083	-0.057
-156.706	-200.000	0.008	-0.097
-155.691	311.612	-0.047	-0.088
-154.677	-89.418	-0.227	-0.067
-153.662	-200.000	0.020	-0.150
-152.647	-164.555	-0.262	0.012
-151.633	203.501	0.050	0.078
-150.618	-57.658	0.121	-0.053
-149.604	356.680	0.109	-0.217
-148.589	267.755	-0.100	-0.175
-147.574	377.486	-0.183	-0.375
-146.560	-125.703	-0.402	0.061
-145.545	-65.918	0.127	0.051
-144.531	800.000	-0.035	-0.100
-143.516	34.099	0.259	0.226
-142.502	-64.743	0.091	0.037
-141.487	-200.000	0.015	-0.157
-140.472	-65.298	0.080	0.032
-139.458	596.361	0.053	-0.131
-138.443	-82.436	0.031	0.010
-137.429	265.636	-0.048	0.084
-136.414	-200.000	0.002	0.095
-135.399	800.000	0.087	0.283
-134.385	-39.756	-0.087	-0.046
-133.370	-22.139	0.082	-0.050
-132.356	-116.532	-0.125	-0.023
-131.341	-57.181	-0.183	-0.081
-130.326	-200.000	0.043	0.204
-129.312	510.975	-0.074	0.172
-128.297	277.493	0.091	-0.162
-127.283	-7.009	0.137	0.093
-126.268	91.581	0.029	0.032
-125.253	-62.396	0.335	-0.139
-124.239	8.018	0.473	0.355
-123.224	86.613	0.162	-0.179
-122.210	388.247	0.050	-0.104
-121.195	-96.176	-0.228	0.061
-120.180	800.000	0.084	0.264
-119.166	-82.064	0.597	0.195
-118.151	-102.618	-0.217	-0.052
-117.137	-79.753	0.176	0.059
-116.122	180.661	-0.118	-0.173
-115.107	110.838	0.124	-0.149
-114.093	14.730	0.118	-0.092
-113.078	-200.000	0.061	0.313
-112.064	77.814	0.108	0.115
-111.049	800.000	0.019	-0.076
-110.034	-62.978	0.108	-0.045
-109.020	-123.794	0.253	-0.040
-108.005	-0.941	0.164	0.116
-106.991	89.127	-0.251	0.279
-105.976	-115.814	0.146	-0.027
-104.962	59.454	0.344	0.339
-103.947	22.206	-0.153	-0.124
-102.932	-200.000	0.009	0.393
-101.918	682.088	-0.019	0.049
-100.903	-187.712	0.188	-0.002
-99.889	-1.659	0.177	-0.124
-98.874	-146.939	-0.352	-0.030
-97.859	205.245	0.261	0.404
-96.845	98.447	-0.233	0.268
-95.830	14.001	0.130	-0.101
-94.816	-64.180	-0.045	0.018
-93.801	-94.048	-0.151	0.041
-92.786	-200.000	-0.003	0.229
-91.772	800.000	-0.043	-0.148
-90.757	-158.485	-0.306	0.018
-89.743	140.076	-0.091	-0.120
-88.728	-76.616	-0.104	0.037
-87.713	800.000	0.053	0.164
-86.699	119.959	0.110	0.136
-85.684	-95.466	0.208	-0.056
-84.670	18.697	0.086	0.068
-83.655	55.819	0.067	-0.064
-82.640	189.798	-0.087	-0.130
-81.626	202.158	0.064	0.098
-80.611	107.537	0.181	0.215
-79.597	800.000	-0.127	0.423
-78.582	102.425	0.137	0.160
-77.567	256.106	0.025	-0.042
-76.553	1.478	-0.155	0.112
-75.538	149.828	0.150	-0.203
-74.524	79.255	-0.052	-0.056
-73.509	-91.093	-0.197	-0.056
-72.494	-115.302	0.175	-0.033
-71.480	-5.145	0.163	0.112
-70.465	-200.000	0.010	-0.061
-69.451	800.000	0.062	-0.266
-68.436	-78.966	0.332	-0.113
-67.422	-33.138	0.180	-0.099
-66.407	83.415	-0.156	0.169
-65.392	-151.204	0.118	0.009
-64.378	-89.708	0.391	0.114
-63.363	595.966	0.026	-0.065
-62.349	-100.967	-0.053	-0.013
-61.334	29.230	-1.015	-0.859
-60.319	98.664	0.185	0.213
-59.305	362.774	-0.362	-0.724
-58.290	149.795	0.348	0.470
-57.276	441.701	0.723	1.576
-56.261	-200.000	81.620	495.180
-55.246	549.720	1361.939	3254.566
-54.232	182.239	2593.827	3809.965
-53.217	111.508	2387.748	2870.337
-52.203	45.525	2126.861	1957.325
-51.188	40.785	2035.029	1829.227
-50.173	39.150	2015.142	1796.353
-49.159	51.322	2056.677	1945.899
-48.144	54.864	2076.839	1997.620
-47.130	41.634	2040.072	1841.297
-46.115	39.221	2027.831	1808.030
-45.100	39.114	2024.896	1804.354
-44.086	39.075	2022.820	1802.080
-43.071	39.055	2020.568	1799.813
-42.057	38.977	2018.431	1797.131
-41.042	39.020	2016.586	1795.806
-40.027	39.027	2014.074	1793.566
-39.013	39.037	2012.410	1792.098
-37.998	39.074	2010.387	1790.568
-36.984	39.004	2008.750	1788.394
-35.969	39.052	2006.533	1786.794
-34.954	39.066	2004.786	1785.293
-33.940	39.036	2003.715	1783.994
-32.925	39.163	2001.285	1782.908
-31.911	39.179	2000.469	1782.262
-30.896	39.207	1997.994	1780.234
-29.881	39.186	1997.074	1779.159
-28.867	39.193	1994.954	1777.257
-27.852	39.224	1993.050	1775.773
-26.838	39.135	1991.356	1773.389
-25.823	39.184	1989.513	1772.120
-24.809	39.114	1988.210	1770.264
-23.794	39.261	1985.847	1769.411
-22.779	39.141	1984.052	1766.655
-21.765	39.173	1981.822	1764.889
-20.750	39.136	1980.687	1763.479
-19.736	39.118	1979.411	1762.108
-18.721	39.111	1977.685	1760.440
-17.706	39.121	1976.389	1759.307
-16.692	39.067	1974.466	1757.046
-15.677	39.085	1972.659	1755.524
-14.663	39.136	1971.460	1754.850
-13.648	39.232	1969.790	1754.147
-12.633	39.113	1968.920	1752.236
-11.619	39.118	1967.443	1750.903
-10.604	39.208	1965.978	1750.330
-9.590	39.137	1964.230	1748.067
-8.575	39.103	1963.016	1746.619
-7.560	39.089	1961.943	1745.471
-6.546	39.207	1960.255	1744.948
-5.531	39.102	1959.196	1743.007
-4.517	39.131	1957.783	1741.930
-3.502	39.064	1956.404	1740.043
-2.487	39.118	1955.228	1739.405
-1.473	39.122	1954.223	1738.482
-0.458	39.214	1949.593	1735.101
0.556	40.383	1929.675	1706.604
1.571	35.691	1907.922	1647.137
2.586	30.977	1928.960	1624.193
3.600	29.497	1965.213	1641.420
4.615	28.014	1960.446	1624.127
5.629	21.263	1854.171	1479.000
6.644	10.599	1728.686	1294.154
7.659	5.488	1687.321	1223.202
8.673	5.114	1683.890	1217.692
9.688	5.053	1682.279	1215.943
10.702	4.896	1681.187	1213.821
11.717	5.007	1678.180	1212.409
12.731	5.529	1677.929	1216.173
13.746	12.139	1694.155	1279.541
14.761	20.451	1711.662	1357.898
15.775	22.047	1711.970	1370.484
16.790	20.587	1708.380	1356.113
17.804	19.560	1704.723	1345.095
18.819	18.509	1701.089	1333.931
19.834	17.819	1699.078	1326.872
20.848	17.497	1697.131	1322.738
21.863	17.240	1695.873	1319.646
22.877	17.055	1694.090	1316.705
23.892	16.895	1692.848	1314.380
24.907	16.745	1691.865	1312.338
25.921	16.806	1690.799	1311.868
26.936	16.749	1690.161	1310.814
27.950	16.810	1688.677	1310.020
28.965	16.859	1688.083	1309.827
29.980	16.982	1687.494	1310.198
30.994	16.961	1686.605	1309.232
32.009	17.081	1685.374	1309.089
33.023	17.162	1684.546	1308.955
34.038	17.229	1683.561	1308.583
35.053	17.105	1682.292	1306.534
36.067	17.014	1681.198	1304.869
37.082	17.082	1679.906	1304.268
38.096	16.983	1678.835	1302.561
39.111	17.085	1678.108	1302.667
40.126	17.065	1677.379	1301.834
41.140	16.969	1676.667	1300.425
42.155	16.871	1675.184	1298.414
43.169	16.760	1673.466	1296.118
44.184	16.678	1672.205	1294.400
45.199	16.626	1670.918	1292.888
46.213	16.619	1669.983	1291.999
47.228	16.760	1668.313	1291.669
48.242	16.743	1667.240	1290.593
49.257	16.928	1666.438	1291.270
50.271	16.938	1665.549	1290.540
51.286	16.836	1664.413	1288.766
52.301	16.841	1662.745	1287.403
53.315	16.982	1661.285	1287.227
54.330	16.917	1659.779	1285.456
55.344	16.752	1658.225	1282.889
56.359	16.719	1656.709	1281.348
57.374	16.693	1655.756	1280.301
58.388	16.760	1654.770	1279.935
59.403	16.747	1652.914	1278.287
60.417	16.665	1651.811	1276.703
61.432	16.623	1650.878	1275.556
62.447	16.744	1649.279	1275.116
63.461	16.607	1648.308	1273.218
64.476	16.635	1647.125	1272.403
65.490	16.543	1646.171	1270.864
66.505	16.523	1644.749	1269.504
67.520	16.505	1643.474	1268.270
68.534	16.600	1642.158	1267.854
69.549	16.644	1641.946	1267.914
70.563	16.623	1640.925	1266.855
71.578	16.578	1639.220	1265.084
72.593	16.554	1638.473	1264.218
73.607	16.514	1636.694	1262.438
74.622	16.423	1635.739	1260.906
75.636	16.418	1635.092	1260.264
76.651	16.363	1634.688	1259.430
77.666	16.382	1633.545	1258.577
78.680	16.391	1632.877	1258.023
79.695	16.385	1632.007	1257.194
80.709	16.587	1630.366	1257.317
81.724	16.642	1629.590	1257.017
82.739	16.696	1629.583	1257.304
83.753	16.694	1628.512	1256.353
84.768	16.753	1627.273	1255.724
85.782	16.921	1626.481	1256.242
86.797	16.994	1625.657	1256.036
87.812	17.021	1625.163	1255.746
88.826	16.889	1623.708	1253.534
89.841	16.917	1621.773	1252.135
90.855	16.959	1621.650	1252.237
91.870	16.901	1620.412	1250.742
92.884	17.020	1619.434	1250.756
93.899	16.967	1618.802	1249.763
94.914	16.995	1617.158	1248.595
95.928	17.063	1615.832	1247.958
96.943	17.084	1614.119	1246.675
97.957	17.026	1613.494	1245.662
98.972	16.991	1611.526	1243.776
99.987	16.950	1610.342	1242.452
101.001	16.924	1608.900	1241.035
102.016	16.888	1607.491	1239.578
103.030	16.939	1605.709	1238.462
104.045	16.989	1604.851	1238.061
105.060	17.011	1603.166	1236.809
106.074	16.885	1601.926	1234.829
107.089	16.847	1600.196	1233.109
108.103	16.661	1598.279	1230.166
109.118	16.524	1597.033	1228.103
110.133	16.505	1596.045	1227.097
111.147	16.579	1594.014	1225.966
112.162	16.641	1592.733	1225.322
113.176	16.707	1590.836	1224.229
114.191	16.600	1590.108	1222.790
115.206	16.799	1588.466	1222.858
116.220	16.655	1587.825	1221.217
117.235	16.692	1586.077	1220.028
118.249	16.681	1584.954	1218.977
119.264	16.698	1583.903	1218.183
120.279	16.682	1582.000	1216.497
121.293	16.575	1580.807	1214.701
122.308	16.563	1579.224	1213.292
123.322	16.562	1577.850	1212.120
124.337	16.506	1576.669	1210.709
125.352	16.511	1575.043	1209.388
126.366	16.539	1573.771	1208.502
127.381	16.513	1572.942	1207.576
128.395	16.479	1571.793	1206.344
129.410	16.525	1570.822	1205.820
130.424	16.530	1569.392	1204.652
131.439	16.576	1567.910	1203.735
132.454	16.582	1566.991	1202.963
133.468	16.673	1565.305	1202.213
134.483	16.721	1563.931	1201.387
135.497	16.735	1562.430	1200.227
136.512	16.804	1561.574	1199.956
137.527	16.835	1559.418	1198.413
138.541	16.801	1558.973	1197.722
139.556	16.898	1556.983	1196.773
140.570	16.811	1555.900	1195.217
141.585	16.873	1554.804	1194.709
142.600	17.014	1553.665	1194.724
143.614	17.126	1552.127	1194.221
144.629	17.069	1550.987	1192.841
145.643	17.136	1549.911	1192.374
146.658	17.151	1548.547	1191.327
147.673	17.154	1546.858	1189.939
148.687	16.984	1545.345	1187.479
149.702	16.982	1543.849	1186.212
150.716	16.890	1541.846	1183.931
151.731	16.952	1540.309	1183.076
152.746	16.798	1539.643	1181.384
153.760	16.871	1537.880	1180.437
154.775	16.883	1536.987	1179.727
155.789	16.972	1535.707	1179.264
156.804	17.028	1534.466	1178.597
157.819	17.002	1533.500	1177.569
158.833	17.080	1532.317	1177.092
159.848	17.163	1531.163	1176.681
160.862	17.273	1529.911	1176.374
161.877	17.277	1528.534	1175.240
162.892	17.146	1527.560	1173.479
163.906	17.024	1526.097	1171.409
164.921	16.983	1524.557	1169.843
165.935	16.907	1524.112	1168.875
166.950	16.871	1523.185	1167.815
167.964	16.959	1521.802	1167.255
168.979	17.023	1521.064	1167.026
169.994	16.979	1520.004	1165.806
171.008	17.051	1518.592	1165.111
172.023	17.075	1517.617	1164.424
173.037	17.033	1516.598	1163.256
174.052	17.144	1515.730	1163.246
175.067	17.195	1514.799	1162.777
176.081	17.118	1513.260	1160.968
177.096	17.046	1511.662	1159.149
178.110	17.007	1510.260	1157.701
179.125	17.026	1509.424	1157.088
180.140	17.046	1508.397	1156.335
181.154	17.049	1507.339	1155.441
182.169	17.014	1506.669	1154.586
183.183	17.180	1504.960	1154.308
184.198	17.278	1503.908	1154.064
185.213	17.273	1503.217	1153.399
186.227	17.312	1501.963	1152.594
187.242	17.321	1500.996	1151.811
188.256	17.374	1499.816	1151.165
189.271	17.414	1498.836	1150.578
190.286	17.468	1497.875	1150.106
191.300	17.453	1497.036	1149.262
192.315	17.178	1495.461	1146.093
193.329	17.035	1493.451	1143.490
194.344	16.934	1492.641	1142.083
195.359	17.082	1491.828	1142.357
196.373	17.058	1491.145	1141.572
197.388	17.244	1489.962	1141.817
198.402	17.365	1488.812	1141.645
199.417	17.411	1487.976	1141.213
200.432	17.476	1487.251	1140.992
201.446	17.633	1485.840	1140.858
202.461	17.616	1485.077	1140.059
203.475	17.605	1484.536	1139.467
204.490	17.740	1483.078	1139.151
205.504	17.639	1481.871	1137.452
206.519	17.537	1480.514	1135.628
207.534	17.549	1479.078	1134.508
208.548	17.513	1477.847	1133.221
209.563	17.550	1476.809	1132.569
210.577	17.555	1475.981	1131.871
211.592	17.577	1474.995	1131.155
212.607	17.525	1474.525	1130.352
213.621	17.662	1473.864	1130.658
214.636	17.804	1472.305	1130.299
215.650	17.780	1471.656	1129.545
216.665	17.648	1471.049	1128.102
217.680	17.624	1470.266	1127.245
218.694	17.638	1469.652	1126.765
219.709	17.771	1468.687	1126.804
220.723	17.860	1467.266	1126.203
221.738	17.776	1466.751	1125.151
222.753	17.906	1464.984	1124.553
223.767	17.868	1464.319	1123.693
224.782	17.802	1463.423	1122.472
225.796	17.837	1462.866	1122.174
226.811	17.998	1461.425	1122.029
227.826	17.935	1460.761	1121.005
228.840	17.915	1460.326	1120.442
229.855	17.851	1459.468	1119.266
230.869	17.887	1457.754	1118.088
231.884	17.795	1456.918	1116.748
232.899	17.691	1456.053	1115.306
233.913	17.733	1454.460	1114.257
234.928	17.805	1453.299	1113.740
235.942	17.687	1451.865	1111.773
236.957	17.678	1450.498	1110.572
237.972	17.702	1449.817	1110.106
238.986	17.758	1448.602	1109.445
240.001	17.683	1448.238	1108.580
241.015	17.715	1446.618	1107.450
242.030	17.797	1445.521	1107.040
243.045	17.801	1444.887	1106.487
244.059	17.994	1443.459	1106.544
245.074	17.943	1443.424	1106.087
246.088	17.885	1442.535	1104.936
247.103	17.950	1441.696	1104.611
248.117	18.019	1440.911	1104.360
249.132	18.172	1439.819	1104.413
250.147	18.158	1439.695	1104.129
251.161	18.235	1439.065	1104.045
252.176	18.360	1438.623	1104.416
253.190	18.419	1437.896	1104.139
254.205	18.459	1436.993	1103.605
255.220	18.491	1435.966	1102.928
256.234	18.578	1435.022	1102.665
257.249	18.533	1434.561	1101.921
258.263	18.532	1433.264	1100.822
259.278	18.536	1432.582	1100.229
260.293	18.644	1431.498	1099.992
261.307	18.599	1430.577	1098.897
262.322	18.686	1429.667	1098.658
263.336	18.640	1429.093	1097.822
264.351	18.728	1427.941	1097.403
265.366	18.665	1427.132	1096.282
266.380	18.704	1426.276	1095.776
267.395	18.704	1425.119	1094.793
268.409	18.697	1424.428	1094.116
269.424	18.763	1422.876	1093.253
270.439	18.678	1422.047	1091.978
271.453	18.682	1421.058	1091.146
272.468	18.509	1421.173	1090.039
273.482	18.610	1420.061	1089.728
274.497	18.486	1419.242	1088.220
275.512	18.544	1418.169	1087.663
276.526	18.545	1417.249	1086.868
277.541	18.554	1416.005	1085.879
278.555	18.592	1415.057	1085.292
279.570	18.731	1414.337	1085.527
280.585	18.657	1413.937	1084.654
281.599	18.739	1412.905	1084.282
282.614	18.822	1411.836	1083.893
283.628	18.784	1410.863	1082.812
284.643	18.799	1409.344	1081.645
285.657	18.704	1408.444	1080.262
286.672	18.722	1407.505	1079.558
287.687	18.684	1406.874	1078.740
288.701	18.746	1405.731	1078.154
289.716	18.828	1404.706	1077.785
290.730	18.824	1404.137	1077.230
291.745	18.799	1402.825	1075.973
292.760	18.845	1402.046	1075.570
293.774	18.820	1401.436	1074.848
294.789	18.875	1400.111	1074.084
295.803	18.881	1399.445	1073.511
296.818	18.997	1398.447	1073.378
297.833	18.906	1397.497	1071.982
298.847	18.835	1396.498	1070.683
299.862	18.825	1395.606	1069.842
300.876	18.836	1394.790	1069.189
301.891	18.961	1393.084	1068.563
302.906	18.889	1392.915	1067.888
303.920	19.095	1391.913	1068.306
304.935	19.067	1391.606	1067.805
305.949	19.208	1390.385	1067.645
306.964	19.223	1390.048	1067.385
307.979	19.260	1388.889	1066.631
308.993	19.166	1388.094	1065.343
310.008	19.152	1387.015	1064.336
311.022	19.197	1385.724	1063.527
312.037	19.212	1384.754	1062.783
313.052	19.325	1383.793	1062.646
314.066	19.210	1382.781	1061.069
315.081	19.144	1381.542	1059.619
316.095	19.078	1380.415	1058.250
317.110	19.032	1379.982	1057.541
318.125	19.013	1378.759	1056.400
319.139	19.065	1377.861	1055.936
320.154	19.028	1377.080	1055.014
321.168	18.968	1375.779	1053.555
322.183	19.018	1374.818	1053.037
323.197	19.010	1373.341	1051.764
324.212	19.076	1373.207	1051.968
325.227	19.236	1372.270	1052.135
326.241	19.263	1371.067	1051.282
327.256	19.141	1370.475	1049.993
328.270	19.205	1369.679	1049.678
329.285	19.085	1368.884	1048.245
330.300	19.114	1368.056	1047.698
331.314	19.230	1366.813	1047.357
332.329	19.102	1365.733	1045.661
333.343	19.137	1365.167	1045.348
334.358	19.235	1363.978	1044.937
335.373	19.327	1362.995	1044.652
336.387	19.315	1362.742	1044.293
337.402	19.340	1361.839	1043.656
338.416	19.330	1361.256	1043.060
339.431	19.420	1360.589	1043.002
340.446	19.463	1360.207	1042.876
341.460	19.506	1359.039	1042.148
342.475	19.644	1357.979	1042.076
343.489	19.714	1356.989	1041.643
344.504	19.669	1356.270	1040.731
345.519	19.682	1355.313	1039.979
346.533	19.788	1353.946	1039.478
347.548	19.822	1353.528	1039.268
348.562	19.754	1353.052	1038.404
349.577	19.843	1352.166	1038.162
350.592	19.840	1351.007	1037.167
351.606	19.642	1350.248	1035.303
352.621	19.585	1349.154	1034.031
353.635	19.683	1347.828	1033.509
354.650	19.573	1346.860	1032.023
355.665	19.490	1346.291	1030.999
356.679	19.525	1344.971	1030.102
357.694	19.592	1343.697	1029.438
358.708	19.713	1342.511	1029.158
359.723	19.703	1341.725	1028.406
360.738	19.783	1340.557	1027.890
361.752	19.687	1339.758	1026.618
362.767	19.865	1338.195	1026.388
363.781	19.817	1337.076	1025.156
364.796	19.719	1336.982	1024.407
365.810	19.737	1336.547	1024.092
366.825	19.930	1335.525	1024.360
367.840	20.001	1334.931	1024.231
368.854	20.061	1334.000	1023.783
369.869	20.083	1334.135	1023.926
370.883	20.069	1333.342	1023.146
371.898	20.039	1332.726	1022.405
372.913	20.037	1331.874	1021.650
373.927	20.155	1330.335	1021.070
374.942	20.072	1329.317	1019.712
375.956	20.081	1328.885	1019.342
376.971	20.149	1328.154	1019.093
377.986	20.114	1327.471	1018.273
379.000	20.197	1326.393	1017.842
380.015	20.169	1326.100	1017.364
381.029	20.311	1325.024	1017.281
382.044	20.352	1324.490	1017.020
383.059	20.380	1323.823	1016.582
384.073	20.317	1323.032	1015.517
385.088	20.302	1322.230	1014.726
386.102	20.364	1322.005	1014.824
387.117	20.331	1320.796	1013.613
388.132	20.449	1319.792	1013.439
389.146	20.333	1319.120	1012.161
390.161	20.160	1318.632	1010.690
391.175	20.156	1317.787	1009.925
392.190	20.191	1316.743	1009.243
393.205	20.215	1316.242	1008.905
394.219	20.331	1314.932	1008.487
395.234	20.435	1313.675	1008.038
396.248	20.330	1312.594	1006.508
397.263	20.255	1311.170	1004.896
398.278	20.266	1309.846	1003.852
399.292	20.318	1308.698	1003.184
400.307	20.264	1307.538	1001.894
401.321	20.215	1306.330	1000.600
402.336	20.170	1305.293	999.459
403.350	20.223	1304.265	998.886
404.365	20.281	1303.459	998.513
405.380	20.216	1302.486	997.309
406.394	20.356	1301.810	997.505
407.409	20.388	1300.996	996.979
408.423	20.430	1300.733	996.929
409.438	20.467	1300.154	996.613
410.453	20.587	1299.517	996.719
411.467	20.569	1298.795	995.977
412.482	20.650	1298.009	995.748
413.496	20.721	1297.237	995.474
414.511	20.755	1296.718	995.182
415.526	20.763	1295.891	994.504
416.540	20.727	1295.581	993.974
417.555	20.919	1294.303	994.002
418.569	20.879	1293.800	993.300
419.584	20.863	1293.182	992.648
420.599	20.782	1292.704	991.732
421.613	137.083	1423.689	1762.496
422.628	132.670	1442.780	1762.633
