DTS Sentinel unit serial number:	SN413079Multiplexer serial number:	ORYXHardware model number:	OX4-SRSoftware version number:	ORYX F/W v4.00 Oryx Data Collector v3.7.2.0data status	okinstallation	princeton_trtdifferential loss correction	single-endedforward channel	channel 4reverse channel	N/Adate	2019/09/15time	18:13:35forward acquisition time	60.00reverse acquisition time	0.00gamma	496.2192k internal	0.2275k external	0.2275temperature offset calibration	0.9918default loss term (dB/km)	0.3790temperature slope calibration	1.0000multiplexer offset coefficient	1.0000multiplexer slope coefficient	1.0000fibre end	0.00T internal ref (°C)	44.53T ext. ref 1 (°C)	6.58T ext. ref 2 (°C)	38.95length (m)	temperature (°C)	Stokes	anti-Stokes-747.200	-200.000	0.026	0.122
-746.185	-83.211	0.249	0.083
-745.171	13.609	-0.101	0.081
-744.156	800.000	0.050	-0.196
-743.142	-25.610	-0.354	-0.216
-742.127	-200.000	0.068	0.332
-741.112	800.000	0.052	-0.189
-740.098	800.000	0.119	0.493
-739.083	800.000	-0.075	-0.285
-738.069	-58.102	-0.351	-0.158
-737.054	-66.263	-0.195	-0.080
-736.039	46.299	0.113	-0.108
-735.025	-9.039	0.313	0.216
-734.010	-63.969	-0.114	-0.048
-732.996	-115.101	-0.097	-0.019
-731.981	414.478	-0.079	-0.174
-730.966	143.745	0.207	0.285
-729.952	800.000	-0.031	0.118
-728.937	615.055	0.035	-0.091
-727.923	54.421	-0.083	-0.082
-726.908	-121.383	-0.233	0.040
-725.894	-100.105	-0.090	0.023
-724.879	-200.000	0.133	-0.702
-723.864	159.384	-0.206	0.295
-722.850	408.574	0.085	0.186
-721.835	12.517	-0.110	0.087
-720.821	223.534	-0.166	0.276
-719.806	212.033	-0.152	-0.246
-718.791	-200.000	0.001	0.068
-717.777	129.085	0.169	0.222
-716.762	-143.005	-0.201	-0.020
-715.748	-150.880	0.279	0.022
-714.733	-48.506	-0.325	-0.161
-713.718	139.392	0.196	0.265
-712.704	128.777	-0.266	0.349
-711.689	564.206	-0.128	0.320
-710.675	-136.094	-0.333	-0.040
-709.660	-200.000	-0.005	-0.086
-708.645	143.143	0.075	-0.103
-707.631	218.085	-0.049	-0.080
-706.616	93.062	-0.026	0.031
-705.602	-200.000	0.010	0.093
-704.587	-117.862	-0.235	-0.043
-703.572	-197.600	0.248	-0.002
-702.558	-100.760	0.117	0.030
-701.543	-100.942	0.191	-0.048
-700.529	-37.230	-0.213	-0.117
-699.514	-60.398	-0.119	0.052
-698.499	75.203	0.043	-0.047
-697.485	40.790	0.247	-0.229
-696.470	293.279	0.148	-0.278
-695.456	175.874	0.182	-0.273
-694.441	722.823	0.038	-0.105
-693.426	-52.892	-0.244	-0.116
-692.412	139.326	-0.050	0.067
-691.397	-200.000	0.016	-0.386
-690.383	74.702	0.250	-0.271
-689.368	381.398	0.082	0.174
-688.354	571.811	0.053	-0.134
-687.339	-45.152	-0.203	-0.104
-686.324	93.860	-0.121	-0.142
-685.310	-10.376	-0.220	0.150
-684.295	-43.108	-0.197	0.103
-683.281	35.352	-0.072	0.065
-682.266	-200.000	0.025	-0.223
-681.251	-30.037	-0.030	0.017
-680.237	71.966	-0.083	-0.088
-679.222	-10.450	0.188	0.128
-678.208	-163.092	0.080	0.004
-677.193	800.000	-0.076	-0.302
-676.178	716.765	0.058	-0.158
-675.164	77.952	0.021	0.024
-674.149	157.088	-0.172	-0.245
-673.135	800.000	0.118	-0.412
-672.120	-200.000	-0.004	0.182
-671.105	-12.025	-0.289	-0.195
-670.091	-23.286	-0.140	0.086
-669.076	-1.701	0.142	0.103
-668.062	758.621	0.129	-0.359
-667.047	800.000	-0.060	-0.173
-666.032	48.558	0.208	0.201
-665.018	-200.000	0.022	-0.115
-664.003	-92.434	0.222	-0.064
-662.989	-121.287	0.109	-0.019
-661.974	-200.000	-0.001	0.306
-660.959	471.442	-0.013	-0.029
-659.945	800.000	0.125	-0.493
-658.930	-97.630	0.219	-0.058
-657.916	-200.000	0.026	0.208
-656.901	22.876	-0.040	-0.033
-655.886	525.807	0.040	-0.097
-654.872	378.200	-0.081	-0.169
-653.857	-170.723	-0.301	0.011
-652.843	-102.643	0.040	-0.010
-651.828	131.317	0.160	-0.212
-650.814	800.000	0.114	-0.363
-649.799	66.807	-0.087	0.091
-648.784	-200.000	0.017	-0.252
-647.770	63.578	-0.260	0.268
-646.755	-200.000	-0.055	-0.346
-645.741	-30.172	0.074	-0.043
-644.726	328.397	-0.015	0.029
-643.711	224.869	-0.087	-0.145
-642.697	-67.302	-0.344	-0.139
-641.682	4.114	0.135	0.102
-640.668	70.532	-0.267	-0.283
-639.653	771.599	-0.004	-0.012
-638.638	-200.000	0.002	0.164
-637.624	773.004	0.053	0.149
-636.609	1.481	0.090	-0.066
-635.595	-73.616	0.166	-0.062
-634.580	800.000	-0.096	-0.275
-633.565	-33.043	-0.248	0.141
-632.551	800.000	0.067	-0.273
-631.536	-75.160	0.206	-0.076
-630.522	-200.000	-0.005	0.176
-629.507	-136.608	0.427	0.051
-628.492	109.909	0.149	0.184
-627.478	-200.000	-0.022	0.103
-626.463	-117.670	-0.111	0.021
-625.449	-121.219	-0.242	-0.042
-624.434	800.000	-0.075	-0.251
-623.419	-130.559	-0.080	-0.011
-622.405	749.201	-0.069	0.190
-621.390	44.777	0.099	-0.093
-620.376	95.838	-0.068	-0.080
-619.361	-38.468	0.536	-0.291
-618.346	-106.429	0.233	-0.053
-617.332	-55.410	0.109	-0.050
-616.317	-4.112	-0.308	0.219
-615.303	678.698	0.120	-0.322
-614.288	341.268	0.045	0.091
-613.273	-97.963	-0.317	-0.084
-612.259	-179.553	-0.175	0.004
-611.244	-58.174	0.098	-0.044
-610.230	-200.000	-0.001	-0.022
-609.215	-126.901	0.088	0.013
-608.201	-144.377	-0.068	0.006
-607.186	147.866	0.023	0.032
-606.171	800.000	0.063	0.225
-605.157	-22.025	-0.123	-0.077
-604.142	316.417	0.046	-0.088
-603.128	-200.000	-0.002	-0.484
-602.113	4.965	0.118	-0.089
-601.098	116.987	0.042	-0.053
-600.084	-200.000	0.010	0.095
-599.069	-162.547	-0.525	0.027
-598.055	519.270	-0.135	-0.324
-597.040	-189.889	-0.219	-0.003
-596.025	348.727	0.049	-0.100
-595.011	4.256	0.249	-0.187
-593.996	-57.382	-0.146	-0.066
-592.982	800.000	0.041	0.159
-591.967	-86.613	0.295	0.093
-590.952	-200.000	-0.044	0.290
-589.938	106.749	0.268	0.326
-588.923	2.327	-0.123	0.091
-587.909	-94.857	-0.484	0.134
-586.894	49.794	0.084	0.081
-585.879	149.516	0.110	-0.153
-584.865	62.962	0.199	-0.204
-583.850	88.886	-0.233	0.266
-582.836	-123.688	-0.105	-0.017
-581.821	-200.000	-0.021	-0.154
-580.806	800.000	-0.125	0.421
-579.792	-11.530	0.203	0.137
-578.777	-91.640	0.054	-0.016
-577.763	-167.396	-0.221	0.009
-576.748	9.412	0.181	-0.140
-575.733	-200.000	-0.020	0.137
-574.719	18.040	0.229	0.187
-573.704	-64.823	0.243	0.101
-572.690	-109.680	0.199	0.043
-571.675	92.786	-0.142	0.164
-570.661	335.767	-0.101	0.202
-569.646	-52.947	-0.126	-0.059
-568.631	202.003	0.179	-0.283
-567.617	-200.000	-0.037	-0.184
-566.602	-200.000	-0.000	0.382
-565.588	-61.605	-0.123	-0.053
-564.573	-76.279	0.134	0.048
-563.558	29.190	0.193	-0.168
-562.544	-200.000	0.028	0.161
-561.529	800.000	-0.129	-0.442
-560.515	-161.943	-0.310	-0.016
-559.500	654.774	-0.073	-0.192
-558.485	-200.000	0.015	0.220
-557.471	-199.250	-0.121	0.001
-556.456	-200.000	0.036	-0.176
-555.442	-47.620	-0.204	-0.101
-554.427	119.800	-0.305	-0.387
-553.412	800.000	-0.035	-0.109
-552.398	263.389	0.203	0.361
-551.383	158.438	0.099	-0.141
-550.369	314.979	0.055	-0.105
-549.354	-127.156	-0.098	0.015
-548.339	250.941	0.086	-0.150
-547.325	244.388	-0.089	0.153
-546.310	-30.141	-0.262	0.152
-545.296	-107.624	-0.117	0.026
-544.281	-200.000	-0.009	0.086
-543.266	-20.895	-0.043	-0.027
-542.252	10.476	-0.009	0.007
-541.237	800.000	-0.050	0.205
-540.223	-31.745	-0.025	-0.015
-539.208	800.000	0.121	-0.359
-538.193	49.607	0.175	-0.169
-537.179	-200.000	0.010	0.370
-536.164	-8.822	0.291	-0.200
-535.150	-41.518	0.322	-0.170
-534.135	-121.161	-0.252	0.043
-533.121	-130.916	0.161	-0.022
-532.106	111.050	0.047	0.057
-531.091	-165.735	-0.052	-0.002
-530.077	4.287	-0.070	-0.053
-529.062	-119.926	0.144	-0.025
-528.048	800.000	-0.065	-0.190
-527.033	156.244	0.185	0.261
-526.018	-200.000	-0.004	0.072
-525.004	278.142	-0.091	-0.166
-523.989	63.010	-0.106	0.108
-522.975	-137.026	0.209	0.024
-521.960	-42.428	0.334	0.174
-520.945	-31.361	0.251	0.145
-519.931	800.000	0.052	-0.173
-518.916	-61.457	-0.381	0.164
-517.902	-143.600	0.032	0.003
-516.887	718.602	-0.132	-0.359
-515.872	87.648	-0.061	0.069
-514.858	-55.187	0.233	0.107
-513.843	-10.829	-0.474	-0.320
-512.829	-50.843	-0.254	0.122
-511.814	122.650	0.110	0.141
-510.799	-97.878	0.151	-0.040
-509.785	-52.767	-0.244	-0.115
-508.770	525.378	0.068	-0.164
-507.756	-200.000	-0.026	0.265
-506.741	347.482	0.041	0.082
-505.726	-200.000	-0.026	-0.131
-504.712	-109.811	-0.117	-0.025
-503.697	-20.260	-0.080	-0.050
-502.683	-106.635	-0.250	-0.057
-501.668	176.787	-0.045	-0.066
-500.653	-129.653	-0.107	-0.015
-499.639	-118.206	0.143	0.026
-498.624	9.302	-0.250	-0.193
-497.610	30.457	-0.068	0.059
-496.595	800.000	-0.097	0.434
-495.581	103.485	-0.037	0.045
-494.566	-200.000	-0.102	-0.515
-493.551	612.405	0.086	0.220
-492.537	-86.759	-0.272	-0.085
-491.522	26.990	0.260	0.223
-490.508	-200.000	0.051	0.306
-489.493	-104.380	-0.109	-0.026
-488.478	80.851	0.103	-0.113
-487.464	-200.000	0.045	-0.297
-486.449	800.000	-0.053	0.169
-485.435	-200.000	0.015	0.116
-484.420	-16.525	0.265	0.172
-483.405	2.254	-0.129	-0.095
-482.391	-139.481	-0.130	0.014
-481.376	218.232	0.191	-0.312
-480.362	124.354	-0.201	0.258
-479.347	-197.260	0.254	-0.002
-478.332	-200.000	-0.037	0.244
-477.318	82.168	-0.125	0.139
-476.303	-125.086	0.176	0.028
-475.289	4.538	-0.204	0.153
-474.274	-200.000	-0.009	-0.076
-473.259	-97.140	0.149	-0.040
-472.245	-70.078	-0.517	0.201
-471.230	559.780	0.190	-0.468
-470.216	-200.000	0.003	-0.090
-469.201	-200.000	0.003	0.270
-468.186	189.673	0.119	0.182
-467.172	-141.201	0.129	-0.013
-466.157	-63.775	-0.257	0.107
-465.143	800.000	0.042	-0.177
-464.128	-200.000	-0.014	-0.277
-463.113	-89.626	0.063	0.019
-462.099	2.327	-0.172	-0.127
-461.084	-59.847	-0.322	0.141
-460.070	-200.000	0.014	-0.112
-459.055	209.843	-0.067	-0.107
-458.040	70.634	0.127	-0.134
-457.026	79.889	0.097	-0.107
-456.011	106.705	0.050	-0.061
-454.997	-200.000	0.011	0.308
-453.982	12.525	-0.106	0.084
-452.968	246.516	-0.032	-0.054
-451.953	90.650	0.169	-0.193
-450.938	294.369	0.135	0.252
-449.924	-200.000	-0.034	0.416
-448.909	260.817	0.123	-0.216
-447.895	77.352	0.153	-0.166
-446.880	-87.843	0.175	0.054
-445.865	96.755	0.089	0.104
-444.851	800.000	-0.021	-0.091
-443.836	-123.769	0.194	-0.031
-442.822	-126.761	-0.407	0.061
-441.807	376.329	0.042	-0.087
-440.792	228.787	0.143	-0.237
-439.778	57.088	-0.171	0.170
-438.763	-111.321	0.031	-0.006
-437.749	-200.000	0.008	-0.157
-436.734	21.086	-0.129	0.107
-435.719	73.657	0.368	0.393
-434.705	-200.000	-0.000	-0.409
-433.690	-32.766	0.206	-0.117
-432.676	-61.590	0.260	0.111
-431.661	428.370	-0.039	-0.085
-430.646	800.000	-0.054	0.181
-429.632	145.448	0.220	0.300
-428.617	459.152	-0.054	-0.121
-427.603	-200.000	-0.031	0.248
-426.588	82.957	-0.083	-0.092
-425.573	-200.000	0.001	-0.106
-424.559	237.206	0.093	0.158
-423.544	-189.073	-0.129	-0.002
-422.530	393.855	0.046	0.098
-421.515	-200.000	0.010	-0.105
-420.500	800.000	0.028	-0.080
-419.486	-119.954	0.306	-0.054
-418.471	-186.963	-0.136	0.002
-417.457	91.913	0.097	0.111
-416.442	-38.192	0.400	0.216
-415.428	-92.990	0.231	-0.066
-414.413	800.000	0.011	-0.038
-413.398	136.055	0.189	-0.251
-412.384	-68.898	-0.165	0.065
-411.369	330.791	0.140	-0.274
-410.355	-72.128	-0.133	0.050
-409.340	-66.001	0.321	-0.130
-408.325	10.086	0.150	0.116
-407.311	49.636	0.190	-0.182
-406.296	-6.846	-0.233	0.161
-405.282	397.439	-0.009	-0.018
-404.267	185.357	0.107	-0.161
-403.252	-200.000	0.006	-0.176
-402.238	-200.000	-0.017	-0.132
-401.223	-66.521	0.114	-0.046
-400.209	-72.535	-0.080	0.030
-399.194	800.000	-0.091	-0.398
-398.179	254.990	-0.042	0.073
-397.165	650.062	-0.057	-0.149
-396.150	100.427	-0.158	0.187
-395.136	-200.000	-0.023	0.223
-394.121	187.075	-0.117	0.178
-393.106	-200.000	0.018	-0.183
-392.092	636.684	-0.173	0.448
-391.077	17.504	-0.087	-0.071
-390.063	-101.466	0.372	-0.092
-389.048	-200.000	0.007	0.040
-388.033	162.049	-0.034	0.048
-387.019	5.806	0.014	-0.011
-386.004	-200.000	-0.006	-0.195
-384.990	-200.000	0.015	-0.146
-383.975	-200.000	-0.007	0.143
-382.960	90.201	0.196	0.223
-381.946	181.682	-0.205	-0.307
-380.931	531.099	-0.077	-0.185
-379.917	-200.000	0.045	-0.346
-378.902	425.560	0.059	-0.129
-377.888	-47.735	0.220	-0.108
-376.873	-200.000	-0.014	0.125
-375.858	-100.266	0.285	-0.072
-374.844	56.592	0.204	0.202
-373.829	54.197	-0.327	0.320
-372.815	800.000	0.129	0.549
-371.800	-200.000	0.022	0.138
-370.785	267.192	-0.059	0.104
-369.771	3.450	-0.087	0.064
-368.756	-163.512	0.115	0.006
-367.742	14.222	0.048	0.038
-366.727	800.000	-0.213	-0.667
-365.712	800.000	0.089	-0.327
-364.698	-38.167	0.247	0.133
-363.683	6.372	0.218	-0.165
-362.669	-200.000	0.060	0.391
-361.654	544.433	-0.100	0.242
-360.639	-200.000	-0.006	-0.188
-359.625	35.167	0.114	-0.101
-358.610	329.454	-0.149	-0.292
-357.596	127.035	-0.047	-0.061
-356.581	11.284	0.075	0.059
-355.566	-43.180	-0.271	0.140
-354.552	304.702	-0.129	-0.244
-353.537	-179.131	0.040	-0.001
-352.523	27.499	-0.151	-0.129
-351.508	283.613	0.048	-0.087
-350.493	800.000	-0.030	0.093
-349.479	-200.000	-0.059	0.294
-348.464	108.513	0.077	0.093
-347.450	-200.000	-0.070	0.420
-346.435	-131.913	0.304	-0.040
-345.420	10.718	-0.309	-0.240
-344.406	-200.000	0.030	-0.317
-343.391	-119.205	-0.199	0.035
-342.377	-70.618	0.163	0.063
-341.362	-115.691	0.257	0.049
-340.348	-200.000	-0.058	0.298
-339.333	-200.000	0.055	-0.271
-338.318	52.292	-0.089	0.086
-337.304	-117.328	-0.328	0.060
-336.289	266.891	-0.058	-0.103
-335.275	-200.000	0.295	-0.000
-334.260	242.875	0.174	-0.296
-333.245	-40.954	-0.067	-0.035
-332.231	-200.000	0.045	-0.231
-331.216	800.000	0.060	0.196
-330.202	38.149	-0.075	-0.068
-329.187	373.502	-0.060	0.125
-328.172	-77.453	-0.365	-0.129
-327.158	0.666	0.103	-0.075
-326.143	800.000	0.029	0.126
-325.129	36.696	-0.252	0.226
-324.114	-87.918	-0.221	0.068
-323.099	190.611	0.110	-0.168
-322.085	420.486	0.079	-0.172
-321.070	272.947	0.140	-0.250
-320.056	398.989	-0.020	-0.042
-319.041	800.000	0.012	0.052
-318.026	-200.000	0.061	-0.284
-317.012	-75.782	-0.250	-0.090
-315.997	800.000	-0.034	-0.118
-314.983	-184.411	0.117	-0.002
-313.968	-200.000	0.006	0.161
-312.953	127.799	-0.107	-0.138
-311.939	-96.441	0.099	0.027
-310.924	800.000	0.079	0.269
-309.910	-122.889	-0.202	0.033
-308.895	800.000	-0.092	0.295
-307.880	-200.000	0.018	0.132
-306.866	-63.581	-0.091	-0.038
-305.851	-200.000	-0.049	-0.314
-304.837	567.200	0.120	0.295
-303.822	800.000	0.120	0.466
-302.807	-200.000	-0.013	0.154
-301.793	-121.134	-0.135	0.023
-300.778	-57.460	-0.148	-0.066
-299.764	-31.502	-0.180	-0.103
-298.749	93.182	-0.200	-0.230
-297.735	-110.544	-0.144	-0.030
-296.720	-18.821	0.066	0.042
-295.705	-200.000	0.023	0.141
-294.691	151.727	0.076	-0.104
-293.676	-171.754	-0.207	0.007
-292.662	202.661	-0.171	-0.268
-291.647	-120.693	0.281	-0.048
-290.632	131.202	-0.116	0.151
-289.618	158.123	0.115	0.162
-288.603	800.000	-0.013	-0.039
-287.589	513.957	-0.292	0.690
-286.574	231.021	0.102	0.168
-285.559	304.511	0.098	0.185
-284.545	-67.632	-0.173	0.069
-283.530	-200.000	-0.070	-0.341
-282.516	79.141	0.195	-0.212
-281.501	-136.251	-0.379	-0.045
-280.486	800.000	-0.025	-0.099
-279.472	241.988	0.099	0.168
-278.457	-50.920	-0.291	0.139
-277.443	-1.373	-0.136	-0.097
-276.428	-60.828	-0.153	0.066
-275.413	-200.000	0.036	0.181
-274.399	666.372	0.107	0.281
-273.384	-69.573	0.214	0.083
-272.370	-123.841	0.024	0.004
-271.355	73.852	0.118	0.125
-270.340	-17.422	0.097	-0.062
-269.326	-200.000	-0.009	0.136
-268.311	-129.651	0.287	0.040
-267.297	-71.891	0.092	-0.035
-266.282	2.950	0.118	-0.087
-265.267	78.095	-0.204	0.220
-264.253	-146.184	-0.352	-0.031
-263.238	370.672	-0.070	-0.144
-262.224	-73.177	-0.167	0.062
-261.209	-107.119	0.323	0.072
-260.195	716.124	-0.166	0.445
-259.180	289.513	-0.170	0.313
-258.165	-115.416	-0.127	0.024
-257.151	-200.000	0.060	0.394
-256.136	671.644	-0.008	-0.020
-255.122	47.224	-0.215	-0.203
-254.107	-15.429	-0.236	-0.153
-253.092	0.296	0.124	-0.089
-252.078	77.220	0.051	-0.055
-251.063	401.770	-0.067	-0.142
-250.049	-87.752	-0.120	-0.037
-249.034	-124.531	-0.118	-0.019
-248.019	376.478	-0.030	-0.063
-247.005	228.493	-0.023	0.037
-245.990	-117.951	-0.056	0.010
-244.976	-40.139	-0.247	0.130
-243.961	800.000	-0.043	-0.181
-242.946	-200.000	0.048	-0.252
-241.932	800.000	-0.193	-0.600
-240.917	233.709	-0.100	-0.166
-239.903	-200.000	-0.022	0.136
-238.888	256.057	0.057	0.099
-237.873	67.515	0.284	-0.293
-236.859	221.062	0.109	-0.177
-235.844	181.700	0.065	0.097
-234.830	-200.000	0.004	0.456
-233.815	-200.000	0.032	0.212
-232.800	800.000	0.030	0.109
-231.786	106.165	-0.109	0.131
-230.771	-42.348	-0.290	0.149
-229.757	800.000	0.059	0.196
-228.742	118.987	0.073	-0.091
-227.727	-26.892	0.157	0.093
-226.713	42.664	-0.060	0.055
-225.698	-97.591	0.110	-0.029
-224.684	-200.000	-0.014	-0.193
-223.669	-47.033	-0.186	-0.092
-222.655	-22.287	-0.084	0.051
-221.640	98.897	0.223	-0.260
-220.625	-98.103	0.221	-0.058
-219.611	-200.000	-0.069	0.665
-218.596	94.282	-0.266	0.305
-217.582	-136.650	-0.221	-0.026
-216.567	-200.000	0.069	-0.334
-215.552	118.852	0.047	-0.059
-214.538	-69.360	0.435	-0.168
-213.523	-19.092	0.412	-0.258
-212.509	139.906	0.252	-0.336
-211.494	725.450	-0.033	0.089
-210.479	-200.000	0.016	0.381
-209.465	-42.302	0.206	0.106
-208.450	-110.281	0.120	-0.025
-207.436	704.394	0.092	-0.246
-206.421	-71.648	-0.143	-0.054
-205.406	354.193	0.088	0.177
-204.392	241.938	-0.023	-0.038
-203.377	17.283	0.024	0.019
-202.363	-124.220	-0.150	-0.024
-201.348	-1.274	0.165	-0.118
-200.333	30.476	0.108	-0.093
-199.319	-8.518	-0.148	0.100
-198.304	296.714	-0.041	0.075
-197.290	276.915	-0.243	-0.437
-196.275	800.000	0.021	0.061
-195.260	-114.907	0.194	0.037
-194.246	-96.386	0.266	0.071
-193.231	-110.260	0.018	-0.004
-192.217	-137.742	0.218	-0.025
-191.202	800.000	-0.069	-0.273
-190.187	106.569	0.136	0.163
-189.173	469.268	-0.109	0.247
-188.158	538.156	-0.057	0.137
-187.144	-200.000	0.024	-0.196
-186.129	336.157	-0.098	-0.192
-185.114	230.290	0.142	0.235
-184.100	-64.688	0.083	0.034
-183.085	15.201	-0.125	0.099
-182.071	33.644	0.245	0.215
-181.056	421.557	0.067	0.144
-180.042	-200.000	-0.049	0.228
-179.027	-155.996	0.174	0.011
-178.012	-47.150	-0.190	0.093
-176.998	-54.894	0.187	0.085
-175.983	-25.578	0.135	0.081
-174.969	-163.599	0.112	-0.005
-173.954	-29.671	-0.237	0.137
-172.939	21.945	0.171	0.141
-171.925	-15.079	0.125	-0.081
-170.910	-200.000	-0.092	-0.461
-169.896	-29.631	0.082	0.047
-168.881	-171.250	-0.122	0.004
-167.866	-47.803	0.210	-0.103
-166.852	-89.938	-0.413	-0.122
-165.837	-200.000	0.008	0.148
-164.823	-75.100	-0.066	-0.024
-163.808	-101.660	0.160	-0.039
-162.793	171.099	0.089	0.129
-161.779	-200.000	-0.015	0.134
-160.764	-28.510	0.141	-0.082
-159.750	-118.873	0.114	-0.020
-158.735	-200.000	0.006	-0.085
-157.720	-152.231	-0.280	0.020
-156.706	-200.000	0.016	-0.120
-155.691	-174.577	-0.276	0.008
-154.677	-32.271	0.156	0.088
-153.662	-142.560	0.089	0.009
-152.647	-200.000	-0.022	-0.413
-151.633	359.858	0.087	0.175
-150.618	-200.000	-0.009	0.094
-149.604	-73.677	0.117	-0.043
-148.589	343.605	-0.046	0.092
-147.574	-32.670	-0.102	0.057
-146.560	20.253	0.240	-0.196
-145.545	-200.000	-0.000	0.008
-144.531	13.405	0.377	0.295
-143.516	1.016	-0.252	-0.182
-142.502	-200.000	-0.031	0.271
-141.487	-50.166	0.183	-0.087
-140.472	-22.263	-0.166	-0.101
-139.458	-17.480	-0.245	-0.155
-138.443	242.803	-0.174	0.294
-137.429	-200.000	0.003	0.123
-136.414	-196.971	0.293	0.002
-135.399	-96.859	-0.065	0.017
-134.385	-18.468	-0.383	0.241
-133.370	112.363	0.166	-0.202
-132.356	335.793	0.108	-0.212
-131.341	367.493	0.202	-0.410
-130.326	82.318	-0.112	0.123
-129.312	-43.080	0.245	0.125
-128.297	181.969	-0.116	0.172
-127.283	-75.831	0.186	-0.066
-126.268	-200.000	0.022	-0.135
-125.253	129.208	0.280	-0.360
-124.239	800.000	-0.040	-0.139
-123.224	-57.946	-0.297	0.131
-122.210	-200.000	0.048	0.286
-121.195	-77.838	0.216	-0.075
-120.180	7.769	0.162	-0.122
-119.166	-127.738	0.438	0.064
-118.151	-119.832	-0.028	0.005
-117.137	13.897	-0.090	-0.071
-116.122	239.730	-0.141	-0.236
-115.107	-34.225	0.266	-0.147
-114.093	234.928	-0.123	0.204
-113.078	-82.267	-0.063	0.021
-112.064	-200.000	0.056	-0.272
-111.049	113.006	0.265	-0.323
-110.034	-134.219	-0.105	-0.013
-109.020	-200.000	-0.010	0.146
-108.005	95.516	0.046	-0.053
-106.991	-110.349	-0.041	0.009
-105.976	-48.409	-0.441	0.214
-104.962	-109.226	-0.113	0.024
-103.947	-175.435	-0.145	0.004
-102.932	800.000	0.018	0.078
-101.918	-36.390	0.040	0.022
-100.903	-200.000	-0.004	0.320
-99.889	344.057	-0.165	0.325
-98.874	-200.000	0.027	0.129
-97.859	122.699	0.248	0.312
-96.845	43.799	0.135	0.124
-95.830	-86.092	-0.197	0.061
-94.816	-200.000	0.003	0.309
-93.801	-119.847	0.221	-0.038
-92.786	-138.926	-0.207	-0.023
-91.772	219.485	0.160	0.257
-90.757	-19.769	0.084	0.052
-89.743	800.000	0.120	-0.393
-88.728	-123.830	-0.181	0.029
-87.713	10.977	-0.130	-0.100
-86.699	-200.000	-0.057	0.273
-85.684	800.000	-0.105	0.370
-84.670	402.641	-0.147	0.311
-83.655	-200.000	0.026	0.306
-82.640	19.891	-0.247	0.200
-81.626	-63.379	0.065	0.027
-80.611	-6.821	0.093	0.064
-79.597	-131.461	-0.228	0.030
-78.582	21.595	-0.033	0.027
-77.567	168.434	0.125	-0.179
-76.553	39.908	0.258	0.233
-75.538	-200.000	-0.013	-0.441
-74.524	-145.295	-0.115	0.010
-73.509	-200.000	0.042	0.339
-72.494	766.952	-0.018	-0.048
-71.480	5.326	0.301	-0.223
-70.465	-200.000	-0.005	0.059
-69.451	-8.200	-0.215	-0.146
-68.436	-68.838	0.290	0.113
-67.422	28.456	0.143	0.121
-66.407	125.701	-0.186	0.236
-65.392	-40.254	-0.211	-0.110
-64.378	478.501	0.126	0.286
-63.363	-200.000	0.017	0.106
-62.349	-180.073	0.435	0.009
-61.334	109.815	-0.575	-0.693
-60.319	-103.597	-0.041	0.010
-59.305	800.000	-0.143	-0.596
-58.290	699.096	0.283	0.746
-57.276	-200.000	0.260	1.621
-56.261	-200.000	70.784	532.923
-55.246	594.929	1252.756	3111.461
-54.232	141.267	2497.923	3318.141
-53.217	111.319	2374.088	2872.686
-52.203	52.038	2117.345	2024.809
-51.188	46.659	2024.679	1887.056
-50.173	44.739	2005.254	1851.441
-49.159	56.448	2038.363	1989.246
-48.144	62.494	2059.722	2065.269
-47.130	47.533	2025.259	1895.288
-46.115	44.582	2015.098	1858.805
-45.100	44.524	2012.049	1855.383
-44.086	44.461	2009.580	1852.465
-43.071	44.399	2007.254	1849.676
-42.057	44.379	2004.769	1847.139
-41.042	44.341	2002.895	1844.990
-40.027	44.465	2000.851	1844.157
-39.013	44.495	1998.615	1842.299
-37.998	44.394	1997.039	1839.860
-36.984	44.440	1995.600	1838.871
-35.969	44.530	1993.094	1837.300
-34.954	44.516	1992.134	1836.217
-33.940	44.599	1990.479	1835.373
-32.925	44.630	1988.246	1833.519
-31.911	44.566	1986.780	1831.517
-30.896	44.540	1985.275	1829.820
-29.881	44.563	1983.497	1828.318
-28.867	44.521	1982.187	1826.662
-27.852	44.564	1980.313	1825.248
-26.838	44.524	1978.033	1822.717
-25.823	44.582	1975.415	1820.748
-24.809	44.584	1973.643	1819.066
-23.794	44.514	1972.296	1817.123
-22.779	44.567	1970.847	1816.190
-21.765	44.547	1969.005	1814.239
-20.750	44.564	1967.136	1812.600
-19.736	44.643	1965.967	1812.157
-18.721	44.530	1964.816	1810.018
-17.706	44.629	1962.496	1808.683
-16.692	44.461	1961.244	1805.965
-15.677	44.508	1959.357	1804.572
-14.663	44.479	1958.209	1803.184
-13.648	44.506	1956.858	1802.110
-12.633	44.481	1955.549	1800.615
-11.619	44.564	1954.253	1800.081
-10.604	44.524	1952.767	1798.292
-9.590	44.530	1951.498	1797.105
-8.575	44.514	1949.882	1795.400
-7.560	44.518	1948.457	1794.057
-6.546	44.633	1946.938	1793.599
-5.531	44.562	1946.166	1792.192
-4.517	44.519	1944.763	1790.447
-3.502	44.542	1943.742	1789.641
-2.487	44.475	1942.346	1787.692
-1.473	44.550	1941.072	1787.110
-0.458	44.700	1937.042	1784.646
0.556	41.657	1917.463	1757.121
1.571	36.779	1894.104	1693.038
2.586	30.816	1910.148	1654.442
3.600	28.262	1944.967	1661.306
4.615	26.668	1940.567	1642.959
5.629	21.062	1841.583	1510.616
6.644	12.112	1719.519	1337.673
7.659	7.199	1677.302	1265.541
8.673	6.643	1672.819	1257.620
9.688	6.700	1671.496	1256.965
10.702	6.581	1669.915	1254.723
11.717	6.386	1667.308	1251.102
12.731	6.798	1667.021	1254.046
13.746	12.209	1679.858	1306.783
14.761	17.978	1691.769	1362.066
15.775	18.274	1689.249	1362.273
16.790	16.620	1685.097	1345.666
17.804	15.561	1681.568	1334.323
18.819	14.459	1678.526	1323.051
19.834	13.821	1675.606	1315.575
20.848	13.472	1674.082	1311.496
21.863	13.155	1672.302	1307.478
22.877	12.911	1670.406	1303.952
23.892	12.721	1669.584	1301.693
24.907	12.656	1668.472	1300.194
25.921	12.671	1667.020	1299.070
26.936	12.600	1666.505	1297.988
27.950	12.665	1665.164	1297.341
28.965	12.671	1664.970	1297.126
29.980	12.649	1665.012	1296.872
30.994	12.728	1663.674	1296.336
32.009	12.852	1661.776	1295.719
33.023	12.850	1661.078	1295.043
34.038	12.939	1660.547	1295.208
35.053	12.908	1659.193	1293.798
36.067	12.862	1657.878	1292.296
37.082	12.793	1656.713	1290.732
38.096	12.818	1655.682	1290.012
39.111	12.851	1654.871	1289.527
40.126	12.889	1653.829	1288.896
41.140	12.839	1653.137	1287.849
42.155	12.728	1652.033	1286.007
43.169	12.711	1650.114	1284.267
44.184	12.677	1649.292	1283.248
45.199	12.592	1648.145	1281.586
46.213	12.622	1647.283	1281.035
47.228	12.607	1646.038	1279.836
48.242	12.722	1644.687	1279.562
49.257	12.803	1643.895	1279.467
50.271	12.836	1642.172	1278.267
51.286	12.743	1641.252	1276.717
52.301	12.819	1639.857	1276.109
53.315	12.786	1638.499	1274.684
54.330	12.833	1636.615	1273.466
55.344	12.709	1634.954	1271.107
56.359	12.698	1633.682	1269.921
57.374	12.662	1632.920	1268.939
58.388	12.740	1631.552	1268.361
59.403	12.664	1630.453	1266.812
60.417	12.547	1629.579	1265.119
61.432	12.612	1628.066	1264.328
62.447	12.630	1626.949	1263.490
63.461	12.468	1625.849	1261.283
64.476	12.497	1624.732	1260.530
65.490	12.472	1623.461	1259.238
66.505	12.459	1622.333	1258.153
67.520	12.517	1621.294	1257.675
68.534	12.573	1620.346	1257.260
69.549	12.571	1619.411	1256.406
70.563	12.556	1617.836	1254.958
71.578	12.579	1616.840	1254.249
72.593	12.539	1616.177	1253.323
73.607	12.484	1614.750	1251.683
74.622	12.573	1612.869	1250.793
75.636	12.419	1612.525	1249.242
76.651	12.464	1612.070	1249.128
77.666	12.547	1611.153	1248.932
78.680	12.403	1610.540	1247.254
79.695	12.465	1609.499	1246.808
80.709	12.524	1608.298	1246.214
81.724	12.571	1607.940	1246.186
82.739	12.676	1606.742	1245.942
83.753	12.544	1606.114	1244.343
84.768	12.702	1605.083	1244.624
85.782	12.807	1604.461	1244.828
86.797	12.883	1603.590	1244.615
87.812	12.789	1603.134	1243.444
88.826	12.824	1601.528	1242.349
89.841	12.773	1600.507	1241.068
90.855	12.690	1599.622	1239.642
91.870	12.784	1598.015	1238.994
92.884	12.888	1597.143	1238.989
93.899	12.875	1596.349	1238.169
94.914	12.880	1594.797	1236.894
95.928	12.863	1594.252	1236.230
96.943	12.911	1592.595	1235.197
97.957	12.925	1590.825	1233.824
98.972	12.888	1589.558	1232.454
99.987	12.836	1587.916	1230.685
101.001	12.874	1586.417	1229.697
102.016	12.811	1585.175	1228.152
103.030	12.804	1583.795	1226.927
104.045	12.846	1582.371	1226.022
105.060	12.915	1580.654	1225.095
106.074	12.775	1579.241	1222.855
107.089	12.701	1578.366	1221.524
108.103	12.656	1576.522	1219.651
109.118	12.572	1574.649	1217.476
110.133	12.570	1573.769	1216.672
111.147	12.519	1572.640	1215.313
112.162	12.567	1571.208	1214.452
113.176	12.540	1569.718	1212.995
114.191	12.630	1568.221	1212.392
115.206	12.649	1567.003	1211.487
116.220	12.723	1565.716	1210.925
117.235	12.666	1564.524	1209.478
118.249	12.690	1563.419	1208.693
119.264	12.659	1562.084	1207.332
120.279	12.594	1560.988	1205.902
121.293	12.637	1559.298	1204.802
122.308	12.605	1557.949	1203.416
123.322	12.599	1556.355	1202.035
124.337	12.528	1555.311	1200.607
125.352	12.596	1553.764	1199.801
126.366	12.552	1552.879	1198.694
127.381	12.566	1551.560	1197.667
128.395	12.537	1550.555	1196.575
129.410	12.536	1549.407	1195.575
130.424	12.631	1547.473	1194.671
131.439	12.604	1547.089	1194.069
132.454	12.661	1545.286	1192.987
133.468	12.702	1544.049	1192.223
134.483	12.722	1542.354	1190.952
135.497	12.754	1541.022	1190.053
136.512	12.701	1540.035	1188.804
137.527	12.779	1538.596	1188.150
138.541	12.778	1537.481	1187.175
139.556	12.730	1536.241	1185.766
140.570	12.830	1534.554	1185.078
141.585	12.780	1533.593	1183.870
142.600	12.884	1532.213	1183.448
143.614	12.927	1531.595	1183.174
144.629	12.997	1529.851	1182.227
145.643	13.066	1527.988	1181.175
146.658	12.982	1527.573	1180.149
147.673	12.972	1525.773	1178.583
148.687	12.891	1524.472	1176.894
149.702	12.920	1522.990	1175.854
150.716	12.823	1521.724	1174.077
151.731	12.884	1519.857	1172.973
152.746	12.822	1518.666	1171.505
153.760	12.778	1517.700	1170.346
154.775	12.721	1516.536	1168.937
155.789	12.922	1514.285	1168.526
156.804	12.988	1513.517	1168.298
157.819	13.084	1512.345	1167.968
158.833	13.008	1511.522	1166.688
159.848	12.979	1510.290	1165.430
160.862	13.034	1508.930	1164.667
161.877	13.124	1507.833	1164.353
162.892	13.015	1506.440	1162.404
163.906	12.960	1505.525	1161.210
164.921	12.826	1504.384	1159.284
165.935	12.833	1503.384	1158.458
166.950	12.875	1502.507	1157.973
167.964	12.924	1500.636	1156.778
168.979	13.006	1499.756	1156.567
169.994	12.986	1498.820	1155.607
171.008	13.018	1497.374	1154.611
172.023	13.007	1496.297	1153.600
173.037	13.052	1495.195	1152.969
174.052	13.109	1494.553	1152.765
175.067	13.100	1493.383	1151.699
176.081	13.146	1492.039	1150.884
177.096	13.018	1491.154	1149.208
178.110	12.950	1489.589	1147.423
179.125	13.006	1488.466	1146.848
180.140	13.084	1487.436	1146.491
181.154	12.997	1486.722	1145.239
182.169	13.107	1485.544	1144.992
183.183	13.037	1484.717	1143.769
184.198	13.152	1483.483	1143.516
185.213	13.202	1482.304	1142.850
186.227	13.239	1481.254	1142.192
187.242	13.283	1479.963	1141.402
188.256	13.288	1478.914	1140.523
189.271	13.331	1477.878	1139.920
190.286	13.350	1476.922	1139.216
191.300	13.327	1475.892	1138.163
192.315	13.198	1474.331	1135.971
193.329	13.045	1472.917	1133.727
194.344	12.943	1472.416	1132.547
195.359	12.962	1471.747	1132.056
196.373	13.129	1470.594	1132.219
197.388	13.196	1469.823	1131.984
198.402	13.361	1468.130	1131.710
199.417	13.268	1467.459	1130.455
200.432	13.419	1466.394	1130.567
201.446	13.521	1465.700	1130.622
202.461	13.508	1464.521	1129.530
203.475	13.447	1463.659	1128.347
204.490	13.550	1462.399	1127.977
205.504	13.520	1461.234	1126.772
206.519	13.473	1460.258	1125.600
207.534	13.433	1459.070	1124.319
208.548	13.381	1457.891	1122.952
209.563	13.439	1456.862	1122.454
210.577	13.418	1455.959	1121.521
211.592	13.452	1455.276	1121.122
212.607	13.534	1454.037	1120.624
213.621	13.540	1453.931	1120.485
214.636	13.605	1453.047	1120.143
215.650	13.676	1451.646	1119.444
216.665	13.604	1450.847	1118.244
217.680	13.622	1449.857	1117.502
218.694	13.661	1449.360	1117.282
219.709	13.718	1448.391	1116.821
220.723	13.822	1447.027	1116.372
221.738	13.695	1446.392	1114.929
222.753	13.674	1445.462	1113.972
223.767	13.615	1444.658	1112.854
224.782	13.647	1443.622	1112.175
225.796	13.806	1442.634	1112.380
226.811	13.831	1441.920	1111.902
227.826	13.793	1441.333	1111.094
228.840	13.803	1440.407	1110.352
229.855	13.878	1438.974	1109.648
230.869	13.740	1438.328	1108.127
231.884	13.782	1437.311	1107.530
232.899	13.756	1436.173	1106.382
233.913	13.779	1434.890	1105.444
234.928	13.744	1433.660	1104.171
235.942	13.670	1432.183	1102.440
236.957	13.786	1431.182	1102.341
237.972	13.668	1430.395	1100.857
238.986	13.725	1429.594	1100.523
240.001	13.737	1428.503	1099.666
241.015	13.702	1427.375	1098.469
242.030	13.734	1426.469	1097.884
243.045	13.863	1425.085	1097.574
244.059	13.917	1424.154	1097.116
245.074	13.984	1423.515	1096.967
246.088	13.835	1423.203	1095.647
247.103	13.898	1422.144	1095.152
248.117	13.997	1421.375	1095.117
249.132	14.005	1420.686	1094.540
250.147	14.075	1419.874	1094.281
251.161	14.074	1419.338	1093.761
252.176	14.248	1418.365	1094.062
253.190	14.256	1418.051	1093.775
254.205	14.297	1417.021	1093.151
255.220	14.391	1415.464	1092.468
256.234	14.303	1415.275	1091.653
257.249	14.415	1414.713	1091.851
258.263	14.346	1413.692	1090.516
259.278	14.511	1411.888	1090.108
260.293	14.398	1411.728	1089.150
261.307	14.407	1410.858	1088.438
262.322	14.402	1410.155	1087.770
263.336	14.520	1409.206	1087.708
264.351	14.471	1408.563	1086.799
265.366	14.476	1407.501	1085.916
266.380	14.513	1406.834	1085.546
267.395	14.544	1405.351	1084.504
268.409	14.557	1404.607	1083.922
269.424	14.591	1403.193	1082.953
270.439	14.532	1402.522	1081.956
271.453	14.426	1401.636	1080.493
272.468	14.461	1401.038	1080.161
273.482	14.468	1400.095	1079.388
274.497	14.423	1399.360	1078.432
275.512	14.457	1398.051	1077.546
276.526	14.511	1397.344	1077.259
277.541	14.526	1396.260	1076.424
278.555	14.504	1395.421	1075.539
279.570	14.561	1394.408	1075.029
280.585	14.610	1393.693	1074.698
281.599	14.666	1392.816	1074.289
282.614	14.736	1391.861	1073.905
283.628	14.621	1390.917	1072.341
284.643	14.650	1389.533	1071.370
285.657	14.584	1388.711	1070.217
286.672	14.638	1387.827	1069.786
287.687	14.551	1387.141	1068.606
288.701	14.656	1385.844	1068.183
289.716	14.682	1384.941	1067.557
290.730	14.642	1384.416	1066.802
291.745	14.731	1383.495	1066.567
292.760	14.765	1382.312	1065.777
293.774	14.830	1381.080	1065.147
294.789	14.795	1380.797	1064.615
295.803	14.841	1379.683	1063.956
296.818	14.835	1378.684	1063.049
297.833	14.846	1377.893	1062.417
298.847	14.804	1376.864	1061.260
299.862	14.773	1375.534	1059.950
300.876	14.865	1374.878	1059.931
301.891	14.899	1373.646	1059.101
302.906	14.933	1373.205	1058.886
303.920	15.000	1372.560	1058.720
304.935	14.930	1371.713	1057.528
305.949	15.075	1370.742	1057.604
306.964	15.069	1370.413	1057.217
307.979	15.182	1369.099	1056.820
308.993	15.071	1368.119	1055.270
310.008	14.997	1367.357	1054.122
311.022	14.998	1366.562	1053.425
312.037	15.029	1365.512	1052.720
313.052	15.021	1364.882	1052.091
314.066	15.111	1363.424	1051.433
315.081	15.046	1362.144	1049.951
316.095	15.053	1360.986	1049.008
317.110	14.928	1360.261	1047.573
318.125	15.071	1358.933	1047.352
319.139	15.013	1358.405	1046.490
320.154	14.969	1357.571	1045.479
321.168	15.099	1356.309	1045.224
322.183	15.050	1355.383	1044.113
323.197	15.021	1354.403	1043.086
324.212	15.109	1353.610	1042.933
325.227	15.112	1353.177	1042.527
326.241	15.154	1352.287	1042.008
327.256	15.044	1351.472	1040.607
328.270	15.191	1350.508	1040.683
329.285	15.145	1349.481	1039.516
330.300	15.219	1347.937	1038.692
331.314	15.176	1347.505	1038.002
332.329	15.144	1346.834	1037.194
333.343	15.088	1345.832	1035.982
334.358	15.168	1344.990	1035.740
335.373	15.138	1344.648	1035.196
336.387	15.342	1343.420	1035.421
337.402	15.317	1342.766	1034.671
338.416	15.347	1341.830	1034.042
339.431	15.413	1341.064	1033.770
340.446	15.413	1340.564	1033.291
341.460	15.538	1339.396	1033.066
342.475	15.491	1338.682	1032.138
343.489	15.563	1337.577	1031.635
344.504	15.621	1336.752	1031.266
345.519	15.612	1336.221	1030.709
346.533	15.554	1335.286	1029.541
347.548	15.557	1334.650	1028.978
348.562	15.595	1333.832	1028.486
349.577	15.636	1333.181	1028.143
350.592	15.711	1332.078	1027.660
351.606	15.536	1331.269	1025.878
352.621	15.612	1330.000	1025.274
353.635	15.526	1328.889	1023.802
354.650	15.498	1328.374	1023.146
355.665	15.586	1327.343	1022.794
356.679	15.588	1325.930	1021.628
357.694	15.506	1324.864	1020.216
358.708	15.641	1324.037	1020.309
359.723	15.656	1323.219	1019.683
360.738	15.592	1322.113	1018.350
361.752	15.708	1321.007	1018.108
362.767	15.738	1319.856	1017.316
363.781	15.782	1318.828	1016.698
364.796	15.683	1318.501	1015.757
365.810	15.713	1317.582	1015.143
366.825	15.773	1316.446	1014.540
367.840	15.911	1316.486	1015.310
368.854	15.849	1315.661	1014.212
369.869	15.851	1315.093	1013.694
370.883	16.004	1314.084	1013.747
371.898	16.002	1313.429	1013.145
372.913	15.918	1312.649	1011.949
373.927	15.841	1311.885	1010.806
374.942	15.934	1310.709	1010.367
375.956	15.947	1310.128	1009.908
376.971	16.055	1309.165	1009.726
377.986	16.076	1308.782	1009.467
379.000	16.018	1308.100	1008.503
380.015	16.106	1307.117	1008.181
381.029	16.134	1306.188	1007.543
382.044	16.071	1306.049	1006.970
383.059	16.235	1304.871	1006.951
384.073	16.174	1303.933	1005.774
385.088	16.188	1303.798	1005.668
386.102	16.213	1302.937	1005.064
387.117	16.198	1302.246	1004.350
388.132	16.172	1301.545	1003.568
389.146	16.105	1300.621	1002.363
390.161	16.110	1299.463	1001.417
391.175	16.065	1298.925	1000.647
392.190	16.069	1298.388	1000.166
393.205	16.166	1297.111	999.666
394.219	16.259	1296.185	999.419
395.234	16.255	1295.017	998.406
396.248	16.250	1293.740	997.301
397.263	16.242	1292.526	996.229
398.278	16.176	1291.424	994.903
399.292	16.208	1290.411	994.222
400.307	16.234	1288.958	993.167
401.321	16.158	1287.960	991.868
402.336	16.218	1286.956	991.356
403.350	16.170	1285.951	990.214
404.365	16.248	1284.960	989.820
405.380	16.250	1284.171	989.136
406.394	16.255	1283.332	988.433
407.409	16.251	1282.832	987.938
408.423	16.314	1281.889	987.491
409.438	16.505	1281.207	987.992
410.453	16.456	1280.878	987.365
411.467	16.580	1279.801	987.171
412.482	16.591	1279.481	986.905
413.496	16.559	1278.889	986.171
414.511	16.645	1277.980	985.886
415.526	16.688	1277.156	985.411
416.540	16.730	1276.584	985.130
417.555	16.670	1275.950	984.202
418.569	16.692	1275.340	983.774
419.584	16.731	1274.453	983.228
420.599	16.750	1274.289	983.125
421.613	63.617	1297.353	1270.035
422.628	63.069	1300.718	1270.158
