DTS Sentinel unit serial number:	SN413079Multiplexer serial number:	ORYXHardware model number:	OX4-SRSoftware version number:	ORYX F/W v4.00 Oryx Data Collector v3.7.2.0data status	okinstallation	princeton_trtdifferential loss correction	single-endedforward channel	channel 4reverse channel	N/Adate	2019/09/14time	00:49:34forward acquisition time	60.00reverse acquisition time	0.00gamma	496.2192k internal	0.2323k external	0.2323temperature offset calibration	1.0132default loss term (dB/km)	0.3790temperature slope calibration	1.0000multiplexer offset coefficient	1.0000multiplexer slope coefficient	1.0000fibre end	0.00T internal ref (°C)	26.39T ext. ref 1 (°C)	3.18T ext. ref 2 (°C)	21.17length (m)	temperature (°C)	Stokes	anti-Stokes-747.200	-71.184	-0.118	-0.045
-746.185	-200.000	-0.013	0.375
-745.171	-189.997	0.188	0.002
-744.156	-200.000	0.027	0.238
-743.142	-118.151	-0.189	-0.034
-742.127	-15.208	-0.148	-0.096
-741.112	-183.794	0.073	0.001
-740.098	-64.901	0.162	-0.066
-739.083	800.000	-0.055	-0.175
-738.069	25.466	-0.213	0.179
-737.054	48.727	-0.185	0.175
-736.039	119.234	-0.175	-0.218
-735.025	67.477	0.091	-0.094
-734.010	-200.000	-0.011	-0.308
-732.996	25.589	-0.165	0.138
-731.981	-120.819	-0.804	0.137
-730.966	133.299	0.182	0.237
-729.952	156.768	0.163	-0.227
-728.937	-100.292	-0.178	0.045
-727.923	189.867	-0.174	-0.264
-726.908	-122.631	0.150	0.025
-725.894	19.957	0.033	-0.027
-724.879	102.229	-0.177	-0.209
-723.864	-88.891	0.182	0.054
-722.850	-51.857	-0.107	0.050
-721.835	311.950	0.075	-0.142
-720.821	41.012	-0.164	0.149
-719.806	800.000	0.039	-0.135
-718.791	609.875	-0.068	-0.171
-717.777	776.728	-0.017	0.047
-716.762	-169.247	0.325	-0.012
-715.748	-76.184	-0.043	-0.015
-714.733	-200.000	0.046	0.242
-713.718	-200.000	-0.086	-0.428
-712.704	-130.010	-0.256	0.035
-711.689	-147.905	-0.102	0.009
-710.675	800.000	0.027	0.104
-709.660	800.000	-0.048	0.142
-708.645	-2.727	0.266	0.187
-707.631	-28.731	0.098	0.057
-706.616	268.183	0.212	0.374
-705.602	177.087	-0.121	0.178
-704.587	16.562	-0.164	-0.130
-703.572	520.093	-0.049	-0.115
-702.558	88.201	0.356	-0.399
-701.543	800.000	-0.018	-0.072
-700.529	125.442	-0.133	-0.169
-699.514	-200.000	0.342	-0.002
-698.499	-128.579	-0.108	-0.015
-697.485	-20.241	-0.165	-0.103
-696.470	800.000	0.033	0.094
-695.456	375.486	-0.131	-0.268
-694.441	-162.042	0.179	0.009
-693.426	519.729	0.169	-0.399
-692.412	181.901	0.095	-0.140
-691.397	232.536	-0.008	-0.013
-690.383	-138.668	-0.417	0.046
-689.368	-106.374	-0.531	-0.120
-688.354	800.000	0.020	-0.081
-687.339	607.271	-0.059	0.148
-686.324	116.313	0.029	0.036
-685.310	-164.546	-0.165	-0.008
-684.295	800.000	-0.015	0.044
-683.281	-200.000	0.005	0.033
-682.266	315.350	0.109	-0.208
-681.251	-46.078	-0.066	-0.033
-680.237	-200.000	0.001	0.146
-679.222	-119.765	-0.366	-0.064
-678.208	-200.000	-0.032	0.206
-677.193	691.193	-0.047	0.123
-676.178	57.195	-0.097	-0.095
-675.164	156.107	-0.025	-0.035
-674.149	-150.247	-0.134	-0.010
-673.135	-74.215	0.028	0.010
-672.120	-125.500	-0.178	-0.027
-671.105	679.318	-0.120	0.313
-670.091	9.119	-0.273	0.208
-669.076	68.946	0.132	-0.137
-668.062	800.000	-0.048	-0.133
-667.047	13.319	0.109	0.085
-666.032	-200.000	0.061	0.353
-665.018	69.780	0.230	0.238
-664.003	81.746	0.060	0.066
-662.989	72.686	-0.037	0.039
-661.974	217.154	-0.048	-0.077
-660.959	-84.078	-0.123	-0.039
-659.945	489.334	0.128	-0.295
-658.930	-120.928	-0.350	0.059
-657.916	92.988	-0.126	0.143
-656.901	-82.586	0.129	0.042
-655.886	800.000	-0.104	-0.365
-654.872	451.571	-0.061	-0.136
-653.857	259.906	-0.070	-0.121
-652.843	-132.026	-0.291	-0.038
-651.828	-82.530	0.115	-0.037
-650.814	-129.561	-0.373	0.052
-649.799	-167.417	0.178	-0.007
-648.784	202.528	0.089	-0.138
-647.770	12.517	0.054	0.042
-646.755	-200.000	-0.016	0.101
-645.741	46.929	-0.074	-0.069
-644.726	46.246	-0.313	-0.291
-643.711	238.100	-0.068	0.114
-642.697	-13.473	-0.261	-0.170
-641.682	-4.875	-0.200	0.139
-640.668	48.749	0.080	-0.075
-639.653	800.000	0.073	-0.204
-638.638	-200.000	-0.007	-0.314
-637.624	-200.000	0.025	0.301
-636.609	800.000	-0.080	0.281
-635.595	30.357	-0.418	0.359
-634.580	-1.868	-0.161	0.114
-633.565	-76.883	0.070	-0.025
-632.551	-37.221	0.121	-0.065
-631.536	66.041	0.219	0.223
-630.522	20.192	-0.026	0.021
-629.507	217.071	0.167	-0.268
-628.492	207.495	0.021	0.032
-627.478	595.493	-0.156	0.388
-626.463	-24.002	-0.257	0.154
-625.449	-86.954	-0.192	-0.059
-624.434	-200.000	0.045	-0.383
-623.419	-61.934	0.132	0.055
-622.405	-71.227	0.268	0.101
-621.390	656.789	-0.143	-0.370
-620.376	-126.499	0.090	-0.013
-619.361	-200.000	0.005	0.168
-618.346	-200.000	-0.004	-0.319
-617.332	-136.625	-0.484	-0.056
-616.317	480.800	-0.027	0.061
-615.303	-159.947	0.309	0.017
-614.288	224.284	-0.205	-0.333
-613.273	800.000	0.102	-0.290
-612.259	-46.482	-0.226	-0.111
-611.244	-200.000	-0.003	-0.116
-610.230	-142.433	-0.165	-0.016
-609.215	-78.295	0.202	-0.070
-608.201	217.996	-0.128	-0.205
-607.186	-29.816	0.306	-0.175
-606.171	212.583	-0.147	-0.233
-605.157	55.156	0.068	0.066
-604.142	115.143	0.140	0.172
-603.128	339.328	-0.077	-0.151
-602.113	-200.000	-0.020	-0.190
-601.098	-158.248	-0.333	-0.020
-600.084	-80.105	-0.258	-0.087
-599.069	5.396	-0.067	-0.050
-598.055	-71.723	0.203	-0.076
-597.040	-112.657	-0.279	-0.056
-596.025	28.791	-0.207	0.176
-595.011	-176.509	-0.386	0.010
-593.996	-148.038	0.093	-0.008
-592.982	-7.516	0.096	0.065
-591.967	-200.000	-0.138	-0.000
-590.952	339.361	-0.100	0.196
-589.938	105.026	0.244	-0.288
-588.923	231.888	-0.122	-0.200
-587.909	-138.779	0.244	0.027
-586.894	-81.977	-0.318	-0.104
-585.879	-200.000	0.009	0.061
-584.865	-200.000	0.008	-0.050
-583.850	800.000	0.147	0.542
-582.836	56.340	-0.193	-0.188
-581.821	-42.725	-0.322	-0.164
-580.806	-200.000	-0.069	0.312
-579.792	-21.842	0.207	-0.126
-578.777	181.535	0.209	0.309
-577.763	464.816	0.033	0.073
-576.748	202.432	0.116	-0.179
-575.733	-200.000	0.001	-0.040
-574.719	154.572	-0.126	-0.173
-573.704	776.534	-0.008	-0.022
-572.690	-118.287	-0.170	-0.030
-571.675	-56.448	0.349	0.155
-570.661	-23.513	0.148	-0.089
-569.646	800.000	0.057	0.233
-568.631	-92.977	-0.162	-0.045
-567.617	14.629	0.227	-0.178
-566.602	-29.200	-0.089	0.051
-565.588	800.000	-0.070	-0.257
-564.573	-76.793	0.071	0.025
-563.558	37.168	0.163	0.145
-562.544	-168.654	0.271	-0.010
-561.529	-2.698	-0.167	-0.117
-560.515	52.977	-0.245	-0.235
-559.500	-151.620	-0.082	-0.006
-558.485	240.393	0.173	-0.290
-557.471	747.149	0.048	0.131
-556.456	800.000	0.021	-0.077
-555.442	190.607	0.015	-0.023
-554.427	464.286	0.064	-0.144
-553.412	44.943	0.099	-0.091
-552.398	612.589	-0.087	-0.219
-551.383	446.589	-0.043	0.095
-550.369	452.574	-0.043	0.096
-549.354	-200.000	0.012	0.063
-548.339	345.042	0.065	-0.128
-547.325	-56.390	-0.341	-0.152
-546.310	210.192	-0.221	-0.347
-545.296	-88.130	-0.198	-0.060
-544.281	-66.535	0.206	-0.082
-543.266	-80.284	-0.081	-0.027
-542.252	285.491	0.143	0.258
-541.237	192.017	-0.140	0.211
-540.223	190.433	0.111	-0.167
-539.208	800.000	0.026	0.087
-538.193	2.281	-0.062	-0.045
-537.179	-153.767	0.032	0.002
-536.164	71.225	-0.090	-0.094
-535.150	-61.304	-0.126	-0.053
-534.135	-36.748	0.066	0.036
-533.121	-96.651	-0.138	0.036
-532.106	365.775	-0.201	-0.406
-531.091	-101.562	-0.238	0.058
-530.077	-200.000	0.010	-0.045
-529.062	0.569	0.292	-0.209
-528.048	348.210	-0.139	-0.275
-527.033	-21.536	0.146	-0.089
-526.018	11.660	0.140	-0.107
-525.004	-200.000	0.021	-0.125
-523.989	9.921	0.129	-0.098
-522.975	-134.614	-0.092	0.011
-521.960	122.225	-0.064	0.080
-520.945	-29.101	0.070	-0.040
-519.931	-108.416	-0.283	0.061
-518.916	136.307	-0.224	-0.293
-517.902	-7.644	0.234	-0.158
-516.887	800.000	-0.031	0.130
-515.872	546.321	0.072	-0.172
-514.858	15.774	-0.291	-0.229
-513.843	283.390	-0.141	0.254
-512.829	-92.967	0.271	-0.076
-511.814	85.315	-0.265	0.291
-510.799	-24.775	-0.161	0.096
-509.785	-200.000	-0.007	-0.095
-508.770	-200.000	-0.053	0.276
-507.756	32.783	0.060	-0.052
-506.741	800.000	0.054	-0.185
-505.726	-200.000	-0.047	-0.388
-504.712	-200.000	0.074	0.460
-503.697	-127.960	-0.145	0.021
-502.683	-75.138	-0.061	-0.022
-501.668	-70.057	0.091	-0.034
-500.653	200.001	-0.044	-0.067
-499.639	78.966	-0.125	-0.134
-498.624	131.471	-0.078	0.100
-497.610	398.097	0.187	0.392
-496.595	18.016	0.056	0.045
-495.581	-40.099	-0.119	0.062
-494.566	-5.984	-0.139	-0.095
-493.551	149.222	-0.117	0.159
-492.537	800.000	-0.052	0.164
-491.522	245.655	0.126	0.212
-490.508	-176.809	-0.175	-0.004
-489.493	-115.431	-0.197	-0.037
-488.478	-200.000	0.034	0.200
-487.464	-18.591	0.190	0.118
-486.449	-121.150	0.254	0.043
-485.435	-43.019	0.130	-0.066
-484.420	-101.714	0.384	0.093
-483.405	800.000	0.024	0.103
-482.391	-48.375	0.219	0.106
-481.376	90.807	0.143	-0.160
-480.362	-200.000	-0.010	0.133
-479.347	223.901	-0.094	0.151
-478.332	-200.000	0.022	-0.252
-477.318	800.000	-0.033	0.094
-476.303	148.055	-0.055	0.074
-475.289	-62.397	0.343	-0.143
-474.274	-71.494	-0.189	-0.071
-473.259	800.000	0.138	0.511
-472.245	800.000	0.116	-0.358
-471.230	-200.000	0.011	0.153
-470.216	-26.406	0.223	-0.131
-469.201	-9.583	-0.265	-0.177
-468.186	-67.450	0.087	-0.034
-467.172	-200.000	0.032	-0.200
-466.157	-200.000	-0.024	0.213
-465.143	228.730	-0.186	0.303
-464.128	-124.061	-0.163	0.026
-463.113	315.730	-0.144	0.271
-462.099	-193.494	0.326	0.003
-461.084	613.954	-0.052	0.130
-460.070	288.490	-0.138	0.249
-459.055	-1.182	0.171	-0.121
-458.040	-79.169	-0.069	-0.023
-457.026	-200.000	0.017	0.171
-456.011	-56.807	0.122	0.054
-454.997	136.330	0.011	0.014
-453.982	-86.289	-0.356	0.110
-452.968	110.147	0.216	-0.258
-451.953	-6.380	0.380	-0.259
-450.938	-18.537	0.078	0.048
-449.924	-112.927	0.029	-0.006
-448.909	-68.493	-0.060	0.023
-447.895	96.552	-0.295	-0.337
-446.880	41.919	0.124	-0.112
-445.865	-68.694	0.193	0.075
-444.851	10.084	-0.103	-0.078
-443.836	-200.000	0.022	-0.294
-442.822	91.430	0.189	-0.212
-441.807	-2.805	0.117	-0.082
-440.792	-154.993	-0.046	0.003
-439.778	109.157	0.067	0.080
-438.763	-70.765	0.220	0.083
-437.749	271.690	-0.145	-0.254
-436.734	174.321	-0.100	-0.144
-435.719	-104.545	-0.104	-0.024
-434.705	-132.302	0.660	-0.085
-433.690	-144.032	-0.030	0.003
-432.676	-63.833	0.275	-0.112
-431.661	37.169	-0.191	-0.169
-430.646	-200.000	0.013	0.069
-429.632	-179.351	-0.041	-0.001
-428.617	-200.000	-0.013	-0.166
-427.603	98.880	0.118	0.136
-426.588	-29.544	0.036	-0.021
-425.573	-200.000	0.026	0.197
-424.559	800.000	0.024	0.076
-423.544	73.244	-0.123	0.128
-422.530	249.327	0.030	0.051
-421.515	-73.413	-0.258	-0.094
-420.500	-200.000	-0.018	-0.172
-419.486	94.162	-0.269	-0.305
-418.471	40.554	-0.160	0.143
-417.457	87.406	0.088	-0.098
-416.442	627.782	0.071	-0.180
-415.428	173.590	-0.193	0.277
-414.413	105.115	0.182	-0.214
-413.398	800.000	-0.053	-0.180
-412.384	-9.604	0.288	0.191
-411.369	51.711	-0.098	0.093
-410.355	-96.021	0.104	-0.028
-409.340	56.750	0.257	-0.249
-408.325	344.859	-0.053	0.104
-407.311	55.485	0.136	-0.131
-406.296	155.907	-0.207	0.284
-405.282	-139.980	-0.202	-0.021
-404.267	-200.000	0.036	0.254
-403.252	493.900	-0.192	0.440
-402.238	-155.004	0.033	0.002
-401.223	123.543	-0.071	-0.089
-400.209	-108.916	-0.247	0.053
-399.194	65.910	-0.301	0.304
-398.179	-200.000	-0.009	0.301
-397.165	-191.891	0.258	0.003
-396.150	222.617	0.125	0.201
-395.136	800.000	-0.092	0.291
-394.121	132.529	0.118	0.151
-393.106	125.560	0.148	-0.186
-392.092	37.287	-0.115	0.102
-391.077	140.061	-0.189	-0.248
-390.063	-118.496	0.407	0.072
-389.048	-158.389	0.259	0.015
-388.033	85.568	0.261	0.285
-387.019	92.697	0.155	0.174
-386.004	542.130	-0.121	-0.287
-384.990	800.000	0.047	-0.167
-383.975	-65.765	-0.216	-0.086
-382.960	-0.986	0.189	-0.133
-381.946	-200.000	0.003	-0.221
-380.931	-96.379	-0.230	-0.060
-379.917	-200.000	0.039	-0.242
-378.902	186.717	0.109	-0.161
-377.888	-200.000	-0.026	-0.218
-376.873	26.739	-0.182	-0.152
-375.858	-25.484	0.099	0.058
-374.844	-0.283	0.312	-0.220
-373.829	612.159	-0.066	0.165
-372.815	-71.058	-0.088	0.033
-371.800	800.000	-0.095	-0.358
-370.785	392.398	-0.177	0.367
-369.771	71.858	-0.143	-0.148
-368.756	-98.782	0.529	0.134
-367.742	-200.000	0.032	0.159
-366.727	-148.875	0.140	0.011
-365.712	499.636	0.118	0.270
-364.698	-123.152	-0.253	0.040
-363.683	800.000	-0.043	-0.124
-362.669	800.000	-0.138	0.410
-361.654	-131.709	-0.074	0.010
-360.639	-20.107	0.219	0.134
-359.625	176.481	0.245	0.354
-358.610	552.457	-0.039	0.093
-357.596	-148.829	0.143	-0.012
-356.581	349.625	-0.091	0.178
-355.566	-166.332	-0.150	0.006
-354.552	-72.564	0.451	0.165
-353.537	48.547	-0.301	0.281
-352.523	-160.439	-0.070	-0.004
-351.508	-99.009	-0.475	-0.120
-350.493	723.243	-0.050	-0.132
-349.479	-200.000	0.030	-0.145
-348.464	-101.236	0.431	0.105
-347.450	553.287	0.039	-0.092
-346.435	-107.771	0.183	0.040
-345.420	-200.000	0.061	0.278
-344.406	231.260	-0.110	-0.179
-343.391	-200.000	0.003	0.169
-342.377	154.103	0.205	0.279
-341.362	800.000	-0.019	-0.078
-340.348	-102.982	0.145	-0.034
-339.333	-200.000	0.060	-0.276
-338.318	87.111	-0.198	0.218
-337.304	12.522	-0.077	0.059
-336.289	186.637	0.200	-0.296
-335.275	135.168	0.134	-0.172
-334.260	19.295	-0.397	0.317
-333.245	-200.000	-0.061	0.336
-332.231	22.627	0.032	0.026
-331.216	-52.189	-0.128	-0.059
-330.202	800.000	-0.040	-0.135
-329.187	800.000	0.031	0.089
-328.172	-41.446	-0.273	-0.140
-327.158	355.228	0.090	0.177
-326.143	-65.935	0.178	0.071
-325.129	-42.024	0.121	0.061
-324.114	-56.692	-0.240	0.106
-323.099	-47.940	0.115	0.055
-322.085	-200.000	0.022	-0.298
-321.070	15.833	-0.171	0.134
-320.056	-200.000	-0.003	-0.065
-319.041	-200.000	-0.071	0.387
-318.026	-40.392	-0.182	0.094
-317.012	-152.867	0.183	-0.013
-315.997	270.040	0.052	-0.091
-314.983	-111.439	0.119	0.024
-313.968	-200.000	0.019	0.176
-312.953	-108.044	0.081	-0.017
-311.939	175.698	0.152	0.218
-310.924	325.703	-0.063	0.119
-309.910	-64.833	0.112	0.045
-308.895	-120.544	0.470	0.079
-307.880	-123.136	-0.353	-0.056
-306.866	-4.121	0.002	-0.001
-305.851	159.726	-0.099	-0.137
-304.837	-72.909	-0.177	0.065
-303.822	194.084	-0.081	-0.122
-302.807	-11.269	0.115	-0.075
-301.793	222.694	0.160	-0.256
-300.778	-101.057	-0.278	-0.068
-299.764	50.731	-0.160	-0.150
-298.749	-200.000	0.012	0.057
-297.735	20.011	0.138	0.110
-296.720	426.420	0.056	0.120
-295.705	-158.079	0.232	-0.013
-294.691	-32.105	0.342	-0.190
-293.676	193.684	0.156	-0.235
-292.662	301.555	-0.180	0.330
-291.647	-179.318	0.176	-0.004
-290.632	-200.000	-0.032	-0.228
-289.618	62.738	-0.136	-0.135
-288.603	-11.996	0.278	-0.181
-287.589	-96.234	-0.192	0.051
-286.574	-7.513	0.171	0.114
-285.559	103.735	0.166	-0.193
-284.545	255.336	0.210	0.357
-283.530	-16.778	-0.123	0.077
-282.516	800.000	-0.063	-0.271
-281.501	-200.000	-0.019	0.132
-280.486	-54.202	0.406	0.183
-279.472	800.000	0.059	0.256
-278.457	-151.797	0.090	0.007
-277.443	-189.043	0.224	0.003
-276.428	88.505	0.033	-0.036
-275.413	8.887	-0.067	-0.050
-274.399	-150.377	0.216	0.017
-273.384	72.938	-0.257	0.266
-272.370	-38.337	-0.123	-0.064
-271.355	237.313	0.102	0.168
-270.340	-200.000	0.032	0.182
-269.326	-200.000	-0.009	-0.091
-268.311	-158.624	0.376	-0.021
-267.297	-86.236	-0.218	0.067
-266.282	24.743	-0.200	0.164
-265.267	-80.863	-0.181	0.059
-264.253	-68.211	-0.078	-0.030
-263.238	625.893	-0.031	-0.079
-262.224	517.626	0.150	0.348
-261.209	-200.000	-0.029	0.126
-260.195	-111.152	-0.244	-0.049
-259.180	108.564	-0.149	-0.177
-258.165	171.457	0.164	0.234
-257.151	188.593	-0.194	-0.287
-256.136	210.941	0.145	0.226
-255.122	-68.018	-0.082	0.032
-254.107	4.335	0.030	-0.022
-253.092	800.000	0.048	0.171
-252.078	55.737	0.190	-0.182
-251.063	110.463	0.158	-0.188
-250.049	-4.723	-0.140	0.096
-249.034	-72.002	-0.297	0.109
-248.019	-53.367	-0.462	-0.210
-247.005	201.328	0.148	-0.225
-245.990	-145.533	0.378	0.034
-244.976	-200.000	0.013	0.107
-243.961	-42.402	-0.228	0.115
-242.946	-200.000	0.055	0.256
-241.932	8.837	-0.051	-0.038
-240.917	-75.435	-0.247	0.087
-239.903	-33.224	-0.282	-0.155
-238.888	-160.639	0.171	0.009
-237.873	88.892	-0.096	-0.105
-236.859	-108.169	0.343	0.074
-235.844	171.413	-0.075	0.106
-234.830	-121.261	-0.132	-0.022
-233.815	-200.000	0.019	-0.146
-232.800	-62.451	-0.163	0.067
-231.786	-200.000	-0.038	-0.202
-230.771	-200.000	0.013	0.127
-229.757	-64.743	0.036	-0.014
-228.742	151.556	-0.028	0.038
-227.727	-27.683	-0.172	-0.099
-226.713	361.770	0.068	0.136
-225.698	35.415	-0.121	-0.105
-224.684	36.044	0.146	0.127
-223.669	-159.024	0.133	0.007
-222.655	315.974	-0.067	0.125
-221.640	-18.705	0.195	0.120
-220.625	-200.000	-0.012	-0.190
-219.611	304.516	-0.105	0.192
-218.596	-55.307	0.083	-0.037
-217.582	197.314	0.062	0.094
-216.567	70.826	-0.047	-0.048
-215.552	26.536	-0.057	-0.047
-214.538	-82.573	0.194	0.062
-213.523	-200.000	-0.061	-0.292
-212.509	379.289	0.146	-0.295
-211.494	800.000	-0.009	-0.039
-210.479	74.464	0.024	-0.025
-209.465	190.915	-0.181	0.269
-208.450	-83.858	0.259	-0.082
-207.436	288.427	0.015	0.026
-206.421	-113.380	-0.082	0.016
-205.406	-43.821	-0.091	-0.045
-204.392	-51.946	-0.181	0.083
-203.377	-200.000	-0.021	0.147
-202.363	-200.000	-0.065	-0.311
-201.348	-200.000	0.012	-0.101
-200.333	382.167	0.161	0.327
-199.319	-77.235	0.254	-0.087
-198.304	-200.000	0.057	-0.277
-197.290	82.585	0.284	0.305
-196.275	-118.090	0.290	0.051
-195.260	74.901	0.210	-0.218
-194.246	158.115	0.158	0.216
-193.231	-158.700	-0.187	-0.011
-192.217	-3.465	0.348	0.239
-191.202	119.359	0.166	-0.203
-190.187	-99.994	0.079	-0.019
-189.173	-163.874	0.060	-0.003
-188.158	-200.000	0.027	-0.166
-187.144	-200.000	0.011	-0.540
-186.129	-39.789	0.084	0.043
-185.114	67.755	-0.082	0.083
-184.100	81.151	0.159	-0.169
-183.085	26.961	0.151	0.125
-182.071	267.791	-0.126	0.218
-181.056	-119.530	-0.212	-0.036
-180.042	66.877	0.166	0.167
-179.027	-200.000	-0.034	0.327
-178.012	-123.658	-0.325	-0.051
-176.998	-86.805	-0.247	0.075
-175.983	138.709	-0.028	0.037
-174.969	-5.616	-0.267	0.180
-173.954	-200.000	-0.025	0.162
-172.939	-59.579	-0.056	-0.024
-171.925	-200.000	-0.004	0.121
-170.910	-15.411	-0.258	0.163
-169.896	-40.896	-0.038	0.019
-168.881	99.773	0.110	-0.126
-167.866	59.490	-0.014	0.013
-166.852	285.108	-0.137	-0.243
-165.837	121.842	0.206	0.253
-164.823	800.000	0.038	-0.105
-163.808	800.000	0.009	0.037
-162.793	-200.000	-0.008	-0.121
-161.779	-173.621	-0.181	-0.005
-160.764	118.564	-0.092	0.112
-159.750	-200.000	-0.037	0.271
-158.735	-200.000	-0.080	-0.446
-157.720	467.198	0.108	-0.240
-156.706	-37.198	-0.170	0.090
-155.691	800.000	-0.095	0.286
-154.677	105.600	-0.199	-0.232
-153.662	142.445	0.191	-0.250
-152.647	-176.002	-0.168	-0.004
-151.633	-200.000	0.049	0.224
-150.618	197.811	0.165	0.248
-149.604	118.396	0.058	-0.071
-148.589	26.832	-0.246	-0.203
-147.574	-200.000	-0.010	-0.110
-146.560	-182.347	-0.143	-0.003
-145.545	-200.000	0.005	-0.026
-144.531	-133.307	0.133	0.017
-143.516	-89.265	-0.280	0.081
-142.502	129.970	0.137	0.172
-141.487	-119.883	-0.128	0.022
-140.472	62.183	0.223	-0.219
-139.458	-5.379	0.344	0.233
-138.443	-99.504	0.029	-0.007
-137.429	-43.099	-0.145	0.073
-136.414	28.589	-0.114	0.095
-135.399	555.644	0.026	0.063
-134.385	181.015	0.071	0.103
-133.370	-171.846	0.290	-0.009
-132.356	519.225	-0.036	-0.083
-131.341	-149.267	0.215	-0.017
-130.326	800.000	-0.071	0.204
-129.312	150.438	0.177	0.236
-128.297	800.000	-0.014	0.054
-127.283	-68.066	0.114	-0.044
-126.268	-165.568	-0.264	0.011
-125.253	67.571	0.170	-0.171
-124.239	466.214	0.043	-0.096
-123.224	148.594	0.212	0.283
-122.210	-170.393	-0.225	0.008
-121.195	-125.945	-0.090	0.013
-120.180	196.561	0.058	0.088
-119.166	235.468	-0.130	-0.211
-118.151	2.192	-0.146	0.104
-117.137	185.178	-0.137	-0.201
-116.122	-67.737	-0.342	-0.132
-115.107	800.000	0.108	-0.300
-114.093	61.291	0.122	-0.120
-113.078	-200.000	-0.002	-0.489
-112.064	-200.000	0.008	-0.459
-111.049	134.387	-0.226	-0.289
-110.034	-15.887	0.069	-0.043
-109.020	-200.000	-0.072	-0.403
-108.005	-44.002	0.290	-0.143
-106.991	395.208	0.038	-0.078
-105.976	713.124	-0.139	-0.364
-104.962	223.743	-0.069	0.110
-103.947	-168.210	0.099	0.004
-102.932	-80.707	0.248	0.081
-101.918	626.155	-0.097	-0.241
-100.903	70.770	0.104	-0.106
-99.889	-132.767	0.185	0.023
-98.874	-37.021	0.122	0.064
-97.859	-113.552	-0.191	0.037
-96.845	-68.467	0.356	-0.136
-95.830	40.288	-0.192	-0.170
-94.816	-150.474	-0.261	0.020
-93.801	-96.996	0.261	-0.067
-92.786	389.092	0.026	-0.054
-91.772	-52.083	-0.100	0.046
-90.757	-122.922	-0.127	0.020
-89.743	-200.000	-0.024	-0.403
-88.728	74.023	-0.275	-0.284
-87.713	-200.000	0.092	0.415
-86.699	133.457	-0.122	-0.156
-85.684	-200.000	-0.049	-0.260
-84.670	203.686	0.117	0.178
-83.655	-200.000	-0.035	0.416
-82.640	72.881	-0.186	0.191
-81.626	-200.000	-0.014	0.088
-80.611	-2.491	0.076	0.052
-79.597	-76.959	0.210	-0.072
-78.582	-200.000	0.025	-0.239
-77.567	-200.000	-0.067	0.326
-76.553	11.898	-0.270	-0.204
-75.538	491.685	-0.100	0.225
-74.524	55.161	0.345	0.328
-73.509	-66.079	0.315	0.124
-72.494	96.509	-0.169	-0.191
-71.480	-200.000	0.004	0.115
-70.465	-200.000	0.058	0.288
-69.451	40.646	-0.102	-0.091
-68.436	65.680	-0.206	-0.205
-67.422	-88.411	-0.326	0.096
-66.407	472.713	-0.052	0.115
-65.392	406.234	-0.042	0.087
-64.378	49.076	0.277	0.256
-63.363	-151.128	0.268	-0.020
-62.349	-102.629	0.574	-0.135
-61.334	67.960	-1.219	-1.226
-60.319	355.173	0.363	0.709
-59.305	561.387	-0.390	-0.927
-58.290	800.000	0.440	1.196
-57.276	476.614	0.795	1.765
-56.261	-200.000	116.317	641.367
-55.246	489.971	1539.456	3460.125
-54.232	172.381	2717.927	3842.735
-53.217	94.784	2326.171	2600.245
-52.203	32.798	2070.014	1760.599
-51.188	28.154	1985.310	1646.802
-50.173	26.782	1968.904	1620.876
-49.159	43.282	2029.826	1821.511
-48.144	42.438	2043.971	1826.459
-47.130	28.593	2002.676	1664.926
-46.115	26.405	1992.383	1636.532
-45.100	26.346	1989.362	1633.449
-44.086	26.304	1986.859	1630.954
-43.071	26.303	1983.487	1628.111
-42.057	26.285	1982.084	1626.733
-41.042	26.252	1980.204	1624.824
-40.027	26.252	1978.359	1623.248
-39.013	26.317	1976.430	1622.189
-37.998	26.300	1974.680	1620.531
-36.984	26.313	1972.669	1618.933
-35.969	26.394	1970.511	1617.827
-34.954	26.280	1969.297	1615.745
-33.940	26.313	1967.436	1614.451
-32.925	26.441	1965.879	1614.245
-31.911	26.389	1964.329	1612.443
-30.896	26.413	1962.933	1611.452
-29.881	26.455	1961.441	1610.534
-28.867	26.412	1959.950	1608.865
-27.852	26.398	1958.647	1607.612
-26.838	26.453	1955.994	1605.852
-25.823	26.422	1954.529	1604.310
-24.809	26.347	1952.469	1601.891
-23.794	26.398	1950.622	1600.763
-22.779	26.420	1948.871	1599.464
-21.765	26.450	1947.016	1598.141
-20.750	26.444	1945.899	1597.106
-19.736	26.421	1944.319	1595.542
-18.721	26.383	1942.602	1593.737
-17.706	26.397	1940.664	1592.202
-16.692	26.462	1938.908	1591.275
-15.677	26.408	1937.737	1589.777
-14.663	26.430	1936.033	1588.503
-13.648	26.325	1935.535	1587.113
-12.633	26.335	1934.003	1585.879
-11.619	26.337	1932.828	1584.875
-10.604	26.420	1931.189	1584.192
-9.590	26.471	1929.594	1583.270
-8.575	26.457	1928.389	1582.095
-7.560	26.372	1927.410	1580.484
-6.546	26.469	1925.794	1579.948
-5.531	26.474	1924.370	1578.756
-4.517	26.459	1923.336	1577.719
-3.502	26.483	1922.105	1576.848
-2.487	26.385	1921.327	1575.294
-1.473	26.382	1920.488	1574.519
-0.458	26.426	1915.266	1570.563
0.556	27.175	1895.083	1542.490
1.571	23.059	1876.816	1492.820
2.586	19.123	1900.200	1477.566
3.600	18.123	1935.381	1496.051
4.615	17.768	1927.687	1486.872
5.629	13.484	1827.309	1373.853
6.644	6.483	1714.486	1234.243
7.659	3.365	1681.558	1186.451
8.673	3.130	1679.095	1182.803
9.688	3.182	1677.871	1182.230
10.702	3.223	1676.312	1181.347
11.717	3.184	1673.063	1178.653
12.731	3.592	1671.741	1180.740
13.746	8.251	1683.463	1224.736
14.761	15.985	1699.748	1296.197
15.775	20.007	1706.804	1332.466
16.790	20.259	1706.264	1333.863
17.804	19.344	1703.178	1324.311
18.819	18.400	1699.939	1314.433
19.834	17.789	1697.236	1307.548
20.848	17.655	1695.824	1305.315
21.863	17.418	1694.601	1302.444
22.877	17.282	1693.371	1300.343
23.892	16.996	1692.327	1297.242
24.907	16.946	1691.187	1295.867
25.921	16.982	1690.193	1295.266
26.936	17.003	1688.523	1294.037
27.950	17.053	1688.157	1294.023
28.965	17.025	1687.613	1293.275
29.980	17.033	1686.741	1292.551
30.994	17.106	1686.409	1292.744
32.009	17.286	1684.523	1292.546
33.023	17.310	1683.554	1291.877
34.038	17.401	1682.538	1291.667
35.053	17.281	1681.700	1290.002
36.067	17.247	1680.124	1288.419
37.082	17.079	1679.148	1286.289
38.096	17.192	1677.649	1285.881
39.111	17.233	1677.258	1285.779
40.126	17.287	1676.256	1285.305
41.140	17.202	1675.904	1284.280
42.155	17.019	1673.960	1281.292
43.169	16.835	1672.616	1278.765
44.184	16.886	1671.130	1277.894
45.199	16.800	1669.480	1275.872
46.213	16.766	1669.173	1275.267
47.228	16.756	1668.097	1274.257
48.242	16.919	1667.250	1274.724
49.257	17.078	1665.600	1274.548
50.271	17.048	1664.770	1273.570
51.286	16.994	1663.232	1271.878
52.301	17.062	1661.912	1271.266
53.315	17.094	1660.557	1270.358
54.330	17.065	1659.291	1269.059
55.344	16.976	1656.872	1266.435
56.359	16.864	1656.036	1264.847
57.374	16.830	1655.013	1263.702
58.388	16.977	1653.248	1263.332
59.403	16.824	1652.298	1261.361
60.417	16.730	1651.008	1259.560
61.432	16.723	1649.992	1258.625
62.447	16.678	1648.951	1257.382
63.461	16.650	1647.390	1255.875
64.476	16.623	1646.377	1254.790
65.490	16.576	1645.272	1253.486
66.505	16.571	1644.093	1252.446
67.520	16.621	1642.991	1251.862
68.534	16.693	1642.026	1251.552
69.549	16.688	1641.098	1250.694
70.563	16.682	1639.804	1249.549
71.578	16.666	1638.094	1248.024
72.593	16.567	1637.145	1246.457
73.607	16.482	1636.394	1245.151
74.622	16.558	1634.610	1244.244
75.636	16.558	1634.107	1243.751
76.651	16.555	1633.192	1242.921
77.666	16.523	1632.503	1242.051
78.680	16.653	1631.185	1241.889
79.695	16.567	1630.954	1240.978
80.709	16.568	1630.101	1240.224
81.724	16.632	1629.388	1240.044
82.739	16.748	1628.588	1240.173
83.753	16.910	1627.313	1240.276
84.768	16.956	1626.703	1240.036
85.782	17.015	1626.993	1240.580
86.797	17.190	1625.597	1240.683
87.812	17.251	1624.296	1240.025
88.826	17.071	1623.384	1237.907
89.841	17.055	1621.794	1236.470
90.855	17.081	1620.940	1235.897
91.870	17.102	1620.332	1235.477
92.884	17.148	1619.389	1234.981
93.899	17.281	1618.163	1234.908
94.914	17.224	1616.663	1233.238
95.928	17.298	1615.901	1233.083
96.943	17.224	1614.562	1231.416
97.957	17.233	1612.747	1229.990
98.972	17.168	1611.204	1228.234
99.987	17.150	1609.516	1226.710
101.001	17.120	1607.864	1225.125
102.016	17.181	1606.286	1224.250
103.030	17.096	1605.564	1222.980
104.045	17.195	1604.285	1222.613
105.060	17.096	1602.950	1220.778
106.074	17.184	1600.937	1219.763
107.089	17.043	1599.292	1217.395
108.103	16.778	1597.791	1214.244
109.118	16.629	1596.860	1212.362
110.133	16.607	1594.988	1210.674
111.147	16.597	1593.408	1209.296
112.162	16.681	1592.085	1208.788
113.176	16.631	1591.224	1207.670
114.191	16.670	1589.922	1206.853
115.206	16.740	1588.662	1206.287
116.220	16.752	1586.980	1204.991
117.235	16.786	1585.758	1204.198
118.249	16.764	1584.511	1202.986
119.264	16.694	1583.380	1201.527
120.279	16.717	1581.554	1200.199
121.293	16.765	1579.652	1198.989
122.308	16.601	1578.454	1196.811
123.322	16.603	1576.693	1195.383
124.337	16.544	1575.337	1193.834
125.352	16.459	1574.392	1192.415
126.366	16.515	1572.690	1191.413
127.381	16.506	1571.649	1190.454
128.395	16.430	1570.646	1189.054
129.410	16.566	1569.209	1188.817
130.424	16.598	1568.041	1188.054
131.439	16.562	1566.984	1186.896
132.454	16.604	1565.666	1186.084
133.468	16.644	1564.702	1185.527
134.483	16.763	1563.264	1185.171
135.497	16.790	1561.665	1184.041
136.512	16.795	1560.702	1183.239
137.527	16.798	1559.249	1182.056
138.541	16.748	1558.155	1180.771
139.556	16.873	1556.523	1180.305
140.570	16.961	1554.809	1179.510
141.585	16.998	1553.562	1178.713
142.600	17.031	1552.857	1178.308
143.614	17.137	1551.419	1177.846
144.629	17.176	1550.389	1177.230
145.643	17.257	1549.086	1176.697
146.658	17.254	1547.623	1175.459
147.673	17.161	1546.222	1173.653
148.687	17.143	1544.517	1172.131
149.702	17.116	1542.730	1170.483
150.716	16.956	1540.959	1167.936
151.731	16.936	1540.379	1167.256
152.746	16.899	1538.862	1165.745
153.760	16.897	1537.465	1164.568
154.775	17.023	1535.945	1164.183
155.789	17.060	1534.603	1163.314
156.804	17.050	1534.259	1162.880
157.819	17.014	1533.166	1161.702
158.833	17.041	1531.509	1160.534
159.848	17.134	1530.647	1160.410
160.862	17.366	1528.934	1160.595
161.877	17.308	1528.108	1159.468
162.892	17.154	1526.763	1157.294
163.906	17.073	1525.006	1155.309
164.921	16.927	1524.009	1153.459
165.935	16.973	1522.955	1152.874
166.950	17.008	1521.763	1152.106
167.964	17.125	1520.658	1151.962
168.979	17.122	1519.823	1151.205
169.994	17.067	1518.793	1149.954
171.008	17.132	1517.233	1149.107
172.023	17.096	1516.613	1148.295
173.037	17.228	1514.845	1147.745
174.052	17.239	1514.509	1147.463
175.067	17.390	1512.864	1147.133
176.081	17.238	1511.767	1145.177
177.096	16.984	1510.698	1142.554
178.110	17.031	1509.064	1141.532
179.125	17.033	1507.997	1140.640
180.140	17.161	1506.913	1140.576
181.154	17.100	1506.160	1139.500
182.169	17.206	1505.147	1139.338
183.183	17.331	1503.826	1139.075
184.198	17.322	1503.358	1138.564
185.213	17.349	1502.168	1137.738
186.227	17.434	1501.037	1137.349
187.242	17.350	1500.383	1136.197
188.256	17.454	1499.103	1135.821
189.271	17.487	1498.247	1135.291
190.286	17.613	1496.837	1134.958
191.300	17.487	1496.085	1133.450
192.315	17.236	1494.120	1130.193
193.329	16.968	1492.958	1127.431
194.344	16.940	1491.635	1126.148
195.359	17.048	1490.831	1126.156
196.373	17.175	1489.567	1125.947
197.388	17.269	1488.897	1125.960
198.402	17.356	1488.009	1125.764
199.417	17.444	1486.874	1125.392
200.432	17.622	1486.160	1125.928
201.446	17.707	1485.200	1125.658
202.461	17.792	1484.537	1125.619
203.475	17.739	1483.414	1124.318
204.490	17.954	1482.099	1124.641
205.504	17.717	1481.312	1122.380
206.519	17.709	1479.904	1121.164
207.534	17.420	1478.774	1118.307
208.548	17.558	1477.405	1118.080
209.563	17.541	1476.678	1117.321
210.577	17.556	1475.808	1116.663
211.592	17.546	1474.381	1115.414
212.607	17.591	1474.009	1115.331
213.621	17.764	1473.568	1116.030
214.636	17.781	1472.726	1115.404
215.650	17.738	1471.471	1114.079
216.665	17.703	1470.925	1113.337
217.680	17.785	1470.194	1113.216
218.694	17.918	1468.986	1113.074
219.709	17.967	1468.364	1112.821
220.723	17.992	1467.183	1111.992
221.738	17.913	1466.336	1110.739
222.753	17.894	1465.656	1110.003
223.767	17.800	1464.791	1108.633
224.782	17.838	1463.686	1107.948
225.796	17.937	1462.826	1107.840
226.811	18.024	1461.934	1107.632
227.826	18.051	1461.164	1107.128
228.840	18.010	1460.059	1105.929
229.855	17.914	1459.227	1104.575
230.869	17.911	1457.890	1103.443
231.884	17.919	1457.140	1102.834
232.899	17.927	1455.645	1101.656
233.913	17.865	1454.500	1100.291
234.928	17.739	1453.312	1098.483
235.942	17.725	1451.994	1097.302
236.957	17.752	1450.640	1096.354
237.972	17.759	1449.641	1095.547
238.986	17.775	1448.571	1094.743
240.001	17.707	1448.056	1093.823
241.015	17.826	1446.570	1093.368
242.030	17.754	1445.300	1091.850
243.045	17.847	1444.698	1091.891
244.059	17.896	1444.103	1091.661
245.074	17.946	1443.182	1091.187
246.088	17.947	1442.105	1090.280
247.103	18.042	1441.478	1090.319
248.117	18.102	1440.545	1089.898
249.132	18.159	1440.049	1089.786
250.147	18.292	1439.209	1089.906
251.161	18.487	1439.290	1091.108
252.176	18.582	1438.459	1090.987
253.190	18.564	1438.078	1090.487
254.205	18.718	1436.798	1090.401
255.220	18.737	1435.947	1089.780
256.234	18.734	1435.270	1089.149
257.249	18.724	1434.453	1088.366
258.263	18.656	1433.674	1087.250
259.278	18.660	1432.798	1086.516
260.293	18.743	1431.585	1086.026
261.307	18.755	1430.902	1085.484
262.322	18.746	1430.260	1084.843
263.336	18.881	1429.330	1084.893
264.351	18.920	1428.115	1084.125
265.366	18.849	1427.768	1083.315
266.380	18.808	1427.210	1082.541
267.395	18.890	1425.711	1081.823
268.409	18.914	1424.726	1081.131
269.424	18.722	1423.949	1079.240
270.439	18.682	1422.641	1077.899
271.453	18.782	1421.064	1077.234
272.468	18.718	1420.765	1076.512
273.482	18.608	1420.168	1075.278
274.497	18.630	1418.846	1074.315
275.512	18.721	1418.219	1074.318
276.526	18.623	1417.209	1072.847
277.541	18.578	1416.318	1071.795
278.555	18.674	1415.231	1071.475
279.570	18.604	1414.865	1070.670
280.585	18.698	1413.970	1070.481
281.599	18.934	1412.686	1070.885
282.614	18.954	1411.803	1070.247
283.628	18.919	1410.818	1069.185
284.643	18.787	1409.638	1067.375
285.657	18.781	1408.191	1066.148
286.672	18.664	1408.230	1065.359
287.687	18.794	1406.658	1064.881
288.701	18.822	1405.761	1064.282
289.716	18.827	1405.033	1063.670
290.730	18.802	1404.514	1063.024
291.745	18.905	1403.209	1062.580
292.760	18.861	1402.206	1061.453
293.774	18.964	1400.805	1060.938
294.789	18.942	1400.418	1060.416
295.803	19.026	1399.737	1060.322
296.818	19.109	1398.926	1060.123
297.833	19.056	1397.743	1058.805
298.847	18.918	1396.559	1056.967
299.862	18.932	1395.637	1056.263
300.876	18.855	1394.896	1055.134
301.891	18.899	1393.712	1054.419
302.906	18.931	1393.562	1054.407
303.920	19.104	1392.701	1054.721
304.935	19.124	1391.739	1054.022
305.949	19.286	1391.077	1054.418
306.964	19.354	1390.276	1054.137
307.979	19.389	1389.265	1053.490
308.993	19.397	1388.205	1052.640
310.008	19.261	1387.150	1050.919
311.022	19.364	1385.795	1050.425
312.037	19.373	1385.534	1050.192
313.052	19.329	1384.307	1048.900
314.066	19.336	1383.500	1048.238
315.081	19.200	1382.049	1046.217
316.095	19.041	1381.185	1044.509
317.110	19.000	1380.037	1043.297
318.125	19.013	1378.955	1042.470
319.139	19.062	1377.996	1041.946
320.154	18.972	1377.136	1040.660
321.168	19.062	1376.033	1040.277
322.183	19.018	1375.509	1039.527
323.197	18.978	1374.454	1038.395
324.212	19.088	1373.729	1038.417
325.227	19.091	1372.785	1037.631
326.241	19.188	1371.680	1037.290
327.256	19.296	1370.656	1037.071
328.270	19.271	1369.837	1036.210
329.285	19.154	1369.330	1035.033
330.300	19.127	1368.551	1034.185
331.314	19.169	1367.389	1033.468
332.329	19.170	1366.596	1032.786
333.343	19.136	1365.656	1031.778
334.358	19.187	1364.535	1031.147
335.373	19.236	1364.167	1031.074
336.387	19.350	1363.160	1030.902
337.402	19.345	1363.035	1030.688
338.416	19.480	1362.130	1030.718
339.431	19.469	1361.353	1029.968
340.446	19.516	1360.704	1029.672
341.460	19.609	1359.368	1029.121
342.475	19.680	1359.010	1029.184
343.489	19.814	1357.759	1028.942
344.504	19.827	1356.774	1028.182
345.519	19.718	1356.293	1027.080
346.533	19.871	1354.833	1026.788
347.548	19.916	1354.174	1026.468
348.562	19.904	1353.595	1025.863
349.577	19.928	1352.493	1025.082
350.592	19.934	1351.831	1024.522
351.606	19.784	1350.724	1022.711
352.621	19.637	1349.201	1020.596
353.635	19.465	1348.480	1018.943
354.650	19.567	1347.504	1018.720
355.665	19.536	1346.261	1017.505
356.679	19.625	1345.284	1017.199
357.694	19.581	1344.752	1016.452
358.708	19.706	1343.410	1016.083
359.723	19.780	1342.199	1015.508
360.738	19.788	1341.521	1014.956
361.752	19.755	1340.761	1014.096
362.767	19.763	1339.424	1013.044
363.781	19.857	1338.419	1012.742
364.796	19.838	1337.697	1011.996
365.810	19.766	1337.372	1011.238
366.825	19.929	1336.969	1011.794
367.840	19.974	1335.759	1011.056
368.854	20.091	1335.483	1011.441
369.869	20.213	1334.621	1011.406
370.883	20.304	1333.846	1011.265
371.898	20.253	1332.580	1009.917
372.913	20.110	1332.185	1008.693
373.927	19.988	1331.382	1007.285
374.942	20.120	1330.506	1007.302
375.956	20.144	1330.120	1007.060
376.971	20.219	1329.287	1006.779
377.986	20.157	1327.941	1005.308
379.000	20.236	1327.341	1005.221
380.015	20.303	1326.782	1005.101
381.029	20.365	1325.606	1004.479
382.044	20.398	1325.310	1004.355
383.059	20.402	1324.794	1003.898
384.073	20.310	1323.978	1002.661
385.088	20.407	1323.007	1002.398
386.102	20.294	1322.721	1001.437
387.117	20.433	1321.564	1001.273
388.132	20.307	1320.855	999.923
389.146	20.257	1319.669	998.649
390.161	20.129	1318.753	997.131
391.175	20.192	1317.858	996.728
392.190	20.207	1317.506	996.463
393.205	20.204	1316.394	995.517
394.219	20.275	1315.666	995.282
395.234	20.412	1314.811	995.336
396.248	20.368	1313.417	993.936
397.263	20.297	1311.685	992.131
398.278	20.234	1310.871	991.069
399.292	20.282	1309.483	990.208
400.307	20.100	1308.519	988.351
401.321	20.210	1307.027	987.765
402.336	20.144	1306.324	986.773
403.350	20.135	1305.227	985.802
404.365	20.081	1304.369	984.760
405.380	20.066	1303.413	983.866
406.394	20.243	1302.575	984.151
407.409	20.378	1301.602	984.096
408.423	20.419	1301.272	983.988
409.438	20.531	1300.673	984.087
410.453	20.459	1300.331	983.332
411.467	20.724	1299.139	983.839
412.482	20.694	1298.637	983.204
413.496	20.555	1298.811	982.465
414.511	20.700	1297.674	982.335
415.526	20.790	1297.029	982.268
416.540	20.866	1296.307	982.063
417.555	20.881	1295.392	981.366
418.569	20.947	1295.238	981.535
419.584	20.956	1294.056	980.603
420.599	20.717	1293.972	979.108
421.613	145.635	1435.872	1797.752
422.628	140.698	1456.487	1797.807
