DTS Sentinel unit serial number:	SN413079Multiplexer serial number:	ORYXHardware model number:	OX4-SRSoftware version number:	ORYX F/W v4.00 Oryx Data Collector v3.7.2.0data status	okinstallation	princeton_trtdifferential loss correction	single-endedforward channel	channel 4reverse channel	N/Adate	2019/09/18time	23:17:35forward acquisition time	60.00reverse acquisition time	0.00gamma	496.2192k internal	0.2333k external	0.2333temperature offset calibration	1.0033default loss term (dB/km)	0.3790temperature slope calibration	1.0000multiplexer offset coefficient	1.0000multiplexer slope coefficient	1.0000fibre end	0.00T internal ref (°C)	23.87T ext. ref 1 (°C)	0.78T ext. ref 2 (°C)	17.15length (m)	temperature (°C)	Stokes	anti-Stokes-747.200	-133.352	0.229	-0.029
-746.185	-200.000	-0.028	0.141
-745.171	-95.712	-0.235	0.063
-744.156	55.400	0.069	0.067
-743.142	14.128	-0.217	-0.170
-742.127	-147.345	-0.301	-0.026
-741.112	800.000	0.031	-0.133
-740.098	127.962	0.094	-0.121
-739.083	42.141	0.114	0.104
-738.069	-200.000	-0.051	0.397
-737.054	-15.324	-0.102	0.066
-736.039	44.467	-0.326	0.301
-735.025	800.000	0.097	0.299
-734.010	221.562	-0.113	0.183
-732.996	64.320	-0.061	-0.062
-731.981	-30.160	-0.066	0.037
-730.966	386.910	-0.140	0.291
-729.952	-200.000	-0.001	-0.069
-728.937	415.788	-0.066	-0.140
-727.923	-54.158	-0.264	0.120
-726.908	-145.563	-0.357	0.032
-725.894	-200.000	-0.082	0.559
-724.879	-144.859	-0.184	0.017
-723.864	800.000	0.048	-0.156
-722.850	-106.549	-0.279	0.063
-721.835	64.320	-0.451	-0.456
-720.821	30.272	0.225	-0.193
-719.806	-48.109	-0.045	-0.022
-718.791	141.071	-0.080	-0.106
-717.777	-114.760	0.501	0.096
-716.762	800.000	-0.128	-0.394
-715.748	800.000	0.087	-0.270
-714.733	575.058	0.069	0.170
-713.718	284.320	0.222	-0.402
-712.704	319.363	0.051	0.098
-711.689	-53.083	0.206	0.095
-710.675	-50.136	-0.247	0.117
-709.660	-152.004	-0.161	0.012
-708.645	572.247	0.020	0.048
-707.631	800.000	-0.080	-0.238
-706.616	215.233	0.081	-0.129
-705.602	-103.062	0.284	-0.068
-704.587	-200.000	-0.020	-0.464
-703.572	595.064	0.071	-0.176
-702.558	-96.261	0.181	-0.048
-701.543	-200.000	-0.011	0.255
-700.529	-100.559	-0.241	-0.060
-699.514	398.126	-0.031	-0.064
-698.499	-79.446	-0.101	0.034
-697.485	-78.748	-0.138	-0.047
-696.470	11.466	0.162	0.125
-695.456	90.148	-0.170	0.190
-694.441	31.312	-0.138	-0.119
-693.426	-78.237	-0.106	-0.037
-692.412	190.895	-0.194	-0.293
-691.397	-26.604	-0.314	-0.185
-690.383	-14.403	0.168	-0.109
-689.368	15.497	0.177	-0.139
-688.354	27.764	-0.254	-0.214
-687.339	-200.000	0.008	-0.252
-686.324	-37.118	0.026	0.014
-685.310	-200.000	0.016	0.202
-684.295	800.000	0.035	-0.151
-683.281	-65.950	0.353	0.141
-682.266	718.474	-0.128	0.340
-681.251	113.467	-0.231	-0.282
-680.237	33.884	0.080	-0.070
-679.222	-198.161	0.113	0.001
-678.208	-17.761	-0.111	-0.070
-677.193	-68.800	-0.243	-0.094
-676.178	-65.776	0.329	0.132
-675.164	-200.000	-0.025	0.248
-674.149	-59.095	0.124	0.054
-673.135	-109.848	-0.198	-0.042
-672.120	-89.361	0.205	0.060
-671.105	800.000	0.036	0.122
-670.091	325.070	0.109	-0.209
-669.076	800.000	0.112	-0.404
-668.062	44.627	-0.159	0.146
-667.047	-187.318	0.366	0.005
-666.032	800.000	0.065	0.206
-665.018	-200.000	0.000	0.261
-664.003	800.000	0.041	-0.118
-662.989	637.470	-0.096	-0.244
-661.974	-200.000	0.040	-0.221
-660.959	9.192	0.168	0.128
-659.945	-7.485	-0.268	-0.182
-658.930	800.000	0.108	0.371
-657.916	231.710	0.138	-0.228
-656.901	-200.000	-0.018	-0.085
-655.886	475.920	-0.006	-0.014
-654.872	-58.254	0.040	-0.017
-653.857	222.857	-0.128	0.207
-652.843	567.688	-0.033	0.080
-651.828	153.557	-0.101	0.139
-650.814	-200.000	0.024	0.409
-649.799	190.879	-0.095	0.142
-648.784	800.000	0.048	-0.158
-647.770	487.331	0.143	0.327
-646.755	97.599	0.159	-0.183
-645.741	-131.418	0.446	0.059
-644.726	-21.329	0.271	0.166
-643.711	-56.962	-0.350	0.155
-642.697	28.283	-0.173	0.146
-641.682	-24.969	0.183	-0.109
-640.668	-95.486	0.117	0.031
-639.653	-183.539	-0.197	-0.003
-638.638	-200.000	-0.027	-0.287
-637.624	-33.101	0.218	0.121
-636.609	345.773	-0.108	-0.212
-635.595	800.000	0.101	0.381
-634.580	186.177	0.238	0.354
-633.565	-200.000	0.043	-0.296
-632.551	-1.522	0.164	-0.116
-631.536	145.854	0.211	-0.283
-630.522	-184.448	0.041	-0.001
-629.507	-67.670	0.084	-0.033
-628.492	-104.551	0.200	-0.046
-627.478	-36.635	0.188	-0.101
-626.463	-89.375	-0.242	0.071
-625.449	63.415	0.152	0.153
-624.434	-41.906	0.177	-0.091
-623.419	36.492	-0.182	0.161
-622.405	17.520	-0.102	0.081
-621.390	-65.596	-0.198	0.079
-620.376	-200.000	-0.101	-0.485
-619.361	299.016	-0.160	-0.295
-618.346	-9.971	-0.122	0.081
-617.332	20.378	0.098	0.079
-616.317	-0.625	0.347	0.246
-615.303	-200.000	0.027	0.129
-614.288	800.000	0.122	0.534
-613.273	562.732	-0.148	-0.358
-612.259	210.747	-0.069	-0.109
-611.244	201.529	-0.073	-0.112
-610.230	-120.781	0.149	0.025
-609.215	460.940	-0.046	-0.102
-608.201	1.956	0.197	0.142
-607.186	278.393	0.050	0.090
-606.171	-26.711	-0.084	-0.049
-605.157	218.106	0.086	-0.137
-604.142	-200.000	0.009	0.090
-603.128	51.635	-0.187	-0.178
-602.113	211.093	-0.075	-0.118
-601.098	516.872	0.086	0.200
-600.084	800.000	0.033	-0.095
-599.069	-57.881	0.305	-0.133
-598.055	-200.000	-0.057	0.350
-597.040	-165.913	0.263	0.011
-596.025	-5.213	0.084	0.058
-595.011	800.000	-0.075	-0.240
-593.996	-180.669	-0.264	-0.005
-592.982	-58.854	-0.477	-0.206
-591.967	319.612	-0.043	0.082
-590.952	-200.000	-0.015	-0.197
-589.938	-159.896	-0.156	-0.009
-588.923	-83.332	0.115	-0.037
-587.909	800.000	-0.068	0.211
-586.894	-17.563	-0.337	0.212
-585.879	-79.571	0.387	0.131
-584.865	-85.330	0.219	-0.068
-583.850	651.908	0.043	0.111
-582.836	752.290	0.121	0.325
-581.821	-112.257	-0.209	-0.042
-580.806	-34.335	-0.237	-0.130
-579.792	118.112	-0.155	0.191
-578.777	163.282	0.212	0.298
-577.763	-102.080	0.346	-0.083
-576.748	177.629	-0.065	-0.095
-575.733	-98.289	-0.437	-0.112
-574.719	-200.000	-0.015	0.133
-573.704	-48.551	-0.196	-0.094
-572.690	-100.943	-0.099	0.024
-571.675	-69.834	-0.190	-0.072
-570.661	-104.310	0.170	0.039
-569.646	93.985	-0.090	0.102
-568.631	-24.085	0.052	0.031
-567.617	-6.161	0.129	-0.088
-566.602	-200.000	0.010	0.107
-565.588	626.105	-0.107	-0.271
-564.573	29.785	0.087	-0.074
-563.558	282.719	-0.059	-0.106
-562.544	-165.522	-0.150	-0.007
-561.529	388.829	0.089	0.184
-560.515	-200.000	0.048	0.392
-559.500	-200.000	-0.086	0.463
-558.485	199.429	-0.188	0.287
-557.471	299.525	-0.190	-0.349
-556.456	-26.820	0.223	-0.130
-555.442	492.696	-0.061	0.139
-554.427	-87.301	0.275	-0.083
-553.412	684.769	0.155	0.404
-552.398	800.000	-0.115	-0.330
-551.383	332.469	-0.031	-0.060
-550.369	-200.000	0.028	0.152
-549.354	-6.370	-0.094	0.064
-548.339	-19.053	-0.152	0.094
-547.325	275.920	0.272	0.482
-546.310	-127.451	0.160	0.023
-545.296	-84.595	-0.235	-0.074
-544.281	43.360	-0.122	-0.111
-543.266	-137.745	-0.264	0.030
-542.252	-135.753	0.130	-0.015
-541.237	-200.000	-0.011	0.228
-540.223	477.317	-0.083	0.187
-539.208	226.400	0.189	-0.306
-538.193	-87.391	0.168	0.051
-537.179	-62.337	-0.288	-0.120
-536.164	131.769	0.339	-0.435
-535.150	-200.000	0.002	0.027
-534.135	800.000	0.122	0.471
-533.121	-24.499	-0.270	-0.160
-532.106	-139.922	-0.017	-0.002
-531.091	159.526	-0.058	0.080
-530.077	89.727	0.089	-0.099
-529.062	26.256	0.314	0.261
-528.048	-142.948	-0.256	-0.025
-527.033	464.872	-0.047	-0.104
-526.018	-34.696	-0.033	-0.018
-525.004	-185.498	0.249	0.004
-523.989	144.756	-0.115	0.153
-522.975	-151.504	0.316	-0.023
-521.960	800.000	-0.024	0.097
-520.945	-18.502	0.163	-0.101
-519.931	150.334	-0.084	0.114
-518.916	680.478	0.038	0.098
-517.902	531.801	-0.148	-0.348
-516.887	39.440	0.105	0.093
-515.872	-200.000	-0.084	-0.584
-514.858	-17.847	-0.150	-0.094
-513.843	-200.000	0.003	-0.123
-512.829	-200.000	-0.047	-0.345
-511.814	800.000	-0.109	0.368
-510.799	-200.000	-0.009	0.197
-509.785	-94.034	0.143	-0.039
-508.770	19.197	-0.155	0.124
-507.756	-122.074	0.169	-0.028
-506.741	93.750	-0.107	-0.120
-505.726	18.331	-0.224	-0.178
-504.712	800.000	0.058	-0.223
-503.697	-37.319	-0.387	0.206
-502.683	136.044	-0.151	0.196
-501.668	-110.536	-0.338	0.070
-500.653	473.074	-0.067	0.149
-499.639	800.000	-0.068	-0.277
-498.624	-138.741	0.061	0.007
-497.610	96.774	0.270	-0.308
-496.595	-133.620	-0.155	-0.019
-495.581	101.425	-0.171	0.198
-494.566	44.408	-0.287	-0.262
-493.551	32.674	-0.174	0.150
-492.537	468.565	0.014	-0.031
-491.522	-200.000	0.022	-0.138
-490.508	174.040	-0.160	0.230
-489.493	-200.000	0.011	0.063
-488.478	-71.387	-0.242	-0.090
-487.464	-81.161	0.243	-0.080
-486.449	800.000	0.114	-0.350
-485.435	-104.993	0.192	-0.044
-484.420	-200.000	-0.009	-0.045
-483.405	299.791	0.213	0.390
-482.391	71.799	-0.348	0.360
-481.376	-155.003	-0.182	0.012
-480.362	45.075	-0.154	-0.141
-479.347	-148.500	0.166	0.014
-478.332	-154.852	-0.078	-0.005
-477.318	-105.197	0.155	0.035
-476.303	513.262	0.048	0.111
-475.289	-111.280	-0.258	-0.052
-474.274	50.450	0.127	0.119
-473.259	19.870	-0.460	-0.368
-472.245	118.149	-0.223	-0.273
-471.230	156.898	-0.149	-0.204
-470.216	-200.000	0.082	-0.377
-469.201	-5.486	-0.219	-0.149
-468.186	555.619	-0.120	0.288
-467.172	-200.000	-0.052	-0.245
-466.157	-61.436	-0.380	0.159
-465.143	-85.523	-0.084	0.026
-464.128	141.449	-0.134	0.176
-463.113	-93.568	-0.099	-0.027
-462.099	23.540	-0.151	0.124
-461.084	-123.522	-0.163	-0.026
-460.070	-32.977	-0.087	0.048
-459.055	62.476	0.247	-0.245
-458.040	25.733	-0.118	0.097
-457.026	226.715	-0.138	-0.223
-456.011	700.783	-0.094	0.246
-454.997	-190.537	0.126	0.001
-453.982	-76.585	0.157	-0.055
-452.968	-200.000	-0.013	-0.209
-451.953	780.212	-0.076	0.207
-450.938	-200.000	-0.027	-0.279
-449.924	-8.508	0.177	-0.118
-448.909	76.406	-0.187	-0.197
-447.895	-185.471	-0.239	-0.004
-446.880	226.598	-0.151	0.243
-445.865	-178.303	-0.099	0.002
-444.851	245.308	0.062	0.104
-443.836	-200.000	-0.026	-0.134
-442.822	300.771	0.062	0.113
-441.807	101.440	0.333	-0.386
-440.792	-65.810	0.209	0.083
-439.778	800.000	-0.059	0.244
-438.763	-19.182	-0.293	-0.181
-437.749	-170.582	0.165	0.006
-436.734	202.105	0.157	-0.241
-435.719	199.836	0.074	0.113
-434.705	-149.537	-0.296	0.023
-433.690	-142.870	0.340	-0.033
-432.676	-200.000	-0.017	0.264
-431.661	-40.613	-0.230	-0.119
-430.646	-69.112	0.274	-0.105
-429.632	-50.794	0.283	0.132
-428.617	-200.000	-0.014	-0.151
-427.603	-200.000	0.032	0.353
-426.588	-27.120	0.343	-0.199
-425.573	541.543	-0.035	-0.082
-424.559	-176.427	0.191	0.005
-423.544	637.830	-0.011	0.028
-422.530	-120.679	0.162	-0.027
-421.515	135.386	-0.070	-0.090
-420.500	170.480	-0.139	0.198
-419.486	-200.000	0.038	-0.172
-418.471	-200.000	-0.004	-0.031
-417.457	30.515	-0.225	-0.191
-416.442	-81.632	0.187	0.061
-415.428	-136.854	0.068	0.008
-414.413	-200.000	-0.027	-0.241
-413.398	-200.000	-0.018	-0.154
-412.384	-160.232	-0.201	-0.011
-411.369	-96.806	0.099	0.026
-410.355	35.238	0.098	-0.086
-409.340	-66.662	0.082	-0.032
-408.325	-200.000	-0.003	-0.168
-407.311	267.598	0.056	0.097
-406.296	177.999	0.166	-0.240
-405.282	325.096	0.103	-0.195
-404.267	-45.421	0.238	0.117
-403.252	-85.958	0.169	0.052
-402.238	-82.445	0.149	-0.048
-401.223	800.000	-0.133	0.413
-400.209	81.094	-0.263	0.282
-399.194	-77.388	-0.270	-0.093
-398.179	-74.191	-0.150	-0.054
-397.165	-52.600	-0.419	0.192
-396.150	-200.000	-0.013	-0.219
-395.136	800.000	0.052	0.144
-394.121	-200.000	0.001	0.136
-393.106	749.145	-0.096	-0.256
-392.092	-200.000	0.002	0.075
-391.077	-200.000	-0.021	-0.243
-390.063	-132.430	-0.253	-0.032
-389.048	-200.000	0.005	0.397
-388.033	-200.000	0.016	-0.103
-387.019	174.475	-0.110	0.157
-386.004	34.042	-0.245	-0.212
-384.990	-48.890	-0.099	0.047
-383.975	325.042	0.059	0.113
-382.960	-200.000	0.033	-0.204
-381.946	-105.019	-0.216	0.049
-380.931	349.085	0.170	0.332
-379.917	0.392	-0.242	-0.171
-378.902	291.101	0.043	-0.077
-377.888	-168.311	-0.263	-0.010
-376.873	79.138	-0.263	-0.279
-375.858	-200.000	-0.023	0.331
-374.844	396.213	-0.233	0.482
-373.829	-156.960	0.367	0.022
-372.815	-25.916	0.160	0.093
-371.800	10.745	-0.308	-0.233
-370.785	725.730	-0.090	-0.237
-369.771	-102.156	0.034	-0.008
-368.756	-200.000	-0.050	0.326
-367.742	-98.289	-0.217	-0.055
-366.727	639.222	0.050	0.126
-365.712	800.000	0.106	0.299
-364.698	-10.853	-0.304	0.199
-363.683	444.612	-0.086	-0.187
-362.669	220.779	0.051	0.081
-361.654	11.390	-0.247	-0.187
-360.639	211.671	-0.024	0.037
-359.625	-200.000	-0.031	0.444
-358.610	133.901	-0.082	-0.105
-357.596	-0.071	-0.306	0.216
-356.581	-121.828	0.297	0.049
-355.566	-200.000	0.005	0.194
-354.552	115.493	0.135	0.163
-353.537	-86.034	0.169	-0.052
-352.523	140.374	-0.037	-0.049
-351.508	-89.719	0.421	0.122
-350.493	25.570	0.167	-0.138
-349.479	-102.424	0.146	-0.035
-348.464	-200.000	0.068	-0.307
-347.450	174.074	-0.039	-0.056
-346.435	-104.747	-0.093	0.021
-345.420	-200.000	0.051	0.400
-344.406	-200.000	-0.005	-0.042
-343.391	143.562	0.080	0.105
-342.377	-165.520	-0.222	0.010
-341.362	249.399	-0.198	-0.333
-340.348	155.357	0.093	-0.126
-339.333	29.759	0.110	-0.093
-338.318	367.715	0.126	-0.252
-337.304	800.000	-0.057	-0.192
-336.289	466.303	-0.084	0.186
-335.275	-55.752	-0.252	0.111
-334.260	-143.823	-0.150	0.014
-333.245	280.377	0.261	-0.461
-332.231	-104.012	0.279	0.064
-331.216	-200.000	-0.058	0.441
-330.202	-98.274	0.294	-0.075
-329.187	-64.697	0.338	0.135
-328.172	154.851	0.126	-0.171
-327.158	-20.294	0.122	-0.074
-326.143	287.021	-0.154	-0.274
-325.129	-186.070	-0.123	0.002
-324.114	-31.393	0.208	-0.116
-323.099	-103.692	0.197	0.046
-322.085	800.000	0.027	0.083
-321.070	96.030	-0.231	-0.261
-320.056	49.412	-0.129	-0.120
-319.041	800.000	-0.081	-0.262
-318.026	391.404	-0.118	0.243
-317.012	-93.480	-0.151	-0.041
-315.997	-47.923	0.221	0.106
-314.983	317.627	-0.135	0.252
-313.968	56.737	0.300	0.288
-312.953	-35.450	0.316	0.170
-311.939	29.890	-0.197	-0.166
-310.924	-75.876	-0.078	0.027
-309.910	38.775	0.228	0.201
-308.895	186.187	-0.034	0.050
-307.880	66.210	0.180	0.180
-306.866	6.901	0.316	-0.233
-305.851	238.509	-0.167	0.274
-304.837	-26.893	-0.293	0.169
-303.822	-200.000	-0.037	0.183
-302.807	800.000	0.073	-0.244
-301.793	-164.399	-0.451	0.020
-300.778	-5.328	0.389	-0.264
-299.764	800.000	-0.070	-0.255
-298.749	800.000	0.175	0.511
-297.735	-66.405	0.137	-0.054
-296.720	-136.871	-0.123	0.014
-295.705	-58.495	0.064	-0.027
-294.691	131.349	-0.135	0.171
-293.676	339.060	0.151	0.290
-292.662	18.676	-0.175	0.138
-291.647	-200.000	0.026	0.238
-290.632	-45.691	-0.117	-0.057
-289.618	-69.534	0.191	-0.072
-288.603	425.478	-0.063	-0.134
-287.589	-200.000	-0.077	-0.440
-286.574	-143.695	0.103	0.010
-285.559	-200.000	0.042	0.292
-284.545	33.380	-0.111	0.095
-283.530	-200.000	0.030	0.267
-282.516	124.237	0.213	0.264
-281.501	-85.991	0.302	-0.092
-280.486	800.000	0.045	-0.156
-279.472	-192.209	-0.260	0.002
-278.457	-124.446	0.300	0.046
-277.443	545.210	-0.054	0.127
-276.428	-146.279	0.156	0.014
-275.413	-47.281	-0.304	-0.146
-274.399	1.774	0.167	-0.119
-273.384	2.985	-0.232	0.166
-272.370	143.781	0.146	-0.193
-271.355	-34.341	0.098	-0.053
-270.340	-81.452	0.325	-0.106
-269.326	163.258	-0.125	0.173
-268.311	-81.681	0.114	0.037
-267.297	-91.853	0.085	0.024
-266.282	13.929	0.234	0.180
-265.267	154.730	-0.061	0.083
-264.253	-200.000	0.083	-0.694
-263.238	-126.793	0.266	-0.039
-262.224	283.566	0.058	0.102
-261.209	-145.841	0.183	-0.016
-260.195	800.000	-0.062	0.198
-259.180	-200.000	-0.085	-0.543
-258.165	-0.506	-0.097	0.068
-257.151	-66.955	-0.177	-0.069
-256.136	32.981	-0.060	-0.051
-255.122	-61.267	0.346	-0.144
-254.107	-93.670	-0.109	-0.030
-253.092	158.254	-0.111	-0.151
-252.078	103.622	0.034	0.039
-251.063	621.119	-0.037	0.093
-250.049	2.706	0.129	0.092
-249.034	800.000	0.038	0.116
-248.019	-200.000	0.029	-0.282
-247.005	322.363	-0.102	-0.192
-245.990	-60.703	-0.049	-0.020
-244.976	640.220	-0.151	-0.380
-243.961	281.554	-0.106	0.187
-242.946	94.514	0.147	-0.165
-241.932	-23.883	-0.094	-0.055
-240.917	160.539	-0.094	-0.129
-239.903	18.909	0.234	0.185
-238.888	-200.000	0.006	0.195
-237.873	-0.623	-0.072	0.050
-236.859	-200.000	-0.042	-0.350
-235.844	800.000	0.025	0.086
-234.830	200.006	0.071	0.108
-233.815	379.611	-0.102	0.205
-232.800	190.437	-0.053	-0.078
-231.786	21.373	0.224	0.180
-230.771	-200.000	0.003	-0.114
-229.757	800.000	-0.057	0.157
-228.742	-69.813	0.228	-0.086
-227.727	-200.000	0.000	0.113
-226.713	-200.000	-0.002	0.394
-225.698	178.452	0.103	0.148
-224.684	15.811	0.191	-0.148
-223.669	187.243	-0.066	0.098
-222.655	120.500	-0.122	-0.150
-221.640	-125.726	-0.248	-0.037
-220.625	276.888	-0.183	-0.321
-219.611	57.904	-0.248	-0.239
-218.596	800.000	0.123	-0.456
-217.582	800.000	0.018	-0.068
-216.567	-200.000	-0.067	0.326
-215.552	-29.859	-0.276	0.155
-214.538	4.214	-0.092	-0.066
-213.523	107.542	-0.122	0.143
-212.509	6.678	-0.148	-0.109
-211.494	-57.133	-0.124	0.054
-210.479	-15.007	0.400	-0.253
-209.465	-179.703	-0.187	-0.004
-208.450	350.861	0.136	-0.264
-207.436	-200.000	0.027	-0.245
-206.421	179.070	-0.055	-0.079
-205.406	-134.424	-0.075	-0.009
-204.392	383.289	0.112	-0.226
-203.377	76.130	-0.064	-0.066
-202.363	-3.202	-0.105	0.072
-201.348	205.338	0.158	0.242
-200.333	-46.337	0.142	0.069
-199.319	470.149	0.082	-0.180
-198.304	-27.655	-0.332	0.190
-197.290	439.056	0.057	-0.122
-196.275	-57.245	0.217	0.094
-195.260	-139.862	-0.212	0.022
-194.246	800.000	0.059	-0.227
-193.231	-20.688	0.364	0.220
-192.217	-200.000	0.057	0.252
-191.202	-138.002	-0.553	-0.061
-190.187	333.392	0.179	-0.340
-189.173	-133.953	-0.091	-0.011
-188.158	139.853	0.141	-0.182
-187.144	-200.000	0.015	-0.200
-186.129	297.756	0.098	0.178
-185.114	-200.000	0.051	0.448
-184.100	-200.000	-0.035	-0.160
-183.085	800.000	-0.076	-0.213
-182.071	-200.000	0.049	-0.239
-181.056	-91.477	0.412	-0.116
-180.042	-82.060	-0.107	0.034
-179.027	-200.000	-0.016	0.130
-178.012	233.414	0.199	0.322
-176.998	25.413	-0.475	0.388
-175.983	-15.489	-0.058	0.036
-174.969	-25.518	-0.028	-0.016
-173.954	-36.733	-0.190	0.100
-172.939	41.412	-0.119	0.106
-171.925	800.000	-0.089	0.307
-170.910	596.639	0.075	-0.182
-169.896	800.000	0.074	-0.254
-168.881	-130.899	-0.145	0.019
-167.866	-200.000	-0.011	0.090
-166.852	800.000	0.102	0.294
-165.837	-113.259	0.177	-0.034
-164.823	-68.409	0.357	-0.136
-163.808	-145.746	0.442	0.039
-162.793	-16.685	0.230	-0.143
-161.779	155.351	0.125	-0.170
-160.764	-45.643	0.253	0.123
-159.750	179.652	0.102	-0.146
-158.735	-127.155	0.319	-0.046
-157.720	-26.342	-0.175	-0.101
-156.706	338.718	-0.078	0.150
-155.691	-50.286	0.113	-0.053
-154.677	-200.000	-0.005	0.025
-153.662	48.516	0.148	-0.137
-152.647	-200.000	-0.005	0.489
-151.633	-41.820	0.282	-0.142
-150.618	44.314	0.335	-0.302
-149.604	631.288	-0.053	0.133
-148.589	-106.261	0.247	-0.054
-147.574	268.092	-0.045	0.077
-146.560	800.000	-0.014	-0.053
-145.545	800.000	-0.086	-0.326
-144.531	491.457	-0.131	-0.295
-143.516	-200.000	0.001	-0.117
-142.502	800.000	0.039	0.115
-141.487	87.872	-0.145	0.158
-140.472	327.812	-0.123	0.231
-139.458	-200.000	0.055	0.388
-138.443	130.141	-0.063	-0.079
-137.429	342.497	0.092	-0.177
-136.414	-137.349	-0.266	-0.030
-135.399	800.000	-0.032	0.109
-134.385	-189.146	-0.128	0.001
-133.370	-26.088	-0.163	-0.094
-132.356	-85.496	-0.172	-0.052
-131.341	-23.290	-0.114	-0.067
-130.326	-67.196	0.070	0.027
-129.312	33.878	-0.053	-0.046
-128.297	-129.808	0.095	0.013
-127.283	202.805	0.081	-0.123
-126.268	143.946	-0.063	0.082
-125.253	67.102	0.194	-0.194
-124.239	167.106	-0.220	0.306
-123.224	800.000	0.043	0.127
-122.210	-68.629	-0.060	0.023
-121.195	-140.005	-0.256	0.026
-120.180	-200.000	0.000	0.023
-119.166	-35.472	-0.279	0.149
-118.151	222.303	0.110	0.173
-117.137	323.067	0.081	0.151
-116.122	-31.949	0.108	0.059
-115.107	131.949	0.172	0.217
-114.093	334.066	-0.270	0.512
-113.078	-200.000	-0.017	0.127
-112.064	3.959	-0.023	0.016
-111.049	91.967	-0.283	0.312
-110.034	96.417	0.152	0.170
-109.020	-79.185	-0.036	-0.012
-108.005	-86.625	0.262	-0.079
-106.991	-52.033	-0.245	0.112
-105.976	-200.000	-0.037	-0.214
-104.962	-200.000	0.019	0.116
-103.947	38.094	-0.107	0.093
-102.932	87.550	0.219	-0.238
-101.918	364.458	-0.208	-0.410
-100.903	91.893	-0.174	0.192
-99.889	-87.201	-0.365	0.109
-98.874	55.740	-0.198	0.188
-97.859	-80.935	0.381	-0.124
-96.845	34.262	-0.039	-0.034
-95.830	-134.973	-0.239	0.028
-94.816	-200.000	-0.043	0.299
-93.801	-30.102	0.220	-0.123
-92.786	-157.705	0.265	0.015
-91.772	124.046	0.252	0.310
-90.757	-92.310	0.327	0.090
-89.743	-200.000	0.037	0.169
-88.728	-112.725	0.117	-0.023
-87.713	32.533	0.187	0.158
-86.699	-43.761	-0.300	0.148
-85.684	-83.584	0.147	-0.046
-84.670	-188.929	0.281	0.003
-83.655	-68.696	-0.172	0.065
-82.640	-200.000	-0.001	0.356
-81.626	800.000	0.087	0.310
-80.611	120.693	-0.252	0.307
-79.597	-200.000	0.044	0.354
-78.582	-104.506	-0.245	-0.055
-77.567	668.372	0.132	-0.334
-76.553	-80.422	-0.073	-0.024
-75.538	312.633	-0.163	0.299
-74.524	-145.502	-0.094	-0.008
-73.509	668.130	-0.052	-0.131
-72.494	-200.000	-0.010	-0.064
-71.480	-200.000	0.030	0.216
-70.465	-200.000	-0.067	0.367
-69.451	-128.319	-0.336	0.047
-68.436	-200.000	0.043	0.233
-67.422	56.332	-0.138	-0.131
-66.407	0.895	-0.141	0.099
-65.392	466.931	0.127	0.278
-64.378	-97.193	0.319	0.081
-63.363	56.441	-0.247	-0.235
-62.349	-70.752	0.226	0.083
-61.334	65.007	-1.142	-1.129
-60.319	34.795	0.869	0.744
-59.305	319.451	-0.592	-1.100
-58.290	359.931	0.824	1.613
-57.276	800.000	0.418	1.495
-56.261	-200.000	124.238	663.346
-55.246	433.286	1551.935	3297.064
-54.232	143.535	2714.621	3538.474
-53.217	89.363	2322.675	2533.914
-52.203	30.377	2072.230	1732.595
-51.188	25.717	1987.710	1620.036
-50.173	24.484	1971.404	1595.668
-49.159	42.680	2043.160	1820.399
-48.144	40.870	2055.974	1815.230
-47.130	26.015	2008.688	1639.584
-46.115	23.864	1998.087	1611.388
-45.100	23.819	1994.318	1607.876
-44.086	23.831	1991.901	1605.969
-43.071	23.718	1989.670	1603.095
-42.057	23.784	1987.400	1601.793
-41.042	23.669	1986.404	1599.887
-40.027	23.807	1983.756	1598.939
-39.013	23.767	1982.208	1597.268
-37.998	23.749	1980.508	1595.672
-36.984	23.823	1978.749	1594.851
-35.969	23.745	1976.725	1592.466
-34.954	23.761	1974.975	1591.134
-33.940	23.809	1973.698	1590.468
-32.925	23.819	1972.110	1589.216
-31.911	23.839	1970.511	1588.039
-30.896	23.950	1968.962	1587.723
-29.881	23.992	1967.046	1586.485
-28.867	23.931	1965.627	1584.734
-27.852	23.876	1963.979	1582.855
-26.838	23.961	1962.214	1582.123
-25.823	23.899	1960.628	1580.233
-24.809	23.977	1958.373	1579.050
-23.794	23.895	1957.395	1577.469
-22.779	23.913	1955.413	1575.967
-21.765	23.985	1953.734	1575.192
-20.750	23.978	1952.022	1573.683
-19.736	23.918	1950.768	1572.085
-18.721	24.024	1948.730	1571.309
-17.706	23.863	1947.532	1568.866
-16.692	23.874	1945.711	1567.428
-15.677	23.931	1943.632	1566.192
-14.663	23.868	1942.722	1564.847
-13.648	23.903	1941.008	1563.715
-12.633	23.841	1940.458	1562.657
-11.619	23.835	1939.583	1561.844
-10.604	23.869	1937.660	1560.528
-9.590	23.841	1936.735	1559.477
-8.575	23.871	1934.775	1558.096
-7.560	23.869	1933.641	1557.105
-6.546	23.860	1932.036	1555.671
-5.531	23.954	1930.429	1555.139
-4.517	23.867	1929.499	1553.566
-3.502	23.905	1928.534	1553.062
-2.487	23.897	1927.254	1551.903
-1.473	23.832	1926.497	1550.659
-0.458	23.962	1921.137	1547.417
0.556	22.689	1900.559	1517.133
1.571	18.115	1881.824	1462.995
2.586	14.141	1904.235	1445.812
3.600	13.093	1938.710	1462.581
4.615	13.007	1931.803	1456.476
5.629	10.303	1832.140	1358.556
6.644	4.395	1720.644	1229.099
7.659	1.049	1688.451	1179.966
8.673	0.796	1685.762	1176.022
9.688	0.855	1684.098	1175.214
10.702	0.754	1683.415	1173.847
11.717	0.705	1678.925	1170.232
12.731	1.038	1677.855	1171.963
13.746	5.574	1687.327	1213.702
14.761	12.696	1700.975	1278.895
15.775	16.687	1708.482	1315.497
16.790	17.359	1708.035	1320.258
17.804	16.465	1705.055	1310.907
18.819	15.448	1702.107	1300.651
19.834	14.944	1699.327	1294.509
20.848	14.621	1697.693	1290.651
21.863	14.408	1695.985	1287.592
22.877	14.181	1694.952	1284.944
23.892	13.864	1693.217	1281.070
24.907	13.758	1692.148	1279.324
25.921	13.782	1690.850	1278.414
26.936	13.763	1689.602	1277.213
27.950	13.803	1688.499	1276.578
28.965	13.834	1688.593	1276.776
29.980	13.854	1687.767	1276.189
30.994	13.905	1686.723	1275.678
32.009	13.948	1686.116	1275.434
33.023	14.005	1685.261	1275.117
34.038	14.058	1684.127	1274.549
35.053	13.956	1683.543	1273.216
36.067	13.949	1682.204	1272.031
37.082	13.951	1681.132	1271.128
38.096	13.987	1679.968	1270.407
39.111	13.982	1679.230	1269.697
40.126	13.989	1678.239	1268.890
41.140	13.973	1677.470	1268.076
42.155	13.890	1676.268	1266.420
43.169	13.831	1674.916	1264.840
44.184	13.867	1673.555	1263.975
45.199	13.815	1672.396	1262.592
46.213	13.754	1671.612	1261.424
47.228	13.838	1669.767	1260.555
48.242	13.915	1668.808	1260.310
49.257	13.849	1667.709	1258.867
50.271	13.881	1666.343	1257.963
51.286	13.789	1665.553	1256.557
52.301	13.877	1663.871	1255.843
53.315	13.906	1662.563	1254.967
54.330	13.923	1660.677	1253.562
55.344	13.950	1658.701	1252.162
56.359	13.851	1657.695	1250.546
57.374	13.812	1656.940	1249.570
58.388	13.872	1655.454	1248.789
59.403	13.743	1654.353	1246.880
60.417	13.779	1652.638	1245.749
61.432	13.859	1651.474	1245.363
62.447	13.707	1650.771	1243.580
63.461	13.724	1649.346	1242.522
64.476	13.775	1647.832	1241.654
65.490	13.729	1646.596	1240.270
66.505	13.672	1645.756	1239.101
67.520	13.663	1644.830	1238.225
68.534	13.726	1643.571	1237.644
69.549	13.768	1642.613	1237.124
70.563	13.746	1640.942	1235.594
71.578	13.740	1639.579	1234.411
72.593	13.752	1638.934	1233.903
73.607	13.780	1637.521	1232.941
74.622	13.716	1636.390	1231.503
75.636	13.660	1635.416	1230.246
76.651	13.710	1634.753	1230.013
77.666	13.681	1633.878	1229.030
78.680	13.709	1632.855	1228.357
79.695	13.631	1631.897	1226.952
80.709	13.778	1630.476	1226.864
81.724	13.741	1629.776	1225.952
82.739	13.736	1628.702	1225.003
83.753	13.831	1627.725	1224.860
84.768	13.795	1626.833	1223.810
85.782	13.898	1625.660	1223.582
86.797	13.916	1625.168	1223.237
87.812	13.844	1623.971	1221.697
88.826	13.836	1622.576	1220.474
89.841	13.806	1621.556	1219.379
90.855	13.763	1620.932	1218.492
91.870	13.849	1619.281	1217.769
92.884	13.906	1618.375	1217.400
93.899	13.988	1617.219	1217.021
94.914	13.960	1616.134	1215.894
95.928	13.997	1614.784	1215.045
96.943	14.053	1613.525	1214.396
97.957	13.953	1611.722	1212.203
98.972	13.966	1610.675	1211.401
99.987	13.928	1609.585	1210.200
101.001	13.954	1607.243	1208.519
102.016	13.895	1605.991	1207.045
103.030	13.876	1605.136	1206.156
104.045	13.813	1603.491	1204.354
105.060	13.913	1601.925	1203.799
106.074	13.881	1600.925	1202.706
107.089	13.854	1599.119	1201.046
108.103	13.867	1597.838	1200.075
109.118	13.757	1596.587	1198.234
110.133	13.770	1594.697	1196.802
111.147	13.813	1593.137	1195.836
112.162	13.718	1592.498	1194.567
113.176	13.866	1590.269	1193.851
114.191	13.809	1589.192	1192.527
115.206	13.914	1587.555	1191.948
116.220	13.909	1586.199	1190.788
117.235	13.788	1585.271	1189.119
118.249	13.822	1584.052	1188.343
119.264	13.822	1582.814	1187.313
120.279	13.857	1581.405	1186.398
121.293	13.844	1580.073	1185.201
122.308	13.856	1578.721	1184.170
123.322	13.829	1576.855	1182.474
124.337	13.780	1575.568	1181.051
125.352	13.629	1574.800	1179.299
126.366	13.829	1573.234	1179.440
127.381	13.812	1572.217	1178.456
128.395	13.828	1570.815	1177.415
129.410	13.715	1569.800	1175.752
130.424	13.764	1567.878	1174.550
131.439	13.730	1567.180	1173.687
132.454	13.821	1565.509	1172.974
133.468	13.886	1563.597	1171.895
134.483	13.843	1562.408	1170.594
135.497	13.961	1560.638	1169.996
136.512	13.906	1559.338	1168.534
137.527	13.858	1558.425	1167.405
138.541	13.826	1557.159	1166.133
139.556	13.943	1555.316	1165.467
140.570	13.934	1553.686	1164.085
141.585	13.950	1552.760	1163.399
142.600	13.933	1551.513	1162.241
143.614	14.067	1550.898	1162.616
144.629	14.118	1549.019	1161.459
145.643	14.040	1547.968	1160.024
146.658	14.036	1546.408	1158.723
147.673	14.057	1545.775	1158.297
148.687	14.046	1543.873	1156.688
149.702	14.113	1541.973	1155.628
150.716	13.952	1540.647	1153.419
151.731	13.983	1539.501	1152.668
152.746	13.983	1538.295	1151.666
153.760	14.006	1536.840	1150.637
154.775	14.034	1535.899	1150.020
155.789	14.084	1534.393	1149.136
156.804	14.170	1532.710	1148.372
157.819	14.066	1531.819	1146.881
158.833	14.154	1530.541	1146.434
159.848	14.238	1528.939	1145.710
160.862	14.162	1528.404	1144.682
161.877	14.300	1526.823	1144.348
162.892	14.244	1525.609	1142.950
163.906	14.221	1524.712	1142.022
164.921	14.149	1523.249	1140.328
165.935	14.129	1522.612	1139.610
166.950	14.157	1520.642	1138.232
167.964	14.126	1519.909	1137.369
168.979	14.182	1519.105	1137.052
169.994	14.154	1518.361	1136.199
171.008	14.259	1516.787	1135.639
172.023	14.203	1515.813	1134.428
173.037	14.319	1514.239	1133.935
174.052	14.354	1512.892	1133.069
175.067	14.329	1512.472	1132.480
176.081	14.315	1511.287	1131.402
177.096	14.190	1510.078	1129.544
178.110	14.331	1508.510	1129.227
179.125	14.261	1507.383	1127.812
180.140	14.303	1506.238	1127.138
181.154	14.348	1505.490	1126.785
182.169	14.360	1504.090	1125.716
183.183	14.356	1503.013	1124.789
184.198	14.300	1502.289	1123.764
185.213	14.438	1500.989	1123.622
186.227	14.489	1499.996	1123.128
187.242	14.441	1499.084	1122.018
188.256	14.514	1497.767	1121.429
189.271	14.522	1496.537	1120.459
190.286	14.419	1495.406	1118.820
191.300	14.454	1494.463	1118.253
192.315	14.396	1493.409	1116.974
193.329	14.303	1492.137	1115.303
194.344	14.276	1490.966	1114.145
195.359	14.386	1489.795	1113.913
196.373	14.479	1488.600	1113.539
197.388	14.509	1487.513	1112.827
198.402	14.557	1486.209	1112.074
199.417	14.539	1485.564	1111.373
200.432	14.634	1484.444	1111.069
201.446	14.725	1483.212	1110.655
202.461	14.628	1482.505	1109.383
203.475	14.767	1481.310	1109.314
204.490	14.744	1479.851	1107.969
205.504	14.772	1479.108	1107.501
206.519	14.774	1478.002	1106.587
207.534	14.637	1476.783	1104.673
208.548	14.715	1475.535	1104.152
209.563	14.709	1474.842	1103.496
210.577	14.709	1473.473	1102.374
211.592	14.838	1472.516	1102.412
212.607	14.743	1471.976	1101.285
213.621	14.773	1471.129	1100.752
214.636	14.801	1470.265	1100.196
215.650	14.793	1469.121	1099.184
216.665	14.764	1468.468	1098.411
217.680	14.810	1467.204	1097.670
218.694	14.800	1467.155	1097.469
219.709	14.895	1465.742	1096.943
220.723	14.955	1464.743	1096.489
221.738	14.947	1463.648	1095.522
222.753	14.926	1463.109	1094.879
223.767	14.957	1462.225	1094.326
224.782	14.864	1461.328	1092.949
225.796	14.989	1460.141	1092.781
226.811	14.979	1458.941	1091.723
227.826	15.047	1458.348	1091.626
228.840	15.036	1457.588	1090.886
229.855	14.985	1456.463	1089.615
230.869	15.078	1455.227	1089.201
231.884	15.007	1454.675	1088.227
232.899	15.074	1452.963	1087.289
233.913	15.104	1451.990	1086.661
234.928	15.103	1450.775	1085.648
235.942	14.904	1449.945	1083.639
236.957	15.022	1448.849	1083.489
237.972	15.052	1447.462	1082.547
238.986	15.054	1446.903	1082.049
240.001	15.062	1445.410	1080.891
241.015	15.053	1444.567	1080.103
242.030	15.075	1443.389	1079.271
243.045	15.069	1442.758	1078.663
244.059	15.200	1441.564	1078.518
245.074	15.208	1440.504	1077.682
246.088	15.142	1440.005	1076.789
247.103	15.262	1438.949	1076.678
248.117	15.296	1438.070	1076.141
249.132	15.316	1437.351	1075.633
250.147	15.361	1436.963	1075.541
251.161	15.437	1436.133	1075.311
252.176	15.355	1435.892	1074.505
253.190	15.351	1435.049	1073.755
254.205	15.428	1433.865	1073.271
255.220	15.491	1432.798	1072.776
256.234	15.551	1432.405	1072.769
257.249	15.479	1431.403	1071.464
258.263	15.526	1430.478	1070.976
259.278	15.561	1429.401	1070.300
260.293	15.489	1428.619	1069.165
261.307	15.604	1427.528	1068.983
262.322	15.658	1427.008	1068.839
263.336	15.642	1426.410	1068.198
264.351	15.710	1424.981	1067.465
265.366	15.679	1424.292	1066.660
266.380	15.698	1423.636	1066.190
267.395	15.687	1422.281	1065.012
268.409	15.680	1421.397	1064.215
269.424	15.658	1420.655	1063.422
270.439	15.695	1419.554	1062.739
271.453	15.823	1418.332	1062.539
272.468	15.837	1417.708	1062.068
273.482	15.814	1416.964	1061.269
274.497	15.795	1415.868	1060.234
275.512	15.690	1415.284	1059.042
276.526	15.707	1414.489	1058.459
277.541	15.779	1413.123	1057.795
278.555	15.770	1412.527	1057.203
279.570	15.839	1411.287	1056.613
280.585	15.874	1410.278	1055.982
281.599	15.903	1409.731	1055.664
282.614	15.881	1408.537	1054.538
283.628	15.907	1407.279	1053.666
284.643	15.910	1406.557	1053.051
285.657	15.998	1405.188	1052.479
286.672	15.991	1404.549	1051.868
287.687	15.971	1403.666	1050.984
288.701	16.002	1402.426	1050.156
289.716	15.893	1402.320	1049.306
290.730	16.051	1400.636	1048.934
291.745	16.047	1399.547	1048.004
292.760	16.056	1399.070	1047.610
293.774	16.024	1397.955	1046.484
294.789	16.074	1397.092	1046.054
295.803	16.064	1396.506	1045.462
296.818	16.103	1395.643	1044.963
297.833	16.157	1394.124	1044.067
298.847	16.195	1393.376	1043.651
299.862	16.073	1392.436	1042.099
300.876	16.081	1391.343	1041.242
301.891	16.144	1390.636	1041.010
302.906	16.085	1390.119	1040.166
303.920	16.143	1389.477	1039.950
304.935	16.280	1388.417	1039.911
305.949	16.288	1387.220	1038.968
306.964	16.301	1386.430	1038.369
307.979	16.402	1385.286	1038.041
308.993	16.354	1384.367	1036.964
310.008	16.307	1383.838	1036.185
311.022	16.335	1382.855	1035.528
312.037	16.354	1381.472	1034.520
313.052	16.469	1380.407	1034.336
314.066	16.436	1379.692	1033.503
315.081	16.419	1378.621	1032.510
316.095	16.339	1377.978	1031.445
317.110	16.357	1376.698	1030.507
318.125	16.355	1375.770	1029.711
319.139	16.278	1375.197	1028.718
320.154	16.269	1374.575	1028.108
321.168	16.292	1373.505	1027.359
322.183	16.518	1372.097	1027.589
323.197	16.424	1371.374	1026.386
324.212	16.463	1370.219	1025.667
325.227	16.504	1369.571	1025.335
326.241	16.486	1368.560	1024.380
327.256	16.416	1367.952	1023.410
328.270	16.474	1367.372	1023.240
329.285	16.436	1366.430	1022.210
330.300	16.510	1365.385	1021.789
331.314	16.441	1364.486	1020.605
332.329	16.496	1363.622	1020.205
333.343	16.556	1362.295	1019.482
334.358	16.469	1361.549	1018.306
335.373	16.581	1360.706	1018.263
336.387	16.520	1360.189	1017.419
337.402	16.641	1359.491	1017.531
338.416	16.656	1358.254	1016.606
339.431	16.661	1358.007	1016.362
340.446	16.732	1356.961	1015.916
341.460	16.865	1355.832	1015.777
342.475	16.789	1354.735	1014.413
343.489	16.844	1354.289	1014.315
344.504	16.913	1353.079	1013.735
345.519	16.891	1352.262	1012.902
346.533	16.888	1351.347	1012.107
347.548	16.929	1350.759	1011.822
348.562	16.882	1349.715	1010.668
349.577	16.891	1349.256	1010.290
350.592	16.941	1348.152	1009.670
351.606	16.864	1347.372	1008.538
352.621	16.845	1346.123	1007.403
353.635	16.958	1344.755	1006.959
354.650	16.806	1344.391	1005.697
355.665	16.868	1343.005	1004.942
356.679	16.921	1342.011	1004.422
357.694	16.901	1341.054	1003.499
358.708	16.953	1339.952	1002.890
359.723	17.048	1339.094	1002.722
360.738	17.035	1337.517	1001.375
361.752	16.997	1337.012	1000.687
362.767	16.936	1336.011	999.485
363.781	17.001	1335.183	999.164
364.796	16.953	1334.399	998.204
365.810	17.034	1333.851	998.183
366.825	17.061	1332.985	997.605
367.840	17.127	1332.086	997.235
368.854	17.194	1331.223	996.889
369.869	17.168	1330.976	996.467
370.883	17.268	1330.219	996.396
371.898	17.185	1329.380	995.193
372.913	17.214	1328.805	994.844
373.927	17.242	1327.684	994.079
374.942	17.276	1326.859	993.578
375.956	17.179	1326.590	992.719
376.971	17.314	1325.174	992.356
377.986	17.207	1324.786	991.356
379.000	17.228	1323.711	990.585
380.015	17.282	1323.210	990.437
381.029	17.441	1321.738	990.177
382.044	17.398	1321.181	989.421
383.059	17.429	1320.458	988.971
384.073	17.471	1320.097	988.858
385.088	17.568	1319.163	988.631
386.102	17.504	1318.949	988.012
387.117	17.549	1318.016	987.490
388.132	17.568	1317.001	986.752
389.146	17.547	1316.130	985.888
390.161	17.500	1315.356	984.947
391.175	17.596	1314.799	985.000
392.190	17.360	1314.266	983.148
393.205	17.552	1312.983	983.212
394.219	17.568	1311.975	982.460
395.234	17.602	1310.657	981.582
396.248	17.637	1309.281	980.669
397.263	17.671	1308.180	979.955
398.278	17.562	1307.317	978.596
399.292	17.596	1306.259	977.912
400.307	17.557	1305.239	976.837
401.321	17.546	1304.122	975.852
402.336	17.543	1303.280	975.115
403.350	17.612	1301.936	974.421
404.365	17.547	1301.172	973.393
405.380	17.635	1300.156	973.047
406.394	17.674	1299.246	972.503
407.409	17.697	1298.762	972.183
408.423	17.685	1297.693	971.229
409.438	17.731	1297.061	970.933
410.453	17.803	1296.358	970.731
411.467	17.811	1296.037	970.450
412.482	17.905	1295.336	970.374
413.496	17.923	1294.510	969.773
414.511	17.957	1293.628	969.216
415.526	17.921	1293.252	968.648
416.540	17.971	1292.215	968.065
417.555	18.029	1291.451	967.738
418.569	17.977	1291.147	967.132
419.584	17.933	1291.028	966.704
420.599	18.037	1289.773	966.270
421.613	101.736	1360.519	1491.033
422.628	99.658	1370.777	1491.102
