DTS Sentinel unit serial number:	SN413079Multiplexer serial number:	ORYXHardware model number:	OX4-SRSoftware version number:	ORYX F/W v4.00 Oryx Data Collector v3.7.2.0data status	okinstallation	princeton_trtdifferential loss correction	single-endedforward channel	channel 4reverse channel	N/Adate	2019/09/15time	00:49:35forward acquisition time	60.00reverse acquisition time	0.00gamma	496.2192k internal	0.2307k external	0.2307temperature offset calibration	1.0042default loss term (dB/km)	0.3790temperature slope calibration	1.0000multiplexer offset coefficient	1.0000multiplexer slope coefficient	1.0000fibre end	0.00T internal ref (°C)	32.06T ext. ref 1 (°C)	4.57T ext. ref 2 (°C)	27.00length (m)	temperature (°C)	Stokes	anti-Stokes-747.200	102.340	-0.094	-0.112
-746.185	-107.571	-0.498	-0.111
-745.171	-200.000	-0.002	0.249
-744.156	-30.702	-0.055	0.032
-743.142	-200.000	-0.002	0.434
-742.127	-53.120	-0.256	0.120
-741.112	-132.647	-0.078	0.010
-740.098	298.943	-0.216	0.405
-739.083	270.456	0.103	-0.184
-738.069	584.806	-0.047	0.118
-737.054	-200.000	-0.079	-0.444
-736.039	-200.000	-0.003	-0.323
-735.025	-2.862	0.253	0.180
-734.010	29.703	-0.117	-0.101
-732.996	64.633	-0.258	0.265
-731.981	-156.656	-0.262	-0.017
-730.966	270.361	0.038	0.068
-729.952	-143.185	0.333	0.033
-728.937	-200.000	0.307	0.001
-727.923	-59.575	-0.555	-0.242
-726.908	-152.733	-0.377	0.027
-725.894	150.919	0.083	-0.115
-724.879	268.292	0.087	-0.156
-723.864	-200.000	0.012	0.214
-722.850	-80.293	-0.173	-0.059
-721.835	322.781	-0.115	-0.224
-720.821	166.960	-0.055	0.079
-719.806	-200.000	-0.035	0.210
-718.791	-200.000	-0.001	-0.194
-717.777	-200.000	-0.007	-0.144
-716.762	271.773	-0.072	-0.129
-715.748	-200.000	-0.006	0.089
-714.733	-6.295	0.177	0.122
-713.718	-2.897	0.053	-0.037
-712.704	-84.153	-0.265	-0.085
-711.689	136.084	-0.270	-0.358
-710.675	-22.060	-0.408	0.252
-709.660	529.309	-0.153	0.366
-708.645	11.866	0.100	0.078
-707.631	210.602	0.138	-0.220
-706.616	246.503	-0.070	-0.120
-705.602	-130.473	-0.529	-0.073
-704.587	-200.000	-0.033	0.158
-703.572	-116.269	-0.106	0.020
-702.558	-154.685	0.178	-0.012
-701.543	-134.599	0.252	-0.031
-700.529	-131.868	0.167	-0.022
-699.514	-143.860	-0.155	-0.015
-698.499	640.022	0.024	0.062
-697.485	28.168	-0.008	-0.007
-696.470	800.000	-0.084	-0.296
-695.456	-0.571	-0.158	-0.114
-694.441	-107.430	0.140	0.031
-693.426	-116.704	-0.252	-0.047
-692.412	41.747	-0.026	0.024
-691.397	277.601	-0.067	0.121
-690.383	-77.657	-0.161	0.056
-689.368	114.603	0.068	0.084
-688.354	-188.575	0.257	0.003
-687.339	534.822	-0.103	0.247
-686.324	-93.943	-0.201	-0.056
-685.310	-46.005	-0.065	-0.033
-684.295	-146.559	0.091	-0.008
-683.281	18.959	0.126	-0.103
-682.266	198.159	-0.091	0.141
-681.251	-200.000	-0.015	-0.275
-680.237	86.677	-0.183	-0.205
-679.222	-200.000	-0.009	-0.341
-678.208	112.343	0.177	-0.217
-677.193	-145.063	-0.193	-0.018
-676.178	34.891	0.057	-0.050
-675.164	-68.393	-0.102	-0.040
-674.149	602.576	-0.024	0.061
-673.135	-200.000	0.034	0.228
-672.120	342.923	-0.032	0.063
-671.105	182.345	-0.201	-0.301
-670.091	31.122	-0.314	0.273
-669.076	-5.190	0.152	0.106
-668.062	800.000	0.092	0.258
-667.047	190.205	0.196	-0.299
-666.032	-51.329	0.135	-0.064
-665.018	146.596	0.169	-0.230
-664.003	-1.620	-0.345	-0.247
-662.989	38.979	0.167	0.152
-661.974	-200.000	-0.018	0.162
-660.959	-200.000	-0.021	0.230
-659.945	-166.168	0.258	0.011
-658.930	-85.624	-0.050	-0.016
-657.916	468.946	0.123	-0.280
-656.901	72.966	0.086	0.091
-655.886	538.904	-0.193	-0.466
-654.872	11.178	-0.273	-0.212
-653.857	108.520	0.159	0.193
-652.843	-62.969	-0.114	0.048
-651.828	-200.000	-0.064	-0.463
-650.814	-89.423	-0.232	-0.069
-649.799	-200.000	-0.012	0.065
-648.784	480.530	0.190	-0.438
-647.770	-200.000	-0.027	0.167
-646.755	-200.000	-0.021	0.120
-645.741	58.806	-0.337	-0.335
-644.726	-200.000	-0.007	0.124
-643.711	-21.699	0.028	0.017
-642.697	-174.186	-0.144	0.004
-641.682	-33.116	-0.163	-0.092
-640.668	-26.599	0.128	0.076
-639.653	97.871	0.212	0.247
-638.638	785.999	-0.092	-0.256
-637.624	45.115	-0.405	-0.378
-636.609	-80.515	-0.304	0.103
-635.595	800.000	-0.047	-0.159
-634.580	800.000	-0.112	0.348
-633.565	-73.143	-0.276	0.102
-632.551	-27.471	-0.048	0.028
-631.536	407.242	-0.100	0.214
-630.522	-80.216	0.314	-0.107
-629.507	-37.347	-0.236	-0.128
-628.492	53.847	0.392	0.381
-627.478	-9.762	0.445	0.300
-626.463	-184.029	0.111	0.002
-625.449	-199.389	0.190	0.001
-624.434	-44.885	-0.629	-0.317
-623.419	-101.742	0.326	-0.080
-622.405	800.000	0.099	-0.333
-621.390	84.466	0.428	-0.474
-620.376	-152.449	-0.080	-0.006
-619.361	-52.775	-0.212	-0.099
-618.346	-177.431	-0.187	-0.005
-617.332	230.371	0.043	-0.071
-616.317	584.401	-0.072	-0.179
-615.303	-86.115	-0.081	-0.025
-614.288	-92.552	-0.312	-0.089
-613.273	-61.200	-0.079	-0.034
-612.259	83.575	-0.098	-0.108
-611.244	-200.000	0.053	0.276
-610.230	302.632	-0.040	0.075
-609.215	365.511	0.220	-0.449
-608.201	800.000	-0.102	0.285
-607.186	182.372	-0.166	-0.248
-606.171	8.420	0.125	-0.095
-605.157	2.409	0.259	0.190
-604.142	800.000	-0.075	-0.212
-603.128	800.000	-0.041	-0.135
-602.113	-36.375	-0.110	0.060
-601.098	800.000	-0.098	-0.316
-600.084	-200.000	0.014	0.385
-599.069	-84.609	0.230	0.073
-598.055	236.155	0.059	0.098
-597.040	-158.278	-0.297	-0.018
-596.025	-85.762	0.198	0.062
-595.011	141.412	0.180	0.241
-593.996	-123.352	0.195	0.031
-592.982	-200.000	-0.038	-0.222
-591.967	-37.513	-0.071	0.039
-590.952	-11.838	-0.106	-0.070
-589.938	130.500	0.158	-0.205
-588.923	-107.495	-0.219	-0.049
-587.909	-141.700	0.119	0.012
-586.894	-200.000	0.001	0.211
-585.879	223.960	-0.072	-0.118
-584.865	571.687	-0.128	-0.314
-583.850	-3.639	-0.120	0.084
-582.836	-113.272	-0.235	0.047
-581.821	236.236	0.184	0.307
-580.806	-71.369	-0.535	0.203
-579.792	30.773	-0.126	-0.109
-578.777	33.351	-0.283	-0.249
-577.763	-69.219	0.291	-0.113
-576.748	-44.152	-0.384	0.195
-575.733	19.672	-0.040	0.032
-574.719	562.952	-0.042	-0.104
-573.704	-200.000	0.008	0.205
-572.690	201.700	-0.047	0.073
-571.675	175.169	-0.110	0.160
-570.661	-200.000	0.081	0.496
-569.646	238.122	-0.205	0.344
-568.631	-146.547	0.390	-0.034
-567.617	139.167	0.105	0.139
-566.602	-10.007	0.178	0.119
-565.588	42.293	0.170	-0.156
-564.573	-4.254	-0.080	0.056
-563.558	-131.087	0.121	-0.016
-562.544	66.617	-0.414	0.426
-561.529	31.045	-0.073	0.063
-560.515	-80.726	-0.221	0.074
-559.500	-158.917	-0.251	-0.014
-558.485	5.767	0.169	-0.126
-557.471	-98.720	-0.143	-0.037
-556.456	288.401	-0.113	0.207
-555.442	-7.744	-0.200	0.136
-554.427	-200.000	0.014	0.209
-553.412	203.936	0.097	0.151
-552.398	-138.633	0.232	-0.026
-551.383	370.737	0.032	-0.066
-550.369	-4.678	-0.170	-0.118
-549.354	54.260	-0.209	-0.203
-548.339	14.539	0.196	0.154
-547.325	129.545	0.044	0.056
-546.310	-200.000	0.020	-0.217
-545.296	745.258	-0.033	0.090
-544.281	-21.179	-0.301	0.186
-543.266	-131.161	0.268	-0.036
-542.252	201.906	-0.098	-0.153
-541.237	-92.892	0.316	-0.089
-540.223	-200.000	0.010	-0.284
-539.208	800.000	0.021	-0.068
-538.193	17.481	-0.324	-0.259
-537.179	159.095	0.083	0.117
-536.164	800.000	-0.072	-0.293
-535.150	460.525	0.028	-0.064
-534.135	409.012	-0.056	-0.120
-533.121	-43.163	0.363	0.186
-532.106	235.122	0.090	0.149
-531.091	-64.528	0.381	-0.156
-530.077	-87.981	0.365	-0.111
-529.062	343.936	-0.214	-0.424
-528.048	0.388	0.192	0.138
-527.033	1.134	-0.099	-0.072
-526.018	-56.754	-0.141	-0.063
-525.004	-169.181	-0.134	0.005
-523.989	-11.787	0.140	0.092
-522.975	-113.690	-0.208	0.041
-521.960	4.053	-0.213	0.157
-520.945	46.333	-0.238	0.222
-519.931	87.745	0.203	-0.227
-518.916	-150.078	0.103	-0.008
-517.902	-8.234	0.215	-0.146
-516.887	204.827	-0.024	-0.037
-515.872	-156.211	0.099	-0.006
-514.858	-21.797	-0.171	0.105
-513.843	-200.000	-0.044	-0.211
-512.829	-200.000	0.031	0.188
-511.814	-46.916	-0.373	0.184
-510.799	-121.043	-0.065	0.011
-509.785	391.611	0.065	0.135
-508.770	-15.921	-0.094	-0.060
-507.756	800.000	-0.081	0.301
-506.741	-200.000	0.091	0.000
-505.726	-8.213	0.348	0.236
-504.712	19.700	-0.075	-0.061
-503.697	20.906	-0.001	0.001
-502.683	24.539	-0.228	0.190
-501.668	758.710	-0.091	-0.249
-500.653	0.566	-0.110	-0.079
-499.639	-119.205	0.257	0.045
-498.624	-100.180	0.196	0.049
-497.610	109.420	-0.077	0.093
-496.595	-200.000	0.000	0.081
-495.581	-200.000	-0.087	-0.476
-494.566	362.061	-0.104	-0.210
-493.551	-126.843	-0.361	-0.054
-492.537	-200.000	-0.005	0.059
-491.522	38.363	0.130	-0.116
-490.508	-200.000	-0.005	0.126
-489.493	274.502	0.130	0.231
-488.478	379.504	-0.051	-0.105
-487.464	-157.161	0.270	-0.016
-486.449	-155.530	-0.248	0.016
-485.435	-48.731	0.056	0.027
-484.420	110.415	0.209	0.253
-483.405	-79.076	-0.223	0.076
-482.391	-86.059	-0.076	0.024
-481.376	-141.568	-0.353	0.036
-480.362	-77.848	0.043	-0.015
-479.347	-125.910	-0.168	0.025
-478.332	65.122	-0.235	0.239
-477.318	783.622	0.068	0.188
-476.303	4.157	-0.098	-0.072
-475.289	355.862	0.080	-0.160
-474.274	26.995	-0.354	0.299
-473.259	178.488	0.058	0.085
-472.245	539.144	-0.011	-0.026
-471.230	230.509	0.092	-0.151
-470.216	12.639	0.165	0.128
-469.201	23.249	0.107	-0.088
-468.186	320.792	0.004	0.008
-467.172	-200.000	0.043	0.368
-466.157	-137.903	0.146	-0.016
-465.143	215.749	-0.140	-0.223
-464.128	215.173	0.081	-0.129
-463.113	-52.962	-0.243	0.112
-462.099	118.431	-0.210	0.261
-461.084	622.689	0.092	-0.233
-460.070	171.558	0.180	-0.260
-459.055	-13.068	-0.297	-0.194
-458.040	-200.000	0.046	-0.250
-457.026	67.518	-0.066	0.067
-456.011	-200.000	0.042	-0.302
-454.997	-200.000	-0.031	-0.181
-453.982	44.939	-0.375	-0.347
-452.968	130.347	-0.106	-0.137
-451.953	800.000	-0.121	-0.381
-450.938	223.297	-0.114	-0.185
-449.924	-200.000	-0.001	0.154
-448.909	-33.418	0.326	-0.181
-447.895	-200.000	0.068	0.417
-446.880	52.200	0.143	-0.137
-445.865	77.451	0.164	0.175
-444.851	-57.389	-0.119	-0.053
-443.836	-16.831	-0.062	0.039
-442.822	-133.450	0.095	0.012
-441.807	47.926	0.122	-0.115
-440.792	-200.000	-0.024	-0.142
-439.778	-89.918	-0.269	0.079
-438.763	348.771	0.272	0.540
-437.749	20.121	0.028	-0.023
-436.734	149.093	0.042	0.056
-435.719	231.984	-0.212	-0.349
-434.705	-153.365	-0.285	-0.020
-433.690	-78.997	0.207	0.071
-432.676	-200.000	-0.004	0.104
-431.661	6.372	-0.071	0.053
-430.646	-200.000	-0.038	0.486
-429.632	129.933	0.390	-0.501
-428.617	599.499	-0.074	-0.183
-427.603	-121.030	0.132	-0.022
-426.588	-200.000	0.015	0.220
-425.573	28.415	-0.061	0.052
-424.559	-200.000	0.004	-0.174
-423.544	-71.146	-0.119	0.045
-422.530	800.000	-0.036	0.145
-421.515	-200.000	0.047	-0.401
-420.500	800.000	0.085	0.271
-419.486	-55.938	-0.030	-0.013
-418.471	6.119	-0.211	-0.157
-417.457	-36.168	0.070	0.038
-416.442	-200.000	-0.019	0.084
-415.428	-52.749	0.420	0.195
-414.413	-200.000	0.066	0.289
-413.398	24.157	0.241	-0.200
-412.384	-44.013	0.190	0.096
-411.369	800.000	-0.075	-0.278
-410.355	-156.729	0.163	-0.010
-409.340	81.186	-0.018	0.020
-408.325	800.000	-0.086	-0.357
-407.311	-200.000	-0.031	0.392
-406.296	-78.048	-0.239	-0.082
-405.282	-65.417	-0.114	0.046
-404.267	33.958	0.152	-0.133
-403.252	-200.000	0.042	-0.365
-402.238	-90.767	0.337	0.097
-401.223	241.550	-0.098	-0.164
-400.209	-84.838	-0.284	0.090
-399.194	423.770	0.073	-0.157
-398.179	-118.364	0.156	0.028
-397.165	277.918	0.117	-0.208
-396.150	69.465	-0.130	0.134
-395.136	12.123	-0.216	0.167
-394.121	27.013	-0.179	-0.150
-393.106	-8.916	0.360	0.242
-392.092	100.071	0.224	-0.260
-391.077	800.000	-0.005	0.014
-390.063	-63.358	-0.320	0.132
-389.048	-200.000	-0.005	0.249
-388.033	604.946	0.091	0.227
-387.019	-200.000	0.025	0.243
-386.004	-6.955	0.406	0.277
-384.990	-200.000	0.035	0.261
-383.975	-98.351	-0.465	0.120
-382.960	-200.000	-0.061	0.320
-381.946	-199.425	0.147	-0.001
-380.931	257.061	-0.104	0.179
-379.917	-49.159	0.255	-0.122
-378.902	51.657	-0.245	0.233
-377.888	800.000	0.057	-0.203
-376.873	119.460	0.070	-0.087
-375.858	578.450	0.057	-0.140
-374.844	0.255	0.114	-0.081
-373.829	-128.397	0.455	-0.065
-372.815	-96.838	-0.254	-0.067
-371.800	-138.981	0.159	0.017
-370.785	295.956	-0.129	-0.237
-369.771	-150.597	0.222	0.017
-368.756	-200.000	-0.027	0.202
-367.742	-52.626	-0.196	0.091
-366.727	-71.942	-0.280	-0.104
-365.712	28.801	-0.164	0.139
-364.698	-200.000	0.013	0.202
-363.683	14.354	-0.136	-0.107
-362.669	-116.192	0.280	0.052
-361.654	612.532	-0.092	-0.230
-360.639	244.388	0.067	0.112
-359.625	-10.764	0.114	0.075
-358.610	95.323	0.185	0.211
-357.596	800.000	-0.065	-0.277
-356.581	-200.000	0.035	0.178
-355.566	-14.134	0.287	0.186
-354.552	297.860	-0.035	0.064
-353.537	269.792	0.088	-0.154
-352.523	800.000	-0.044	-0.129
-351.508	-200.000	0.014	-0.172
-350.493	308.089	0.102	0.191
-349.479	800.000	-0.035	0.134
-348.464	-200.000	-0.012	-0.239
-347.450	209.756	-0.082	0.129
-346.435	-95.644	0.432	0.116
-345.420	122.409	-0.006	-0.008
-344.406	15.162	-0.086	-0.067
-343.391	144.201	0.075	-0.100
-342.377	-53.556	-0.246	-0.113
-341.362	-147.408	0.453	-0.038
-340.348	-200.000	0.005	0.168
-339.333	93.104	-0.132	0.149
-338.318	477.887	0.061	0.137
-337.304	360.534	-0.034	0.067
-336.289	104.546	0.135	-0.159
-335.275	-49.978	0.415	0.197
-334.260	-148.528	0.213	-0.017
-333.245	-93.245	0.169	-0.047
-332.231	-200.000	-0.032	-0.142
-331.216	-200.000	0.017	0.080
-330.202	453.001	0.105	0.232
-329.187	-92.914	0.190	0.053
-328.172	-132.692	0.128	0.016
-327.158	182.724	0.215	0.318
-326.143	-48.104	0.227	-0.110
-325.129	-86.198	-0.217	0.067
-324.114	-185.895	-0.093	-0.001
-323.099	-45.700	0.264	-0.130
-322.085	163.580	0.029	0.041
-321.070	-106.506	0.237	-0.053
-320.056	37.574	0.131	0.116
-319.041	193.544	-0.151	-0.228
-318.026	139.202	0.045	-0.060
-317.012	800.000	0.049	0.161
-315.997	614.637	0.108	-0.271
-314.983	666.218	-0.024	-0.061
-313.968	281.357	0.055	0.098
-312.953	-200.000	0.038	-0.538
-311.939	-200.000	0.014	0.068
-310.924	-200.000	0.022	-0.184
-309.910	51.815	-0.101	-0.096
-308.895	36.766	-0.189	0.167
-307.880	8.523	-0.433	-0.326
-306.866	800.000	0.094	-0.296
-305.851	-36.264	-0.173	0.094
-304.837	19.574	-0.075	0.060
-303.822	-200.000	0.000	0.065
-302.807	-88.144	-0.086	-0.026
-301.793	800.000	-0.069	0.198
-300.778	265.140	-0.137	-0.239
-299.764	57.797	0.209	-0.205
-298.749	-42.863	-0.187	-0.095
-297.735	138.910	-0.146	0.192
-296.720	170.598	-0.036	0.051
-295.705	-65.600	0.163	0.066
-294.691	-186.502	-0.164	0.002
-293.676	800.000	-0.053	-0.219
-292.662	800.000	-0.086	-0.305
-291.647	-60.871	-0.347	0.147
-290.632	-121.598	-0.178	0.029
-289.618	800.000	0.098	-0.427
-288.603	83.207	0.086	0.093
-287.589	576.544	0.026	0.064
-286.574	-119.043	0.209	0.037
-285.559	14.839	0.041	-0.032
-284.545	-54.791	0.295	0.133
-283.530	407.330	-0.093	-0.196
-282.516	-128.230	0.305	-0.043
-281.501	800.000	-0.055	-0.173
-280.486	142.411	-0.196	0.260
-279.472	41.346	0.150	0.136
-278.457	-147.434	-0.158	0.013
-277.443	508.851	0.026	-0.060
-276.428	334.468	0.022	-0.043
-275.413	-69.493	-0.182	-0.070
-274.399	800.000	-0.087	0.316
-273.384	800.000	0.032	0.117
-272.370	86.526	-0.072	0.079
-271.355	18.789	-0.154	-0.123
-270.340	96.701	-0.031	-0.036
-269.326	-135.336	0.212	0.025
-268.311	-162.202	-0.080	0.004
-267.297	-142.491	0.400	-0.039
-266.282	30.695	-0.076	-0.065
-265.267	800.000	-0.086	-0.358
-264.253	-200.000	0.006	0.162
-263.238	-68.457	0.058	0.022
-262.224	-131.925	0.240	-0.031
-261.209	61.888	-0.074	0.073
-260.195	167.346	-0.249	0.353
-259.180	-108.554	0.242	0.052
-258.165	-32.583	-0.317	0.176
-257.151	10.611	0.050	-0.038
-256.136	-200.000	0.009	-0.291
-255.122	-200.000	0.044	-0.272
-254.107	-13.913	0.117	0.075
-253.092	-44.422	0.166	0.083
-252.078	-30.683	-0.166	-0.093
-251.063	295.972	0.154	0.281
-250.049	108.952	-0.065	-0.077
-249.034	98.601	0.113	-0.130
-248.019	-10.624	-0.087	0.057
-247.005	-54.195	-0.051	0.023
-245.990	341.166	-0.026	0.051
-244.976	142.378	-0.162	-0.215
-243.961	-121.611	-0.109	-0.018
-242.946	-0.336	0.247	0.175
-241.932	-139.714	-0.088	-0.009
-240.917	1.303	-0.042	0.030
-239.903	253.450	-0.166	0.283
-238.888	557.881	0.062	0.149
-237.873	-108.787	0.183	0.039
-236.859	-51.772	-0.182	0.084
-235.844	800.000	-0.033	0.137
-234.830	-3.561	-0.232	0.161
-233.815	260.283	0.139	0.240
-232.800	15.325	-0.108	-0.084
-231.786	231.539	-0.135	-0.221
-230.771	-135.346	-0.105	-0.013
-229.757	800.000	0.090	0.334
-228.742	-85.517	0.175	0.054
-227.727	-91.261	0.217	0.062
-226.713	-200.000	-0.009	0.423
-225.698	606.592	-0.053	-0.132
-224.684	-107.610	-0.187	-0.041
-223.669	-136.026	0.116	0.014
-222.655	-200.000	-0.015	0.161
-221.640	375.984	0.070	0.143
-220.625	497.885	0.145	-0.332
-219.611	324.692	0.140	-0.267
-218.596	-62.569	0.013	0.005
-217.582	-200.000	-0.015	0.279
-216.567	-200.000	0.017	0.306
-215.552	-112.592	-0.200	-0.040
-214.538	-141.280	0.443	-0.045
-213.523	-39.056	-0.131	-0.069
-212.509	13.066	-0.068	0.052
-211.494	140.048	-0.154	-0.202
-210.479	152.571	-0.142	0.193
-209.465	146.777	-0.089	0.119
-208.450	146.904	0.123	-0.165
-207.436	-15.967	-0.336	0.213
-206.421	632.549	-0.044	-0.111
-205.406	66.284	-0.185	-0.187
-204.392	-13.753	0.152	-0.098
-203.377	-18.245	-0.103	0.064
-202.363	528.957	-0.102	0.240
-201.348	-200.000	-0.014	-0.241
-200.333	-21.743	0.319	-0.194
-199.319	219.243	-0.087	0.139
-198.304	212.456	-0.102	0.159
-197.290	25.100	0.080	0.066
-196.275	-139.716	-0.280	0.030
-195.260	27.677	0.178	0.149
-194.246	191.511	-0.151	-0.226
-193.231	-200.000	-0.011	0.090
-192.217	-200.000	-0.000	-0.344
-191.202	-154.412	0.316	-0.021
-190.187	800.000	-0.017	0.054
-189.173	-103.303	0.369	0.087
-188.158	-3.863	-0.122	0.084
-187.144	-139.750	-0.157	0.017
-186.129	61.964	0.017	0.017
-185.114	-143.586	0.165	-0.016
-184.100	278.570	-0.089	0.157
-183.085	-200.000	0.108	-0.472
-182.071	-151.821	-0.133	-0.010
-181.056	-136.494	-0.255	0.029
-180.042	12.530	0.280	-0.215
-179.027	-109.523	0.336	0.071
-178.012	800.000	-0.100	0.299
-176.998	-91.969	0.418	0.118
-175.983	800.000	0.090	-0.284
-174.969	-200.000	0.045	-0.370
-173.954	-200.000	-0.017	0.241
-172.939	169.461	-0.205	0.291
-171.925	360.417	0.065	-0.129
-170.910	-79.627	0.146	0.049
-169.896	800.000	0.049	-0.216
-168.881	522.449	-0.103	-0.240
-167.866	76.102	-0.048	-0.050
-166.852	316.772	0.121	-0.228
-165.837	-200.000	-0.039	-0.214
-164.823	-37.010	0.205	0.109
-163.808	-107.808	0.163	-0.035
-162.793	800.000	0.207	0.595
-161.779	5.241	-0.250	0.183
-160.764	-165.204	-0.202	0.009
-159.750	-200.000	0.005	-0.082
-158.735	-200.000	-0.002	-0.240
-157.720	-200.000	0.012	-0.146
-156.706	-200.000	0.005	0.276
-155.691	-102.832	-0.049	0.012
-154.677	-200.000	0.021	-0.386
-153.662	116.627	-0.346	-0.422
-152.647	-89.062	0.256	0.075
-151.633	7.610	0.216	0.161
-150.618	21.930	0.127	-0.103
-149.604	97.832	-0.259	0.296
-148.589	298.845	0.074	-0.135
-147.574	-106.981	-0.067	0.015
-146.560	-1.595	-0.232	0.163
-145.545	329.019	-0.052	-0.099
-144.531	800.000	-0.012	0.039
-143.516	272.686	0.072	-0.126
-142.502	800.000	0.067	-0.237
-141.487	-200.000	-0.021	-0.423
-140.472	-41.297	-0.108	-0.055
-139.458	47.322	0.335	0.310
-138.443	-200.000	0.019	-0.110
-137.429	42.449	0.157	-0.142
-136.414	150.996	0.091	0.123
-135.399	356.113	0.024	0.047
-134.385	194.894	0.031	-0.047
-133.370	34.357	-0.139	-0.120
-132.356	367.138	-0.109	-0.218
-131.341	-176.215	-0.146	0.004
-130.326	163.049	0.108	-0.150
-129.312	-200.000	-0.006	0.029
-128.297	94.472	-0.264	-0.298
-127.283	-200.000	-0.036	0.326
-126.268	266.219	0.174	-0.302
-125.253	79.070	0.180	-0.191
-124.239	-78.484	0.414	-0.141
-123.224	75.851	-0.294	-0.308
-122.210	-58.886	0.325	0.140
-121.195	-200.000	-0.027	0.172
-120.180	-200.000	-0.034	0.229
-119.166	-16.136	-0.327	0.206
-118.151	-69.690	0.279	-0.106
-117.137	800.000	-0.002	-0.009
-116.122	99.182	-0.157	-0.180
-115.107	40.244	0.098	0.087
-114.093	749.768	-0.114	-0.304
-113.078	800.000	-0.143	-0.407
-112.064	-200.000	-0.003	0.026
-111.049	-44.711	-0.207	0.102
-110.034	-200.000	-0.021	0.200
-109.020	-66.812	0.174	-0.068
-108.005	-200.000	0.018	0.152
-106.991	165.758	-0.073	0.102
-105.976	-200.000	0.047	-0.383
-104.962	-200.000	0.079	-0.351
-103.947	19.402	0.227	-0.181
-102.932	-200.000	-0.016	-0.318
-101.918	-200.000	0.004	0.040
-100.903	-200.000	0.047	0.218
-99.889	-10.694	0.180	-0.118
-98.874	-99.895	0.158	-0.039
-97.859	-37.544	0.201	-0.106
-96.845	274.369	-0.065	0.114
-95.830	-11.290	-0.271	-0.177
-94.816	800.000	-0.026	0.098
-93.801	800.000	0.068	-0.198
-92.786	-148.921	0.320	0.026
-91.772	800.000	0.141	-0.530
-90.757	-23.123	0.242	0.145
-89.743	-76.954	-0.277	-0.096
-88.728	-118.129	0.047	-0.008
-87.713	800.000	0.089	-0.273
-86.699	-10.908	-0.182	0.119
-85.684	-122.367	0.108	-0.018
-84.670	65.554	0.158	-0.159
-83.655	375.969	0.247	0.499
-82.640	-173.387	0.087	0.003
-81.626	545.965	-0.045	0.108
-80.611	800.000	-0.050	-0.189
-79.597	280.786	0.067	-0.118
-78.582	-75.990	0.175	-0.061
-77.567	-47.574	-0.147	0.071
-76.553	24.181	-0.083	-0.068
-75.538	-98.167	-0.038	-0.010
-74.524	-30.978	-0.399	0.223
-73.509	-12.335	-0.061	0.039
-72.494	-42.780	-0.303	0.153
-71.480	140.903	0.267	-0.350
-70.465	-77.949	0.242	-0.083
-69.451	-35.827	-0.234	0.125
-68.436	-200.000	0.055	-0.325
-67.422	86.696	0.223	-0.244
-66.407	172.225	0.137	0.195
-65.392	-12.459	-0.203	0.131
-64.378	-200.000	0.008	-0.055
-63.363	-81.558	0.265	0.086
-62.349	-101.011	-0.298	0.072
-61.334	25.911	-1.011	-0.835
-60.319	800.000	0.188	0.602
-59.305	448.665	-0.351	-0.766
-58.290	47.378	0.795	0.733
-57.276	284.635	0.652	1.162
-56.261	-200.000	95.924	595.584
-55.246	648.065	1369.034	3465.584
-54.232	195.768	2551.758	3841.852
-53.217	109.543	2300.146	2728.288
-52.203	38.691	2064.622	1823.949
-51.188	33.785	1979.817	1705.037
-50.173	32.262	1961.492	1675.621
-49.159	47.367	2011.349	1854.873
-48.144	48.752	2028.545	1883.162
-47.130	34.428	1990.900	1720.113
-46.115	32.087	1980.653	1690.146
-45.100	32.017	1977.743	1686.974
-44.086	31.928	1975.924	1684.552
-43.071	31.823	1972.886	1680.957
-42.057	31.909	1969.628	1678.881
-41.042	31.863	1968.666	1677.581
-40.027	31.900	1966.170	1675.720
-39.013	31.970	1964.323	1674.707
-37.998	31.958	1962.907	1673.325
-36.984	32.002	1960.900	1671.935
-35.969	32.089	1958.700	1670.766
-34.954	32.085	1957.257	1669.434
-33.940	32.072	1955.707	1667.933
-32.925	32.059	1954.456	1666.688
-31.911	32.085	1952.414	1665.110
-30.896	32.076	1950.467	1663.302
-29.881	32.148	1948.893	1662.530
-28.867	32.082	1948.178	1661.273
-27.852	32.154	1945.656	1659.695
-26.838	32.042	1944.072	1657.288
-25.823	32.139	1941.966	1656.279
-24.809	32.074	1940.506	1654.392
-23.794	32.040	1938.905	1652.663
-22.779	32.032	1937.278	1651.140
-21.765	32.033	1935.281	1649.380
-20.750	32.054	1933.269	1647.791
-19.736	32.004	1931.928	1646.141
-18.721	32.087	1930.428	1645.521
-17.706	32.105	1928.769	1644.204
-16.692	32.076	1927.148	1642.506
-15.677	32.045	1925.772	1640.994
-14.663	32.162	1923.831	1640.292
-13.648	32.100	1923.165	1639.126
-12.633	32.086	1921.913	1637.871
-11.619	32.049	1920.779	1636.516
-10.604	32.102	1919.235	1635.593
-9.590	32.062	1918.036	1634.164
-8.575	32.103	1916.371	1633.030
-7.560	32.015	1915.741	1631.668
-6.546	32.061	1914.422	1630.881
-5.531	32.106	1912.408	1629.489
-4.517	32.099	1911.189	1628.328
-3.502	32.065	1910.098	1627.037
-2.487	32.019	1909.118	1625.736
-1.473	32.046	1908.436	1625.326
-0.458	32.143	1903.560	1621.951
0.556	31.364	1883.462	1593.907
1.571	27.173	1864.912	1542.582
2.586	23.358	1887.384	1528.203
3.600	22.342	1923.139	1548.082
4.615	21.657	1917.662	1537.519
5.629	16.731	1817.569	1416.055
6.644	8.627	1700.667	1261.214
7.659	4.901	1665.325	1206.094
8.673	4.687	1662.023	1201.945
9.688	4.543	1660.866	1199.887
10.702	4.577	1659.264	1198.889
11.717	4.483	1656.053	1195.734
12.731	4.924	1655.456	1198.589
13.746	10.277	1668.037	1248.986
14.761	17.417	1682.979	1315.456
15.775	19.463	1685.735	1333.320
16.790	18.677	1682.287	1324.409
17.804	17.523	1679.060	1312.861
18.819	16.597	1675.747	1303.028
19.834	15.876	1673.650	1295.737
20.848	15.635	1671.903	1292.413
21.863	15.392	1670.643	1289.460
22.877	15.173	1668.976	1286.379
23.892	14.997	1667.556	1283.820
24.907	14.887	1666.409	1281.977
25.921	14.887	1665.237	1280.961
26.936	14.913	1664.201	1280.249
27.950	14.902	1663.480	1279.500
28.965	15.003	1662.931	1279.740
29.980	15.012	1662.351	1279.244
30.994	15.091	1661.324	1278.945
32.009	15.207	1660.152	1278.812
33.023	15.233	1659.411	1278.329
34.038	15.227	1658.602	1277.547
35.053	15.242	1657.127	1276.411
36.067	15.149	1655.889	1274.643
37.082	15.011	1654.418	1272.346
38.096	15.088	1653.365	1272.005
39.111	15.072	1653.075	1271.551
40.126	15.134	1652.291	1271.309
41.140	15.189	1651.071	1270.671
42.155	15.022	1649.738	1268.268
43.169	14.838	1648.034	1265.455
44.184	14.823	1647.450	1264.778
45.199	14.762	1646.090	1263.159
46.213	14.713	1645.012	1261.853
47.228	14.796	1644.387	1261.888
48.242	14.963	1643.078	1262.028
49.257	15.030	1641.703	1261.370
50.271	14.997	1640.721	1260.252
51.286	14.977	1639.127	1258.769
52.301	14.959	1638.006	1257.657
53.315	15.047	1636.776	1257.263
54.330	14.975	1635.185	1255.394
55.344	14.930	1633.317	1253.506
56.359	14.916	1631.462	1251.867
57.374	14.833	1630.631	1250.501
58.388	14.983	1629.394	1250.564
59.403	14.848	1628.607	1248.841
60.417	14.896	1626.676	1247.608
61.432	14.737	1625.984	1245.779
62.447	14.836	1624.197	1245.036
63.461	14.697	1623.579	1243.418
64.476	14.620	1622.586	1241.977
65.490	14.696	1620.904	1241.141
66.505	14.699	1619.676	1240.117
67.520	14.663	1619.033	1239.248
68.534	14.665	1617.966	1238.334
69.549	14.755	1616.823	1238.019
70.563	14.775	1615.249	1236.854
71.578	14.684	1614.337	1235.366
72.593	14.720	1613.351	1234.767
73.607	14.654	1612.148	1233.256
74.622	14.566	1611.532	1232.026
75.636	14.603	1610.324	1231.264
76.651	14.597	1609.878	1230.771
77.666	14.621	1608.732	1229.961
78.680	14.652	1607.911	1229.453
79.695	14.650	1606.881	1228.541
80.709	14.716	1606.218	1228.415
81.724	14.724	1605.243	1227.615
82.739	14.800	1604.438	1227.452
83.753	14.803	1603.698	1226.801
84.768	14.936	1602.769	1226.953
85.782	14.944	1602.146	1226.425
86.797	15.060	1601.735	1226.858
87.812	15.052	1600.533	1225.764
88.826	15.012	1599.112	1224.274
89.841	14.912	1598.098	1222.661
90.855	14.965	1597.006	1222.104
91.870	15.000	1595.633	1221.205
92.884	15.075	1595.071	1221.210
93.899	15.039	1594.482	1220.388
94.914	15.105	1592.711	1219.403
95.928	15.114	1591.448	1218.395
96.943	15.204	1589.931	1217.783
97.957	15.104	1588.750	1216.045
98.972	15.028	1587.767	1214.634
99.987	15.091	1585.828	1213.501
101.001	15.076	1583.824	1211.747
102.016	15.036	1582.723	1210.510
103.030	15.019	1581.358	1209.238
104.045	15.021	1580.311	1208.344
105.060	15.086	1578.429	1207.262
106.074	14.949	1577.881	1205.756
107.089	14.895	1575.938	1203.770
108.103	14.845	1573.976	1201.804
109.118	14.657	1572.990	1199.599
110.133	14.713	1571.392	1198.673
111.147	14.670	1570.379	1197.489
112.162	14.770	1568.875	1196.952
113.176	14.769	1567.433	1195.740
114.191	14.795	1566.061	1194.768
115.206	14.908	1565.258	1194.860
116.220	14.877	1563.756	1193.383
117.235	14.815	1562.432	1191.827
118.249	14.795	1561.569	1190.923
119.264	14.789	1559.797	1189.426
120.279	14.752	1558.900	1188.370
121.293	14.772	1557.090	1187.026
122.308	14.832	1555.476	1186.115
123.322	14.728	1553.747	1183.955
124.337	14.707	1552.560	1182.798
125.352	14.668	1551.588	1181.679
126.366	14.651	1550.229	1180.419
127.381	14.725	1549.059	1179.943
128.395	14.655	1547.870	1178.440
129.410	14.632	1546.751	1177.325
130.424	14.703	1545.485	1176.755
131.439	14.663	1544.188	1175.383
132.454	14.785	1542.911	1175.166
133.468	14.794	1541.529	1174.073
134.483	14.817	1539.843	1172.848
135.497	14.893	1538.479	1172.237
136.512	14.878	1537.397	1171.204
137.527	14.889	1535.966	1170.083
138.541	14.922	1534.853	1169.363
139.556	14.887	1533.456	1167.953
140.570	14.881	1531.864	1166.592
141.585	15.021	1530.759	1166.623
142.600	15.027	1529.792	1165.828
143.614	15.096	1528.424	1165.160
144.629	15.248	1527.171	1165.162
145.643	15.216	1526.135	1164.047
146.658	15.161	1524.870	1162.598
147.673	15.176	1523.284	1161.388
148.687	15.101	1521.647	1159.517
149.702	15.116	1520.429	1158.592
150.716	14.969	1518.596	1156.072
151.731	15.037	1517.654	1155.728
152.746	15.044	1516.338	1154.670
153.760	14.989	1515.079	1153.227
154.775	15.007	1513.751	1152.239
155.789	15.113	1512.181	1151.672
156.804	15.150	1510.751	1150.736
157.819	15.130	1510.076	1149.979
158.833	15.262	1508.691	1149.731
159.848	15.162	1507.803	1148.270
160.862	15.249	1506.484	1147.754
161.877	15.287	1505.374	1147.072
162.892	15.188	1504.086	1145.309
163.906	15.167	1502.505	1143.859
164.921	15.131	1501.339	1142.626
165.935	15.066	1500.626	1141.538
166.950	15.129	1499.476	1140.997
167.964	15.220	1498.253	1140.578
168.979	15.141	1497.573	1139.425
169.994	15.206	1496.223	1138.739
171.008	15.112	1495.297	1137.293
172.023	15.221	1493.974	1136.929
173.037	15.210	1493.101	1136.091
174.052	15.431	1491.780	1136.481
175.067	15.346	1491.349	1135.475
176.081	15.314	1490.111	1134.219
177.096	15.152	1488.619	1131.884
178.110	15.101	1487.155	1130.327
179.125	15.087	1485.955	1129.223
180.140	15.135	1485.025	1128.741
181.154	15.157	1484.216	1128.174
182.169	15.257	1482.617	1127.531
183.183	15.328	1481.897	1127.360
184.198	15.363	1481.002	1126.810
185.213	15.513	1479.563	1126.623
186.227	15.399	1478.585	1125.016
187.242	15.488	1477.683	1124.828
188.256	15.481	1476.354	1123.670
189.271	15.608	1475.275	1123.600
190.286	15.598	1474.452	1122.802
191.300	15.544	1473.526	1121.637
192.315	15.332	1471.968	1118.940
193.329	15.205	1470.355	1116.766
194.344	15.198	1469.390	1115.889
195.359	15.250	1468.295	1115.305
196.373	15.309	1467.567	1115.048
197.388	15.335	1466.840	1114.568
198.402	15.488	1465.568	1114.516
199.417	15.567	1464.348	1114.014
200.432	15.635	1463.671	1113.853
201.446	15.725	1463.207	1113.994
202.461	15.762	1461.511	1112.853
203.475	15.836	1460.413	1112.409
204.490	15.802	1459.578	1111.451
205.504	15.766	1458.260	1110.106
206.519	15.650	1457.465	1108.642
207.534	15.755	1455.903	1108.049
208.548	15.686	1454.980	1106.792
209.563	15.562	1454.414	1105.449
210.577	15.704	1453.248	1105.398
211.592	15.643	1452.171	1104.079
212.607	15.719	1451.448	1103.932
213.621	15.835	1450.804	1104.103
214.636	15.911	1449.744	1103.698
215.650	15.851	1448.707	1102.418
216.665	15.797	1448.132	1101.531
217.680	15.767	1447.396	1100.674
218.694	15.984	1446.245	1101.119
219.709	15.919	1445.887	1100.328
220.723	15.996	1444.520	1099.692
221.738	15.961	1444.001	1098.968
222.753	15.903	1443.088	1097.801
223.767	15.989	1442.049	1097.471
224.782	16.047	1440.735	1096.755
225.796	16.025	1440.191	1096.100
226.811	16.054	1439.332	1095.533
227.826	16.009	1438.579	1094.571
228.840	16.056	1437.641	1094.066
229.855	15.992	1437.008	1093.077
230.869	15.970	1435.658	1091.809
231.884	15.915	1434.746	1090.665
232.899	15.949	1433.725	1090.009
233.913	15.888	1432.354	1088.473
234.928	15.826	1431.266	1087.150
235.942	15.828	1429.948	1086.069
236.957	15.850	1428.834	1085.269
237.972	15.785	1427.716	1083.902
238.986	15.917	1426.083	1083.418
240.001	15.917	1425.416	1082.816
241.015	15.945	1424.323	1082.067
242.030	15.896	1423.567	1081.085
243.045	15.995	1422.303	1080.665
244.059	16.105	1421.657	1080.784
245.074	16.124	1421.059	1080.357
246.088	16.051	1420.420	1079.308
247.103	16.181	1419.324	1079.206
248.117	16.089	1418.816	1078.138
249.132	16.283	1417.917	1078.599
250.147	16.289	1417.449	1078.186
251.161	16.495	1416.731	1078.862
252.176	16.521	1416.012	1078.383
253.190	16.598	1415.275	1078.218
254.205	16.618	1414.448	1077.615
255.220	16.482	1414.081	1076.378
256.234	16.649	1413.185	1076.665
257.249	16.654	1412.466	1076.052
258.263	16.637	1411.475	1075.094
259.278	16.633	1410.399	1074.154
260.293	16.678	1409.461	1073.628
261.307	16.641	1408.505	1072.572
262.322	16.717	1407.711	1072.356
263.336	16.738	1407.600	1072.308
264.351	16.720	1406.509	1071.268
265.366	16.731	1405.691	1070.617
266.380	16.852	1403.984	1069.987
267.395	16.851	1403.100	1069.212
268.409	16.800	1402.647	1068.450
269.424	16.698	1401.782	1067.057
270.439	16.704	1400.869	1066.305
271.453	16.826	1399.453	1065.901
272.468	16.707	1398.441	1064.284
273.482	16.731	1397.741	1063.810
274.497	16.830	1396.758	1063.590
275.512	16.709	1396.040	1062.190
276.526	16.732	1395.042	1061.483
277.541	16.710	1394.092	1060.527
278.555	16.693	1393.400	1059.801
279.570	16.770	1392.270	1059.324
280.585	16.841	1391.541	1059.124
281.599	16.884	1391.149	1059.001
282.614	16.858	1390.006	1057.876
283.628	16.941	1388.520	1057.168
284.643	16.842	1387.731	1055.851
285.657	16.873	1386.668	1055.146
286.672	16.841	1385.538	1053.993
287.687	16.865	1384.805	1053.493
288.701	16.827	1383.760	1052.369
289.716	16.867	1383.320	1052.188
290.730	17.043	1382.490	1052.556
291.745	16.972	1381.107	1050.972
292.760	16.939	1380.496	1050.205
293.774	16.988	1379.507	1049.668
294.789	16.940	1378.544	1048.544
295.803	17.064	1377.958	1048.773
296.818	17.131	1377.040	1048.394
297.833	17.092	1375.980	1047.255
298.847	17.051	1374.968	1046.136
299.862	17.010	1374.008	1045.059
300.876	17.093	1373.040	1044.742
301.891	17.143	1372.122	1044.259
302.906	17.028	1371.439	1042.943
303.920	17.183	1370.433	1043.033
304.935	17.175	1369.960	1042.535
305.949	17.310	1368.813	1042.399
306.964	17.390	1368.153	1042.292
307.979	17.491	1367.061	1041.986
308.993	17.412	1366.244	1040.786
310.008	17.358	1365.340	1039.676
311.022	17.281	1364.133	1038.196
312.037	17.295	1363.610	1037.791
313.052	17.344	1362.739	1037.332
314.066	17.364	1361.753	1036.614
315.081	17.254	1360.433	1034.850
316.095	17.188	1359.342	1033.524
317.110	17.201	1358.174	1032.627
318.125	17.269	1357.667	1032.563
319.139	17.265	1356.711	1031.718
320.154	17.256	1355.316	1030.510
321.168	17.163	1354.838	1029.492
322.183	17.187	1353.975	1028.891
323.197	17.277	1352.858	1028.497
324.212	17.369	1351.825	1028.176
325.227	17.336	1350.622	1026.970
326.241	17.367	1350.240	1026.779
327.256	17.280	1349.505	1025.604
328.270	17.359	1348.680	1025.363
329.285	17.355	1347.713	1024.511
330.300	17.381	1346.654	1023.772
331.314	17.404	1345.297	1022.791
332.329	17.431	1344.192	1022.022
333.343	17.360	1343.955	1021.323
334.358	17.386	1342.950	1020.622
335.373	17.467	1342.445	1020.638
336.387	17.519	1341.383	1020.048
337.402	17.425	1341.243	1019.292
338.416	17.494	1339.942	1018.622
339.431	17.612	1339.578	1018.966
340.446	17.609	1339.107	1018.498
341.460	17.626	1337.861	1017.563
342.475	17.686	1337.266	1017.377
343.489	17.841	1335.968	1017.225
344.504	17.847	1335.385	1016.724
345.519	17.926	1333.895	1015.973
346.533	17.845	1333.428	1015.040
347.548	17.872	1332.639	1014.512
348.562	17.899	1332.097	1014.171
349.577	18.038	1330.797	1013.916
350.592	17.912	1330.265	1012.674
351.606	17.828	1329.517	1011.515
352.621	17.819	1328.235	1010.397
353.635	17.740	1327.280	1009.114
354.650	17.715	1326.073	1007.962
355.665	17.844	1325.243	1008.001
356.679	17.845	1324.093	1007.045
357.694	17.772	1323.115	1005.781
358.708	17.968	1322.047	1006.033
359.723	17.922	1321.011	1004.886
360.738	17.863	1320.580	1004.124
361.752	17.897	1319.268	1003.236
362.767	17.894	1318.178	1002.302
363.781	17.842	1317.278	1001.224
364.796	18.012	1316.543	1001.574
365.810	17.933	1315.828	1000.477
366.825	18.055	1315.366	1000.754
367.840	18.051	1314.642	1000.090
368.854	18.109	1314.132	999.950
369.869	18.223	1313.450	1000.013
370.883	18.148	1312.947	999.103
371.898	18.234	1312.053	998.833
372.913	18.273	1310.868	998.073
373.927	18.060	1310.276	996.292
374.942	18.163	1309.449	996.171
375.956	18.339	1308.768	996.590
376.971	18.335	1307.948	995.853
377.986	18.326	1306.859	994.887
379.000	18.322	1305.860	994.016
380.015	18.285	1305.403	993.364
381.029	18.364	1304.941	993.385
382.044	18.379	1304.319	992.906
383.059	18.566	1303.121	992.989
384.073	18.444	1302.461	991.693
385.088	18.458	1302.186	991.477
386.102	18.503	1301.246	990.936
387.117	18.495	1300.718	990.399
388.132	18.445	1299.753	989.286
389.146	18.350	1298.850	987.968
390.161	18.294	1298.082	986.969
391.175	18.379	1296.930	986.495
392.190	18.395	1296.204	985.950
393.205	18.394	1295.849	985.589
394.219	18.541	1294.564	985.368
395.234	18.589	1293.027	984.384
396.248	18.564	1291.830	983.247
397.263	18.533	1290.368	981.864
398.278	18.570	1289.141	981.060
399.292	18.402	1288.093	979.211
400.307	18.333	1287.281	978.113
401.321	18.441	1285.858	977.564
402.336	18.324	1285.511	976.548
403.350	18.408	1284.273	975.998
404.365	18.396	1283.625	975.353
405.380	18.448	1282.455	974.672
406.394	18.453	1281.632	973.989
407.409	18.518	1280.817	973.653
408.423	18.494	1280.428	973.134
409.438	18.613	1279.749	973.207
410.453	18.735	1278.633	972.961
411.467	18.707	1278.451	972.577
412.482	18.793	1278.056	972.683
413.496	18.810	1277.289	972.107
414.511	18.791	1276.525	971.329
415.526	18.932	1275.794	971.487
416.540	18.930	1274.777	970.612
417.555	19.019	1274.109	970.522
418.569	18.840	1274.233	969.523
419.584	18.959	1273.406	969.477
420.599	18.909	1272.719	968.586
421.613	140.356	1431.779	1794.566
422.628	134.949	1454.928	1794.660
