DTS Sentinel unit serial number:	SN413079Multiplexer serial number:	ORYXHardware model number:	OX4-SRSoftware version number:	ORYX F/W v4.00 Oryx Data Collector v3.7.2.0data status	okinstallation	princeton_trtdifferential loss correction	single-endedforward channel	channel 4reverse channel	N/Adate	2019/09/13time	04:45:35forward acquisition time	60.00reverse acquisition time	0.00gamma	496.2192k internal	0.2322k external	0.2322temperature offset calibration	1.0195default loss term (dB/km)	0.3790temperature slope calibration	1.0000multiplexer offset coefficient	1.0000multiplexer slope coefficient	1.0000fibre end	0.00T internal ref (°C)	26.56T ext. ref 1 (°C)	4.06T ext. ref 2 (°C)	21.15length (m)	temperature (°C)	Stokes	anti-Stokes-747.200	-104.131	0.105	-0.025
-746.185	54.125	-0.231	-0.225
-745.171	-61.497	0.126	0.053
-744.156	-194.029	-0.196	0.002
-743.142	578.926	0.060	0.147
-742.127	174.045	-0.077	0.113
-741.112	477.278	-0.098	0.224
-740.098	91.190	0.216	-0.245
-739.083	612.343	-0.125	-0.315
-738.069	-73.581	-0.060	0.022
-737.054	111.712	0.179	0.219
-736.039	800.000	-0.173	-0.559
-735.025	-200.000	0.006	0.352
-734.010	-200.000	0.020	-0.528
-732.996	1.809	-0.200	0.146
-731.981	58.394	-0.280	-0.278
-730.966	46.471	-0.244	0.229
-729.952	-144.009	0.081	0.008
-728.937	63.284	-0.167	0.169
-727.923	603.234	0.063	0.158
-726.908	800.000	-0.028	-0.080
-725.894	-200.000	-0.007	-0.306
-724.879	-68.787	0.198	-0.077
-723.864	0.734	0.189	-0.137
-722.850	800.000	-0.071	0.250
-721.835	-130.810	-0.289	0.039
-720.821	-161.609	0.112	-0.006
-719.806	-200.000	-0.006	-0.197
-718.791	77.318	-0.109	-0.117
-717.777	-43.589	-0.259	-0.132
-716.762	-135.159	-0.387	0.047
-715.748	-200.000	0.005	-0.106
-714.733	-138.102	-0.115	-0.013
-713.718	175.332	0.043	0.063
-712.704	-99.820	-0.323	0.082
-711.689	-200.000	-0.029	-0.430
-710.675	-200.000	0.031	0.205
-709.660	-159.795	-0.558	0.031
-708.645	-200.000	0.009	0.117
-707.631	800.000	0.046	0.154
-706.616	800.000	-0.135	-0.388
-705.602	-82.948	0.350	-0.114
-704.587	241.013	0.273	0.460
-703.572	-84.744	-0.244	-0.078
-702.558	-156.211	0.189	0.012
-701.543	428.191	0.072	-0.157
-700.529	456.726	0.167	-0.374
-699.514	-16.200	-0.218	-0.139
-698.499	595.749	0.135	-0.338
-697.485	-115.807	0.112	-0.021
-696.470	2.391	0.144	-0.105
-695.456	-116.416	-0.239	-0.044
-694.441	301.943	-0.028	-0.051
-693.426	66.740	0.267	0.274
-692.412	-200.000	0.059	0.340
-691.397	-45.580	-0.145	-0.072
-690.383	16.904	0.121	-0.096
-689.368	402.355	0.126	0.268
-688.354	800.000	-0.047	0.145
-687.339	800.000	-0.014	0.044
-686.324	-200.000	-0.032	-0.216
-685.310	164.001	0.049	-0.069
-684.295	218.800	-0.170	-0.274
-683.281	-200.000	0.004	-0.152
-682.266	-175.433	0.355	-0.010
-681.251	-83.391	-0.167	0.054
-680.237	800.000	0.020	0.064
-679.222	-9.525	-0.306	0.206
-678.208	110.418	-0.018	0.022
-677.193	73.123	-0.063	0.066
-676.178	-83.352	0.197	-0.064
-675.164	-67.593	-0.348	0.138
-674.149	-155.548	0.233	-0.015
-673.135	372.693	-0.063	0.129
-672.120	112.081	-0.084	-0.103
-671.105	-182.280	-0.252	-0.005
-670.091	-119.036	0.369	-0.065
-669.076	-105.564	0.274	-0.063
-668.062	103.663	0.061	-0.072
-667.047	339.502	0.100	-0.196
-666.032	459.617	-0.059	-0.133
-665.018	800.000	-0.134	-0.551
-664.003	83.939	0.217	-0.238
-662.989	-58.689	0.177	-0.077
-661.974	-65.278	0.122	-0.049
-660.959	-200.000	0.030	0.138
-659.945	-33.970	-0.270	-0.150
-658.930	-84.395	0.108	0.034
-657.916	-105.018	-0.239	0.055
-656.901	-200.000	-0.011	0.082
-655.886	-163.963	-0.228	0.011
-654.872	-8.730	0.033	0.022
-653.857	115.303	0.193	-0.238
-652.843	-118.157	-0.271	-0.049
-651.828	-91.331	0.223	-0.064
-650.814	-115.792	-0.348	0.066
-649.799	-200.000	-0.004	0.244
-648.784	-30.469	0.155	0.089
-647.770	-18.052	0.106	-0.067
-646.755	-91.633	-0.180	0.052
-645.741	-105.084	-0.297	-0.068
-644.726	-130.298	0.060	0.008
-643.711	-147.669	-0.170	0.014
-642.697	412.750	0.126	-0.270
-641.682	-200.000	-0.039	-0.174
-640.668	73.568	-0.191	-0.201
-639.653	-87.593	0.071	-0.022
-638.638	255.689	0.084	0.145
-637.624	-1.351	0.141	-0.100
-636.609	-155.051	-0.420	-0.028
-635.595	6.264	-0.133	-0.100
-634.580	701.814	-0.127	-0.337
-633.565	3.658	-0.195	-0.143
-632.551	761.648	0.104	0.283
-631.536	55.386	0.145	0.141
-630.522	800.000	-0.052	0.226
-629.507	-106.912	0.433	0.096
-628.492	-40.016	0.365	-0.192
-627.478	-90.029	-0.135	-0.040
-626.463	653.700	0.107	-0.276
-625.449	5.146	-0.190	-0.141
-624.434	93.222	0.198	0.225
-623.419	39.678	0.194	-0.175
-622.405	-50.175	-0.263	0.125
-621.390	316.340	0.105	0.200
-620.376	-41.792	-0.328	-0.169
-619.361	800.000	-0.035	0.102
-618.346	25.912	0.106	-0.089
-617.332	800.000	-0.098	-0.368
-616.317	99.665	-0.179	-0.208
-615.303	-158.740	-0.129	0.007
-614.288	-200.000	-0.004	0.381
-613.273	-142.888	0.190	0.019
-612.259	69.452	-0.414	-0.428
-611.244	195.253	-0.230	-0.351
-610.230	311.259	0.128	0.242
-609.215	-51.136	-0.417	0.196
-608.201	-200.000	0.032	-0.164
-607.186	800.000	-0.060	-0.196
-606.171	78.424	-0.213	0.228
-605.157	-55.370	-0.159	0.072
-604.142	800.000	-0.044	-0.130
-603.128	-81.966	0.114	-0.037
-602.113	-80.116	0.423	0.142
-601.098	-200.000	0.029	-0.243
-600.084	-200.000	0.009	-0.348
-599.069	-28.584	-0.164	-0.095
-598.055	-184.380	-0.280	0.005
-597.040	43.524	-0.141	-0.129
-596.025	464.446	-0.060	-0.135
-595.011	-78.758	-0.255	-0.087
-593.996	-200.000	0.017	0.236
-592.982	56.659	-0.299	0.292
-591.967	-65.498	0.212	-0.085
-590.952	-64.839	0.397	-0.161
-589.938	-61.489	-0.339	0.143
-588.923	125.177	-0.175	0.222
-587.909	68.592	0.238	0.245
-586.894	70.385	0.312	-0.324
-585.879	556.016	0.167	-0.404
-584.865	350.723	-0.109	0.216
-583.850	-121.924	-0.238	-0.039
-582.836	-134.132	0.183	-0.023
-581.821	-200.000	0.021	0.202
-580.806	-200.000	-0.053	0.298
-579.792	-57.287	0.209	-0.092
-578.777	467.392	0.093	-0.209
-577.763	272.680	0.117	-0.208
-576.748	33.631	0.114	0.099
-575.733	-152.026	0.190	-0.014
-574.719	800.000	-0.033	-0.119
-573.704	248.099	0.137	-0.232
-572.690	-165.638	-0.269	0.012
-571.675	-124.698	0.346	0.054
-570.661	310.413	0.120	0.225
-569.646	77.325	-0.217	-0.231
-568.631	83.938	-0.208	0.227
-567.617	-41.343	-0.172	-0.089
-566.602	-200.000	-0.057	-0.349
-565.588	26.939	-0.163	0.137
-564.573	-200.000	0.002	-0.111
-563.558	36.110	0.280	-0.247
-562.544	63.135	0.174	0.175
-561.529	800.000	0.056	-0.180
-560.515	150.172	-0.044	0.060
-559.500	-120.422	-0.328	-0.056
-558.485	-70.740	-0.160	0.061
-557.471	359.406	0.071	0.142
-556.456	41.219	0.137	-0.124
-555.442	403.144	0.087	-0.184
-554.427	125.628	0.174	0.220
-553.412	25.105	0.219	-0.182
-552.398	-200.000	0.080	-0.364
-551.383	-3.971	-0.074	-0.051
-550.369	-24.480	-0.306	0.183
-549.354	800.000	0.027	0.096
-548.339	-185.885	0.258	-0.004
-547.325	15.475	-0.066	0.052
-546.310	-200.000	0.031	-0.146
-545.296	-108.048	-0.176	-0.038
-544.281	-1.971	-0.114	-0.080
-543.266	-113.624	-0.356	0.070
-542.252	-200.000	-0.016	-0.082
-541.237	118.592	-0.239	-0.295
-540.223	470.502	-0.026	0.058
-539.208	-16.710	-0.122	0.077
-538.193	-103.809	-0.263	-0.062
-537.179	-178.713	0.136	0.003
-536.164	126.225	-0.009	-0.012
-535.150	800.000	0.037	-0.160
-534.135	104.174	0.142	-0.167
-533.121	209.406	-0.117	-0.183
-532.106	-8.324	-0.189	0.128
-531.091	-4.634	-0.494	0.342
-530.077	-65.166	-0.316	-0.128
-529.062	-200.000	0.010	-0.059
-528.048	-34.887	-0.230	0.126
-527.033	-200.000	0.044	0.232
-526.018	-79.052	-0.238	-0.081
-525.004	-24.776	0.244	-0.145
-523.989	30.814	0.310	0.266
-522.975	-56.743	0.038	0.017
-521.960	-65.058	0.128	-0.052
-520.945	131.147	-0.130	0.167
-519.931	226.290	-0.154	-0.250
-518.916	12.654	0.178	0.137
-517.902	53.093	-0.119	0.114
-516.887	403.710	0.087	0.184
-515.872	18.650	0.214	-0.171
-514.858	-42.969	-0.293	-0.149
-513.843	433.254	-0.035	-0.076
-512.829	245.735	0.101	0.171
-511.814	122.345	0.076	0.095
-510.799	-200.000	0.060	0.295
-509.785	-66.064	0.134	-0.053
-508.770	-200.000	-0.003	0.275
-507.756	-200.000	-0.045	0.266
-506.741	232.428	-0.068	-0.111
-505.726	6.058	-0.142	-0.105
-504.712	9.473	-0.226	0.171
-503.697	105.724	0.148	-0.176
-502.683	290.976	0.199	-0.363
-501.668	-68.904	0.394	-0.152
-500.653	-17.565	-0.157	0.099
-499.639	-96.505	-0.082	-0.022
-498.624	1.232	0.191	0.137
-497.610	-38.183	0.290	-0.154
-496.595	-200.000	0.005	-0.154
-495.581	-64.373	-0.061	-0.025
-494.566	-131.709	-0.537	0.071
-493.551	58.058	-0.172	-0.169
-492.537	358.850	0.073	-0.147
-491.522	-200.000	-0.020	0.127
-490.508	194.047	0.199	-0.302
-489.493	585.783	-0.021	-0.052
-488.478	407.873	0.065	0.138
-487.464	800.000	-0.065	-0.217
-486.449	-165.251	-0.346	0.015
-485.435	394.210	0.071	-0.148
-484.420	-200.000	0.037	0.201
-483.405	-148.128	0.260	0.022
-482.391	-130.676	-0.102	-0.014
-481.376	-82.382	0.269	0.088
-480.362	-100.754	-0.223	-0.055
-479.347	726.257	-0.067	0.178
-478.332	-138.789	0.122	-0.013
-477.318	-55.415	-0.225	-0.101
-476.303	66.586	-0.136	-0.138
-475.289	-53.916	0.331	0.151
-474.274	668.537	0.015	0.038
-473.259	800.000	0.052	-0.150
-472.245	800.000	0.048	-0.144
-471.230	132.184	0.058	0.075
-470.216	-11.114	0.270	0.178
-469.201	744.081	-0.064	0.173
-468.186	13.351	-0.191	-0.148
-467.172	-90.504	0.050	-0.014
-466.157	71.696	0.178	0.184
-465.143	-118.592	0.064	-0.011
-464.128	-15.171	-0.353	0.226
-463.113	800.000	0.052	0.174
-462.099	-21.831	-0.049	0.030
-461.084	-35.456	0.223	-0.121
-460.070	85.054	-0.140	0.154
-459.055	379.141	-0.070	-0.143
-458.040	47.462	0.157	-0.146
-457.026	-40.633	-0.175	-0.091
-456.011	26.181	-0.160	0.133
-454.997	-131.291	0.299	0.040
-453.982	-166.259	0.236	0.010
-452.968	-200.000	0.031	-0.158
-451.953	-11.920	-0.136	-0.089
-450.938	-57.394	-0.109	0.048
-449.924	-126.831	0.245	-0.036
-448.909	-89.915	0.096	0.028
-447.895	-92.706	0.449	-0.126
-446.880	730.124	-0.127	0.338
-445.865	-200.000	-0.015	0.174
-444.851	-39.201	0.174	-0.091
-443.836	-125.692	-0.193	-0.029
-442.822	413.220	-0.063	0.135
-441.807	234.265	-0.122	-0.202
-440.792	-71.765	-0.135	-0.050
-439.778	800.000	0.076	0.239
-438.763	52.967	0.066	-0.063
-437.749	-58.827	-0.188	0.081
-436.734	1.488	0.139	-0.100
-435.719	20.566	-0.206	-0.166
-434.705	312.494	0.187	-0.350
-433.690	-67.934	0.359	-0.140
-432.676	-45.743	-0.419	-0.207
-431.661	-200.000	0.030	0.188
-430.646	-200.000	0.010	-0.117
-429.632	302.475	0.144	-0.265
-428.617	-121.823	-0.237	0.039
-427.603	800.000	0.018	-0.075
-426.588	100.349	-0.084	-0.098
-425.573	-160.715	0.601	-0.032
-424.559	-61.393	0.047	0.020
-423.544	679.390	-0.025	-0.065
-422.530	-41.953	-0.270	-0.138
-421.515	3.062	0.041	0.030
-420.500	40.209	0.111	-0.100
-419.486	-122.506	0.166	-0.027
-418.471	442.179	0.091	0.198
-417.457	-31.614	-0.187	0.105
-416.442	-89.583	-0.200	0.059
-415.428	103.129	-0.099	-0.115
-414.413	800.000	0.041	0.115
-413.398	129.830	-0.180	0.229
-412.384	-200.000	0.044	-0.237
-411.369	-180.236	-0.056	-0.001
-410.355	-47.088	0.288	0.140
-409.340	-4.307	0.117	-0.081
-408.325	800.000	-0.147	0.528
-407.311	-200.000	-0.030	0.312
-406.296	-200.000	0.001	-0.021
-405.282	-200.000	0.007	-0.173
-404.267	-139.210	0.112	-0.012
-403.252	704.803	0.054	-0.143
-402.238	-200.000	0.012	0.143
-401.223	-200.000	-0.042	0.329
-400.209	242.127	-0.043	0.071
-399.194	-200.000	-0.036	0.235
-398.179	-78.817	-0.299	-0.102
-397.165	-120.839	0.503	0.085
-396.150	-191.880	0.121	-0.001
-395.136	800.000	-0.059	-0.174
-394.121	-133.717	-0.218	0.027
-393.106	30.158	-0.138	0.118
-392.092	-200.000	-0.036	-0.370
-391.077	-71.640	0.192	0.071
-390.063	55.596	-0.055	0.054
-389.048	29.841	0.215	0.183
-388.033	16.072	0.174	0.137
-387.019	-200.000	-0.057	0.277
-386.004	289.381	-0.069	0.125
-384.990	800.000	-0.010	-0.039
-383.975	71.493	-0.201	-0.208
-382.960	32.469	0.243	-0.210
-381.946	337.742	0.161	-0.312
-380.931	800.000	-0.053	0.206
-379.917	261.599	-0.060	0.104
-378.902	-135.766	-0.098	-0.012
-377.888	-58.102	0.227	-0.099
-376.873	-200.000	0.036	0.219
-375.858	606.270	0.125	-0.311
-374.844	513.000	0.060	-0.140
-373.829	-143.737	-0.226	-0.021
-372.815	1.461	-0.059	-0.042
-371.800	125.196	-0.109	-0.137
-370.785	-105.953	0.205	-0.046
-369.771	800.000	-0.032	-0.122
-368.756	-47.563	0.097	0.047
-367.742	-200.000	-0.299	0.001
-366.727	-111.946	-0.268	0.054
-365.712	469.794	-0.096	0.214
-364.698	-63.213	-0.044	0.018
-363.683	-135.306	-0.434	0.052
-362.669	24.051	-0.293	0.240
-361.654	-48.655	-0.147	0.070
-360.639	64.519	-0.069	-0.069
-359.625	9.168	-0.156	0.117
-358.610	-200.000	0.054	-0.337
-357.596	-17.541	0.305	-0.191
-356.581	-161.059	0.207	-0.011
-355.566	20.011	0.227	0.182
-354.552	-100.176	0.143	0.035
-353.537	-200.000	-0.043	0.411
-352.523	201.096	0.120	-0.184
-351.508	-200.000	0.119	0.649
-350.493	343.576	-0.109	0.213
-349.479	303.736	-0.133	0.245
-348.464	145.266	0.250	0.333
-347.450	-200.000	-0.024	-0.358
-346.435	95.919	0.226	0.256
-345.420	711.409	-0.042	0.111
-344.406	250.587	-0.080	-0.135
-343.391	-200.000	0.000	-0.094
-342.377	-119.188	-0.145	0.025
-341.362	536.167	0.075	0.177
-340.348	-76.183	-0.277	-0.097
-339.333	184.519	-0.133	0.196
-338.318	-200.000	0.002	-0.206
-337.304	344.811	0.174	-0.339
-336.289	32.183	0.055	-0.047
-335.275	218.619	0.115	0.182
-334.260	-200.000	-0.030	-0.171
-333.245	585.238	-0.064	0.157
-332.231	-200.000	-0.026	0.303
-331.216	-200.000	0.031	0.294
-330.202	-200.000	-0.006	-0.047
-329.187	-38.840	0.234	-0.123
-328.172	-200.000	0.002	-0.055
-327.158	800.000	-0.004	0.015
-326.143	-36.947	-0.109	-0.058
-325.129	296.820	0.033	0.061
-324.114	-145.131	0.263	0.024
-323.099	-57.950	0.171	-0.074
-322.085	-136.691	-0.177	0.020
-321.070	55.865	0.176	-0.170
-320.056	-70.881	0.190	0.071
-319.041	800.000	0.102	0.281
-318.026	795.635	-0.097	-0.266
-317.012	800.000	0.120	-0.412
-315.997	277.525	-0.097	-0.172
-314.983	-159.687	0.338	0.019
-313.968	54.213	0.144	-0.138
-312.953	-54.295	0.148	0.067
-311.939	-8.708	0.096	0.064
-310.924	800.000	-0.051	-0.207
-309.910	-200.000	-0.041	-0.282
-308.895	-126.238	0.296	-0.044
-307.880	237.933	0.076	0.125
-306.866	198.519	-0.240	0.365
-305.851	29.203	0.069	-0.058
-304.837	-52.413	-0.088	0.040
-303.822	743.675	-0.149	-0.398
-302.807	-94.429	0.198	-0.054
-301.793	800.000	0.072	0.280
-300.778	-60.693	-0.112	0.047
-299.764	35.662	-0.226	-0.197
-298.749	-19.317	0.038	0.023
-297.735	-200.000	0.028	-0.172
-296.720	-88.055	0.496	-0.148
-295.705	-144.656	-0.326	0.030
-294.691	40.872	0.323	-0.290
-293.676	800.000	-0.070	-0.268
-292.662	9.886	0.084	-0.063
-291.647	277.551	-0.044	-0.078
-290.632	-28.926	-0.070	0.040
-289.618	-94.602	0.098	-0.027
-288.603	55.523	0.194	-0.187
-287.589	-185.391	-0.224	0.003
-286.574	759.835	-0.056	0.151
-285.559	800.000	0.022	-0.088
-284.545	800.000	-0.036	0.112
-283.530	53.192	0.239	0.227
-282.516	7.006	-0.067	-0.049
-281.501	-106.529	-0.265	-0.059
-280.486	359.068	-0.046	0.090
-279.472	-200.000	-0.015	0.180
-278.457	-90.265	-0.075	0.022
-277.443	-34.139	-0.196	-0.107
-276.428	266.157	0.087	0.150
-275.413	103.461	0.015	-0.017
-274.399	-148.594	0.253	-0.020
-273.384	-104.713	-0.124	0.028
-272.370	-143.841	0.380	0.036
-271.355	115.456	-0.209	-0.254
-270.340	-31.550	-0.129	0.072
-269.326	-200.000	0.086	0.398
-268.311	-200.000	-0.013	-0.164
-267.297	-200.000	0.016	-0.186
-266.282	-39.619	0.222	0.115
-265.267	206.319	0.164	-0.254
-264.253	-151.781	0.208	0.015
-263.238	110.877	-0.228	-0.272
-262.224	-141.040	-0.137	0.014
-261.209	-108.437	-0.239	0.051
-260.195	-200.000	-0.043	0.212
-259.180	87.572	0.174	0.190
-258.165	-175.830	0.156	-0.004
-257.151	38.725	0.213	0.189
-256.136	-200.000	0.019	0.386
-255.122	47.908	-0.283	0.262
-254.107	254.634	-0.192	0.326
-253.092	-104.007	0.226	0.052
-252.078	567.322	-0.159	0.382
-251.063	24.664	0.302	0.248
-250.049	-200.000	0.000	-0.159
-249.034	-170.107	0.341	-0.012
-248.019	14.728	-0.124	-0.096
-247.005	188.851	0.057	0.084
-245.990	-200.000	0.035	-0.190
-244.976	-153.560	-0.145	-0.010
-243.961	67.143	0.206	0.208
-242.946	-200.000	-0.001	-0.175
-241.932	153.587	-0.026	-0.035
-240.917	-72.608	0.397	0.145
-239.903	55.652	-0.225	0.216
-238.888	-125.008	-0.185	0.028
-237.873	-188.989	-0.186	-0.002
-236.859	55.035	-0.077	0.074
-235.844	31.660	0.085	-0.073
-234.830	136.774	0.194	-0.250
-233.815	36.756	-0.263	-0.230
-232.800	-176.677	0.129	0.003
-231.786	440.007	-0.040	-0.088
-230.771	-154.557	0.334	0.022
-229.757	646.076	0.087	-0.219
-228.742	-157.455	0.192	-0.011
-227.727	248.453	-0.246	0.412
-226.713	-200.000	-0.032	-0.262
-225.698	143.779	0.100	0.132
-224.684	-200.000	0.000	0.092
-223.669	800.000	-0.068	0.188
-222.655	-200.000	0.009	0.332
-221.640	-200.000	0.001	-0.209
-220.625	590.674	0.076	-0.186
-219.611	179.111	0.067	-0.097
-218.596	401.303	0.024	-0.050
-217.582	623.841	0.051	-0.127
-216.567	-200.000	0.024	0.297
-215.552	-200.000	0.018	0.140
-214.538	-28.189	0.274	0.157
-213.523	-99.572	0.187	0.046
-212.509	800.000	-0.058	-0.173
-211.494	800.000	0.058	-0.228
-210.479	-33.175	-0.208	-0.114
-209.465	-149.328	0.088	0.007
-208.450	-200.000	-0.052	0.255
-207.436	-7.038	0.234	0.157
-206.421	-169.141	-0.162	0.006
-205.406	82.844	-0.214	0.230
-204.392	53.468	-0.120	0.114
-203.377	800.000	0.097	0.381
-202.363	744.474	0.063	-0.167
-201.348	-200.000	0.003	-0.054
-200.333	99.536	0.156	0.179
-199.319	-29.807	-0.252	0.142
-198.304	30.289	-0.156	-0.132
-197.290	800.000	-0.036	0.123
-196.275	477.312	-0.023	-0.051
-195.260	-9.785	-0.279	0.184
-194.246	-200.000	-0.001	-0.188
-193.231	-200.000	-0.035	-0.469
-192.217	-200.000	-0.006	-0.116
-191.202	-82.449	-0.366	-0.118
-190.187	602.650	-0.088	0.216
-189.173	-32.149	0.272	-0.151
-188.158	248.051	-0.175	0.293
-187.144	201.087	-0.013	-0.019
-186.129	332.129	0.198	0.377
-185.114	-3.945	0.066	0.045
-184.100	-89.839	0.191	-0.055
-183.085	-200.000	0.025	0.172
-182.071	-200.000	-0.002	-0.228
-181.056	-92.436	0.174	-0.048
-180.042	323.225	0.014	-0.027
-179.027	400.788	-0.066	0.137
-178.012	178.264	0.094	-0.136
-176.998	-140.338	-0.098	-0.010
-175.983	-29.131	-0.131	-0.074
-174.969	-161.839	-0.038	-0.002
-173.954	46.682	-0.139	0.128
-172.939	-151.811	-0.266	-0.019
-171.925	-185.155	-0.424	0.007
-170.910	-200.000	-0.001	-0.058
-169.896	37.248	0.099	-0.087
-168.881	114.795	-0.071	-0.085
-167.866	-147.422	0.300	0.025
-166.852	73.503	-0.099	0.102
-165.837	-126.087	0.134	-0.020
-164.823	13.407	0.148	0.114
-163.808	333.502	-0.061	-0.116
-162.793	380.800	-0.089	0.180
-161.779	-118.379	0.205	-0.036
-160.764	800.000	0.100	-0.308
-159.750	292.007	-0.195	0.350
-158.735	-200.000	0.228	0.001
-157.720	52.564	-0.105	-0.099
-156.706	-77.125	-0.132	0.046
-155.691	136.380	0.079	0.102
-154.677	-70.538	0.132	-0.049
-153.662	800.000	-0.094	0.362
-152.647	-39.928	-0.265	-0.137
-151.633	54.717	0.042	0.040
-150.618	73.849	0.130	-0.135
-149.604	-31.990	0.048	-0.027
-148.589	-200.000	-0.027	0.356
-147.574	-200.000	-0.027	-0.123
-146.560	-200.000	-0.040	0.237
-145.545	88.817	-0.193	-0.212
-144.531	-26.371	0.338	-0.196
-143.516	-115.620	-0.470	-0.087
-142.502	664.644	0.049	0.124
-141.487	800.000	0.081	-0.255
-140.472	800.000	-0.094	-0.270
-139.458	3.772	-0.092	0.066
-138.443	-200.000	0.033	0.370
-137.429	25.763	0.254	0.209
-136.414	63.324	-0.098	0.097
-135.399	33.997	0.091	0.078
-134.385	-128.498	-0.195	0.027
-133.370	2.982	-0.101	-0.072
-132.356	190.442	0.070	0.103
-131.341	42.636	-0.102	-0.092
-130.326	92.233	-0.206	-0.229
-129.312	-200.000	-0.016	-0.140
-128.297	291.805	-0.105	-0.188
-127.283	548.037	0.024	0.057
-126.268	444.144	0.062	0.133
-125.253	-114.918	0.255	-0.048
-124.239	800.000	0.119	0.339
-123.224	800.000	-0.026	0.108
-122.210	-200.000	0.017	-0.096
-121.195	-79.754	0.271	-0.090
-120.180	29.774	0.087	0.073
-119.166	-200.000	-0.006	0.117
-118.151	145.476	0.185	-0.244
-117.137	-145.448	-0.458	0.041
-116.122	675.940	0.076	0.194
-115.107	2.455	0.137	-0.098
-114.093	-200.000	0.013	0.119
-113.078	15.791	0.272	0.211
-112.064	232.435	-0.168	-0.271
-111.049	140.841	-0.211	0.275
-110.034	800.000	0.043	0.153
-109.020	800.000	0.074	0.298
-108.005	-135.145	-0.128	0.015
-106.991	-101.880	0.233	-0.056
-105.976	42.539	-0.248	0.223
-104.962	98.554	-0.131	0.149
-103.947	231.433	-0.085	-0.137
-102.932	800.000	0.085	-0.277
-101.918	-47.444	-0.097	-0.046
-100.903	-40.563	0.056	0.028
-99.889	-8.919	0.091	-0.060
-98.874	387.732	0.121	0.248
-97.859	23.077	0.135	-0.110
-96.845	-68.996	0.280	-0.106
-95.830	800.000	0.125	0.364
-94.816	22.300	0.248	0.200
-93.801	-200.000	-0.010	-0.192
-92.786	-7.042	-0.198	0.132
-91.772	-20.770	0.221	0.133
-90.757	59.232	0.136	-0.132
-89.743	108.395	0.083	0.097
-88.728	-91.752	-0.136	-0.038
-87.713	557.853	-0.144	0.342
-86.699	204.984	-0.057	0.087
-85.684	-139.423	0.194	0.020
-84.670	-200.000	0.001	0.010
-83.655	758.826	0.134	0.357
-82.640	158.257	0.168	-0.229
-81.626	-60.608	0.040	-0.017
-80.611	-40.236	-0.070	0.036
-79.597	-20.467	-0.136	-0.082
-78.582	-200.000	0.026	0.340
-77.567	-200.000	-0.022	-0.393
-76.553	-200.000	0.007	-0.312
-75.538	71.669	0.045	-0.046
-74.524	800.000	0.089	0.287
-73.509	-103.005	0.358	0.083
-72.494	800.000	-0.064	-0.230
-71.480	258.206	0.084	0.143
-70.465	114.862	-0.066	0.080
-69.451	25.137	0.151	0.123
-68.436	-68.464	-0.205	-0.078
-67.422	762.927	-0.030	0.081
-66.407	-56.478	0.386	-0.169
-65.392	205.607	0.089	0.136
-64.378	-200.000	0.011	-0.295
-63.363	-200.000	0.001	0.271
-62.349	183.430	0.158	-0.230
-61.334	3.740	-1.052	-0.755
-60.319	-16.931	0.846	0.526
-59.305	800.000	-0.360	-1.005
-58.290	255.691	0.812	1.370
-57.276	495.542	0.669	1.512
-56.261	-200.000	116.985	650.687
-55.246	500.651	1540.697	3496.939
-54.232	171.940	2719.644	3844.006
-53.217	96.110	2324.375	2612.949
-52.203	33.010	2068.055	1762.328
-51.188	28.292	1983.579	1647.929
-50.173	26.953	1966.604	1621.810
-49.159	44.419	2026.877	1830.578
-48.144	43.377	2041.871	1834.585
-47.130	28.726	2000.670	1665.801
-46.115	26.598	1989.773	1637.440
-45.100	26.579	1986.747	1634.715
-44.086	26.469	1984.890	1632.127
-43.071	26.487	1982.183	1630.001
-42.057	26.389	1980.167	1627.395
-41.042	26.403	1978.141	1625.792
-40.027	26.448	1976.048	1624.418
-39.013	26.468	1974.234	1623.038
-37.998	26.482	1972.767	1621.890
-36.984	26.499	1970.821	1620.381
-35.969	26.461	1968.840	1618.346
-34.954	26.488	1967.465	1617.398
-33.940	26.465	1966.086	1615.993
-32.925	26.564	1963.709	1614.858
-31.911	26.585	1962.248	1613.782
-30.896	26.586	1960.365	1612.175
-29.881	26.640	1959.340	1611.749
-28.867	26.582	1957.639	1609.773
-27.852	26.640	1955.807	1608.715
-26.838	26.611	1953.892	1606.819
-25.823	26.599	1951.841	1604.958
-24.809	26.622	1950.060	1603.640
-23.794	26.547	1948.604	1601.715
-22.779	26.584	1947.016	1600.667
-21.765	26.676	1945.240	1599.957
-20.750	26.610	1943.856	1598.176
-19.736	26.567	1941.968	1596.179
-18.721	26.595	1940.559	1595.204
-17.706	26.646	1938.602	1593.984
-16.692	26.583	1936.964	1592.019
-15.677	26.569	1935.642	1590.741
-14.663	26.528	1934.472	1589.357
-13.648	26.534	1933.254	1588.352
-12.633	26.553	1931.799	1587.255
-11.619	26.638	1930.143	1586.580
-10.604	26.555	1928.849	1584.724
-9.590	26.601	1927.725	1584.145
-8.575	26.604	1926.502	1583.099
-7.560	26.569	1924.933	1581.445
-6.546	26.572	1923.595	1580.303
-5.531	26.528	1922.514	1578.975
-4.517	26.567	1921.681	1578.565
-3.502	26.609	1920.105	1577.578
-2.487	26.575	1919.066	1576.366
-1.473	26.551	1918.581	1575.693
-0.458	26.584	1913.300	1571.578
0.556	28.459	1893.451	1543.640
1.571	24.107	1874.329	1491.548
2.586	20.036	1897.551	1475.299
3.600	18.911	1932.215	1492.355
4.615	18.690	1925.478	1485.109
5.629	14.833	1827.477	1377.663
6.644	7.842	1714.927	1238.456
7.659	4.267	1681.606	1186.958
8.673	3.984	1678.530	1182.524
9.688	4.081	1677.169	1182.202
10.702	4.138	1675.936	1181.665
11.717	4.036	1672.620	1178.447
12.731	4.521	1671.797	1181.446
13.746	9.598	1683.492	1228.400
14.761	17.662	1700.954	1302.920
15.775	22.228	1709.394	1344.261
16.790	22.720	1709.359	1347.878
17.804	21.931	1706.507	1339.486
18.819	21.119	1703.055	1330.473
19.834	20.434	1701.028	1323.550
20.848	20.414	1700.016	1322.493
21.863	20.374	1698.892	1321.201
22.877	20.236	1697.722	1319.125
23.892	20.112	1696.437	1317.064
24.907	20.013	1695.148	1315.194
25.921	20.011	1694.115	1314.263
26.936	19.898	1693.350	1312.695
27.950	19.969	1691.721	1311.853
28.965	19.963	1691.583	1311.588
29.980	20.092	1690.457	1311.577
30.994	20.106	1690.132	1311.312
32.009	20.260	1689.462	1311.844
33.023	20.393	1688.145	1311.708
34.038	20.439	1687.274	1311.258
35.053	20.327	1686.569	1309.750
36.067	20.231	1684.762	1307.507
37.082	20.165	1683.569	1305.969
38.096	20.142	1682.712	1305.016
39.111	20.153	1682.639	1304.928
40.126	20.204	1681.717	1304.482
41.140	20.224	1680.525	1303.594
42.155	20.075	1678.392	1300.699
43.169	19.688	1677.361	1296.886
44.184	19.612	1675.295	1294.602
45.199	19.524	1674.531	1293.242
46.213	19.564	1673.502	1292.627
47.228	19.630	1673.272	1292.832
48.242	19.888	1671.944	1293.622
49.257	20.060	1670.841	1293.937
50.271	19.993	1669.656	1292.405
51.286	20.002	1668.798	1291.694
52.301	20.057	1666.902	1290.519
53.315	19.973	1666.286	1289.306
54.330	20.004	1663.755	1287.464
55.344	19.736	1662.854	1284.662
56.359	19.664	1660.967	1282.556
57.374	19.751	1659.606	1282.032
58.388	19.671	1658.765	1280.676
59.403	19.619	1657.655	1279.323
60.417	19.530	1655.919	1277.216
61.432	19.472	1654.835	1275.834
62.447	19.504	1653.748	1275.120
63.461	19.464	1652.101	1273.445
64.476	19.241	1651.528	1271.240
65.490	19.274	1650.352	1270.468
66.505	19.274	1649.155	1269.435
67.520	19.303	1648.228	1268.824
68.534	19.305	1647.204	1267.937
69.549	19.359	1645.959	1267.261
70.563	19.323	1644.961	1266.118
71.578	19.318	1643.179	1264.593
72.593	19.195	1642.468	1263.037
73.607	19.120	1641.061	1261.291
74.622	18.968	1640.670	1259.765
75.636	19.016	1640.078	1259.556
76.651	19.119	1638.885	1259.277
77.666	19.164	1638.227	1258.989
78.680	19.255	1637.579	1259.047
79.695	19.163	1636.795	1257.659
80.709	19.314	1635.849	1257.924
81.724	19.481	1634.872	1258.280
82.739	19.595	1634.269	1258.533
83.753	19.707	1633.701	1258.799
84.768	19.853	1632.817	1259.073
85.782	20.093	1632.061	1260.126
86.797	20.207	1632.062	1260.838
87.812	20.269	1630.874	1260.261
88.826	20.218	1629.528	1258.738
89.841	20.101	1628.714	1257.154
90.855	19.992	1627.843	1255.574
91.870	20.164	1626.622	1255.767
92.884	20.301	1626.135	1256.278
93.899	20.260	1625.066	1255.042
94.914	20.321	1623.929	1254.495
95.928	20.368	1622.703	1253.777
96.943	20.390	1621.571	1252.950
97.957	20.278	1620.134	1250.920
98.972	20.135	1619.105	1248.983
99.987	20.247	1617.122	1248.147
101.001	20.113	1616.075	1246.268
102.016	20.176	1614.457	1245.358
103.030	20.161	1613.463	1244.380
104.045	20.189	1611.877	1243.245
105.060	20.223	1610.224	1242.101
106.074	20.181	1608.747	1240.551
107.089	19.915	1606.953	1237.159
108.103	19.574	1604.578	1232.790
109.118	19.276	1603.381	1229.633
110.133	19.306	1601.597	1228.367
111.147	19.293	1599.920	1226.881
112.162	19.377	1598.939	1226.619
113.176	19.362	1597.307	1225.150
114.191	19.416	1596.367	1224.703
115.206	19.557	1595.413	1224.865
116.220	19.561	1593.917	1223.638
117.235	19.513	1592.636	1222.202
118.249	19.490	1591.630	1221.161
119.264	19.462	1590.159	1219.728
120.279	19.387	1588.912	1218.137
121.293	19.268	1587.221	1215.888
122.308	19.292	1585.113	1214.336
123.322	19.246	1583.231	1212.463
124.337	19.152	1581.917	1210.687
125.352	19.005	1581.343	1209.112
126.366	18.922	1580.535	1207.799
127.381	19.009	1578.819	1206.994
128.395	18.970	1577.366	1205.505
129.410	18.963	1576.158	1204.424
130.424	19.068	1574.230	1203.579
131.439	19.040	1573.350	1202.607
132.454	19.087	1572.869	1202.460
133.468	19.355	1571.676	1203.313
134.483	19.321	1570.068	1201.734
135.497	19.377	1568.564	1200.869
136.512	19.445	1567.861	1200.694
137.527	19.488	1566.335	1199.725
138.541	19.479	1565.241	1198.712
139.556	19.509	1564.145	1197.977
140.570	19.664	1562.898	1197.988
141.585	19.769	1561.224	1197.332
142.600	19.811	1560.429	1196.908
143.614	19.881	1559.580	1196.630
144.629	20.100	1558.160	1196.948
145.643	20.162	1557.621	1196.854
146.658	20.124	1556.129	1195.344
147.673	20.160	1554.161	1193.972
148.687	19.939	1552.582	1191.131
149.702	19.847	1550.974	1189.164
150.716	19.667	1549.111	1186.392
151.731	19.573	1547.907	1184.719
152.746	19.489	1546.730	1183.138
153.760	19.521	1544.916	1181.865
154.775	19.546	1544.085	1181.296
155.789	19.614	1543.109	1180.912
156.804	19.757	1542.096	1181.011
157.819	19.938	1541.133	1181.400
158.833	19.927	1540.308	1180.593
159.848	20.047	1539.018	1180.312
160.862	20.162	1538.035	1180.239
161.877	20.248	1536.974	1179.907
162.892	19.990	1535.840	1177.179
163.906	19.650	1534.090	1173.425
164.921	19.517	1532.266	1171.023
165.935	19.529	1531.213	1170.194
166.950	19.512	1530.721	1169.598
167.964	19.613	1529.697	1169.397
168.979	19.802	1528.378	1169.563
169.994	19.690	1527.483	1168.015
171.008	19.661	1526.080	1166.645
172.023	19.665	1525.062	1165.789
173.037	19.769	1523.945	1165.535
174.052	19.990	1523.315	1166.441
175.067	20.127	1521.925	1166.194
176.081	19.910	1520.877	1163.826
177.096	19.554	1519.398	1160.200
178.110	19.546	1517.737	1158.777
179.125	19.483	1517.327	1157.938
180.140	19.492	1516.219	1157.049
181.154	19.626	1515.666	1157.426
182.169	19.879	1514.712	1158.287
183.183	20.002	1513.412	1158.012
184.198	20.085	1512.586	1157.832
185.213	20.109	1512.170	1157.575
186.227	20.181	1510.431	1156.623
187.242	20.143	1509.971	1155.911
188.256	20.217	1509.009	1155.567
189.271	20.280	1508.002	1155.116
190.286	20.326	1507.299	1154.775
191.300	20.364	1505.710	1153.709
192.315	19.989	1503.789	1149.644
193.329	19.419	1503.005	1145.164
194.344	19.649	1501.273	1145.267
195.359	19.643	1500.757	1144.736
196.373	19.727	1499.310	1144.081
197.388	19.748	1499.005	1143.892
198.402	19.848	1497.969	1143.655
199.417	20.081	1497.093	1144.426
200.432	20.292	1496.701	1145.420
201.446	20.441	1495.794	1145.606
202.461	20.595	1495.557	1146.340
203.475	20.665	1494.218	1145.675
204.490	20.728	1493.645	1145.543
205.504	20.561	1491.852	1142.971
206.519	20.259	1490.285	1139.687
207.534	20.115	1488.986	1137.648
208.548	20.089	1487.766	1136.441
209.563	20.064	1486.713	1135.374
210.577	20.168	1485.831	1135.279
211.592	20.120	1485.259	1134.431
212.607	20.150	1484.530	1133.971
213.621	20.243	1484.577	1134.513
214.636	20.418	1483.711	1134.896
215.650	20.427	1482.232	1133.725
216.665	20.346	1481.156	1132.270
217.680	20.421	1480.794	1132.384
218.694	20.535	1480.273	1132.626
219.709	20.754	1479.323	1133.223
220.723	20.664	1478.082	1131.586
221.738	20.656	1477.168	1130.738
222.753	20.561	1476.440	1129.463
223.767	20.554	1475.670	1128.726
224.782	20.471	1474.200	1126.963
225.796	20.472	1473.828	1126.585
226.811	20.734	1473.112	1127.638
227.826	20.804	1472.217	1127.308
228.840	20.707	1470.952	1125.611
229.855	20.474	1469.656	1123.016
230.869	20.432	1468.725	1121.932
231.884	20.404	1467.931	1121.047
232.899	20.399	1466.292	1119.663
233.913	20.342	1464.947	1118.172
234.928	20.154	1463.982	1116.125
235.942	20.154	1462.329	1114.762
236.957	20.072	1461.325	1113.373
237.972	20.074	1460.233	1112.459
238.986	20.049	1458.902	1111.185
240.001	20.075	1458.316	1110.804
241.015	20.013	1457.325	1109.554
242.030	20.111	1456.028	1109.099
243.045	20.213	1455.145	1108.976
244.059	20.300	1454.776	1109.156
245.074	20.435	1454.395	1109.631
246.088	20.498	1453.276	1109.079
247.103	20.564	1452.765	1109.009
248.117	20.572	1452.184	1108.518
249.132	20.786	1451.237	1109.065
250.147	20.896	1451.186	1109.627
251.161	21.020	1450.879	1110.086
252.176	21.386	1450.382	1111.934
253.190	21.502	1449.911	1112.209
254.205	21.518	1448.570	1111.186
255.220	21.598	1447.835	1111.030
256.234	21.530	1447.445	1110.200
257.249	21.647	1446.373	1110.023
258.263	21.534	1445.743	1108.728
259.278	21.570	1444.561	1107.949
260.293	21.417	1443.957	1106.418
261.307	21.487	1442.866	1105.927
262.322	21.570	1442.338	1105.952
263.336	21.643	1441.502	1105.673
264.351	21.728	1440.390	1105.255
265.366	21.657	1439.318	1103.890
266.380	21.706	1438.420	1103.412
267.395	21.783	1437.158	1102.829
268.409	21.644	1436.701	1101.510
269.424	21.453	1435.587	1099.354
270.439	21.385	1434.374	1097.905
271.453	21.373	1433.248	1096.866
272.468	21.541	1431.927	1096.812
273.482	21.237	1431.831	1094.739
274.497	21.188	1430.450	1093.279
275.512	21.150	1429.837	1092.472
276.526	21.238	1428.489	1091.896
277.541	21.167	1427.537	1090.628
278.555	21.124	1426.994	1089.852
279.570	21.219	1425.917	1089.525
280.585	21.419	1424.933	1089.923
281.599	21.665	1424.975	1091.394
282.614	21.790	1423.893	1091.244
283.628	21.624	1422.524	1089.067
284.643	21.414	1421.081	1086.563
285.657	21.362	1419.832	1085.189
286.672	21.263	1419.222	1084.010
287.687	21.357	1418.037	1083.590
288.701	21.403	1417.177	1083.121
289.716	21.359	1416.742	1082.422
290.730	21.346	1415.981	1081.668
291.745	21.376	1414.564	1080.673
292.760	21.411	1413.648	1080.096
293.774	21.416	1413.049	1079.572
294.789	21.457	1412.139	1079.034
295.803	21.596	1411.573	1079.360
296.818	21.741	1410.278	1079.169
297.833	21.536	1409.538	1077.249
298.847	21.364	1408.433	1075.247
299.862	21.351	1407.348	1074.244
300.876	21.412	1406.675	1074.013
301.891	21.396	1405.724	1073.091
302.906	21.604	1404.535	1073.367
303.920	21.641	1404.177	1073.225
304.935	21.805	1403.834	1073.871
305.949	21.870	1403.364	1073.816
306.964	22.072	1402.778	1074.505
307.979	22.108	1402.232	1074.214
308.993	21.853	1400.897	1071.535
310.008	21.843	1399.774	1070.521
311.022	21.836	1398.791	1069.635
312.037	21.914	1397.384	1068.937
313.052	21.963	1396.701	1068.620
314.066	21.772	1395.816	1066.682
315.081	21.653	1394.232	1064.660
316.095	21.506	1392.828	1062.600
317.110	21.353	1391.700	1060.715
318.125	21.311	1390.961	1059.805
319.139	21.323	1389.625	1058.763
320.154	21.387	1389.244	1058.770
321.168	21.325	1387.926	1057.296
322.183	21.356	1386.929	1056.631
323.197	21.371	1386.386	1056.210
324.212	21.486	1385.033	1055.781
325.227	21.561	1384.528	1055.758
326.241	21.462	1383.852	1054.550
327.256	21.593	1383.144	1054.706
328.270	21.629	1382.113	1054.045
329.285	21.443	1381.368	1052.264
330.300	21.463	1380.159	1051.368
331.314	21.407	1379.537	1050.465
332.329	21.560	1378.212	1050.280
333.343	21.561	1377.083	1049.336
334.358	21.529	1376.415	1048.545
335.373	21.649	1376.111	1048.938
336.387	21.828	1375.218	1049.233
337.402	21.955	1374.729	1049.525
338.416	21.893	1374.169	1048.636
339.431	21.979	1373.987	1048.919
340.446	22.056	1373.405	1048.844
341.460	22.235	1372.059	1048.789
342.475	22.382	1370.956	1048.731
343.489	22.321	1370.648	1048.036
344.504	22.476	1369.865	1048.266
345.519	22.401	1369.128	1047.167
346.533	22.518	1368.118	1046.999
347.548	22.587	1367.379	1046.749
348.562	22.652	1366.456	1046.334
349.577	22.622	1365.794	1045.555
350.592	22.488	1364.456	1043.646
351.606	22.168	1363.442	1040.884
352.621	22.042	1361.680	1038.702
353.635	21.975	1360.683	1037.453
354.650	21.860	1359.940	1036.116
355.665	21.807	1358.782	1034.826
356.679	21.889	1357.756	1034.440
357.694	21.944	1357.060	1034.139
358.708	22.106	1356.065	1034.247
359.723	22.122	1355.453	1033.783
360.738	22.241	1354.245	1033.468
361.752	22.224	1353.277	1032.536
362.767	22.272	1351.922	1031.691
363.781	22.227	1350.869	1030.533
364.796	22.280	1350.060	1030.135
365.810	22.288	1349.773	1029.872
366.825	22.535	1349.308	1030.876
367.840	22.819	1348.473	1031.805
368.854	22.745	1348.417	1031.238
369.869	22.968	1347.845	1032.011
370.883	22.934	1346.854	1030.961
371.898	22.880	1346.119	1029.992
372.913	22.710	1345.215	1028.218
373.927	22.575	1344.292	1026.637
374.942	22.591	1343.089	1025.719
375.956	22.673	1342.836	1025.915
376.971	22.827	1342.243	1026.268
377.986	22.724	1341.031	1024.650
379.000	22.755	1340.204	1024.107
380.015	22.876	1339.731	1024.360
381.029	22.872	1339.404	1023.991
382.044	23.049	1338.676	1024.370
383.059	23.077	1338.014	1023.934
384.073	22.982	1337.151	1022.633
385.088	22.990	1336.813	1022.333
386.102	22.915	1335.993	1021.181
387.117	23.007	1334.904	1020.790
388.132	22.882	1333.788	1019.127
389.146	22.634	1332.635	1016.725
390.161	22.610	1331.799	1015.858
391.175	22.504	1331.173	1014.683
392.190	22.472	1330.446	1013.850
393.205	22.570	1329.579	1013.664
394.219	22.694	1329.163	1013.972
395.234	22.910	1327.902	1014.162
396.248	22.767	1326.367	1012.079
397.263	22.623	1324.959	1010.092
398.278	22.629	1323.061	1008.585
399.292	22.515	1322.473	1007.400
400.307	22.356	1321.221	1005.448
401.321	22.374	1320.033	1004.557
402.336	22.268	1319.069	1003.132
403.350	22.347	1317.458	1002.265
404.365	22.340	1316.727	1001.579
405.380	22.341	1315.968	1000.921
406.394	22.517	1315.411	1001.411
407.409	22.590	1314.701	1001.196
408.423	22.835	1314.003	1001.963
409.438	22.811	1314.025	1001.757
410.453	23.023	1313.124	1002.181
411.467	23.046	1312.726	1001.923
412.482	23.224	1311.909	1002.218
413.496	23.187	1311.497	1001.603
414.511	23.235	1310.374	1000.927
415.526	23.389	1310.058	1001.468
416.540	23.517	1309.508	1001.683
417.555	23.466	1308.877	1000.826
418.569	23.613	1308.210	1001.055
419.584	23.457	1307.407	999.474
420.599	23.313	1306.850	998.146
421.613	147.816	1435.537	1798.604
422.628	143.288	1454.247	1798.683
