DTS Sentinel unit serial number:	SN413079Multiplexer serial number:	ORYXHardware model number:	OX4-SRSoftware version number:	ORYX F/W v4.00 Oryx Data Collector v3.7.2.0data status	okinstallation	princeton_trtdifferential loss correction	single-endedforward channel	channel 4reverse channel	N/Adate	2019/09/18time	20:37:35forward acquisition time	60.00reverse acquisition time	0.00gamma	496.2192k internal	0.2325k external	0.2325temperature offset calibration	1.0039default loss term (dB/km)	0.3790temperature slope calibration	1.0000multiplexer offset coefficient	1.0000multiplexer slope coefficient	1.0000fibre end	0.00T internal ref (°C)	27.81T ext. ref 1 (°C)	1.02T ext. ref 2 (°C)	18.81length (m)	temperature (°C)	Stokes	anti-Stokes-747.200	93.061	0.320	0.366
-746.185	89.644	-0.252	0.283
-745.171	-131.204	0.057	0.008
-744.156	-124.350	0.036	-0.006
-743.142	46.357	0.243	0.227
-742.127	466.857	0.113	0.256
-741.112	-159.591	-0.229	-0.013
-740.098	-0.922	0.237	-0.169
-739.083	668.262	-0.077	-0.202
-738.069	-113.021	-0.183	0.036
-737.054	800.000	0.044	-0.133
-736.039	-7.418	-0.340	0.232
-735.025	800.000	0.081	0.256
-734.010	163.370	-0.083	0.118
-732.996	-165.227	-0.350	0.016
-731.981	-31.361	-0.096	-0.055
-730.966	85.366	-0.279	-0.308
-729.952	800.000	0.030	0.085
-728.937	-52.159	-0.168	-0.079
-727.923	-36.348	0.260	-0.141
-726.908	368.457	0.099	-0.203
-725.894	800.000	-0.100	-0.314
-724.879	-200.000	-0.050	0.221
-723.864	-18.349	0.243	-0.153
-722.850	297.480	0.173	0.321
-721.835	237.223	-0.104	0.173
-720.821	800.000	-0.093	-0.329
-719.806	-78.935	0.401	-0.138
-718.791	72.306	0.206	-0.216
-717.777	800.000	-0.077	-0.282
-716.762	-200.000	0.033	0.453
-715.748	-200.000	0.001	-0.190
-714.733	18.767	-0.301	-0.242
-713.718	-118.378	-0.086	0.015
-712.704	-73.770	0.228	0.084
-711.689	800.000	-0.063	-0.206
-710.675	-200.000	-0.011	0.256
-709.660	-79.112	0.270	-0.092
-708.645	-89.558	0.192	0.057
-707.631	-200.000	0.019	0.083
-706.616	-200.000	-0.028	-0.151
-705.602	800.000	-0.183	-0.534
-704.587	9.488	-0.142	0.108
-703.572	-146.596	-0.220	-0.019
-702.558	-200.000	-0.012	-0.219
-701.543	766.649	0.081	0.222
-700.529	-27.534	0.382	0.224
-699.514	-85.415	-0.256	0.080
-698.499	15.932	0.088	-0.070
-697.485	-94.735	-0.083	0.023
-696.470	-200.000	-0.083	-0.378
-695.456	800.000	-0.023	0.068
-694.441	-38.499	0.073	0.039
-693.426	-186.140	-0.044	-0.001
-692.412	-200.000	0.014	-0.122
-691.397	-200.000	0.035	-0.229
-690.383	-172.819	-0.089	0.003
-689.368	737.285	-0.102	0.276
-688.354	159.084	0.251	0.351
-687.339	231.760	-0.330	-0.545
-686.324	-179.346	0.335	-0.007
-685.310	-62.372	0.056	0.023
-684.295	-64.554	0.271	0.111
-683.281	92.893	0.093	-0.105
-682.266	-116.346	-0.166	0.031
-681.251	-118.612	-0.539	-0.096
-680.237	800.000	-0.096	-0.295
-679.222	-26.946	-0.238	-0.140
-678.208	-47.013	-0.326	-0.160
-677.193	800.000	-0.163	0.511
-676.178	-33.249	-0.168	0.094
-675.164	225.788	0.032	-0.052
-674.149	-150.029	0.190	-0.015
-673.135	-200.000	0.044	-0.316
-672.120	-200.000	0.013	-0.159
-671.105	-49.870	-0.056	0.027
-670.091	613.174	0.167	-0.420
-669.076	89.094	0.074	0.083
-668.062	89.834	-0.241	0.271
-667.047	171.788	0.228	0.330
-666.032	138.646	-0.169	0.223
-665.018	351.081	-0.135	-0.269
-664.003	-18.383	0.234	-0.147
-662.989	-104.168	-0.159	-0.037
-661.974	203.549	-0.141	-0.219
-660.959	-51.890	0.187	-0.088
-659.945	90.188	0.258	-0.290
-658.930	-200.000	0.047	-0.412
-657.916	-151.569	-0.281	0.021
-656.901	112.275	-0.070	0.085
-655.886	-89.702	-0.290	-0.085
-654.872	-200.000	-0.019	0.096
-653.857	800.000	-0.085	-0.276
-652.843	36.659	-0.261	0.232
-651.828	-200.000	-0.010	0.405
-650.814	103.066	0.067	-0.079
-649.799	-200.000	-0.024	0.173
-648.784	32.355	0.110	0.096
-647.770	-200.000	-0.014	-0.206
-646.755	7.292	0.131	-0.098
-645.741	320.115	0.178	0.340
-644.726	-109.643	0.183	-0.039
-643.711	-200.000	-0.045	0.225
-642.697	17.608	-0.111	-0.089
-641.682	-200.000	-0.016	-0.160
-640.668	-98.398	0.083	0.021
-639.653	176.494	0.099	-0.144
-638.638	-184.001	0.129	0.002
-637.624	416.184	-0.028	-0.059
-636.609	163.402	-0.137	-0.194
-635.595	-110.847	-0.088	-0.018
-634.580	-132.020	0.246	0.032
-633.565	15.948	-0.166	-0.132
-632.551	179.612	0.029	0.043
-631.536	8.158	-0.218	-0.164
-630.522	-46.418	-0.165	0.081
-629.507	-179.854	-0.104	-0.002
-628.492	357.145	-0.063	-0.126
-627.478	173.099	0.183	-0.265
-626.463	-95.469	0.368	0.099
-625.449	-162.967	0.083	-0.004
-624.434	800.000	0.024	0.074
-623.419	-124.183	-0.392	0.062
-622.405	66.794	-0.023	0.024
-621.390	-6.007	0.197	0.135
-620.376	1.621	0.078	0.057
-619.361	7.022	-0.161	0.121
-618.346	724.453	0.076	0.203
-617.332	19.425	0.232	-0.188
-616.317	261.936	0.149	0.259
-615.303	154.517	0.112	-0.154
-614.288	293.351	-0.063	-0.116
-613.273	-200.000	-0.011	-0.168
-612.259	271.131	0.145	-0.256
-611.244	128.582	-0.213	-0.272
-610.230	179.871	-0.090	-0.132
-609.215	71.385	-0.173	0.180
-608.201	800.000	-0.105	-0.300
-607.186	-97.323	0.292	0.076
-606.171	744.525	-0.054	0.147
-605.157	800.000	-0.085	0.263
-604.142	171.201	0.122	-0.175
-603.128	-200.000	0.003	-0.092
-602.113	-17.522	0.188	-0.119
-601.098	-97.389	-0.196	0.051
-600.084	15.957	-0.025	-0.020
-599.069	136.940	-0.054	0.071
-598.055	-113.213	0.141	-0.028
-597.040	8.667	-0.069	0.052
-596.025	119.701	-0.207	-0.257
-595.011	-75.814	0.113	-0.040
-593.996	-11.058	-0.232	-0.153
-592.982	800.000	0.115	0.332
-591.967	-39.285	-0.081	0.043
-590.952	-63.929	-0.185	0.076
-589.938	535.253	0.050	0.119
-588.923	62.496	0.202	-0.202
-587.909	-75.494	-0.250	-0.089
-586.894	-200.000	0.047	0.249
-585.879	-77.840	0.200	-0.069
-584.865	-166.575	0.103	0.004
-583.850	402.719	0.012	0.026
-582.836	800.000	-0.018	-0.070
-581.821	-46.860	-0.033	-0.016
-580.806	-58.589	0.136	-0.059
-579.792	-164.224	-0.288	0.013
-578.777	713.901	-0.075	0.199
-577.763	745.164	0.105	-0.283
-576.748	-119.185	-0.169	-0.030
-575.733	-39.741	-0.040	0.021
-574.719	431.421	0.157	-0.340
-573.704	-147.772	0.336	0.028
-572.690	13.938	-0.228	0.178
-571.675	565.627	-0.089	-0.217
-570.661	-142.632	0.250	-0.025
-569.646	232.023	0.099	-0.163
-568.631	-200.000	-0.015	-0.243
-567.617	273.246	-0.064	0.114
-566.602	-102.322	-0.238	-0.057
-565.588	45.103	-0.133	-0.123
-564.573	-128.358	-0.340	0.049
-563.558	188.169	0.074	-0.110
-562.544	235.154	0.079	-0.131
-561.529	581.193	0.015	0.038
-560.515	58.867	-0.131	0.129
-559.500	406.851	0.176	0.372
-558.485	800.000	-0.036	-0.123
-557.471	190.078	0.120	0.180
-556.456	18.740	0.240	0.193
-555.442	-200.000	-0.040	-0.293
-554.427	31.964	0.085	-0.073
-553.412	-116.602	0.074	0.014
-552.398	244.779	-0.152	0.256
-551.383	800.000	-0.103	0.396
-550.369	-127.290	-0.224	0.033
-549.354	-82.920	0.179	0.058
-548.339	-57.896	-0.211	-0.093
-547.325	548.494	-0.085	-0.204
-546.310	-108.452	0.515	0.111
-545.296	-125.176	-0.239	-0.037
-544.281	-116.139	-0.378	0.070
-543.266	39.181	-0.130	-0.117
-542.252	126.127	-0.044	0.056
-541.237	619.045	-0.041	-0.103
-540.223	-101.302	-0.122	-0.030
-539.208	-112.483	-0.414	0.083
-538.193	-27.690	0.024	-0.014
-537.179	-85.549	0.333	0.104
-536.164	-200.000	0.003	-0.046
-535.150	62.198	-0.161	-0.161
-534.135	-37.694	-0.142	-0.076
-533.121	800.000	0.075	0.253
-532.106	671.661	0.167	0.433
-531.091	-30.573	0.165	-0.094
-530.077	-107.957	0.270	0.059
-529.062	-153.549	0.280	0.019
-528.048	-48.096	0.162	-0.078
-527.033	-49.338	0.265	0.127
-526.018	12.963	0.174	0.135
-525.004	563.709	-0.110	0.268
-523.989	-200.000	-0.002	-0.053
-522.975	33.381	-0.311	-0.270
-521.960	65.419	0.187	0.189
-520.945	-200.000	-0.000	0.075
-519.931	800.000	0.049	0.157
-518.916	44.802	-0.135	-0.124
-517.902	612.250	-0.130	0.324
-516.887	-9.328	-0.207	0.138
-515.872	-184.407	0.335	0.005
-514.858	-200.000	0.021	-0.133
-513.843	-15.924	0.201	0.128
-512.829	19.594	0.163	-0.131
-511.814	800.000	-0.055	-0.157
-510.799	-82.572	0.156	0.051
-509.785	800.000	0.109	0.320
-508.770	-151.475	-0.221	-0.016
-507.756	-136.348	-0.047	0.005
-506.741	-181.835	0.121	0.002
-505.726	800.000	0.111	-0.411
-504.712	74.370	-0.066	-0.069
-503.697	-37.070	-0.289	0.155
-502.683	-80.492	-0.271	0.090
-501.668	103.136	0.017	0.020
-500.653	800.000	-0.053	-0.232
-499.639	-200.000	-0.008	-0.159
-498.624	21.254	-0.158	-0.128
-497.610	-143.993	0.171	-0.016
-496.595	37.643	-0.205	0.182
-495.581	366.557	0.055	-0.112
-494.566	554.337	0.049	0.118
-493.551	-119.529	-0.305	-0.053
-492.537	-80.500	-0.197	-0.066
-491.522	-113.031	-0.250	0.049
-490.508	-143.303	-0.146	-0.014
-489.493	-3.200	-0.081	0.057
-488.478	800.000	-0.041	0.133
-487.464	800.000	0.114	-0.417
-486.449	-13.939	0.247	0.159
-485.435	-200.000	-0.016	0.169
-484.420	-68.800	-0.344	0.133
-483.405	-85.685	-0.051	0.016
-482.391	394.441	-0.149	-0.310
-481.376	-110.851	-0.323	0.066
-480.362	486.007	0.083	0.188
-479.347	-66.390	0.261	0.104
-478.332	-200.000	0.029	0.184
-477.318	401.004	-0.093	-0.194
-476.303	46.883	-0.115	-0.107
-475.289	-47.969	-0.435	-0.210
-474.274	-200.000	-0.001	0.088
-473.259	85.631	-0.298	0.326
-472.245	371.882	-0.130	0.264
-471.230	11.923	-0.167	0.128
-470.216	-146.639	0.244	-0.021
-469.201	-106.169	-0.129	-0.029
-468.186	-200.000	0.007	-0.127
-467.172	17.946	-0.261	-0.208
-466.157	1.220	-0.100	-0.072
-465.143	-1.663	-0.176	-0.123
-464.128	-88.985	-0.117	0.035
-463.113	84.951	-0.154	0.169
-462.099	13.972	0.123	0.096
-461.084	-32.362	0.069	0.039
-460.070	125.174	-0.061	-0.077
-459.055	460.535	0.123	0.273
-458.040	-39.738	-0.344	0.179
-457.026	-31.986	-0.146	-0.082
-456.011	594.005	-0.132	-0.327
-454.997	-200.000	0.043	0.240
-453.982	-108.634	-0.162	-0.035
-452.968	-200.000	-0.001	0.249
-451.953	574.983	-0.041	-0.099
-450.938	-141.593	-0.223	-0.022
-449.924	-12.232	0.273	-0.178
-448.909	800.000	0.092	-0.371
-447.895	-200.000	-0.005	-0.056
-446.880	200.689	0.091	0.139
-445.865	87.906	-0.061	0.068
-444.851	-200.000	0.025	0.237
-443.836	-98.739	-0.162	0.041
-442.822	800.000	0.066	0.233
-441.807	-93.103	0.252	0.070
-440.792	324.467	-0.089	-0.170
-439.778	521.268	-0.080	-0.188
-438.763	800.000	0.034	0.135
-437.749	318.450	0.065	0.123
-436.734	14.708	0.106	0.083
-435.719	261.263	-0.091	0.158
-434.705	-173.561	0.138	0.004
-433.690	-200.000	-0.007	0.043
-432.676	369.343	0.015	-0.031
-431.661	800.000	-0.059	-0.164
-430.646	58.572	0.189	-0.185
-429.632	-200.000	0.013	0.256
-428.617	58.708	-0.123	0.120
-427.603	41.078	-0.139	-0.125
-426.588	-116.114	0.249	-0.046
-425.573	44.697	0.249	0.228
-424.559	277.430	-0.048	0.084
-423.544	-54.073	0.199	-0.090
-422.530	-43.986	0.293	0.147
-421.515	632.995	0.063	0.159
-420.500	115.331	0.186	-0.226
-419.486	-200.000	-0.028	-0.259
-418.471	54.319	-0.136	0.130
-417.457	-6.812	-0.213	-0.145
-416.442	-63.710	-0.194	-0.079
-415.428	108.541	-0.205	0.244
-414.413	104.502	0.077	-0.090
-413.398	303.316	-0.038	0.070
-412.384	251.559	-0.084	0.143
-411.369	-200.000	0.024	-0.254
-410.355	34.269	-0.200	0.174
-409.340	7.530	-0.191	0.142
-408.325	-200.000	0.033	0.338
-407.311	330.701	-0.094	0.180
-406.296	-138.997	0.269	0.029
-405.282	-30.146	0.329	-0.186
-404.267	114.508	0.079	0.096
-403.252	800.000	0.048	0.155
-402.238	-138.273	0.020	-0.002
-401.223	-59.799	-0.242	-0.103
-400.209	93.243	0.073	-0.082
-399.194	-165.748	-0.306	0.013
-398.179	-200.000	0.012	0.052
-397.165	-95.569	-0.112	0.030
-396.150	-10.400	0.106	0.070
-395.136	-89.782	0.069	-0.020
-394.121	-90.527	0.113	0.032
-393.106	134.215	0.149	0.193
-392.092	57.201	-0.164	-0.159
-391.077	-54.743	0.078	-0.035
-390.063	-92.877	0.372	0.103
-389.048	-200.000	0.029	-0.269
-388.033	800.000	0.069	0.262
-387.019	627.653	0.100	-0.251
-386.004	-151.813	-0.097	0.007
-384.990	176.458	0.139	-0.201
-383.975	396.810	0.098	0.203
-382.960	77.773	-0.135	0.143
-381.946	-26.055	0.373	-0.218
-380.931	-46.320	0.081	-0.040
-379.917	-54.072	0.129	-0.058
-378.902	-74.930	0.300	-0.107
-377.888	-47.853	0.093	0.045
-376.873	26.296	-0.230	-0.191
-375.858	-110.851	-0.120	-0.025
-374.844	233.307	0.081	0.132
-373.829	-15.774	-0.167	0.106
-372.815	-70.813	0.194	-0.073
-371.800	-64.950	0.109	0.044
-370.785	739.902	-0.140	0.373
-369.771	-23.867	0.244	0.145
-368.756	-122.346	-0.292	0.047
-367.742	159.211	0.130	0.179
-366.727	-71.729	-0.260	0.096
-365.712	-137.248	0.353	-0.040
-364.698	238.813	0.080	-0.132
-363.683	-200.000	0.007	-0.251
-362.669	66.780	-0.105	-0.107
-361.654	643.857	0.068	-0.172
-360.639	591.438	0.066	-0.161
-359.625	-27.448	-0.422	-0.244
-358.610	-109.669	0.369	0.077
-357.596	51.147	-0.214	0.202
-356.581	78.740	0.091	-0.097
-355.566	47.375	-0.034	-0.032
-354.552	537.457	-0.048	-0.113
-353.537	-153.256	0.057	0.004
-352.523	-107.493	-0.087	-0.019
-351.508	7.945	-0.247	-0.184
-350.493	279.016	-0.090	-0.159
-349.479	71.293	-0.106	-0.109
-348.464	800.000	-0.123	0.373
-347.450	-200.000	0.049	0.355
-346.435	9.748	0.167	0.126
-345.420	27.961	-0.096	0.081
-344.406	120.431	-0.161	0.198
-343.391	67.411	0.092	-0.094
-342.377	213.474	0.105	-0.164
-341.362	146.433	0.142	0.190
-340.348	49.876	-0.233	0.218
-339.333	-80.185	-0.347	0.115
-338.318	121.657	0.015	0.019
-337.304	-17.493	0.211	-0.132
-336.289	800.000	0.103	-0.392
-335.275	206.974	-0.065	0.100
-334.260	800.000	-0.110	0.350
-333.245	555.632	-0.039	0.094
-332.231	800.000	0.066	0.256
-331.216	120.540	-0.174	0.215
-330.202	-53.048	0.169	-0.077
-329.187	-200.000	0.043	-0.240
-328.172	-62.289	0.085	0.035
-327.158	-200.000	-0.045	-0.222
-326.143	-13.006	0.136	0.088
-325.129	-13.519	-0.236	0.152
-324.114	66.557	0.255	0.257
-323.099	35.294	0.057	-0.049
-322.085	-34.522	0.214	0.116
-321.070	-200.000	-0.019	0.127
-320.056	800.000	0.047	0.155
-319.041	-81.310	0.197	-0.065
-318.026	782.230	0.109	0.295
-317.012	-200.000	-0.029	-0.225
-315.997	-105.979	0.111	-0.025
-314.983	800.000	-0.104	-0.374
-313.968	14.987	0.148	0.115
-312.953	105.262	0.189	-0.221
-311.939	-200.000	0.048	-0.218
-310.924	-90.061	0.171	0.050
-309.910	23.826	-0.222	0.182
-308.895	-154.560	0.175	-0.012
-307.880	348.256	-0.109	0.213
-306.866	555.387	0.045	0.108
-305.851	154.141	-0.083	0.112
-304.837	-163.579	-0.205	0.010
-303.822	-147.044	0.373	0.032
-302.807	-64.588	0.346	-0.139
-301.793	784.018	-0.078	0.212
-300.778	428.153	0.070	0.150
-299.764	287.906	-0.086	0.153
-298.749	62.989	-0.192	0.190
-297.735	386.836	-0.047	-0.096
-296.720	-25.091	-0.209	0.123
-295.705	287.004	0.023	-0.041
-294.691	-47.320	-0.192	-0.093
-293.676	215.482	-0.157	-0.246
-292.662	-200.000	-0.004	0.141
-291.647	1.454	-0.133	-0.095
-290.632	236.477	0.137	-0.224
-289.618	-109.558	0.361	0.076
-288.603	44.134	-0.247	0.224
-287.589	-4.620	0.048	0.033
-286.574	-200.000	0.056	0.258
-285.559	800.000	0.044	0.144
-284.545	-200.000	-0.037	-0.177
-283.530	-28.279	0.164	-0.094
-282.516	281.791	-0.110	-0.195
-281.501	280.350	0.041	-0.073
-280.486	77.823	0.158	-0.167
-279.472	-175.156	-0.229	-0.006
-278.457	281.095	-0.034	-0.061
-277.443	157.000	-0.029	0.040
-276.428	100.708	0.273	-0.314
-275.413	311.369	0.245	-0.454
-274.399	-200.000	0.004	-0.222
-273.384	-2.245	-0.113	0.078
-272.370	122.085	-0.201	-0.249
-271.355	-200.000	0.080	0.378
-270.340	-200.000	-0.064	0.688
-269.326	-8.285	-0.257	-0.171
-268.311	-200.000	-0.006	0.285
-267.297	-84.600	0.176	0.055
-266.282	22.470	-0.348	0.282
-265.267	24.963	-0.090	-0.074
-264.253	352.132	-0.197	-0.386
-263.238	-164.375	0.132	-0.006
-262.224	-123.156	0.393	0.062
-261.209	43.320	-0.123	0.112
-260.195	800.000	0.090	-0.254
-259.180	65.859	-0.226	0.227
-258.165	-42.157	0.096	0.049
-257.151	167.039	-0.043	0.061
-256.136	364.986	0.220	0.439
-255.122	175.693	-0.038	-0.054
-254.107	263.016	-0.082	-0.140
-253.092	26.384	-0.166	-0.137
-252.078	519.379	0.121	0.280
-251.063	297.939	-0.113	0.205
-250.049	-200.000	-0.052	-0.277
-249.034	174.359	0.065	-0.093
-248.019	576.906	-0.096	0.231
-247.005	-21.308	-0.368	0.223
-245.990	-200.000	-0.001	-0.258
-244.976	-200.000	-0.012	-0.244
-243.961	-10.276	-0.228	-0.150
-242.946	-200.000	-0.003	0.016
-241.932	-70.822	-0.188	0.070
-240.917	800.000	0.006	0.017
-239.903	26.640	0.152	-0.126
-238.888	800.000	0.093	0.308
-237.873	-66.984	-0.270	-0.106
-236.859	95.156	0.388	0.437
-235.844	-189.089	0.178	-0.002
-234.830	330.026	0.096	0.182
-233.815	800.000	-0.004	0.012
-232.800	509.551	0.096	0.220
-231.786	-200.000	-0.018	-0.198
-230.771	541.147	0.122	-0.288
-229.757	-200.000	0.046	-0.351
-228.742	-73.967	-0.190	0.068
-227.727	31.508	-0.215	-0.182
-226.713	-200.000	-0.002	-0.163
-225.698	800.000	-0.125	-0.388
-224.684	443.661	0.028	0.061
-223.669	-159.610	-0.152	-0.008
-222.655	139.521	0.083	-0.107
-221.640	-182.538	-0.018	-0.000
-220.625	-53.268	-0.182	-0.083
-219.611	10.927	0.357	0.269
-218.596	-78.168	0.439	0.149
-217.582	-146.742	-0.186	0.016
-216.567	-200.000	0.017	-0.274
-215.552	108.883	-0.011	-0.013
-214.538	-114.795	0.240	0.045
-213.523	-200.000	-0.045	0.257
-212.509	-112.729	0.195	-0.038
-211.494	194.680	0.168	0.253
-210.479	-119.421	0.283	0.049
-209.465	-38.665	0.023	-0.012
-208.450	-200.000	-0.035	-0.154
-207.436	243.451	0.083	0.137
-206.421	-99.683	-0.243	0.060
-205.406	142.566	0.110	-0.144
-204.392	-128.492	-0.148	0.021
-203.377	-200.000	0.028	0.186
-202.363	-125.170	-0.158	0.024
-201.348	669.713	-0.068	-0.173
-200.333	-200.000	-0.004	0.156
-199.319	289.532	0.029	-0.053
-198.304	140.797	-0.076	-0.099
-197.290	26.245	0.253	-0.209
-196.275	124.977	-0.174	0.216
-195.260	-200.000	-0.002	-0.235
-194.246	227.733	0.132	-0.212
-193.231	149.521	0.095	0.127
-192.217	174.206	-0.154	-0.219
-191.202	800.000	0.127	-0.517
-190.187	-200.000	0.035	-0.404
-189.173	276.265	0.042	0.074
-188.158	-150.366	-0.193	0.015
-187.144	407.295	-0.066	0.138
-186.129	254.781	0.099	-0.167
-185.114	163.429	-0.170	0.236
-184.100	-102.789	0.144	-0.034
-183.085	180.282	-0.316	-0.457
-182.071	181.363	0.162	-0.235
-181.056	-200.000	0.008	-0.180
-180.042	-6.399	-0.265	-0.179
-179.027	35.492	0.081	0.070
-178.012	152.777	-0.212	-0.286
-176.998	800.000	0.072	0.302
-175.983	800.000	0.033	0.106
-174.969	82.923	-0.348	-0.373
-173.954	392.646	0.097	-0.198
-172.939	-51.667	0.344	-0.158
-171.925	800.000	-0.040	-0.143
-170.910	-200.000	0.005	-0.056
-169.896	-200.000	-0.058	0.355
-168.881	800.000	0.076	-0.217
-167.866	-6.038	0.174	0.117
-166.852	-96.602	0.240	-0.063
-165.837	-176.500	0.289	0.007
-164.823	87.351	0.088	0.096
-163.808	116.640	0.155	-0.188
-162.793	-200.000	0.016	0.306
-161.779	2.854	0.148	-0.106
-160.764	800.000	0.058	0.167
-159.750	362.393	-0.133	0.262
-158.735	-200.000	-0.058	-0.276
-157.720	-21.129	-0.214	-0.129
-156.706	274.654	0.289	-0.504
-155.691	-126.642	0.376	-0.055
-154.677	-30.900	-0.224	0.125
-153.662	-19.395	-0.365	0.223
-152.647	-4.151	0.255	-0.174
-151.633	-66.388	0.098	-0.038
-150.618	-21.730	0.166	-0.099
-149.604	-200.000	-0.014	0.117
-148.589	185.779	-0.303	-0.444
-147.574	-200.000	-0.020	0.314
-146.560	-93.880	-0.095	-0.026
-145.545	-23.995	-0.263	-0.155
-144.531	-161.612	0.177	-0.009
-143.516	77.539	0.080	-0.084
-142.502	-200.000	0.012	-0.384
-141.487	116.533	0.274	0.331
-140.472	-200.000	-0.028	0.166
-139.458	-0.172	-0.072	-0.050
-138.443	41.533	0.133	0.119
-137.429	-83.531	0.256	-0.081
-136.414	9.672	-0.110	0.082
-135.399	526.899	0.117	-0.272
-134.385	47.210	-0.123	0.113
-133.370	-130.966	-0.055	0.007
-132.356	-101.049	0.263	0.064
-131.341	26.811	0.290	0.239
-130.326	47.918	0.210	0.193
-129.312	265.312	0.174	0.299
-128.297	441.518	0.077	0.166
-127.283	203.870	0.032	0.048
-126.268	-94.533	-0.169	0.045
-125.253	85.839	0.103	0.112
-124.239	52.324	0.258	-0.243
-123.224	15.009	-0.223	-0.172
-122.210	-200.000	0.005	-0.059
-121.195	148.519	0.271	0.360
-120.180	16.210	-0.146	0.114
-119.166	-136.804	0.535	0.061
-118.151	84.622	0.079	0.085
-117.137	-3.476	-0.164	-0.113
-116.122	598.048	-0.102	-0.250
-115.107	171.831	0.052	0.074
-114.093	28.765	0.201	0.167
-113.078	25.634	-0.137	-0.112
-112.064	-27.989	-0.134	0.077
-111.049	163.888	0.062	0.086
-110.034	-54.043	0.254	-0.114
-109.020	355.189	-0.167	-0.328
-108.005	-184.134	0.380	0.006
-106.991	410.510	-0.071	-0.147
-105.976	-87.318	0.157	0.047
-104.962	-200.000	0.060	0.320
-103.947	-200.000	-0.007	0.144
-102.932	-33.605	0.265	0.144
-101.918	-3.832	-0.106	0.072
-100.903	30.716	0.252	-0.213
-99.889	-57.100	0.521	0.226
-98.874	-2.822	0.114	0.078
-97.859	-158.872	-0.445	-0.025
-96.845	145.702	0.169	0.222
-95.830	-88.587	-0.241	-0.071
-94.816	-103.561	0.336	0.078
-93.801	-50.962	-0.290	-0.134
-92.786	181.199	-0.172	-0.249
-91.772	-200.000	-0.019	0.145
-90.757	80.411	-0.087	0.092
-89.743	-200.000	0.095	0.000
-88.728	-130.368	0.125	-0.017
-87.713	747.789	0.047	-0.126
-86.699	-200.000	-0.030	0.171
-85.684	134.710	0.098	-0.125
-84.670	223.768	-0.028	-0.044
-83.655	-44.151	0.168	0.083
-82.640	-86.226	-0.206	0.062
-81.626	-80.064	0.370	0.122
-80.611	-160.175	-0.255	-0.014
-79.597	-200.000	0.055	0.385
-78.582	-200.000	0.040	0.229
-77.567	-122.325	-0.359	0.058
-76.553	114.185	-0.143	-0.170
-75.538	-161.303	0.367	0.019
-74.524	-30.251	-0.077	-0.043
-73.509	256.825	0.156	0.263
-72.494	2.147	0.179	0.127
-71.480	36.406	-0.054	-0.046
-70.465	-72.957	-0.228	0.082
-69.451	134.441	0.294	0.375
-68.436	-200.000	0.417	0.002
-67.422	195.744	-0.067	0.099
-66.407	-200.000	0.006	-0.047
-65.392	800.000	0.032	0.094
-64.378	24.372	0.154	-0.125
-63.363	-58.724	0.068	-0.029
-62.349	-200.000	-0.016	-0.084
-61.334	33.883	-1.271	-1.087
-60.319	74.267	0.645	0.665
-59.305	-200.000	-0.114	-0.964
-58.290	181.918	0.852	1.233
-57.276	800.000	0.509	1.704
-56.261	-200.000	112.942	641.129
-55.246	476.465	1477.813	3280.289
-54.232	150.467	2646.428	3529.372
-53.217	92.279	2302.588	2548.184
-52.203	34.013	2056.493	1758.967
-51.188	29.714	1973.041	1649.266
-50.173	28.256	1956.445	1622.419
-49.159	44.390	2015.762	1817.374
-48.144	43.778	2031.423	1825.903
-47.130	30.071	1990.727	1666.991
-46.115	27.796	1980.654	1638.100
-45.100	27.767	1977.070	1634.811
-44.086	27.734	1974.839	1632.610
-43.071	27.713	1972.334	1630.288
-42.057	27.648	1970.560	1628.172
-41.042	27.666	1968.465	1626.539
-40.027	27.697	1966.914	1625.470
-39.013	27.676	1964.591	1623.299
-37.998	27.790	1962.444	1622.477
-36.984	27.715	1961.004	1620.553
-35.969	27.657	1959.678	1618.878
-34.954	27.770	1957.502	1618.018
-33.940	27.803	1955.862	1616.886
-32.925	27.780	1954.536	1615.531
-31.911	27.758	1953.236	1614.196
-30.896	27.855	1950.750	1612.933
-29.881	27.886	1949.489	1612.101
-28.867	27.918	1947.689	1610.830
-27.852	27.927	1946.049	1609.489
-26.838	27.898	1944.577	1607.955
-25.823	27.900	1943.169	1606.737
-24.809	27.897	1940.983	1604.841
-23.794	27.800	1939.544	1602.735
-22.779	27.845	1937.458	1601.342
-21.765	27.833	1935.768	1599.776
-20.750	27.822	1934.500	1598.572
-19.736	27.821	1932.617	1596.944
-18.721	27.856	1931.558	1596.310
-17.706	27.855	1929.726	1594.729
-16.692	27.848	1927.865	1593.061
-15.677	27.879	1926.160	1591.863
-14.663	27.827	1925.054	1590.432
-13.648	27.785	1923.426	1588.661
-12.633	27.797	1922.666	1588.068
-11.619	27.766	1921.769	1586.999
-10.604	27.871	1919.824	1586.237
-9.590	27.796	1918.523	1584.448
-8.575	27.798	1917.444	1583.516
-7.560	27.838	1915.743	1582.391
-6.546	27.812	1914.648	1581.202
-5.531	27.771	1913.132	1579.528
-4.517	27.821	1911.921	1578.899
-3.502	27.778	1911.401	1578.035
-2.487	27.700	1910.262	1576.361
-1.473	27.804	1908.535	1575.766
-0.458	27.653	1904.032	1570.691
0.556	26.237	1882.813	1537.468
1.571	20.834	1861.028	1473.956
2.586	15.983	1881.949	1448.778
3.600	14.632	1915.630	1462.745
4.615	14.236	1908.397	1453.637
5.629	11.254	1811.880	1355.238
6.644	5.006	1700.485	1222.923
7.659	1.302	1666.579	1169.923
8.673	1.053	1663.526	1165.761
9.688	1.026	1662.687	1164.866
10.702	1.086	1660.571	1163.738
11.717	0.916	1657.131	1159.920
12.731	1.328	1655.928	1162.132
13.746	6.122	1665.774	1205.785
14.761	13.253	1680.251	1271.170
15.775	17.217	1686.230	1306.108
16.790	17.515	1686.261	1308.307
17.804	16.680	1682.682	1299.008
18.819	15.733	1680.031	1289.592
19.834	15.108	1677.253	1282.557
20.848	14.864	1675.507	1279.242
21.863	14.543	1674.137	1275.630
22.877	14.328	1672.248	1272.436
23.892	14.156	1670.792	1269.898
24.907	14.000	1669.757	1267.810
25.921	13.971	1668.601	1266.603
26.936	13.887	1667.783	1265.228
27.950	14.020	1666.713	1265.319
28.965	14.064	1666.536	1265.402
29.980	14.124	1665.563	1265.011
30.994	14.058	1664.965	1263.945
32.009	14.112	1663.603	1263.211
33.023	14.155	1663.103	1263.045
34.038	14.196	1662.542	1262.818
35.053	14.170	1661.139	1261.444
36.067	14.157	1659.929	1260.316
37.082	14.123	1658.642	1258.963
38.096	14.133	1657.649	1258.178
39.111	14.124	1657.189	1257.647
40.126	14.174	1656.468	1257.365
41.140	14.151	1655.451	1256.311
42.155	14.029	1654.153	1254.296
43.169	14.014	1652.613	1252.905
44.184	13.992	1651.599	1251.858
45.199	14.023	1650.111	1250.852
46.213	14.018	1649.221	1250.027
47.228	13.894	1648.458	1248.404
48.242	13.931	1647.199	1247.624
49.257	14.087	1645.737	1247.572
50.271	14.003	1644.430	1245.843
51.286	14.052	1642.959	1244.983
52.301	14.045	1641.697	1243.870
53.315	14.091	1640.315	1243.051
54.330	14.114	1638.579	1241.798
55.344	13.922	1637.252	1239.254
56.359	14.010	1635.718	1238.636
57.374	13.986	1634.422	1237.371
58.388	13.965	1633.455	1236.367
59.403	13.994	1632.304	1235.603
60.417	13.954	1630.992	1234.208
61.432	13.975	1629.340	1233.005
62.447	13.979	1628.301	1232.135
63.461	13.995	1627.079	1231.218
64.476	13.929	1626.234	1229.988
65.490	13.864	1625.179	1228.595
66.505	13.944	1623.550	1227.845
67.520	13.909	1622.833	1226.938
68.534	13.919	1621.720	1226.060
69.549	13.957	1620.491	1225.302
70.563	13.951	1619.232	1224.199
71.578	13.888	1618.523	1223.091
72.593	13.932	1616.763	1221.979
73.607	13.772	1616.216	1220.280
74.622	13.879	1614.699	1219.813
75.636	13.797	1614.229	1218.743
76.651	13.853	1612.840	1218.004
77.666	13.915	1612.173	1217.845
78.680	13.855	1610.992	1216.401
79.695	13.822	1610.521	1215.698
80.709	13.936	1609.107	1215.358
81.724	13.957	1607.958	1214.537
82.739	14.031	1606.823	1214.111
83.753	13.962	1606.316	1213.117
84.768	14.007	1605.354	1212.611
85.782	14.101	1604.435	1212.499
86.797	14.102	1603.310	1211.542
87.812	14.036	1602.432	1210.294
88.826	14.043	1601.114	1209.242
89.841	14.046	1599.819	1208.179
90.855	14.053	1598.662	1207.254
91.870	14.122	1597.882	1207.053
92.884	14.091	1596.433	1205.626
93.899	14.149	1595.395	1205.157
94.914	14.109	1594.457	1204.053
95.928	14.190	1592.842	1203.311
96.943	14.178	1591.734	1202.284
97.957	14.155	1590.698	1201.227
98.972	14.030	1589.181	1199.076
99.987	14.092	1587.583	1198.212
101.001	14.144	1585.952	1197.245
102.016	14.138	1583.767	1195.448
103.030	14.115	1583.272	1194.806
104.045	14.051	1582.406	1193.586
105.060	14.116	1580.636	1192.607
106.074	14.122	1579.395	1191.613
107.089	14.110	1577.879	1190.280
108.103	14.002	1576.595	1188.431
109.118	14.032	1575.051	1187.376
110.133	14.023	1573.297	1185.885
111.147	14.016	1572.038	1184.778
112.162	13.982	1570.780	1183.486
113.176	14.053	1569.003	1182.543
114.191	13.997	1568.506	1181.671
115.206	14.070	1566.836	1180.826
116.220	14.057	1565.961	1179.971
117.235	14.071	1564.301	1178.712
118.249	13.938	1563.425	1177.007
119.264	14.028	1561.997	1176.465
120.279	13.949	1560.797	1174.897
121.293	13.964	1559.092	1173.615
122.308	14.098	1557.298	1173.111
123.322	14.014	1556.088	1171.503
124.337	14.029	1554.816	1170.542
125.352	13.991	1553.282	1169.017
126.366	14.043	1552.338	1168.570
127.381	14.025	1551.287	1167.546
128.395	14.030	1550.001	1166.512
129.410	13.928	1549.176	1165.072
130.424	13.993	1547.230	1163.960
131.439	14.094	1546.477	1164.003
132.454	14.003	1544.939	1162.101
133.468	14.006	1543.341	1160.816
134.483	14.153	1541.942	1160.691
135.497	14.076	1540.570	1159.018
136.512	14.080	1539.281	1157.974
137.527	14.103	1537.757	1156.883
138.541	14.158	1536.663	1156.345
139.556	14.033	1535.272	1154.328
140.570	14.106	1534.099	1153.846
141.585	14.119	1532.364	1152.532
142.600	14.218	1531.160	1152.210
143.614	14.178	1530.388	1151.251
144.629	14.280	1528.708	1150.586
145.643	14.257	1527.323	1149.287
146.658	14.260	1526.603	1148.660
147.673	14.298	1524.646	1147.347
148.687	14.315	1522.553	1145.793
149.702	14.256	1521.884	1144.778
150.716	14.250	1519.832	1143.096
151.731	14.306	1518.473	1142.355
152.746	14.304	1517.321	1141.376
153.760	14.214	1515.980	1139.647
154.775	14.250	1514.644	1138.786
155.789	14.268	1513.550	1137.991
156.804	14.252	1512.060	1136.657
157.819	14.338	1510.969	1136.324
158.833	14.357	1510.671	1136.129
159.848	14.453	1508.448	1135.013
160.862	14.483	1507.582	1134.462
161.877	14.415	1506.691	1133.226
162.892	14.339	1504.964	1131.316
163.906	14.318	1504.134	1130.448
164.921	14.354	1502.518	1129.376
165.935	14.303	1501.550	1128.204
166.950	14.395	1500.720	1128.101
167.964	14.427	1499.129	1127.022
168.979	14.385	1498.784	1126.379
169.994	14.386	1497.775	1125.528
171.008	14.442	1496.033	1124.497
172.023	14.369	1495.566	1123.555
173.037	14.397	1494.002	1122.471
174.052	14.434	1493.176	1121.997
175.067	14.480	1492.060	1121.372
176.081	14.589	1490.679	1120.964
177.096	14.495	1489.345	1119.231
178.110	14.406	1488.306	1117.759
179.125	14.478	1486.963	1117.128
180.140	14.528	1485.982	1116.631
181.154	14.491	1484.872	1115.450
182.169	14.522	1483.680	1114.663
183.183	14.518	1482.383	1113.560
184.198	14.651	1481.202	1113.463
185.213	14.644	1480.243	1112.598
186.227	14.639	1479.010	1111.542
187.242	14.693	1478.035	1111.071
188.256	14.647	1477.491	1110.253
189.271	14.759	1476.146	1109.892
190.286	14.679	1475.069	1108.452
191.300	14.701	1474.239	1107.878
192.315	14.754	1472.303	1106.671
193.329	14.544	1471.672	1104.712
194.344	14.535	1470.725	1103.843
195.359	14.531	1469.888	1103.093
196.373	14.610	1468.628	1102.570
197.388	14.663	1467.798	1102.201
198.402	14.758	1466.282	1101.592
199.417	14.703	1465.444	1100.497
200.432	14.781	1464.364	1100.106
201.446	14.810	1463.238	1099.352
202.461	14.843	1462.236	1098.720
203.475	14.879	1460.836	1097.804
204.490	14.873	1459.889	1096.960
205.504	14.933	1459.096	1096.658
206.519	14.935	1457.440	1095.330
207.534	14.905	1456.412	1094.265
208.548	14.924	1455.240	1093.408
209.563	14.822	1454.507	1092.100
210.577	14.868	1453.598	1091.617
211.592	15.008	1452.301	1091.461
212.607	14.949	1451.449	1090.337
213.621	14.984	1450.926	1090.076
214.636	14.982	1449.992	1089.269
215.650	15.120	1448.604	1089.025
216.665	15.078	1448.063	1088.251
217.680	15.165	1446.961	1087.892
218.694	15.023	1446.369	1086.425
219.709	15.063	1445.904	1086.241
220.723	15.156	1444.585	1085.756
221.738	15.173	1443.673	1085.085
222.753	15.059	1442.937	1083.697
223.767	15.050	1441.949	1082.805
224.782	15.183	1440.788	1082.692
225.796	15.131	1440.330	1081.918
226.811	15.216	1439.239	1081.552
227.826	15.229	1438.620	1081.074
228.840	15.205	1437.900	1080.282
229.855	15.191	1436.626	1079.138
230.869	15.190	1435.971	1078.543
231.884	15.132	1434.879	1077.254
232.899	15.248	1433.192	1076.638
233.913	15.163	1432.515	1075.493
234.928	15.261	1431.110	1074.970
235.942	15.116	1430.440	1073.442
236.957	15.229	1428.917	1072.929
237.972	15.297	1427.597	1072.279
238.986	15.277	1426.706	1071.386
240.001	15.194	1425.779	1070.060
241.015	15.289	1424.886	1069.906
242.030	15.427	1423.292	1069.492
243.045	15.329	1422.416	1068.118
244.059	15.359	1421.460	1067.494
245.074	15.293	1421.095	1066.703
246.088	15.401	1420.404	1066.782
247.103	15.384	1419.786	1066.114
248.117	15.401	1418.677	1065.296
249.132	15.462	1417.945	1065.036
250.147	15.462	1417.011	1064.240
251.161	15.522	1416.833	1064.393
252.176	15.603	1416.014	1064.199
253.190	15.699	1415.046	1063.982
254.205	15.702	1414.107	1063.201
255.220	15.604	1413.636	1062.136
256.234	15.630	1412.853	1061.615
257.249	15.745	1411.307	1061.083
258.263	15.761	1410.775	1060.695
259.278	15.714	1410.049	1059.755
260.293	15.802	1408.994	1059.422
261.307	15.856	1407.979	1058.910
262.322	15.798	1407.422	1058.033
263.336	15.907	1406.772	1058.135
264.351	15.853	1405.501	1056.743
265.366	15.979	1404.370	1056.588
266.380	15.896	1403.647	1055.432
267.395	15.850	1403.169	1054.691
268.409	16.039	1401.642	1054.636
269.424	15.924	1401.001	1053.336
270.439	15.939	1399.642	1052.319
271.453	15.892	1398.991	1051.442
272.468	15.985	1398.324	1051.427
273.482	15.945	1397.410	1050.398
274.497	15.909	1397.033	1049.798
275.512	15.901	1395.777	1048.711
276.526	15.939	1394.636	1047.996
277.541	15.873	1394.263	1047.215
278.555	16.038	1392.898	1047.122
279.570	16.028	1392.088	1046.357
280.585	15.957	1390.989	1045.000
281.599	16.054	1390.415	1045.074
282.614	16.160	1389.591	1045.023
283.628	16.138	1388.055	1043.637
284.643	16.102	1387.278	1042.740
285.657	16.105	1386.063	1041.751
286.672	16.159	1384.992	1041.190
287.687	16.149	1384.397	1040.588
288.701	16.117	1383.460	1039.593
289.716	16.158	1382.665	1039.154
290.730	16.183	1382.084	1038.782
291.745	16.145	1380.985	1037.627
292.760	16.215	1379.875	1037.135
293.774	16.306	1378.627	1036.663
294.789	16.234	1377.841	1035.538
295.803	16.338	1377.305	1035.681
296.818	16.263	1376.365	1034.421
297.833	16.333	1375.138	1033.838
298.847	16.315	1374.107	1032.861
299.862	16.244	1373.243	1031.685
300.876	16.345	1372.158	1031.397
301.891	16.225	1371.877	1030.364
302.906	16.253	1371.226	1029.951
303.920	16.465	1369.907	1030.162
304.935	16.443	1369.473	1029.612
305.949	16.391	1368.586	1028.538
306.964	16.497	1367.567	1028.328
307.979	16.600	1366.617	1028.147
308.993	16.467	1365.875	1026.687
310.008	16.524	1364.866	1026.183
311.022	16.559	1364.006	1025.662
312.037	16.607	1362.703	1024.879
313.052	16.544	1361.898	1023.800
314.066	16.613	1360.941	1023.408
315.081	16.560	1359.944	1022.252
316.095	16.517	1358.954	1021.152
317.110	16.476	1358.224	1020.266
318.125	16.398	1357.352	1019.052
319.139	16.513	1356.401	1018.944
320.154	16.556	1355.380	1018.347
321.168	16.621	1353.817	1017.470
322.183	16.536	1353.394	1016.549
323.197	16.624	1351.696	1015.717
324.212	16.722	1350.828	1015.562
325.227	16.659	1350.438	1014.798
326.241	16.633	1349.582	1013.911
327.256	16.567	1348.619	1012.701
328.270	16.638	1347.573	1012.250
329.285	16.727	1347.087	1012.330
330.300	16.699	1345.777	1011.088
331.314	16.680	1345.063	1010.349
332.329	16.773	1344.293	1010.235
333.343	16.723	1343.204	1009.030
334.358	16.745	1342.407	1008.474
335.373	16.802	1341.454	1008.004
336.387	16.756	1340.782	1007.141
337.402	16.785	1340.171	1006.764
338.416	16.807	1339.638	1006.405
339.431	16.853	1338.901	1006.036
340.446	16.952	1337.990	1005.846
341.460	16.972	1336.584	1004.818
342.475	16.913	1336.155	1004.061
343.489	16.923	1335.514	1003.549
344.504	16.972	1334.093	1002.681
345.519	17.004	1333.289	1002.178
346.533	17.056	1332.630	1001.898
347.548	17.088	1331.751	1001.340
348.562	17.090	1330.675	1000.456
349.577	17.034	1330.278	999.739
350.592	17.065	1329.479	999.229
351.606	17.144	1327.633	998.218
352.621	17.020	1327.183	997.067
353.635	17.016	1326.537	996.467
354.650	16.992	1325.465	995.430
355.665	17.053	1324.656	995.095
356.679	17.037	1323.481	994.029
357.694	17.127	1322.297	993.581
358.708	17.076	1321.580	992.654
359.723	17.150	1320.572	992.243
360.738	17.099	1319.591	991.119
361.752	17.235	1318.129	990.729
362.767	17.210	1317.082	989.707
363.781	17.209	1316.359	989.068
364.796	17.277	1315.245	988.542
365.810	17.321	1314.923	988.468
366.825	17.258	1314.349	987.583
367.840	17.306	1313.760	987.332
368.854	17.304	1312.901	986.584
369.869	17.385	1312.676	986.797
370.883	17.372	1311.736	985.930
371.898	17.461	1310.483	985.417
372.913	17.321	1310.169	984.283
373.927	17.411	1308.968	983.814
374.942	17.420	1308.371	983.333
375.956	17.449	1307.490	982.751
376.971	17.465	1307.005	982.388
377.986	17.441	1306.138	981.513
379.000	17.486	1305.455	981.170
380.015	17.526	1304.359	980.489
381.029	17.526	1303.661	979.879
382.044	17.451	1303.088	978.934
383.059	17.622	1302.004	979.011
384.073	17.666	1301.489	978.790
385.088	17.643	1300.946	978.163
386.102	17.706	1300.273	977.932
387.117	17.783	1299.343	977.586
388.132	17.723	1298.827	976.769
389.146	17.713	1297.677	975.760
390.161	17.807	1296.981	975.692
391.175	17.708	1296.447	974.636
392.190	17.673	1295.934	973.963
393.205	17.718	1295.169	973.562
394.219	17.705	1293.751	972.333
395.234	17.819	1292.433	971.909
396.248	17.777	1291.333	970.752
397.263	17.797	1289.927	969.723
398.278	17.810	1288.618	968.730
399.292	17.785	1287.465	967.636
400.307	17.723	1286.577	966.530
401.321	17.728	1286.016	966.050
402.336	17.783	1284.475	965.119
403.350	17.846	1283.080	964.340
404.365	17.878	1282.287	963.844
405.380	17.762	1281.917	962.824
406.394	17.827	1281.329	962.661
407.409	17.881	1280.438	962.214
408.423	17.865	1279.644	961.439
409.438	17.971	1278.927	961.413
410.453	17.924	1278.448	960.704
411.467	18.025	1277.626	960.572
412.482	18.068	1276.660	960.002
413.496	18.107	1276.260	959.832
414.511	18.003	1275.584	958.655
415.526	18.177	1274.911	959.043
416.540	18.187	1273.846	958.212
417.555	18.134	1273.455	957.538
418.569	18.170	1272.584	956.997
419.584	18.215	1272.255	956.920
420.599	18.212	1271.670	956.376
421.613	100.209	1355.888	1482.110
422.628	97.749	1368.085	1482.191
