DTS Sentinel unit serial number:	SN413079Multiplexer serial number:	ORYXHardware model number:	OX4-SRSoftware version number:	ORYX F/W v4.00 Oryx Data Collector v3.7.2.0data status	okinstallation	princeton_trtdifferential loss correction	single-endedforward channel	channel 4reverse channel	N/Adate	2019/09/17time	20:09:34forward acquisition time	60.00reverse acquisition time	0.00gamma	496.2192k internal	0.2318k external	0.2318temperature offset calibration	0.9985default loss term (dB/km)	0.3790temperature slope calibration	1.0000multiplexer offset coefficient	1.0000multiplexer slope coefficient	1.0000fibre end	0.00T internal ref (°C)	32.39T ext. ref 1 (°C)	0.22T ext. ref 2 (°C)	22.37length (m)	temperature (°C)	Stokes	anti-Stokes-747.200	-200.000	-0.012	-0.114
-746.185	84.293	-0.157	0.174
-745.171	-47.099	-0.197	0.097
-744.156	9.064	-0.168	0.129
-743.142	-86.990	-0.136	-0.042
-742.127	648.433	0.043	-0.112
-741.112	234.518	0.051	-0.085
-740.098	439.909	-0.099	0.218
-739.083	76.226	0.120	-0.129
-738.069	-54.695	-0.627	0.287
-737.054	429.660	-0.214	0.468
-736.039	-102.184	-0.311	0.076
-735.025	-70.803	-0.047	-0.018
-734.010	187.386	-0.145	-0.219
-732.996	-70.293	-0.055	-0.021
-731.981	51.264	0.069	0.067
-730.966	800.000	0.055	0.239
-729.952	-141.402	-0.141	-0.014
-728.937	800.000	-0.105	-0.348
-727.923	-19.073	-0.169	-0.106
-726.908	292.106	-0.153	0.281
-725.894	99.020	0.089	0.103
-724.879	-105.674	0.087	-0.020
-723.864	800.000	0.076	-0.212
-722.850	24.096	-0.226	0.189
-721.835	535.909	0.127	-0.305
-720.821	266.359	-0.145	-0.256
-719.806	182.723	-0.021	-0.032
-718.791	5.450	-0.133	-0.099
-717.777	-26.894	0.078	-0.046
-716.762	135.277	-0.108	-0.142
-715.748	30.254	-0.152	-0.131
-714.733	-145.070	0.198	0.018
-713.718	-114.701	-0.250	0.048
-712.704	408.835	-0.092	-0.198
-711.689	195.428	-0.044	0.067
-710.675	-53.553	0.150	0.070
-709.660	311.563	0.133	0.252
-708.645	122.123	0.153	0.193
-707.631	20.341	-0.306	0.250
-706.616	-112.196	-0.101	0.020
-705.602	134.704	-0.127	0.166
-704.587	-103.792	0.081	-0.019
-703.572	-200.000	0.001	-0.010
-702.558	-32.387	-0.166	0.093
-701.543	94.077	-0.101	0.116
-700.529	-200.000	-0.019	0.289
-699.514	800.000	0.094	0.397
-698.499	32.410	0.114	0.099
-697.485	642.521	0.077	-0.199
-696.470	-55.167	-0.116	-0.053
-695.456	-200.000	-0.000	0.172
-694.441	-33.064	-0.544	-0.305
-693.426	-78.437	-0.254	-0.088
-692.412	95.878	-0.215	0.248
-691.397	-162.453	-0.399	0.020
-690.383	-104.120	-0.380	-0.089
-689.368	-89.994	-0.283	0.083
-688.354	376.885	-0.128	-0.264
-687.339	2.469	-0.209	-0.152
-686.324	-179.103	0.333	-0.008
-685.310	113.869	-0.205	0.251
-684.295	-77.167	-0.136	0.048
-683.281	-200.000	0.030	-0.303
-682.266	206.211	0.033	0.051
-681.251	-160.692	-0.275	0.015
-680.237	271.198	0.086	0.153
-679.222	-122.800	-0.140	-0.023
-678.208	88.317	-0.184	0.207
-677.193	-113.916	-0.339	0.066
-676.178	84.481	-0.095	-0.105
-675.164	158.295	0.181	0.253
-674.149	800.000	0.060	-0.231
-673.135	-200.000	-0.009	-0.047
-672.120	-59.119	-0.290	-0.126
-671.105	55.038	0.076	-0.074
-670.091	-114.567	0.159	0.031
-669.076	510.162	-0.121	-0.284
-668.062	800.000	-0.052	-0.177
-667.047	-49.507	-0.215	-0.103
-666.032	113.108	0.202	-0.248
-665.018	-89.891	-0.028	0.008
-664.003	4.420	0.119	0.088
-662.989	-193.114	-0.304	-0.003
-661.974	-200.000	-0.009	0.271
-660.959	3.941	0.185	-0.136
-659.945	239.159	-0.029	-0.048
-658.930	-200.000	0.038	-0.374
-657.916	-200.000	0.003	-0.022
-656.901	800.000	0.087	0.244
-655.886	-120.403	0.282	-0.048
-654.872	-28.042	-0.278	-0.162
-653.857	800.000	-0.023	-0.100
-652.843	-173.547	0.262	0.008
-651.828	-42.153	0.174	-0.090
-650.814	-85.981	-0.411	-0.128
-649.799	163.788	-0.120	0.170
-648.784	-106.792	0.261	0.058
-647.770	-200.000	0.015	-0.104
-646.755	211.394	-0.107	0.170
-645.741	-29.415	-0.280	-0.161
-644.726	189.348	-0.210	0.317
-643.711	-200.000	0.042	0.342
-642.697	-141.703	-0.247	0.025
-641.682	-200.000	0.005	0.154
-640.668	-12.631	-0.252	-0.166
-639.653	800.000	-0.028	0.115
-638.638	-148.869	-0.294	-0.024
-637.624	-127.605	0.164	0.024
-636.609	102.262	-0.074	-0.087
-635.595	-52.927	-0.069	0.032
-634.580	-198.624	0.376	-0.002
-633.565	-200.000	0.032	-0.291
-632.551	-19.294	-0.189	0.118
-631.536	158.180	-0.170	-0.237
-630.522	-200.000	0.057	-0.309
-629.507	708.713	0.045	-0.120
-628.492	-75.504	0.082	0.029
-627.478	352.256	-0.117	0.233
-626.463	342.515	0.114	0.224
-625.449	520.583	-0.039	0.091
-624.434	-90.050	0.136	0.040
-623.419	-74.194	0.093	-0.034
-622.405	290.341	0.209	-0.382
-621.390	-200.000	0.032	0.178
-620.376	-200.000	0.019	-0.107
-619.361	800.000	0.168	-0.481
-618.346	-15.235	0.295	-0.190
-617.332	115.789	0.105	-0.130
-616.317	-34.917	-0.165	0.091
-615.303	-42.160	0.244	-0.125
-614.288	71.832	0.146	-0.152
-613.273	-43.808	0.240	0.122
-612.259	20.600	-0.195	-0.159
-611.244	-200.000	0.016	0.151
-610.230	-171.594	-0.438	-0.015
-609.215	-50.977	-0.208	0.098
-608.201	76.357	0.186	0.199
-607.186	-90.209	0.151	0.044
-606.171	40.000	-0.070	0.063
-605.157	800.000	0.079	0.279
-604.142	181.540	-0.178	-0.264
-603.128	-40.505	-0.116	0.061
-602.113	-76.987	0.297	0.104
-601.098	800.000	0.165	-0.490
-600.084	-58.194	0.088	-0.039
-599.069	44.901	0.127	-0.118
-598.055	-36.148	-0.212	-0.115
-597.040	102.408	-0.039	-0.045
-596.025	249.265	-0.149	0.254
-595.011	-66.558	0.211	0.084
-593.996	57.447	0.125	0.123
-592.982	-62.365	-0.043	-0.018
-591.967	-200.000	0.015	-0.296
-590.952	-200.000	-0.041	0.440
-589.938	3.602	0.107	-0.079
-588.923	800.000	0.036	0.118
-587.909	66.091	0.087	-0.088
-586.894	242.716	-0.089	-0.150
-585.879	3.228	0.098	0.072
-584.865	41.382	-0.169	0.154
-583.850	169.047	-0.072	-0.103
-582.836	167.358	-0.041	-0.058
-581.821	-200.000	0.078	0.376
-580.806	28.241	-0.131	-0.111
-579.792	-200.000	0.027	0.344
-578.777	-52.634	0.219	0.102
-577.763	268.676	0.233	-0.411
-576.748	800.000	-0.045	-0.150
-575.733	-97.269	-0.145	0.038
-574.719	4.646	0.165	-0.122
-573.704	62.748	0.147	0.148
-572.690	-182.269	-0.038	-0.001
-571.675	-87.619	-0.265	-0.081
-570.661	-16.730	0.118	-0.075
-569.646	800.000	-0.093	-0.275
-568.631	800.000	0.046	-0.140
-567.617	442.515	0.154	-0.338
-566.602	757.471	-0.110	-0.299
-565.588	-3.872	-0.139	0.097
-564.573	-30.170	0.010	-0.006
-563.558	800.000	0.075	0.235
-562.544	-50.077	0.156	-0.074
-561.529	-200.000	0.029	0.211
-560.515	800.000	0.026	0.074
-559.500	-0.174	0.124	-0.088
-558.485	-136.499	-0.188	0.022
-557.471	-77.969	-0.222	-0.077
-556.456	-171.999	-0.333	0.011
-555.442	-47.975	0.242	0.117
-554.427	800.000	0.142	-0.410
-553.412	54.119	-0.260	-0.251
-552.398	-57.244	-0.218	-0.096
-551.383	-88.010	0.138	0.042
-550.369	-173.715	0.435	-0.013
-549.354	282.017	-0.126	0.227
-548.339	-23.781	0.323	0.194
-547.325	-125.811	-0.132	-0.020
-546.310	-200.000	-0.016	-0.338
-545.296	-3.024	-0.178	0.125
-544.281	-63.760	-0.088	0.036
-543.266	87.481	-0.258	-0.287
-542.252	-37.804	0.127	0.068
-541.237	-170.669	-0.335	-0.012
-540.223	800.000	-0.116	-0.354
-539.208	82.822	0.067	-0.073
-538.193	800.000	-0.089	-0.248
-537.179	178.866	0.127	-0.187
-536.164	-4.472	-0.343	0.238
-535.150	-200.000	-0.031	-0.265
-534.135	-143.399	-0.169	0.016
-533.121	-141.824	0.290	0.029
-532.106	13.882	-0.080	0.062
-531.091	-75.994	0.162	-0.058
-530.077	-112.226	-0.473	0.095
-529.062	23.611	-0.356	-0.294
-528.048	126.920	0.026	-0.033
-527.033	-4.598	-0.120	0.083
-526.018	53.249	0.152	0.146
-525.004	124.708	-0.270	0.341
-523.989	26.058	-0.070	-0.059
-522.975	91.818	0.194	-0.219
-521.960	-106.881	0.147	-0.033
-520.945	-200.000	0.028	-0.352
-519.931	-125.643	-0.069	0.011
-518.916	-149.434	-0.184	0.015
-517.902	800.000	-0.061	0.193
-516.887	-98.611	0.279	-0.072
-515.872	97.350	0.233	-0.268
-514.858	6.942	-0.353	0.263
-513.843	800.000	-0.060	-0.196
-512.829	-73.401	0.106	-0.039
-511.814	-200.000	0.017	0.087
-510.799	404.811	0.211	0.445
-509.785	800.000	0.084	0.253
-508.770	-94.705	0.350	0.095
-507.756	-4.124	-0.070	0.048
-506.741	800.000	0.027	0.117
-505.726	-81.062	-0.175	0.058
-504.712	-175.609	-0.189	0.005
-503.697	-22.559	-0.274	0.166
-502.683	-103.138	0.277	0.066
-501.668	128.731	-0.094	-0.120
-500.653	-62.496	0.073	0.030
-499.639	-77.148	0.461	-0.161
-498.624	774.428	-0.122	-0.334
-497.610	197.151	0.083	0.127
-496.595	79.670	0.126	0.135
-495.581	-200.000	0.046	0.285
-494.566	553.318	0.059	0.143
-493.551	112.913	0.236	0.287
-492.537	800.000	0.073	0.219
-491.522	287.357	0.140	0.253
-490.508	-46.709	-0.242	0.119
-489.493	-38.445	-0.088	-0.047
-488.478	800.000	0.087	0.356
-487.464	-200.000	-0.015	-0.131
-486.449	800.000	0.087	0.240
-485.435	800.000	0.043	0.128
-484.420	-200.000	-0.017	0.247
-483.405	-143.883	0.267	-0.025
-482.391	-95.634	-0.139	0.037
-481.376	-45.464	-0.152	-0.075
-480.362	-101.266	-0.223	-0.055
-479.347	-68.410	0.257	0.100
-478.332	23.981	0.121	0.100
-477.318	30.713	0.165	-0.142
-476.303	373.467	-0.056	-0.114
-475.289	-105.208	0.087	0.020
-474.274	-82.797	-0.269	-0.087
-473.259	89.058	-0.212	0.236
-472.245	-200.000	-0.042	0.433
-471.230	270.471	-0.231	-0.407
-470.216	29.960	0.144	0.123
-469.201	81.502	0.135	0.146
-468.186	-146.257	-0.158	-0.014
-467.172	12.892	-0.148	-0.114
-466.157	131.570	0.139	0.179
-465.143	235.001	-0.149	0.245
-464.128	800.000	0.069	0.249
-463.113	124.929	-0.178	-0.225
-462.099	209.723	0.146	-0.230
-461.084	-24.666	0.057	0.034
-460.070	-200.000	-0.017	0.103
-459.055	-37.987	-0.015	0.008
-458.040	10.513	0.142	-0.108
-457.026	-98.298	0.275	0.071
-456.011	727.122	0.075	0.202
-454.997	-148.284	0.403	-0.033
-453.982	199.960	-0.326	0.501
-452.968	800.000	0.046	0.154
-451.953	-14.693	-0.282	0.181
-450.938	168.434	-0.076	0.108
-449.924	-128.550	0.166	0.024
-448.909	-185.985	-0.313	0.005
-447.895	800.000	-0.096	-0.294
-446.880	212.832	0.045	0.070
-445.865	284.208	0.137	-0.247
-444.851	800.000	-0.049	-0.191
-443.836	90.039	-0.146	0.163
-442.822	800.000	0.091	0.253
-441.807	-54.959	0.317	-0.143
-440.792	-94.486	0.083	0.023
-439.778	-200.000	0.007	0.121
-438.763	87.176	0.125	0.139
-437.749	10.711	0.077	0.059
-436.734	-200.000	0.024	0.265
-435.719	-200.000	-0.006	-0.087
-434.705	-41.140	0.045	-0.023
-433.690	51.658	-0.223	0.212
-432.676	-200.000	-0.023	-0.426
-431.661	456.347	-0.113	-0.251
-430.646	-70.600	-0.315	0.119
-429.632	-200.000	-0.034	-0.154
-428.617	47.752	0.241	0.225
-427.603	-154.941	-0.364	0.024
-426.588	97.848	0.216	0.249
-425.573	-200.000	-0.006	0.265
-424.559	-200.000	-0.042	0.245
-423.544	19.832	0.200	-0.161
-422.530	94.779	-0.211	-0.240
-421.515	168.088	0.218	-0.310
-420.500	-160.516	-0.286	0.015
-419.486	-200.000	0.063	-0.351
-418.471	-76.700	-0.192	0.067
-417.457	-110.315	-0.196	-0.041
-416.442	-180.561	0.268	0.006
-415.428	191.648	0.188	-0.282
-414.413	79.398	0.337	0.361
-413.398	-120.166	0.522	0.089
-412.384	4.068	-0.091	0.067
-411.369	-193.231	0.124	-0.001
-410.355	311.950	0.134	-0.252
-409.340	10.180	0.077	-0.058
-408.325	-63.915	-0.102	-0.042
-407.311	-200.000	0.030	0.152
-406.296	-18.942	0.133	0.083
-405.282	-66.286	0.098	0.039
-404.267	-112.762	-0.127	0.025
-403.252	-200.000	0.008	-0.257
-402.238	51.463	-0.078	0.074
-401.223	-62.322	-0.040	-0.017
-400.209	-200.000	-0.007	-0.123
-399.194	20.963	0.134	0.109
-398.179	-200.000	-0.019	0.144
-397.165	-62.240	-0.099	-0.041
-396.150	743.188	-0.084	0.227
-395.136	25.611	-0.276	-0.230
-394.121	69.162	0.477	-0.490
-393.106	50.084	-0.262	0.246
-392.092	-67.126	-0.022	-0.009
-391.077	46.593	0.155	-0.144
-390.063	171.216	-0.218	0.313
-389.048	-91.007	-0.273	-0.078
-388.033	766.634	0.202	-0.549
-387.019	324.944	0.112	0.213
-386.004	-200.000	0.025	-0.403
-384.990	-103.013	0.060	-0.014
-383.975	64.907	0.157	-0.159
-382.960	-200.000	0.048	-0.460
-381.946	800.000	-0.062	-0.175
-380.931	-103.625	-0.096	0.022
-379.917	-88.684	-0.134	-0.040
-378.902	-200.000	-0.031	0.304
-377.888	-48.859	-0.337	-0.161
-376.873	310.329	0.176	0.329
-375.858	800.000	0.037	0.140
-374.844	-138.131	-0.147	0.016
-373.829	-0.815	0.182	-0.129
-372.815	-99.204	0.463	0.117
-371.800	800.000	-0.104	0.347
-370.785	196.396	-0.208	-0.315
-369.771	-63.858	0.224	-0.092
-368.756	82.313	-0.170	0.184
-367.742	744.778	-0.086	-0.232
-366.727	-44.475	0.197	0.098
-365.712	800.000	-0.077	-0.275
-364.698	13.702	-0.180	-0.139
-363.683	-200.000	0.164	0.001
-362.669	-101.258	0.143	-0.035
-361.654	2.938	0.159	-0.115
-360.639	414.205	-0.120	0.256
-359.625	-141.111	-0.167	-0.017
-358.610	-49.741	0.228	-0.108
-357.596	800.000	-0.107	0.390
-356.581	-45.263	-0.197	0.097
-355.566	-124.334	0.233	0.036
-354.552	-200.000	0.042	-0.201
-353.537	800.000	0.152	0.445
-352.523	-200.000	0.002	-0.349
-351.508	-166.435	0.217	0.009
-350.493	-200.000	-0.004	-0.084
-349.479	11.450	0.181	-0.138
-348.464	800.000	0.085	-0.330
-347.450	-22.531	0.116	0.070
-346.435	258.432	-0.095	0.162
-345.420	407.923	0.064	0.135
-344.406	796.493	-0.083	0.229
-343.391	-131.369	-0.161	0.021
-342.377	352.335	-0.035	-0.069
-341.362	62.510	0.087	0.087
-340.348	800.000	-0.011	0.042
-339.333	-113.135	-0.364	0.071
-338.318	131.358	-0.133	0.170
-337.304	-3.182	-0.113	0.078
-336.289	-200.000	0.013	0.131
-335.275	73.619	0.123	-0.128
-334.260	-200.000	-0.014	0.185
-333.245	3.305	0.080	0.058
-332.231	226.891	0.127	-0.205
-331.216	84.309	-0.124	0.135
-330.202	95.691	0.099	-0.113
-329.187	314.888	-0.102	-0.191
-328.172	800.000	-0.048	-0.209
-327.158	-200.000	-0.000	-0.157
-326.143	-132.406	0.130	0.017
-325.129	212.056	0.168	-0.264
-324.114	-87.589	0.052	-0.016
-323.099	-200.000	-0.014	-0.136
-322.085	-200.000	-0.036	-0.248
-321.070	27.151	0.244	0.204
-320.056	11.660	0.180	-0.137
-319.041	284.552	-0.219	0.392
-318.026	-3.460	-0.137	-0.095
-317.012	-48.733	0.308	-0.147
-315.997	800.000	0.045	0.147
-314.983	-151.366	-0.174	0.013
-313.968	-136.327	0.392	-0.045
-312.953	-11.527	0.217	0.142
-311.939	369.977	-0.163	-0.328
-310.924	-200.000	-0.038	-0.253
-309.910	-119.742	-0.229	0.039
-308.895	156.986	-0.030	-0.041
-307.880	-192.401	-0.375	0.004
-306.866	-26.001	-0.209	0.122
-305.851	165.228	-0.108	0.152
-304.837	-119.154	-0.164	0.028
-303.822	-123.570	-0.185	0.029
-302.807	800.000	0.071	-0.199
-301.793	-129.707	0.087	0.012
-300.778	-75.333	-0.387	0.137
-299.764	-36.350	0.266	-0.143
-298.749	247.044	0.056	0.094
-297.735	223.832	-0.061	-0.098
-296.720	800.000	-0.082	-0.227
-295.705	800.000	0.074	0.214
-294.691	63.748	-0.234	0.234
-293.676	-113.576	0.143	0.028
-292.662	-26.245	-0.188	0.110
-291.647	-18.335	0.245	-0.152
-290.632	2.656	0.236	-0.170
-289.618	-119.033	0.396	-0.069
-288.603	-110.112	0.272	0.057
-287.589	-59.406	-0.189	0.081
-286.574	287.021	-0.122	0.219
-285.559	-66.538	-0.060	0.024
-284.545	58.260	-0.232	-0.226
-283.530	-200.000	-0.005	0.054
-282.516	251.255	-0.119	0.201
-281.501	143.450	0.006	0.008
-280.486	-200.000	0.012	0.090
-279.472	169.553	0.142	0.202
-278.457	-188.412	0.069	-0.001
-277.443	-199.533	-0.356	-0.002
-276.428	76.210	-0.168	-0.177
-275.413	-200.000	0.014	-0.137
-274.399	-200.000	-0.010	0.295
-273.384	-199.212	-0.346	-0.002
-272.370	-6.675	-0.205	0.139
-271.355	265.596	-0.079	-0.137
-270.340	-135.328	0.226	0.027
-269.326	202.200	-0.138	0.211
-268.311	341.308	-0.102	0.199
-267.297	177.292	0.357	0.517
-266.282	-90.200	-0.158	-0.046
-265.267	-200.000	-0.022	0.170
-264.253	-129.970	0.329	0.045
-263.238	-71.468	0.213	-0.079
-262.224	58.055	0.039	-0.038
-261.209	-54.837	-0.056	0.025
-260.195	800.000	-0.122	-0.482
-259.180	-134.697	0.089	0.011
-258.165	-57.980	-0.207	0.090
-257.151	-91.667	-0.206	0.058
-256.136	-200.000	0.045	-0.302
-255.122	800.000	0.067	-0.205
-254.107	-200.000	-0.054	-0.262
-253.092	409.513	0.098	-0.206
-252.078	800.000	0.049	0.187
-251.063	-116.540	0.253	-0.046
-250.049	-172.984	-0.323	-0.010
-249.034	231.996	0.094	0.153
-248.019	-200.000	0.003	0.266
-247.005	-13.571	0.149	-0.096
-245.990	-181.170	0.359	-0.007
-244.976	-129.555	0.166	0.023
-243.961	46.107	-0.064	-0.059
-242.946	-200.000	-0.116	-0.524
-241.932	-27.190	-0.213	0.123
-240.917	-200.000	0.029	0.324
-239.903	-11.113	-0.147	0.096
-238.888	-7.458	0.046	-0.031
-237.873	12.870	-0.119	-0.091
-236.859	-121.980	0.197	-0.032
-235.844	-164.982	0.204	-0.009
-234.830	800.000	0.071	-0.230
-233.815	-107.060	0.501	-0.110
-232.800	-79.294	-0.346	0.116
-231.786	229.316	-0.101	-0.163
-230.771	-132.589	-0.194	-0.025
-229.757	800.000	-0.061	-0.226
-228.742	-200.000	-0.016	0.411
-227.727	655.557	-0.039	-0.099
-226.713	-157.974	-0.206	-0.012
-225.698	160.518	-0.020	-0.028
-224.684	-30.807	0.242	0.136
-223.669	-107.828	0.505	-0.109
-222.655	93.107	-0.126	0.142
-221.640	225.810	-0.079	0.127
-220.625	-156.174	0.277	0.017
-219.611	-200.000	-0.074	0.332
-218.596	47.382	0.079	-0.073
-217.582	192.814	0.135	0.203
-216.567	32.686	0.209	0.179
-215.552	241.879	0.144	-0.238
-214.538	-133.677	0.293	0.036
-213.523	-119.253	-0.373	0.064
-212.509	523.621	-0.012	-0.028
-211.494	334.978	-0.106	-0.204
-210.479	-30.586	-0.208	0.117
-209.465	-200.000	-0.022	0.509
-208.450	800.000	0.130	-0.445
-207.436	445.803	0.044	0.097
-206.421	-200.000	0.007	0.304
-205.406	-200.000	0.083	-0.459
-204.392	800.000	-0.052	0.147
-203.377	150.537	0.058	0.078
-202.363	800.000	-0.060	-0.190
-201.348	-70.331	-0.163	-0.061
-200.333	271.772	-0.101	0.176
-199.319	-36.772	-0.207	0.110
-198.304	140.538	-0.138	0.181
-197.290	-200.000	0.199	0.001
-196.275	-48.729	0.076	0.036
-195.260	-53.843	0.013	-0.006
-194.246	-72.366	-0.356	0.130
-193.231	778.211	0.065	-0.175
-192.217	188.707	0.062	-0.092
-191.202	-179.442	0.110	0.002
-190.187	223.246	0.106	-0.169
-189.173	-70.755	-0.276	-0.103
-188.158	-200.000	-0.009	-0.362
-187.144	166.377	0.198	-0.278
-186.129	-200.000	-0.005	0.275
-185.114	-197.164	-0.160	-0.001
-184.100	800.000	-0.167	-0.464
-183.085	34.268	-0.241	0.208
-182.071	767.547	-0.107	-0.289
-181.056	-27.570	-0.268	-0.154
-180.042	-127.293	-0.092	-0.013
-179.027	-26.498	0.226	0.131
-178.012	-100.161	-0.231	-0.057
-176.998	-152.288	0.384	0.027
-175.983	-6.002	0.227	-0.154
-174.969	-72.272	-0.264	-0.097
-173.954	-108.240	-0.124	-0.026
-172.939	-200.000	0.032	-0.177
-171.925	-200.000	0.019	0.258
-170.910	-148.331	-0.158	-0.013
-169.896	800.000	-0.094	-0.257
-168.881	-65.265	0.110	-0.044
-167.866	-151.857	0.255	0.018
-166.852	-183.817	-0.231	0.004
-165.837	525.641	-0.080	-0.187
-164.823	-121.962	-0.101	0.016
-163.808	-45.219	0.082	-0.041
-162.793	800.000	-0.106	0.404
-161.779	-34.349	-0.203	0.110
-160.764	15.591	0.205	0.160
-159.750	248.439	0.274	0.459
-158.735	139.192	0.192	-0.250
-157.720	469.119	0.027	-0.059
-156.706	-148.241	-0.273	0.022
-155.691	-200.000	0.015	-0.129
-154.677	-76.756	-0.299	-0.103
-153.662	-97.493	-0.121	0.031
-152.647	-16.285	0.153	0.096
-151.633	65.697	-0.080	0.080
-150.618	32.694	-0.066	0.057
-149.604	800.000	-0.039	0.138
-148.589	169.369	-0.113	-0.160
-147.574	8.345	-0.166	-0.124
-146.560	213.805	0.050	0.077
-145.545	-5.494	-0.117	-0.079
-144.531	14.023	0.111	-0.086
-143.516	-200.000	-0.011	0.228
-142.502	-98.399	-0.299	-0.076
-141.487	186.564	-0.195	0.287
-140.472	800.000	-0.058	0.165
-139.458	-200.000	-0.007	-0.461
-138.443	224.463	0.125	-0.199
-137.429	-150.073	-0.223	-0.017
-136.414	364.167	-0.026	-0.052
-135.399	410.186	0.091	0.191
-134.385	332.726	-0.010	-0.019
-133.370	800.000	-0.108	-0.339
-132.356	793.017	0.012	-0.033
-131.341	800.000	-0.073	0.280
-130.326	-200.000	0.019	-0.108
-129.312	-31.673	-0.077	0.043
-128.297	-96.352	0.234	-0.061
-127.283	347.134	-0.145	0.281
-126.268	-19.347	-0.107	0.066
-125.253	-101.585	-0.149	0.036
-124.239	-57.223	-0.299	0.130
-123.224	26.193	0.062	0.051
-122.210	-51.014	0.342	-0.159
-121.195	261.540	0.169	-0.289
-120.180	800.000	0.075	-0.254
-119.166	-8.111	0.412	0.274
-118.151	-51.693	0.120	-0.055
-117.137	3.143	0.202	0.145
-116.122	-63.981	-0.176	0.071
-115.107	195.065	-0.121	-0.181
-114.093	-88.828	0.159	-0.047
-113.078	800.000	-0.038	0.149
-112.064	73.122	-0.295	-0.305
-111.049	-73.919	0.278	-0.100
-110.034	800.000	-0.080	0.219
-109.020	111.365	0.162	0.192
-108.005	212.851	0.127	0.198
-106.991	-149.113	-0.158	-0.013
-105.976	800.000	-0.038	-0.134
-104.962	-181.853	-0.254	-0.005
-103.947	10.761	-0.075	-0.056
-102.932	302.781	0.121	0.221
-101.918	-86.509	-0.069	-0.021
-100.903	-58.855	0.278	-0.119
-99.889	80.987	0.165	0.176
-98.874	272.198	-0.053	-0.092
-97.859	59.214	0.160	0.155
-96.845	540.053	-0.055	0.129
-95.830	-200.000	-0.007	0.225
-94.816	70.344	-0.152	0.155
-93.801	-200.000	-0.028	-0.424
-92.786	-86.023	0.149	-0.046
-91.772	-192.029	-0.096	0.001
-90.757	169.729	-0.052	-0.073
-89.743	-200.000	0.033	0.248
-88.728	-31.826	0.044	-0.024
-87.713	-182.624	-0.422	0.008
-86.699	-95.647	0.298	0.079
-85.684	47.277	0.265	0.243
-84.670	-200.000	-0.014	0.099
-83.655	329.683	-0.101	0.191
-82.640	-109.797	0.118	-0.025
-81.626	328.215	0.027	-0.050
-80.611	-200.000	0.017	0.495
-79.597	-200.000	0.005	0.081
-78.582	-121.246	-0.237	-0.039
-77.567	-200.000	0.014	0.357
-76.553	251.948	0.106	0.178
-75.538	224.851	-0.206	0.328
-74.524	-130.708	-0.130	-0.017
-73.509	-91.036	0.209	-0.059
-72.494	800.000	-0.064	0.259
-71.480	77.745	0.159	-0.167
-70.465	65.255	0.072	0.072
-69.451	-106.552	0.138	0.030
-68.436	-103.261	0.252	-0.059
-67.422	282.037	-0.063	-0.111
-66.407	-153.284	0.034	0.002
-65.392	-40.148	0.138	-0.071
-64.378	36.205	-0.226	0.196
-63.363	76.361	-0.159	0.166
-62.349	-46.073	0.179	0.087
-61.334	-36.680	-1.181	-0.625
-60.319	99.941	0.536	0.612
-59.305	133.982	-0.878	-1.120
-58.290	99.766	1.067	1.217
-57.276	500.715	0.691	1.571
-56.261	-200.000	98.741	569.921
-55.246	493.717	1415.562	3198.912
-54.232	154.464	2596.387	3511.355
-53.217	102.283	2304.238	2651.970
-52.203	39.041	2059.854	1813.757
-51.188	34.219	1975.012	1696.159
-50.173	32.644	1956.744	1666.486
-49.159	47.501	2008.703	1844.253
-48.144	48.824	2026.527	1872.407
-47.130	34.663	1987.867	1710.903
-46.115	32.348	1977.045	1680.863
-45.100	32.284	1974.247	1677.847
-44.086	32.196	1971.839	1674.953
-43.071	32.213	1969.768	1673.279
-42.057	32.190	1967.140	1670.768
-41.042	32.212	1965.648	1669.637
-40.027	32.226	1963.799	1668.125
-39.013	32.316	1961.636	1667.017
-37.998	32.250	1960.402	1665.319
-36.984	32.333	1958.303	1664.202
-35.969	32.394	1956.290	1662.966
-34.954	32.378	1954.337	1661.092
-33.940	32.429	1952.963	1660.314
-32.925	32.424	1951.118	1658.632
-31.911	32.400	1949.727	1657.174
-30.896	32.403	1948.061	1655.718
-29.881	32.403	1946.994	1654.749
-28.867	32.479	1945.213	1653.836
-27.852	32.510	1942.999	1652.163
-26.838	32.457	1940.957	1649.893
-25.823	32.415	1939.637	1648.336
-24.809	32.427	1937.913	1646.912
-23.794	32.340	1936.748	1645.096
-22.779	32.398	1934.239	1643.406
-21.765	32.376	1933.021	1642.112
-20.750	32.457	1930.926	1640.971
-19.736	32.476	1929.666	1640.003
-18.721	32.372	1928.412	1637.964
-17.706	32.478	1926.010	1636.783
-16.692	32.360	1924.812	1634.673
-15.677	32.359	1923.572	1633.551
-14.663	32.476	1921.712	1632.924
-13.648	32.438	1920.358	1631.375
-12.633	32.408	1919.595	1630.402
-11.619	32.399	1918.361	1629.209
-10.604	32.354	1917.177	1627.754
-9.590	32.387	1915.352	1626.419
-8.575	32.440	1913.403	1625.165
-7.560	32.347	1912.875	1623.847
-6.546	32.288	1911.408	1622.026
-5.531	32.354	1909.516	1620.921
-4.517	32.373	1908.360	1620.043
-3.502	32.386	1906.986	1618.922
-2.487	32.371	1905.926	1617.834
-1.473	32.339	1905.466	1617.098
-0.458	32.375	1900.129	1612.816
0.556	29.615	1878.145	1575.496
1.571	23.642	1853.988	1504.630
2.586	18.208	1872.403	1472.798
3.600	16.679	1906.152	1485.798
4.615	16.216	1900.827	1477.461
5.629	12.665	1803.828	1372.394
6.644	5.128	1688.735	1225.703
7.659	0.675	1651.895	1164.592
8.673	0.180	1648.543	1158.313
9.688	0.273	1646.640	1157.588
10.702	0.224	1646.211	1156.812
11.717	0.224	1641.967	1153.722
12.731	0.576	1641.824	1156.218
13.746	6.168	1653.257	1207.192
14.761	13.841	1667.866	1276.989
15.775	17.046	1672.802	1305.349
16.790	17.062	1671.230	1304.126
17.804	16.072	1667.832	1293.764
18.819	15.063	1665.061	1283.768
19.834	14.435	1662.933	1277.204
20.848	14.086	1661.253	1273.124
21.863	13.870	1660.019	1270.418
22.877	13.622	1658.093	1266.935
23.892	13.463	1656.603	1264.468
24.907	13.301	1655.564	1262.331
25.921	13.225	1654.635	1260.930
26.936	13.323	1653.345	1260.582
27.950	13.370	1652.733	1260.362
28.965	13.394	1652.334	1260.126
29.980	13.364	1651.613	1259.235
30.994	13.450	1650.829	1259.185
32.009	13.556	1649.279	1258.692
33.023	13.548	1648.954	1258.276
34.038	13.549	1648.170	1257.574
35.053	13.482	1647.217	1256.222
36.067	13.556	1645.517	1255.380
37.082	13.449	1644.739	1253.865
38.096	13.530	1643.511	1253.427
39.111	13.475	1643.215	1252.674
40.126	13.574	1642.082	1252.451
41.140	13.514	1641.465	1251.413
42.155	13.362	1640.261	1249.238
43.169	13.276	1638.976	1247.503
44.184	13.332	1637.943	1247.029
45.199	13.305	1636.684	1245.751
46.213	13.304	1635.540	1244.768
47.228	13.299	1634.281	1243.659
48.242	13.424	1632.562	1243.178
49.257	13.432	1631.617	1242.410
50.271	13.348	1630.804	1241.055
51.286	13.335	1629.594	1239.928
52.301	13.456	1627.801	1239.358
53.315	13.361	1626.723	1237.713
54.330	13.372	1625.341	1236.636
55.344	13.362	1623.602	1235.131
56.359	13.331	1622.062	1233.621
57.374	13.245	1621.088	1232.124
58.388	13.343	1619.625	1231.634
59.403	13.374	1617.899	1230.448
60.417	13.249	1617.198	1228.874
61.432	13.267	1615.935	1227.938
62.447	13.274	1614.637	1226.898
63.461	13.282	1613.550	1226.021
64.476	13.161	1612.469	1224.194
65.490	13.172	1611.407	1223.362
66.505	13.148	1610.081	1222.070
67.520	13.219	1609.325	1221.913
68.534	13.319	1607.984	1221.527
69.549	13.197	1607.600	1220.221
70.563	13.320	1605.480	1219.415
71.578	13.262	1604.174	1217.884
72.593	13.161	1603.224	1216.316
73.607	13.135	1602.460	1215.432
74.622	13.150	1601.249	1214.521
75.636	13.146	1600.431	1213.763
76.651	13.183	1599.408	1213.146
77.666	13.186	1598.389	1212.289
78.680	13.132	1597.787	1211.331
79.695	13.198	1596.814	1210.968
80.709	13.255	1595.238	1210.088
81.724	13.263	1594.502	1209.476
82.739	13.231	1593.762	1208.579
83.753	13.244	1592.937	1207.942
84.768	13.320	1592.014	1207.687
85.782	13.385	1590.900	1207.207
86.797	13.474	1589.799	1206.915
87.812	13.458	1589.416	1206.402
88.826	13.380	1587.767	1204.478
89.841	13.358	1586.659	1203.371
90.855	13.339	1585.874	1202.527
91.870	13.282	1585.107	1201.424
92.884	13.349	1584.091	1201.039
93.899	13.341	1582.882	1199.952
94.914	13.472	1581.254	1199.561
95.928	13.527	1580.303	1199.138
96.943	13.548	1578.785	1198.025
97.957	13.498	1577.169	1196.338
98.972	13.455	1576.234	1195.213
99.987	13.517	1574.656	1194.354
101.001	13.441	1572.900	1192.371
102.016	13.470	1571.590	1191.478
103.030	13.412	1570.265	1189.952
104.045	13.411	1568.939	1188.836
105.060	13.480	1567.413	1188.071
106.074	13.429	1566.001	1186.526
107.089	13.443	1564.209	1185.169
108.103	13.400	1562.812	1183.692
109.118	13.352	1561.982	1182.616
110.133	13.237	1560.513	1180.580
111.147	13.341	1558.671	1179.823
112.162	13.319	1557.546	1178.712
113.176	13.308	1556.770	1177.940
114.191	13.263	1555.347	1176.444
115.206	13.377	1553.740	1175.932
116.220	13.361	1552.704	1174.928
117.235	13.382	1551.506	1174.071
118.249	13.381	1550.142	1172.927
119.264	13.300	1548.713	1171.163
120.279	13.328	1547.550	1170.380
121.293	13.324	1546.171	1169.208
122.308	13.333	1544.455	1167.870
123.322	13.279	1543.383	1166.577
124.337	13.300	1541.711	1165.353
125.352	13.335	1540.603	1164.661
126.366	13.280	1539.342	1163.221
127.381	13.323	1538.082	1162.467
128.395	13.278	1537.284	1161.444
129.410	13.374	1535.719	1160.834
130.424	13.342	1534.348	1159.465
131.439	13.402	1532.810	1158.621
132.454	13.374	1531.632	1157.436
133.468	13.476	1530.085	1156.872
134.483	13.423	1528.979	1155.569
135.497	13.385	1527.688	1154.227
136.512	13.415	1526.048	1153.095
137.527	13.424	1524.589	1151.950
138.541	13.474	1523.092	1151.062
139.556	13.461	1521.728	1149.845
140.570	13.420	1520.669	1148.658
141.585	13.490	1519.386	1148.071
142.600	13.518	1518.560	1147.540
143.614	13.593	1516.662	1146.519
144.629	13.595	1515.312	1145.416
145.643	13.687	1513.868	1144.859
146.658	13.629	1513.072	1143.750
147.673	13.570	1511.552	1142.095
148.687	13.554	1510.108	1140.792
149.702	13.560	1508.644	1139.630
150.716	13.545	1506.658	1137.922
151.731	13.526	1505.353	1136.709
152.746	13.485	1504.386	1135.593
153.760	13.555	1502.778	1134.761
154.775	13.563	1501.587	1133.816
155.789	13.591	1500.729	1133.256
156.804	13.697	1499.630	1133.051
157.819	13.660	1497.776	1131.300
158.833	13.728	1496.643	1130.810
159.848	13.747	1495.519	1129.988
160.862	13.715	1494.731	1129.077
161.877	13.858	1493.101	1128.717
162.892	13.844	1492.138	1127.790
163.906	13.642	1491.404	1125.768
164.921	13.586	1489.993	1124.223
165.935	13.599	1488.607	1123.162
166.950	13.616	1488.334	1122.971
167.964	13.713	1486.836	1122.399
168.979	13.668	1485.831	1121.241
169.994	13.732	1484.646	1120.676
171.008	13.657	1483.720	1119.375
172.023	13.680	1482.877	1118.796
173.037	13.779	1481.598	1118.399
174.052	13.752	1480.746	1117.475
175.067	13.824	1479.076	1116.595
176.081	13.793	1478.021	1115.493
177.096	13.844	1476.482	1114.575
178.110	13.774	1475.644	1113.375
179.125	13.767	1474.464	1112.338
180.140	13.825	1473.151	1111.641
181.154	13.796	1472.575	1110.911
182.169	13.832	1471.175	1109.996
183.183	13.932	1469.664	1109.427
184.198	13.818	1468.815	1107.925
185.213	13.938	1467.715	1107.802
186.227	13.898	1466.887	1106.809
187.242	13.989	1465.622	1106.364
188.256	13.996	1464.580	1105.528
189.271	13.999	1463.589	1104.700
190.286	14.060	1462.249	1103.999
191.300	14.035	1461.296	1103.014
192.315	13.881	1460.370	1101.194
193.329	13.842	1459.048	1099.845
194.344	13.860	1457.966	1099.053
195.359	13.886	1457.226	1098.569
196.373	13.917	1456.198	1097.898
197.388	14.012	1454.890	1097.443
198.402	13.992	1454.005	1096.547
199.417	14.049	1452.666	1095.818
200.432	14.064	1451.533	1094.963
201.446	14.182	1450.712	1095.024
202.461	14.157	1449.872	1094.127
203.475	14.315	1448.001	1093.658
204.490	14.228	1447.681	1092.744
205.504	14.247	1446.261	1091.702
206.519	14.284	1444.983	1090.883
207.534	14.257	1443.953	1089.832
208.548	14.131	1443.133	1088.292
209.563	14.195	1442.168	1087.891
210.577	14.300	1440.742	1087.401
211.592	14.232	1440.252	1086.490
212.607	14.178	1439.854	1085.742
213.621	14.250	1438.798	1085.318
214.636	14.347	1437.762	1085.076
215.650	14.338	1436.791	1084.188
216.665	14.374	1435.779	1083.561
217.680	14.358	1434.894	1082.696
218.694	14.406	1434.294	1082.457
219.709	14.480	1433.065	1081.917
220.723	14.458	1432.393	1081.171
221.738	14.387	1431.309	1079.798
222.753	14.539	1430.514	1080.083
223.767	14.389	1429.711	1078.411
224.782	14.386	1428.577	1077.442
225.796	14.484	1427.786	1077.386
226.811	14.561	1426.937	1077.143
227.826	14.464	1426.185	1075.858
228.840	14.521	1425.202	1075.388
229.855	14.536	1423.973	1074.461
230.869	14.612	1423.114	1074.207
231.884	14.554	1422.149	1073.011
232.899	14.552	1420.954	1071.998
233.913	14.435	1419.952	1070.397
234.928	14.483	1418.681	1069.654
235.942	14.473	1417.373	1068.511
236.957	14.472	1416.550	1067.788
237.972	14.499	1414.943	1066.652
238.986	14.410	1414.201	1065.432
240.001	14.540	1413.139	1065.366
241.015	14.617	1412.012	1064.917
242.030	14.635	1410.777	1064.002
243.045	14.657	1410.004	1063.464
244.059	14.689	1409.145	1062.930
245.074	14.725	1408.509	1062.581
246.088	14.755	1407.953	1062.259
247.103	14.718	1407.049	1061.247
248.117	14.733	1406.299	1060.687
249.132	14.729	1405.346	1059.848
250.147	14.851	1404.790	1060.107
251.161	14.868	1403.804	1059.377
252.176	14.893	1403.411	1059.145
253.190	14.850	1403.063	1058.518
254.205	15.000	1401.677	1058.324
255.220	14.930	1401.129	1057.376
256.234	15.077	1400.042	1057.391
257.249	15.024	1399.198	1056.324
258.263	15.002	1398.255	1055.383
259.278	15.098	1397.738	1055.504
260.293	15.078	1396.451	1054.311
261.307	15.114	1396.013	1054.118
262.322	15.155	1395.344	1053.774
263.336	15.167	1394.565	1053.165
264.351	15.117	1393.426	1051.903
265.366	15.183	1392.597	1051.594
266.380	15.281	1391.068	1050.962
267.395	15.263	1390.137	1050.055
268.409	15.324	1389.693	1050.009
269.424	15.188	1388.720	1048.326
270.439	15.214	1387.511	1047.484
271.453	15.208	1386.511	1046.601
272.468	15.221	1385.631	1045.923
273.482	15.270	1385.354	1045.930
274.497	15.167	1384.456	1044.518
275.512	15.189	1383.617	1043.926
276.526	15.222	1382.719	1043.363
277.541	15.274	1381.357	1042.568
278.555	15.251	1380.687	1041.828
279.570	15.344	1380.012	1041.804
280.585	15.318	1379.129	1040.884
281.599	15.340	1378.316	1040.309
282.614	15.449	1377.540	1040.310
283.628	15.335	1376.139	1038.454
284.643	15.393	1375.254	1038.056
285.657	15.405	1374.042	1037.119
286.672	15.452	1373.165	1036.656
287.687	15.370	1373.160	1036.054
288.701	15.378	1371.590	1034.830
289.716	15.422	1370.806	1034.418
290.730	15.532	1369.784	1034.230
291.745	15.545	1368.423	1033.191
292.760	15.468	1367.989	1032.302
293.774	15.503	1366.994	1031.670
294.789	15.596	1365.983	1031.387
295.803	15.485	1365.780	1030.465
296.818	15.640	1364.668	1030.484
297.833	15.570	1363.222	1028.874
298.847	15.509	1362.108	1027.564
299.862	15.570	1361.165	1027.135
300.876	15.614	1360.360	1026.710
301.891	15.724	1359.584	1026.701
302.906	15.648	1358.743	1025.512
303.920	15.676	1358.414	1025.346
304.935	15.750	1357.350	1024.903
305.949	15.811	1356.365	1024.440
306.964	15.809	1355.783	1023.896
307.979	16.003	1354.458	1023.986
308.993	15.810	1353.856	1022.264
310.008	15.790	1353.377	1021.696
311.022	15.744	1352.116	1020.373
312.037	15.936	1350.962	1020.575
313.052	15.887	1350.227	1019.635
314.066	15.875	1349.286	1018.758
315.081	15.927	1348.048	1018.049
316.095	15.726	1347.642	1016.436
317.110	15.700	1346.295	1015.172
318.125	15.893	1345.083	1015.333
319.139	15.840	1344.336	1014.360
320.154	15.787	1343.615	1013.410
321.168	15.839	1342.486	1012.781
322.183	15.770	1341.769	1011.736
323.197	15.975	1339.929	1011.485
324.212	15.958	1339.804	1011.204
325.227	15.916	1338.825	1010.123
326.241	15.996	1338.124	1009.982
327.256	16.001	1336.922	1009.016
328.270	15.873	1336.615	1007.929
329.285	15.995	1335.548	1007.766
330.300	15.992	1334.387	1006.781
331.314	16.047	1333.767	1006.555
332.329	15.996	1332.845	1005.464
333.343	15.952	1331.706	1004.256
334.358	16.013	1331.104	1004.077
335.373	16.094	1330.290	1003.853
336.387	16.076	1329.264	1002.885
337.402	16.121	1328.741	1002.666
338.416	16.080	1328.094	1001.847
339.431	16.169	1327.774	1002.044
340.446	16.173	1326.656	1001.137
341.460	16.259	1325.530	1000.708
342.475	16.289	1324.557	1000.065
343.489	16.215	1323.660	998.863
344.504	16.426	1322.724	999.316
345.519	16.349	1322.241	998.403
346.533	16.262	1321.746	997.429
347.548	16.380	1320.448	997.059
348.562	16.452	1319.432	996.628
349.577	16.443	1318.888	996.075
350.592	16.359	1318.242	995.004
351.606	16.335	1317.284	994.053
352.621	16.411	1315.865	993.338
353.635	16.453	1314.718	992.633
354.650	16.333	1314.524	991.692
355.665	16.331	1313.176	990.574
356.679	16.398	1312.014	990.005
357.694	16.447	1311.228	989.609
358.708	16.464	1310.327	988.942
359.723	16.543	1308.981	988.299
360.738	16.501	1307.794	987.074
361.752	16.418	1307.057	985.948
362.767	16.488	1305.994	985.462
363.781	16.400	1305.139	984.218
364.796	16.644	1304.290	984.910
365.810	16.481	1304.044	983.689
366.825	16.591	1303.264	983.654
367.840	16.740	1302.157	983.596
368.854	16.552	1301.521	981.938
369.869	16.647	1301.150	982.123
370.883	16.738	1300.295	981.919
371.898	16.736	1299.742	981.402
372.913	16.674	1298.743	980.202
373.927	16.782	1297.670	979.931
374.942	16.717	1297.487	979.329
375.956	16.731	1296.289	978.422
376.971	16.817	1295.605	978.315
377.986	16.771	1294.827	977.376
379.000	16.847	1294.075	977.158
380.015	16.770	1293.264	976.018
381.029	16.795	1292.622	975.588
382.044	16.867	1292.047	975.486
383.059	16.919	1290.995	974.904
384.073	16.918	1290.275	974.267
385.088	16.910	1289.955	973.891
386.102	17.047	1288.938	973.824
387.117	17.039	1288.230	973.155
388.132	17.045	1287.363	972.450
389.146	16.957	1286.573	971.261
390.161	16.924	1285.490	970.173
391.175	17.069	1284.579	970.226
392.190	17.021	1284.041	969.461
393.205	16.984	1283.437	968.707
394.219	17.084	1282.243	968.290
395.234	17.103	1280.970	967.349
396.248	16.972	1280.060	965.832
397.263	17.004	1278.710	964.910
398.278	17.004	1277.401	963.838
399.292	17.052	1276.062	963.017
400.307	17.132	1275.430	962.904
401.321	17.065	1274.258	961.556
402.336	16.996	1273.216	960.292
403.350	16.993	1272.452	959.617
404.365	17.132	1271.251	959.412
405.380	17.030	1270.790	958.402
406.394	17.087	1269.931	957.990
407.409	17.039	1269.806	957.540
408.423	17.127	1269.113	957.433
409.438	17.190	1268.056	956.905
410.453	17.193	1267.151	956.151
411.467	17.329	1266.071	956.018
412.482	17.407	1265.829	956.190
413.496	17.346	1265.187	955.278
414.511	17.391	1264.556	954.970
415.526	17.463	1263.274	954.321
416.540	17.462	1263.077	954.082
417.555	17.509	1261.961	953.417
418.569	17.420	1261.539	952.517
419.584	17.468	1261.326	952.541
420.599	17.470	1260.526	951.863
421.613	95.592	1349.778	1463.349
422.628	93.034	1362.754	1463.463
