DTS Sentinel unit serial number:	SN413079Multiplexer serial number:	ORYXHardware model number:	OX4-SRSoftware version number:	ORYX F/W v4.00 Oryx Data Collector v3.7.2.0data status	okinstallation	princeton_trtdifferential loss correction	single-endedforward channel	channel 4reverse channel	N/Adate	2019/09/19time	02:37:35forward acquisition time	60.00reverse acquisition time	0.00gamma	496.2192k internal	0.2340k external	0.2340temperature offset calibration	1.0027default loss term (dB/km)	0.3790temperature slope calibration	1.0000multiplexer offset coefficient	1.0000multiplexer slope coefficient	1.0000fibre end	0.00T internal ref (°C)	20.97T ext. ref 1 (°C)	0.66T ext. ref 2 (°C)	14.70length (m)	temperature (°C)	Stokes	anti-Stokes-747.200	-72.471	-0.013	-0.005
-746.185	-127.568	0.251	-0.036
-745.171	-162.297	-0.393	0.020
-744.156	-151.313	-0.091	-0.007
-743.142	-147.231	0.166	-0.014
-742.127	800.000	-0.084	0.333
-741.112	-36.888	0.115	-0.062
-740.098	420.913	-0.205	0.440
-739.083	-21.568	-0.128	-0.078
-738.069	-59.795	-0.227	0.098
-737.054	272.116	0.064	0.113
-736.039	-3.767	-0.208	-0.145
-735.025	458.630	0.167	-0.373
-734.010	12.972	-0.207	-0.160
-732.996	14.451	-0.124	-0.097
-731.981	-104.982	-0.108	-0.025
-730.966	800.000	-0.048	0.169
-729.952	323.316	0.075	-0.143
-728.937	215.870	-0.089	-0.141
-727.923	-126.424	0.058	0.009
-726.908	800.000	-0.049	-0.212
-725.894	105.946	-0.056	-0.067
-724.879	179.096	0.044	0.064
-723.864	85.268	-0.165	0.181
-722.850	29.517	-0.069	0.059
-721.835	800.000	-0.049	0.181
-720.821	-13.082	-0.147	0.096
-719.806	-200.000	0.067	0.575
-718.791	-200.000	-0.018	0.120
-717.777	50.824	0.071	0.067
-716.762	-156.748	0.213	-0.013
-715.748	-200.000	-0.017	0.119
-714.733	134.851	0.172	-0.224
-713.718	71.872	0.148	0.155
-712.704	180.461	0.081	0.119
-711.689	800.000	-0.062	-0.186
-710.675	-1.580	0.176	-0.124
-709.660	-110.453	-0.259	-0.054
-708.645	-200.000	-0.202	-0.001
-707.631	207.754	0.192	-0.300
-706.616	789.233	-0.174	-0.480
-705.602	284.918	-0.182	0.327
-704.587	-200.000	-0.039	0.216
-703.572	-200.000	0.006	-0.089
-702.558	-140.865	0.228	0.023
-701.543	308.012	-0.052	-0.098
-700.529	-165.968	-0.258	0.011
-699.514	-107.286	0.226	-0.050
-698.499	-200.000	-0.050	-0.291
-697.485	-200.000	-0.056	-0.261
-696.470	260.018	-0.111	0.192
-695.456	377.292	0.113	0.231
-694.441	-150.545	0.283	0.022
-693.426	596.903	0.095	-0.236
-692.412	211.941	0.116	-0.182
-691.397	426.401	-0.116	-0.249
-690.383	-71.595	-0.105	-0.039
-689.368	415.086	-0.067	-0.142
-688.354	87.682	-0.256	-0.284
-687.339	-81.864	-0.019	-0.006
-686.324	113.349	0.121	0.147
-685.310	37.557	-0.242	0.214
-684.295	100.112	0.255	-0.296
-683.281	-5.568	-0.123	0.084
-682.266	41.234	0.126	0.114
-681.251	-200.000	-0.033	0.463
-680.237	353.134	0.157	-0.311
-679.222	-200.000	0.074	-0.334
-678.208	749.376	-0.053	0.144
-677.193	119.462	0.231	-0.287
-676.178	117.846	-0.055	0.067
-675.164	-118.012	-0.163	0.029
-674.149	-50.683	-0.363	-0.171
-673.135	-143.715	0.119	-0.011
-672.120	140.584	-0.058	0.077
-671.105	626.642	-0.114	-0.288
-670.091	326.828	0.020	0.037
-669.076	-200.000	0.027	0.236
-668.062	384.841	-0.091	-0.188
-667.047	641.123	-0.120	-0.305
-666.032	-104.549	0.185	0.043
-665.018	-136.715	0.321	-0.037
-664.003	-200.000	-0.014	0.196
-662.989	-114.093	-0.209	0.040
-661.974	-7.632	-0.173	-0.117
-660.959	-105.727	-0.313	0.071
-659.945	800.000	-0.129	0.423
-658.930	-140.144	-0.332	-0.035
-657.916	85.604	0.130	-0.143
-656.901	-200.000	0.018	0.148
-655.886	-200.000	0.011	0.241
-654.872	66.957	-0.131	0.133
-653.857	36.139	-0.091	0.080
-652.843	-200.000	-0.055	-0.328
-651.828	316.586	0.079	-0.148
-650.814	302.887	0.125	-0.231
-649.799	-200.000	-0.022	-0.116
-648.784	-121.610	0.121	-0.020
-647.770	-53.458	0.194	0.089
-646.755	120.640	-0.237	-0.294
-645.741	-126.438	-0.164	-0.024
-644.726	-110.502	-0.163	-0.034
-643.711	-92.681	0.257	0.072
-642.697	71.951	-0.113	-0.118
-641.682	89.600	-0.060	0.067
-640.668	-81.973	-0.415	0.135
-639.653	145.169	0.205	-0.274
-638.638	19.081	-0.295	0.236
-637.624	-200.000	-0.034	0.192
-636.609	-124.639	0.385	0.060
-635.595	217.819	-0.217	-0.346
-634.580	-168.367	0.352	-0.013
-633.565	270.829	-0.122	-0.215
-632.551	-89.379	0.251	0.074
-631.536	-200.000	0.021	-0.255
-630.522	-134.081	0.359	0.044
-629.507	77.015	-0.171	0.181
-628.492	265.740	0.101	0.177
-627.478	383.737	0.036	-0.073
-626.463	-38.828	-0.312	0.164
-625.449	800.000	0.092	-0.260
-624.434	-200.000	-0.035	-0.207
-623.419	-200.000	-0.016	-0.090
-622.405	51.411	0.140	-0.133
-621.390	347.083	0.116	0.228
-620.376	119.234	0.127	0.157
-619.361	34.866	-0.223	-0.195
-618.346	61.466	0.122	-0.121
-617.332	-108.187	0.301	-0.065
-616.317	-99.202	-0.220	-0.056
-615.303	342.600	0.050	-0.097
-614.288	-200.000	0.019	0.202
-613.273	-22.253	-0.014	-0.009
-612.259	7.288	-0.185	-0.138
-611.244	-185.959	-0.205	0.003
-610.230	175.725	-0.075	-0.109
-609.215	-93.716	-0.074	-0.020
-608.201	25.797	-0.109	-0.091
-607.186	171.897	0.016	0.023
-606.171	800.000	-0.060	0.183
-605.157	800.000	-0.070	-0.234
-604.142	-11.912	-0.167	-0.109
-603.128	-45.765	-0.132	-0.065
-602.113	-26.485	-0.201	0.117
-601.098	189.224	0.177	0.264
-600.084	-62.737	0.088	-0.036
-599.069	-29.175	0.045	-0.026
-598.055	311.391	0.063	-0.118
-597.040	800.000	-0.026	0.090
-596.025	425.724	-0.039	-0.085
-595.011	-130.282	0.177	0.024
-593.996	652.980	0.082	0.209
-592.982	0.963	-0.126	0.090
-591.967	-97.665	-0.245	-0.063
-590.952	-29.161	-0.122	-0.069
-589.938	-129.327	-0.231	0.032
-588.923	-119.809	-0.288	-0.049
-587.909	-200.000	-0.027	-0.271
-586.894	-78.801	0.211	0.072
-585.879	1.833	-0.184	-0.132
-584.865	6.666	-0.188	-0.139
-583.850	130.961	0.310	0.397
-582.836	145.484	0.166	-0.221
-581.821	-200.000	-0.076	-0.398
-580.806	-13.588	-0.252	-0.163
-579.792	-57.132	0.163	0.072
-578.777	440.302	-0.148	0.323
-577.763	544.253	-0.088	-0.210
-576.748	-45.515	0.155	0.077
-575.733	-98.582	-0.176	0.045
-574.719	800.000	-0.025	0.090
-573.704	-40.783	0.248	-0.128
-572.690	0.482	-0.150	0.107
-571.675	20.030	0.117	-0.094
-570.661	156.694	-0.104	0.143
-569.646	-200.000	-0.013	-0.147
-568.631	59.819	-0.110	-0.108
-567.617	-82.283	-0.131	0.042
-566.602	253.169	-0.164	-0.278
-565.588	59.496	-0.115	0.113
-564.573	800.000	-0.034	-0.119
-563.558	413.084	-0.130	-0.275
-562.544	1.452	-0.146	-0.104
-561.529	58.872	-0.031	0.030
-560.515	274.429	-0.022	0.038
-559.500	226.457	-0.100	0.162
-558.485	625.739	-0.007	-0.018
-557.471	-92.983	-0.253	0.070
-556.456	-200.000	0.003	-0.197
-555.442	800.000	-0.069	0.244
-554.427	160.615	0.110	0.153
-553.412	2.826	0.300	-0.216
-552.398	72.361	0.091	0.094
-551.383	346.618	-0.111	-0.218
-550.369	-119.706	0.279	0.048
-549.354	-71.109	0.407	0.152
-548.339	255.874	0.095	-0.162
-547.325	-104.252	0.246	0.057
-546.310	-137.833	-0.099	0.011
-545.296	800.000	-0.102	-0.314
-544.281	291.424	0.061	-0.110
-543.266	-87.454	-0.053	-0.016
-542.252	-200.000	-0.003	-0.121
-541.237	197.839	0.047	-0.071
-540.223	-139.583	0.233	-0.025
-539.208	97.072	-0.143	-0.163
-538.193	41.498	-0.203	-0.183
-537.179	140.632	-0.145	0.191
-536.164	-200.000	-0.034	0.281
-535.150	-14.933	-0.131	-0.083
-534.135	172.678	-0.185	-0.265
-533.121	44.359	-0.227	-0.207
-532.106	336.737	0.099	0.191
-531.091	88.481	0.028	0.030
-530.077	-200.000	-0.017	-0.077
-529.062	-200.000	-0.005	-0.054
-528.048	800.000	-0.020	-0.078
-527.033	249.416	-0.120	-0.203
-526.018	-100.984	-0.158	-0.039
-525.004	-200.000	-0.005	-0.198
-523.989	-26.610	-0.170	-0.099
-522.975	-200.000	0.002	-0.238
-521.960	-11.546	0.254	0.166
-520.945	-158.918	0.341	0.019
-519.931	627.809	-0.150	0.378
-518.916	-56.959	0.065	-0.028
-517.902	-64.799	0.199	-0.080
-516.887	423.585	-0.204	0.436
-515.872	-6.118	-0.252	-0.171
-514.858	-76.107	0.033	-0.011
-513.843	800.000	0.066	0.262
-512.829	-109.172	-0.167	-0.035
-511.814	-19.515	-0.221	-0.136
-510.799	800.000	-0.024	-0.099
-509.785	-200.000	-0.013	-0.166
-508.770	-121.235	0.238	-0.039
-507.756	-200.000	0.024	0.204
-506.741	-200.000	0.044	-0.460
-505.726	-189.921	-0.151	0.002
-504.712	719.212	-0.051	0.136
-503.697	-191.131	0.252	0.003
-502.683	-84.911	-0.149	-0.047
-501.668	800.000	0.050	0.141
-500.653	-86.292	-0.290	0.089
-499.639	-55.706	0.326	-0.145
-498.624	215.129	-0.062	-0.098
-497.610	-157.786	0.368	0.022
-496.595	-23.459	-0.256	0.153
-495.581	-15.892	-0.168	0.106
-494.566	243.520	-0.088	0.146
-493.551	-68.126	0.203	0.079
-492.537	287.014	-0.165	-0.296
-491.522	286.647	-0.118	-0.212
-490.508	-200.000	-0.061	-0.332
-489.493	358.351	0.142	0.282
-488.478	-200.000	0.009	0.180
-487.464	139.527	0.080	-0.105
-486.449	23.992	0.103	-0.085
-485.435	-50.472	-0.083	0.039
-484.420	800.000	0.095	0.285
-483.405	31.726	-0.054	-0.046
-482.391	-129.981	-0.121	-0.016
-481.376	146.862	0.046	-0.061
-480.362	116.700	-0.193	0.234
-479.347	-42.960	0.198	-0.100
-478.332	-200.000	0.007	0.036
-477.318	0.209	0.176	0.124
-476.303	50.772	-0.297	0.279
-475.289	484.231	-0.124	0.279
-474.274	-61.234	-0.095	0.040
-473.259	-6.915	-0.093	0.063
-472.245	-200.000	-0.001	0.057
-471.230	-200.000	-0.008	-0.172
-470.216	-200.000	0.005	-0.062
-469.201	-200.000	0.043	0.227
-468.186	-81.065	-0.273	0.090
-467.172	316.137	-0.146	-0.273
-466.157	80.356	-0.102	-0.109
-465.143	800.000	0.059	0.162
-464.128	-110.757	-0.257	-0.052
-463.113	449.284	-0.283	0.619
-462.099	165.831	0.265	-0.372
-461.084	-117.378	0.325	-0.058
-460.070	-200.000	0.059	0.332
-459.055	388.094	-0.093	0.191
-458.040	800.000	0.080	-0.258
-457.026	283.549	-0.177	0.315
-456.011	-55.692	0.278	0.123
-454.997	-200.000	-0.020	0.144
-453.982	-148.128	0.125	0.010
-452.968	131.124	-0.062	0.078
-451.953	-109.923	0.619	0.129
-450.938	63.597	-0.081	0.081
-449.924	-23.993	-0.402	-0.238
-448.909	-5.571	0.261	0.177
-447.895	-134.885	-0.365	-0.044
-446.880	64.406	0.283	0.283
-445.865	-8.476	-0.246	-0.164
-444.851	205.042	0.161	0.247
-443.836	273.681	0.152	0.266
-442.822	382.640	-0.121	-0.246
-441.807	-200.000	0.047	-0.230
-440.792	601.572	0.053	-0.131
-439.778	691.766	-0.127	0.330
-438.763	42.723	0.202	0.182
-437.749	800.000	0.084	0.310
-436.734	-200.000	0.014	-0.061
-435.719	-5.280	0.281	0.191
-434.705	-86.800	-0.265	-0.080
-433.690	-29.489	0.043	0.024
-432.676	183.114	0.079	-0.116
-431.661	-200.000	-0.001	0.130
-430.646	276.832	0.129	0.226
-429.632	70.465	0.084	0.086
-428.617	-200.000	-0.018	-0.096
-427.603	-200.000	-0.078	-0.530
-426.588	-200.000	-0.015	-0.372
-425.573	472.366	-0.100	0.223
-424.559	-62.022	-0.288	0.119
-423.544	276.543	0.205	0.361
-422.530	166.417	0.082	0.115
-421.515	-200.000	-0.021	-0.181
-420.500	800.000	0.047	0.180
-419.486	-92.470	-0.225	0.063
-418.471	-200.000	0.017	-0.136
-417.457	281.971	0.128	0.227
-416.442	-79.041	-0.246	-0.083
-415.428	38.220	-0.075	0.066
-414.413	452.926	-0.065	-0.143
-413.398	-46.733	0.080	0.039
-412.384	3.445	0.120	-0.087
-411.369	-161.719	0.276	0.014
-410.355	389.415	0.071	0.145
-409.340	-124.005	-0.209	-0.032
-408.325	800.000	0.081	-0.246
-407.311	456.455	0.113	0.247
-406.296	-107.444	-0.061	-0.013
-405.282	800.000	0.030	0.103
-404.267	-200.000	0.008	-0.143
-403.252	-106.482	0.173	0.038
-402.238	357.175	-0.092	0.181
-401.223	800.000	-0.029	0.091
-400.209	-84.107	-0.108	-0.034
-399.194	440.140	-0.099	-0.215
-398.179	51.671	-0.157	0.147
-397.165	-50.315	-0.228	-0.107
-396.150	-16.385	0.267	0.167
-395.136	-9.591	-0.344	0.227
-394.121	77.100	-0.082	0.087
-393.106	-2.106	0.012	-0.009
-392.092	531.827	-0.046	-0.108
-391.077	-80.287	0.426	-0.141
-390.063	-5.859	0.348	-0.236
-389.048	800.000	-0.130	-0.464
-388.033	713.897	0.062	0.161
-387.019	-42.883	0.229	0.115
-386.004	-200.000	0.019	0.132
-384.990	460.893	0.054	0.119
-383.975	-200.000	-0.009	-0.158
-382.960	-200.000	0.010	-0.109
-381.946	33.654	0.319	-0.274
-380.931	61.442	-0.125	0.122
-379.917	326.701	-0.099	-0.187
-378.902	-200.000	-0.001	0.085
-377.888	-200.000	-0.011	-0.075
-376.873	-104.151	-0.077	-0.018
-375.858	-200.000	0.033	0.284
-374.844	-65.594	0.338	-0.134
-373.829	800.000	-0.044	0.127
-372.815	800.000	0.073	0.217
-371.800	800.000	-0.074	-0.243
-370.785	-200.000	-0.024	-0.173
-369.771	-7.029	0.118	0.079
-368.756	-200.000	0.016	0.117
-367.742	-86.417	-0.048	0.015
-366.727	-200.000	0.014	0.689
-365.712	-34.385	0.183	0.099
-364.698	-101.165	0.230	0.056
-363.683	-108.658	-0.114	0.024
-362.669	-89.196	-0.219	-0.064
-361.654	-49.385	-0.304	0.143
-360.639	-108.244	-0.182	-0.039
-359.625	92.766	-0.272	0.304
-358.610	-153.522	-0.147	0.010
-357.596	2.260	0.118	0.084
-356.581	800.000	0.069	-0.281
-355.566	31.882	0.105	-0.089
-354.552	-200.000	0.045	0.228
-353.537	90.716	0.201	-0.222
-352.523	14.331	0.083	-0.064
-351.508	8.200	-0.097	-0.072
-350.493	-28.793	-0.284	-0.161
-349.479	800.000	0.032	-0.123
-348.464	265.089	-0.110	-0.189
-347.450	-52.881	-0.173	-0.079
-346.435	-72.516	0.167	-0.061
-345.420	303.313	0.103	0.188
-344.406	-113.688	0.142	0.027
-343.391	-127.368	-0.392	0.056
-342.377	36.361	0.309	0.269
-341.362	800.000	-0.038	-0.109
-340.348	-21.246	-0.171	0.103
-339.333	110.266	-0.156	-0.185
-338.318	-78.471	-0.219	0.074
-337.304	800.000	0.105	-0.304
-336.289	-200.000	0.024	-0.228
-335.275	600.902	-0.089	-0.219
-334.260	800.000	-0.056	-0.218
-333.245	74.807	0.168	0.175
-332.231	-85.269	-0.277	0.085
-331.216	-32.904	0.104	-0.057
-330.202	-24.938	0.099	0.058
-329.187	800.000	0.041	0.153
-328.172	-200.000	-0.001	0.254
-327.158	-115.562	-0.366	0.068
-326.143	318.194	-0.133	-0.248
-325.129	-163.076	-0.052	-0.002
-324.114	-96.518	0.261	-0.068
-323.099	-80.382	-0.030	-0.010
-322.085	163.456	-0.062	-0.085
-321.070	-200.000	0.095	-0.479
-320.056	198.515	0.114	-0.172
-319.041	250.129	0.074	0.123
-318.026	560.422	-0.187	0.445
-317.012	138.754	0.171	0.222
-315.997	800.000	0.105	0.362
-314.983	219.203	0.183	-0.288
-313.968	34.176	0.137	0.117
-312.953	800.000	0.092	0.341
-311.939	388.059	0.102	0.207
-310.924	-200.000	0.004	-0.175
-309.910	-200.000	0.071	-0.310
-308.895	-113.393	0.092	0.018
-307.880	-82.900	-0.247	-0.079
-306.866	92.100	0.170	0.188
-305.851	-151.897	-0.206	0.015
-304.837	660.271	-0.105	-0.267
-303.822	-129.764	-0.243	-0.033
-302.807	-73.077	-0.327	-0.118
-301.793	-78.572	-0.181	0.061
-300.778	800.000	-0.087	0.303
-299.764	468.780	0.109	0.241
-298.749	201.281	-0.206	-0.313
-297.735	78.056	0.258	0.271
-296.720	249.126	-0.327	0.546
-295.705	-200.000	0.041	-0.448
-294.691	-110.145	-0.227	0.047
-293.676	800.000	0.183	0.509
-292.662	36.728	-0.179	-0.156
-291.647	11.521	0.380	0.287
-290.632	800.000	0.051	-0.198
-289.618	-12.929	0.321	-0.206
-288.603	-200.000	-0.026	0.330
-287.589	146.581	-0.212	0.280
-286.574	72.449	-0.158	-0.163
-285.559	5.373	-0.153	0.111
-284.545	124.661	-0.182	0.225
-283.530	-200.000	-0.033	0.181
-282.516	-126.675	-0.607	0.088
-281.501	-200.000	0.013	0.079
-280.486	-200.000	0.029	-0.231
-279.472	-200.000	-0.016	-0.098
-278.457	252.770	-0.220	-0.370
-277.443	-22.768	0.142	0.085
-276.428	-126.243	-0.147	-0.022
-275.413	384.288	-0.055	-0.111
-274.399	800.000	-0.048	-0.195
-273.384	71.698	-0.114	-0.117
-272.370	594.368	0.170	-0.413
-271.355	28.557	0.170	-0.142
-270.340	346.373	0.074	0.143
-269.326	34.091	0.240	-0.206
-268.311	-143.457	0.215	0.020
-267.297	31.271	0.153	-0.129
-266.282	800.000	0.065	-0.270
-265.267	-200.000	0.017	0.245
-264.253	-84.745	0.058	-0.018
-263.238	511.497	-0.062	-0.142
-262.224	-16.352	0.128	0.080
-261.209	-76.068	-0.301	-0.105
-260.195	-82.226	-0.174	-0.056
-259.180	-188.116	-0.130	-0.002
-258.165	-34.657	0.090	0.048
-257.151	-81.021	-0.150	-0.049
-256.136	86.781	-0.033	0.036
-255.122	430.911	0.267	-0.569
-254.107	-49.476	-0.218	-0.102
-253.092	-118.672	-0.093	-0.016
-252.078	-82.751	0.264	0.084
-251.063	800.000	0.059	-0.175
-250.049	9.605	0.178	-0.133
-249.034	175.930	-0.228	-0.325
-248.019	229.289	-0.072	-0.115
-247.005	48.285	0.251	-0.231
-245.990	797.957	0.066	-0.179
-244.976	221.114	-0.105	-0.165
-243.961	-200.000	0.059	0.291
-242.946	118.700	0.090	0.109
-241.932	137.334	-0.020	-0.026
-240.917	-41.213	-0.092	-0.046
-239.903	405.709	0.097	-0.201
-238.888	-13.151	0.258	0.165
-237.873	203.188	-0.176	0.267
-236.859	-200.000	0.060	-0.291
-235.844	-200.000	0.007	-0.136
-234.830	5.230	0.158	0.115
-233.815	800.000	0.094	-0.304
-232.800	297.396	0.159	-0.287
-231.786	-45.574	0.377	0.184
-230.771	-89.985	-0.256	0.073
-229.757	132.798	-0.185	0.234
-228.742	-85.496	0.406	-0.124
-227.727	-200.000	-0.032	-0.282
-226.713	171.426	0.175	-0.247
-225.698	-200.000	-0.032	0.372
-224.684	19.757	-0.028	-0.022
-223.669	13.253	-0.081	0.061
-222.655	-200.000	0.206	0.000
-221.640	22.016	-0.133	0.107
-220.625	-200.000	-0.003	0.219
-219.611	273.388	-0.081	-0.141
-218.596	6.713	0.082	-0.060
-217.582	139.356	0.098	-0.126
-216.567	800.000	-0.092	0.346
-215.552	12.975	0.257	-0.195
-214.538	113.773	-0.121	-0.144
-213.523	570.482	0.028	0.067
-212.509	-66.513	-0.101	0.039
-211.494	800.000	-0.040	-0.157
-210.479	-200.000	0.043	0.186
-209.465	-200.000	0.025	0.255
-208.450	40.766	-0.088	-0.078
-207.436	295.252	0.132	-0.237
-206.421	-130.445	0.141	-0.019
-205.406	76.573	-0.231	-0.240
-204.392	611.559	0.102	0.251
-203.377	30.678	0.330	-0.277
-202.363	800.000	0.050	-0.188
-201.348	-200.000	-0.075	0.331
-200.333	-141.925	0.051	0.005
-199.319	145.057	0.205	0.269
-198.304	-17.930	0.337	-0.208
-197.290	-144.716	0.127	0.011
-196.275	-120.294	-0.013	0.002
-195.260	-137.945	0.129	-0.014
-194.246	-48.866	0.135	0.063
-193.231	-42.231	0.192	-0.096
-192.217	-200.000	-0.083	0.397
-191.202	-101.109	0.156	0.038
-190.187	219.426	-0.210	0.330
-189.173	100.248	0.123	0.140
-188.158	800.000	0.031	-0.122
-187.144	-155.872	0.359	0.022
-186.129	378.146	-0.076	0.152
-185.114	-147.735	-0.264	-0.022
-184.100	-0.612	0.212	-0.148
-183.085	-72.307	0.247	0.090
-182.071	-23.871	-0.149	0.088
-181.056	-9.043	0.276	0.181
-180.042	-81.671	-0.140	0.045
-179.027	0.298	-0.135	0.095
-178.012	-200.000	0.001	0.049
-176.998	-21.828	-0.317	-0.189
-175.983	-18.720	0.365	-0.223
-174.969	-18.359	0.184	0.113
-173.954	-84.096	0.174	0.054
-172.939	800.000	0.065	0.195
-171.925	46.816	0.186	-0.169
-170.910	-200.000	-0.005	0.155
-169.896	-81.821	-0.042	-0.013
-168.881	-82.882	0.527	-0.167
-167.866	-200.000	-0.039	0.203
-166.852	-200.000	-0.025	-0.165
-165.837	800.000	-0.136	0.387
-164.823	800.000	-0.063	0.269
-163.808	169.759	0.108	0.151
-162.793	18.370	0.212	0.166
-161.779	-129.265	-0.235	0.032
-160.764	-59.856	-0.097	0.041
-159.750	-200.000	0.002	-0.198
-158.735	90.282	-0.184	0.202
-157.720	-12.402	0.203	0.130
-156.706	51.198	-0.162	0.150
-155.691	240.232	-0.031	0.051
-154.677	445.756	0.076	0.163
-153.662	-200.000	0.017	-0.220
-152.647	-82.490	-0.350	0.111
-151.633	-77.070	0.187	-0.064
-150.618	-166.584	0.206	-0.008
-149.604	46.893	-0.112	-0.102
-148.589	87.568	-0.076	-0.083
-147.574	74.122	0.309	0.317
-146.560	800.000	0.075	0.247
-145.545	-200.000	0.018	0.169
-144.531	-111.852	0.194	0.038
-143.516	-200.000	-0.008	0.265
-142.502	-200.000	-0.082	0.451
-141.487	-40.224	0.257	0.131
-140.472	-92.024	-0.301	0.084
-139.458	800.000	0.093	-0.348
-138.443	-200.000	0.021	0.136
-137.429	402.295	0.090	-0.185
-136.414	-45.929	-0.122	-0.059
-135.399	-72.813	-0.085	0.031
-134.385	405.730	0.132	0.273
-133.370	-26.471	-0.083	0.048
-132.356	376.738	0.014	0.029
-131.341	-200.000	0.004	-0.092
-130.326	-200.000	-0.011	-0.124
-129.312	-132.920	0.190	-0.024
-128.297	54.308	0.108	-0.102
-127.283	-67.019	0.569	-0.220
-126.268	-12.715	0.242	0.155
-125.253	-200.000	-0.016	-0.130
-124.239	93.213	-0.136	-0.150
-123.224	104.223	0.135	0.155
-122.210	55.134	-0.073	0.069
-121.195	-117.333	0.140	0.025
-120.180	-200.000	0.021	-0.203
-119.166	-131.536	-0.108	-0.014
-118.151	293.983	-0.129	-0.230
-117.137	111.411	0.039	-0.046
-116.122	-128.657	0.118	-0.016
-115.107	-200.000	0.046	-0.203
-114.093	-200.000	0.026	0.185
-113.078	34.338	0.102	-0.087
-112.064	-200.000	-0.083	-0.369
-111.049	-113.195	0.119	0.023
-110.034	330.527	-0.057	0.108
-109.020	55.108	-0.098	0.093
-108.005	11.480	0.264	0.198
-106.991	-60.564	-0.194	0.081
-105.976	43.452	0.040	0.035
-104.962	-200.000	0.038	0.303
-103.947	-9.587	-0.223	-0.145
-102.932	-160.184	-0.042	0.002
-101.918	-140.664	0.500	0.051
-100.903	179.960	0.155	-0.222
-99.889	238.547	-0.105	-0.170
-98.874	8.401	0.019	-0.014
-97.859	492.173	-0.030	-0.068
-96.845	-200.000	0.031	0.332
-95.830	800.000	-0.056	0.170
-94.816	396.136	-0.137	0.279
-93.801	628.750	-0.130	0.320
-92.786	-165.277	-0.269	0.012
-91.772	-127.418	-0.135	0.019
-90.757	183.832	-0.300	-0.433
-89.743	60.853	0.093	0.090
-88.728	-96.432	0.453	0.117
-87.713	-200.000	-0.000	0.116
-86.699	24.283	-0.289	-0.234
-85.684	800.000	-0.020	-0.057
-84.670	224.362	0.144	0.227
-83.655	20.557	-0.205	0.162
-82.640	24.916	0.232	-0.188
-81.626	453.937	-0.070	0.151
-80.611	337.626	-0.144	0.274
-79.597	-120.239	0.211	0.035
-78.582	-200.000	-0.056	0.327
-77.567	-99.052	0.267	0.066
-76.553	141.223	0.193	-0.249
-75.538	102.430	-0.161	-0.184
-74.524	-200.000	0.012	-0.114
-73.509	24.546	0.182	0.147
-72.494	-200.000	-0.011	-0.328
-71.480	-77.180	0.277	-0.094
-70.465	800.000	-0.030	0.093
-69.451	-200.000	-0.025	-0.236
-68.436	-200.000	0.009	0.163
-67.422	-129.614	0.126	-0.017
-66.407	22.723	-0.055	0.044
-65.392	212.135	0.213	0.327
-64.378	51.843	-0.185	-0.172
-63.363	-29.196	0.435	0.243
-62.349	-200.000	-0.011	0.113
-61.334	233.451	-0.907	-1.456
-60.319	10.249	0.803	0.596
-59.305	181.460	-0.829	-1.190
-58.290	181.568	0.889	1.277
-57.276	294.827	0.911	1.626
-56.261	-200.000	135.519	680.392
-55.246	336.110	1677.538	3176.602
-54.232	132.208	2814.491	3537.916
-53.217	79.677	2349.020	2460.721
-52.203	27.326	2087.821	1711.726
-51.188	22.671	2005.709	1602.166
-50.173	21.737	1990.600	1581.604
-49.159	40.167	2068.113	1814.088
-48.144	37.740	2078.414	1800.648
-47.130	23.120	2030.254	1625.637
-46.115	21.032	2019.397	1597.772
-45.100	20.907	2016.569	1594.327
-44.086	20.871	2014.464	1592.271
-43.071	20.816	2011.828	1589.625
-42.057	20.843	2009.445	1587.925
-41.042	20.898	2007.341	1586.697
-40.027	20.919	2005.852	1585.655
-39.013	20.939	2003.539	1583.938
-37.998	20.912	2001.824	1582.279
-36.984	20.878	2000.439	1580.810
-35.969	20.922	1998.171	1579.356
-34.954	20.854	1996.643	1577.472
-33.940	21.001	1995.159	1577.564
-32.925	20.985	1993.960	1576.407
-31.911	20.998	1991.954	1574.877
-30.896	20.929	1990.618	1573.133
-29.881	20.994	1989.031	1572.405
-28.867	21.011	1987.353	1571.175
-27.852	20.993	1985.362	1569.370
-26.838	21.032	1984.078	1568.643
-25.823	21.081	1982.005	1567.386
-24.809	21.018	1980.252	1565.373
-23.794	21.050	1978.667	1564.339
-22.779	20.942	1976.702	1561.759
-21.765	20.966	1975.726	1561.145
-20.750	20.994	1973.367	1559.468
-19.736	20.956	1972.282	1558.205
-18.721	20.963	1970.890	1557.105
-17.706	20.981	1968.538	1555.345
-16.692	21.013	1966.613	1554.052
-15.677	21.016	1965.096	1552.816
-14.663	20.989	1964.039	1551.677
-13.648	20.962	1962.606	1550.243
-12.633	20.985	1962.162	1550.040
-11.619	20.984	1960.412	1548.588
-10.604	20.896	1959.420	1546.955
-9.590	20.979	1957.712	1546.287
-8.575	20.969	1956.183	1544.924
-7.560	20.969	1954.871	1543.831
-6.546	20.963	1953.889	1542.943
-5.531	21.038	1952.351	1542.330
-4.517	21.033	1950.940	1541.105
-3.502	20.987	1950.069	1539.950
-2.487	21.039	1948.196	1538.870
-1.473	20.998	1947.770	1538.114
-0.458	21.085	1942.624	1534.752
0.556	19.685	1922.054	1504.522
1.571	15.292	1903.499	1451.905
2.586	11.502	1927.304	1436.652
3.600	10.642	1962.271	1454.876
4.615	10.661	1954.646	1449.267
5.629	8.636	1854.675	1357.856
6.644	3.618	1744.610	1237.029
7.659	0.881	1713.441	1193.257
8.673	0.710	1710.901	1190.039
9.688	0.678	1709.666	1188.821
10.702	0.691	1708.194	1187.794
11.717	0.560	1703.908	1183.685
12.731	0.953	1701.387	1184.901
13.746	4.990	1710.375	1222.769
14.761	11.789	1723.988	1285.988
15.775	16.298	1732.690	1327.901
16.790	17.161	1733.209	1334.965
17.804	16.271	1730.184	1325.535
18.819	15.371	1727.011	1315.930
19.834	14.746	1724.460	1308.976
20.848	14.487	1722.861	1305.616
21.863	14.282	1721.786	1303.082
22.877	14.076	1719.815	1299.862
23.892	13.802	1718.770	1296.821
24.907	13.702	1717.577	1295.025
25.921	13.632	1716.242	1293.355
26.936	13.671	1715.085	1292.669
27.950	13.711	1714.235	1292.231
28.965	13.697	1714.206	1291.985
29.980	13.799	1712.880	1291.662
30.994	13.882	1711.805	1291.381
32.009	13.855	1710.590	1290.142
33.023	13.939	1710.097	1290.309
34.038	13.892	1709.464	1289.353
35.053	13.911	1707.978	1288.263
36.067	13.845	1707.027	1286.922
37.082	13.847	1706.005	1286.054
38.096	13.817	1705.046	1284.984
39.111	13.853	1704.184	1284.501
40.126	13.886	1703.340	1284.005
41.140	13.816	1702.327	1282.584
42.155	13.783	1700.890	1281.135
43.169	13.668	1699.675	1279.218
44.184	13.719	1698.537	1278.643
45.199	13.713	1697.150	1277.442
46.213	13.683	1695.647	1275.968
47.228	13.699	1694.546	1275.150
48.242	13.780	1693.510	1274.879
49.257	13.792	1691.960	1273.693
50.271	13.817	1691.180	1273.183
51.286	13.873	1689.578	1272.290
52.301	13.834	1688.069	1270.742
53.315	13.778	1686.625	1269.117
54.330	13.775	1685.517	1268.150
55.344	13.773	1684.129	1266.977
56.359	13.774	1682.239	1265.447
57.374	13.813	1680.979	1264.686
58.388	13.726	1679.971	1263.154
59.403	13.781	1678.561	1262.404
60.417	13.764	1677.215	1261.144
61.432	13.650	1676.637	1259.732
62.447	13.622	1674.813	1258.044
63.461	13.681	1673.778	1257.596
64.476	13.562	1672.865	1255.903
65.490	13.514	1671.606	1254.478
66.505	13.659	1670.076	1254.317
67.520	13.625	1669.291	1253.360
68.534	13.683	1668.014	1252.733
69.549	13.729	1666.428	1251.772
70.563	13.675	1665.116	1250.269
71.578	13.621	1664.334	1249.169
72.593	13.613	1663.348	1248.258
73.607	13.629	1661.765	1247.076
74.622	13.589	1660.523	1245.737
75.636	13.589	1659.720	1245.022
76.651	13.605	1658.559	1244.162
77.666	13.669	1657.258	1243.555
78.680	13.485	1657.288	1242.085
79.695	13.616	1655.920	1241.935
80.709	13.720	1654.823	1241.783
81.724	13.587	1654.386	1240.346
82.739	13.721	1653.123	1240.295
83.753	13.661	1652.585	1239.327
84.768	13.773	1650.964	1238.837
85.782	13.772	1650.437	1238.326
86.797	13.820	1649.197	1237.645
87.812	13.842	1648.083	1236.866
88.826	13.745	1646.963	1235.193
89.841	13.656	1646.053	1233.737
90.855	13.760	1644.690	1233.383
91.870	13.756	1644.043	1232.755
92.884	13.925	1642.232	1232.541
93.899	13.859	1641.689	1231.536
94.914	13.843	1640.243	1230.223
95.928	13.912	1639.150	1229.807
96.943	13.907	1638.444	1229.134
97.957	13.918	1636.276	1227.476
98.972	13.786	1635.511	1225.819
99.987	13.844	1633.452	1224.595
101.001	13.804	1631.889	1223.020
102.016	13.748	1630.676	1221.596
103.030	13.918	1628.613	1221.188
104.045	13.874	1627.535	1219.947
105.060	13.835	1626.091	1218.474
106.074	13.774	1624.731	1216.901
107.089	13.732	1623.803	1215.786
108.103	13.652	1621.691	1213.516
109.118	13.618	1620.645	1212.373
110.133	13.656	1619.097	1211.391
111.147	13.733	1617.390	1210.569
112.162	13.726	1616.135	1209.470
113.176	13.718	1614.850	1208.339
114.191	13.744	1613.184	1207.176
115.206	13.707	1612.224	1206.082
116.220	13.810	1610.653	1205.545
117.235	13.759	1609.820	1204.445
118.249	13.775	1607.940	1203.053
119.264	13.789	1606.652	1202.082
120.279	13.755	1605.107	1200.571
121.293	13.709	1603.608	1199.011
122.308	13.742	1602.286	1198.157
123.322	13.656	1600.893	1196.388
124.337	13.704	1599.606	1195.668
125.352	13.698	1598.054	1194.358
126.366	13.737	1596.692	1193.520
127.381	13.672	1595.696	1192.200
128.395	13.724	1594.076	1191.259
129.410	13.715	1592.910	1190.216
130.424	13.683	1591.959	1189.171
131.439	13.660	1590.605	1187.891
132.454	13.760	1588.825	1187.171
133.468	13.729	1587.882	1186.141
134.483	13.702	1586.383	1184.717
135.497	13.847	1584.596	1184.315
136.512	13.742	1583.666	1182.768
137.527	13.768	1582.361	1181.870
138.541	13.720	1581.064	1180.460
139.556	13.770	1579.477	1179.525
140.570	13.746	1578.378	1178.425
141.585	13.858	1576.820	1177.958
142.600	13.859	1575.673	1177.006
143.614	13.894	1574.460	1176.239
144.629	13.921	1573.085	1175.302
145.643	13.976	1571.690	1174.544
146.658	14.085	1570.546	1174.357
147.673	13.998	1568.975	1172.458
148.687	14.007	1567.457	1171.284
149.702	13.990	1565.800	1169.826
150.716	13.970	1564.283	1168.444
151.731	13.919	1562.959	1166.994
152.746	13.955	1561.657	1166.175
153.760	13.882	1560.416	1164.630
154.775	13.942	1558.741	1163.699
155.789	13.969	1557.751	1163.049
156.804	14.069	1555.877	1162.245
157.819	14.153	1554.676	1161.827
158.833	14.137	1553.562	1160.780
159.848	14.111	1552.363	1159.602
160.862	14.138	1550.929	1158.616
161.877	14.153	1549.817	1157.791
162.892	14.107	1549.371	1157.031
163.906	14.044	1547.566	1155.148
164.921	14.088	1546.330	1154.427
165.935	14.051	1544.961	1153.042
166.950	14.160	1543.817	1152.843
167.964	14.069	1543.045	1151.535
168.979	14.074	1541.770	1150.521
169.994	14.109	1540.799	1149.933
171.008	14.144	1539.729	1149.275
172.023	14.193	1538.683	1148.733
173.037	14.246	1537.406	1148.044
174.052	14.184	1536.491	1146.828
175.067	14.289	1534.909	1146.271
176.081	14.191	1534.006	1144.821
177.096	14.212	1532.013	1143.372
178.110	14.152	1531.486	1142.466
179.125	14.137	1530.411	1141.462
180.140	14.159	1529.622	1140.924
181.154	14.266	1528.272	1140.547
182.169	14.232	1526.960	1139.234
183.183	14.285	1525.822	1138.649
184.198	14.377	1524.609	1138.273
185.213	14.326	1523.541	1137.022
186.227	14.309	1522.331	1135.902
187.242	14.431	1521.025	1135.663
188.256	14.351	1520.158	1134.369
189.271	14.349	1519.443	1133.723
190.286	14.538	1517.867	1133.729
191.300	14.385	1516.813	1131.804
192.315	14.275	1515.615	1130.063
193.329	14.174	1515.101	1128.892
194.344	14.283	1513.528	1128.359
195.359	14.268	1512.418	1127.334
196.373	14.374	1510.450	1126.485
197.388	14.458	1509.724	1126.410
198.402	14.500	1508.643	1125.785
199.417	14.536	1507.661	1125.198
200.432	14.471	1506.121	1123.507
201.446	14.601	1505.163	1123.573
202.461	14.598	1504.429	1122.903
203.475	14.596	1502.957	1121.691
204.490	14.633	1501.915	1121.061
205.504	14.653	1501.000	1120.417
206.519	14.591	1499.627	1118.878
207.534	14.622	1498.541	1118.172
208.548	14.623	1498.112	1117.759
209.563	14.561	1496.537	1116.071
210.577	14.564	1495.978	1115.575
211.592	14.602	1494.778	1114.836
212.607	14.506	1494.025	1113.535
213.621	14.752	1493.119	1114.405
214.636	14.805	1491.672	1113.583
215.650	14.755	1490.752	1112.463
216.665	14.854	1489.472	1112.064
217.680	14.783	1489.403	1111.445
218.694	14.859	1488.435	1111.126
219.709	14.899	1487.503	1110.598
220.723	14.820	1486.609	1109.311
221.738	14.843	1485.323	1108.407
222.753	14.872	1484.453	1107.852
223.767	14.801	1483.598	1106.646
224.782	14.859	1482.643	1106.217
225.796	14.912	1481.737	1105.795
226.811	14.968	1480.566	1105.189
227.826	14.939	1479.976	1104.465
228.840	14.919	1479.345	1103.758
229.855	14.918	1478.208	1102.807
230.869	14.916	1477.523	1102.185
231.884	14.849	1476.454	1100.849
232.899	14.959	1474.901	1100.322
233.913	14.927	1473.964	1099.315
234.928	14.901	1472.619	1098.042
235.942	14.937	1471.608	1097.427
236.957	14.961	1470.510	1096.667
237.972	14.975	1469.181	1095.674
238.986	14.950	1467.922	1094.471
240.001	14.969	1467.419	1094.125
241.015	15.073	1465.776	1093.484
242.030	14.989	1464.746	1092.071
243.045	15.086	1463.646	1091.783
244.059	14.990	1463.304	1090.804
245.074	15.077	1462.078	1090.360
246.088	15.040	1461.177	1089.354
247.103	15.127	1460.428	1089.264
248.117	15.175	1459.782	1088.996
249.132	15.169	1458.769	1088.106
250.147	15.220	1458.255	1087.960
251.161	15.364	1457.197	1088.007
252.176	15.271	1456.846	1087.047
253.190	15.370	1456.013	1086.970
254.205	15.383	1455.160	1086.318
255.220	15.393	1454.476	1085.779
256.234	15.446	1453.762	1085.492
257.249	15.508	1451.862	1084.381
258.263	15.433	1451.474	1083.506
259.278	15.488	1450.558	1083.083
260.293	15.387	1449.728	1081.716
261.307	15.464	1448.614	1081.287
262.322	15.603	1447.992	1081.618
263.336	15.619	1447.187	1081.025
264.351	15.601	1445.929	1079.875
265.366	15.608	1444.877	1079.038
266.380	15.644	1444.415	1078.833
267.395	15.605	1443.153	1077.544
268.409	15.579	1442.453	1076.755
269.424	15.677	1441.426	1076.525
270.439	15.575	1440.700	1075.230
271.453	15.636	1439.809	1074.864
272.468	15.682	1438.599	1074.155
273.482	15.668	1437.752	1073.340
274.497	15.587	1437.262	1072.360
275.512	15.693	1435.996	1072.003
276.526	15.709	1435.258	1071.456
277.541	15.668	1434.014	1070.172
278.555	15.685	1433.601	1069.876
279.570	15.696	1432.317	1068.893
280.585	15.752	1431.406	1068.473
281.599	15.766	1430.905	1068.097
282.614	15.773	1429.701	1067.149
283.628	15.845	1428.145	1066.346
284.643	15.814	1427.383	1065.485
285.657	15.818	1426.349	1064.645
286.672	15.880	1425.537	1064.341
287.687	15.762	1424.566	1062.773
288.701	15.818	1423.343	1062.123
289.716	15.783	1423.009	1061.556
290.730	15.962	1421.966	1061.811
291.745	15.936	1420.113	1060.170
292.760	15.916	1420.058	1059.908
293.774	15.939	1418.680	1058.936
294.789	15.937	1417.691	1058.089
295.803	15.967	1417.009	1057.674
296.818	15.954	1415.890	1056.664
297.833	16.025	1414.976	1056.335
298.847	16.012	1413.367	1054.958
299.862	16.080	1412.996	1055.011
300.876	16.093	1412.032	1054.281
301.891	15.977	1411.186	1052.831
302.906	16.073	1410.325	1052.695
303.920	16.073	1409.702	1052.137
304.935	16.003	1408.970	1051.064
305.949	16.239	1407.982	1051.705
306.964	16.230	1407.500	1051.194
307.979	16.304	1405.924	1050.383
308.993	16.201	1405.541	1049.366
310.008	16.227	1404.512	1048.665
311.022	16.282	1403.260	1047.979
312.037	16.290	1402.297	1047.213
313.052	16.343	1401.348	1046.745
314.066	16.292	1400.341	1045.582
315.081	16.297	1399.165	1044.644
316.095	16.258	1398.340	1043.693
317.110	16.239	1397.406	1042.788
318.125	16.275	1396.362	1042.134
319.139	16.190	1395.579	1040.935
320.154	16.225	1394.381	1040.164
321.168	16.349	1393.492	1040.177
322.183	16.338	1392.191	1039.045
323.197	16.323	1391.150	1038.082
324.212	16.343	1390.536	1037.654
325.227	16.324	1390.021	1037.065
326.241	16.418	1388.257	1036.234
327.256	16.438	1387.823	1035.939
328.270	16.394	1387.033	1034.986
329.285	16.388	1386.294	1034.310
330.300	16.386	1385.595	1033.682
331.314	16.390	1384.522	1032.815
332.329	16.475	1383.258	1032.298
333.343	16.466	1382.687	1031.729
334.358	16.499	1381.392	1030.869
335.373	16.484	1380.798	1030.244
336.387	16.519	1380.280	1029.982
337.402	16.581	1379.559	1029.727
338.416	16.549	1378.734	1028.827
339.431	16.650	1378.019	1028.817
340.446	16.634	1376.979	1027.854
341.460	16.550	1376.187	1026.660
342.475	16.521	1375.411	1025.816
343.489	16.658	1374.388	1025.790
344.504	16.673	1373.523	1025.143
345.519	16.616	1372.778	1024.153
346.533	16.788	1371.521	1024.164
347.548	16.624	1371.315	1022.932
348.562	16.850	1369.797	1023.071
349.577	16.782	1368.561	1021.646
350.592	16.932	1367.622	1021.760
351.606	16.758	1367.553	1020.569
352.621	16.675	1366.252	1019.009
353.635	16.763	1365.407	1018.815
354.650	16.794	1364.494	1018.233
355.665	16.829	1363.520	1017.625
356.679	16.831	1362.205	1016.567
357.694	16.935	1360.512	1015.837
358.708	17.036	1359.777	1015.801
359.723	16.898	1358.731	1014.107
360.738	16.904	1357.396	1013.057
361.752	17.047	1356.955	1013.491
362.767	16.946	1356.030	1012.108
363.781	16.842	1355.181	1010.763
364.796	16.897	1354.321	1010.358
365.810	17.012	1353.370	1010.248
366.825	16.978	1353.230	1009.847
367.840	17.030	1352.109	1009.233
368.854	17.013	1351.349	1008.478
369.869	17.145	1350.690	1008.677
370.883	17.152	1350.155	1008.234
371.898	17.187	1349.250	1007.676
372.913	17.085	1348.700	1006.571
373.927	17.163	1347.318	1005.912
374.942	17.205	1346.598	1005.533
375.956	17.240	1346.077	1005.260
376.971	17.245	1345.303	1004.627
377.986	17.202	1344.703	1003.836
379.000	17.249	1343.653	1003.237
380.015	17.210	1342.723	1002.227
381.029	17.295	1341.864	1001.995
382.044	17.287	1341.552	1001.626
383.059	17.381	1340.562	1001.350
384.073	17.399	1339.612	1000.661
385.088	17.310	1339.325	999.833
386.102	17.351	1338.564	999.416
387.117	17.362	1337.935	998.926
388.132	17.326	1337.057	997.970
389.146	17.453	1336.058	997.880
390.161	17.409	1335.096	996.816
391.175	17.324	1334.791	996.004
392.190	17.381	1333.662	995.404
393.205	17.490	1332.570	995.140
394.219	17.435	1331.824	994.170
395.234	17.617	1330.333	994.035
396.248	17.571	1328.639	992.410
397.263	17.510	1327.688	991.257
398.278	17.528	1326.465	990.361
399.292	17.446	1325.235	988.881
400.307	17.398	1324.961	988.311
401.321	17.343	1323.825	987.057
402.336	17.648	1322.171	987.502
403.350	17.662	1321.250	986.810
404.365	17.593	1320.555	985.805
405.380	17.558	1319.262	984.550
406.394	17.491	1318.816	983.739
407.409	17.568	1317.994	983.487
408.423	17.676	1317.367	983.553
409.438	17.754	1316.221	983.061
410.453	17.666	1315.455	981.896
411.467	17.754	1314.798	981.826
412.482	17.799	1314.155	981.516
413.496	17.757	1313.707	980.856
414.511	17.803	1312.985	980.491
415.526	17.855	1312.205	980.121
416.540	17.769	1311.919	979.327
417.555	17.914	1310.646	979.122
418.569	17.941	1310.229	978.876
419.584	17.925	1309.603	978.230
420.599	17.978	1309.042	978.030
421.613	101.874	1363.798	1491.793
422.628	100.280	1371.707	1491.863
