DTS Sentinel unit serial number:	SN413079Multiplexer serial number:	ORYXHardware model number:	OX4-SRSoftware version number:	ORYX F/W v4.00 Oryx Data Collector v3.7.2.0data status	okinstallation	princeton_trtdifferential loss correction	single-endedforward channel	channel 4reverse channel	N/Adate	2019/09/15time	01:17:35forward acquisition time	60.00reverse acquisition time	0.00gamma	496.2192k internal	0.2307k external	0.2307temperature offset calibration	1.0034default loss term (dB/km)	0.3790temperature slope calibration	1.0000multiplexer offset coefficient	1.0000multiplexer slope coefficient	1.0000fibre end	0.00T internal ref (°C)	31.94T ext. ref 1 (°C)	4.51T ext. ref 2 (°C)	26.85length (m)	temperature (°C)	Stokes	anti-Stokes-747.200	-51.899	0.038	-0.018
-746.185	-151.809	-0.288	-0.022
-745.171	-9.929	-0.139	0.094
-744.156	440.581	0.139	0.310
-743.142	491.476	-0.033	0.077
-742.127	800.000	-0.042	0.178
-741.112	-200.000	-0.030	-0.166
-740.098	-200.000	-0.037	0.312
-739.083	99.709	0.031	-0.036
-738.069	16.728	0.187	-0.150
-737.054	184.735	0.083	-0.125
-736.039	-188.127	-0.204	0.003
-735.025	800.000	-0.109	0.350
-734.010	38.633	-0.205	-0.186
-732.996	159.730	-0.021	-0.030
-731.981	-79.685	-0.287	-0.098
-730.966	-148.496	-0.451	-0.037
-729.952	-61.276	-0.068	-0.029
-728.937	534.512	0.110	0.266
-727.923	64.023	-0.110	-0.112
-726.908	800.000	-0.068	-0.194
-725.894	-200.000	0.051	-0.359
-724.879	-91.569	-0.057	-0.016
-723.864	-200.000	-0.008	0.036
-722.850	50.024	0.325	-0.311
-721.835	98.372	-0.289	-0.338
-720.821	27.217	0.142	-0.121
-719.806	377.467	0.132	-0.275
-718.791	-200.000	0.018	-0.102
-717.777	688.110	0.124	-0.329
-716.762	774.292	0.067	-0.185
-715.748	800.000	0.061	-0.174
-714.733	-124.966	-0.178	0.028
-713.718	-26.332	-0.274	0.163
-712.704	-200.000	0.034	0.289
-711.689	800.000	-0.056	0.161
-710.675	-85.626	0.044	-0.014
-709.660	-10.720	0.233	-0.156
-708.645	165.729	0.071	-0.102
-707.631	-200.000	-0.003	-0.316
-706.616	-148.475	0.118	0.010
-705.602	56.243	0.132	0.130
-704.587	110.181	0.156	0.191
-703.572	260.743	-0.126	-0.220
-702.558	462.914	-0.080	-0.181
-701.543	-200.000	-0.007	0.202
-700.529	-36.137	0.370	-0.203
-699.514	763.759	-0.067	0.185
-698.499	17.134	0.208	-0.168
-697.485	-200.000	0.014	0.087
-696.470	78.097	0.050	0.054
-695.456	-51.472	-0.029	0.014
-694.441	-200.000	0.018	0.342
-693.426	800.000	0.034	-0.127
-692.412	-1.094	0.215	-0.155
-691.397	800.000	0.040	-0.138
-690.383	-95.143	0.450	-0.123
-689.368	417.527	-0.096	-0.208
-688.354	-200.000	-0.010	-0.386
-687.339	-200.000	0.002	-0.272
-686.324	7.459	-0.142	-0.107
-685.310	-9.722	0.132	0.089
-684.295	39.617	0.123	0.112
-683.281	59.898	-0.106	-0.106
-682.266	141.924	-0.050	-0.068
-681.251	169.684	0.083	-0.121
-680.237	-200.000	0.039	0.183
-679.222	-51.628	-0.068	-0.032
-678.208	-17.950	0.226	-0.143
-677.193	-120.808	-0.222	0.038
-676.178	100.137	-0.326	-0.383
-675.164	190.765	-0.064	0.097
-674.149	800.000	-0.113	-0.365
-673.135	114.617	0.081	-0.099
-672.120	101.623	0.237	-0.280
-671.105	-109.373	0.182	0.039
-670.091	60.920	-0.181	-0.182
-669.076	-90.147	0.036	0.011
-668.062	-57.194	-0.163	0.073
-667.047	-83.195	-0.182	-0.059
-666.032	-200.000	0.006	-0.356
-665.018	11.379	0.101	0.078
-664.003	188.919	0.159	0.242
-662.989	-88.439	-0.211	0.064
-661.974	-125.313	-0.301	0.047
-660.959	-14.753	0.037	-0.024
-659.945	-24.681	-0.052	0.032
-658.930	282.900	0.115	0.209
-657.916	-0.670	0.131	0.094
-656.901	-37.758	0.164	-0.089
-655.886	-140.403	-0.118	0.012
-654.872	-200.000	-0.007	0.135
-653.857	-200.000	0.025	0.226
-652.843	-114.449	0.251	0.049
-651.828	-19.928	-0.241	0.151
-650.814	117.852	-0.095	-0.119
-649.799	-200.000	0.020	-0.389
-648.784	713.449	-0.108	-0.290
-647.770	-105.142	-0.084	0.019
-646.755	-4.547	0.255	-0.178
-645.741	163.495	-0.113	0.160
-644.726	-78.957	-0.099	0.034
-643.711	92.772	-0.101	-0.116
-642.697	523.992	-0.034	-0.082
-641.682	97.060	-0.206	-0.239
-640.668	-65.120	-0.077	-0.031
-639.653	-200.000	0.019	-0.243
-638.638	-78.959	-0.310	0.107
-637.624	-47.232	-0.202	-0.099
-636.609	-111.075	-0.230	0.048
-635.595	541.702	-0.060	-0.146
-634.580	-133.333	0.086	0.011
-633.565	-200.000	-0.042	-0.256
-632.551	-34.760	-0.261	0.145
-631.536	-70.915	-0.260	0.099
-630.522	-77.692	0.173	-0.061
-629.507	285.153	-0.129	-0.235
-628.492	-37.976	-0.095	-0.051
-627.478	-82.922	0.248	-0.081
-626.463	13.977	0.153	-0.120
-625.449	-200.000	0.049	-0.228
-624.434	78.452	0.170	-0.184
-623.419	-6.303	-0.219	0.151
-622.405	-68.634	-0.143	0.056
-621.390	364.278	-0.103	0.210
-620.376	800.000	0.073	-0.219
-619.361	800.000	-0.088	0.328
-618.346	-1.358	-0.123	-0.088
-617.332	-132.651	0.298	-0.039
-616.317	800.000	-0.090	-0.346
-615.303	16.979	0.056	0.045
-614.288	800.000	0.007	-0.023
-613.273	-35.270	0.396	-0.218
-612.259	-81.399	-0.236	-0.079
-611.244	-200.000	-0.031	0.173
-610.230	793.728	-0.098	-0.274
-609.215	-82.049	-0.245	0.081
-608.201	189.555	-0.170	-0.258
-607.186	-200.000	-0.006	-0.135
-606.171	175.564	-0.081	0.119
-605.157	-200.000	-0.035	0.351
-604.142	-67.585	0.131	0.052
-603.128	312.155	0.176	0.335
-602.113	-115.709	0.401	0.076
-601.098	143.062	0.212	-0.285
-600.084	-135.428	-0.236	0.028
-599.069	-34.668	0.175	0.097
-598.055	445.979	-0.008	-0.018
-597.040	-147.319	-0.273	0.023
-596.025	-55.252	-0.364	-0.165
-595.011	48.594	-0.162	0.154
-593.996	51.993	-0.386	0.372
-592.982	792.472	-0.024	-0.066
-591.967	-73.070	-0.101	0.037
-590.952	30.759	-0.203	0.176
-589.938	-191.891	-0.272	-0.003
-588.923	334.123	0.070	-0.137
-587.909	-80.856	-0.262	0.088
-586.894	346.162	0.016	0.032
-585.879	-200.000	-0.006	0.194
-584.865	91.985	-0.101	0.115
-583.850	-61.541	-0.209	0.089
-582.836	800.000	0.075	-0.325
-581.821	374.581	0.148	-0.305
-580.806	40.352	0.103	0.094
-579.792	561.062	-0.049	0.120
-578.777	750.055	0.027	-0.074
-577.763	-70.226	0.162	0.062
-576.748	-65.774	-0.144	0.058
-575.733	-200.000	-0.013	0.187
-574.719	335.864	-0.122	0.238
-573.704	-185.564	0.378	-0.006
-572.690	37.044	-0.250	-0.223
-571.675	-200.000	0.051	-0.241
-570.661	5.231	0.385	-0.287
-569.646	800.000	-0.041	-0.132
-568.631	-7.588	0.124	-0.085
-567.617	-200.000	0.037	-0.235
-566.602	-200.000	0.058	-0.372
-565.588	-24.591	-0.152	0.091
-564.573	-200.000	-0.005	0.252
-563.558	-200.000	0.010	0.101
-562.544	-191.559	0.120	0.001
-561.529	-2.197	0.223	-0.158
-560.515	-200.000	-0.002	-0.082
-559.500	3.244	-0.180	-0.132
-558.485	-5.562	0.259	-0.179
-557.471	80.762	-0.175	-0.190
-556.456	71.046	0.089	-0.093
-555.442	-166.581	0.194	-0.008
-554.427	237.150	0.225	-0.376
-553.412	-184.516	0.325	0.005
-552.398	800.000	0.031	-0.115
-551.383	17.438	-0.149	-0.119
-550.369	141.599	0.067	-0.089
-549.354	-14.379	-0.158	0.103
-548.339	-200.000	0.021	-0.233
-547.325	-116.345	0.136	0.025
-546.310	800.000	-0.101	0.414
-545.296	112.564	0.072	0.088
-544.281	147.152	-0.124	0.169
-543.266	-112.104	-0.314	-0.064
-542.252	50.200	-0.265	0.252
-541.237	-74.494	0.259	0.094
-540.223	-200.000	-0.012	-0.224
-539.208	426.545	0.031	-0.068
-538.193	-200.000	0.003	-0.052
-537.179	-148.442	0.050	0.004
-536.164	-200.000	0.013	0.088
-535.150	95.047	-0.154	-0.177
-534.135	-158.804	0.156	-0.009
-533.121	-81.040	-0.075	0.025
-532.106	-200.000	-0.030	0.250
-531.091	-200.000	-0.049	-0.345
-530.077	191.093	-0.145	-0.220
-529.062	-14.961	-0.284	0.183
-528.048	-42.224	-0.234	-0.120
-527.033	292.439	0.152	0.280
-526.018	199.384	-0.246	0.380
-525.004	-86.312	-0.215	-0.067
-523.989	67.699	-0.089	-0.092
-522.975	77.819	0.130	-0.140
-521.960	-200.000	0.010	-0.144
-520.945	95.870	0.104	0.119
-519.931	36.953	-0.055	-0.049
-518.916	284.520	-0.140	0.254
-517.902	-150.124	0.160	0.012
-516.887	-41.070	0.055	-0.028
-515.872	156.124	0.181	0.252
-514.858	-200.000	-0.011	0.196
-513.843	-105.386	-0.129	0.030
-512.829	197.623	0.082	-0.126
-511.814	800.000	0.029	-0.113
-510.799	-158.736	-0.226	-0.013
-509.785	121.523	0.121	0.152
-508.770	323.292	-0.026	0.050
-507.756	-200.000	-0.004	0.127
-506.741	-92.155	-0.158	0.045
-505.726	-54.145	-0.220	-0.101
-504.712	-26.200	0.349	0.206
-503.697	-200.000	-0.008	0.063
-502.683	-200.000	-0.019	0.227
-501.668	-123.081	-0.521	-0.084
-500.653	629.233	0.028	-0.072
-499.639	557.996	0.042	-0.101
-498.624	800.000	0.045	-0.156
-497.610	800.000	0.021	-0.062
-496.595	411.420	0.102	-0.219
-495.581	722.702	-0.095	0.254
-494.566	-33.748	0.204	-0.113
-493.551	193.354	-0.131	0.199
-492.537	50.337	-0.269	0.256
-491.522	724.322	0.082	0.221
-490.508	42.564	0.138	-0.126
-489.493	22.724	-0.113	0.093
-488.478	-40.657	0.251	-0.131
-487.464	-200.000	-0.069	0.304
-486.449	-147.424	-0.376	0.032
-485.435	8.710	-0.140	0.106
-484.420	106.098	0.149	-0.178
-483.405	171.203	-0.052	0.075
-482.391	-69.399	-0.214	-0.083
-481.376	-3.242	0.287	-0.201
-480.362	-200.000	-0.020	0.182
-479.347	800.000	-0.070	0.228
-478.332	322.318	-0.099	0.189
-477.318	-200.000	-0.034	-0.342
-476.303	-200.000	0.015	-0.228
-475.289	-55.174	0.149	-0.068
-474.274	-200.000	-0.006	-0.028
-473.259	727.401	-0.137	-0.368
-472.245	165.273	-0.102	0.145
-471.230	-46.648	-0.095	-0.047
-470.216	358.810	-0.094	-0.190
-469.201	133.722	0.161	0.209
-468.186	69.029	-0.076	-0.079
-467.172	605.673	0.079	-0.199
-466.157	-200.000	-0.016	0.126
-465.143	800.000	-0.086	0.251
-464.128	-136.055	-0.214	-0.025
-463.113	-149.738	0.243	-0.019
-462.099	147.844	-0.066	-0.089
-461.084	331.273	0.231	0.447
-460.070	117.755	0.146	-0.181
-459.055	12.517	0.148	-0.115
-458.040	-138.860	0.192	0.021
-457.026	38.336	-0.151	0.136
-456.011	95.193	-0.352	0.403
-454.997	800.000	-0.130	-0.375
-453.982	45.886	0.011	0.010
-452.968	-61.548	0.213	0.090
-451.953	243.897	0.058	-0.098
-450.938	-13.441	-0.096	-0.063
-449.924	89.882	0.049	0.055
-448.909	-141.125	0.395	-0.041
-447.895	-200.000	-0.006	-0.169
-446.880	-82.754	-0.294	-0.095
-445.865	215.158	-0.124	-0.197
-444.851	800.000	-0.095	-0.263
-443.836	-178.413	0.107	0.003
-442.822	736.903	-0.030	0.082
-441.807	785.704	-0.120	-0.332
-440.792	-75.339	0.180	-0.065
-439.778	-125.124	0.150	-0.023
-438.763	-143.495	-0.290	-0.028
-437.749	150.158	0.112	-0.153
-436.734	-58.744	0.049	-0.021
-435.719	-191.220	-0.318	-0.003
-434.705	336.073	-0.135	0.263
-433.690	475.276	-0.118	0.269
-432.676	-170.360	-0.222	-0.008
-431.661	-77.721	-0.182	0.063
-430.646	-10.873	0.063	0.042
-429.632	-77.950	0.196	0.068
-428.617	199.847	-0.052	0.081
-427.603	29.136	0.328	0.280
-426.588	-200.000	-0.024	-0.354
-425.573	-200.000	0.051	0.290
-424.559	-200.000	-0.038	0.284
-423.544	800.000	0.051	-0.194
-422.530	800.000	0.059	0.169
-421.515	-119.151	-0.264	0.046
-420.500	649.887	0.023	0.060
-419.486	-200.000	0.252	0.001
-418.471	800.000	0.045	0.170
-417.457	-174.781	0.503	-0.014
-416.442	-200.000	-0.022	-0.158
-415.428	191.257	-0.052	-0.079
-414.413	-200.000	-0.049	-0.221
-413.398	-1.277	0.144	-0.102
-412.384	-37.477	0.238	0.127
-411.369	79.738	-0.237	-0.255
-410.355	-21.159	-0.155	0.095
-409.340	-200.000	-0.039	-0.190
-408.325	-10.881	-0.078	0.051
-407.311	-145.035	-0.097	0.009
-406.296	-200.000	0.008	-0.103
-405.282	-200.000	0.041	0.180
-404.267	-84.897	0.153	-0.048
-403.252	-200.000	-0.008	-0.242
-402.238	-200.000	0.013	-0.116
-401.223	800.000	-0.042	0.134
-400.209	-141.884	-0.371	-0.037
-399.194	-18.295	0.121	-0.076
-398.179	-170.076	0.053	-0.002
-397.165	-131.490	0.042	0.006
-396.150	93.751	0.070	0.080
-395.136	-102.417	-0.177	-0.042
-394.121	313.128	0.066	0.125
-393.106	93.194	0.181	0.205
-392.092	-64.899	-0.445	0.181
-391.077	-38.526	0.147	0.078
-390.063	-147.865	0.100	0.008
-389.048	190.463	0.049	0.074
-388.033	289.571	0.156	-0.284
-387.019	-82.938	-0.147	0.047
-386.004	-177.713	-0.036	-0.001
-384.990	-200.000	0.012	0.175
-383.975	-171.112	0.368	0.012
-382.960	133.373	-0.037	-0.048
-381.946	203.469	0.171	0.266
-380.931	-57.413	-0.203	0.089
-379.917	0.409	0.229	-0.164
-378.902	-48.385	-0.282	0.136
-377.888	-81.878	0.138	0.045
-376.873	750.480	-0.051	-0.139
-375.858	476.887	0.090	0.204
-374.844	-176.557	-0.133	-0.003
-373.829	-69.577	0.337	-0.129
-372.815	242.673	-0.054	0.090
-371.800	47.494	-0.350	0.327
-370.785	-20.051	-0.232	0.143
-369.771	181.292	-0.049	0.073
-368.756	-90.310	0.015	-0.004
-367.742	62.638	0.332	-0.332
-366.727	-56.499	0.070	-0.031
-365.712	-10.278	0.255	-0.170
-364.698	-77.567	0.201	-0.070
-363.683	-200.000	0.023	-0.208
-362.669	-27.249	-0.035	0.020
-361.654	-91.332	-0.313	-0.090
-360.639	56.583	0.228	0.222
-359.625	8.607	0.106	0.080
-358.610	-11.926	-0.253	-0.166
-357.596	800.000	-0.007	-0.031
-356.581	380.869	-0.052	0.106
-355.566	-200.000	-0.002	0.097
-354.552	-47.027	0.339	-0.166
-353.537	169.078	-0.077	0.109
-352.523	398.778	-0.084	-0.175
-351.508	-200.000	0.019	0.311
-350.493	94.083	0.183	0.208
-349.479	221.464	0.260	0.418
-348.464	-21.716	0.259	0.158
-347.450	-70.357	-0.269	0.102
-346.435	16.103	-0.104	-0.082
-345.420	-87.004	0.241	0.073
-344.406	-162.923	0.070	0.003
-343.391	645.248	0.043	-0.111
-342.377	58.543	0.078	0.077
-341.362	-92.488	-0.163	0.046
-340.348	-200.000	0.046	0.436
-339.333	-93.534	-0.297	-0.082
-338.318	127.910	-0.169	-0.215
-337.304	-158.241	-0.317	-0.019
-336.289	130.556	0.085	0.109
-335.275	800.000	0.143	-0.470
-334.260	402.282	0.103	0.217
-333.245	277.348	-0.152	0.270
-332.231	-200.000	0.020	-0.114
-331.216	50.544	0.145	-0.137
-330.202	-36.591	-0.211	-0.114
-329.187	-101.622	0.102	0.025
-328.172	262.892	0.049	-0.085
-327.158	88.714	-0.095	-0.106
-326.143	-76.503	-0.261	0.092
-325.129	-47.556	0.073	0.035
-324.114	-200.000	-0.047	-0.385
-323.099	-174.256	-0.297	0.009
-322.085	-23.400	0.095	0.057
-321.070	800.000	0.011	0.031
-320.056	414.345	0.138	0.295
-319.041	-78.463	0.280	-0.096
-318.026	602.793	0.138	0.342
-317.012	48.519	-0.332	0.311
-315.997	119.512	0.138	-0.170
-314.983	15.231	-0.212	-0.166
-313.968	-66.009	-0.052	0.021
-312.953	162.108	0.061	0.085
-311.939	218.122	0.028	-0.044
-310.924	32.164	-0.078	0.067
-309.910	247.253	-0.095	0.161
-308.895	-121.254	-0.484	0.081
-307.880	-18.383	0.315	0.197
-306.866	-131.865	-0.285	-0.037
-305.851	11.427	-0.107	-0.082
-304.837	162.689	0.258	0.362
-303.822	-93.840	-0.084	-0.023
-302.807	800.000	0.077	-0.305
-301.793	800.000	0.140	-0.479
-300.778	-49.552	-0.105	-0.050
-299.764	-101.840	-0.217	0.052
-298.749	-7.290	0.183	0.124
-297.735	316.858	-0.104	0.197
-296.720	800.000	-0.029	0.103
-295.705	765.582	0.040	-0.109
-294.691	-39.934	-0.044	0.023
-293.676	-69.689	-0.252	-0.096
-292.662	34.107	0.157	-0.137
-291.647	-59.250	-0.045	0.019
-290.632	-32.701	-0.203	-0.113
-289.618	115.644	0.191	0.233
-288.603	-114.314	-0.128	-0.025
-287.589	-200.000	0.093	0.474
-286.574	151.943	-0.058	0.079
-285.559	187.327	0.033	0.049
-284.545	-128.482	0.351	0.050
-283.530	-59.167	-0.174	0.075
-282.516	737.981	0.193	-0.516
-281.501	384.823	-0.049	0.100
-280.486	-65.397	0.249	-0.100
-279.472	-10.574	0.184	-0.121
-278.457	57.269	-0.101	0.099
-277.443	-83.534	0.102	0.032
-276.428	-200.000	0.015	0.089
-275.413	45.280	0.077	-0.071
-274.399	-73.514	-0.248	0.090
-273.384	148.885	0.117	-0.158
-272.370	693.485	-0.082	0.214
-271.355	-200.000	0.018	0.351
-270.340	243.558	0.123	0.206
-269.326	253.323	-0.089	0.152
-268.311	-87.894	-0.112	-0.034
-267.297	-21.914	-0.056	0.034
-266.282	-21.438	0.017	-0.010
-265.267	-27.314	-0.111	0.064
-264.253	-200.000	0.022	-0.225
-263.238	21.110	-0.037	-0.030
-262.224	800.000	0.062	-0.175
-261.209	375.712	-0.188	0.382
-260.195	200.991	0.078	-0.119
-259.180	10.887	-0.283	0.215
-258.165	-103.509	0.047	0.011
-257.151	800.000	-0.031	0.096
-256.136	14.500	-0.064	0.050
-255.122	-45.664	0.168	-0.083
-254.107	320.654	0.136	0.258
-253.092	226.094	-0.073	0.118
-252.078	-13.206	0.147	0.095
-251.063	-46.808	-0.136	0.066
-250.049	-118.727	-0.294	0.052
-249.034	-86.453	0.396	0.121
-248.019	-200.000	-0.011	-0.136
-247.005	-200.000	-0.060	-0.374
-245.990	139.160	-0.131	-0.172
-244.976	182.043	0.152	-0.223
-243.961	-64.044	0.292	-0.119
-242.946	-27.939	-0.108	-0.062
-241.932	160.491	0.127	-0.176
-240.917	-200.000	-0.041	0.354
-239.903	-37.220	0.068	-0.036
-238.888	-43.173	0.311	0.157
-237.873	244.049	0.031	0.051
-236.859	28.927	0.179	-0.151
-235.844	162.259	-0.054	-0.075
-234.830	-200.000	0.008	0.116
-233.815	-25.184	-0.348	0.205
-232.800	-41.536	-0.117	0.060
-231.786	-134.364	0.285	0.035
-230.771	324.811	-0.016	-0.031
-229.757	11.133	0.185	0.141
-228.742	-51.933	0.339	0.157
-227.727	-114.732	-0.145	0.028
-226.713	-200.000	-0.004	0.310
-225.698	-18.192	0.106	-0.066
-224.684	37.955	-0.142	-0.126
-223.669	17.801	0.043	-0.034
-222.655	-200.000	-0.018	-0.100
-221.640	-91.340	0.260	0.074
-220.625	121.831	-0.131	-0.163
-219.611	-200.000	-0.063	-0.461
-218.596	-83.449	-0.126	0.040
-217.582	800.000	-0.109	0.366
-216.567	218.389	-0.112	0.178
-215.552	-200.000	-0.010	-0.059
-214.538	-85.520	0.137	-0.042
-213.523	74.434	0.076	0.079
-212.509	-64.838	0.080	0.032
-211.494	-29.185	0.159	0.091
-210.479	-111.164	0.156	-0.032
-209.465	67.562	-0.247	-0.251
-208.450	800.000	0.032	-0.098
-207.436	-42.345	-0.132	0.067
-206.421	-200.000	0.005	-0.060
-205.406	-200.000	0.007	-0.029
-204.392	385.040	-0.068	0.140
-203.377	28.104	-0.100	-0.084
-202.363	-120.124	0.091	-0.016
-201.348	-200.000	0.025	0.289
-200.333	0.513	0.155	-0.110
-199.319	-200.000	0.004	0.309
-198.304	800.000	0.036	0.143
-197.290	-200.000	-0.013	0.124
-196.275	696.847	0.098	-0.257
-195.260	-10.704	0.071	-0.047
-194.246	-200.000	-0.028	0.149
-193.231	191.556	-0.099	-0.148
-192.217	123.072	-0.106	-0.132
-191.202	-7.586	0.172	-0.116
-190.187	21.053	-0.028	0.023
-189.173	-200.000	-0.010	0.206
-188.158	-152.222	-0.167	-0.012
-187.144	-200.000	0.004	-0.152
-186.129	146.358	-0.133	0.178
-185.114	-92.940	0.216	0.060
-184.100	86.229	0.166	-0.182
-183.085	-47.983	-0.271	-0.130
-182.071	-59.120	0.351	-0.151
-181.056	-39.893	-0.187	0.097
-180.042	195.859	0.149	-0.226
-179.027	800.000	-0.154	-0.527
-178.012	135.943	-0.046	0.059
-176.998	-68.804	0.286	0.110
-175.983	-24.767	-0.060	0.036
-174.969	-170.934	-0.215	0.007
-173.954	-85.420	0.212	-0.066
-172.939	-165.006	0.118	0.005
-171.925	-200.000	0.014	-0.132
-170.910	-25.821	0.289	0.169
-169.896	-200.000	-0.015	-0.218
-168.881	-46.634	0.266	0.129
-167.866	-134.971	0.095	0.011
-166.852	-200.000	0.000	0.110
-165.837	800.000	0.072	0.240
-164.823	-103.726	0.181	-0.042
-163.808	190.898	0.067	0.101
-162.793	800.000	0.077	0.237
-161.779	-67.034	0.203	0.080
-160.764	52.004	-0.077	-0.073
-159.750	-24.703	0.159	-0.094
-158.735	-117.714	0.066	-0.012
-157.720	800.000	0.042	-0.158
-156.706	156.744	0.087	0.120
-155.691	414.423	-0.016	0.033
-154.677	-200.000	0.014	-0.117
-153.662	800.000	0.081	-0.277
-152.647	-21.353	0.375	-0.227
-151.633	-161.079	0.536	-0.028
-150.618	135.933	0.221	-0.287
-149.604	14.879	-0.058	-0.045
-148.589	288.563	-0.098	0.177
-147.574	179.439	0.092	-0.134
-146.560	-83.801	0.461	-0.146
-145.545	-116.949	0.202	-0.037
-144.531	800.000	0.108	0.301
-143.516	152.445	0.204	-0.276
-142.502	800.000	0.066	0.271
-141.487	284.934	0.165	-0.296
-140.472	27.652	0.272	0.227
-139.458	800.000	-0.061	0.170
-138.443	-110.323	-0.209	-0.043
-137.429	-56.628	-0.261	0.115
-136.414	405.872	-0.076	0.160
-135.399	286.714	-0.242	0.434
-134.385	-200.000	0.005	-0.091
-133.370	411.557	0.132	0.278
-132.356	605.968	0.123	-0.304
-131.341	266.497	0.050	-0.087
-130.326	95.087	-0.108	-0.122
-129.312	800.000	-0.093	-0.311
-128.297	-154.016	-0.185	0.012
-127.283	-200.000	-0.034	0.190
-126.268	800.000	0.071	0.255
-125.253	-124.240	-0.443	-0.069
-124.239	-82.377	-0.361	-0.116
-123.224	-146.723	0.135	-0.012
-122.210	322.704	-0.122	0.231
-121.195	-113.484	-0.048	-0.009
-120.180	-200.000	-0.208	-0.001
-119.166	279.973	-0.161	-0.285
-118.151	284.005	0.065	0.116
-117.137	107.837	-0.090	0.106
-116.122	800.000	0.084	0.365
-115.107	-200.000	-0.006	0.048
-114.093	-40.509	0.066	-0.034
-113.078	62.300	0.211	-0.209
-112.064	396.858	0.127	-0.264
-111.049	-51.087	0.067	0.031
-110.034	413.101	-0.119	0.252
-109.020	-124.050	0.282	-0.044
-108.005	-200.000	0.014	-0.082
-106.991	375.116	0.076	-0.154
-105.976	179.357	-0.103	0.150
-104.962	-130.602	0.044	0.006
-103.947	-200.000	0.037	0.215
-102.932	-35.839	-0.152	-0.081
-101.918	800.000	-0.024	0.096
-100.903	74.726	0.173	0.181
-99.889	25.697	0.210	0.173
-98.874	-88.566	0.028	0.008
-97.859	121.114	0.112	0.138
-96.845	-12.703	-0.066	0.043
-95.830	-200.000	-0.078	-0.600
-94.816	584.292	0.049	0.119
-93.801	-93.678	0.150	0.041
-92.786	556.568	-0.113	0.270
-91.772	85.697	0.071	0.077
-90.757	-200.000	-0.010	-0.136
-89.743	-2.487	0.109	0.076
-88.728	-143.695	0.665	0.063
-87.713	-200.000	-0.006	0.120
-86.699	275.100	-0.037	-0.066
-85.684	82.781	0.086	0.093
-84.670	-200.000	-0.031	-0.136
-83.655	-13.996	-0.140	0.089
-82.640	-200.000	-0.059	-0.000
-81.626	800.000	0.095	0.270
-80.611	-117.054	-0.346	-0.063
-79.597	-200.000	-0.017	-0.217
-78.582	-200.000	0.001	-0.241
-77.567	44.385	0.082	0.075
-76.553	-10.638	0.038	0.025
-75.538	18.958	0.242	-0.192
-74.524	-193.134	-0.048	0.000
-73.509	639.072	-0.082	-0.207
-72.494	-101.847	-0.129	0.031
-71.480	800.000	0.094	0.320
-70.465	-38.077	-0.167	0.088
-69.451	-200.000	-0.053	-0.260
-68.436	-37.452	-0.059	0.031
-67.422	161.572	0.154	0.214
-66.407	591.926	-0.091	0.222
-65.392	-200.000	-0.044	0.318
-64.378	49.925	0.140	0.130
-63.363	-43.799	-0.103	-0.052
-62.349	-200.000	0.022	0.108
-61.334	68.474	-0.983	-0.998
-60.319	800.000	0.215	0.660
-59.305	416.403	-0.477	-1.007
-58.290	183.561	0.608	0.890
-57.276	321.996	0.748	1.410
-56.261	-200.000	95.247	591.748
-55.246	645.770	1368.224	3457.787
-54.232	195.864	2552.786	3843.019
-53.217	109.863	2300.775	2731.131
-52.203	38.672	2064.198	1822.819
-51.188	33.672	1980.049	1703.685
-50.173	32.132	1961.249	1673.731
-49.159	46.842	2011.279	1849.518
-48.144	48.243	2029.164	1878.551
-47.130	34.255	1991.280	1718.337
-46.115	31.983	1981.013	1688.991
-45.100	31.876	1977.555	1685.008
-44.086	31.817	1975.732	1682.858
-43.071	31.807	1972.678	1680.107
-42.057	31.643	1971.137	1677.252
-41.042	31.795	1968.472	1676.284
-40.027	31.781	1966.724	1674.599
-39.013	31.834	1964.503	1673.115
-37.998	31.912	1962.960	1672.427
-36.984	31.895	1961.450	1670.928
-35.969	31.862	1959.334	1668.764
-34.954	31.915	1957.840	1667.897
-33.940	31.988	1956.040	1666.949
-32.925	32.006	1954.433	1665.672
-31.911	32.020	1952.534	1664.105
-30.896	31.912	1950.834	1661.638
-29.881	31.945	1949.678	1660.878
-28.867	32.027	1947.832	1659.970
-27.852	31.989	1945.655	1657.706
-26.838	31.920	1944.290	1655.869
-25.823	31.918	1942.451	1654.224
-24.809	31.973	1940.911	1653.333
-23.794	31.979	1938.641	1651.379
-22.779	31.992	1936.788	1649.852
-21.765	31.924	1935.477	1648.077
-20.750	31.934	1934.012	1646.849
-19.736	31.956	1932.223	1645.451
-18.721	31.981	1930.651	1644.272
-17.706	31.978	1928.881	1642.672
-16.692	31.903	1927.487	1640.762
-15.677	31.897	1926.437	1639.753
-14.663	31.970	1924.405	1638.593
-13.648	31.960	1923.356	1637.545
-12.633	31.944	1922.409	1636.535
-11.619	31.943	1921.220	1635.453
-10.604	31.945	1919.704	1634.108
-9.590	31.942	1918.278	1632.803
-8.575	31.892	1916.478	1630.774
-7.560	31.923	1915.397	1630.057
-6.546	31.946	1914.316	1629.271
-5.531	31.981	1912.840	1628.253
-4.517	32.003	1911.791	1627.487
-3.502	31.993	1910.471	1626.218
-2.487	31.958	1909.094	1624.679
-1.473	31.880	1908.561	1623.483
-0.458	32.011	1903.712	1620.422
0.556	31.137	1883.580	1592.770
1.571	27.060	1864.774	1542.191
2.586	23.081	1887.774	1526.801
3.600	22.099	1923.195	1546.667
4.615	21.533	1917.828	1537.243
5.629	16.618	1817.528	1415.696
6.644	8.495	1701.241	1261.149
7.659	4.760	1666.167	1206.143
8.673	4.547	1662.982	1202.082
9.688	4.527	1661.141	1200.489
10.702	4.543	1659.693	1199.466
11.717	4.413	1656.894	1196.331
12.731	4.873	1656.034	1199.142
13.746	10.170	1668.926	1249.379
14.761	17.229	1683.641	1315.101
15.775	19.369	1685.627	1333.097
16.790	18.608	1682.498	1324.631
17.804	17.444	1679.435	1313.124
18.819	16.440	1676.267	1302.795
19.834	15.807	1673.636	1295.766
20.848	15.522	1672.410	1292.507
21.863	15.226	1670.872	1288.923
22.877	15.026	1669.154	1285.950
23.892	14.899	1667.851	1283.857
24.907	14.671	1667.022	1281.359
25.921	14.790	1665.583	1281.047
26.936	14.747	1664.587	1279.844
27.950	14.866	1663.462	1279.770
28.965	14.779	1663.463	1278.991
29.980	14.858	1662.822	1278.995
30.994	14.981	1661.314	1278.657
32.009	15.021	1660.209	1278.006
33.023	15.098	1659.698	1278.083
34.038	15.038	1659.007	1276.983
35.053	15.142	1657.238	1276.296
36.067	14.982	1656.176	1274.147
37.082	15.006	1654.979	1273.298
38.096	14.963	1654.092	1272.179
39.111	14.970	1653.254	1271.473
40.126	15.063	1652.484	1271.470
41.140	14.972	1651.588	1269.980
42.155	14.828	1650.160	1267.680
43.169	14.724	1648.647	1265.612
44.184	14.719	1647.777	1264.802
45.199	14.662	1646.400	1263.201
46.213	14.693	1645.352	1262.517
47.228	14.713	1643.847	1261.403
48.242	14.816	1642.539	1261.062
49.257	14.909	1641.776	1261.070
50.271	14.900	1640.831	1260.161
51.286	14.799	1639.868	1258.552
52.301	14.794	1638.424	1257.290
53.315	14.886	1636.873	1256.681
54.330	14.851	1635.153	1254.989
55.344	14.753	1633.667	1252.999
56.359	14.774	1631.766	1251.591
57.374	14.719	1631.105	1250.564
58.388	14.804	1629.483	1249.841
59.403	14.709	1628.755	1248.465
60.417	14.644	1627.436	1246.857
61.432	14.647	1626.226	1245.844
62.447	14.600	1625.447	1244.783
63.461	14.675	1623.444	1243.699
64.476	14.607	1622.791	1242.578
65.490	14.625	1621.564	1241.664
66.505	14.552	1620.489	1240.194
67.520	14.549	1619.757	1239.496
68.534	14.561	1618.325	1238.383
69.549	14.577	1617.426	1237.704
70.563	14.597	1616.537	1237.064
71.578	14.651	1615.113	1236.262
72.593	14.620	1613.479	1234.674
73.607	14.531	1613.044	1233.569
74.622	14.330	1612.370	1231.464
75.636	14.466	1610.759	1231.130
76.651	14.499	1610.271	1230.886
77.666	14.436	1609.404	1229.653
78.680	14.487	1608.429	1229.174
79.695	14.530	1607.469	1228.651
80.709	14.565	1606.813	1228.298
81.724	14.537	1605.876	1227.268
82.739	14.655	1605.293	1227.578
83.753	14.703	1604.062	1226.883
84.768	14.802	1603.318	1226.930
85.782	14.912	1602.438	1226.959
86.797	14.936	1601.750	1226.497
87.812	14.987	1600.737	1225.983
88.826	14.931	1599.289	1224.362
89.841	14.914	1598.277	1223.354
90.855	14.911	1597.369	1222.523
91.870	14.927	1596.485	1221.858
92.884	14.940	1595.538	1221.123
93.899	14.995	1594.678	1220.758
94.914	14.994	1593.320	1219.604
95.928	14.984	1592.340	1218.671
96.943	15.080	1590.844	1218.116
97.957	15.011	1589.446	1216.438
98.972	14.998	1587.714	1214.910
99.987	14.895	1586.275	1212.952
101.001	14.996	1584.516	1212.232
102.016	14.858	1583.381	1210.256
103.030	14.861	1582.146	1209.230
104.045	14.901	1581.143	1208.640
105.060	14.964	1579.066	1207.403
106.074	14.826	1578.604	1205.947
107.089	14.879	1576.002	1204.233
108.103	14.706	1574.791	1201.959
109.118	14.586	1573.389	1199.918
110.133	14.607	1572.118	1198.993
111.147	14.594	1570.601	1197.635
112.162	14.552	1569.355	1196.278
113.176	14.645	1567.858	1195.700
114.191	14.692	1566.555	1194.934
115.206	14.708	1565.398	1194.059
116.220	14.770	1563.945	1193.295
117.235	14.770	1562.758	1192.284
118.249	14.773	1561.163	1190.983
119.264	14.784	1559.691	1189.833
120.279	14.632	1558.717	1187.900
121.293	14.646	1557.192	1186.733
122.308	14.515	1556.156	1184.910
123.322	14.569	1554.289	1183.767
124.337	14.604	1552.574	1182.599
125.352	14.640	1550.868	1181.454
126.366	14.537	1550.378	1180.245
127.381	14.570	1549.112	1179.409
128.395	14.625	1547.697	1178.619
129.410	14.625	1546.930	1177.929
130.424	14.584	1545.311	1176.303
131.439	14.617	1543.983	1175.423
132.454	14.645	1542.851	1174.651
133.468	14.705	1541.408	1173.872
134.483	14.792	1539.600	1172.998
135.497	14.694	1538.754	1171.566
136.512	14.686	1537.491	1170.446
137.527	14.761	1536.194	1169.875
138.541	14.794	1534.452	1168.679
139.556	14.881	1533.282	1168.291
140.570	14.765	1532.264	1166.603
141.585	14.854	1530.845	1166.042
142.600	14.875	1530.178	1165.572
143.614	15.019	1528.940	1165.529
144.629	15.091	1527.463	1164.806
145.643	15.052	1526.350	1163.577
146.658	15.094	1524.786	1162.580
147.673	15.012	1523.143	1160.651
148.687	14.972	1521.850	1159.285
149.702	14.852	1520.866	1157.603
150.716	14.907	1518.744	1156.266
151.731	14.869	1517.565	1155.008
152.746	14.815	1516.109	1153.423
153.760	14.814	1515.584	1152.911
154.775	14.854	1513.853	1151.768
155.789	14.994	1511.725	1151.016
156.804	14.950	1511.583	1150.498
157.819	15.104	1509.726	1150.040
158.833	15.107	1508.485	1149.016
159.848	15.185	1507.754	1148.896
160.862	15.153	1506.763	1147.816
161.877	15.247	1504.922	1146.953
162.892	14.991	1504.417	1144.719
163.906	15.033	1502.728	1143.618
164.921	14.855	1501.961	1141.715
165.935	14.851	1501.122	1140.955
166.950	14.963	1499.936	1140.717
167.964	15.041	1498.475	1140.036
168.979	15.014	1497.858	1139.278
169.994	15.095	1496.585	1138.759
171.008	14.953	1495.834	1137.122
172.023	15.003	1494.682	1136.484
173.037	15.055	1493.477	1135.824
174.052	15.159	1492.494	1135.678
175.067	15.238	1490.984	1134.967
176.081	15.227	1490.107	1134.119
177.096	15.115	1488.140	1131.770
178.110	15.074	1487.325	1130.770
179.125	15.075	1486.210	1129.827
180.140	14.964	1485.642	1128.552
181.154	15.062	1484.808	1128.478
182.169	15.138	1483.140	1127.620
183.183	15.264	1481.697	1127.275
184.198	15.205	1481.223	1126.416
185.213	15.343	1479.877	1126.219
186.227	15.320	1478.800	1125.145
187.242	15.374	1478.309	1125.031
188.256	15.334	1476.881	1123.583
189.271	15.407	1475.553	1122.957
190.286	15.506	1474.480	1122.707
191.300	15.360	1473.750	1121.074
192.315	15.283	1472.205	1119.286
193.329	15.105	1470.826	1116.952
194.344	15.031	1469.619	1115.444
195.359	15.034	1469.034	1114.920
196.373	15.135	1468.006	1114.710
197.388	15.233	1467.037	1114.528
198.402	15.325	1466.223	1114.422
199.417	15.451	1465.078	1114.289
200.432	15.558	1463.442	1113.661
201.446	15.650	1463.055	1113.877
202.461	15.655	1461.745	1112.811
203.475	15.682	1460.770	1112.153
204.490	15.756	1459.876	1111.863
205.504	15.689	1458.818	1110.512
206.519	15.526	1458.060	1108.764
207.534	15.541	1456.407	1107.505
208.548	15.573	1455.178	1106.684
209.563	15.541	1454.058	1105.522
210.577	15.532	1453.299	1104.788
211.592	15.563	1452.379	1104.195
212.607	15.598	1451.743	1103.844
213.621	15.643	1451.585	1103.921
214.636	15.748	1450.657	1103.808
215.650	15.687	1449.359	1102.326
216.665	15.571	1448.370	1100.714
217.680	15.702	1447.530	1100.833
218.694	15.791	1447.014	1100.925
219.709	15.847	1446.411	1100.736
220.723	15.833	1444.932	1099.422
221.738	15.784	1444.202	1098.449
222.753	15.772	1443.336	1097.615
223.767	15.821	1442.013	1096.836
224.782	15.829	1441.355	1096.290
225.796	15.842	1440.815	1095.862
226.811	15.867	1439.639	1095.034
227.826	15.935	1438.862	1094.793
228.840	16.024	1437.651	1094.351
229.855	15.960	1436.841	1093.218
230.869	15.852	1435.740	1091.585
231.884	15.847	1434.823	1090.759
232.899	15.797	1433.805	1089.565
233.913	15.834	1432.871	1088.997
234.928	15.750	1431.499	1087.317
235.942	15.780	1430.219	1086.441
236.957	15.786	1429.005	1085.462
237.972	15.708	1428.459	1084.450
238.986	15.819	1426.528	1083.602
240.001	15.834	1426.007	1083.208
241.015	15.764	1425.391	1082.191
242.030	15.841	1423.702	1081.312
243.045	15.954	1422.699	1081.179
244.059	15.886	1422.074	1080.168
245.074	15.831	1421.842	1079.548
246.088	15.989	1420.627	1079.540
247.103	16.073	1419.870	1079.406
248.117	16.039	1419.194	1078.579
249.132	16.117	1418.415	1078.393
250.147	16.184	1417.922	1078.350
251.161	16.303	1417.147	1078.423
252.176	16.388	1416.498	1078.379
253.190	16.465	1415.566	1078.064
254.205	16.539	1414.973	1077.991
255.220	16.495	1413.990	1076.867
256.234	16.626	1413.210	1077.006
257.249	16.575	1412.287	1075.889
258.263	16.455	1411.559	1074.472
259.278	16.586	1410.697	1074.558
260.293	16.468	1409.988	1073.173
261.307	16.506	1408.899	1072.490
262.322	16.596	1408.280	1072.495
263.336	16.659	1407.553	1072.245
264.351	16.640	1406.501	1071.224
265.366	16.685	1405.581	1070.713
266.380	16.764	1404.673	1070.430
267.395	16.819	1403.542	1069.818
268.409	16.723	1402.597	1068.399
269.424	16.612	1401.894	1067.065
270.439	16.610	1400.763	1066.103
271.453	16.671	1399.207	1065.205
272.468	16.670	1398.934	1064.895
273.482	16.563	1397.971	1063.395
274.497	16.582	1397.138	1062.788
275.512	16.547	1396.093	1061.682
276.526	16.675	1394.959	1061.524
277.541	16.591	1394.400	1060.478
278.555	16.633	1393.847	1060.230
279.570	16.722	1392.299	1059.516
280.585	16.732	1391.787	1059.096
281.599	16.862	1390.887	1059.125
282.614	16.837	1390.315	1058.442
283.628	16.749	1388.952	1056.763
284.643	16.704	1387.989	1055.656
285.657	16.684	1386.939	1054.636
286.672	16.702	1385.861	1053.840
287.687	16.791	1384.859	1053.535
288.701	16.808	1384.081	1052.954
289.716	16.752	1383.590	1052.144
290.730	16.872	1382.638	1052.069
291.745	16.721	1381.950	1050.518
292.760	16.927	1380.530	1050.622
293.774	16.960	1379.597	1050.020
294.789	16.862	1378.828	1048.738
295.803	16.859	1377.982	1047.985
296.818	17.103	1376.872	1048.552
297.833	16.907	1376.252	1046.775
298.847	16.844	1375.352	1045.614
299.862	16.875	1374.263	1044.885
300.876	16.952	1373.011	1044.315
301.891	16.884	1372.709	1043.572
302.906	16.906	1371.826	1042.940
303.920	17.050	1370.959	1043.079
304.935	17.114	1370.301	1042.879
305.949	17.101	1369.543	1042.129
306.964	17.163	1368.890	1041.921
307.979	17.191	1367.977	1041.303
308.993	17.167	1367.063	1040.368
310.008	17.144	1365.742	1039.131
311.022	17.193	1364.622	1038.488
312.037	17.343	1363.491	1038.449
313.052	17.265	1362.833	1037.380
314.066	17.266	1361.887	1036.574
315.081	17.258	1360.749	1035.566
316.095	17.095	1360.094	1033.989
317.110	17.071	1358.624	1032.631
318.125	17.013	1357.870	1031.612
319.139	17.073	1356.641	1030.952
320.154	17.134	1355.974	1030.724
321.168	17.130	1354.864	1029.769
322.183	17.115	1354.033	1028.951
323.197	17.114	1352.986	1028.063
324.212	17.220	1352.425	1028.185
325.227	17.191	1351.417	1027.152
326.241	17.175	1350.665	1026.389
327.256	17.285	1349.695	1026.231
328.270	17.181	1348.979	1024.967
329.285	17.254	1347.968	1024.549
330.300	17.202	1347.176	1023.540
331.314	17.210	1346.212	1022.767
332.329	17.274	1345.250	1022.331
333.343	17.213	1344.198	1021.075
334.358	17.270	1343.358	1020.688
335.373	17.351	1342.857	1020.700
336.387	17.358	1342.075	1020.058
337.402	17.474	1340.649	1019.580
338.416	17.436	1340.506	1019.152
339.431	17.434	1340.345	1018.928
340.446	17.461	1339.134	1018.082
341.460	17.491	1338.397	1017.611
342.475	17.554	1337.209	1016.993
343.489	17.587	1336.746	1016.744
344.504	17.717	1335.526	1016.504
345.519	17.679	1334.814	1015.643
346.533	17.800	1334.253	1015.848
347.548	17.813	1332.879	1014.788
348.562	17.824	1331.973	1014.079
349.577	17.739	1331.398	1013.042
350.592	17.736	1330.350	1012.142
351.606	17.671	1329.396	1010.940
352.621	17.658	1328.402	1010.014
353.635	17.595	1327.186	1008.629
354.650	17.594	1326.453	1007.979
355.665	17.605	1325.324	1007.094
356.679	17.661	1324.453	1006.674
357.694	17.680	1323.564	1006.021
358.708	17.670	1322.717	1005.233
359.723	17.792	1321.391	1004.853
360.738	17.810	1320.466	1004.168
361.752	17.757	1319.583	1003.094
362.767	17.866	1318.363	1002.720
363.781	17.859	1317.286	1001.768
364.796	17.849	1316.815	1001.266
365.810	17.926	1315.975	1000.989
366.825	17.938	1315.430	1000.554
367.840	18.031	1315.163	1000.810
368.854	18.107	1314.150	1000.396
369.869	18.124	1313.704	1000.065
370.883	18.036	1313.046	998.959
371.898	18.125	1312.227	998.770
372.913	18.096	1311.422	997.898
373.927	17.949	1310.730	996.427
374.942	18.008	1309.542	995.781
375.956	18.008	1308.940	995.236
376.971	18.125	1308.359	995.383
377.986	18.037	1307.837	994.388
379.000	18.184	1306.224	993.930
380.015	18.154	1305.740	993.295
381.029	18.332	1304.944	993.638
382.044	18.305	1304.585	993.120
383.059	18.420	1303.440	992.823
384.073	18.227	1302.943	991.243
385.088	18.345	1302.381	991.411
386.102	18.381	1301.566	990.911
387.117	18.381	1300.737	990.191
388.132	18.263	1300.186	989.002
389.146	18.213	1299.064	987.773
390.161	18.207	1298.448	987.182
391.175	18.321	1297.501	987.033
392.190	18.216	1296.539	985.605
393.205	18.243	1295.693	985.035
394.219	18.392	1294.452	984.858
395.234	18.500	1293.288	984.505
396.248	18.281	1292.612	982.648
397.263	18.361	1290.949	981.753
398.278	18.406	1289.363	980.718
399.292	18.307	1288.333	979.281
400.307	18.306	1287.322	978.420
401.321	18.263	1286.278	977.297
402.336	18.167	1285.369	975.974
403.350	18.261	1284.287	975.600
404.365	18.222	1283.805	974.923
405.380	18.258	1282.661	974.175
406.394	18.343	1281.635	973.795
407.409	18.408	1281.139	973.702
408.423	18.399	1280.564	973.125
409.438	18.402	1280.370	972.908
410.453	18.620	1279.152	973.133
411.467	18.621	1278.542	972.588
412.482	18.601	1278.159	972.097
413.496	18.667	1277.297	971.731
414.511	18.741	1276.517	971.470
415.526	18.739	1275.823	970.844
416.540	18.715	1275.355	970.266
417.555	18.828	1274.525	970.189
418.569	18.938	1273.967	970.296
419.584	18.831	1273.332	969.125
420.599	18.809	1272.632	968.382
421.613	140.461	1431.612	1795.695
422.628	135.054	1454.744	1795.782
