DTS Sentinel unit serial number:	SN413079Multiplexer serial number:	ORYXHardware model number:	OX4-SRSoftware version number:	ORYX F/W v4.00 Oryx Data Collector v3.7.2.0data status	okinstallation	princeton_trtdifferential loss correction	single-endedforward channel	channel 4reverse channel	N/Adate	2019/09/16time	04:53:34forward acquisition time	60.00reverse acquisition time	0.00gamma	496.2192k internal	0.2321k external	0.2321temperature offset calibration	0.9980default loss term (dB/km)	0.3790temperature slope calibration	1.0000multiplexer offset coefficient	1.0000multiplexer slope coefficient	1.0000fibre end	0.00T internal ref (°C)	27.14T ext. ref 1 (°C)	10.96T ext. ref 2 (°C)	21.68length (m)	temperature (°C)	Stokes	anti-Stokes-747.200	-51.694	-0.205	-0.097
-746.185	800.000	-0.080	0.342
-745.171	800.000	0.059	0.226
-744.156	-0.817	-0.154	0.111
-743.142	-139.535	0.367	-0.040
-742.127	800.000	-0.040	0.158
-741.112	320.190	-0.068	-0.131
-740.098	-61.591	0.161	0.068
-739.083	30.202	-0.077	0.067
-738.069	61.548	-0.148	0.149
-737.054	67.632	-0.113	-0.117
-736.039	-38.143	-0.221	-0.118
-735.025	125.438	0.141	-0.179
-734.010	-7.301	-0.247	-0.169
-732.996	-18.792	-0.105	0.066
-731.981	-200.000	0.016	0.284
-730.966	-28.395	0.206	-0.120
-729.952	400.252	0.082	0.174
-728.937	22.330	-0.333	0.275
-727.923	178.165	-0.242	-0.356
-726.908	-38.929	-0.082	-0.044
-725.894	800.000	0.067	0.206
-724.879	-99.948	-0.071	0.018
-723.864	-76.265	0.463	0.165
-722.850	-0.571	-0.124	0.089
-721.835	-82.564	-0.220	0.072
-720.821	127.016	-0.097	0.125
-719.806	2.790	0.108	0.079
-718.791	-200.000	-0.028	0.143
-717.777	403.649	0.154	-0.328
-716.762	-31.669	0.085	-0.048
-715.748	-68.771	-0.235	0.092
-714.733	-129.727	-0.508	-0.071
-713.718	-127.696	0.092	-0.013
-712.704	30.126	0.182	0.157
-711.689	9.365	0.166	0.127
-710.675	59.990	0.067	-0.067
-709.660	68.041	0.147	-0.152
-708.645	529.746	0.019	0.046
-707.631	-81.577	-0.308	0.102
-706.616	77.568	0.180	0.194
-705.602	42.922	0.086	-0.079
-704.587	-200.000	0.020	0.097
-703.572	-122.509	-0.150	-0.025
-702.558	-200.000	0.003	0.283
-701.543	473.579	0.061	0.139
-700.529	649.538	-0.110	-0.284
-699.514	163.382	0.258	-0.367
-698.499	800.000	0.062	-0.175
-697.485	63.084	-0.244	0.246
-696.470	-100.067	0.235	-0.059
-695.456	-116.780	-0.159	-0.029
-694.441	-88.351	-0.118	0.036
-693.426	5.067	-0.287	0.213
-692.412	-200.000	-0.018	0.189
-691.397	-119.387	0.077	0.013
-690.383	38.018	0.209	-0.187
-689.368	-62.590	-0.080	-0.034
-688.354	73.220	-0.091	-0.096
-687.339	190.032	0.081	-0.122
-686.324	-146.098	0.221	-0.020
-685.310	-130.758	-0.247	0.033
-684.295	-43.215	-0.088	0.045
-683.281	-23.932	0.052	-0.031
-682.266	139.455	-0.099	0.131
-681.251	-200.000	0.025	0.147
-680.237	373.268	-0.124	0.255
-679.222	-200.000	-0.022	0.278
-678.208	-58.651	-0.118	0.052
-677.193	-23.001	0.104	-0.063
-676.178	277.447	-0.212	0.381
-675.164	148.778	0.204	-0.278
-674.149	-22.777	-0.448	-0.273
-673.135	-200.000	0.007	-0.257
-672.120	-20.112	-0.061	-0.038
-671.105	-142.069	0.206	-0.021
-670.091	-38.093	0.157	0.084
-669.076	44.574	-0.062	0.057
-668.062	117.104	0.205	-0.254
-667.047	32.126	0.127	0.110
-666.032	553.634	-0.094	0.227
-665.018	-98.037	-0.173	-0.045
-664.003	-82.280	-0.352	0.115
-662.989	-200.000	-0.061	0.279
-661.974	7.564	-0.097	-0.073
-660.959	-149.356	0.183	0.015
-659.945	800.000	0.037	-0.147
-658.930	2.184	0.262	0.191
-657.916	5.917	-0.091	-0.068
-656.901	285.054	0.063	-0.114
-655.886	65.955	-0.132	0.135
-654.872	-200.000	-0.012	0.073
-653.857	130.824	0.119	-0.154
-652.843	-17.869	0.078	-0.049
-651.828	-200.000	0.009	0.265
-650.814	-200.000	0.002	0.231
-649.799	15.728	0.344	0.272
-648.784	-30.234	0.112	-0.064
-647.770	370.508	-0.180	-0.366
-646.755	-81.042	-0.298	0.099
-645.741	-200.000	0.043	0.370
-644.726	-200.000	0.011	-0.107
-643.711	-200.000	0.066	-0.340
-642.697	-79.968	0.180	-0.061
-641.682	800.000	0.088	0.314
-640.668	42.031	-0.072	-0.066
-639.653	-12.680	-0.173	0.114
-638.638	-9.232	-0.098	0.066
-637.624	62.554	-0.118	-0.119
-636.609	-26.962	-0.110	-0.065
-635.595	-79.536	0.135	0.046
-634.580	-88.254	0.456	-0.137
-633.565	-61.151	-0.147	-0.062
-632.551	-130.070	0.445	0.061
-631.536	-200.000	0.076	-0.575
-630.522	-21.143	0.238	-0.146
-629.507	-156.536	0.329	-0.021
-628.492	-91.051	-0.318	-0.092
-627.478	-85.923	0.416	-0.129
-626.463	472.156	-0.126	-0.285
-625.449	-200.000	0.048	-0.490
-624.434	140.115	-0.101	0.134
-623.419	-97.215	-0.131	-0.034
-622.405	800.000	0.088	0.310
-621.390	-200.000	0.022	0.126
-620.376	531.918	0.070	-0.166
-619.361	371.099	0.118	-0.240
-618.346	-200.000	0.030	0.205
-617.332	607.868	0.148	0.371
-616.317	800.000	-0.032	0.096
-615.303	-80.373	0.078	0.026
-614.288	-74.958	-0.285	0.103
-613.273	466.806	-0.103	-0.233
-612.259	-200.000	0.035	-0.165
-611.244	-200.000	-0.003	-0.114
-610.230	-44.304	-0.291	-0.147
-609.215	800.000	-0.106	0.313
-608.201	-66.404	0.122	-0.049
-607.186	22.668	-0.283	0.233
-606.171	-102.922	0.354	-0.085
-605.157	-200.000	-0.087	0.548
-604.142	-58.242	0.134	0.059
-603.128	-116.180	0.187	-0.035
-602.113	-103.036	0.172	0.041
-601.098	319.778	0.130	0.248
-600.084	-56.104	0.348	0.156
-599.069	-200.000	-0.045	0.273
-598.055	-7.189	0.265	-0.180
-597.040	-200.000	0.001	-0.030
-596.025	-52.604	-0.262	0.122
-595.011	47.940	-0.077	0.072
-593.996	-128.869	-0.138	0.020
-592.982	800.000	-0.059	0.218
-591.967	503.255	-0.062	-0.143
-590.952	21.050	-0.166	0.136
-589.938	-200.000	-0.017	0.088
-588.923	800.000	-0.038	0.129
-587.909	436.739	0.046	-0.100
-586.894	86.488	0.076	0.085
-585.879	25.974	-0.029	-0.025
-584.865	2.273	0.134	-0.098
-583.850	119.471	-0.111	0.138
-582.836	308.372	-0.054	0.102
-581.821	-200.000	0.070	-0.346
-580.806	-125.313	-0.421	0.065
-579.792	195.854	-0.103	-0.157
-578.777	-16.759	-0.239	0.152
-577.763	-200.000	0.041	-0.244
-576.748	-200.000	0.005	-0.088
-575.733	-200.000	0.005	0.073
-574.719	-103.589	-0.117	0.027
-573.704	-200.000	0.054	-0.334
-572.690	-43.241	0.367	-0.187
-571.675	-66.015	-0.237	-0.095
-570.661	87.404	0.203	0.225
-569.646	-9.606	-0.274	0.183
-568.631	-57.257	-0.349	-0.154
-567.617	-200.000	0.033	-0.168
-566.602	122.220	-0.180	0.226
-565.588	105.695	0.056	-0.067
-564.573	800.000	-0.071	0.199
-563.558	216.419	-0.169	-0.270
-562.544	-122.188	-0.232	0.038
-561.529	-200.000	-0.025	-0.338
-560.515	-27.685	-0.055	-0.032
-559.500	-33.237	0.355	0.197
-558.485	-200.000	-0.033	0.162
-557.471	800.000	0.035	0.148
-556.456	-121.351	-0.168	-0.028
-555.442	-12.422	0.203	-0.133
-554.427	-118.902	-0.057	0.010
-553.412	-117.111	0.336	0.061
-552.398	-200.000	0.036	-0.198
-551.383	-200.000	0.131	-0.630
-550.369	-200.000	0.047	0.239
-549.354	314.097	0.044	0.083
-548.339	-200.000	0.025	0.138
-547.325	71.487	-0.117	-0.122
-546.310	288.202	0.010	0.018
-545.296	190.977	0.102	0.154
-544.281	-94.782	-0.256	-0.070
-543.266	-33.741	-0.278	0.154
-542.252	65.915	0.077	-0.079
-541.237	-200.000	-0.020	-0.116
-540.223	-200.000	-0.057	-0.400
-539.208	36.388	0.163	-0.144
-538.193	206.743	0.107	-0.167
-537.179	-2.047	-0.102	-0.072
-536.164	-74.373	0.196	0.071
-535.150	185.305	0.183	0.272
-534.135	-200.000	-0.021	0.153
-533.121	16.151	0.257	0.203
-532.106	800.000	0.047	0.151
-531.091	220.257	-0.132	0.213
-530.077	6.718	0.145	0.108
-529.062	-115.771	-0.342	0.064
-528.048	-1.170	-0.244	-0.173
-527.033	-200.000	0.003	-0.320
-526.018	195.170	-0.193	-0.294
-525.004	-200.000	-0.042	-0.189
-523.989	469.086	-0.138	-0.310
-522.975	-104.070	0.201	-0.047
-521.960	-94.870	-0.094	0.025
-520.945	-94.848	-0.116	0.032
-519.931	-83.026	-0.292	0.094
-518.916	138.836	0.297	-0.391
-517.902	-200.000	-0.005	-0.192
-516.887	-29.060	0.239	0.137
-515.872	-47.726	0.200	-0.097
-514.858	800.000	-0.042	0.135
-513.843	-200.000	0.035	-0.306
-512.829	-119.555	-0.283	-0.049
-511.814	2.413	0.128	-0.093
-510.799	-200.000	0.021	0.162
-509.785	-200.000	0.022	0.163
-508.770	-67.906	0.118	0.046
-507.756	800.000	-0.025	0.077
-506.741	-57.761	0.102	0.045
-505.726	-200.000	-0.002	-0.134
-504.712	412.695	0.186	0.396
-503.697	800.000	-0.106	-0.314
-502.683	-200.000	0.032	-0.339
-501.668	65.692	0.035	0.036
-500.653	396.524	-0.168	0.351
-499.639	294.412	-0.288	-0.527
-498.624	-105.642	0.324	-0.074
-497.610	-200.000	-0.018	0.156
-496.595	-200.000	0.033	-0.330
-495.581	-18.768	-0.192	0.120
-494.566	-78.167	-0.430	-0.148
-493.551	-87.582	-0.226	-0.068
-492.537	-75.789	-0.226	-0.080
-491.522	90.076	0.100	0.112
-490.508	-76.693	-0.368	0.129
-489.493	-126.719	0.206	-0.030
-488.478	800.000	0.026	-0.100
-487.464	16.095	-0.205	0.161
-486.449	800.000	0.049	0.204
-485.435	-99.360	-0.159	-0.040
-484.420	800.000	-0.088	0.263
-483.405	10.440	0.155	-0.118
-482.391	-32.681	0.212	0.118
-481.376	-200.000	0.046	-0.241
-480.362	320.454	-0.119	0.226
-479.347	8.229	0.183	-0.138
-478.332	14.838	0.091	-0.071
-477.318	-30.381	0.163	0.093
-476.303	-200.000	-0.266	0.000
-475.289	504.996	-0.093	-0.216
-474.274	-33.302	-0.357	-0.198
-473.259	-77.958	0.267	-0.092
-472.245	-24.990	0.136	0.081
-471.230	3.189	-0.098	-0.071
-470.216	-200.000	-0.043	-0.349
-469.201	253.168	0.088	0.151
-468.186	800.000	0.072	0.273
-467.172	-200.000	-0.029	-0.130
-466.157	-200.000	0.034	0.238
-465.143	-116.473	-0.126	0.023
-464.128	55.870	0.106	0.103
-463.113	-200.000	0.008	-0.285
-462.099	-37.977	0.134	-0.071
-461.084	-99.907	-0.280	0.070
-460.070	35.516	0.039	-0.034
-459.055	-107.561	-0.509	-0.111
-458.040	561.045	-0.264	0.638
-457.026	129.396	-0.262	0.335
-456.011	-200.000	0.060	-0.603
-454.997	522.736	0.125	-0.294
-453.982	-92.446	-0.266	0.075
-452.968	800.000	-0.051	0.167
-451.953	-16.269	0.276	-0.175
-450.938	-55.962	-0.091	-0.041
-449.924	34.660	-0.057	0.050
-448.909	-87.586	0.063	-0.019
-447.895	260.830	0.030	-0.053
-446.880	-200.000	-0.012	0.060
-445.865	800.000	-0.164	-0.458
-444.851	147.126	-0.132	0.177
-443.836	54.340	0.131	0.126
-442.822	760.413	-0.065	0.176
-441.807	777.187	-0.162	-0.442
-440.792	633.351	0.145	-0.368
-439.778	800.000	0.020	-0.059
-438.763	-44.717	0.164	0.082
-437.749	-200.000	-0.039	-0.296
-436.734	-138.966	0.334	0.036
-435.719	-200.000	0.008	-0.057
-434.705	800.000	0.047	0.156
-433.690	756.003	-0.054	-0.146
-432.676	-7.582	-0.057	-0.038
-431.661	224.819	0.033	-0.054
-430.646	-52.778	0.087	-0.040
-429.632	-162.052	-0.172	-0.009
-428.617	315.382	0.051	0.096
-427.603	588.228	-0.021	-0.052
-426.588	312.172	-0.065	-0.122
-425.573	107.760	0.107	0.127
-424.559	-200.000	-0.034	0.292
-423.544	-125.772	0.105	0.016
-422.530	24.724	-0.209	0.173
-421.515	473.087	-0.124	0.280
-420.500	-43.584	-0.111	-0.056
-419.486	-200.000	0.050	-0.318
-418.471	99.692	-0.124	-0.143
-417.457	244.795	-0.193	0.323
-416.442	-51.641	-0.094	-0.044
-415.428	154.741	0.042	0.058
-414.413	121.938	0.147	0.183
-413.398	276.411	0.024	0.042
-412.384	-200.000	-0.016	-0.126
-411.369	-191.832	-0.034	-0.000
-410.355	-200.000	0.059	0.347
-409.340	-144.211	-0.195	-0.018
-408.325	64.638	-0.090	-0.091
-407.311	-200.000	0.023	-0.285
-406.296	800.000	0.093	0.293
-405.282	12.958	-0.178	-0.137
-404.267	14.492	-0.221	0.172
-403.252	-11.230	-0.074	-0.048
-402.238	-18.907	-0.325	0.202
-401.223	117.975	-0.234	-0.287
-400.209	-185.281	0.349	0.005
-399.194	-38.985	-0.199	0.105
-398.179	800.000	0.099	0.308
-397.165	-132.336	0.157	0.020
-396.150	-46.639	0.101	-0.049
-395.136	5.119	0.269	0.197
-394.121	22.489	0.115	-0.094
-393.106	19.838	-0.168	-0.135
-392.092	534.573	0.037	0.088
-391.077	9.518	0.079	-0.060
-390.063	27.568	0.213	-0.179
-389.048	83.345	0.040	0.044
-388.033	800.000	-0.164	-0.510
-387.019	-200.000	-0.018	-0.103
-386.004	-200.000	-0.012	-0.205
-384.990	800.000	-0.091	0.290
-383.975	6.679	-0.180	0.133
-382.960	-117.893	0.181	-0.032
-381.946	-200.000	0.031	-0.196
-380.931	800.000	0.042	-0.147
-379.917	-200.000	0.029	-0.218
-378.902	-23.116	0.127	0.076
-377.888	79.639	-0.108	-0.115
-376.873	27.642	-0.127	0.106
-375.858	-92.533	0.354	0.099
-374.844	-200.000	0.261	0.001
-373.829	-200.000	0.045	-0.242
-372.815	-146.562	0.186	0.016
-371.800	-121.836	0.275	0.045
-370.785	-200.000	-0.026	-0.239
-369.771	428.056	-0.037	-0.079
-368.756	600.362	0.128	0.318
-367.742	26.404	-0.150	-0.125
-366.727	555.047	-0.097	-0.232
-365.712	-33.846	0.280	-0.153
-364.698	-103.264	0.285	0.067
-363.683	800.000	-0.042	0.118
-362.669	-99.921	0.337	-0.084
-361.654	-127.633	-0.226	-0.033
-360.639	-200.000	-0.061	0.358
-359.625	-200.000	-0.001	0.171
-358.610	788.073	0.004	0.012
-357.596	-149.554	0.280	-0.022
-356.581	-159.797	0.097	0.005
-355.566	-200.000	0.041	0.549
-354.552	-47.327	-0.129	-0.063
-353.537	157.053	0.156	-0.215
-352.523	-200.000	0.002	0.043
-351.508	-154.651	0.255	-0.017
-350.493	-115.089	-0.128	-0.024
-349.479	-73.647	0.246	-0.089
-348.464	71.928	0.079	-0.082
-347.450	22.873	0.113	0.092
-346.435	98.616	0.033	-0.038
-345.420	-200.000	-0.035	-0.206
-344.406	276.193	-0.260	-0.460
-343.391	-126.719	0.199	0.029
-342.377	-200.000	0.002	0.589
-341.362	36.888	-0.185	-0.163
-340.348	101.760	0.197	0.229
-339.333	-200.000	-0.030	-0.259
-338.318	800.000	-0.139	0.419
-337.304	56.487	0.089	0.086
-336.289	54.050	0.052	-0.050
-335.275	800.000	-0.136	0.424
-334.260	-125.060	-0.327	-0.050
-333.245	-200.000	-0.030	0.156
-332.231	117.107	0.269	0.329
-331.216	148.572	0.065	-0.087
-330.202	271.421	0.085	-0.148
-329.187	-89.624	0.230	0.067
-328.172	-200.000	0.004	0.027
-327.158	-8.749	0.329	0.219
-326.143	-125.191	-0.141	0.021
-325.129	-200.000	0.000	0.264
-324.114	74.751	0.327	0.342
-323.099	103.696	0.052	-0.061
-322.085	21.477	0.180	-0.145
-321.070	362.645	-0.124	-0.247
-320.056	25.267	-0.158	0.131
-319.041	31.417	-0.086	-0.073
-318.026	-200.000	0.045	0.252
-317.012	-100.204	-0.224	-0.055
-315.997	105.771	-0.147	0.173
-314.983	33.607	-0.065	0.056
-313.968	353.381	-0.116	-0.229
-312.953	-200.000	-0.031	0.277
-311.939	-75.915	-0.170	-0.060
-310.924	-127.096	0.310	0.045
-309.910	-3.767	0.170	-0.118
-308.895	-56.471	-0.184	-0.081
-307.880	-10.476	-0.270	0.178
-306.866	-200.000	-0.004	-0.142
-305.851	-121.214	0.180	-0.030
-304.837	262.077	0.056	-0.097
-303.822	597.928	-0.043	0.106
-302.807	-200.000	-0.016	0.239
-301.793	60.552	-0.029	-0.029
-300.778	28.054	-0.109	-0.092
-299.764	329.227	0.128	-0.244
-298.749	800.000	0.073	0.294
-297.735	656.818	0.077	0.198
-296.720	-22.807	0.218	-0.131
-295.705	800.000	-0.035	0.131
-294.691	-99.571	-0.446	0.111
-293.676	800.000	0.171	0.572
-292.662	437.562	-0.050	0.108
-291.647	-96.330	0.237	-0.062
-290.632	277.404	-0.077	-0.135
-289.618	26.949	-0.296	0.246
-288.603	-134.038	0.185	0.023
-287.589	-57.659	0.131	0.057
-286.574	649.536	-0.110	0.279
-285.559	-1.370	-0.197	-0.138
-284.545	116.869	-0.090	0.110
-283.530	78.927	0.128	0.136
-282.516	-200.000	-0.013	-0.281
-281.501	-200.000	0.012	-0.458
-280.486	62.516	-0.060	-0.060
-279.472	-34.341	0.310	0.169
-278.457	-200.000	0.036	-0.171
-277.443	661.850	0.047	0.121
-276.428	334.248	0.038	-0.073
-275.413	800.000	-0.103	0.338
-274.399	276.407	-0.102	0.180
-273.384	-35.543	-0.085	-0.046
-272.370	708.066	-0.122	0.321
-271.355	171.926	-0.175	0.249
-270.340	-200.000	0.021	0.093
-269.326	2.827	-0.223	0.160
-268.311	-44.222	0.129	0.064
-267.297	686.142	0.042	0.109
-266.282	-30.715	-0.142	-0.080
-265.267	-32.961	-0.127	0.070
-264.253	21.891	0.198	-0.160
-263.238	46.507	-0.081	0.075
-262.224	800.000	-0.068	0.244
-261.209	163.418	0.125	0.175
-260.195	-156.628	-0.143	0.009
-259.180	-70.219	-0.229	-0.086
-258.165	-100.634	0.162	0.040
-257.151	-127.970	-0.276	-0.039
-256.136	408.802	-0.130	-0.273
-255.122	323.427	0.265	-0.502
-254.107	800.000	-0.130	-0.390
-253.092	299.636	0.134	0.244
-252.078	-57.817	-0.247	0.107
-251.063	456.000	0.041	-0.090
-250.049	-64.942	0.277	-0.111
-249.034	15.782	0.167	-0.130
-248.019	600.536	-0.105	0.259
-247.005	150.398	-0.071	-0.095
-245.990	-200.000	0.057	0.408
-244.976	-84.881	0.234	-0.073
-243.961	-168.164	0.095	-0.004
-242.946	32.527	-0.341	-0.292
-241.932	11.619	-0.231	0.176
-240.917	-200.000	-0.011	-0.189
-239.903	141.338	-0.136	-0.179
-238.888	29.599	-0.293	0.247
-237.873	68.561	0.241	0.245
-236.859	-200.000	-0.001	0.269
-235.844	77.022	0.101	-0.106
-234.830	-200.000	0.044	-0.366
-233.815	-200.000	-0.085	0.511
-232.800	82.168	0.082	0.088
-231.786	27.847	0.237	0.198
-230.771	-200.000	0.001	0.139
-229.757	-16.613	-0.082	-0.051
-228.742	3.144	0.183	-0.132
-227.727	-200.000	-0.017	-0.238
-226.713	209.492	-0.054	0.084
-225.698	-85.163	0.105	0.033
-224.684	-162.024	-0.093	-0.005
-223.669	-60.539	0.252	0.106
-222.655	792.167	0.060	0.163
-221.640	-200.000	-0.009	0.110
-220.625	209.761	0.107	0.165
-219.611	-36.481	-0.329	0.175
-218.596	-200.000	0.036	-0.310
-217.582	-200.000	0.010	0.145
-216.567	-78.508	0.438	0.149
-215.552	-200.000	-0.008	-0.161
-214.538	-200.000	0.014	0.272
-213.523	-200.000	0.060	-0.398
-212.509	800.000	0.036	0.119
-211.494	255.498	0.169	0.287
-210.479	-200.000	0.034	0.155
-209.465	-200.000	0.013	-0.163
-208.450	-23.434	0.135	0.080
-207.436	-6.983	-0.089	-0.060
-206.421	394.554	0.113	0.233
-205.406	-0.176	0.280	0.197
-204.392	-168.914	-0.350	0.013
-203.377	24.918	-0.099	-0.081
-202.363	25.472	0.115	0.095
-201.348	-200.000	0.008	-0.156
-200.333	89.998	-0.203	-0.225
-199.319	108.359	-0.029	-0.034
-198.304	-75.087	-0.207	-0.073
-197.290	145.794	0.067	0.088
-196.275	-44.078	-0.255	0.127
-195.260	112.394	0.187	0.224
-194.246	100.399	0.309	0.355
-193.231	21.353	0.116	0.093
-192.217	-36.483	0.249	-0.132
-191.202	-200.000	-0.001	-0.258
-190.187	-138.179	0.243	0.027
-189.173	-0.055	-0.302	-0.213
-188.158	-200.000	0.001	-0.105
-187.144	144.988	0.150	0.198
-186.129	-200.000	-0.013	-0.229
-185.114	569.062	0.052	0.124
-184.100	411.221	-0.104	0.218
-183.085	341.974	0.152	-0.295
-182.071	-200.000	-0.007	-0.171
-181.056	255.222	-0.126	-0.213
-180.042	89.647	-0.161	0.178
-179.027	-200.000	-0.039	-0.398
-178.012	800.000	-0.118	0.331
-176.998	369.237	-0.136	-0.271
-175.983	-103.821	-0.060	-0.014
-174.969	93.536	0.142	-0.158
-173.954	-141.311	-0.201	-0.020
-172.939	26.390	0.183	-0.151
-171.925	-2.596	-0.216	-0.149
-170.910	-200.000	0.011	-0.080
-169.896	140.748	0.067	-0.087
-168.881	5.017	-0.373	-0.271
-167.866	109.833	-0.097	-0.115
-166.852	-72.398	0.334	-0.122
-165.837	-82.715	-0.164	0.053
-164.823	800.000	0.024	0.070
-163.808	-70.319	-0.244	-0.092
-162.793	-200.000	-0.037	-0.291
-161.779	248.357	-0.065	-0.108
-160.764	-200.000	-0.067	0.420
-159.750	94.189	0.033	-0.037
-158.735	-90.651	0.253	0.072
-157.720	-99.033	-0.340	0.085
-156.706	-150.177	0.343	0.026
-155.691	-5.299	0.171	-0.116
-154.677	-58.304	-0.289	-0.124
-153.662	800.000	0.025	-0.079
-152.647	-200.000	0.019	0.267
-151.633	46.263	0.165	-0.151
-150.618	800.000	0.037	-0.115
-149.604	-51.363	-0.260	0.120
-148.589	-6.796	-0.069	0.046
-147.574	12.128	0.126	0.096
-146.560	-200.000	0.042	0.239
-145.545	222.017	-0.193	-0.306
-144.531	177.045	-0.151	0.217
-143.516	-191.399	0.182	-0.002
-142.502	345.543	-0.292	0.566
-141.487	800.000	0.065	0.265
-140.472	81.139	-0.160	0.171
-139.458	800.000	-0.025	0.071
-138.443	136.612	-0.177	0.229
-137.429	388.462	0.053	-0.107
-136.414	68.911	-0.028	-0.029
-135.399	800.000	0.151	-0.450
-134.385	800.000	-0.021	0.071
-133.370	-86.769	-0.062	-0.019
-132.356	155.471	-0.079	0.108
-131.341	-82.916	0.082	-0.026
-130.326	-200.000	-0.006	-0.164
-129.312	-200.000	0.006	-0.171
-128.297	-163.739	0.114	-0.005
-127.283	-162.080	-0.228	-0.011
-126.268	217.483	-0.198	-0.311
-125.253	116.682	-0.042	0.051
-124.239	91.461	-0.117	-0.130
-123.224	-133.316	0.156	0.019
-122.210	-177.220	0.174	-0.004
-121.195	61.233	-0.168	0.165
-120.180	-70.637	-0.211	0.079
-119.166	66.196	0.241	0.241
-118.151	126.488	0.020	-0.025
-117.137	-200.000	-0.032	0.360
-116.122	129.748	-0.150	-0.189
-115.107	-30.918	-0.242	0.135
-114.093	-200.000	-0.002	-0.122
-113.078	35.307	0.139	0.120
-112.064	-3.597	0.309	0.212
-111.049	322.497	-0.230	0.432
-110.034	192.437	0.075	0.112
-109.020	151.399	-0.199	0.268
-108.005	56.713	-0.087	0.084
-106.991	-54.125	0.365	-0.164
-105.976	-80.906	0.130	-0.042
-104.962	800.000	0.036	-0.129
-103.947	-45.465	0.163	0.080
-102.932	-93.193	0.064	-0.018
-101.918	312.576	0.240	0.445
-100.903	227.959	0.072	0.115
-99.889	389.034	-0.137	0.281
-98.874	-52.976	0.248	0.113
-97.859	800.000	0.028	0.116
-96.845	597.707	0.065	0.158
-95.830	35.534	0.075	0.065
-94.816	94.812	-0.271	0.304
-93.801	59.059	0.216	0.210
-92.786	224.740	-0.043	-0.068
-91.772	-0.469	0.285	0.199
-90.757	51.275	0.061	0.057
-89.743	322.882	0.109	-0.205
-88.728	-200.000	0.016	-0.144
-87.713	-44.523	0.176	-0.087
-86.699	-14.244	0.262	-0.166
-85.684	-200.000	-0.007	-0.048
-84.670	-200.000	0.003	0.368
-83.655	800.000	-0.043	-0.160
-82.640	-42.212	-0.113	-0.057
-81.626	16.082	0.207	-0.161
-80.611	152.149	0.173	0.233
-79.597	-117.750	0.218	0.039
-78.582	130.251	0.074	0.094
-77.567	-200.000	0.058	-0.271
-76.553	82.395	0.018	0.019
-75.538	796.984	0.042	-0.114
-74.524	109.144	-0.241	0.284
-73.509	-86.716	-0.293	0.088
-72.494	800.000	-0.054	0.216
-71.480	800.000	-0.054	0.169
-70.465	-193.101	-0.191	-0.002
-69.451	189.504	0.190	-0.281
-68.436	800.000	-0.143	0.422
-67.422	800.000	-0.004	-0.018
-66.407	800.000	-0.038	0.146
-65.392	-43.067	0.186	-0.093
-64.378	326.202	-0.101	0.191
-63.363	-54.759	0.265	-0.118
-62.349	475.397	0.172	0.382
-61.334	15.108	-1.014	-0.782
-60.319	295.950	0.479	0.864
-59.305	615.488	-0.510	-1.258
-58.290	59.457	1.020	0.990
-57.276	800.000	0.497	1.468
-56.261	-200.000	115.236	648.687
-55.246	462.547	1513.314	3323.255
-54.232	143.586	2689.244	3524.093
-53.217	93.120	2325.087	2585.754
-52.203	33.490	2073.659	1771.952
-51.188	28.906	1987.764	1657.282
-50.173	27.496	1971.577	1631.107
-49.159	45.591	2029.852	1844.197
-48.144	44.546	2045.131	1848.518
-47.130	29.378	2004.612	1675.350
-46.115	27.188	1994.021	1646.616
-45.100	27.189	1990.480	1643.643
-44.086	27.085	1988.719	1641.177
-43.071	27.015	1986.869	1638.956
-42.057	26.932	1984.313	1636.039
-41.042	26.934	1982.877	1634.807
-40.027	27.008	1980.390	1633.360
-39.013	27.006	1978.711	1631.885
-37.998	27.102	1976.563	1630.914
-36.984	27.044	1974.818	1628.887
-35.969	27.068	1972.706	1627.294
-34.954	27.119	1971.025	1626.301
-33.940	27.077	1970.061	1625.067
-32.925	27.077	1968.554	1623.760
-31.911	27.121	1966.633	1622.501
-30.896	27.164	1964.840	1621.344
-29.881	27.196	1963.218	1620.227
-28.867	27.244	1961.606	1619.258
-27.852	27.156	1960.105	1617.173
-26.838	27.103	1958.764	1615.532
-25.823	27.193	1956.895	1614.724
-24.809	27.173	1954.724	1612.686
-23.794	27.131	1953.100	1610.915
-22.779	27.162	1951.169	1609.534
-21.765	27.177	1949.752	1608.429
-20.750	27.207	1947.656	1606.901
-19.736	27.190	1946.070	1605.379
-18.721	27.233	1944.724	1604.585
-17.706	27.158	1943.183	1602.592
-16.692	27.172	1941.266	1601.067
-15.677	27.242	1939.661	1600.301
-14.663	27.180	1938.120	1598.421
-13.648	27.170	1937.326	1597.611
-12.633	27.163	1935.723	1596.163
-11.619	27.231	1934.620	1595.787
-10.604	27.144	1933.100	1593.708
-9.590	27.096	1931.987	1592.312
-8.575	27.067	1930.615	1590.856
-7.560	27.167	1929.054	1590.387
-6.546	27.192	1927.400	1589.179
-5.531	27.097	1926.752	1587.753
-4.517	27.181	1925.244	1587.182
-3.502	27.178	1923.987	1586.050
-2.487	27.073	1923.274	1584.487
-1.473	27.141	1922.476	1584.356
-0.458	27.204	1917.295	1580.572
0.556	25.288	1897.018	1552.709
1.571	21.225	1878.782	1502.765
2.586	17.535	1901.867	1488.890
3.600	16.681	1937.408	1508.971
4.615	16.704	1931.779	1504.654
5.629	15.475	1840.003	1422.638
6.644	12.856	1736.136	1321.247
7.659	11.124	1706.466	1284.898
8.673	10.955	1703.559	1281.265
9.688	10.981	1702.168	1280.306
10.702	10.953	1700.923	1279.041
11.717	10.941	1696.328	1275.377
12.731	11.081	1695.280	1275.577
13.746	13.089	1699.114	1294.099
14.761	15.979	1705.469	1321.521
15.775	17.554	1706.633	1334.659
16.790	17.207	1705.376	1330.843
17.804	16.194	1701.889	1320.079
18.819	15.226	1698.538	1309.802
19.834	14.577	1695.744	1302.470
20.848	14.273	1693.869	1298.545
21.863	13.964	1692.708	1295.133
22.877	13.720	1690.883	1291.717
23.892	13.533	1689.912	1289.408
24.907	13.420	1688.346	1287.223
25.921	13.371	1687.533	1286.107
26.936	13.371	1686.365	1285.101
27.950	13.437	1685.742	1285.024
28.965	13.505	1684.568	1284.546
29.980	13.540	1684.237	1284.445
30.994	13.588	1682.870	1283.663
32.009	13.626	1681.366	1282.698
33.023	13.688	1681.032	1282.806
34.038	13.655	1679.733	1281.451
35.053	13.630	1678.707	1280.356
36.067	13.635	1677.337	1279.241
37.082	13.522	1675.914	1277.174
38.096	13.504	1675.466	1276.575
39.111	13.587	1674.092	1276.056
40.126	13.653	1673.335	1275.876
41.140	13.631	1672.189	1274.715
42.155	13.467	1670.985	1272.428
43.169	13.337	1669.812	1270.425
44.184	13.312	1668.483	1269.108
45.199	13.321	1667.928	1268.643
46.213	13.293	1666.455	1267.193
47.228	13.320	1665.121	1266.275
48.242	13.376	1663.583	1265.423
49.257	13.482	1662.580	1265.358
50.271	13.564	1661.086	1264.732
51.286	13.426	1660.599	1263.197
52.301	13.487	1659.064	1262.384
53.315	13.494	1657.093	1260.829
54.330	13.483	1655.636	1259.520
55.344	13.478	1653.747	1257.939
56.359	13.454	1652.403	1256.624
57.374	13.335	1651.866	1255.195
58.388	13.353	1650.480	1254.173
59.403	13.348	1649.330	1253.149
60.417	13.359	1647.847	1251.990
61.432	13.317	1646.645	1250.651
62.447	13.290	1645.516	1249.478
63.461	13.276	1644.526	1248.513
64.476	13.250	1643.057	1247.087
65.490	13.228	1642.349	1246.279
66.505	13.244	1640.965	1245.235
67.520	13.166	1639.978	1243.790
68.534	13.288	1638.489	1243.466
69.549	13.348	1637.435	1243.011
70.563	13.255	1636.280	1241.321
71.578	13.301	1635.245	1240.770
72.593	13.184	1634.271	1239.048
73.607	13.118	1633.490	1237.850
74.622	13.145	1631.942	1236.767
75.636	13.154	1631.005	1236.021
76.651	13.224	1630.196	1235.817
77.666	13.144	1629.893	1234.884
78.680	13.171	1628.978	1234.280
79.695	13.177	1628.325	1233.719
80.709	13.175	1626.584	1232.277
81.724	13.190	1626.424	1232.163
82.739	13.298	1624.781	1231.611
83.753	13.407	1623.907	1231.653
84.768	13.383	1623.324	1230.917
85.782	13.389	1622.952	1230.571
86.797	13.438	1622.288	1230.329
87.812	13.568	1620.407	1229.755
88.826	13.408	1619.409	1227.705
89.841	13.460	1618.137	1227.019
90.855	13.447	1617.263	1226.147
91.870	13.474	1615.872	1225.189
92.884	13.528	1615.185	1224.957
93.899	13.655	1613.359	1224.401
94.914	13.557	1613.031	1223.316
95.928	13.499	1611.974	1221.982
96.943	13.503	1611.119	1221.257
97.957	13.565	1609.047	1220.031
98.972	13.583	1607.376	1218.786
99.987	13.573	1605.909	1217.498
101.001	13.587	1604.010	1216.048
102.016	13.533	1602.562	1214.454
103.030	13.515	1601.395	1213.330
104.045	13.507	1600.098	1212.181
105.060	13.580	1598.329	1211.267
106.074	13.475	1597.030	1209.403
107.089	13.405	1595.707	1207.786
108.103	13.321	1593.886	1205.692
109.118	13.180	1592.975	1203.867
110.133	13.299	1591.301	1203.359
111.147	13.291	1590.129	1202.306
112.162	13.271	1588.637	1200.929
113.176	13.317	1587.034	1199.945
114.191	13.408	1585.520	1199.352
115.206	13.454	1584.188	1198.572
116.220	13.494	1582.971	1197.839
117.235	13.333	1581.184	1195.216
118.249	13.292	1580.192	1194.063
119.264	13.323	1579.072	1193.333
120.279	13.283	1577.785	1191.966
121.293	13.304	1576.332	1190.914
122.308	13.329	1574.563	1189.655
123.322	13.323	1572.662	1188.068
124.337	13.314	1571.202	1186.797
125.352	13.180	1570.060	1184.869
126.366	13.288	1568.714	1184.522
127.381	13.242	1568.042	1183.582
128.395	13.252	1566.315	1182.244
129.410	13.232	1564.973	1180.985
130.424	13.241	1563.554	1179.869
131.439	13.309	1562.265	1179.281
132.454	13.279	1561.496	1178.377
133.468	13.319	1559.770	1177.258
134.483	13.303	1558.638	1176.184
135.497	13.318	1557.323	1175.199
136.512	13.447	1556.151	1175.125
137.527	13.459	1554.296	1173.705
138.541	13.455	1552.861	1172.489
139.556	13.409	1551.599	1171.104
140.570	13.517	1549.919	1170.498
141.585	13.527	1548.957	1169.738
142.600	13.550	1547.757	1168.890
143.614	13.515	1546.648	1167.703
144.629	13.618	1545.419	1167.401
145.643	13.684	1544.504	1167.070
146.658	13.732	1542.527	1165.806
147.673	13.679	1540.632	1163.899
148.687	13.570	1539.781	1162.391
149.702	13.577	1537.685	1160.755
150.716	13.457	1536.233	1158.715
151.731	13.549	1534.445	1157.910
152.746	13.541	1533.897	1157.333
153.760	13.537	1532.224	1155.945
154.775	13.557	1531.195	1155.205
155.789	13.568	1530.008	1154.286
156.804	13.605	1529.053	1153.717
157.819	13.659	1527.588	1152.885
158.833	13.654	1526.529	1151.951
159.848	13.864	1524.958	1152.120
160.862	13.832	1523.791	1150.914
161.877	13.804	1522.971	1150.002
162.892	13.738	1521.383	1148.243
163.906	13.732	1520.662	1147.555
164.921	13.623	1519.499	1145.824
165.935	13.709	1518.433	1145.511
166.950	13.716	1517.076	1144.433
167.964	13.735	1516.298	1143.876
168.979	13.707	1515.054	1142.644
169.994	13.760	1513.756	1141.929
171.008	13.750	1513.039	1141.218
172.023	13.812	1512.247	1140.946
173.037	13.732	1511.236	1139.533
174.052	13.935	1509.428	1139.460
175.067	13.816	1508.651	1137.962
176.081	13.727	1507.565	1136.425
177.096	13.772	1505.642	1135.185
178.110	13.738	1504.827	1134.238
179.125	13.773	1503.274	1133.206
180.140	13.759	1502.610	1132.510
181.154	13.884	1501.521	1132.442
182.169	13.951	1500.280	1131.864
183.183	13.932	1499.089	1130.735
184.198	13.889	1498.027	1129.544
185.213	13.937	1497.242	1129.177
186.227	13.993	1495.955	1128.487
187.242	14.041	1494.595	1127.686
188.256	14.032	1493.754	1126.890
189.271	13.996	1492.623	1125.695
190.286	14.125	1491.218	1125.404
191.300	14.075	1490.539	1124.455
192.315	13.830	1489.234	1121.720
193.329	13.728	1488.180	1120.134
194.344	13.734	1486.955	1119.151
195.359	13.803	1485.416	1118.364
196.373	13.820	1484.708	1117.843
197.388	13.930	1484.006	1117.957
198.402	13.925	1482.828	1116.936
199.417	14.090	1481.703	1117.099
200.432	14.245	1480.203	1116.907
201.446	14.327	1479.111	1116.538
202.461	14.241	1478.543	1115.435
203.475	14.271	1477.190	1114.516
204.490	14.228	1476.570	1113.661
205.504	14.338	1474.959	1113.084
206.519	14.202	1474.192	1111.495
207.534	14.209	1472.809	1110.401
208.548	14.129	1471.655	1108.899
209.563	14.213	1470.601	1108.567
210.577	14.225	1469.579	1107.778
211.592	14.189	1468.716	1106.792
212.607	14.226	1468.427	1106.720
213.621	14.299	1467.526	1106.428
214.636	14.375	1466.324	1105.933
215.650	14.268	1465.693	1104.644
216.665	14.220	1464.848	1103.597
217.680	14.440	1463.761	1104.137
218.694	14.426	1463.355	1103.638
219.709	14.448	1462.172	1102.794
220.723	14.444	1461.371	1102.068
221.738	14.367	1460.221	1100.592
222.753	14.484	1458.837	1100.224
223.767	14.516	1458.144	1099.813
224.782	14.394	1457.443	1098.384
225.796	14.463	1456.580	1098.090
226.811	14.556	1455.769	1097.998
227.826	14.549	1454.929	1097.218
228.840	14.601	1453.937	1096.714
229.855	14.521	1452.903	1095.311
230.869	14.501	1451.971	1094.382
231.884	14.523	1450.793	1093.540
232.899	14.572	1449.818	1093.028
233.913	14.521	1448.783	1091.819
234.928	14.564	1447.034	1090.686
235.942	14.438	1445.940	1088.941
236.957	14.420	1445.248	1088.205
237.972	14.417	1444.144	1087.259
238.986	14.442	1442.955	1086.431
240.001	14.418	1442.425	1085.782
241.015	14.483	1440.990	1085.029
242.030	14.557	1440.025	1084.683
243.045	14.534	1439.056	1083.712
244.059	14.675	1437.455	1083.326
245.074	14.688	1437.067	1083.019
246.088	14.706	1436.301	1082.461
247.103	14.716	1435.681	1081.964
248.117	14.757	1435.050	1081.662
249.132	14.821	1434.083	1081.246
250.147	14.906	1433.243	1081.068
251.161	14.903	1432.716	1080.559
252.176	15.013	1431.972	1080.610
253.190	15.049	1430.865	1079.910
254.205	15.028	1430.338	1079.286
255.220	15.089	1429.408	1078.876
256.234	15.130	1428.733	1078.541
257.249	15.016	1428.204	1077.309
258.263	15.046	1427.331	1076.747
259.278	15.083	1426.229	1076.057
260.293	15.154	1425.425	1075.814
261.307	15.084	1424.393	1074.490
262.322	15.107	1423.727	1074.040
263.336	15.222	1422.782	1073.968
264.351	15.201	1421.814	1073.012
265.366	15.267	1420.440	1072.300
266.380	15.391	1419.962	1072.637
267.395	15.351	1418.831	1071.434
268.409	15.277	1418.037	1070.269
269.424	15.230	1417.179	1069.225
270.439	15.329	1415.457	1068.461
271.453	15.298	1414.676	1067.578
272.468	15.162	1414.157	1066.227
273.482	15.117	1413.407	1065.278
274.497	15.240	1412.590	1065.353
275.512	15.294	1411.162	1064.528
276.526	15.275	1410.563	1063.855
277.541	15.256	1409.540	1062.872
278.555	15.230	1408.910	1062.136
279.570	15.272	1407.700	1061.397
280.585	15.372	1406.710	1061.191
281.599	15.516	1405.988	1061.464
282.614	15.329	1405.644	1059.929
283.628	15.440	1404.049	1059.330
284.643	15.360	1403.291	1058.160
285.657	15.398	1401.913	1057.270
286.672	15.368	1401.166	1056.420
287.687	15.443	1400.127	1056.018
288.701	15.434	1399.188	1055.158
289.716	15.492	1398.326	1054.776
290.730	15.547	1397.573	1054.464
291.745	15.436	1396.387	1052.775
292.760	15.433	1395.592	1052.066
293.774	15.611	1394.260	1052.086
294.789	15.602	1393.293	1051.207
295.803	15.571	1393.061	1050.744
296.818	15.547	1391.859	1049.594
297.833	15.607	1390.762	1049.050
298.847	15.671	1389.831	1048.653
299.862	15.507	1388.840	1046.789
300.876	15.605	1388.180	1046.807
301.891	15.572	1387.388	1045.916
302.906	15.678	1386.401	1045.735
303.920	15.672	1385.588	1044.994
304.935	15.760	1384.917	1044.940
305.949	15.763	1384.321	1044.421
306.964	15.771	1383.705	1043.912
307.979	15.924	1381.857	1043.370
308.993	15.935	1381.513	1043.087
310.008	15.829	1379.756	1041.017
311.022	15.774	1379.515	1040.399
312.037	15.844	1378.449	1039.940
313.052	15.845	1377.550	1039.173
314.066	15.888	1376.854	1038.822
315.081	15.947	1375.155	1037.809
316.095	15.895	1374.365	1036.802
317.110	15.794	1373.192	1035.204
318.125	15.851	1372.059	1034.612
319.139	15.832	1371.370	1033.880
320.154	15.863	1370.199	1033.099
321.168	15.798	1369.384	1031.994
322.183	15.785	1368.291	1030.999
323.197	15.839	1367.622	1030.734
324.212	15.931	1366.488	1030.353
325.227	15.868	1365.821	1029.369
326.241	15.895	1364.836	1028.704
327.256	15.946	1363.738	1028.098
328.270	15.847	1363.652	1027.334
329.285	15.963	1362.297	1026.933
330.300	15.877	1361.838	1025.973
331.314	15.968	1360.834	1025.676
332.329	16.006	1359.570	1024.865
333.343	16.002	1358.709	1024.099
334.358	15.972	1358.133	1023.394
335.373	16.028	1357.000	1022.787
336.387	16.067	1356.504	1022.565
337.402	16.144	1355.628	1022.277
338.416	16.138	1354.844	1021.557
339.431	16.121	1354.507	1021.114
340.446	16.169	1353.746	1020.736
341.460	16.213	1352.572	1020.027
342.475	16.182	1352.105	1019.397
343.489	16.286	1351.092	1019.173
344.504	16.263	1349.935	1018.069
345.519	16.258	1349.327	1017.494
346.533	16.394	1347.802	1017.073
347.548	16.404	1346.836	1016.313
348.562	16.382	1346.435	1015.788
349.577	16.510	1345.781	1015.971
350.592	16.423	1345.142	1014.878
351.606	16.273	1344.101	1013.101
352.621	16.357	1342.831	1012.560
353.635	16.273	1342.090	1011.407
354.650	16.358	1340.753	1010.819
355.665	16.314	1339.812	1009.756
356.679	16.353	1338.812	1009.150
357.694	16.296	1337.607	1007.811
358.708	16.301	1336.808	1007.151
359.723	16.405	1335.842	1006.950
360.738	16.489	1334.366	1006.253
361.752	16.509	1333.760	1005.822
362.767	16.481	1332.230	1004.412
363.781	16.498	1331.697	1004.027
364.796	16.472	1331.575	1003.688
365.810	16.582	1330.102	1003.142
366.825	16.541	1329.710	1002.512
367.840	16.539	1329.194	1002.024
368.854	16.601	1328.891	1002.076
369.869	16.699	1327.866	1001.794
370.883	16.778	1326.766	1001.343
371.898	16.715	1325.919	1000.240
372.913	16.661	1325.474	999.499
373.927	16.681	1324.361	998.688
374.942	16.728	1323.461	998.199
375.956	16.756	1322.801	997.782
376.971	16.815	1322.070	997.483
377.986	16.844	1321.155	996.877
379.000	16.783	1320.683	996.077
380.015	16.879	1319.523	995.676
381.029	16.805	1319.040	994.787
382.044	16.899	1318.357	994.738
383.059	16.951	1317.230	994.104
384.073	16.957	1316.895	993.798
385.088	16.929	1316.261	993.069
386.102	17.041	1315.401	992.986
387.117	17.020	1314.772	992.304
388.132	17.058	1313.970	991.832
389.146	16.852	1313.192	989.953
390.161	16.905	1312.484	989.642
391.175	16.911	1311.400	988.768
392.190	16.850	1310.879	987.937
393.205	17.083	1309.623	988.257
394.219	17.104	1308.662	987.564
395.234	17.052	1307.623	986.393
396.248	17.113	1306.064	985.482
397.263	17.038	1304.887	984.075
398.278	17.055	1303.577	983.099
399.292	17.046	1302.440	982.100
400.307	16.931	1301.520	980.652
401.321	16.909	1300.584	979.733
402.336	16.961	1299.263	978.952
403.350	17.007	1298.584	978.618
404.365	17.037	1297.844	978.153
405.380	16.998	1296.984	977.193
406.394	17.068	1295.760	976.583
407.409	17.133	1295.132	976.399
408.423	17.184	1294.652	976.246
409.438	17.150	1293.987	975.460
410.453	17.279	1293.329	975.618
411.467	17.328	1292.534	975.213
412.482	17.254	1292.476	974.656
413.496	17.224	1291.667	973.793
414.511	17.267	1290.890	973.364
415.526	17.410	1289.641	973.157
416.540	17.369	1289.039	972.380
417.555	17.474	1288.184	972.252
418.569	17.528	1287.633	972.056
419.584	17.357	1287.863	971.164
420.599	17.536	1286.848	971.336
421.613	96.836	1356.698	1476.338
422.628	94.842	1366.827	1476.459
