DTS Sentinel unit serial number:	SN413079Multiplexer serial number:	ORYXHardware model number:	OX4-SRSoftware version number:	ORYX F/W v4.00 Oryx Data Collector v3.7.2.0data status	okinstallation	princeton_trtdifferential loss correction	single-endedforward channel	channel 4reverse channel	N/Adate	2019/09/15time	09:53:35forward acquisition time	60.00reverse acquisition time	0.00gamma	496.2192k internal	0.2299k external	0.2299temperature offset calibration	1.0016default loss term (dB/km)	0.3790temperature slope calibration	1.0000multiplexer offset coefficient	1.0000multiplexer slope coefficient	1.0000fibre end	0.00T internal ref (°C)	34.06T ext. ref 1 (°C)	4.99T ext. ref 2 (°C)	29.85length (m)	temperature (°C)	Stokes	anti-Stokes-747.200	-200.000	0.022	0.183
-746.185	-25.013	0.282	0.170
-745.171	-79.884	-0.169	-0.058
-744.156	104.304	-0.013	0.016
-743.142	-200.000	0.011	-0.076
-742.127	-200.000	-0.034	-0.157
-741.112	-75.210	-0.158	-0.058
-740.098	156.735	0.102	0.143
-739.083	-108.881	0.350	0.076
-738.069	773.539	-0.074	0.206
-737.054	82.424	0.122	-0.135
-736.039	-132.630	-0.414	-0.054
-735.025	5.367	0.153	0.115
-734.010	-129.192	0.177	0.025
-732.996	-144.181	-0.391	-0.037
-731.981	-190.694	0.259	0.003
-730.966	-200.000	-0.152	0.000
-729.952	-12.485	-0.199	-0.132
-728.937	226.087	-0.052	-0.085
-727.923	26.145	0.171	0.146
-726.908	349.663	-0.171	0.345
-725.894	-128.703	-0.159	-0.023
-724.879	-113.046	-0.331	0.067
-723.864	352.856	0.043	-0.087
-722.850	-200.000	0.034	0.270
-721.835	298.672	0.075	-0.140
-720.821	-100.174	-0.059	-0.015
-719.806	-102.835	-0.237	-0.057
-718.791	11.761	0.231	-0.181
-717.777	4.115	0.084	0.062
-716.762	-60.540	-0.382	0.165
-715.748	-200.000	0.014	0.126
-714.733	143.657	0.045	-0.062
-713.718	-200.000	0.041	0.209
-712.704	-100.942	0.338	0.085
-711.689	-200.000	0.025	0.286
-710.675	-113.850	0.236	0.047
-709.660	182.367	-0.259	0.390
-708.645	-105.245	-0.166	-0.039
-707.631	-14.440	-0.303	-0.199
-706.616	-200.000	-0.082	-0.395
-705.602	-130.088	0.338	-0.047
-704.587	-114.816	-0.096	0.019
-703.572	-6.482	0.390	-0.271
-702.558	175.593	0.127	0.187
-701.543	-200.000	-0.019	-0.228
-700.529	10.546	0.111	0.086
-699.514	11.357	-0.187	-0.146
-698.499	-109.479	-0.426	-0.092
-697.485	42.461	0.263	-0.244
-696.470	-10.062	-0.106	0.072
-695.456	541.249	0.093	-0.225
-694.441	-200.000	0.003	-0.275
-693.426	254.528	0.153	0.266
-692.412	-109.443	0.083	-0.018
-691.397	-45.814	-0.223	-0.112
-690.383	58.745	-0.133	-0.133
-689.368	236.773	0.030	-0.050
-688.354	800.000	-0.015	-0.061
-687.339	-21.472	-0.187	0.116
-686.324	-95.461	-0.090	-0.025
-685.310	800.000	-0.043	-0.124
-684.295	-113.535	0.162	0.032
-683.281	-200.000	-0.018	0.082
-682.266	-38.564	-0.215	-0.116
-681.251	-200.000	-0.014	0.097
-680.237	800.000	-0.083	0.280
-679.222	-94.495	-0.134	0.037
-678.208	800.000	-0.057	0.226
-677.193	22.723	0.126	0.105
-676.178	38.329	0.100	-0.090
-675.164	-157.668	-0.252	0.015
-674.149	-106.620	0.188	-0.043
-673.135	154.193	0.162	-0.226
-672.120	-67.130	-0.175	-0.070
-671.105	-200.000	0.020	-0.289
-670.091	263.777	-0.079	-0.139
-669.076	800.000	0.035	0.120
-668.062	163.203	-0.291	0.416
-667.047	-5.569	-0.137	-0.096
-666.032	-200.000	0.023	-0.352
-665.018	-188.805	0.060	-0.001
-664.003	-200.000	0.045	-0.219
-662.989	391.671	0.128	0.270
-661.974	-101.644	-0.315	-0.078
-660.959	64.987	0.220	-0.227
-659.945	-200.000	-0.033	0.187
-658.930	677.195	-0.051	0.134
-657.916	-89.887	-0.295	0.088
-656.901	-200.000	-0.005	-0.033
-655.886	622.531	0.144	-0.369
-654.872	43.933	0.181	0.169
-653.857	-132.640	0.073	-0.010
-652.843	-200.000	0.001	0.192
-651.828	-93.728	0.186	0.052
-650.814	237.901	0.207	-0.349
-649.799	-200.000	-0.030	-0.272
-648.784	323.350	0.065	0.125
-647.770	-91.501	-0.065	-0.019
-646.755	50.757	-0.226	0.218
-645.741	-106.583	0.332	-0.075
-644.726	-200.000	-0.057	0.295
-643.711	-200.000	-0.001	0.219
-642.697	-200.000	0.051	0.267
-641.682	-200.000	0.012	-0.090
-640.668	-200.000	-0.017	0.182
-639.653	-200.000	-0.001	0.122
-638.638	117.796	-0.051	0.064
-637.624	-112.472	0.236	0.048
-636.609	-69.408	0.175	0.068
-635.595	127.378	0.269	-0.347
-634.580	800.000	-0.022	0.097
-633.565	-74.582	0.144	0.053
-632.551	63.793	0.154	-0.157
-631.536	-7.398	-0.170	-0.117
-630.522	-200.000	0.013	0.133
-629.507	-91.986	-0.465	0.134
-628.492	-126.264	0.316	0.048
-627.478	48.697	-0.425	-0.404
-626.463	635.656	-0.083	-0.213
-625.449	800.000	0.050	-0.150
-624.434	-147.175	-0.247	0.021
-623.419	153.193	0.146	-0.203
-622.405	143.398	-0.086	0.116
-621.390	-17.380	0.253	-0.162
-620.376	800.000	0.049	0.170
-619.361	-200.000	0.031	0.177
-618.346	-7.776	-0.084	-0.057
-617.332	96.321	-0.071	-0.083
-616.317	-200.000	0.022	-0.229
-615.303	-32.846	0.088	0.050
-614.288	-10.407	-0.281	0.189
-613.273	800.000	0.042	-0.150
-612.259	-193.418	0.303	0.003
-611.244	-46.609	0.330	-0.164
-610.230	-140.296	-0.308	-0.033
-609.215	-73.697	-0.299	0.110
-608.201	704.847	0.060	-0.162
-607.186	-114.754	0.249	-0.048
-606.171	800.000	0.082	0.358
-605.157	235.524	-0.137	-0.229
-604.142	96.997	-0.108	-0.126
-603.128	-55.539	0.167	0.076
-602.113	-173.858	-0.153	0.005
-601.098	-200.000	0.001	-0.136
-600.084	130.821	0.083	-0.109
-599.069	201.481	-0.032	-0.050
-598.055	6.130	0.184	0.138
-597.040	99.514	-0.167	0.196
-596.025	-200.000	0.002	0.134
-595.011	89.503	0.070	-0.079
-593.996	-64.693	0.336	-0.138
-592.982	-200.000	0.005	0.057
-591.967	519.878	-0.148	-0.352
-590.952	-7.480	-0.196	0.134
-589.938	-87.828	-0.115	0.035
-588.923	-24.694	0.326	0.196
-587.909	57.477	0.086	0.085
-586.894	-200.000	-0.026	-0.151
-585.879	800.000	-0.156	-0.600
-584.865	-95.220	0.178	-0.049
-583.850	-69.436	-0.211	0.082
-582.836	-48.123	0.183	0.090
-581.821	-86.641	-0.058	-0.018
-580.806	501.760	0.080	-0.188
-579.792	13.328	0.234	-0.184
-578.777	3.946	-0.089	-0.066
-577.763	-111.272	-0.442	0.092
-576.748	-16.380	-0.206	-0.132
-575.733	800.000	-0.053	0.167
-574.719	63.084	-0.044	-0.044
-573.704	354.351	-0.056	0.113
-572.690	800.000	0.014	0.058
-571.675	255.229	0.055	0.095
-570.661	297.574	0.176	0.328
-569.646	24.790	-0.273	-0.230
-568.631	117.688	0.072	0.089
-567.617	12.229	0.162	-0.127
-566.602	-200.000	-0.065	-0.305
-565.588	-137.596	-0.226	-0.026
-564.573	-67.587	0.121	-0.048
-563.558	388.977	0.028	0.058
-562.544	-19.450	0.270	-0.170
-561.529	-56.594	0.268	-0.120
-560.515	-200.000	-0.246	-0.001
-559.500	800.000	0.049	0.174
-558.485	-145.980	-0.090	-0.008
-557.471	-200.000	0.001	-0.211
-556.456	-8.038	0.038	0.026
-555.442	-51.245	0.285	0.135
-554.427	-33.613	0.104	-0.058
-553.412	-29.580	0.183	0.106
-552.398	800.000	0.049	0.182
-551.383	-200.000	-0.085	-0.437
-550.369	217.264	0.147	-0.238
-549.354	-136.400	-0.168	-0.020
-548.339	49.692	-0.141	-0.134
-547.325	3.696	-0.127	0.094
-546.310	-188.767	-0.137	-0.002
-545.296	-200.000	-0.000	-0.578
-544.281	142.636	0.157	-0.211
-543.266	20.928	-0.037	-0.030
-542.252	-54.178	0.348	0.160
-541.237	-86.178	0.261	-0.081
-540.223	32.175	-0.135	-0.118
-539.208	51.324	0.143	0.137
-538.193	350.825	0.063	-0.126
-537.179	-200.000	0.011	0.103
-536.164	-106.289	0.129	0.029
-535.150	-162.097	-0.219	-0.011
-534.135	-65.533	0.102	-0.041
-533.121	-26.246	-0.176	-0.105
-532.106	-119.036	0.256	0.045
-531.091	278.876	-0.089	0.162
-530.077	800.000	-0.040	-0.163
-529.062	-185.877	0.128	0.002
-528.048	-200.000	-0.020	0.157
-527.033	72.637	0.106	0.112
-526.018	-195.628	-0.029	-0.000
-525.004	-200.000	0.055	0.441
-523.989	15.921	-0.313	0.249
-522.975	-177.420	-0.490	0.012
-521.960	-27.079	0.197	0.116
-520.945	-7.758	0.421	-0.288
-519.931	-17.132	0.138	0.088
-518.916	153.988	-0.232	-0.322
-517.902	-64.628	0.119	0.049
-516.887	-200.000	-0.021	0.278
-515.872	121.021	0.059	0.074
-514.858	8.268	0.227	-0.173
-513.843	-200.000	0.027	-0.195
-512.829	128.569	-0.150	-0.194
-511.814	-200.000	-0.020	0.305
-510.799	118.288	-0.165	0.205
-509.785	-78.041	-0.206	-0.072
-508.770	-145.646	0.174	-0.016
-507.756	-200.000	-0.003	-0.030
-506.741	28.151	0.302	0.258
-505.726	-200.000	0.006	-0.099
-504.712	-200.000	0.007	0.094
-503.697	-135.124	-0.173	0.021
-502.683	-170.829	-0.086	-0.003
-501.668	132.915	-0.109	-0.143
-500.653	800.000	0.112	0.323
-499.639	-21.431	0.140	-0.086
-498.624	19.440	-0.110	0.089
-497.610	36.078	-0.130	-0.116
-496.595	-200.000	0.020	-0.141
-495.581	98.192	-0.196	-0.228
-494.566	-200.000	0.045	0.252
-493.551	-200.000	0.017	-0.413
-492.537	-200.000	-0.009	-0.165
-491.522	-200.000	-0.043	-0.205
-490.508	-200.000	0.005	0.058
-489.493	-23.510	0.330	0.200
-488.478	-69.309	-0.156	-0.060
-487.464	71.594	0.222	-0.233
-486.449	235.046	0.107	-0.178
-485.435	800.000	0.081	-0.237
-484.420	-125.201	0.116	-0.018
-483.405	-200.000	-0.011	-0.234
-482.391	800.000	0.036	-0.149
-481.376	103.534	0.256	-0.304
-480.362	-200.000	-0.019	0.278
-479.347	-11.009	-0.098	0.065
-478.332	-43.391	0.245	0.125
-477.318	-106.835	-0.192	0.043
-476.303	429.333	-0.091	0.199
-475.289	-170.982	0.033	0.001
-474.274	-45.858	0.174	-0.087
-473.259	-200.000	-0.032	0.477
-472.245	-153.313	-0.205	0.014
-471.230	-80.534	-0.276	0.093
-470.216	-81.080	0.120	-0.040
-469.201	31.223	-0.157	0.136
-468.186	484.911	0.051	-0.118
-467.172	12.408	-0.289	0.225
-466.157	-99.533	-0.450	0.114
-465.143	-3.204	-0.077	0.054
-464.128	-200.000	-0.011	-0.138
-463.113	-36.659	0.160	-0.087
-462.099	18.231	0.186	-0.150
-461.084	-134.891	-0.068	0.008
-460.070	727.330	0.089	0.241
-459.055	800.000	-0.092	0.263
-458.040	-10.861	-0.161	0.107
-457.026	-200.000	-0.057	0.269
-456.011	-72.546	0.094	0.035
-454.997	162.675	-0.093	0.132
-453.982	724.243	0.109	0.293
-452.968	-200.000	-0.004	0.164
-451.953	120.601	-0.081	0.101
-450.938	-200.000	-0.050	0.584
-449.924	236.547	-0.142	-0.238
-448.909	26.041	0.158	-0.133
-447.895	-33.491	-0.172	-0.096
-446.880	-86.419	0.288	-0.089
-445.865	427.149	0.132	-0.287
-444.851	93.494	0.182	-0.208
-443.836	61.368	0.152	-0.152
-442.822	-133.884	0.080	-0.010
-441.807	-69.989	-0.233	-0.089
-440.792	258.908	-0.167	-0.290
-439.778	-200.000	-0.022	-0.109
-438.763	-200.000	-0.067	0.536
-437.749	-196.308	-0.407	-0.003
-436.734	-110.301	-0.028	-0.006
-435.719	-136.733	0.162	-0.019
-434.705	-84.298	0.042	-0.013
-433.690	-90.252	0.230	-0.067
-432.676	183.401	-0.198	-0.295
-431.661	663.672	0.189	-0.492
-430.646	-19.825	0.166	-0.104
-429.632	-200.000	0.011	0.262
-428.617	-200.000	0.035	-0.347
-427.603	-200.000	-0.008	-0.479
-426.588	103.997	-0.182	0.216
-425.573	-64.165	0.200	-0.082
-424.559	-101.704	0.195	-0.048
-423.544	10.072	-0.252	0.193
-422.530	-200.000	-0.082	0.368
-421.515	-200.000	-0.016	0.092
-420.500	-34.309	-0.137	-0.076
-419.486	-122.411	-0.435	-0.071
-418.471	-110.042	0.171	0.036
-417.457	-200.000	0.033	0.321
-416.442	-43.191	-0.391	-0.199
-415.428	-141.037	-0.293	-0.030
-414.413	74.020	0.149	-0.157
-413.398	-39.160	0.052	0.028
-412.384	265.805	-0.082	-0.145
-411.369	245.324	-0.114	-0.193
-410.355	-90.387	-0.037	-0.011
-409.340	251.547	-0.145	-0.248
-408.325	-151.360	-0.215	-0.016
-407.311	-24.507	0.151	-0.091
-406.296	12.823	0.114	-0.089
-405.282	-26.089	-0.252	0.149
-404.267	-21.270	-0.382	-0.235
-403.252	13.457	0.040	-0.031
-402.238	-200.000	0.001	0.219
-401.223	-200.000	0.019	0.160
-400.209	-114.860	0.012	0.002
-399.194	-200.000	-0.035	0.160
-398.179	47.866	-0.304	0.286
-397.165	163.190	0.063	-0.088
-396.150	-200.000	0.002	-0.214
-395.136	-200.000	0.022	0.308
-394.121	-136.138	-0.343	-0.040
-393.106	-15.144	-0.263	0.170
-392.092	-178.998	0.200	0.005
-391.077	-146.655	0.386	0.034
-390.063	380.853	-0.207	0.427
-389.048	0.750	-0.313	-0.225
-388.033	52.665	-0.408	-0.392
-387.019	-38.311	-0.230	-0.122
-386.004	-86.599	0.252	-0.078
-384.990	800.000	-0.011	0.041
-383.975	200.899	-0.095	-0.147
-382.960	-45.207	0.338	-0.169
-381.946	68.508	-0.278	-0.287
-380.931	-51.428	-0.172	-0.081
-379.917	-42.342	-0.220	0.113
-378.902	-200.000	-0.011	0.352
-377.888	-87.118	-0.086	0.026
-376.873	-108.391	0.196	-0.043
-375.858	-70.640	-0.272	0.103
-374.844	-10.294	0.246	0.164
-373.829	-200.000	0.014	-0.182
-372.815	17.286	0.108	0.086
-371.800	-34.040	0.104	-0.058
-370.785	140.711	0.193	-0.257
-369.771	13.709	-0.171	-0.134
-368.756	11.256	0.190	-0.146
-367.742	111.661	-0.135	0.163
-366.727	-9.146	0.277	0.186
-365.712	30.512	0.066	-0.057
-364.698	800.000	0.038	-0.156
-363.683	-200.000	0.030	-0.176
-362.669	408.558	-0.138	-0.293
-361.654	303.516	-0.139	-0.260
-360.639	-58.213	-0.253	-0.111
-359.625	-200.000	0.021	0.142
-358.610	393.238	0.078	0.164
-357.596	-68.490	-0.187	-0.073
-356.581	-119.678	0.162	0.028
-355.566	-200.000	-0.012	-0.098
-354.552	-200.000	-0.023	-0.131
-353.537	-123.927	0.467	0.074
-352.523	-200.000	-0.022	0.110
-351.508	131.384	0.076	-0.098
-350.493	800.000	0.050	-0.182
-349.479	558.024	0.123	0.299
-348.464	568.106	0.058	-0.143
-347.450	-200.000	-0.048	-0.296
-346.435	-60.472	-0.139	-0.059
-345.420	365.454	-0.152	0.308
-344.406	-159.262	-0.089	-0.005
-343.391	-120.826	0.121	0.020
-342.377	250.101	0.036	-0.061
-341.362	-200.000	0.033	0.166
-340.348	91.297	0.159	-0.179
-339.333	-85.137	-0.296	-0.093
-338.318	379.508	0.058	-0.119
-337.304	267.001	-0.054	0.094
-336.289	5.642	-0.246	-0.183
-335.275	-114.578	0.407	0.078
-334.260	-200.000	0.029	0.293
-333.245	163.706	-0.099	-0.140
-332.231	403.219	-0.137	-0.290
-331.216	-2.812	0.120	0.084
-330.202	-98.945	0.066	-0.017
-329.187	-52.868	0.170	0.079
-328.172	-147.129	-0.073	-0.006
-327.158	203.691	0.085	0.132
-326.143	347.042	0.022	-0.044
-325.129	-200.000	-0.016	-0.105
-324.114	800.000	0.057	0.177
-323.099	57.792	-0.243	0.239
-322.085	15.528	-0.209	-0.165
-321.070	800.000	-0.056	-0.177
-320.056	-42.767	0.027	0.014
-319.041	-117.264	0.083	0.015
-318.026	800.000	-0.055	-0.238
-317.012	329.783	-0.035	-0.068
-315.997	-200.000	0.006	-0.098
-314.983	-35.582	-0.140	0.076
-313.968	660.264	0.053	-0.136
-312.953	-162.696	0.186	0.009
-311.939	43.974	0.043	0.039
-310.924	-140.877	0.311	-0.032
-309.910	148.320	0.033	0.044
-308.895	17.772	-0.457	-0.365
-307.880	-38.878	-0.213	0.113
-306.866	-200.000	0.014	0.300
-305.851	128.684	-0.038	-0.049
-304.837	151.962	0.125	-0.171
-303.822	150.462	0.102	0.139
-302.807	665.358	0.083	0.216
-301.793	-118.684	0.214	-0.038
-300.778	305.408	0.180	0.335
-299.764	-104.054	-0.305	-0.071
-298.749	-200.000	0.008	0.071
-297.735	-55.134	0.182	-0.082
-296.720	800.000	0.040	-0.175
-295.705	-200.000	-0.002	0.267
-294.691	330.369	0.186	0.360
-293.676	-182.256	0.437	-0.008
-292.662	-200.000	0.014	0.156
-291.647	800.000	-0.029	-0.089
-290.632	-200.000	-0.011	-0.146
-289.618	208.991	0.140	0.220
-288.603	-47.419	0.103	-0.050
-287.589	116.540	-0.063	0.077
-286.574	113.484	0.250	0.304
-285.559	-200.000	0.056	0.385
-284.545	800.000	-0.030	0.104
-283.530	81.569	-0.069	0.075
-282.516	254.883	-0.056	0.095
-281.501	-163.077	0.215	0.010
-280.486	-173.481	-0.228	-0.007
-279.472	-143.457	0.292	0.028
-278.457	-118.808	0.270	0.048
-277.443	-172.246	0.268	0.009
-276.428	306.201	-0.074	0.137
-275.413	-158.327	-0.132	0.008
-274.399	-32.494	-0.150	0.084
-273.384	311.059	-0.111	-0.208
-272.370	69.393	0.235	0.243
-271.355	184.271	0.108	0.160
-270.340	-111.306	0.451	0.092
-269.326	173.299	-0.091	-0.132
-268.311	800.000	-0.077	-0.216
-267.297	-200.000	-0.001	0.052
-266.282	-200.000	-0.045	-0.240
-265.267	13.340	-0.232	-0.180
-264.253	800.000	-0.028	-0.106
-263.238	442.631	0.104	-0.227
-262.224	191.450	-0.174	-0.263
-261.209	180.325	0.271	-0.398
-260.195	-123.247	0.189	-0.030
-259.180	-82.058	-0.278	0.091
-258.165	13.425	0.071	0.055
-257.151	142.036	0.082	0.109
-256.136	-110.507	0.282	-0.059
-255.122	-61.307	0.155	0.065
-254.107	-158.605	0.199	-0.011
-253.092	30.693	0.168	0.144
-252.078	81.959	-0.193	0.209
-251.063	219.073	-0.179	0.287
-250.049	-115.425	-0.273	-0.051
-249.034	-29.737	0.068	-0.039
-248.019	180.310	-0.092	0.136
-247.005	-6.939	0.239	-0.163
-245.990	394.126	-0.036	-0.075
-244.976	230.545	-0.193	0.315
-243.961	-111.556	0.192	-0.039
-242.946	275.801	-0.076	-0.135
-241.932	-106.462	-0.270	0.060
-240.917	800.000	-0.120	0.360
-239.903	138.849	0.034	0.045
-238.888	800.000	0.129	-0.432
-237.873	-105.276	-0.121	0.028
-236.859	569.106	0.033	-0.081
-235.844	16.920	0.201	0.159
-234.830	-200.000	0.003	0.269
-233.815	-200.000	-0.007	0.119
-232.800	-98.946	-0.106	-0.027
-231.786	38.373	0.075	-0.067
-230.771	-138.099	0.184	-0.020
-229.757	-141.985	-0.083	-0.008
-228.742	-92.647	-0.263	-0.074
-227.727	-103.203	-0.156	-0.037
-226.713	800.000	0.121	0.368
-225.698	-183.923	-0.217	0.004
-224.684	176.392	0.300	0.436
-223.669	-200.000	0.004	0.182
-222.655	800.000	0.098	0.285
-221.640	-148.989	-0.154	0.012
-220.625	-57.401	0.264	-0.116
-219.611	-200.000	-0.040	-0.253
-218.596	-128.606	-0.058	0.008
-217.582	193.067	0.085	0.128
-216.567	114.351	-0.241	0.294
-215.552	-200.000	-0.015	-0.186
-214.538	-200.000	-0.031	0.143
-213.523	-104.809	0.252	-0.058
-212.509	-93.089	-0.371	-0.103
-211.494	-25.117	-0.348	-0.206
-210.479	-200.000	0.013	-0.080
-209.465	-15.119	-0.143	0.092
-208.450	735.626	0.103	-0.276
-207.436	-142.062	0.159	0.016
-206.421	46.422	-0.103	0.095
-205.406	-200.000	-0.023	0.110
-204.392	-108.001	-0.014	0.003
-203.377	81.773	0.130	0.140
-202.363	178.725	-0.173	-0.253
-201.348	-200.000	-0.038	0.197
-200.333	-134.776	-0.069	-0.008
-199.319	800.000	0.021	-0.060
-198.304	79.457	-0.100	-0.107
-197.290	-131.588	0.196	0.026
-196.275	89.788	-0.123	0.137
-195.260	42.024	-0.314	0.284
-194.246	752.703	-0.086	0.233
-193.231	177.280	-0.140	-0.203
-192.217	75.276	0.085	0.090
-191.202	97.119	0.126	0.144
-190.187	-85.375	-0.149	-0.046
-189.173	243.844	-0.099	0.167
-188.158	415.334	0.156	-0.331
-187.144	-189.785	0.047	0.001
-186.129	-28.452	-0.307	-0.177
-185.114	-104.426	-0.032	0.008
-184.100	238.394	0.128	-0.212
-183.085	439.824	-0.036	0.078
-182.071	367.577	0.130	0.263
-181.056	-161.161	0.306	-0.016
-180.042	-200.000	0.000	-0.137
-179.027	-168.419	0.254	0.010
-178.012	106.848	0.216	0.256
-176.998	38.016	-0.170	0.151
-175.983	17.884	-0.178	0.141
-174.969	-35.028	-0.416	0.227
-173.954	-79.761	0.247	0.083
-172.939	-200.000	0.008	0.107
-171.925	-62.601	-0.247	0.102
-170.910	-200.000	0.011	0.095
-169.896	362.246	0.029	0.058
-168.881	-38.670	0.143	-0.075
-167.866	-37.310	0.243	0.129
-166.852	-200.000	0.010	-0.048
-165.837	103.287	0.166	-0.194
-164.823	-200.000	0.002	0.332
-163.808	-62.374	0.164	-0.068
-162.793	-85.496	0.267	-0.083
-161.779	379.702	-0.072	-0.148
-160.764	-59.575	-0.072	0.031
-159.750	-200.000	-0.016	-0.197
-158.735	800.000	0.035	0.128
-157.720	800.000	-0.037	-0.150
-156.706	-79.788	0.209	-0.070
-155.691	-154.086	-0.285	-0.019
-154.677	-40.407	-0.098	-0.051
-153.662	149.539	0.011	-0.015
-152.647	277.339	-0.070	0.124
-151.633	-200.000	-0.009	0.425
-150.618	106.570	-0.067	-0.079
-149.604	-128.425	0.167	-0.024
-148.589	328.340	-0.030	-0.058
-147.574	23.062	-0.169	-0.138
-146.560	289.030	-0.182	0.329
-145.545	-200.000	-0.045	0.274
-144.531	33.254	-0.032	0.028
-143.516	83.247	-0.119	-0.129
-142.502	-16.694	0.302	0.191
-141.487	-129.448	-0.118	0.016
-140.472	800.000	0.005	-0.016
-139.458	412.216	-0.072	-0.151
-138.443	33.366	0.234	-0.203
-137.429	-200.000	0.020	0.195
-136.414	-137.342	-0.228	-0.026
-135.399	-200.000	-0.016	-0.072
-134.385	-200.000	0.023	0.406
-133.370	800.000	-0.115	-0.359
-132.356	37.806	0.304	-0.269
-131.341	661.563	0.058	-0.149
-130.326	288.574	0.117	0.211
-129.312	-73.351	0.211	-0.077
-128.297	268.165	-0.072	0.126
-127.283	-200.000	-0.039	0.278
-126.268	800.000	0.024	-0.091
-125.253	-200.000	0.006	0.175
-124.239	-0.491	0.080	-0.057
-123.224	121.178	0.068	-0.084
-122.210	-200.000	-0.093	-0.498
-121.195	800.000	0.088	0.272
-120.180	-41.517	0.175	0.090
-119.166	479.488	-0.180	0.406
-118.151	-200.000	0.005	-0.395
-117.137	-200.000	0.028	-0.137
-116.122	800.000	-0.062	0.262
-115.107	-200.000	-0.032	0.251
-114.093	-149.487	0.249	0.020
-113.078	-162.757	0.265	-0.013
-112.064	800.000	-0.107	-0.308
-111.049	-3.128	0.111	-0.077
-110.034	28.889	-0.057	-0.048
-109.020	-115.571	0.134	-0.025
-108.005	56.603	0.059	0.058
-106.991	-55.804	0.203	-0.090
-105.976	23.339	0.249	0.203
-104.962	-18.720	0.196	0.122
-103.947	6.338	-0.207	0.153
-102.932	-5.075	0.325	0.223
-101.918	677.599	-0.025	0.065
-100.903	800.000	0.054	-0.151
-99.889	735.695	0.073	0.194
-98.874	-70.968	0.099	0.037
-97.859	-78.552	-0.239	-0.081
-96.845	-67.392	-0.212	-0.083
-95.830	-35.925	0.029	-0.015
-94.816	-74.616	-0.388	-0.139
-93.801	8.704	-0.131	0.098
-92.786	-4.249	0.310	-0.213
-91.772	-125.467	0.247	-0.037
-90.757	750.467	0.094	-0.254
-89.743	102.601	0.120	-0.140
-88.728	-21.959	0.152	0.092
-87.713	-200.000	-0.070	-0.317
-86.699	-108.316	0.195	-0.042
-85.684	-200.000	-0.012	0.384
-84.670	-85.792	0.084	0.026
-83.655	125.665	0.178	0.223
-82.640	-129.084	-0.355	-0.049
-81.626	-99.218	0.231	0.058
-80.611	-200.000	0.036	0.371
-79.597	800.000	-0.058	-0.212
-78.582	80.529	0.081	0.087
-77.567	-178.534	0.190	-0.004
-76.553	-200.000	0.009	-0.168
-75.538	-86.392	0.355	-0.109
-74.524	-200.000	0.002	0.141
-73.509	20.098	-0.081	-0.065
-72.494	-69.174	-0.292	-0.111
-71.480	-47.534	0.110	-0.053
-70.465	-200.000	-0.010	-0.229
-69.451	521.995	0.120	-0.281
-68.436	-106.534	-0.011	-0.003
-67.422	-172.455	-0.153	0.005
-66.407	298.287	-0.225	0.411
-65.392	321.067	0.087	0.164
-64.378	43.987	0.237	-0.216
-63.363	291.253	-0.110	0.198
-62.349	76.341	-0.074	-0.078
-61.334	227.092	-0.610	-0.986
-60.319	-200.000	-0.025	0.323
-59.305	543.884	-0.406	-0.963
-58.290	451.664	0.575	1.263
-57.276	356.012	0.703	1.391
-56.261	-200.000	97.984	573.240
-55.246	611.993	1408.140	3499.182
-54.232	181.844	2623.864	3837.695
-53.217	109.962	2344.526	2794.461
-52.203	40.628	2090.163	1871.162
-51.188	35.749	2002.989	1748.810
-50.173	34.121	1984.273	1717.721
-49.159	48.585	2036.790	1895.878
-48.144	51.315	2055.682	1938.378
-47.130	36.518	2013.572	1764.800
-46.115	34.020	2001.926	1731.812
-45.100	33.938	1998.736	1728.234
-44.086	33.865	1996.792	1725.824
-43.071	33.792	1993.854	1722.551
-42.057	33.794	1991.309	1720.302
-41.042	33.828	1989.884	1719.308
-40.027	33.937	1987.632	1718.285
-39.013	33.951	1985.476	1716.473
-37.998	33.983	1983.878	1715.314
-36.984	34.010	1981.731	1713.636
-35.969	33.935	1979.519	1710.977
-34.954	33.926	1978.178	1709.672
-33.940	34.023	1976.401	1708.937
-32.925	34.039	1974.875	1707.693
-31.911	34.073	1973.163	1706.450
-30.896	34.104	1971.081	1704.862
-29.881	34.116	1969.654	1703.668
-28.867	34.114	1968.018	1702.169
-27.852	34.006	1966.622	1699.928
-26.838	34.060	1964.772	1698.739
-25.823	34.028	1962.792	1696.675
-24.809	34.121	1960.909	1695.811
-23.794	34.144	1959.145	1694.420
-22.779	34.029	1957.762	1692.136
-21.765	34.013	1956.123	1690.510
-20.750	34.044	1954.290	1689.134
-19.736	34.146	1953.002	1688.857
-18.721	34.162	1950.906	1687.119
-17.706	34.073	1950.060	1685.534
-16.692	34.056	1947.760	1683.326
-15.677	34.108	1946.339	1682.498
-14.663	34.111	1944.831	1681.151
-13.648	34.201	1943.284	1680.542
-12.633	34.132	1942.561	1679.243
-11.619	34.115	1940.851	1677.549
-10.604	34.089	1939.945	1676.467
-9.590	34.063	1938.351	1674.795
-8.575	34.135	1936.596	1673.844
-7.560	34.127	1935.711	1672.948
-6.546	34.030	1934.840	1671.271
-5.531	34.103	1933.238	1670.461
-4.517	34.096	1932.437	1669.647
-3.502	34.122	1931.244	1668.771
-2.487	34.110	1929.331	1666.952
-1.473	34.116	1928.545	1666.259
-0.458	34.223	1924.224	1663.391
0.556	33.121	1904.360	1636.463
1.571	28.877	1884.216	1582.573
2.586	24.753	1907.129	1565.655
3.600	23.685	1943.511	1585.852
4.615	22.915	1938.732	1574.948
5.629	18.013	1837.655	1451.173
6.644	9.482	1717.987	1288.534
7.659	5.330	1681.733	1228.644
8.673	5.104	1678.266	1224.228
9.688	4.972	1676.741	1221.972
10.702	4.971	1674.650	1220.334
11.717	4.893	1671.985	1217.675
12.731	5.459	1671.781	1221.836
13.746	11.243	1685.468	1277.170
14.761	18.164	1700.643	1343.092
15.775	19.462	1700.229	1352.832
16.790	18.214	1696.702	1340.129
17.804	17.132	1693.453	1328.985
18.819	16.150	1689.696	1318.244
19.834	15.408	1687.697	1310.779
20.848	15.152	1685.901	1307.269
21.863	14.802	1684.692	1303.486
22.877	14.657	1682.755	1300.744
23.892	14.457	1681.452	1298.060
24.907	14.347	1680.175	1296.108
25.921	14.346	1679.306	1295.310
26.936	14.382	1678.266	1294.678
27.950	14.422	1677.479	1294.262
28.965	14.353	1676.781	1293.076
29.980	14.444	1676.569	1293.509
30.994	14.546	1675.212	1293.136
32.009	14.599	1673.903	1292.423
33.023	14.598	1673.420	1291.925
34.038	14.726	1672.186	1291.846
35.053	14.664	1671.163	1290.461
36.067	14.544	1670.081	1288.588
37.082	14.517	1668.702	1287.202
38.096	14.528	1667.239	1286.043
39.111	14.542	1666.816	1285.708
40.126	14.532	1666.000	1284.892
41.140	14.524	1664.931	1283.891
42.155	14.451	1663.042	1281.763
43.169	14.372	1661.620	1279.947
44.184	14.289	1660.322	1278.196
45.199	14.264	1659.222	1277.045
46.213	14.317	1658.260	1276.595
47.228	14.343	1656.917	1275.649
48.242	14.415	1656.445	1275.720
49.257	14.490	1654.789	1274.910
50.271	14.378	1654.105	1273.410
51.286	14.514	1652.179	1272.856
52.301	14.431	1651.375	1271.488
53.315	14.519	1649.554	1270.644
54.330	14.452	1648.345	1269.091
55.344	14.407	1646.864	1267.497
56.359	14.329	1645.251	1265.553
57.374	14.365	1644.117	1264.841
58.388	14.380	1643.169	1264.115
59.403	14.272	1642.137	1262.389
60.417	14.239	1640.642	1260.872
61.432	14.298	1639.230	1260.128
62.447	14.282	1638.048	1258.985
63.461	14.089	1637.078	1256.667
64.476	14.179	1636.237	1256.596
65.490	14.143	1634.664	1255.003
66.505	14.127	1633.381	1253.786
67.520	14.107	1633.129	1253.333
68.534	14.159	1631.411	1252.291
69.549	14.247	1630.945	1252.488
70.563	14.270	1628.981	1251.036
71.578	14.185	1627.850	1249.418
72.593	14.101	1626.842	1247.908
73.607	14.012	1626.258	1246.680
74.622	14.007	1624.977	1245.553
75.636	14.076	1623.180	1244.579
76.651	14.155	1622.916	1244.861
77.666	14.169	1621.854	1244.037
78.680	14.122	1621.048	1242.959
79.695	14.087	1620.804	1242.397
80.709	14.111	1619.639	1241.580
81.724	14.166	1618.766	1241.210
82.739	14.226	1617.703	1240.731
83.753	14.461	1616.588	1241.512
84.768	14.390	1615.795	1240.271
85.782	14.408	1615.454	1240.031
86.797	14.496	1614.295	1239.684
87.812	14.527	1613.726	1239.368
88.826	14.450	1612.305	1237.595
89.841	14.397	1610.954	1236.054
90.855	14.341	1610.016	1234.815
91.870	14.488	1608.583	1234.697
92.884	14.570	1608.095	1234.820
93.899	14.561	1607.242	1233.989
94.914	14.510	1605.691	1232.312
95.928	14.563	1604.939	1232.012
96.943	14.577	1603.504	1230.905
97.957	14.598	1601.958	1229.762
98.972	14.450	1600.964	1227.806
99.987	14.585	1598.940	1227.139
101.001	14.524	1597.330	1225.342
102.016	14.511	1595.720	1223.905
103.030	14.496	1594.483	1222.737
104.045	14.550	1593.127	1221.984
105.060	14.535	1591.812	1220.756
106.074	14.435	1590.933	1219.242
107.089	14.416	1588.856	1217.410
108.103	14.228	1587.607	1214.967
109.118	14.235	1585.639	1213.410
110.133	14.252	1584.045	1212.203
111.147	14.217	1582.629	1210.761
112.162	14.291	1581.351	1210.209
113.176	14.284	1580.290	1209.239
114.191	14.228	1578.976	1207.719
115.206	14.233	1577.722	1206.691
116.220	14.351	1575.972	1206.100
117.235	14.327	1574.939	1205.030
118.249	14.335	1573.465	1203.852
119.264	14.270	1572.665	1202.667
120.279	14.208	1571.227	1201.016
121.293	14.251	1569.341	1199.777
122.308	14.216	1567.941	1198.350
123.322	14.210	1566.328	1196.968
124.337	14.276	1564.720	1196.107
125.352	14.282	1563.529	1195.129
126.366	14.204	1562.570	1193.730
127.381	14.156	1561.649	1192.582
128.395	14.141	1560.257	1191.304
129.410	14.184	1558.730	1190.337
130.424	14.125	1557.843	1189.138
131.439	14.159	1556.323	1188.114
132.454	14.342	1554.431	1187.865
133.468	14.292	1553.477	1186.675
134.483	14.342	1552.102	1185.882
135.497	14.287	1551.110	1184.624
136.512	14.461	1549.422	1184.467
137.527	14.361	1548.035	1182.591
138.541	14.457	1546.762	1182.198
139.556	14.367	1545.950	1180.836
140.570	14.385	1544.714	1179.912
141.585	14.501	1543.000	1179.321
142.600	14.551	1542.115	1178.891
143.614	14.562	1541.030	1178.039
144.629	14.667	1539.294	1177.348
145.643	14.644	1538.069	1176.144
146.658	14.637	1536.711	1174.951
147.673	14.740	1534.873	1174.161
148.687	14.598	1533.388	1171.928
149.702	14.568	1532.027	1170.575
150.716	14.571	1530.674	1169.457
151.731	14.488	1529.308	1167.727
152.746	14.461	1528.329	1166.685
153.760	14.496	1526.758	1165.629
154.775	14.577	1525.247	1164.940
155.789	14.555	1524.324	1163.976
156.804	14.633	1523.050	1163.447
157.819	14.685	1522.012	1162.914
158.833	14.702	1520.809	1162.012
159.848	14.615	1519.877	1160.585
160.862	14.762	1518.732	1160.629
161.877	14.820	1517.164	1159.734
162.892	14.750	1515.945	1158.212
163.906	14.575	1514.856	1156.066
164.921	14.618	1513.110	1154.931
165.935	14.599	1512.197	1154.002
166.950	14.533	1511.612	1152.994
167.964	14.644	1510.164	1152.555
168.979	14.650	1509.310	1151.845
169.994	14.648	1508.156	1150.849
171.008	14.693	1507.090	1150.241
172.023	14.727	1506.076	1149.598
173.037	14.729	1505.098	1148.767
174.052	14.843	1504.065	1148.657
175.067	14.824	1502.846	1147.493
176.081	14.758	1501.689	1146.056
177.096	14.689	1500.124	1144.289
178.110	14.612	1498.863	1142.696
179.125	14.602	1498.543	1142.286
180.140	14.711	1496.817	1141.617
181.154	14.676	1496.193	1140.801
182.169	14.819	1494.587	1140.448
183.183	14.910	1493.328	1140.007
184.198	14.877	1492.595	1139.124
185.213	14.974	1491.057	1138.505
186.227	15.044	1490.078	1138.133
187.242	14.964	1489.447	1137.011
188.256	14.971	1488.501	1136.235
189.271	14.949	1487.732	1135.400
190.286	15.018	1486.136	1134.544
191.300	15.032	1484.946	1133.631
192.315	14.805	1484.135	1131.374
193.329	14.772	1482.209	1129.581
194.344	14.681	1481.390	1128.249
195.359	14.820	1480.284	1128.243
196.373	14.792	1479.756	1127.548
197.388	14.838	1478.431	1126.748
198.402	14.981	1477.249	1126.714
199.417	15.130	1476.117	1126.755
200.432	15.120	1475.641	1126.226
201.446	15.256	1474.280	1125.998
202.461	15.229	1473.233	1124.920
203.475	15.321	1472.015	1124.506
204.490	15.313	1471.297	1123.806
205.504	15.281	1469.899	1122.419
206.519	15.267	1468.573	1121.215
207.534	15.202	1467.506	1119.865
208.548	15.182	1466.208	1118.646
209.563	15.151	1465.428	1117.741
210.577	15.092	1465.166	1117.056
211.592	15.149	1463.796	1116.286
212.607	15.237	1463.019	1116.185
213.621	15.314	1462.341	1116.078
214.636	15.299	1461.616	1115.325
215.650	15.371	1460.481	1114.844
216.665	15.229	1459.572	1113.103
217.680	15.342	1458.915	1113.259
218.694	15.401	1457.733	1112.645
219.709	15.389	1457.198	1112.064
220.723	15.497	1455.557	1111.424
221.738	15.494	1454.924	1110.827
222.753	15.472	1453.996	1109.871
223.767	15.483	1452.843	1108.968
224.782	15.415	1451.744	1107.583
225.796	15.433	1451.120	1107.127
226.811	15.527	1450.330	1107.042
227.826	15.610	1449.271	1106.687
228.840	15.532	1448.581	1105.548
229.855	15.466	1447.398	1104.109
230.869	15.423	1446.624	1103.141
231.884	15.467	1445.684	1102.612
232.899	15.417	1444.558	1101.332
233.913	15.401	1443.342	1100.203
234.928	15.356	1442.338	1099.043
235.942	15.339	1441.051	1097.857
236.957	15.339	1439.777	1096.784
237.972	15.411	1438.316	1096.046
238.986	15.456	1436.997	1095.241
240.001	15.454	1436.867	1095.027
241.015	15.469	1435.417	1093.925
242.030	15.475	1434.644	1093.280
243.045	15.547	1433.463	1092.749
244.059	15.515	1432.787	1091.927
245.074	15.529	1432.047	1091.361
246.088	15.508	1431.389	1090.625
247.103	15.687	1430.213	1090.792
248.117	15.651	1429.382	1089.832
249.132	15.695	1428.565	1089.397
250.147	15.740	1428.193	1089.305
251.161	15.940	1427.488	1089.965
252.176	16.048	1426.824	1090.067
253.190	16.012	1426.074	1089.163
254.205	15.970	1424.723	1087.764
255.220	16.088	1424.004	1087.878
256.234	16.142	1423.331	1087.613
257.249	16.131	1422.722	1086.985
258.263	16.090	1421.709	1085.850
259.278	16.126	1420.962	1085.416
260.293	16.028	1420.039	1083.982
261.307	16.045	1419.325	1083.449
262.322	16.244	1418.163	1083.746
263.336	16.148	1417.990	1082.902
264.351	16.289	1416.573	1082.625
265.366	16.233	1415.526	1081.374
266.380	16.279	1414.631	1080.889
267.395	16.241	1413.964	1080.043
268.409	16.320	1413.045	1079.746
269.424	16.221	1412.185	1078.361
270.439	16.267	1410.635	1077.374
271.453	16.213	1410.017	1076.463
272.468	16.315	1408.743	1076.050
273.482	16.209	1408.597	1075.164
274.497	16.162	1407.480	1073.919
275.512	16.173	1406.381	1073.054
276.526	16.189	1405.654	1072.510
277.541	16.192	1404.400	1071.477
278.555	16.219	1403.828	1071.112
279.570	16.213	1403.044	1070.382
280.585	16.253	1401.826	1069.616
281.599	16.329	1401.441	1069.708
282.614	16.352	1400.701	1069.193
283.628	16.273	1399.150	1067.418
284.643	16.353	1398.102	1067.027
285.657	16.310	1397.171	1065.946
286.672	16.409	1396.043	1065.617
287.687	16.370	1395.125	1064.578
288.701	16.468	1393.716	1064.024
289.716	16.448	1393.531	1063.663
290.730	16.430	1393.204	1063.210
291.745	16.360	1391.880	1061.663
292.760	16.412	1390.903	1061.150
293.774	16.449	1389.781	1060.432
294.789	16.508	1388.652	1059.847
295.803	16.634	1387.811	1059.902
296.818	16.588	1387.283	1059.116
297.833	16.657	1386.128	1058.575
298.847	16.516	1385.344	1056.996
299.862	16.485	1384.121	1055.777
300.876	16.605	1382.808	1055.433
301.891	16.653	1382.116	1055.107
302.906	16.594	1381.516	1054.191
303.920	16.752	1380.425	1054.247
304.935	16.707	1380.178	1053.683
305.949	16.847	1379.204	1053.721
306.964	16.771	1378.290	1052.457
307.979	16.918	1377.174	1052.425
308.993	16.833	1376.554	1051.326
310.008	16.786	1375.615	1050.230
311.022	16.838	1374.657	1049.724
312.037	16.754	1373.654	1048.347
313.052	16.825	1372.815	1048.054
314.066	16.760	1371.820	1046.797
315.081	16.839	1370.227	1045.979
316.095	16.761	1369.574	1044.908
317.110	16.783	1368.584	1044.194
318.125	16.824	1367.311	1043.382
319.139	16.688	1367.415	1042.533
320.154	16.745	1365.660	1041.452
321.168	16.772	1364.687	1040.784
322.183	16.758	1363.947	1040.039
323.197	16.756	1362.869	1039.113
324.212	16.815	1361.934	1038.674
325.227	16.826	1361.128	1038.033
326.241	16.977	1360.031	1038.029
327.256	16.895	1359.511	1037.036
328.270	16.904	1358.712	1036.394
329.285	16.885	1357.675	1035.391
330.300	16.777	1356.810	1033.984
331.314	16.834	1356.017	1033.638
332.329	16.820	1355.525	1033.084
333.343	16.898	1354.248	1032.495
334.358	16.874	1353.417	1031.622
335.373	16.947	1352.857	1031.548
336.387	17.008	1351.921	1031.113
337.402	17.040	1351.081	1030.576
338.416	17.040	1350.764	1030.245
339.431	17.063	1349.766	1029.531
340.446	17.139	1348.915	1029.253
341.460	17.193	1347.819	1028.648
342.475	17.250	1347.016	1028.294
343.489	17.263	1346.282	1027.717
344.504	17.310	1345.511	1027.324
345.519	17.315	1344.639	1026.597
346.533	17.373	1343.481	1025.974
347.548	17.379	1342.523	1025.186
348.562	17.376	1342.168	1024.805
349.577	17.397	1340.993	1023.942
350.592	17.448	1340.206	1023.561
351.606	17.329	1339.584	1022.276
352.621	17.283	1338.058	1020.745
353.635	17.225	1337.258	1019.698
354.650	17.310	1336.135	1019.264
355.665	17.283	1335.141	1018.249
356.679	17.304	1334.313	1017.655
357.694	17.378	1332.798	1016.855
358.708	17.327	1331.875	1015.754
359.723	17.340	1330.780	1014.909
360.738	17.337	1330.189	1014.349
361.752	17.455	1328.956	1014.024
362.767	17.473	1328.078	1013.367
363.781	17.449	1327.321	1012.559
364.796	17.439	1326.493	1011.779
365.810	17.457	1325.691	1011.186
366.825	17.481	1325.259	1010.910
367.840	17.618	1324.169	1010.800
368.854	17.689	1323.600	1010.698
369.869	17.639	1323.464	1010.208
370.883	17.700	1322.531	1009.769
371.898	17.726	1321.665	1009.169
372.913	17.743	1320.659	1008.414
373.927	17.718	1319.868	1007.571
374.942	17.709	1318.634	1006.485
375.956	17.703	1318.664	1006.388
376.971	17.738	1317.841	1005.877
377.986	17.703	1316.632	1004.654
379.000	17.757	1315.720	1004.192
380.015	17.854	1314.938	1004.075
381.029	17.894	1314.492	1003.880
382.044	17.860	1313.933	1003.166
383.059	17.909	1312.818	1002.516
384.073	17.891	1312.821	1002.320
385.088	17.911	1311.852	1001.611
386.102	17.944	1311.220	1001.234
387.117	17.935	1310.178	1000.295
388.132	17.952	1309.094	999.480
389.146	17.933	1308.088	998.511
390.161	17.836	1307.760	997.608
391.175	17.911	1306.442	996.947
392.190	17.821	1306.273	996.209
393.205	17.858	1305.312	995.600
394.219	17.893	1304.394	995.018
395.234	18.023	1303.059	994.668
396.248	17.908	1301.937	993.055
397.263	17.956	1300.360	992.041
398.278	17.968	1298.998	990.989
399.292	17.980	1297.539	989.852
400.307	17.900	1296.825	988.759
401.321	17.889	1295.861	987.871
402.336	17.845	1294.746	986.679
403.350	17.811	1293.738	985.631
404.365	17.890	1292.742	985.237
405.380	17.935	1292.184	984.985
406.394	17.904	1291.179	983.956
407.409	18.067	1290.440	984.242
408.423	18.033	1290.024	983.641
409.438	18.015	1289.278	982.881
410.453	18.160	1288.674	983.168
411.467	18.213	1287.935	982.824
412.482	18.306	1287.650	983.053
413.496	18.257	1287.042	982.222
414.511	18.275	1285.982	981.428
415.526	18.368	1284.912	981.059
416.540	18.427	1284.185	980.751
417.555	18.465	1283.595	980.434
418.569	18.456	1283.175	979.973
419.584	18.489	1282.694	979.711
420.599	18.430	1281.988	978.747
421.613	137.648	1431.081	1790.213
422.628	132.650	1452.758	1790.336
