DTS Sentinel unit serial number:	SN413079Multiplexer serial number:	ORYXHardware model number:	OX4-SRSoftware version number:	ORYX F/W v4.00 Oryx Data Collector v3.7.2.0data status	okinstallation	princeton_trtdifferential loss correction	single-endedforward channel	channel 4reverse channel	N/Adate	2019/09/19time	07:05:35forward acquisition time	60.00reverse acquisition time	0.00gamma	496.2192k internal	0.2340k external	0.2340temperature offset calibration	1.0024default loss term (dB/km)	0.3790temperature slope calibration	1.0000multiplexer offset coefficient	1.0000multiplexer slope coefficient	1.0000fibre end	0.00T internal ref (°C)	19.00T ext. ref 1 (°C)	0.56T ext. ref 2 (°C)	13.15length (m)	temperature (°C)	Stokes	anti-Stokes-747.200	35.939	-0.036	-0.031
-746.185	-40.626	0.020	0.011
-745.171	-151.406	0.280	0.021
-744.156	-200.000	0.015	-0.238
-743.142	260.776	0.251	0.435
-742.127	-200.000	-0.001	0.098
-741.112	404.747	-0.057	-0.120
-740.098	-90.342	0.068	0.020
-739.083	-200.000	0.012	0.127
-738.069	794.162	0.024	-0.066
-737.054	800.000	0.067	0.194
-736.039	-200.000	-0.006	0.077
-735.025	237.229	0.183	0.304
-734.010	36.079	-0.068	0.060
-732.996	62.483	-0.212	-0.212
-731.981	-200.000	0.052	-0.276
-730.966	374.296	0.138	0.282
-729.952	6.972	-0.138	0.103
-728.937	-158.661	-0.141	0.008
-727.923	-15.922	-0.221	-0.141
-726.908	-34.861	0.270	0.148
-725.894	-85.068	-0.194	0.061
-724.879	168.217	-0.252	-0.359
-723.864	347.734	-0.082	-0.162
-722.850	183.579	0.059	0.088
-721.835	-109.924	0.439	0.092
-720.821	800.000	-0.061	-0.198
-719.806	800.000	-0.056	0.194
-718.791	800.000	-0.034	-0.144
-717.777	-200.000	0.036	-0.514
-716.762	1.537	0.218	0.157
-715.748	81.421	0.123	-0.133
-714.733	-200.000	0.011	0.142
-713.718	-75.434	0.202	-0.072
-712.704	-149.812	-0.243	-0.019
-711.689	157.837	0.050	-0.069
-710.675	322.679	0.079	0.151
-709.660	299.933	-0.124	-0.230
-708.645	550.748	-0.076	0.183
-707.631	800.000	-0.089	0.344
-706.616	37.893	-0.115	0.102
-705.602	8.643	0.233	-0.176
-704.587	-139.844	-0.149	-0.016
-703.572	-200.000	0.054	0.301
-702.558	-96.107	0.131	-0.035
-701.543	800.000	0.048	0.151
-700.529	-200.000	0.033	-0.372
-699.514	65.794	-0.146	0.148
-698.499	-48.698	-0.492	-0.237
-697.485	-74.693	-0.109	0.039
-696.470	-113.249	-0.085	0.017
-695.456	-200.000	0.002	0.127
-694.441	169.976	0.123	-0.176
-693.426	-40.851	-0.128	0.066
-692.412	558.612	-0.015	0.036
-691.397	298.214	-0.179	0.329
-690.383	-161.834	-0.180	0.009
-689.368	-193.564	0.041	-0.000
-688.354	-117.589	0.173	0.031
-687.339	7.315	0.156	-0.116
-686.324	800.000	-0.106	-0.344
-685.310	-86.126	-0.303	-0.094
-684.295	64.511	0.252	-0.254
-683.281	-200.000	-0.036	-0.171
-682.266	-128.817	-0.422	-0.059
-681.251	14.227	-0.160	-0.125
-680.237	717.305	0.012	-0.032
-679.222	-65.397	-0.252	0.101
-678.208	-200.000	-0.012	0.115
-677.193	-170.373	-0.231	0.008
-676.178	96.222	0.136	-0.155
-675.164	800.000	0.017	-0.056
-674.149	778.542	-0.037	0.102
-673.135	-200.000	-0.048	-0.218
-672.120	800.000	-0.054	0.209
-671.105	127.105	0.223	0.283
-670.091	-53.818	-0.481	-0.219
-669.076	163.093	-0.018	-0.025
-668.062	-200.000	-0.010	-0.105
-667.047	800.000	0.060	-0.179
-666.032	-200.000	-0.202	-0.001
-665.018	58.714	0.142	-0.140
-664.003	800.000	-0.032	0.140
-662.989	-200.000	-0.079	-0.355
-661.974	74.964	0.301	0.317
-660.959	800.000	0.067	0.189
-659.945	57.300	-0.128	-0.125
-658.930	281.171	0.092	-0.165
-657.916	-200.000	-0.040	-0.535
-656.901	800.000	0.026	-0.112
-655.886	305.820	0.253	-0.469
-654.872	64.476	0.169	0.170
-653.857	800.000	-0.054	0.165
-652.843	50.103	0.353	0.333
-651.828	-79.713	-0.210	0.071
-650.814	-80.339	0.405	0.135
-649.799	-84.081	0.252	-0.080
-648.784	75.831	0.052	-0.055
-647.770	-200.000	0.027	0.199
-646.755	-95.385	0.345	0.093
-645.741	-200.000	-0.047	-0.249
-644.726	-50.839	-0.206	-0.097
-643.711	-89.890	-0.330	0.096
-642.697	-200.000	-0.015	-0.198
-641.682	800.000	-0.052	-0.225
-640.668	-139.573	-0.317	-0.034
-639.653	800.000	-0.045	0.133
-638.638	738.204	0.087	0.232
-637.624	71.360	0.160	0.166
-636.609	-200.000	0.000	-0.059
-635.595	383.443	-0.087	-0.179
-634.580	-132.587	0.363	0.047
-633.565	411.988	0.218	0.462
-632.551	-37.924	-0.198	-0.105
-631.536	-200.000	-0.014	0.152
-630.522	-200.000	0.002	0.304
-629.507	800.000	-0.095	0.291
-628.492	212.057	-0.075	-0.118
-627.478	-25.302	-0.397	0.235
-626.463	-70.669	-0.132	-0.050
-625.449	-126.914	-0.038	0.006
-624.434	-78.603	0.235	-0.080
-623.419	23.685	0.140	-0.115
-622.405	112.252	0.209	0.252
-621.390	800.000	0.022	0.060
-620.376	19.125	0.229	-0.184
-619.361	-6.105	-0.112	0.076
-618.346	-20.502	-0.294	0.180
-617.332	-134.811	-0.047	0.006
-616.317	-69.750	0.114	-0.044
-615.303	229.463	0.081	0.132
-614.288	286.859	-0.331	-0.596
-613.273	401.952	-0.095	-0.198
-612.259	21.623	-0.112	0.091
-611.244	-200.000	-0.022	0.452
-610.230	-200.000	0.007	0.304
-609.215	-110.358	-0.410	-0.085
-608.201	600.006	0.062	0.153
-607.186	193.515	-0.207	0.313
-606.171	-176.225	0.157	0.004
-605.157	-33.758	-0.154	-0.084
-604.142	-148.055	-0.168	0.014
-603.128	-200.000	-0.019	-0.293
-602.113	463.418	-0.075	-0.167
-601.098	800.000	-0.054	-0.204
-600.084	-200.000	0.042	0.188
-599.069	200.864	0.132	-0.202
-598.055	-92.259	-0.430	-0.121
-597.040	14.731	-0.236	-0.184
-596.025	-133.748	0.175	0.022
-595.011	260.358	-0.091	-0.157
-593.996	-12.699	0.213	-0.138
-592.982	78.947	0.253	0.270
-591.967	-200.000	-0.010	0.420
-590.952	-200.000	0.001	0.503
-589.938	212.386	-0.031	-0.049
-588.923	-120.775	0.306	-0.052
-587.909	284.853	-0.043	0.077
-586.894	103.120	-0.118	0.138
-585.879	-90.195	-0.214	-0.062
-584.865	277.788	-0.132	-0.234
-583.850	-200.000	-0.021	0.206
-582.836	-103.829	-0.317	0.074
-581.821	-200.000	-0.016	0.070
-580.806	-200.000	-0.058	-0.372
-579.792	430.230	-0.112	0.242
-578.777	657.141	0.116	0.298
-577.763	54.118	0.236	-0.226
-576.748	57.584	-0.192	0.186
-575.733	-38.651	0.235	-0.123
-574.719	-89.671	-0.148	-0.043
-573.704	18.218	-0.152	0.121
-572.690	95.740	0.145	0.165
-571.675	105.905	0.105	0.124
-570.661	261.499	0.068	-0.118
-569.646	289.881	-0.145	-0.262
-568.631	193.261	0.136	-0.204
-567.617	-24.995	-0.227	0.134
-566.602	-46.599	0.147	-0.072
-565.588	-88.188	0.298	0.089
-564.573	1.092	0.195	-0.140
-563.558	601.873	0.196	-0.485
-562.544	102.468	0.032	0.037
-561.529	63.105	0.181	-0.180
-560.515	-200.000	0.069	-0.491
-559.500	-200.000	-0.016	0.171
-558.485	222.612	0.055	0.088
-557.471	481.809	0.128	0.290
-556.456	173.378	-0.115	0.165
-555.442	139.914	0.197	-0.259
-554.427	-6.750	0.311	-0.211
-553.412	-116.700	-0.061	-0.011
-552.398	-103.554	-0.224	-0.052
-551.383	-19.623	-0.272	-0.168
-550.369	167.562	0.081	0.115
-549.354	-61.692	-0.441	-0.184
-548.339	-200.000	-0.005	-0.398
-547.325	29.509	0.319	-0.270
-546.310	433.524	-0.096	0.207
-545.296	-140.678	0.162	-0.017
-544.281	80.686	-0.112	-0.120
-543.266	70.722	0.188	-0.194
-542.252	-98.839	0.223	0.056
-541.237	594.776	-0.092	-0.227
-540.223	-200.000	-0.018	-0.128
-539.208	539.020	-0.098	0.232
-538.193	261.282	-0.114	0.196
-537.179	243.253	-0.208	0.346
-536.164	800.000	-0.058	-0.222
-535.150	-200.000	0.010	0.184
-534.135	-200.000	-0.004	-0.119
-533.121	-114.374	0.096	-0.018
-532.106	617.666	-0.020	0.051
-531.091	-36.542	-0.286	0.153
-530.077	-78.503	0.446	-0.152
-529.062	-26.799	-0.108	0.063
-528.048	-82.423	0.104	0.034
-527.033	-200.000	0.024	-0.260
-526.018	800.000	0.043	-0.184
-525.004	61.604	0.073	-0.073
-523.989	-200.000	-0.063	-0.294
-522.975	757.452	0.078	-0.209
-521.960	-104.358	0.133	-0.031
-520.945	-200.000	-0.052	0.375
-519.931	-200.000	0.018	-0.156
-518.916	61.791	-0.098	0.097
-517.902	64.371	0.157	0.158
-516.887	657.289	0.086	-0.219
-515.872	83.599	-0.246	-0.267
-514.858	149.237	-0.161	-0.216
-513.843	196.462	0.108	-0.163
-512.829	800.000	0.032	0.117
-511.814	31.149	0.191	-0.163
-510.799	-145.932	-0.071	-0.006
-509.785	-200.000	-0.052	-0.270
-508.770	-139.641	0.163	-0.017
-507.756	-38.633	0.218	-0.114
-506.741	7.514	0.270	-0.201
-505.726	-141.358	0.076	0.008
-504.712	-116.517	0.049	-0.009
-503.697	800.000	-0.077	0.312
-502.683	-200.000	0.017	-0.127
-501.668	-30.610	-0.212	0.119
-500.653	703.031	0.139	0.364
-499.639	-95.677	0.132	0.035
-498.624	-200.000	-0.016	-0.132
-497.610	297.840	-0.022	0.040
-496.595	-11.796	0.192	-0.125
-495.581	-200.000	0.008	-0.255
-494.566	213.112	0.123	-0.192
-493.551	578.797	-0.050	-0.122
-492.537	133.955	-0.151	-0.194
-491.522	-102.735	0.166	0.039
-490.508	699.016	-0.018	0.048
-489.493	-46.351	0.107	-0.052
-488.478	-200.000	-0.009	0.422
-487.464	-36.278	-0.108	0.058
-486.449	-93.275	0.289	0.080
-485.435	116.575	-0.104	0.126
-484.420	-21.244	-0.234	0.142
-483.405	460.095	0.071	-0.157
-482.391	-69.343	-0.092	0.035
-481.376	157.046	0.182	-0.250
-480.362	87.395	0.240	-0.264
-479.347	25.040	-0.087	0.071
-478.332	-13.059	0.253	0.163
-477.318	256.378	0.019	0.032
-476.303	-200.000	0.000	-0.277
-475.289	-75.647	-0.292	0.103
-474.274	800.000	-0.031	0.125
-473.259	-195.106	0.110	0.001
-472.245	-116.487	-0.484	-0.089
-471.230	8.030	0.247	0.184
-470.216	665.882	0.025	-0.065
-469.201	-107.912	-0.271	-0.058
-468.186	-105.732	-0.124	-0.028
-467.172	148.006	-0.107	-0.143
-466.157	80.744	0.183	-0.196
-465.143	-65.107	-0.198	-0.079
-464.128	-102.809	0.178	0.042
-463.113	-94.814	0.299	-0.080
-462.099	-104.539	-0.297	0.068
-461.084	-36.420	-0.342	-0.182
-460.070	164.476	-0.052	-0.072
-459.055	77.333	0.231	0.244
-458.040	-200.000	0.030	-0.199
-457.026	800.000	-0.045	-0.187
-456.011	128.359	0.321	-0.405
-454.997	800.000	0.041	-0.146
-453.982	800.000	0.073	0.227
-452.968	72.034	0.127	0.131
-451.953	72.253	0.153	-0.158
-450.938	465.090	-0.140	-0.312
-449.924	-55.121	0.200	0.089
-448.909	-200.000	-0.002	0.141
-447.895	-75.595	-0.106	0.037
-446.880	800.000	0.100	0.382
-445.865	38.215	-0.103	0.091
-444.851	-23.732	-0.139	-0.083
-443.836	79.307	0.118	-0.126
-442.822	109.942	-0.180	0.214
-441.807	239.217	-0.233	0.384
-440.792	-73.647	-0.200	-0.072
-439.778	34.803	-0.101	0.087
-438.763	198.958	-0.106	0.161
-437.749	106.742	-0.053	0.062
-436.734	-38.717	0.119	-0.062
-435.719	-145.962	-0.251	-0.022
-434.705	40.849	0.151	-0.135
-433.690	7.449	-0.162	0.120
-432.676	-12.753	0.073	0.047
-431.661	213.711	0.164	-0.257
-430.646	-120.937	0.290	-0.048
-429.632	143.311	0.207	0.273
-428.617	-94.025	-0.247	0.067
-427.603	-200.000	0.018	-0.369
-426.588	-110.985	-0.078	0.016
-425.573	-50.084	0.285	0.134
-424.559	-22.182	-0.209	-0.125
-423.544	-200.000	-0.002	0.064
-422.530	800.000	0.064	0.256
-421.515	61.879	0.089	0.088
-420.500	800.000	0.020	-0.078
-419.486	-121.102	0.182	-0.030
-418.471	434.625	-0.101	-0.217
-417.457	-65.156	-0.345	-0.138
-416.442	-106.500	0.153	-0.034
-415.428	297.913	-0.120	0.218
-414.413	169.617	0.111	0.158
-413.398	-200.000	0.087	0.431
-412.384	-115.461	-0.253	-0.047
-411.369	-87.320	0.181	0.054
-410.355	-16.297	-0.305	-0.192
-409.340	115.887	0.061	-0.074
-408.325	181.708	-0.054	0.079
-407.311	559.515	-0.156	0.372
-406.296	391.020	-0.171	-0.351
-405.282	147.608	0.162	-0.217
-404.267	-200.000	-0.030	-0.148
-403.252	-20.277	-0.212	0.129
-402.238	-0.059	-0.126	0.089
-401.223	-70.085	0.287	0.108
-400.209	129.032	0.082	-0.103
-399.194	110.055	-0.237	0.281
-398.179	-200.000	-0.093	0.459
-397.165	800.000	0.023	-0.097
-396.150	305.092	0.127	0.233
-395.136	68.318	-0.302	0.306
-394.121	800.000	-0.047	0.154
-393.106	-151.871	0.644	-0.047
-392.092	-43.091	0.099	0.050
-391.077	72.468	0.086	0.088
-390.063	112.440	-0.186	0.222
-389.048	131.951	0.228	-0.290
-388.033	-183.385	0.219	-0.004
-387.019	238.480	-0.130	-0.214
-386.004	800.000	0.076	-0.223
-384.990	26.852	-0.287	-0.237
-383.975	-200.000	0.007	0.198
-382.960	26.150	-0.293	-0.242
-381.946	108.770	0.122	0.144
-380.931	-200.000	-0.035	-0.309
-379.917	-39.918	0.055	0.028
-378.902	-200.000	0.004	0.087
-377.888	-9.787	0.037	-0.025
-376.873	45.985	0.138	0.126
-375.858	104.668	-0.211	-0.245
-374.844	-200.000	0.026	-0.238
-373.829	201.270	-0.125	0.190
-372.815	-127.834	-0.025	-0.004
-371.800	-200.000	-0.059	0.393
-370.785	-200.000	-0.018	0.109
-369.771	-74.976	0.158	-0.056
-368.756	78.360	0.088	0.093
-367.742	-172.199	0.250	-0.008
-366.727	-106.675	0.211	0.046
-365.712	-68.941	-0.319	-0.122
-364.698	-39.216	0.209	0.109
-363.683	-95.514	-0.023	-0.006
-362.669	-120.804	0.243	-0.040
-361.654	209.355	-0.171	0.265
-360.639	-200.000	0.009	0.100
-359.625	319.203	0.067	0.125
-358.610	-37.356	-0.207	0.109
-357.596	50.202	0.174	-0.163
-356.581	104.277	-0.117	0.136
-355.566	32.075	-0.175	0.149
-354.552	-26.777	0.302	0.175
-353.537	-68.932	-0.138	0.053
-352.523	38.198	-0.339	0.298
-351.508	72.089	0.241	0.247
-350.493	-115.150	0.140	0.026
-349.479	319.388	0.015	-0.029
-348.464	211.753	-0.084	0.131
-347.450	-155.729	-0.149	0.009
-346.435	800.000	0.031	-0.101
-345.420	-200.000	0.071	0.504
-344.406	800.000	0.100	0.393
-343.391	334.112	-0.170	0.325
-342.377	800.000	-0.051	-0.195
-341.362	150.334	-0.151	0.202
-340.348	11.595	-0.119	-0.090
-339.333	800.000	0.062	0.234
-338.318	-41.034	-0.254	0.129
-337.304	-83.636	-0.380	-0.120
-336.289	212.642	-0.190	-0.296
-335.275	-200.000	0.056	0.336
-334.260	800.000	-0.015	-0.059
-333.245	556.292	-0.082	-0.194
-332.231	800.000	-0.069	0.251
-331.216	57.538	-0.393	0.379
-330.202	-96.481	-0.046	0.012
-329.187	185.882	0.209	-0.306
-328.172	-89.140	0.136	0.040
-327.158	326.904	-0.032	-0.061
-326.143	-53.331	0.097	0.044
-325.129	-101.151	0.180	-0.043
-324.114	633.944	-0.094	-0.234
-323.099	35.722	-0.219	-0.190
-322.085	-68.429	-0.161	0.062
-321.070	800.000	0.021	0.088
-320.056	-108.356	0.163	-0.035
-319.041	164.779	-0.106	-0.148
-318.026	387.097	-0.129	0.263
-317.012	6.318	0.228	-0.167
-315.997	753.945	0.157	0.418
-314.983	800.000	-0.052	-0.197
-313.968	291.829	-0.101	-0.181
-312.953	-200.000	-0.011	0.058
-311.939	-108.982	-0.323	-0.068
-310.924	800.000	-0.015	-0.055
-309.910	-122.460	-0.409	-0.066
-308.895	-200.000	0.003	0.059
-307.880	800.000	0.059	-0.216
-306.866	17.987	0.082	0.064
-305.851	-29.461	-0.130	-0.073
-304.837	800.000	-0.050	0.194
-303.822	800.000	0.049	-0.181
-302.807	-200.000	-0.023	-0.189
-301.793	585.624	-0.083	-0.200
-300.778	126.371	-0.262	0.327
-299.764	626.128	-0.058	0.144
-298.749	800.000	-0.052	0.156
-297.735	-78.889	-0.161	0.054
-296.720	-126.786	0.167	-0.024
-295.705	-200.000	0.021	-0.254
-294.691	-85.699	-0.045	0.014
-293.676	-145.931	0.450	0.039
-292.662	100.749	0.194	0.222
-291.647	-33.216	-0.139	-0.076
-290.632	493.742	-0.164	-0.370
-289.618	-5.200	-0.035	-0.024
-288.603	-200.000	-0.018	-0.134
-287.589	628.876	-0.042	-0.104
-286.574	-200.000	0.022	0.159
-285.559	-19.852	-0.179	0.109
-284.545	-167.396	0.219	-0.009
-283.530	9.992	-0.025	-0.018
-282.516	-200.000	0.046	-0.214
-281.501	39.374	0.134	-0.118
-280.486	39.930	-0.183	0.162
-279.472	-65.151	0.054	0.021
-278.457	-67.069	0.079	0.031
-277.443	66.055	0.044	-0.044
-276.428	-44.014	-0.362	-0.179
-275.413	-84.071	-0.214	0.067
-274.399	426.605	0.092	-0.194
-273.384	-149.085	0.240	0.019
-272.370	-200.000	-0.006	-0.129
-271.355	95.248	-0.164	-0.184
-270.340	153.443	0.193	0.261
-269.326	26.812	0.109	-0.090
-268.311	-200.000	0.031	0.169
-267.297	-200.000	-0.032	-0.193
-266.282	561.538	-0.122	-0.289
-265.267	100.410	-0.110	-0.125
-264.253	-53.867	-0.199	0.089
-263.238	-153.497	0.147	-0.010
-262.224	307.598	-0.052	-0.095
-261.209	17.773	0.112	-0.088
-260.195	56.269	0.151	-0.144
-259.180	-137.498	-0.494	-0.055
-258.165	800.000	0.035	-0.102
-257.151	-64.256	-0.169	0.068
-256.136	-200.000	-0.003	-0.074
-255.122	10.658	0.250	0.188
-254.107	152.599	0.096	0.129
-253.092	-130.317	0.153	-0.020
-252.078	30.300	-0.153	0.129
-251.063	-35.328	0.148	0.079
-250.049	-152.043	-0.190	0.014
-249.034	300.278	0.038	-0.069
-248.019	314.736	-0.097	0.181
-247.005	-5.393	0.102	-0.069
-245.990	-71.091	-0.206	-0.076
-244.976	789.348	-0.074	0.200
-243.961	-27.082	0.087	0.050
-242.946	114.218	-0.133	-0.159
-241.932	111.614	-0.083	-0.099
-240.917	-64.754	-0.436	-0.174
-239.903	29.265	0.118	0.098
-238.888	360.897	0.091	0.180
-237.873	574.325	0.101	-0.242
-236.859	-84.926	-0.377	-0.116
-235.844	231.556	0.034	-0.056
-234.830	-84.250	-0.273	-0.085
-233.815	-200.000	0.025	0.121
-232.800	41.272	0.425	0.378
-231.786	-89.100	0.243	-0.071
-230.771	-109.103	0.085	-0.018
-229.757	-66.415	0.437	-0.171
-228.742	15.886	-0.107	-0.083
-227.727	-200.000	0.018	-0.144
-226.713	-33.528	0.071	-0.039
-225.698	53.745	0.197	-0.186
-224.684	-27.685	0.247	-0.141
-223.669	117.973	0.379	-0.459
-222.655	800.000	0.096	0.268
-221.640	239.947	-0.100	-0.164
-220.625	604.942	0.095	-0.232
-219.611	-42.691	0.095	0.047
-218.596	111.605	0.186	-0.221
-217.582	-200.000	0.035	-0.247
-216.567	33.419	0.177	-0.151
-215.552	-113.300	0.113	0.022
-214.538	-200.000	-0.020	0.333
-213.523	-55.342	0.195	-0.086
-212.509	339.186	-0.062	-0.119
-211.494	-81.620	-0.128	0.041
-210.479	-7.193	-0.199	0.132
-209.465	717.708	0.117	0.304
-208.450	225.675	0.048	0.077
-207.436	124.181	0.036	0.045
-206.421	17.412	-0.131	-0.102
-205.406	-200.000	0.045	-0.267
-204.392	59.066	-0.182	0.176
-203.377	-37.307	0.480	-0.252
-202.363	-115.543	-0.222	0.041
-201.348	435.268	0.171	0.366
-200.333	102.935	0.196	0.226
-199.319	800.000	0.047	0.191
-198.304	203.812	-0.136	-0.207
-197.290	-48.847	0.112	0.053
-196.275	-14.224	0.379	-0.240
-195.260	800.000	-0.066	0.188
-194.246	127.806	-0.115	0.144
-193.231	154.009	-0.215	-0.289
-192.217	-182.817	0.349	0.006
-191.202	-200.000	-0.009	0.247
-190.187	-9.281	-0.026	0.017
-189.173	33.608	0.075	0.064
-188.158	-117.454	-0.078	0.014
-187.144	92.333	0.233	0.258
-186.129	373.147	-0.143	0.285
-185.114	343.084	-0.082	0.158
-184.100	227.500	0.079	0.127
-183.085	-106.531	0.084	-0.018
-182.071	800.000	-0.024	-0.082
-181.056	-6.434	0.165	0.110
-180.042	-60.413	0.380	0.158
-179.027	-69.775	-0.350	0.131
-178.012	3.465	0.119	-0.085
-176.998	-110.245	-0.173	0.035
-175.983	-119.046	0.217	0.037
-174.969	-44.411	-0.088	-0.043
-173.954	-200.000	-0.025	0.162
-172.939	-91.501	0.385	-0.108
-171.925	110.733	-0.302	-0.356
-170.910	205.660	0.025	0.038
-169.896	-200.000	-0.033	-0.319
-168.881	-2.264	0.186	-0.128
-167.866	-186.498	-0.174	-0.002
-166.852	-21.956	-0.167	-0.099
-165.837	-200.000	0.025	0.348
-164.823	-200.000	0.004	-0.091
-163.808	763.261	-0.037	-0.098
-162.793	-65.679	0.132	0.052
-161.779	-70.584	0.101	0.037
-160.764	800.000	0.029	-0.122
-159.750	-149.757	-0.151	-0.012
-158.735	-200.000	-0.015	0.102
-157.720	-116.552	-0.146	-0.026
-156.706	-200.000	-0.024	-0.270
-155.691	-132.123	0.214	0.027
-154.677	-200.000	-0.024	0.364
-153.662	-200.000	-0.012	0.087
-152.647	800.000	0.067	-0.182
-151.633	303.923	-0.075	0.135
-150.618	-200.000	0.052	-0.505
-149.604	35.527	0.278	0.239
-148.589	131.887	0.215	0.271
-147.574	3.969	-0.142	0.102
-146.560	166.000	0.216	0.299
-145.545	-62.254	0.335	0.137
-144.531	-200.000	0.003	0.186
-143.516	-77.104	-0.131	0.045
-142.502	-147.163	-0.317	0.026
-141.487	-99.150	0.254	0.063
-140.472	-77.923	0.136	0.046
-139.458	84.142	-0.054	0.057
-138.443	66.207	-0.130	0.130
-137.429	247.163	-0.187	0.308
-136.414	79.040	0.184	0.193
-135.399	-70.791	-0.263	0.097
-134.385	800.000	-0.075	0.254
-133.370	-92.446	0.019	0.005
-132.356	-46.195	-0.129	-0.062
-131.341	21.472	0.148	0.118
-130.326	6.109	-0.313	-0.227
-129.312	-73.144	-0.220	0.079
-128.297	-155.419	-0.111	-0.007
-127.283	-200.000	0.008	0.172
-126.268	502.981	0.122	-0.277
-125.253	71.414	0.009	0.009
-124.239	-200.000	-0.003	-0.101
-123.224	147.234	-0.102	0.135
-122.210	86.593	0.086	0.093
-121.195	-44.771	-0.032	0.016
-120.180	-200.000	-0.030	0.189
-119.166	800.000	-0.049	0.175
-118.151	341.748	-0.180	0.345
-117.137	-39.499	0.167	0.086
-116.122	49.793	-0.130	-0.120
-115.107	-44.900	0.116	0.056
-114.093	800.000	-0.081	-0.295
-113.078	800.000	-0.050	-0.193
-112.064	-48.683	-0.095	0.045
-111.049	-167.577	0.184	-0.007
-110.034	800.000	0.057	0.243
-109.020	225.134	0.071	0.113
-108.005	-200.000	0.026	0.352
-106.991	-200.000	-0.040	0.432
-105.976	-200.000	-0.032	0.230
-104.962	800.000	0.059	-0.198
-103.947	25.568	-0.144	-0.117
-102.932	-180.260	0.415	-0.009
-101.918	-200.000	-0.035	0.205
-100.903	-115.596	0.125	0.023
-99.889	225.321	0.041	0.065
-98.874	54.707	0.172	0.162
-97.859	-200.000	-0.109	-0.469
-96.845	-200.000	-0.031	-0.152
-95.830	256.775	-0.091	-0.152
-94.816	335.672	-0.108	0.205
-93.801	-200.000	0.011	0.108
-92.786	-179.830	0.109	-0.002
-91.772	800.000	0.022	-0.068
-90.757	800.000	0.160	0.470
-89.743	412.278	-0.160	0.332
-88.728	622.274	0.050	-0.123
-87.713	-155.407	-0.250	-0.016
-86.699	-44.333	0.238	0.117
-85.684	-173.460	-0.344	-0.010
-84.670	661.587	-0.081	0.203
-83.655	-76.461	0.079	0.027
-82.640	-200.000	0.031	-0.180
-81.626	-60.081	0.128	-0.053
-80.611	322.859	-0.133	0.248
-79.597	-200.000	-0.036	0.164
-78.582	-200.000	0.000	0.319
-77.567	-70.035	-0.130	-0.048
-76.553	-200.000	0.019	-0.266
-75.538	-41.699	0.220	0.110
-74.524	167.550	-0.111	0.154
-73.509	-44.614	-0.414	-0.202
-72.494	800.000	-0.108	0.335
-71.480	-200.000	0.048	0.206
-70.465	-60.942	-0.144	-0.059
-69.451	15.052	0.124	-0.095
-68.436	159.004	-0.142	0.192
-67.422	800.000	0.128	-0.377
-66.407	-65.475	-0.060	0.024
-65.392	-37.778	0.029	0.015
-64.378	125.392	-0.088	0.108
-63.363	-112.302	-0.078	-0.015
-62.349	-200.000	0.003	0.190
-61.334	68.591	-1.459	-1.462
-60.319	59.113	0.824	0.792
-59.305	-200.000	-0.297	-1.601
-58.290	213.488	0.883	1.363
-57.276	461.818	0.694	1.512
-56.261	-200.000	135.680	628.584
-55.246	344.467	1634.909	3130.969
-54.232	135.623	2783.384	3535.669
-53.217	73.849	2340.124	2394.781
-52.203	24.872	2091.919	1692.347
-51.188	20.531	2013.136	1588.955
-50.173	19.856	1998.482	1571.201
-49.159	37.496	2075.890	1796.736
-48.144	34.300	2086.514	1776.114
-47.130	20.853	2040.147	1613.000
-46.115	19.035	2029.352	1587.643
-45.100	18.997	2026.098	1584.686
-44.086	18.898	2024.009	1582.077
-43.071	18.792	2021.794	1579.310
-42.057	18.827	2019.707	1577.937
-41.042	18.851	2017.847	1576.640
-40.027	18.907	2015.602	1575.339
-39.013	18.926	2013.782	1574.026
-37.998	18.994	2011.806	1573.039
-36.984	18.967	2010.792	1571.941
-35.969	18.952	2009.054	1570.382
-34.954	18.913	2007.068	1568.408
-33.940	18.975	2005.779	1567.910
-32.925	18.983	2004.288	1566.748
-31.911	18.951	2002.716	1565.167
-30.896	18.977	2000.697	1563.763
-29.881	19.021	1998.954	1562.739
-28.867	19.088	1996.801	1561.607
-27.852	19.000	1995.814	1559.973
-26.838	19.143	1993.466	1559.367
-25.823	18.931	1992.543	1556.665
-24.809	19.069	1989.919	1555.806
-23.794	19.024	1988.909	1554.542
-22.779	19.052	1986.717	1553.019
-21.765	19.040	1985.600	1551.976
-20.750	18.965	1984.257	1550.193
-19.736	18.966	1982.757	1548.973
-18.721	19.123	1980.645	1548.666
-17.706	19.076	1979.343	1547.166
-16.692	19.044	1977.271	1545.200
-15.677	19.058	1975.872	1544.167
-14.663	19.049	1974.329	1542.819
-13.648	18.987	1973.626	1541.651
-12.633	18.990	1972.572	1540.803
-11.619	19.011	1970.783	1539.526
-10.604	18.991	1969.688	1538.429
-9.590	18.974	1968.012	1536.911
-8.575	18.989	1966.298	1535.647
-7.560	18.996	1965.031	1534.660
-6.546	19.033	1963.888	1534.031
-5.531	18.975	1962.525	1532.393
-4.517	19.001	1961.794	1531.988
-3.502	19.026	1960.509	1531.145
-2.487	19.047	1958.903	1530.017
-1.473	18.997	1958.290	1529.037
-0.458	18.981	1953.607	1525.176
0.556	17.722	1933.035	1496.652
1.571	13.591	1914.415	1446.121
2.586	9.856	1937.968	1430.735
3.600	9.126	1972.389	1449.428
4.615	9.259	1964.666	1444.819
5.629	7.386	1864.971	1355.386
6.644	3.040	1756.121	1241.139
7.659	0.734	1726.655	1201.889
8.673	0.618	1724.070	1199.061
9.688	0.578	1722.885	1197.808
10.702	0.571	1721.822	1196.907
11.717	0.464	1716.754	1192.434
12.731	0.756	1714.851	1193.311
13.746	4.217	1721.808	1225.440
14.761	10.739	1735.358	1286.787
15.775	15.793	1744.855	1333.882
16.790	16.963	1746.508	1344.310
17.804	16.158	1743.912	1335.817
18.819	15.243	1740.514	1325.866
19.834	14.652	1737.573	1318.833
20.848	14.384	1736.430	1315.733
21.863	14.134	1734.868	1312.462
22.877	13.912	1733.439	1309.512
23.892	13.748	1731.396	1306.561
24.907	13.534	1730.360	1303.982
25.921	13.551	1729.045	1303.008
26.936	13.622	1727.665	1302.413
27.950	13.559	1727.443	1301.632
28.965	13.661	1726.310	1301.465
29.980	13.760	1725.786	1301.732
30.994	13.647	1725.460	1300.485
32.009	13.778	1723.717	1300.085
33.023	13.695	1723.413	1299.091
34.038	13.823	1722.196	1299.056
35.053	13.772	1720.881	1297.552
36.067	13.837	1720.104	1297.363
37.082	13.729	1718.935	1295.524
38.096	13.742	1718.007	1294.805
39.111	13.757	1717.026	1294.070
40.126	13.751	1716.459	1293.482
41.140	13.766	1714.928	1292.330
42.155	13.717	1713.597	1290.830
43.169	13.591	1712.740	1289.089
44.184	13.634	1711.275	1288.214
45.199	13.552	1710.197	1286.649
46.213	13.530	1708.683	1285.221
47.228	13.590	1707.538	1284.715
48.242	13.637	1706.435	1284.132
49.257	13.717	1704.688	1283.324
50.271	13.702	1703.698	1282.348
51.286	13.715	1702.798	1281.661
52.301	13.645	1701.367	1279.931
53.315	13.771	1699.411	1279.319
54.330	13.641	1698.759	1277.707
55.344	13.690	1696.213	1276.058
56.359	13.586	1695.501	1274.610
57.374	13.603	1694.169	1273.626
58.388	13.650	1692.926	1272.941
59.403	13.601	1691.443	1271.336
60.417	13.482	1690.439	1269.559
61.432	13.605	1688.772	1269.138
62.447	13.566	1687.792	1267.990
63.461	13.574	1686.278	1266.804
64.476	13.462	1685.923	1265.566
65.490	13.525	1684.550	1264.902
66.505	13.557	1682.822	1263.741
67.520	13.468	1682.135	1262.433
68.534	13.543	1681.473	1262.394
69.549	13.612	1679.732	1261.502
70.563	13.616	1678.342	1260.378
71.578	13.601	1677.261	1259.339
72.593	13.560	1675.996	1257.970
73.607	13.465	1675.407	1256.695
74.622	13.452	1674.035	1255.453
75.636	13.473	1673.249	1254.915
76.651	13.453	1672.118	1253.798
77.666	13.476	1670.797	1252.873
78.680	13.567	1669.790	1252.700
79.695	13.437	1669.091	1251.081
80.709	13.544	1667.477	1250.568
81.724	13.462	1666.765	1249.300
82.739	13.601	1665.845	1249.550
83.753	13.659	1664.477	1248.851
84.768	13.697	1663.318	1248.159
85.782	13.704	1662.738	1247.662
86.797	13.723	1661.985	1247.130
87.812	13.758	1660.544	1246.200
88.826	13.660	1659.497	1244.569
89.841	13.682	1658.164	1243.628
90.855	13.593	1657.743	1242.536
91.870	13.636	1656.361	1241.706
92.884	13.696	1655.508	1241.408
93.899	13.708	1653.886	1240.172
94.914	13.780	1652.134	1239.290
95.928	13.734	1651.409	1238.287
96.943	13.852	1649.948	1237.964
97.957	13.753	1648.701	1236.186
98.972	13.765	1647.249	1235.073
99.987	13.696	1645.445	1233.097
101.001	13.690	1644.204	1232.018
102.016	13.729	1642.046	1230.575
103.030	13.686	1641.027	1229.384
104.045	13.770	1639.760	1228.954
105.060	13.658	1638.401	1226.994
106.074	13.749	1636.975	1226.491
107.089	13.711	1634.737	1224.427
108.103	13.652	1633.062	1222.631
109.118	13.582	1631.814	1221.069
110.133	13.613	1630.636	1220.309
111.147	13.557	1628.919	1218.503
112.162	13.669	1628.017	1218.545
113.176	13.654	1626.031	1216.843
114.191	13.679	1624.309	1215.626
115.206	13.671	1623.248	1214.668
116.220	13.694	1622.186	1213.930
117.235	13.684	1620.345	1212.378
118.249	13.552	1619.157	1210.414
119.264	13.599	1618.187	1209.928
120.279	13.539	1617.011	1208.498
121.293	13.611	1614.875	1207.320
122.308	13.571	1613.752	1206.085
123.322	13.617	1611.820	1204.867
124.337	13.646	1610.074	1203.663
125.352	13.585	1608.847	1202.201
126.366	13.531	1608.152	1201.186
127.381	13.616	1606.614	1200.545
128.395	13.603	1605.372	1199.414
129.410	13.618	1603.863	1198.289
130.424	13.552	1602.413	1196.625
131.439	13.564	1601.370	1195.826
132.454	13.617	1599.998	1195.076
133.468	13.658	1598.137	1193.875
134.483	13.667	1597.074	1193.044
135.497	13.746	1595.365	1192.227
136.512	13.741	1594.140	1191.172
137.527	13.693	1592.977	1189.856
138.541	13.764	1591.086	1188.844
139.556	13.765	1590.038	1187.964
140.570	13.814	1588.223	1186.849
141.585	13.844	1586.885	1185.962
142.600	13.882	1585.658	1185.209
143.614	13.849	1584.581	1184.062
144.629	13.892	1583.420	1183.397
145.643	13.906	1582.095	1182.406
146.658	13.993	1580.638	1181.833
147.673	13.912	1579.730	1180.469
148.687	13.897	1577.524	1178.609
149.702	13.944	1576.116	1177.791
150.716	13.851	1574.536	1175.846
151.731	13.923	1572.666	1174.856
152.746	13.870	1571.637	1173.605
153.760	13.810	1570.546	1172.267
154.775	13.894	1569.205	1171.749
155.789	13.901	1567.971	1170.774
156.804	13.880	1566.796	1169.650
157.819	13.948	1565.688	1169.199
158.833	13.968	1563.853	1167.864
159.848	13.998	1562.880	1167.241
160.862	13.951	1561.956	1166.118
161.877	14.133	1560.145	1165.941
162.892	14.055	1558.973	1164.417
163.906	13.975	1557.847	1162.912
164.921	13.929	1556.493	1161.477
165.935	14.027	1555.180	1161.080
166.950	14.011	1553.873	1159.889
167.964	14.044	1552.579	1159.053
168.979	13.980	1552.126	1158.163
169.994	14.023	1550.948	1157.478
171.008	14.044	1549.546	1156.480
172.023	14.029	1548.487	1155.483
173.037	14.110	1547.496	1155.202
174.052	14.122	1546.696	1154.588
175.067	14.093	1545.471	1153.370
176.081	14.062	1544.214	1152.115
177.096	14.092	1542.378	1150.852
178.110	14.069	1541.297	1149.785
179.125	14.087	1539.874	1148.742
180.140	14.171	1538.581	1148.255
181.154	14.165	1537.780	1147.514
182.169	14.225	1536.675	1147.000
183.183	14.251	1535.042	1145.865
184.198	14.151	1534.572	1144.724
185.213	14.301	1532.957	1144.445
186.227	14.272	1531.813	1143.293
187.242	14.283	1530.795	1142.505
188.256	14.351	1529.822	1142.144
189.271	14.289	1528.417	1140.568
190.286	14.357	1527.245	1140.059
191.300	14.224	1526.689	1138.637
192.315	14.256	1525.270	1137.696
193.329	14.196	1524.360	1136.503
194.344	14.217	1522.814	1135.398
195.359	14.117	1522.264	1134.206
196.373	14.251	1521.235	1134.250
197.388	14.205	1520.172	1133.044
198.402	14.302	1519.255	1132.918
199.417	14.422	1517.678	1132.456
200.432	14.435	1516.742	1131.748
201.446	14.399	1515.812	1130.710
202.461	14.582	1514.487	1130.863
203.475	14.466	1513.387	1129.156
204.490	14.570	1512.191	1128.865
205.504	14.532	1511.402	1127.922
206.519	14.559	1510.064	1127.005
207.534	14.555	1508.692	1125.854
208.548	14.454	1507.848	1124.442
209.563	14.508	1506.639	1123.805
210.577	14.506	1505.550	1122.881
211.592	14.559	1504.543	1122.386
212.607	14.647	1504.038	1122.501
213.621	14.598	1503.316	1121.538
214.636	14.649	1502.369	1121.071
215.650	14.659	1500.945	1119.980
216.665	14.662	1500.419	1119.505
217.680	14.622	1500.026	1118.845
218.694	14.685	1499.085	1118.466
219.709	14.849	1497.705	1118.437
220.723	14.728	1496.608	1116.706
221.738	14.683	1495.878	1115.764
222.753	14.795	1494.634	1115.486
223.767	14.784	1493.616	1114.555
224.782	14.841	1492.660	1114.120
225.796	14.800	1492.074	1113.312
226.811	14.777	1491.298	1112.481
227.826	14.886	1490.021	1112.155
228.840	14.727	1489.640	1110.714
229.855	14.854	1488.491	1110.602
230.869	14.807	1487.345	1109.336
231.884	14.903	1485.975	1108.852
232.899	14.877	1485.105	1107.937
233.913	14.812	1484.265	1106.781
234.928	14.838	1482.985	1105.900
235.942	14.803	1481.520	1104.477
236.957	14.813	1480.107	1103.395
237.972	14.847	1478.842	1102.578
238.986	14.882	1477.571	1101.763
240.001	14.884	1476.861	1101.149
241.015	14.826	1476.376	1100.310
242.030	14.989	1474.632	1099.980
243.045	14.951	1473.758	1098.983
244.059	14.924	1472.974	1098.128
245.074	14.911	1472.357	1097.480
246.088	15.013	1471.364	1097.316
247.103	14.927	1470.848	1096.271
248.117	14.929	1470.072	1095.604
249.132	15.060	1468.957	1095.535
250.147	15.078	1468.209	1094.998
251.161	15.119	1467.692	1094.786
252.176	15.211	1466.514	1094.410
253.190	15.345	1465.860	1094.699
254.205	15.226	1464.829	1093.055
255.220	15.364	1463.836	1093.115
256.234	15.308	1463.212	1092.192
257.249	15.475	1461.839	1092.153
258.263	15.355	1461.569	1091.076
259.278	15.410	1460.294	1090.387
260.293	15.358	1459.135	1089.089
261.307	15.367	1458.518	1088.590
262.322	15.389	1458.047	1088.285
263.336	15.408	1457.256	1087.718
264.351	15.504	1455.829	1087.179
265.366	15.556	1454.985	1086.786
266.380	15.551	1453.904	1085.854
267.395	15.642	1452.883	1085.585
268.409	15.488	1452.363	1084.103
269.424	15.552	1451.170	1083.531
270.439	15.438	1450.544	1082.230
271.453	15.606	1449.338	1082.317
272.468	15.586	1447.995	1081.093
273.482	15.559	1447.762	1080.645
274.497	15.637	1446.857	1080.377
275.512	15.587	1445.895	1079.245
276.526	15.596	1444.859	1078.434
277.541	15.599	1443.725	1077.511
278.555	15.572	1443.190	1076.841
279.570	15.533	1442.362	1075.881
280.585	15.593	1441.220	1075.314
281.599	15.694	1440.721	1075.497
282.614	15.721	1439.569	1074.714
283.628	15.709	1438.079	1073.427
284.643	15.723	1436.904	1072.544
285.657	15.746	1435.756	1071.742
286.672	15.744	1435.010	1071.074
287.687	15.726	1434.351	1070.375
288.701	15.820	1432.693	1069.637
289.716	15.788	1432.214	1068.986
290.730	15.799	1431.840	1068.682
291.745	15.849	1430.114	1067.614
292.760	15.833	1429.419	1066.900
293.774	15.799	1428.595	1065.975
294.789	15.909	1427.117	1065.475
295.803	15.924	1426.516	1065.025
296.818	15.900	1425.585	1064.083
297.833	15.968	1424.546	1063.646
298.847	15.940	1423.738	1062.772
299.862	15.901	1422.892	1061.796
300.876	15.912	1422.033	1061.134
301.891	15.866	1420.891	1059.897
302.906	16.000	1420.031	1060.005
303.920	15.909	1419.456	1058.907
304.935	16.115	1418.435	1059.347
305.949	16.011	1417.888	1058.192
306.964	16.147	1416.675	1058.049
307.979	16.173	1415.891	1057.529
308.993	16.187	1414.543	1056.519
310.008	16.235	1413.934	1056.270
311.022	16.146	1412.852	1054.813
312.037	16.218	1411.726	1054.327
313.052	16.135	1411.017	1053.186
314.066	16.253	1409.889	1052.988
315.081	16.224	1408.394	1051.601
316.095	16.196	1407.837	1050.917
317.110	16.102	1406.755	1049.428
318.125	16.187	1405.315	1048.794
319.139	16.173	1404.433	1047.950
320.154	16.161	1403.476	1047.072
321.168	16.229	1402.815	1046.908
322.183	16.198	1401.982	1045.998
323.197	16.218	1401.088	1045.364
324.212	16.266	1399.970	1044.736
325.227	16.283	1399.192	1044.166
326.241	16.327	1397.856	1043.349
327.256	16.327	1396.895	1042.541
328.270	16.270	1396.541	1041.830
329.285	16.390	1395.404	1041.634
330.300	16.285	1394.383	1040.130
331.314	16.265	1393.760	1039.451
332.329	16.337	1392.503	1038.863
333.343	16.400	1391.609	1038.492
334.358	16.298	1390.762	1037.143
335.373	16.331	1390.411	1036.990
336.387	16.429	1389.060	1036.494
337.402	16.427	1388.019	1035.614
338.416	16.421	1387.806	1035.327
339.431	16.560	1387.041	1035.512
340.446	16.541	1386.272	1034.734
341.460	16.495	1385.441	1033.740
342.475	16.566	1384.444	1033.338
343.489	16.553	1383.706	1032.613
344.504	16.632	1382.508	1032.111
345.519	16.611	1381.941	1031.469
346.533	16.777	1380.301	1031.166
347.548	16.625	1379.922	1029.868
348.562	16.725	1378.891	1029.615
349.577	16.730	1378.101	1028.962
350.592	16.714	1377.274	1028.158
351.606	16.669	1376.685	1027.352
352.621	16.633	1375.291	1026.004
353.635	16.700	1374.201	1025.506
354.650	16.653	1373.427	1024.551
355.665	16.671	1372.604	1023.959
356.679	16.752	1371.221	1023.325
357.694	16.716	1370.209	1022.259
358.708	16.867	1368.927	1022.127
359.723	16.697	1367.983	1020.306
360.738	16.817	1366.811	1020.065
361.752	16.834	1366.028	1019.490
362.767	16.812	1364.691	1018.268
363.781	16.874	1364.083	1018.101
364.796	16.835	1362.947	1016.925
365.810	16.901	1362.556	1016.938
366.825	16.994	1361.577	1016.675
367.840	17.029	1361.313	1016.601
368.854	16.941	1360.189	1015.147
369.869	16.979	1359.850	1015.029
370.883	17.066	1358.850	1014.714
371.898	17.082	1358.065	1014.132
372.913	17.124	1357.476	1013.855
373.927	17.080	1356.248	1012.581
374.942	16.977	1355.451	1011.288
375.956	17.131	1354.820	1011.644
376.971	17.194	1353.850	1011.202
377.986	17.115	1353.290	1010.225
379.000	17.159	1352.031	1009.460
380.015	17.182	1350.887	1008.654
381.029	17.199	1350.707	1008.531
382.044	17.229	1349.680	1007.850
383.059	17.196	1349.327	1007.302
384.073	17.217	1348.378	1006.629
385.088	17.242	1347.747	1006.216
386.102	17.272	1347.047	1005.784
387.117	17.297	1345.950	1005.021
388.132	17.292	1345.034	1004.219
389.146	17.283	1344.350	1003.570
390.161	17.265	1343.901	1003.035
391.175	17.272	1342.613	1002.029
392.190	17.290	1342.273	1001.794
393.205	17.214	1341.406	1000.610
394.219	17.468	1340.084	1001.029
395.234	17.527	1338.346	999.988
396.248	17.454	1337.175	998.595
397.263	17.329	1336.572	997.324
398.278	17.420	1334.975	996.580
399.292	17.335	1334.030	995.288
400.307	17.398	1332.983	994.786
401.321	17.373	1331.879	993.728
402.336	17.390	1330.815	992.947
403.350	17.404	1329.946	992.289
404.365	17.389	1329.161	991.530
405.380	17.434	1328.082	990.900
406.394	17.396	1327.284	989.995
407.409	17.377	1326.813	989.443
408.423	17.564	1326.147	989.947
409.438	17.542	1325.301	989.101
410.453	17.570	1324.330	988.454
411.467	17.553	1323.547	987.684
412.482	17.728	1322.901	988.126
413.496	17.641	1322.781	987.442
414.511	17.779	1321.211	986.983
415.526	17.795	1320.631	986.553
416.540	17.775	1320.006	985.883
417.555	17.697	1319.662	985.092
418.569	17.835	1318.441	984.890
419.584	17.802	1318.344	984.540
420.599	17.768	1317.600	983.702
421.613	101.533	1365.140	1492.201
422.628	100.160	1371.979	1492.259
