DTS Sentinel unit serial number:	SN413079Multiplexer serial number:	ORYXHardware model number:	OX4-SRSoftware version number:	ORYX F/W v4.00 Oryx Data Collector v3.7.2.0data status	okinstallation	princeton_trtdifferential loss correction	single-endedforward channel	channel 4reverse channel	N/Adate	2019/09/11time	19:43:11forward acquisition time	60.00reverse acquisition time	0.00gamma	496.2192k internal	0.2297k external	0.2297temperature offset calibration	1.0047default loss term (dB/km)	0.3790temperature slope calibration	1.0000multiplexer offset coefficient	1.0000multiplexer slope coefficient	1.0000fibre end	0.00T internal ref (°C)	39.67T ext. ref 1 (°C)	1.35T ext. ref 2 (°C)	32.49length (m)	temperature (°C)	Stokes	anti-Stokes-747.200	224.101	-0.254	0.419
-746.185	-24.916	-0.474	0.288
-745.171	-4.848	-0.241	-0.170
-744.156	-95.989	-0.261	0.071
-743.142	-67.871	0.042	-0.017
-742.127	-47.645	-0.152	-0.075
-741.112	42.780	0.346	-0.322
-740.098	-5.178	-0.080	0.056
-739.083	-7.841	-0.124	-0.086
-738.069	-70.474	0.187	-0.072
-737.054	5.830	0.096	-0.072
-736.039	57.437	-0.071	0.071
-735.025	510.210	-0.170	0.403
-734.010	-200.000	0.004	-0.092
-732.996	-141.569	0.194	0.020
-731.981	-97.718	-0.284	-0.075
-730.966	58.411	0.101	-0.101
-729.952	800.000	-0.157	-0.491
-728.937	-85.796	-0.300	-0.095
-727.923	-200.000	-0.055	-0.314
-726.908	-144.498	-0.088	-0.008
-725.894	321.618	-0.100	-0.194
-724.879	800.000	-0.021	-0.072
-723.864	-108.049	0.158	-0.035
-722.850	-90.454	-0.186	0.055
-721.835	263.833	0.071	0.126
-720.821	-200.000	-0.003	-0.080
-719.806	-60.593	0.231	-0.100
-718.791	68.310	0.105	-0.109
-717.777	-181.964	-0.256	-0.005
-716.762	-41.584	0.271	0.142
-715.748	104.154	-0.214	-0.257
-714.733	-74.284	0.264	-0.097
-713.718	-133.974	-0.147	-0.019
-712.704	-81.174	-0.198	0.067
-711.689	23.315	0.088	0.074
-710.675	-23.175	-0.206	0.126
-709.660	-200.000	-0.017	0.349
-708.645	-10.497	0.231	0.156
-707.631	508.680	-0.045	0.105
-706.616	-68.334	0.269	-0.106
-705.602	-159.801	0.107	0.006
-704.587	-200.000	0.000	0.144
-703.572	104.533	-0.077	0.092
-702.558	-174.714	0.119	-0.003
-701.543	18.225	0.112	-0.091
-700.529	800.000	-0.026	-0.074
-699.514	-200.000	-0.011	-0.179
-698.499	-38.386	-0.062	0.033
-697.485	-30.191	-0.147	-0.085
-696.470	82.702	0.170	-0.188
-695.456	-200.000	0.009	0.334
-694.441	432.224	0.119	-0.263
-693.426	294.338	-0.103	-0.192
-692.412	-108.828	0.260	0.057
-691.397	-101.808	0.347	-0.086
-690.383	43.619	-0.057	-0.054
-689.368	92.944	0.113	0.131
-688.354	-184.785	0.194	-0.003
-687.339	-138.034	0.343	-0.039
-686.324	43.820	-0.120	-0.112
-685.310	-79.590	0.331	-0.114
-684.295	387.226	0.205	0.432
-683.281	800.000	-0.104	-0.314
-682.266	-200.000	-0.048	-0.373
-681.251	-43.201	-0.320	0.165
-680.237	-4.852	-0.272	-0.191
-679.222	57.089	0.122	-0.121
-678.208	-200.000	0.010	0.272
-677.193	-200.000	-0.003	-0.241
-676.178	800.000	-0.051	-0.200
-675.164	-117.557	0.268	0.049
-674.149	368.262	0.025	0.051
-673.135	-65.110	0.187	0.077
-672.120	-64.507	0.203	-0.084
-671.105	-200.000	0.049	0.326
-670.091	-200.000	-0.047	-0.224
-669.076	-156.809	-0.124	-0.008
-668.062	1.631	-0.245	-0.179
-667.047	304.494	-0.088	-0.167
-666.032	-36.889	0.337	0.184
-665.018	-200.000	-0.004	0.144
-664.003	-38.882	-0.132	0.071
-662.989	-6.724	0.102	-0.070
-661.974	18.195	-0.269	-0.218
-660.959	498.818	0.110	0.258
-659.945	334.975	-0.052	-0.103
-658.930	-94.480	0.235	-0.065
-657.916	-109.275	-0.254	-0.055
-656.901	-110.362	-0.188	-0.040
-655.886	100.601	-0.252	0.298
-654.872	-200.000	-0.024	0.158
-653.857	-134.684	-0.070	-0.009
-652.843	54.311	-0.340	-0.333
-651.828	-4.456	-0.319	-0.224
-650.814	48.824	0.142	0.135
-649.799	-123.776	-0.226	0.036
-648.784	-114.324	0.289	-0.057
-647.770	-200.000	-0.029	-0.173
-646.755	-45.092	-0.134	-0.068
-645.741	-130.087	0.077	0.011
-644.726	103.186	-0.128	-0.153
-643.711	-200.000	0.038	-0.245
-642.697	-200.000	0.008	-0.359
-641.682	-200.000	-0.015	-0.103
-640.668	778.888	-0.060	-0.167
-639.653	-60.508	-0.112	-0.049
-638.638	66.477	-0.135	0.139
-637.624	-58.768	-0.222	-0.098
-636.609	-30.890	0.351	-0.202
-635.595	61.450	0.044	0.044
-634.580	-200.000	-0.055	0.303
-633.565	251.507	0.221	0.383
-632.551	-0.060	-0.268	0.194
-631.536	180.526	-0.227	0.338
-630.522	-149.320	-0.202	-0.016
-629.507	99.375	0.109	-0.128
-628.492	-29.438	-0.133	-0.077
-627.478	50.532	0.299	0.288
-626.463	-156.388	0.398	0.025
-625.449	-200.000	0.043	-0.263
-624.434	800.000	-0.019	-0.071
-623.419	174.397	0.116	-0.170
-622.405	-69.430	-0.128	0.050
-621.390	-84.624	-0.123	0.039
-620.376	36.249	0.066	0.059
-619.361	-22.483	0.271	-0.167
-618.346	567.960	0.160	0.395
-617.332	-58.622	-0.182	-0.080
-616.317	-99.519	-0.286	0.073
-615.303	122.093	-0.051	-0.064
-614.288	-169.667	-0.264	0.010
-613.273	-138.016	-0.095	-0.011
-612.259	-200.000	-0.008	0.139
-611.244	-135.939	-0.120	0.014
-610.230	123.212	-0.159	0.202
-609.215	646.730	0.106	-0.274
-608.201	800.000	0.093	-0.385
-607.186	-200.000	-0.000	0.059
-606.171	800.000	0.063	-0.193
-605.157	-100.941	-0.356	-0.089
-604.142	44.271	0.012	-0.011
-603.128	-200.000	0.023	0.178
-602.113	-149.428	0.163	0.013
-601.098	20.377	-0.177	0.145
-600.084	660.986	0.052	-0.136
-599.069	-67.315	0.216	0.086
-598.055	15.094	-0.214	0.170
-597.040	-200.000	-0.027	0.182
-596.025	-80.951	-0.138	0.047
-595.011	-125.551	0.302	0.047
-593.996	-170.795	-0.308	-0.011
-592.982	84.560	0.108	-0.120
-591.967	-158.645	0.200	0.012
-590.952	-76.379	-0.175	-0.062
-589.938	-145.864	0.169	0.015
-588.923	-76.578	0.186	-0.066
-587.909	779.443	-0.115	0.320
-586.894	144.791	-0.031	-0.042
-585.879	-71.565	0.066	-0.025
-584.865	-102.821	0.287	-0.069
-583.850	-200.000	0.029	-0.160
-582.836	237.358	0.252	-0.424
-581.821	137.271	0.056	0.074
-580.806	-64.245	-0.057	0.023
-579.792	-159.824	0.159	0.009
-578.777	-200.000	-0.006	-0.210
-577.763	501.190	-0.072	0.168
-576.748	-111.299	0.379	-0.079
-575.733	34.463	0.125	-0.111
-574.719	125.375	0.279	0.357
-573.704	292.182	0.051	-0.095
-572.690	394.323	-0.108	-0.227
-571.675	-89.266	-0.169	-0.050
-570.661	395.484	-0.045	-0.095
-569.646	47.021	0.124	0.117
-568.631	-57.944	-0.009	-0.004
-567.617	417.068	0.051	0.110
-566.602	-1.277	-0.125	0.089
-565.588	-42.812	0.396	-0.204
-564.573	-200.000	-0.012	0.075
-563.558	272.783	0.057	-0.102
-562.544	-200.000	0.039	-0.234
-561.529	-80.683	-0.142	-0.048
-560.515	-151.765	0.118	-0.009
-559.500	-57.176	0.162	0.072
-558.485	12.307	0.086	0.067
-557.471	-5.289	0.309	-0.215
-556.456	-10.902	0.257	-0.172
-555.442	62.889	0.396	-0.402
-554.427	249.623	-0.056	0.097
-553.412	-89.007	-0.446	0.134
-552.398	-112.684	-0.239	-0.048
-551.383	304.599	0.045	0.085
-550.369	-23.313	0.058	0.036
-549.354	-175.710	-0.281	0.008
-548.339	75.361	0.231	-0.247
-547.325	84.781	-0.233	-0.258
-546.310	127.598	0.030	-0.038
-545.296	367.733	0.103	-0.210
-544.281	-200.000	-0.001	-0.388
-543.266	504.378	0.068	0.159
-542.252	-200.000	-0.077	0.373
-541.237	78.837	-0.130	0.141
-540.223	380.696	0.134	-0.278
-539.208	264.847	0.289	0.510
-538.193	215.601	0.082	0.132
-537.179	127.400	-0.095	-0.122
-536.164	-200.000	-0.010	-0.159
-535.150	234.712	0.065	0.108
-534.135	-18.671	-0.214	0.135
-533.121	-200.000	0.003	-0.082
-532.106	30.200	0.198	0.171
-531.091	47.018	0.310	0.292
-530.077	-65.502	-0.229	0.093
-529.062	-119.482	-0.315	-0.055
-528.048	69.521	-0.331	0.345
-527.033	188.935	0.179	0.271
-526.018	-9.132	-0.103	0.070
-525.004	800.000	0.021	0.082
-523.989	2.810	0.234	-0.172
-522.975	137.257	0.095	0.126
-521.960	473.969	-0.068	0.156
-520.945	133.046	-0.264	-0.345
-519.931	19.746	-0.122	0.099
-518.916	236.588	0.053	-0.088
-517.902	-66.514	-0.297	0.119
-516.887	57.009	-0.118	-0.116
-515.872	-200.000	-0.012	-0.160
-514.858	-11.027	-0.090	-0.060
-513.843	112.556	0.199	0.244
-512.829	800.000	-0.050	-0.148
-511.814	-131.042	-0.340	0.046
-510.799	271.003	-0.133	0.237
-509.785	686.251	0.020	-0.054
-508.770	-92.625	0.193	0.055
-507.756	386.946	-0.132	0.276
-506.741	121.856	-0.017	-0.021
-505.726	523.123	-0.060	-0.142
-504.712	-66.270	0.288	-0.116
-503.697	-136.604	-0.682	-0.080
-502.683	800.000	0.106	-0.426
-501.668	151.096	-0.083	0.115
-500.653	228.477	0.066	-0.108
-499.639	-150.298	0.172	0.013
-498.624	-200.000	-0.011	-0.074
-497.610	15.053	0.203	0.161
-496.595	122.113	-0.088	0.112
-495.581	94.033	0.083	-0.095
-494.566	-200.000	-0.019	-0.309
-493.551	-200.000	0.006	-0.168
-492.537	-94.791	-0.378	-0.104
-491.522	-19.088	0.205	-0.129
-490.508	3.699	-0.134	0.099
-489.493	-200.000	-0.002	-0.139
-488.478	82.461	-0.127	0.140
-487.464	-200.000	-0.016	0.272
-486.449	-42.765	0.203	0.104
-485.435	31.974	-0.211	0.184
-484.420	-15.346	0.329	0.213
-483.405	542.564	0.057	-0.137
-482.391	-157.407	-0.230	-0.014
-481.376	-38.335	-0.223	0.120
-480.362	30.779	-0.069	-0.060
-479.347	-40.882	0.049	0.025
-478.332	31.821	0.042	0.036
-477.318	-125.626	0.140	-0.021
-476.303	-200.000	0.033	-0.202
-475.289	800.000	-0.046	-0.160
-474.274	-45.280	0.127	-0.064
-473.259	3.559	-0.390	-0.287
-472.245	148.908	-0.021	-0.029
-471.230	-59.405	0.545	0.237
-470.216	800.000	0.036	-0.103
-469.201	800.000	0.025	0.104
-468.186	-6.344	0.251	-0.173
-467.172	-159.364	0.293	0.017
-466.157	-4.772	0.030	-0.021
-465.143	-61.061	-0.148	-0.063
-464.128	800.000	0.083	-0.337
-463.113	130.231	-0.159	-0.205
-462.099	181.811	0.119	-0.176
-461.084	-200.000	0.037	0.171
-460.070	-188.355	-0.392	0.005
-459.055	57.018	0.116	-0.114
-458.040	-179.743	-0.547	-0.012
-457.026	-80.842	-0.155	0.052
-456.011	-8.531	0.157	0.106
-454.997	-62.668	0.393	-0.165
-453.982	-63.956	0.066	-0.027
-452.968	348.479	-0.181	-0.361
-451.953	288.777	-0.082	-0.150
-450.938	331.108	-0.147	-0.287
-449.924	-148.413	-0.112	0.009
-448.909	71.421	-0.092	-0.097
-447.895	-53.288	0.250	-0.116
-446.880	1.797	0.210	-0.153
-445.865	-80.050	0.163	-0.055
-444.851	-160.841	0.294	0.016
-443.836	800.000	-0.003	0.013
-442.822	-10.617	-0.182	-0.122
-441.807	-49.661	0.258	-0.124
-440.792	-200.000	0.012	-0.091
-439.778	-176.541	0.276	-0.007
-438.763	308.448	-0.147	0.277
-437.749	-4.731	-0.152	-0.106
-436.734	23.675	0.351	0.292
-435.719	-23.304	0.215	-0.130
-434.705	800.000	-0.030	0.113
-433.690	306.873	-0.099	-0.186
-432.676	110.549	0.149	0.180
-431.661	38.599	0.049	0.044
-430.646	-142.130	-0.422	0.042
-429.632	-117.995	0.447	-0.081
-428.617	800.000	-0.054	0.209
-427.603	-186.340	-0.208	-0.003
-426.588	-88.108	-0.004	0.001
-425.573	256.838	-0.227	-0.393
-424.559	-15.531	0.195	-0.126
-423.544	-125.907	-0.179	-0.027
-422.530	800.000	0.063	0.185
-421.515	-200.000	0.000	-0.266
-420.500	433.993	-0.126	-0.275
-419.486	800.000	-0.125	0.351
-418.471	-200.000	-0.001	0.163
-417.457	800.000	-0.044	-0.186
-416.442	474.656	-0.134	0.304
-415.428	-66.178	-0.208	-0.083
-414.413	179.501	0.088	-0.130
-413.398	549.972	0.049	-0.119
-412.384	-89.063	-0.128	-0.038
-411.369	93.871	-0.203	-0.232
-410.355	-8.144	0.166	0.113
-409.340	-111.931	0.334	0.068
-408.325	310.670	0.060	-0.114
-407.311	1.695	0.176	-0.128
-406.296	-180.646	0.160	-0.003
-405.282	-8.844	-0.122	0.083
-404.267	44.055	0.138	0.127
-403.252	52.006	-0.038	0.037
-402.238	371.702	-0.007	-0.014
-401.223	26.743	-0.223	-0.188
-400.209	45.717	-0.059	-0.055
-399.194	-115.869	0.096	-0.018
-398.179	-200.000	-0.039	-0.192
-397.165	8.984	0.322	0.245
-396.150	800.000	0.042	0.150
-395.136	66.801	-0.033	0.033
-394.121	440.037	-0.113	0.248
-393.106	-136.522	0.337	0.039
-392.092	123.045	-0.208	0.262
-391.077	72.924	-0.050	0.053
-390.063	-52.346	-0.212	-0.099
-389.048	800.000	-0.094	-0.265
-388.033	-107.936	-0.157	0.034
-387.019	234.822	-0.107	-0.178
-386.004	-200.000	0.058	0.303
-384.990	176.262	-0.103	-0.151
-383.975	800.000	0.018	0.062
-382.960	37.949	-0.453	-0.406
-381.946	266.011	0.185	0.326
-380.931	-92.694	0.571	0.161
-379.917	226.561	-0.096	-0.156
-378.902	-31.932	-0.181	-0.102
-377.888	-120.976	0.306	0.052
-376.873	82.974	0.214	0.234
-375.858	21.605	0.106	0.086
-374.844	800.000	-0.162	0.482
-373.829	-95.305	-0.484	0.131
-372.815	-63.843	0.424	-0.175
-371.800	800.000	0.083	0.232
-370.785	800.000	-0.074	0.211
-369.771	466.726	0.047	0.106
-368.756	-4.340	-0.102	0.071
-367.742	-108.943	-0.403	0.086
-366.727	-11.065	-0.125	0.083
-365.712	239.192	-0.243	0.407
-364.698	-174.543	0.364	0.010
-363.683	-121.381	-0.153	0.026
-362.669	-143.384	0.582	-0.056
-361.654	800.000	-0.013	-0.054
-360.639	-95.919	0.317	-0.085
-359.625	292.916	0.116	-0.213
-358.610	283.326	-0.218	-0.393
-357.596	-39.333	-0.344	-0.182
-356.581	638.901	0.078	-0.200
-355.566	291.954	-0.105	-0.193
-354.552	154.626	-0.244	0.338
-353.537	80.445	-0.105	-0.114
-352.523	501.899	-0.072	0.168
-351.508	-94.243	0.425	-0.117
-350.493	269.823	-0.030	0.052
-349.479	-75.159	0.263	-0.094
-348.464	-200.000	-0.002	0.422
-347.450	-174.027	-0.363	-0.011
-346.435	16.413	-0.063	0.050
-345.420	-200.000	0.044	0.440
-344.406	608.941	-0.023	0.059
-343.391	800.000	0.106	-0.346
-342.377	-49.255	-0.326	-0.156
-341.362	-81.344	0.132	0.044
-340.348	-200.000	-0.005	0.146
-339.333	9.844	0.119	-0.091
-338.318	-117.116	-0.151	-0.028
-337.304	-31.702	-0.256	0.144
-336.289	332.659	-0.090	-0.175
-335.275	-200.000	-0.053	0.238
-334.260	300.053	0.157	0.292
-333.245	-64.940	-0.104	0.042
-332.231	-200.000	0.004	-0.028
-331.216	-46.454	-0.066	-0.033
-330.202	31.740	-0.342	-0.295
-329.187	800.000	-0.021	-0.078
-328.172	-44.572	-0.232	-0.116
-327.158	800.000	0.091	-0.383
-326.143	-200.000	-0.012	0.113
-325.129	-54.778	0.202	-0.091
-324.114	800.000	0.098	0.301
-323.099	-22.289	0.262	-0.159
-322.085	60.734	-0.151	0.150
-321.070	64.260	0.183	-0.185
-320.056	-191.379	0.358	0.004
-319.041	-16.841	0.193	-0.123
-318.026	-153.459	-0.092	-0.006
-317.012	-180.462	-0.123	-0.003
-315.997	-35.247	0.562	0.307
-314.983	-116.579	-0.354	0.066
-313.968	-151.046	0.307	-0.023
-312.953	114.020	0.226	0.275
-311.939	64.125	0.256	0.258
-310.924	-118.661	-0.233	-0.041
-309.910	-19.804	-0.106	-0.066
-308.895	-65.670	0.096	0.039
-307.880	-200.000	0.062	0.400
-306.866	-86.239	-0.090	-0.028
-305.851	-200.000	0.025	-0.110
-304.837	-200.000	-0.074	-0.461
-303.822	-2.587	0.192	0.135
-302.807	149.963	0.115	0.156
-301.793	-77.348	-0.218	-0.076
-300.778	-156.781	0.269	-0.017
-299.764	-26.354	0.055	0.033
-298.749	-200.000	-0.073	-0.384
-297.735	-47.300	0.125	-0.061
-296.720	-132.113	-0.296	0.039
-295.705	8.277	0.354	-0.267
-294.691	596.472	-0.113	-0.280
-293.676	628.533	-0.082	0.207
-292.662	-47.633	-0.255	-0.124
-291.647	-102.011	-0.146	-0.035
-290.632	-200.000	0.001	-0.249
-289.618	98.671	-0.035	0.041
-288.603	235.439	0.080	0.132
-287.589	800.000	0.042	0.120
-286.574	-161.736	0.085	-0.004
-285.559	-200.000	-0.036	-0.364
-284.545	24.045	0.199	0.165
-283.530	-200.000	-0.006	0.268
-282.516	-45.300	0.202	0.100
-281.501	329.227	0.069	0.132
-280.486	-154.164	0.087	0.006
-279.472	1.164	-0.375	-0.270
-278.457	244.607	0.153	-0.258
-277.443	800.000	-0.058	0.225
-276.428	-124.738	0.555	0.086
-275.413	-200.000	-0.005	0.175
-274.399	18.017	0.134	0.107
-273.384	86.809	0.266	0.295
-272.370	800.000	-0.027	0.111
-271.355	-200.000	-0.043	-0.247
-270.340	-71.094	-0.167	0.063
-269.326	800.000	0.032	-0.104
-268.311	-200.000	0.015	-0.199
-267.297	44.239	-0.184	-0.169
-266.282	-130.974	-0.454	-0.061
-265.267	-20.698	0.175	-0.108
-264.253	-71.602	-0.297	0.111
-263.238	-44.271	0.186	-0.094
-262.224	-200.000	0.009	-0.040
-261.209	-77.793	-0.087	0.030
-260.195	-49.354	0.098	0.047
-259.180	55.994	0.220	0.214
-258.165	800.000	-0.063	0.175
-257.151	-134.833	-0.299	0.036
-256.136	-200.000	-0.013	0.135
-255.122	-200.000	0.002	-0.114
-254.107	255.883	0.233	-0.401
-253.092	-200.000	-0.008	0.060
-252.078	-200.000	-0.024	0.260
-251.063	-200.000	0.006	0.037
-250.049	326.036	0.016	0.031
-249.034	-22.235	-0.279	0.169
-248.019	668.703	0.040	0.104
-247.005	-88.747	0.331	0.098
-245.990	116.668	-0.019	-0.023
-244.976	158.354	-0.268	0.372
-243.961	-49.028	-0.122	-0.059
-242.946	704.669	-0.151	0.398
-241.932	-88.408	-0.193	-0.058
-240.917	-140.718	-0.064	-0.007
-239.903	-52.990	0.084	-0.039
-238.888	107.020	-0.243	-0.289
-237.873	72.678	-0.155	-0.162
-236.859	-200.000	0.013	0.211
-235.844	-38.300	0.275	0.146
-234.830	-159.852	-0.234	0.013
-233.815	-200.000	0.008	-0.396
-232.800	-24.872	-0.242	0.144
-231.786	800.000	-0.039	-0.124
-230.771	-200.000	-0.031	0.160
-229.757	190.458	0.271	-0.407
-228.742	-200.000	0.010	-0.087
-227.727	230.085	-0.105	0.171
-226.713	-162.795	-0.317	-0.015
-225.698	-77.044	0.303	0.106
-224.684	-102.527	-0.112	-0.027
-223.669	40.748	0.169	-0.152
-222.655	-112.199	0.172	0.035
-221.640	117.057	0.016	0.020
-220.625	13.875	0.112	-0.087
-219.611	800.000	0.086	0.360
-218.596	-84.673	0.217	0.068
-217.582	396.987	0.139	-0.290
-216.567	-40.381	-0.212	-0.110
-215.552	-200.000	0.050	0.383
-214.538	-126.561	-0.226	-0.034
-213.523	184.559	0.144	-0.213
-212.509	-200.000	-0.003	0.169
-211.494	698.707	-0.027	0.072
-210.479	529.055	-0.145	0.341
-209.465	-70.253	0.389	0.148
-208.450	36.108	-0.105	0.092
-207.436	-200.000	-0.003	-0.182
-206.421	341.855	0.123	0.241
-205.406	587.546	0.046	0.112
-204.392	-26.750	-0.181	0.106
-203.377	149.632	0.157	0.213
-202.363	1.718	-0.176	-0.127
-201.348	-200.000	-0.046	0.302
-200.333	90.390	-0.055	-0.062
-199.319	800.000	-0.035	0.151
-198.304	217.706	-0.213	0.340
-197.290	-32.849	0.070	0.039
-196.275	-8.226	0.216	-0.145
-195.260	-164.891	-0.261	0.012
-194.246	-7.116	0.103	0.070
-193.231	800.000	0.098	-0.326
-192.217	-200.000	0.018	0.113
-191.202	-76.948	-0.231	0.081
-190.187	-101.197	0.108	-0.026
-189.173	62.597	-0.093	0.093
-188.158	-200.000	-0.044	0.000
-187.144	-200.000	0.014	0.123
-186.129	-17.167	-0.125	-0.079
-185.114	-200.000	0.005	-0.080
-184.100	800.000	0.078	0.334
-183.085	10.564	-0.196	0.150
-182.071	-138.787	-0.088	-0.010
-181.056	-200.000	0.012	0.226
-180.042	82.158	0.090	-0.098
-179.027	-86.547	0.387	0.119
-178.012	84.991	0.240	-0.263
-176.998	103.624	0.086	0.101
-175.983	-129.668	0.128	0.018
-174.969	-157.132	-0.245	-0.015
-173.954	4.183	-0.235	0.172
-172.939	800.000	0.044	-0.167
-171.925	-48.244	-0.247	0.119
-170.910	-200.000	-0.003	-0.058
-169.896	-132.730	0.322	-0.041
-168.881	101.417	-0.223	0.259
-167.866	-75.758	0.237	0.084
-166.852	-142.962	-0.115	0.011
-165.837	276.728	-0.125	-0.222
-164.823	12.603	-0.068	0.052
-163.808	800.000	-0.054	0.187
-162.793	290.337	-0.104	0.189
-161.779	-200.000	0.045	-0.211
-160.764	143.700	-0.151	-0.201
-159.750	338.292	-0.092	-0.178
-158.735	103.368	-0.255	-0.299
-157.720	-110.226	0.093	-0.019
-156.706	-62.152	-0.127	0.053
-155.691	79.395	-0.064	-0.069
-154.677	-200.000	0.003	0.299
-153.662	721.727	0.011	-0.029
-152.647	-200.000	-0.043	-0.204
-151.633	13.004	-0.203	-0.156
-150.618	-118.498	0.235	-0.042
-149.604	-200.000	-0.015	-0.456
-148.589	-10.107	0.046	0.031
-147.574	485.100	0.083	0.188
-146.560	-200.000	-0.021	0.196
-145.545	33.325	-0.181	0.156
-144.531	-98.870	0.356	-0.090
-143.516	-200.000	-0.015	-0.248
-142.502	26.114	0.076	-0.064
-141.487	615.330	0.057	-0.144
-140.472	372.457	0.122	-0.246
-139.458	800.000	-0.108	-0.428
-138.443	5.335	-0.168	0.124
-137.429	-58.961	-0.030	0.013
-136.414	-5.506	0.191	-0.131
-135.399	307.320	-0.026	-0.048
-134.385	800.000	0.100	-0.337
-133.370	-36.653	-0.110	0.059
-132.356	-91.295	0.251	-0.072
-131.341	-200.000	-0.025	-0.256
-130.326	44.228	0.066	-0.061
-129.312	-158.252	-0.183	0.011
-128.297	-132.221	-0.173	-0.022
-127.283	-18.679	0.226	0.141
-126.268	-200.000	0.021	0.098
-125.253	-200.000	0.010	0.397
-124.239	66.546	-0.273	-0.277
-123.224	23.957	0.148	0.121
-122.210	-200.000	0.019	-0.301
-121.195	-74.661	0.128	0.046
-120.180	94.687	-0.122	0.138
-119.166	-22.265	0.267	0.161
-118.151	-58.601	0.123	0.053
-117.137	75.288	-0.208	-0.218
-116.122	191.408	0.048	0.071
-115.107	-154.142	-0.315	-0.021
-114.093	-31.190	0.034	-0.019
-113.078	-155.171	0.241	0.016
-112.064	-95.056	-0.304	0.082
-111.049	188.552	0.172	-0.257
-110.034	-200.000	0.018	0.234
-109.020	252.223	0.104	0.176
-108.005	59.959	0.173	0.170
-106.991	17.492	0.027	0.022
-105.976	-166.394	0.228	-0.010
-104.962	257.924	-0.049	0.083
-103.947	-200.000	-0.076	0.405
-102.932	425.463	-0.089	-0.190
-101.918	11.361	-0.281	0.214
-100.903	-200.000	-0.002	-0.030
-99.889	-46.152	-0.183	0.090
-98.874	73.897	-0.089	0.093
-97.859	90.356	-0.204	-0.227
-96.845	6.990	0.082	0.061
-95.830	-145.284	0.233	-0.021
-94.816	-116.736	-0.150	0.027
-93.801	-98.824	-0.376	0.095
-92.786	-96.434	0.251	-0.066
-91.772	-200.000	0.024	0.195
-90.757	-65.517	-0.185	0.074
-89.743	119.647	0.131	-0.162
-88.728	31.252	-0.221	-0.188
-87.713	67.432	-0.035	-0.035
-86.699	-7.528	0.351	-0.236
-85.684	-48.557	0.354	0.169
-84.670	94.412	-0.183	0.207
-83.655	800.000	0.078	-0.310
-82.640	74.048	0.277	-0.289
-81.626	-100.909	0.064	0.016
-80.611	-27.276	-0.075	0.043
-79.597	494.136	0.148	0.338
-78.582	800.000	0.143	-0.482
-77.567	-11.806	-0.208	-0.136
-76.553	373.233	0.095	0.192
-75.538	-50.081	0.297	-0.140
-74.524	-92.627	-0.042	-0.012
-73.509	10.186	0.203	-0.153
-72.494	-200.000	-0.017	0.231
-71.480	152.560	-0.086	-0.116
-70.465	-40.528	-0.339	0.175
-69.451	63.410	-0.233	0.232
-68.436	293.712	-0.092	-0.166
-67.422	-200.000	0.057	0.391
-66.407	-139.604	0.285	0.030
-65.392	-190.459	0.320	-0.003
-64.378	437.308	-0.026	0.057
-63.363	800.000	0.092	0.322
-62.349	800.000	-0.022	-0.068
-61.334	99.269	-0.836	-0.961
-60.319	78.358	0.215	0.229
-59.305	250.782	-0.494	-0.834
-58.290	-200.000	0.189	0.842
-57.276	800.000	0.403	1.531
-56.261	-200.000	81.672	500.397
-55.246	517.243	1334.790	3102.930
-54.232	149.814	2558.655	3447.446
-53.217	106.060	2349.802	2765.103
-52.203	46.156	2094.730	1928.295
-51.188	41.505	2002.425	1801.392
-50.173	39.826	1982.761	1768.611
-49.159	52.103	2025.087	1917.685
-48.144	56.193	2045.701	1974.187
-47.130	42.282	2008.049	1813.195
-46.115	39.808	1995.842	1779.832
-45.100	39.626	1993.026	1775.613
-44.086	39.591	1991.004	1773.421
-43.071	39.587	1989.037	1771.564
-42.057	39.488	1986.961	1768.756
-41.042	39.482	1985.080	1766.954
-40.027	39.561	1982.461	1765.264
-39.013	39.675	1980.406	1764.386
-37.998	39.610	1978.980	1762.459
-36.984	39.613	1977.445	1761.054
-35.969	39.608	1975.435	1759.144
-34.954	39.629	1973.658	1757.684
-33.940	39.636	1972.416	1756.573
-32.925	39.668	1970.644	1755.203
-31.911	39.695	1968.731	1753.677
-30.896	39.647	1967.700	1752.261
-29.881	39.641	1965.986	1750.612
-28.867	39.699	1964.526	1749.751
-27.852	39.690	1962.851	1748.113
-26.838	39.753	1960.051	1746.104
-25.823	39.804	1958.069	1744.721
-24.809	39.742	1956.446	1742.663
-23.794	39.675	1955.128	1740.821
-22.779	39.767	1952.953	1739.630
-21.765	39.696	1951.104	1737.293
-20.750	39.685	1949.596	1735.784
-19.736	39.704	1948.447	1734.855
-18.721	39.623	1946.932	1732.729
-17.706	39.662	1945.100	1731.366
-16.692	39.689	1943.198	1729.841
-15.677	39.710	1941.236	1728.214
-14.663	39.711	1939.875	1726.943
-13.648	39.700	1939.077	1726.070
-12.633	39.707	1937.777	1724.903
-11.619	39.707	1936.735	1723.903
-10.604	39.672	1935.218	1722.179
-9.590	39.650	1934.093	1720.917
-8.575	39.685	1932.542	1719.777
-7.560	39.648	1931.283	1718.271
-6.546	39.671	1929.961	1717.220
-5.531	39.621	1928.569	1715.477
-4.517	39.667	1926.845	1714.282
-3.502	39.676	1925.837	1713.394
-2.487	39.655	1924.613	1712.057
-1.473	39.641	1923.873	1711.206
-0.458	39.718	1918.921	1707.397
0.556	38.683	1898.523	1675.098
1.571	33.740	1876.390	1613.529
2.586	29.005	1895.654	1589.165
3.600	27.511	1931.967	1606.302
4.615	26.751	1928.274	1596.403
5.629	20.288	1825.477	1457.081
6.644	8.485	1698.411	1262.796
7.659	2.085	1655.402	1181.310
8.673	1.467	1651.687	1173.781
9.688	1.361	1650.565	1172.061
10.702	1.298	1649.015	1170.372
11.717	1.264	1645.693	1167.649
12.731	1.666	1645.007	1170.147
13.746	8.780	1663.056	1238.028
14.761	19.634	1686.724	1340.189
15.775	24.692	1695.606	1386.461
16.790	25.372	1696.526	1392.364
17.804	25.495	1695.728	1392.544
18.819	25.470	1695.034	1391.656
19.834	25.722	1694.737	1393.234
20.848	25.908	1693.577	1393.595
21.863	25.862	1693.187	1392.801
22.877	25.884	1692.048	1391.909
23.892	25.944	1690.326	1390.832
24.907	25.933	1689.969	1390.330
25.921	25.890	1689.289	1389.314
26.936	25.962	1687.867	1388.576
27.950	25.933	1686.981	1387.503
28.965	25.951	1686.314	1386.972
29.980	25.966	1685.432	1386.239
30.994	25.962	1684.364	1385.209
32.009	25.890	1682.982	1383.394
33.023	25.907	1681.998	1382.593
34.038	25.915	1681.035	1381.740
35.053	26.018	1679.929	1381.500
36.067	26.042	1678.806	1380.637
37.082	25.990	1677.816	1379.299
38.096	25.980	1676.955	1378.398
39.111	25.982	1676.423	1377.851
40.126	25.977	1675.832	1377.203
41.140	25.953	1674.558	1375.856
42.155	25.934	1673.467	1374.687
43.169	25.990	1672.387	1374.106
44.184	25.959	1671.382	1372.927
45.199	25.950	1670.446	1371.966
46.213	25.900	1669.353	1370.564
47.228	25.903	1668.407	1369.693
48.242	25.899	1667.618	1368.891
49.257	25.900	1666.353	1367.738
50.271	25.906	1664.807	1366.395
51.286	25.928	1663.612	1365.462
52.301	25.906	1662.645	1364.380
53.315	25.861	1661.095	1362.648
54.330	25.921	1659.574	1361.734
55.344	25.984	1658.206	1360.967
56.359	25.971	1656.790	1359.583
57.374	25.934	1655.710	1358.301
58.388	25.891	1655.096	1357.352
59.403	25.893	1653.638	1356.053
60.417	25.973	1652.583	1355.665
61.432	25.933	1651.726	1354.540
62.447	25.900	1650.725	1353.354
63.461	25.876	1650.034	1352.487
64.476	25.963	1649.013	1352.185
65.490	25.990	1647.713	1351.198
66.505	25.979	1646.587	1350.075
67.520	25.972	1645.892	1349.331
68.534	25.962	1644.644	1348.114
69.549	26.015	1643.048	1347.086
70.563	25.965	1642.261	1345.947
71.578	25.950	1640.855	1344.562
72.593	25.960	1640.156	1343.949
73.607	26.012	1639.229	1343.453
74.622	26.050	1638.177	1342.754
75.636	25.903	1637.540	1341.022
76.651	26.043	1636.867	1341.395
77.666	26.008	1636.250	1340.512
78.680	26.001	1635.162	1339.446
79.695	26.026	1634.110	1338.650
80.709	26.065	1632.840	1337.786
81.724	25.969	1632.403	1336.596
82.739	26.012	1631.784	1336.289
83.753	25.953	1630.665	1334.815
84.768	26.011	1629.556	1334.221
85.782	25.935	1629.265	1333.303
86.797	25.956	1628.225	1332.488
87.812	25.990	1627.339	1331.897
88.826	25.993	1626.587	1331.183
89.841	25.901	1625.703	1329.662
90.855	25.965	1624.351	1328.912
91.870	25.985	1623.184	1327.990
92.884	25.985	1622.358	1327.196
93.899	26.003	1621.669	1326.643
94.914	26.048	1620.194	1325.653
95.928	26.038	1619.135	1324.599
96.943	26.022	1617.805	1323.270
97.957	26.085	1616.202	1322.304
98.972	26.029	1615.022	1320.813
99.987	26.047	1614.321	1320.252
101.001	25.934	1612.704	1317.986
102.016	25.929	1611.329	1316.713
103.030	25.916	1609.943	1315.370
104.045	25.977	1608.552	1314.563
105.060	25.962	1607.456	1313.437
106.074	26.077	1606.350	1313.254
107.089	26.066	1605.013	1311.967
108.103	26.072	1603.982	1311.051
109.118	26.043	1602.718	1309.690
110.133	26.061	1601.399	1308.626
111.147	26.047	1600.351	1307.553
112.162	26.055	1599.793	1307.046
113.176	26.117	1598.132	1306.018
114.191	26.096	1596.910	1304.752
115.206	26.156	1595.657	1304.049
116.220	26.070	1595.152	1302.898
117.235	26.103	1593.351	1301.551
118.249	26.011	1592.255	1299.876
119.264	25.977	1591.369	1298.791
120.279	26.062	1590.159	1298.300
121.293	26.015	1588.983	1296.888
122.308	26.077	1587.687	1296.164
123.322	26.088	1586.636	1295.269
124.337	26.090	1585.477	1294.221
125.352	26.114	1584.275	1293.300
126.366	26.107	1583.122	1292.192
127.381	26.056	1582.380	1291.108
128.395	26.097	1581.578	1290.633
129.410	26.191	1580.296	1290.143
130.424	26.162	1579.144	1288.879
131.439	26.107	1578.350	1287.726
132.454	26.058	1577.159	1286.293
133.468	26.159	1575.596	1285.626
134.483	26.038	1574.624	1283.855
135.497	26.104	1573.150	1283.006
136.512	26.114	1571.984	1282.015
137.527	26.173	1571.164	1281.652
138.541	26.026	1569.999	1279.543
139.556	26.195	1568.573	1279.467
140.570	26.115	1567.392	1277.823
141.585	26.127	1565.980	1276.645
142.600	26.205	1564.976	1276.263
143.614	26.127	1564.079	1274.872
144.629	26.079	1562.783	1273.363
145.643	26.237	1561.507	1273.321
146.658	26.129	1560.825	1271.892
147.673	26.050	1559.510	1270.156
148.687	26.071	1557.861	1268.847
149.702	26.159	1557.039	1268.681
150.716	26.108	1555.786	1267.188
151.731	26.060	1554.684	1265.846
152.746	26.096	1553.529	1265.048
153.760	26.141	1552.326	1264.265
154.775	26.143	1551.291	1263.328
155.789	26.160	1550.450	1262.651
156.804	26.200	1549.118	1261.735
157.819	26.163	1548.247	1260.656
158.833	26.161	1547.477	1259.901
159.848	26.178	1546.297	1258.945
160.862	26.183	1545.384	1258.128
161.877	26.181	1544.359	1257.170
162.892	26.229	1543.513	1256.700
163.906	26.243	1542.523	1255.885
164.921	26.260	1541.335	1254.924
165.935	26.216	1540.443	1253.776
166.950	26.251	1539.535	1253.168
167.964	26.204	1539.010	1252.309
168.979	26.271	1537.612	1251.525
169.994	26.177	1536.989	1250.256
171.008	26.243	1535.921	1249.728
172.023	26.215	1535.348	1248.962
173.037	26.310	1533.972	1248.388
174.052	26.199	1533.108	1246.805
175.067	26.216	1532.293	1246.151
176.081	26.226	1531.508	1245.473
177.096	26.269	1530.123	1244.534
178.110	26.266	1528.920	1243.426
179.125	26.210	1528.377	1242.487
180.140	26.235	1527.156	1241.558
181.154	26.347	1526.200	1241.439
182.169	26.290	1525.611	1240.455
183.183	26.339	1524.264	1239.590
184.198	26.346	1523.646	1239.025
185.213	26.246	1522.921	1237.640
186.227	26.287	1521.680	1236.801
187.242	26.415	1521.224	1237.197
188.256	26.389	1519.974	1235.894
189.271	26.316	1519.185	1234.643
190.286	26.392	1518.112	1234.179
191.300	26.458	1517.128	1233.725
192.315	26.346	1517.044	1232.780
193.329	26.359	1515.656	1231.631
194.344	26.379	1514.480	1230.704
195.359	26.411	1514.047	1230.458
196.373	26.422	1513.386	1229.892
197.388	26.428	1512.011	1228.706
198.402	26.349	1511.389	1227.553
199.417	26.315	1510.433	1226.437
200.432	26.289	1510.225	1225.984
201.446	26.300	1509.292	1225.196
202.461	26.292	1508.333	1224.253
203.475	26.359	1506.910	1223.441
204.490	26.398	1506.117	1222.951
205.504	26.379	1505.624	1222.321
206.519	26.329	1505.056	1221.409
207.534	26.336	1503.995	1220.489
208.548	26.408	1503.247	1220.259
209.563	26.387	1502.009	1219.006
210.577	26.313	1501.266	1217.793
211.592	26.435	1500.565	1217.939
212.607	26.397	1499.712	1216.887
213.621	26.434	1499.312	1216.699
214.636	26.454	1498.420	1216.003
215.650	26.521	1497.590	1215.672
216.665	26.500	1496.467	1214.513
217.680	26.458	1495.979	1213.728
218.694	26.466	1495.327	1213.143
219.709	26.495	1494.089	1212.225
220.723	26.500	1493.241	1211.465
221.738	26.554	1492.669	1211.253
222.753	26.417	1491.844	1209.563
223.767	26.418	1491.090	1208.852
224.782	26.443	1490.272	1208.246
225.796	26.505	1489.308	1207.772
226.811	26.570	1488.395	1207.360
227.826	26.606	1488.001	1207.174
228.840	26.439	1487.327	1205.405
229.855	26.535	1486.418	1205.205
230.869	26.517	1485.728	1204.420
231.884	26.467	1484.658	1203.111
232.899	26.525	1483.485	1202.436
233.913	26.544	1482.154	1201.383
234.928	26.503	1481.362	1200.356
235.942	26.537	1480.448	1199.739
236.957	26.622	1479.365	1199.317
237.972	26.684	1478.260	1198.724
238.986	26.642	1477.464	1197.695
240.001	26.644	1476.221	1196.593
241.015	26.643	1475.669	1196.036
242.030	26.629	1474.684	1195.040
243.045	26.700	1473.762	1194.657
244.059	26.697	1472.729	1193.692
245.074	26.698	1472.174	1193.144
246.088	26.730	1471.397	1192.617
247.103	26.670	1470.445	1191.345
248.117	26.825	1469.522	1191.512
249.132	26.725	1468.863	1190.214
250.147	26.682	1468.587	1189.606
251.161	26.758	1467.734	1189.309
252.176	26.803	1466.927	1188.842
253.190	26.813	1466.285	1188.283
254.205	26.753	1465.469	1187.125
255.220	26.801	1464.655	1186.674
256.234	26.817	1464.040	1186.173
257.249	26.786	1462.884	1184.930
258.263	26.805	1462.401	1184.556
259.278	26.903	1461.246	1184.158
260.293	26.887	1460.421	1183.281
261.307	26.790	1460.003	1182.201
262.322	26.830	1459.710	1182.122
263.336	26.884	1458.861	1181.681
264.351	26.940	1457.304	1180.678
265.366	26.766	1457.043	1179.230
266.380	26.864	1455.842	1178.794
267.395	26.955	1454.728	1178.376
268.409	26.810	1454.458	1177.115
269.424	26.898	1453.028	1176.420
270.439	26.884	1452.390	1175.713
271.453	26.923	1451.194	1174.889
272.468	26.928	1450.820	1174.515
273.482	26.870	1450.197	1173.531
274.497	26.891	1449.531	1173.025
275.512	26.947	1448.670	1172.588
276.526	26.978	1447.525	1171.756
277.541	27.089	1446.714	1171.712
278.555	27.057	1446.184	1170.976
279.570	26.934	1445.761	1169.732
280.585	26.960	1444.546	1168.813
281.599	26.924	1443.859	1167.927
282.614	26.987	1442.679	1167.272
283.628	26.960	1441.392	1165.955
284.643	26.987	1440.669	1165.438
285.657	26.990	1440.089	1164.886
286.672	26.956	1438.980	1163.670
287.687	26.942	1438.307	1162.932
288.701	26.966	1437.609	1162.419
289.716	27.073	1436.878	1162.408
290.730	27.153	1436.219	1162.283
291.745	27.143	1434.837	1160.997
292.760	27.124	1434.459	1160.471
293.774	26.973	1433.763	1158.837
294.789	27.145	1432.333	1158.675
295.803	27.132	1431.971	1158.198
296.818	27.075	1431.206	1157.116
297.833	27.215	1429.767	1156.740
298.847	27.095	1429.630	1155.764
299.862	27.164	1428.644	1155.303
300.876	27.225	1427.552	1154.707
301.891	27.132	1426.899	1153.483
302.906	27.262	1426.059	1153.529
303.920	27.259	1425.621	1153.051
304.935	27.275	1425.078	1152.613
305.949	27.331	1423.999	1151.994
306.964	27.318	1422.976	1150.984
307.979	27.209	1422.460	1149.770
308.993	27.387	1421.453	1149.983
310.008	27.297	1421.136	1149.056
311.022	27.239	1419.941	1147.620
312.037	27.210	1419.069	1146.632
313.052	27.287	1418.122	1146.252
314.066	27.246	1417.216	1145.155
315.081	27.333	1416.115	1144.715
316.095	27.353	1415.076	1143.899
317.110	27.269	1414.668	1142.938
318.125	27.249	1414.136	1142.281
319.139	27.373	1413.184	1142.193
320.154	27.363	1411.791	1140.902
321.168	27.374	1411.172	1140.372
322.183	27.478	1409.739	1139.763
323.197	27.494	1409.000	1139.161
324.212	27.397	1408.633	1138.157
325.227	27.369	1408.220	1137.548
326.241	27.457	1406.777	1136.833
327.256	27.484	1405.877	1136.171
328.270	27.557	1405.273	1136.037
329.285	27.555	1404.629	1135.407
330.300	27.490	1404.043	1134.429
331.314	27.409	1403.309	1133.231
332.329	27.446	1402.254	1132.510
333.343	27.504	1401.536	1132.187
334.358	27.505	1401.055	1131.709
335.373	27.652	1399.981	1131.649
336.387	27.711	1399.205	1131.289
337.402	27.605	1398.964	1130.336
338.416	27.607	1398.099	1129.550
339.431	27.679	1397.854	1129.698
340.446	27.722	1397.106	1129.261
341.460	27.674	1396.077	1128.031
342.475	27.671	1395.244	1127.242
343.489	27.778	1394.015	1126.806
344.504	27.642	1393.569	1125.507
345.519	27.735	1392.595	1125.199
346.533	27.729	1391.548	1124.213
347.548	27.724	1390.653	1123.360
348.562	27.700	1389.747	1122.383
349.577	27.720	1389.117	1121.896
350.592	27.714	1388.577	1121.324
351.606	27.790	1387.282	1120.646
352.621	27.725	1386.478	1119.497
353.635	27.614	1386.250	1118.533
354.650	27.820	1384.603	1118.371
355.665	27.736	1384.067	1117.322
356.679	27.722	1383.410	1116.607
357.694	27.823	1382.240	1116.182
358.708	27.855	1381.276	1115.500
359.723	27.814	1380.001	1114.118
360.738	27.784	1379.090	1113.106
361.752	27.814	1377.837	1112.180
362.767	27.861	1376.799	1111.524
363.781	27.902	1375.749	1110.832
364.796	27.860	1375.591	1110.346
365.810	27.904	1374.673	1109.779
366.825	28.010	1373.862	1109.666
367.840	27.858	1373.233	1108.142
368.854	27.930	1372.485	1107.872
369.869	28.004	1371.776	1107.654
370.883	28.004	1371.544	1107.364
371.898	27.901	1370.780	1106.028
372.913	27.960	1370.060	1105.704
373.927	28.028	1369.094	1105.238
374.942	27.935	1368.564	1104.155
375.956	28.026	1367.508	1103.750
376.971	28.019	1367.288	1103.432
377.986	28.020	1366.530	1102.729
379.000	28.046	1365.230	1101.741
380.015	27.982	1364.721	1100.848
381.029	28.128	1364.096	1101.124
382.044	27.955	1363.812	1099.756
383.059	28.001	1362.665	1099.013
384.073	28.009	1362.346	1098.706
385.088	28.090	1361.926	1098.758
386.102	28.121	1361.178	1098.239
387.117	28.091	1360.559	1097.464
388.132	28.134	1359.797	1097.010
389.146	28.137	1359.109	1096.376
390.161	28.186	1358.169	1095.818
391.175	28.233	1357.574	1095.521
392.190	28.156	1357.050	1094.537
393.205	28.197	1356.437	1094.191
394.219	28.056	1355.550	1092.540
395.234	28.234	1354.128	1092.358
396.248	28.185	1353.446	1091.419
397.263	28.285	1352.406	1091.076
398.278	28.369	1351.210	1090.515
399.292	28.185	1350.188	1088.501
400.307	28.315	1349.229	1088.405
401.321	28.387	1348.730	1088.333
402.336	28.360	1347.523	1087.101
403.350	28.298	1346.148	1085.529
404.365	28.253	1345.939	1084.996
405.380	28.295	1345.371	1084.691
406.394	28.455	1344.231	1084.623
407.409	28.429	1343.369	1083.683
408.423	28.441	1342.901	1083.279
409.438	28.499	1341.826	1082.658
410.453	28.518	1341.375	1082.311
411.467	28.426	1340.904	1081.291
412.482	28.546	1340.225	1081.355
413.496	28.510	1339.462	1080.432
414.511	28.536	1338.133	1079.420
415.526	28.537	1337.601	1078.899
416.540	28.603	1337.091	1078.781
417.555	28.538	1336.430	1077.771
418.569	28.465	1336.254	1077.106
419.584	28.501	1335.526	1076.632
420.599	28.644	1334.821	1076.808
421.613	85.629	1336.154	1399.427
422.628	85.641	1336.313	1399.537
