DTS Sentinel unit serial number:	SN413079Multiplexer serial number:	ORYXHardware model number:	OX4-SRSoftware version number:	ORYX F/W v4.00 Oryx Data Collector v3.7.2.0data status	okinstallation	princeton_trtdifferential loss correction	single-endedforward channel	channel 4reverse channel	N/Adate	2019/09/12time	23:37:35forward acquisition time	60.00reverse acquisition time	0.00gamma	496.2192k internal	0.2316k external	0.2316temperature offset calibration	1.0180default loss term (dB/km)	0.3790temperature slope calibration	1.0000multiplexer offset coefficient	1.0000multiplexer slope coefficient	1.0000fibre end	0.00T internal ref (°C)	28.87T ext. ref 1 (°C)	3.77T ext. ref 2 (°C)	23.59length (m)	temperature (°C)	Stokes	anti-Stokes-747.200	-106.249	0.215	0.049
-746.185	-200.000	0.011	0.106
-745.171	765.878	-0.018	-0.050
-744.156	119.776	0.269	0.338
-743.142	-65.599	-0.244	0.099
-742.127	-8.631	0.244	0.166
-741.112	158.103	-0.110	0.154
-740.098	-200.000	0.069	0.465
-739.083	17.515	-0.223	0.180
-738.069	707.881	-0.122	0.328
-737.054	-200.000	0.034	0.218
-736.039	10.571	0.061	-0.047
-735.025	-60.630	-0.254	0.109
-734.010	-20.225	0.102	-0.064
-732.996	-25.135	-0.377	-0.226
-731.981	8.636	-0.206	-0.157
-730.966	-200.000	-0.062	-0.323
-729.952	-141.758	-0.125	-0.013
-728.937	167.299	0.116	-0.167
-727.923	-170.966	0.126	0.004
-726.908	-60.850	-0.068	-0.029
-725.894	-62.335	-0.213	0.090
-724.879	800.000	-0.058	-0.164
-723.864	358.193	0.200	-0.404
-722.850	540.959	-0.253	-0.609
-721.835	-40.127	-0.353	0.186
-720.821	52.879	-0.275	-0.266
-719.806	82.666	-0.038	0.041
-718.791	800.000	0.077	-0.258
-717.777	-25.762	0.126	0.075
-716.762	-45.654	0.337	-0.169
-715.748	-200.000	-0.017	-0.256
-714.733	222.084	0.194	-0.316
-713.718	-122.884	-0.286	0.047
-712.704	128.867	-0.118	-0.153
-711.689	-200.000	-0.014	0.075
-710.675	800.000	-0.036	-0.158
-709.660	755.652	-0.115	0.314
-708.645	17.412	0.329	0.264
-707.631	-117.839	-0.065	0.012
-706.616	-149.368	-0.028	-0.002
-705.602	-123.227	0.297	-0.048
-704.587	-200.000	-0.009	-0.083
-703.572	-71.348	0.264	-0.100
-702.558	-116.339	-0.448	0.084
-701.543	-115.138	0.018	0.003
-700.529	-48.591	0.094	-0.046
-699.514	-200.000	0.008	-0.239
-698.499	800.000	-0.028	0.093
-697.485	800.000	-0.027	0.116
-696.470	61.018	0.137	-0.138
-695.456	330.600	0.062	-0.121
-694.441	800.000	0.035	0.111
-693.426	-5.173	0.177	-0.123
-692.412	75.791	-0.159	-0.170
-691.397	-200.000	0.001	0.025
-690.383	29.513	0.056	-0.048
-689.368	-59.044	-0.133	0.058
-688.354	69.998	-0.197	0.205
-687.339	32.063	-0.079	0.069
-686.324	800.000	-0.090	-0.281
-685.310	298.540	0.029	0.053
-684.295	69.839	0.191	-0.199
-683.281	-200.000	0.001	-0.130
-682.266	343.623	-0.049	-0.097
-681.251	330.273	-0.156	-0.304
-680.237	-200.000	-0.011	-0.180
-679.222	171.382	-0.152	-0.221
-678.208	13.049	-0.088	-0.069
-677.193	-200.000	-0.019	0.107
-676.178	70.883	0.238	-0.249
-675.164	-154.079	-0.126	0.009
-674.149	800.000	0.101	-0.342
-673.135	800.000	-0.080	0.231
-672.120	55.191	-0.104	-0.102
-671.105	-87.227	0.149	0.046
-670.091	724.445	0.065	-0.174
-669.076	-97.423	-0.364	0.096
-668.062	800.000	0.065	-0.242
-667.047	800.000	0.165	-0.576
-666.032	-19.977	-0.184	0.115
-665.018	-83.227	-0.345	0.112
-664.003	-200.000	0.075	0.537
-662.989	-137.780	-0.257	-0.029
-661.974	33.517	-0.402	-0.353
-660.959	-200.000	-0.059	-0.386
-659.945	-24.801	-0.038	-0.023
-658.930	800.000	0.075	-0.322
-657.916	-200.000	-0.039	-0.220
-656.901	321.084	0.194	-0.372
-655.886	677.794	0.117	-0.306
-654.872	-103.984	0.282	-0.066
-653.857	333.609	0.136	-0.265
-652.843	-72.402	-0.229	-0.086
-651.828	549.698	-0.074	-0.180
-650.814	-106.705	0.399	0.089
-649.799	137.914	-0.122	0.162
-648.784	800.000	-0.121	-0.375
-647.770	-17.737	0.260	-0.165
-646.755	787.733	0.112	0.310
-645.741	24.224	0.174	-0.145
-644.726	-102.379	-0.353	0.085
-643.711	149.469	0.141	-0.193
-642.697	-200.000	-0.033	-0.181
-641.682	-200.000	-0.003	-0.087
-640.668	-6.658	0.265	-0.182
-639.653	46.516	-0.112	-0.105
-638.638	355.114	-0.104	-0.209
-637.624	-186.854	0.176	0.002
-636.609	-104.209	0.453	-0.106
-635.595	98.888	0.131	-0.152
-634.580	308.040	0.093	-0.175
-633.565	16.728	-0.334	-0.266
-632.551	-64.014	0.133	-0.055
-631.536	-103.137	-0.331	-0.079
-630.522	-200.000	0.037	-0.179
-629.507	-53.940	0.402	0.185
-628.492	145.681	0.032	0.044
-627.478	-181.673	-0.211	0.004
-626.463	-3.208	-0.187	0.131
-625.449	-67.713	-0.050	0.020
-624.434	249.626	0.092	-0.158
-623.419	-75.836	-0.571	-0.204
-622.405	-157.958	0.216	-0.013
-621.390	-54.760	-0.360	-0.164
-620.376	-50.700	-0.262	-0.124
-619.361	800.000	-0.051	0.216
-618.346	-40.099	-0.306	-0.161
-617.332	-58.043	-0.339	0.149
-616.317	-168.754	0.259	-0.010
-615.303	-185.482	-0.446	-0.007
-614.288	-200.000	-0.009	0.065
-613.273	800.000	-0.034	-0.129
-612.259	-115.798	0.663	-0.125
-611.244	6.309	-0.079	0.059
-610.230	-180.306	-0.221	0.005
-609.215	692.679	0.036	0.096
-608.201	-100.161	-0.133	-0.033
-607.186	-200.000	-0.020	-0.187
-606.171	-165.048	0.091	-0.004
-605.157	-88.250	-0.295	-0.089
-604.142	266.431	-0.103	-0.181
-603.128	-42.787	-0.152	-0.078
-602.113	607.870	0.100	0.252
-601.098	440.889	0.059	0.130
-600.084	153.290	-0.067	0.093
-599.069	-114.315	-0.301	0.058
-598.055	-27.236	0.070	-0.041
-597.040	-105.241	-0.188	-0.043
-596.025	11.760	-0.331	0.256
-595.011	387.383	-0.080	0.166
-593.996	-109.822	0.262	0.055
-592.982	-17.024	0.147	-0.094
-591.967	618.050	0.068	-0.173
-590.952	119.432	-0.198	0.247
-589.938	-200.000	-0.088	0.392
-588.923	-200.000	-0.052	-0.299
-587.909	17.766	0.348	0.279
-586.894	-68.579	-0.051	0.020
-585.879	-11.504	0.083	-0.055
-584.865	800.000	-0.091	0.267
-583.850	218.192	-0.051	-0.083
-582.836	-115.768	0.191	-0.036
-581.821	-200.000	-0.050	-0.433
-580.806	56.957	0.207	-0.203
-579.792	-27.023	-0.161	-0.094
-578.777	8.566	-0.356	-0.270
-577.763	-79.651	0.157	-0.053
-576.748	-200.000	-0.016	-0.135
-575.733	-100.495	0.195	0.049
-574.719	-0.463	-0.158	0.113
-573.704	282.790	0.181	0.327
-572.690	-48.278	0.324	-0.157
-571.675	-200.000	0.003	0.070
-570.661	-50.168	0.279	-0.133
-569.646	-131.778	0.027	0.004
-568.631	-200.000	-0.042	0.352
-567.617	-113.876	0.367	-0.072
-566.602	-175.906	0.239	-0.006
-565.588	461.988	0.063	-0.140
-564.573	-183.329	0.099	0.002
-563.558	-101.384	-0.320	0.078
-562.544	379.992	-0.117	-0.242
-561.529	800.000	0.096	0.297
-560.515	-41.707	0.151	0.078
-559.500	-200.000	-0.018	0.128
-558.485	-80.053	-0.292	0.098
-557.471	-162.369	-0.313	-0.016
-556.456	-131.551	-0.175	-0.023
-555.442	-101.033	0.230	0.057
-554.427	278.407	-0.149	0.268
-553.412	-133.703	-0.389	0.049
-552.398	77.420	-0.154	-0.165
-551.383	-15.938	0.202	-0.129
-550.369	59.361	0.144	0.143
-549.354	-119.353	-0.223	-0.039
-548.339	-117.476	0.377	0.068
-547.325	-10.055	-0.261	-0.174
-546.310	-108.931	0.392	0.084
-545.296	-141.227	0.289	-0.030
-544.281	800.000	0.020	-0.079
-543.266	216.417	-0.123	0.196
-542.252	800.000	0.057	0.185
-541.237	800.000	-0.046	-0.160
-540.223	69.120	-0.157	0.162
-539.208	207.093	-0.110	-0.172
-538.193	-200.000	-0.014	0.127
-537.179	-93.550	0.033	-0.009
-536.164	40.439	-0.115	0.104
-535.150	-129.712	0.260	0.036
-534.135	334.938	-0.152	0.296
-533.121	74.519	-0.180	0.190
-532.106	203.128	0.173	-0.269
-531.091	34.421	0.113	-0.099
-530.077	-85.845	0.043	-0.013
-529.062	-118.591	0.080	0.014
-528.048	782.251	0.158	-0.435
-527.033	800.000	-0.051	-0.174
-526.018	-200.000	0.027	0.158
-525.004	-153.079	0.060	0.004
-523.989	800.000	0.125	-0.365
-522.975	68.395	0.208	-0.214
-521.960	800.000	-0.068	-0.207
-520.945	-94.248	0.316	0.087
-519.931	441.122	0.046	-0.101
-518.916	17.918	-0.223	0.178
-517.902	466.197	-0.135	0.303
-516.887	800.000	0.016	-0.060
-515.872	15.322	-0.332	-0.262
-514.858	-1.440	-0.296	-0.210
-513.843	-105.037	0.283	-0.065
-512.829	-200.000	-0.042	0.209
-511.814	408.763	0.109	0.232
-510.799	-20.615	0.106	-0.065
-509.785	800.000	-0.061	-0.232
-508.770	-19.676	-0.106	0.066
-507.756	440.113	0.071	-0.157
-506.741	98.099	-0.061	-0.070
-505.726	556.409	-0.004	0.009
-504.712	800.000	-0.093	-0.287
-503.697	-156.544	-0.169	-0.011
-502.683	114.624	0.163	-0.199
-501.668	-126.481	0.163	-0.024
-500.653	-200.000	-0.031	0.200
-499.639	-200.000	0.026	-0.248
-498.624	-96.856	-0.253	-0.067
-497.610	-200.000	-0.008	-0.066
-496.595	800.000	-0.090	-0.274
-495.581	13.011	-0.250	0.194
-494.566	183.674	-0.113	0.168
-493.551	-71.762	0.350	0.131
-492.537	70.819	0.091	0.094
-491.522	98.565	-0.028	-0.032
-490.508	-38.691	-0.127	-0.067
-489.493	-133.538	0.248	-0.031
-488.478	80.798	-0.108	-0.117
-487.464	-200.000	0.042	-0.366
-486.449	124.954	0.143	-0.181
-485.435	-200.000	0.032	-0.177
-484.420	-84.055	-0.024	-0.008
-483.405	-109.125	-0.059	-0.013
-482.391	198.994	0.195	0.300
-481.376	337.022	-0.095	-0.185
-480.362	-149.318	0.365	-0.029
-479.347	-200.000	-0.020	0.384
-478.332	291.128	0.105	0.191
-477.318	-67.208	0.109	0.043
-476.303	186.086	-0.092	0.137
-475.289	76.930	0.040	-0.042
-474.274	100.028	0.127	-0.148
-473.259	129.805	-0.036	0.046
-472.245	-89.589	0.545	0.160
-471.230	91.422	0.043	0.049
-470.216	57.729	-0.196	-0.192
-469.201	-157.952	-0.139	-0.008
-468.186	-200.000	0.009	0.180
-467.172	-200.000	-0.003	0.024
-466.157	29.159	0.146	-0.124
-465.143	-200.000	-0.023	0.159
-464.128	-200.000	0.007	-0.241
-463.113	800.000	-0.073	-0.241
-462.099	-16.389	-0.348	0.221
-461.084	-73.601	-0.307	0.112
-460.070	-31.315	0.096	0.054
-459.055	-81.199	0.225	-0.074
-458.040	-114.897	-0.405	-0.077
-457.026	800.000	0.136	0.430
-456.011	-4.827	0.083	-0.058
-454.997	-200.000	-0.049	0.345
-453.982	800.000	-0.094	0.348
-452.968	-27.387	-0.145	-0.085
-451.953	-73.842	0.309	0.113
-450.938	511.240	-0.053	0.124
-449.924	-65.554	0.112	0.045
-448.909	-200.000	-0.044	0.282
-447.895	-140.457	0.114	0.012
-446.880	33.785	-0.117	0.102
-445.865	800.000	0.124	-0.369
-444.851	-136.629	-0.385	0.045
-443.836	-28.879	-0.211	0.122
-442.822	144.470	-0.049	-0.065
-441.807	-70.914	-0.211	-0.080
-440.792	800.000	-0.071	0.246
-439.778	-200.000	0.005	0.075
-438.763	82.956	-0.115	-0.125
-437.749	-20.871	-0.241	-0.148
-436.734	-200.000	-0.060	-0.317
-435.719	129.937	0.205	-0.262
-434.705	-43.006	0.150	-0.076
-433.690	93.934	0.132	-0.150
-432.676	-200.000	-0.037	0.378
-431.661	27.831	0.042	-0.035
-430.646	-0.813	0.041	0.029
-429.632	-81.845	0.258	-0.085
-428.617	800.000	0.028	-0.087
-427.603	800.000	0.132	0.368
-426.588	-200.000	-0.031	-0.334
-425.573	-200.000	-0.007	-0.055
-424.559	-200.000	0.071	0.344
-423.544	800.000	-0.047	0.187
-422.530	-149.887	-0.311	-0.024
-421.515	169.135	-0.254	0.362
-420.500	-22.580	-0.387	0.234
-419.486	-200.000	0.070	0.000
-418.471	-46.590	-0.133	0.065
-417.457	-200.000	-0.005	0.025
-416.442	-61.390	0.253	-0.106
-415.428	-200.000	-0.068	0.377
-414.413	-200.000	0.051	-0.288
-413.398	51.423	-0.035	0.033
-412.384	-5.730	0.102	0.070
-411.369	800.000	-0.117	-0.337
-410.355	-13.516	-0.207	-0.134
-409.340	39.493	0.244	-0.218
-408.325	-95.732	-0.108	-0.029
-407.311	-34.009	-0.112	0.062
-406.296	-45.427	0.143	-0.071
-405.282	-200.000	-0.061	-0.544
-404.267	800.000	-0.062	0.204
-403.252	232.929	-0.078	-0.128
-402.238	68.460	-0.063	-0.064
-401.223	-163.569	-0.032	0.002
-400.209	-90.850	0.026	-0.008
-399.194	17.879	-0.124	-0.099
-398.179	36.360	0.247	-0.217
-397.165	50.566	-0.272	-0.257
-396.150	268.922	-0.213	0.374
-395.136	139.243	-0.084	0.110
-394.121	709.449	0.071	0.189
-393.106	-4.614	-0.399	-0.275
-392.092	22.512	-0.052	-0.042
-391.077	800.000	-0.035	-0.130
-390.063	-63.466	0.471	0.194
-389.048	263.869	-0.079	-0.138
-388.033	21.123	0.103	-0.084
-387.019	79.549	-0.185	-0.198
-386.004	-28.362	-0.279	0.161
-384.990	-73.734	-0.274	-0.100
-383.975	-130.103	0.058	0.008
-382.960	800.000	0.030	0.094
-381.946	-159.579	0.213	0.012
-380.931	-200.000	0.017	0.134
-379.917	15.414	-0.268	-0.210
-378.902	-72.722	0.467	-0.172
-377.888	178.087	-0.111	-0.162
-376.873	-101.721	0.262	0.063
-375.858	-199.647	-0.472	-0.002
-374.844	-165.077	-0.116	-0.005
-373.829	242.949	0.132	-0.221
-372.815	409.297	-0.063	0.132
-371.800	-20.228	0.082	0.051
-370.785	260.569	-0.039	-0.068
-369.771	141.942	-0.188	0.249
-368.756	-200.000	-0.040	-0.178
-367.742	-200.000	-0.117	0.512
-366.727	-200.000	0.016	-0.314
-365.712	-200.000	0.008	-0.180
-364.698	61.814	-0.142	0.141
-363.683	-200.000	-0.055	0.249
-362.669	-200.000	-0.018	-0.137
-361.654	23.760	-0.110	-0.091
-360.639	421.357	0.155	0.333
-359.625	-168.774	0.143	-0.005
-358.610	-200.000	-0.009	0.172
-357.596	-2.285	0.008	-0.006
-356.581	-99.814	0.241	-0.060
-355.566	649.459	-0.016	-0.040
-354.552	-14.349	-0.201	0.129
-353.537	-55.656	0.256	-0.114
-352.523	12.411	0.131	0.101
-351.508	254.575	0.202	-0.344
-350.493	349.079	0.180	-0.354
-349.479	339.738	-0.067	0.131
-348.464	800.000	-0.099	0.345
-347.450	800.000	0.092	0.323
-346.435	486.387	0.056	-0.128
-345.420	17.002	0.093	-0.074
-344.406	151.315	-0.092	0.125
-343.391	800.000	0.067	0.233
-342.377	199.351	0.132	-0.201
-341.362	-33.375	-0.179	0.099
-340.348	-95.819	-0.245	-0.065
-339.333	800.000	-0.025	-0.098
-338.318	33.377	0.103	-0.089
-337.304	202.368	0.197	-0.303
-336.289	-166.127	-0.464	0.020
-335.275	651.816	-0.069	-0.175
-334.260	471.622	-0.079	-0.178
-333.245	-200.000	0.019	0.114
-332.231	415.326	0.138	0.293
-331.216	-5.526	-0.174	0.119
-330.202	413.348	-0.142	-0.301
-329.187	-200.000	0.020	0.156
-328.172	-154.996	0.130	0.009
-327.158	587.311	-0.072	0.177
-326.143	50.434	-0.184	0.173
-325.129	293.872	0.234	0.426
-324.114	-200.000	-0.029	0.316
-323.099	-104.417	-0.129	-0.030
-322.085	-61.143	-0.051	0.021
-321.070	-124.995	-0.294	0.045
-320.056	505.549	0.090	-0.208
-319.041	-39.142	0.089	0.047
-318.026	-22.602	-0.354	0.213
-317.012	-146.743	0.099	-0.008
-315.997	-110.866	0.252	-0.052
-314.983	-200.000	-0.027	-0.253
-313.968	-184.806	-0.352	-0.006
-312.953	800.000	0.079	0.265
-311.939	-198.783	0.278	0.002
-310.924	-63.392	0.200	-0.082
-309.910	-77.108	0.090	-0.031
-308.895	-200.000	0.009	-0.177
-307.880	-10.070	0.193	0.127
-306.866	-70.760	0.566	0.213
-305.851	19.546	-0.099	0.079
-304.837	-100.258	-0.096	0.024
-303.822	-114.881	0.192	-0.036
-302.807	212.316	0.296	-0.465
-301.793	22.210	0.068	-0.056
-300.778	-200.000	0.031	-0.223
-299.764	-200.000	-0.019	-0.286
-298.749	258.410	0.115	-0.198
-297.735	24.421	0.178	-0.146
-296.720	-41.339	0.176	0.090
-295.705	5.895	0.192	0.142
-294.691	800.000	0.089	-0.266
-293.676	800.000	0.096	0.353
-292.662	-115.551	-0.260	0.049
-291.647	-123.298	-0.103	0.016
-290.632	172.151	0.265	-0.379
-289.618	70.384	-0.242	0.248
-288.603	381.863	0.019	0.038
-287.589	-69.443	0.146	0.056
-286.574	317.105	0.057	-0.107
-285.559	84.099	0.265	0.289
-284.545	433.507	0.165	-0.357
-283.530	255.370	0.139	-0.237
-282.516	163.286	0.149	0.209
-281.501	119.432	0.113	0.139
-280.486	211.903	-0.104	-0.163
-279.472	-136.580	-0.102	0.012
-278.457	-26.227	0.059	0.035
-277.443	324.792	-0.071	-0.135
-276.428	133.458	0.080	0.102
-275.413	-200.000	0.018	-0.190
-274.399	-157.698	-0.313	-0.019
-273.384	156.742	-0.106	0.146
-272.370	48.244	-0.063	-0.059
-271.355	800.000	-0.044	0.173
-270.340	-200.000	-0.000	-0.194
-269.326	132.949	-0.130	0.167
-268.311	-200.000	0.032	0.165
-267.297	800.000	-0.052	0.220
-266.282	446.155	0.034	-0.074
-265.267	300.894	-0.175	0.321
-264.253	-93.859	0.270	0.074
-263.238	511.538	-0.044	-0.101
-262.224	-200.000	-0.022	-0.097
-261.209	-41.387	0.532	0.272
-260.195	-135.008	0.219	-0.026
-259.180	-63.031	-0.349	0.143
-258.165	142.018	-0.094	-0.124
-257.151	-70.184	0.183	-0.069
-256.136	-142.167	-0.300	0.030
-255.122	-200.000	0.025	0.434
-254.107	34.720	0.171	0.148
-253.092	-120.223	-0.131	0.022
-252.078	800.000	0.061	0.176
-251.063	107.037	-0.133	0.157
-250.049	-47.681	-0.149	0.072
-249.034	264.225	-0.050	-0.086
-248.019	168.822	-0.055	-0.078
-247.005	6.459	-0.147	0.108
-245.990	26.862	0.100	0.084
-244.976	69.432	0.269	-0.275
-243.961	-200.000	0.009	-0.324
-242.946	186.611	0.103	-0.152
-241.932	-63.640	0.157	0.064
-240.917	144.979	0.089	0.118
-239.903	800.000	0.067	-0.251
-238.888	-200.000	-0.077	-0.376
-237.873	346.889	-0.094	0.185
-236.859	-25.310	0.268	0.158
-235.844	-81.845	-0.046	0.015
-234.830	-139.502	-0.387	0.041
-233.815	-27.086	0.349	-0.202
-232.800	-118.260	0.159	0.028
-231.786	-27.373	0.210	0.122
-230.771	625.064	0.030	0.074
-229.757	184.717	-0.107	-0.157
-228.742	-200.000	0.003	0.114
-227.727	-121.413	0.206	0.034
-226.713	-200.000	0.032	-0.194
-225.698	-129.611	0.478	0.065
-224.684	-116.614	0.292	-0.053
-223.669	-17.212	0.105	-0.066
-222.655	-175.277	0.562	-0.015
-221.640	223.978	0.169	-0.270
-220.625	-144.449	-0.207	-0.019
-219.611	13.918	0.099	0.076
-218.596	159.715	0.032	-0.044
-217.582	-51.365	-0.174	0.081
-216.567	-8.795	-0.329	0.219
-215.552	-1.964	-0.158	0.110
-214.538	366.176	-0.043	0.087
-213.523	70.647	-0.235	0.241
-212.509	181.472	-0.161	0.235
-211.494	137.659	-0.058	-0.076
-210.479	221.047	0.145	0.230
-209.465	-143.106	-0.340	0.033
-208.450	104.375	-0.161	0.188
-207.436	21.777	-0.064	0.052
-206.421	-142.699	0.087	-0.008
-205.406	-200.000	0.049	0.418
-204.392	-4.022	-0.330	0.227
-203.377	83.365	-0.183	0.197
-202.363	220.700	-0.068	0.108
-201.348	-200.000	0.010	0.185
-200.333	-200.000	-0.009	0.346
-199.319	670.672	0.075	0.193
-198.304	-200.000	0.022	-0.122
-197.290	-158.423	0.287	-0.016
-196.275	-118.111	-0.186	-0.033
-195.260	-200.000	0.000	-0.198
-194.246	-200.000	0.092	0.407
-193.231	611.841	-0.085	0.212
-192.217	-56.394	-0.167	-0.073
-191.202	-93.901	0.136	-0.037
-190.187	800.000	0.028	-0.113
-189.173	-101.660	0.211	0.051
-188.158	382.736	-0.084	-0.171
-187.144	-200.000	0.051	-0.234
-186.129	800.000	-0.121	-0.331
-185.114	-200.000	0.004	-0.040
-184.100	47.514	-0.126	-0.116
-183.085	-95.579	-0.213	0.057
-182.071	-146.722	0.158	0.014
-181.056	16.645	-0.072	-0.056
-180.042	-0.149	-0.076	0.053
-179.027	-135.798	0.322	0.038
-178.012	-112.803	0.258	-0.051
-176.998	402.289	0.185	0.386
-175.983	59.409	0.244	-0.238
-174.969	-133.652	-0.162	-0.020
-173.954	117.721	0.192	-0.235
-172.939	800.000	-0.078	-0.253
-171.925	83.108	-0.359	-0.387
-170.910	-200.000	0.024	0.140
-169.896	-200.000	0.051	0.348
-168.881	-86.986	0.123	-0.037
-167.866	208.649	-0.133	0.206
-166.852	-200.000	0.010	-0.127
-165.837	-40.392	-0.170	0.088
-164.823	-96.080	0.132	-0.035
-163.808	277.759	-0.211	-0.373
-162.793	-200.000	0.007	0.261
-161.779	-67.763	-0.227	0.088
-160.764	-200.000	0.039	-0.172
-159.750	-64.291	0.071	-0.029
-158.735	-110.497	-0.269	0.055
-157.720	-115.505	0.121	0.023
-156.706	-200.000	-0.010	0.321
-155.691	-160.996	0.372	0.019
-154.677	-9.378	0.193	-0.128
-153.662	-200.000	-0.038	0.164
-152.647	-153.846	0.158	-0.011
-151.633	-144.636	-0.355	0.032
-150.618	277.467	-0.143	0.252
-149.604	40.148	0.102	-0.091
-148.589	-200.000	-0.058	-0.380
-147.574	800.000	-0.173	-0.593
-146.560	323.252	0.122	-0.229
-145.545	-4.434	-0.239	-0.163
-144.531	800.000	-0.063	-0.187
-143.516	-21.684	0.206	-0.124
-142.502	143.567	-0.143	0.189
-141.487	-94.312	0.207	0.056
-140.472	785.508	-0.077	0.208
-139.458	-200.000	-0.034	-0.198
-138.443	-6.624	-0.272	0.183
-137.429	-45.530	0.107	-0.052
-136.414	168.773	0.095	0.133
-135.399	622.944	-0.089	0.220
-134.385	67.420	0.129	-0.130
-133.370	-38.685	-0.019	0.010
-132.356	-113.625	-0.174	0.034
-131.341	-162.306	0.234	-0.012
-130.326	-30.664	-0.145	0.081
-129.312	800.000	0.061	-0.203
-128.297	108.280	-0.056	-0.067
-127.283	-200.000	0.074	0.381
-126.268	602.272	-0.001	-0.004
-125.253	294.820	0.128	-0.232
-124.239	691.440	0.046	-0.120
-123.224	-200.000	0.023	-0.339
-122.210	-113.440	0.445	-0.086
-121.195	89.409	0.143	-0.158
-120.180	2.525	-0.099	-0.071
-119.166	800.000	0.041	0.119
-118.151	3.546	-0.414	-0.298
-117.137	73.526	0.250	-0.258
-116.122	-200.000	0.012	0.097
-115.107	800.000	-0.100	0.414
-114.093	-15.240	-0.221	0.139
-113.078	74.279	0.057	0.059
-112.064	-55.469	-0.141	-0.062
-111.049	470.651	0.141	0.313
-110.034	187.943	0.236	0.348
-109.020	-117.346	0.201	0.036
-108.005	-60.950	0.251	-0.105
-106.991	88.617	-0.096	-0.105
-105.976	-48.429	0.231	-0.110
-104.962	-200.000	-0.026	-0.387
-103.947	-200.000	0.005	-0.250
-102.932	-135.253	0.177	-0.021
-101.918	-28.160	-0.170	-0.097
-100.903	29.358	0.265	0.222
-99.889	-200.000	0.010	-0.098
-98.874	800.000	-0.068	-0.212
-97.859	-97.329	-0.233	0.060
-96.845	800.000	0.080	-0.258
-95.830	-92.825	0.210	-0.058
-94.816	800.000	0.122	0.394
-93.801	1.798	-0.262	0.187
-92.786	669.705	0.160	-0.410
-91.772	329.748	0.069	0.130
-90.757	-76.356	-0.149	0.052
-89.743	-106.273	-0.080	0.018
-88.728	35.051	0.151	-0.131
-87.713	63.430	0.052	0.051
-86.699	164.016	0.271	0.377
-85.684	-200.000	-0.038	-0.335
-84.670	706.893	0.127	0.330
-83.655	136.019	0.159	-0.204
-82.640	320.129	0.071	-0.132
-81.626	98.435	-0.064	-0.073
-80.611	-24.558	-0.088	-0.052
-79.597	-47.199	-0.075	-0.036
-78.582	99.715	0.045	-0.052
-77.567	137.266	0.153	-0.198
-76.553	-200.000	0.051	-0.336
-75.538	800.000	-0.102	-0.337
-74.524	-109.302	-0.138	0.029
-73.509	-114.695	0.390	-0.074
-72.494	-200.000	0.005	0.104
-71.480	-200.000	0.022	-0.102
-70.465	-200.000	-0.035	0.199
-69.451	8.221	0.157	-0.117
-68.436	194.588	-0.078	-0.117
-67.422	-200.000	0.029	0.177
-66.407	176.728	-0.212	0.304
-65.392	-87.352	0.215	-0.064
-64.378	657.651	0.137	-0.347
-63.363	16.982	-0.363	0.284
-62.349	-10.722	-0.370	0.242
-61.334	20.906	-1.198	-0.958
-60.319	-25.461	0.728	0.424
-59.305	324.111	-0.457	-0.861
-58.290	247.308	0.675	1.125
-57.276	487.909	0.722	1.626
-56.261	-200.000	111.180	613.898
-55.246	498.783	1516.630	3444.946
-54.232	173.843	2700.386	3843.846
-53.217	99.601	2317.817	2644.698
-52.203	35.103	2065.530	1783.776
-51.188	30.739	1982.865	1673.193
-50.173	29.278	1966.563	1646.328
-49.159	45.362	2025.572	1842.141
-48.144	45.231	2041.617	1855.468
-47.130	31.183	1998.824	1690.416
-46.115	28.856	1988.757	1660.837
-45.100	28.871	1986.023	1658.620
-44.086	28.835	1982.853	1655.582
-43.071	28.773	1980.491	1652.989
-42.057	28.655	1979.401	1650.946
-41.042	28.741	1977.554	1650.120
-40.027	28.732	1975.486	1648.245
-39.013	28.813	1973.382	1647.152
-37.998	28.825	1971.392	1645.532
-36.984	28.808	1969.374	1643.632
-35.969	28.786	1967.351	1641.676
-34.954	28.798	1965.572	1640.241
-33.940	28.842	1964.296	1639.497
-32.925	28.881	1963.219	1638.879
-31.911	28.823	1961.367	1636.753
-30.896	28.920	1959.233	1635.773
-29.881	28.915	1957.837	1634.497
-28.867	28.933	1957.065	1633.950
-27.852	28.891	1954.896	1631.704
-26.838	28.880	1953.260	1630.176
-25.823	28.990	1951.116	1629.295
-24.809	28.939	1949.206	1627.184
-23.794	28.895	1948.086	1625.796
-22.779	28.935	1945.558	1623.971
-21.765	28.966	1943.954	1622.846
-20.750	28.810	1942.789	1620.427
-19.736	28.917	1940.969	1619.789
-18.721	28.853	1939.480	1617.925
-17.706	28.874	1937.643	1616.508
-16.692	28.903	1936.137	1615.440
-15.677	28.872	1935.112	1614.248
-14.663	28.820	1933.415	1612.316
-13.648	28.875	1932.207	1611.728
-12.633	28.827	1931.380	1610.550
-11.619	28.930	1929.391	1609.727
-10.604	28.914	1928.160	1608.498
-9.590	28.912	1926.585	1607.106
-8.575	28.891	1925.547	1605.994
-7.560	28.906	1924.310	1605.029
-6.546	28.918	1922.716	1603.736
-5.531	28.931	1922.033	1603.222
-4.517	28.890	1920.482	1601.502
-3.502	28.855	1919.334	1600.175
-2.487	28.914	1917.775	1599.330
-1.473	28.885	1917.091	1598.441
-0.458	28.918	1912.264	1594.641
0.556	30.603	1892.040	1566.428
1.571	26.113	1873.239	1513.174
2.586	22.085	1895.726	1496.953
3.600	21.037	1930.811	1515.420
4.615	20.479	1925.259	1506.093
5.629	16.162	1825.314	1392.227
6.644	8.248	1709.049	1242.053
7.659	4.108	1674.132	1184.957
8.673	3.731	1671.106	1179.829
9.688	3.790	1670.287	1179.594
10.702	3.789	1669.145	1178.677
11.717	3.781	1665.183	1175.714
12.731	4.246	1664.515	1178.676
13.746	9.915	1677.873	1231.365
14.761	18.631	1696.883	1312.150
15.775	23.147	1704.753	1352.730
16.790	23.629	1704.279	1355.919
17.804	22.799	1702.311	1347.893
18.819	22.059	1698.996	1339.510
19.834	21.620	1696.914	1334.408
20.848	21.569	1695.775	1332.999
21.863	21.624	1695.161	1332.818
22.877	21.543	1693.803	1331.016
23.892	21.408	1692.673	1328.984
24.907	21.319	1691.854	1327.553
25.921	21.316	1690.853	1326.628
26.936	21.222	1689.814	1324.976
27.950	21.250	1688.255	1323.851
28.965	21.301	1687.902	1323.844
29.980	21.322	1687.474	1323.551
30.994	21.372	1686.804	1323.289
32.009	21.560	1685.666	1323.698
33.023	21.724	1684.812	1324.153
34.038	21.633	1683.995	1322.704
35.053	21.644	1682.691	1321.646
36.067	21.518	1680.956	1319.213
37.082	21.407	1680.229	1317.692
38.096	21.429	1679.239	1316.966
39.111	21.424	1678.660	1316.359
40.126	21.514	1677.682	1316.152
41.140	21.501	1677.243	1315.592
42.155	21.282	1675.036	1312.099
43.169	20.944	1673.318	1308.101
44.184	20.797	1672.012	1305.858
45.199	20.830	1671.180	1305.344
46.213	20.830	1670.315	1304.555
47.228	21.070	1669.875	1305.888
48.242	21.315	1668.680	1306.672
49.257	21.329	1667.765	1305.944
50.271	21.353	1666.234	1304.809
51.286	21.303	1665.021	1303.373
52.301	21.327	1663.748	1302.436
53.315	21.338	1662.028	1301.061
54.330	21.208	1661.062	1299.220
55.344	21.152	1658.634	1296.791
56.359	20.953	1657.579	1294.373
57.374	20.945	1656.473	1293.332
58.388	20.953	1655.145	1292.248
59.403	20.892	1653.846	1290.661
60.417	20.825	1652.588	1289.074
61.432	20.748	1651.739	1287.724
62.447	20.706	1650.415	1286.268
63.461	20.574	1649.400	1284.390
64.476	20.490	1648.350	1282.836
65.490	20.452	1647.455	1281.748
66.505	20.490	1645.814	1280.635
67.520	20.544	1644.430	1279.843
68.534	20.442	1644.114	1278.733
69.549	20.477	1642.930	1277.960
70.563	20.573	1640.868	1276.949
71.578	20.378	1640.138	1274.831
72.593	20.344	1638.952	1273.553
73.607	20.266	1637.748	1271.928
74.622	20.201	1636.848	1270.639
75.636	20.229	1636.037	1270.104
76.651	20.392	1635.360	1270.662
77.666	20.285	1634.539	1269.128
78.680	20.419	1633.809	1269.427
79.695	20.464	1632.845	1268.891
80.709	20.465	1632.204	1268.290
81.724	20.593	1631.757	1268.764
82.739	20.804	1631.348	1269.876
83.753	20.905	1630.752	1270.035
84.768	20.951	1630.115	1269.758
85.782	21.213	1629.855	1271.357
86.797	21.500	1628.627	1272.369
87.812	21.586	1628.184	1272.534
88.826	21.479	1626.936	1270.670
89.841	21.411	1625.777	1269.161
90.855	21.317	1625.148	1267.877
91.870	21.439	1623.918	1267.685
92.884	21.586	1622.709	1267.700
93.899	21.663	1622.071	1267.644
94.914	21.684	1620.887	1266.755
95.928	21.722	1620.236	1266.411
96.943	21.735	1618.146	1264.761
97.957	21.612	1616.766	1262.685
98.972	21.586	1615.636	1261.501
99.987	21.518	1614.097	1259.701
101.001	21.487	1612.932	1258.458
102.016	21.514	1611.121	1257.123
103.030	21.455	1610.183	1255.855
104.045	21.537	1608.761	1255.227
105.060	21.552	1607.145	1253.961
106.074	21.308	1606.283	1251.428
107.089	21.054	1604.242	1247.913
108.103	20.818	1601.987	1244.363
109.118	20.612	1600.541	1241.656
110.133	20.419	1599.445	1239.319
111.147	20.567	1596.648	1238.101
112.162	20.426	1596.471	1236.850
113.176	20.527	1595.260	1236.515
114.191	20.593	1593.957	1235.870
115.206	20.588	1593.798	1235.601
116.220	20.677	1591.623	1234.435
117.235	20.675	1590.476	1233.426
118.249	20.653	1589.368	1232.295
119.264	20.597	1588.072	1230.791
120.279	20.530	1586.394	1228.908
121.293	20.312	1584.833	1226.045
122.308	20.299	1583.229	1224.606
123.322	20.238	1581.621	1222.823
124.337	20.078	1579.960	1220.304
125.352	20.107	1578.930	1219.609
126.366	20.136	1577.652	1218.712
127.381	20.056	1576.381	1217.064
128.395	20.104	1575.518	1216.626
129.410	19.977	1574.418	1214.776
130.424	20.031	1572.631	1213.668
131.439	20.071	1571.350	1212.856
132.454	20.316	1570.442	1213.758
133.468	20.488	1569.608	1214.210
134.483	20.475	1568.536	1213.184
135.497	20.732	1566.703	1213.448
136.512	20.668	1565.696	1212.113
137.527	20.653	1565.158	1211.486
138.541	20.722	1563.664	1210.703
139.556	20.748	1562.175	1209.626
140.570	20.842	1560.911	1209.190
141.585	20.863	1560.264	1208.730
142.600	21.014	1559.174	1208.826
143.614	21.188	1558.500	1209.400
144.629	21.326	1557.479	1209.457
145.643	21.535	1556.250	1209.840
146.658	21.485	1555.165	1208.547
147.673	21.361	1553.714	1206.454
148.687	21.166	1551.943	1203.624
149.702	21.063	1550.000	1201.305
150.716	20.854	1548.589	1198.669
151.731	20.828	1547.075	1197.213
152.746	20.636	1545.786	1194.788
153.760	20.608	1544.766	1193.701
154.775	20.664	1543.739	1193.185
155.789	20.821	1542.508	1193.207
156.804	21.012	1541.191	1193.391
157.819	21.097	1539.747	1192.748
158.833	21.042	1539.415	1192.007
159.848	21.208	1538.245	1192.127
160.862	21.348	1537.375	1192.302
161.877	21.475	1536.065	1192.047
162.892	21.211	1534.829	1189.187
163.906	20.725	1533.304	1184.590
164.921	20.618	1531.436	1182.315
165.935	20.559	1530.520	1181.105
166.950	20.569	1529.820	1180.526
167.964	20.777	1528.712	1180.981
168.979	20.883	1527.755	1180.854
169.994	20.761	1526.958	1179.306
171.008	20.757	1525.893	1178.352
172.023	20.726	1524.793	1177.190
173.037	20.858	1523.825	1177.234
174.052	21.047	1523.366	1178.051
175.067	21.215	1522.116	1178.113
176.081	21.054	1520.941	1176.013
177.096	20.731	1518.769	1172.051
178.110	20.569	1517.384	1169.792
179.125	20.649	1516.525	1169.561
180.140	20.643	1515.671	1168.762
181.154	20.766	1515.206	1169.123
182.169	21.012	1514.284	1169.960
183.183	21.182	1512.828	1169.873
184.198	21.118	1512.172	1168.835
185.213	21.262	1511.488	1169.167
186.227	21.301	1510.165	1168.300
187.242	21.284	1509.868	1167.850
188.256	21.298	1508.747	1166.973
189.271	21.481	1507.681	1167.265
190.286	21.555	1506.654	1166.862
191.300	21.567	1505.785	1166.170
192.315	21.179	1504.168	1162.230
193.329	20.700	1502.381	1157.560
194.344	20.705	1501.624	1156.907
195.359	20.709	1501.196	1156.503
196.373	20.754	1499.894	1155.696
197.388	20.814	1498.426	1154.860
198.402	20.927	1497.371	1154.691
199.417	21.088	1496.785	1155.204
200.432	21.438	1496.586	1157.262
201.446	21.630	1496.243	1158.170
202.461	21.792	1495.267	1158.378
203.475	21.761	1494.729	1157.654
204.490	21.854	1493.585	1157.283
205.504	21.649	1492.197	1154.755
206.519	21.266	1490.721	1150.987
207.534	21.251	1489.347	1149.721
208.548	21.063	1487.925	1147.285
209.563	21.006	1486.821	1145.959
210.577	20.980	1486.546	1145.476
211.592	21.027	1485.248	1144.684
212.607	21.124	1484.727	1144.814
213.621	21.402	1484.127	1146.075
214.636	21.549	1484.106	1146.922
215.650	21.403	1482.858	1144.900
216.665	21.437	1482.018	1144.371
217.680	21.477	1481.059	1143.794
218.694	21.740	1480.627	1145.076
219.709	21.840	1479.848	1145.023
220.723	21.762	1478.922	1143.695
221.738	21.678	1477.437	1141.898
222.753	21.613	1476.896	1140.956
223.767	21.566	1475.776	1139.688
224.782	21.557	1474.374	1138.446
225.796	21.637	1474.153	1138.693
226.811	21.858	1473.671	1139.654
227.826	21.934	1472.973	1139.508
228.840	21.714	1471.864	1137.121
229.855	21.616	1470.110	1135.035
230.869	21.430	1469.415	1133.191
231.884	21.360	1468.421	1131.869
232.899	21.327	1467.350	1130.727
233.913	21.250	1465.355	1128.593
234.928	21.160	1464.393	1127.176
235.942	21.012	1463.202	1125.203
236.957	20.952	1462.214	1123.953
237.972	20.977	1460.490	1122.690
238.986	20.839	1459.727	1121.116
240.001	20.957	1458.885	1121.133
241.015	21.009	1457.902	1120.613
242.030	21.027	1456.145	1119.279
243.045	21.051	1455.791	1119.059
244.059	21.343	1455.387	1120.521
245.074	21.369	1454.687	1120.047
246.088	21.476	1454.003	1120.111
247.103	21.433	1453.558	1119.392
248.117	21.563	1453.049	1119.733
249.132	21.744	1452.162	1120.110
250.147	21.896	1451.460	1120.439
251.161	22.168	1451.320	1121.965
252.176	22.460	1451.459	1123.842
253.190	22.571	1450.648	1123.819
254.205	22.649	1449.801	1123.563
255.220	22.695	1449.263	1123.335
256.234	22.805	1448.507	1123.356
257.249	22.848	1447.658	1122.870
258.263	22.711	1446.700	1121.154
259.278	22.676	1445.346	1119.784
260.293	22.571	1444.497	1118.362
261.307	22.705	1443.660	1118.465
262.322	22.652	1443.306	1117.754
263.336	22.774	1442.480	1117.792
264.351	22.812	1441.618	1117.263
265.366	22.763	1440.929	1116.322
266.380	22.808	1439.657	1115.519
267.395	22.805	1438.998	1114.892
268.409	22.760	1438.356	1114.010
269.424	22.593	1436.979	1111.795
270.439	22.548	1435.073	1109.939
271.453	22.367	1434.802	1108.489
272.468	22.468	1433.662	1108.147
273.482	22.338	1432.797	1106.561
274.497	22.139	1431.814	1104.453
275.512	22.205	1430.178	1103.511
276.526	22.216	1429.844	1103.224
277.541	22.142	1428.938	1101.964
278.555	22.144	1428.396	1101.457
279.570	22.207	1427.008	1100.686
280.585	22.464	1426.435	1101.754
281.599	22.635	1426.661	1102.903
282.614	22.804	1425.490	1102.955
283.628	22.642	1423.911	1100.623
284.643	22.364	1422.833	1097.959
285.657	22.207	1421.558	1095.897
286.672	22.248	1420.583	1095.308
287.687	22.278	1419.317	1094.420
288.701	22.406	1418.375	1094.394
289.716	22.381	1418.001	1093.851
290.730	22.263	1417.539	1092.668
291.745	22.320	1416.104	1091.815
292.760	22.379	1415.671	1091.752
293.774	22.314	1414.731	1090.524
294.789	22.409	1413.664	1090.200
295.803	22.628	1412.996	1090.940
296.818	22.726	1412.418	1091.006
297.833	22.516	1411.312	1088.752
298.847	22.338	1410.125	1086.646
299.862	22.318	1409.113	1085.642
300.876	22.271	1408.136	1084.505
301.891	22.372	1406.871	1084.058
302.906	22.366	1406.684	1083.780
303.920	22.584	1406.076	1084.558
304.935	22.769	1405.950	1085.500
305.949	22.966	1405.303	1086.116
306.964	23.045	1404.466	1085.861
307.979	23.124	1403.509	1085.512
308.993	22.968	1402.564	1083.727
310.008	22.849	1401.339	1081.956
311.022	22.793	1400.240	1080.666
312.037	22.909	1399.530	1080.734
313.052	23.005	1398.670	1080.562
314.066	22.786	1397.685	1078.365
315.081	22.594	1396.037	1075.825
316.095	22.475	1394.804	1074.056
317.110	22.151	1393.379	1070.888
318.125	22.157	1392.548	1070.192
319.139	22.165	1392.057	1069.767
320.154	22.197	1391.117	1069.150
321.168	22.203	1389.813	1068.089
322.183	22.197	1388.725	1067.122
323.197	22.180	1387.909	1066.294
324.212	22.312	1386.969	1066.278
325.227	22.342	1386.381	1065.915
326.241	22.402	1385.491	1065.500
327.256	22.407	1384.936	1065.009
328.270	22.457	1384.054	1064.535
329.285	22.416	1382.881	1063.294
330.300	22.358	1381.841	1062.048
331.314	22.349	1380.915	1061.189
332.329	22.342	1380.131	1060.454
333.343	22.302	1379.173	1059.378
334.358	22.461	1378.317	1059.584
335.373	22.473	1377.834	1059.193
336.387	22.703	1377.578	1060.283
337.402	22.760	1377.161	1060.210
338.416	22.840	1376.534	1060.116
339.431	22.863	1376.100	1059.826
340.446	22.907	1375.839	1059.799
341.460	23.008	1374.691	1059.423
342.475	23.278	1373.841	1060.290
343.489	23.428	1373.211	1060.612
344.504	23.527	1372.271	1060.384
345.519	23.426	1371.470	1059.063
346.533	23.605	1370.976	1059.660
347.548	23.531	1370.424	1058.699
348.562	23.693	1369.188	1058.616
349.577	23.675	1368.377	1057.786
350.592	23.353	1367.546	1055.132
351.606	23.134	1365.808	1052.394
352.621	22.907	1364.278	1049.775
353.635	22.764	1362.950	1047.808
354.650	22.748	1361.541	1046.541
355.665	22.653	1360.996	1045.464
356.679	22.639	1359.740	1044.324
357.694	22.851	1358.947	1044.876
358.708	22.903	1358.625	1044.847
359.723	22.997	1357.343	1044.326
360.738	22.995	1356.193	1043.335
361.752	23.126	1355.525	1043.501
362.767	23.072	1354.083	1041.977
363.781	23.097	1352.997	1041.197
364.796	23.072	1352.467	1040.552
365.810	23.210	1352.047	1040.949
366.825	23.440	1351.719	1041.959
367.840	23.685	1351.117	1042.838
368.854	23.750	1350.677	1042.788
369.869	23.884	1350.643	1043.456
370.883	23.959	1349.721	1043.093
371.898	23.840	1348.782	1041.574
372.913	23.542	1347.862	1039.027
373.927	23.537	1346.649	1037.971
374.942	23.389	1346.343	1036.778
375.956	23.603	1345.626	1037.387
376.971	23.739	1344.669	1037.350
377.986	23.686	1343.593	1036.122
379.000	23.547	1342.827	1034.630
380.015	23.772	1342.366	1035.494
381.029	23.908	1341.947	1035.869
382.044	24.001	1341.407	1035.903
383.059	24.056	1340.356	1035.316
384.073	23.864	1340.427	1034.163
385.088	23.885	1339.547	1033.518
386.102	23.964	1338.357	1032.965
387.117	23.928	1337.857	1032.282
388.132	23.847	1336.440	1030.626
389.146	23.511	1335.473	1027.839
390.161	23.400	1334.218	1026.145
391.175	23.387	1333.405	1025.351
392.190	23.201	1333.027	1023.892
393.205	23.435	1331.992	1024.359
394.219	23.664	1331.708	1025.375
395.234	23.939	1330.415	1025.875
396.248	23.683	1329.034	1023.244
397.263	23.558	1327.242	1021.053
398.278	23.420	1326.163	1019.341
399.292	23.370	1325.005	1018.070
400.307	23.198	1323.813	1016.079
401.321	23.168	1323.108	1015.277
402.336	23.163	1321.486	1013.915
403.350	23.079	1320.594	1012.657
404.365	23.031	1319.037	1011.101
405.380	23.100	1318.597	1011.067
406.394	23.354	1318.158	1012.092
407.409	23.501	1317.623	1012.429
408.423	23.467	1317.470	1012.029
409.438	23.877	1316.551	1013.571
410.453	23.969	1316.211	1013.742
411.467	24.083	1315.459	1013.726
412.482	24.112	1315.164	1013.575
413.496	24.148	1314.600	1013.256
414.511	24.246	1313.602	1012.949
415.526	24.429	1313.191	1013.586
416.540	24.429	1312.703	1013.117
417.555	24.428	1312.077	1012.541
418.569	24.614	1311.470	1013.034
419.584	24.468	1311.074	1011.811
420.599	24.265	1310.017	1009.760
421.613	146.085	1436.327	1797.656
422.628	141.689	1454.681	1797.772
