DTS Sentinel unit serial number:	SN413079Multiplexer serial number:	ORYXHardware model number:	OX4-SRSoftware version number:	ORYX F/W v4.00 Oryx Data Collector v3.7.2.0data status	okinstallation	princeton_trtdifferential loss correction	single-endedforward channel	channel 4reverse channel	N/Adate	2019/09/14time	04:25:35forward acquisition time	60.00reverse acquisition time	0.00gamma	496.2192k internal	0.2321k external	0.2321temperature offset calibration	1.0136default loss term (dB/km)	0.3790temperature slope calibration	1.0000multiplexer offset coefficient	1.0000multiplexer slope coefficient	1.0000fibre end	0.00T internal ref (°C)	26.75T ext. ref 1 (°C)	3.34T ext. ref 2 (°C)	21.89length (m)	temperature (°C)	Stokes	anti-Stokes-747.200	800.000	0.032	0.104
-746.185	94.239	0.182	0.209
-745.171	-133.135	0.067	-0.009
-744.156	396.840	0.021	-0.045
-743.142	17.180	0.217	-0.174
-742.127	-142.409	-0.367	0.037
-741.112	192.938	0.176	0.268
-740.098	800.000	-0.077	0.266
-739.083	486.716	0.113	0.260
-738.069	7.616	0.217	0.164
-737.054	-126.877	-0.077	0.011
-736.039	536.714	0.032	0.076
-735.025	-130.538	0.307	0.042
-734.010	-15.800	0.192	-0.124
-732.996	800.000	-0.027	0.113
-731.981	272.935	-0.133	0.237
-730.966	800.000	-0.061	0.246
-729.952	99.502	-0.171	-0.200
-728.937	800.000	-0.026	-0.101
-727.923	-200.000	-0.027	-0.254
-726.908	99.116	-0.202	-0.236
-725.894	-130.508	-0.255	-0.035
-724.879	-200.000	0.011	-0.059
-723.864	55.763	-0.246	-0.241
-722.850	379.152	-0.129	-0.267
-721.835	-200.000	-0.018	-0.216
-720.821	-10.602	-0.044	-0.029
-719.806	70.442	0.091	0.095
-718.791	-50.996	0.229	0.108
-717.777	800.000	-0.134	-0.532
-716.762	137.988	0.134	0.178
-715.748	54.712	0.274	-0.267
-714.733	109.678	0.049	0.059
-713.718	-83.315	-0.354	0.115
-712.704	51.360	-0.149	-0.143
-711.689	-175.924	0.256	-0.007
-710.675	800.000	-0.031	-0.137
-709.660	-140.814	-0.041	-0.004
-708.645	-200.000	0.002	-0.267
-707.631	-114.885	0.273	0.053
-706.616	800.000	-0.070	-0.277
-705.602	800.000	0.037	0.152
-704.587	-3.241	-0.251	-0.177
-703.572	-46.092	-0.065	-0.032
-702.558	-50.859	-0.178	0.085
-701.543	-200.000	-0.006	-0.046
-700.529	-161.359	-0.397	-0.021
-699.514	-100.346	-0.183	-0.046
-698.499	-200.000	0.089	-0.456
-697.485	78.703	-0.100	0.108
-696.470	366.362	0.238	0.485
-695.456	48.823	0.153	0.145
-694.441	-24.126	-0.301	-0.181
-693.426	275.858	-0.139	-0.250
-692.412	69.259	0.258	0.268
-691.397	184.692	-0.034	-0.051
-690.383	477.806	0.162	-0.369
-689.368	162.110	0.051	-0.071
-688.354	-95.654	-0.317	0.085
-687.339	-200.000	0.009	-0.051
-686.324	-71.248	0.214	0.081
-685.310	-71.271	-0.099	-0.037
-684.295	93.611	0.134	0.153
-683.281	-116.766	0.332	0.061
-682.266	-89.687	-0.344	-0.102
-681.251	-200.000	-0.044	-0.312
-680.237	167.503	0.221	-0.317
-679.222	800.000	0.084	0.303
-678.208	-200.000	-0.019	-0.166
-677.193	181.475	-0.061	0.090
-676.178	38.741	-0.385	-0.346
-675.164	738.938	0.061	-0.164
-674.149	800.000	-0.064	-0.182
-673.135	-194.832	-0.236	-0.002
-672.120	-39.799	0.366	-0.193
-671.105	669.886	0.043	0.111
-670.091	-155.969	-0.131	-0.008
-669.076	-126.242	-0.204	0.031
-668.062	-88.517	-0.261	-0.078
-667.047	-200.000	0.026	0.134
-666.032	-200.000	0.034	-0.155
-665.018	-53.150	0.095	0.044
-664.003	-14.135	-0.147	0.096
-662.989	-4.247	0.086	0.060
-661.974	-129.439	-0.130	0.018
-660.959	11.408	0.085	0.066
-659.945	-200.000	0.046	-0.237
-658.930	-31.164	0.208	-0.118
-657.916	5.366	0.368	0.274
-656.901	-200.000	-0.001	0.016
-655.886	30.568	-0.180	0.155
-654.872	-32.071	-0.055	0.031
-653.857	-200.000	-0.015	-0.297
-652.843	-200.000	0.015	0.219
-651.828	800.000	0.056	0.174
-650.814	103.950	0.337	-0.399
-649.799	-200.000	0.010	-0.111
-648.784	-200.000	0.016	-0.291
-647.770	239.983	0.019	0.031
-646.755	-55.507	-0.182	0.082
-645.741	55.791	0.269	0.263
-644.726	30.021	0.108	-0.093
-643.711	-155.362	-0.559	0.037
-642.697	-183.117	0.404	0.007
-641.682	5.917	0.335	-0.250
-640.668	373.832	-0.158	0.324
-639.653	-200.000	0.063	-0.360
-638.638	-11.291	-0.154	-0.102
-637.624	-172.142	-0.065	0.002
-636.609	800.000	0.023	0.101
-635.595	-18.538	0.116	0.073
-634.580	162.471	-0.275	0.389
-633.565	-151.293	-0.252	-0.019
-632.551	-200.000	0.014	-0.282
-631.536	56.131	0.039	-0.038
-630.522	597.762	-0.113	-0.282
-629.507	-174.558	-0.187	0.005
-628.492	63.776	-0.098	0.099
-627.478	-100.922	-0.159	0.039
-626.463	-68.722	-0.078	-0.030
-625.449	-104.229	-0.209	-0.049
-624.434	192.865	0.194	0.295
-623.419	13.016	0.257	-0.200
-622.405	99.239	-0.053	0.062
-621.390	-83.433	0.259	-0.083
-620.376	-0.292	-0.356	-0.254
-619.361	368.435	-0.243	-0.495
-618.346	800.000	-0.048	-0.159
-617.332	55.784	-0.201	0.196
-616.317	151.574	-0.211	0.288
-615.303	49.188	0.025	-0.023
-614.288	-200.000	-0.002	-0.068
-613.273	-200.000	-0.000	-0.044
-612.259	488.723	0.070	-0.161
-611.244	-200.000	-0.030	-0.200
-610.230	-111.161	-0.397	-0.082
-609.215	121.959	0.157	0.198
-608.201	-200.000	0.043	-0.195
-607.186	-143.775	0.057	-0.005
-606.171	3.805	-0.205	-0.151
-605.157	275.853	0.066	-0.117
-604.142	-12.049	0.254	-0.167
-603.128	219.778	0.144	-0.231
-602.113	-5.648	-0.229	0.158
-601.098	-130.899	0.120	-0.016
-600.084	55.767	0.150	0.146
-599.069	285.252	-0.093	0.169
-598.055	188.672	0.360	0.541
-597.040	36.720	0.233	-0.207
-596.025	475.579	-0.088	-0.199
-595.011	113.900	-0.298	0.364
-593.996	-52.072	-0.159	-0.074
-592.982	36.224	-0.247	0.219
-591.967	-111.164	0.199	-0.041
-590.952	146.809	0.180	0.243
-589.938	-46.327	0.247	0.122
-588.923	322.820	0.163	-0.312
-587.909	800.000	-0.027	0.104
-586.894	378.522	0.082	0.169
-585.879	-191.631	-0.155	-0.002
-584.865	-32.865	-0.372	0.208
-583.850	-58.635	0.130	-0.056
-582.836	-200.000	-0.048	-0.223
-581.821	-200.000	-0.031	-0.317
-580.806	-56.865	0.148	0.066
-579.792	196.652	0.054	0.083
-578.777	35.954	-0.008	-0.007
-577.763	4.545	0.161	0.118
-576.748	618.707	-0.081	0.204
-575.733	152.982	-0.174	-0.239
-574.719	53.790	-0.058	0.056
-573.704	-68.802	0.104	-0.040
-572.690	-117.223	-0.018	0.003
-571.675	211.299	0.241	0.380
-570.661	63.279	-0.126	-0.127
-569.646	-1.917	-0.186	-0.131
-568.631	85.085	0.041	-0.045
-567.617	-29.237	-0.254	0.146
-566.602	-116.473	0.313	-0.058
-565.588	-155.533	-0.485	-0.031
-564.573	-112.161	-0.203	0.041
-563.558	800.000	0.123	-0.341
-562.544	-49.068	0.076	0.036
-561.529	-28.428	-0.146	0.085
-560.515	-55.512	-0.314	-0.141
-559.500	66.875	0.074	0.076
-558.485	-54.211	-0.177	0.081
-557.471	9.845	0.292	-0.223
-556.456	99.720	-0.019	0.022
-555.442	-127.751	0.141	0.020
-554.427	438.139	0.124	0.270
-553.412	-68.750	0.104	0.040
-552.398	226.858	0.119	-0.194
-551.383	64.977	-0.080	-0.081
-550.369	800.000	0.044	0.149
-549.354	-109.740	0.147	0.031
-548.339	345.133	0.119	0.234
-547.325	-70.318	-0.134	-0.051
-546.310	-57.974	-0.028	0.012
-545.296	-38.031	0.254	0.135
-544.281	-118.261	0.206	0.037
-543.266	-200.000	-0.045	0.345
-542.252	-101.076	-0.200	0.049
-541.237	-200.000	0.015	0.067
-540.223	200.931	-0.097	-0.149
-539.208	659.809	-0.105	-0.271
-538.193	34.508	0.118	-0.103
-537.179	-63.679	0.273	0.112
-536.164	-12.539	-0.135	0.088
-535.150	-200.000	0.010	0.198
-534.135	-33.340	0.301	0.167
-533.121	-109.328	-0.458	-0.097
-532.106	-200.000	-0.003	-0.147
-531.091	800.000	-0.060	-0.251
-530.077	-172.763	-0.219	0.007
-529.062	66.646	-0.038	-0.039
-528.048	191.749	-0.191	-0.289
-527.033	136.263	0.106	0.139
-526.018	71.860	-0.121	-0.126
-525.004	-130.298	-0.055	0.007
-523.989	-200.000	0.000	0.029
-522.975	-200.000	0.342	-0.001
-521.960	64.612	-0.092	-0.093
-520.945	-113.780	0.066	0.013
-519.931	-123.438	0.108	0.017
-518.916	-200.000	-0.000	-0.106
-517.902	-200.000	0.000	-0.300
-516.887	-200.000	-0.025	0.253
-515.872	86.391	0.176	-0.195
-514.858	189.720	0.088	-0.132
-513.843	-200.000	-0.020	-0.295
-512.829	456.388	0.093	-0.206
-511.814	-99.426	-0.042	-0.010
-510.799	-16.388	0.208	-0.132
-509.785	305.352	0.234	-0.435
-508.770	-83.331	0.232	-0.075
-507.756	800.000	-0.020	-0.084
-506.741	-116.904	0.082	-0.015
-505.726	408.937	-0.130	-0.276
-504.712	443.776	0.091	0.200
-503.697	-148.902	0.412	-0.033
-502.683	-138.362	0.124	0.014
-501.668	580.610	-0.019	-0.046
-500.653	199.106	0.168	0.258
-499.639	-157.314	-0.131	0.008
-498.624	759.029	-0.062	-0.169
-497.610	-186.880	-0.408	0.006
-496.595	800.000	-0.055	0.155
-495.581	348.329	0.120	0.238
-494.566	27.825	-0.053	0.045
-493.551	430.165	0.095	0.205
-492.537	-66.325	0.121	0.048
-491.522	19.303	0.162	0.130
-490.508	-84.206	-0.141	0.045
-489.493	-107.437	0.229	-0.050
-488.478	-31.007	-0.391	0.221
-487.464	-50.800	-0.039	0.019
-486.449	-200.000	0.154	-0.000
-485.435	-4.766	-0.242	-0.167
-484.420	-200.000	-0.056	0.389
-483.405	632.444	-0.098	0.247
-482.391	-200.000	-0.019	0.315
-481.376	10.318	0.307	0.234
-480.362	-200.000	0.076	0.368
-479.347	560.399	0.051	-0.124
-478.332	562.690	-0.033	-0.079
-477.318	-78.900	0.230	0.078
-476.303	519.786	0.082	-0.193
-475.289	-61.578	-0.119	-0.050
-474.274	284.591	0.065	-0.117
-473.259	-90.997	-0.177	0.051
-472.245	-33.870	0.362	-0.199
-471.230	-40.577	-0.230	0.119
-470.216	-78.996	-0.111	0.038
-469.201	-133.606	-0.395	0.049
-468.186	-30.323	0.260	0.148
-467.172	-200.000	-0.017	0.144
-466.157	-7.533	-0.276	-0.187
-465.143	-200.000	0.014	-0.064
-464.128	120.239	0.071	-0.088
-463.113	-92.673	-0.087	-0.024
-462.099	-93.657	-0.173	-0.048
-461.084	-17.993	0.403	0.252
-460.070	37.645	0.074	0.065
-459.055	60.181	0.185	0.183
-458.040	-139.012	-0.265	0.029
-457.026	354.378	0.020	-0.039
-456.011	177.451	0.259	-0.377
-454.997	800.000	0.024	-0.079
-453.982	-16.036	-0.048	-0.031
-452.968	61.043	-0.139	-0.138
-451.953	-108.715	0.240	-0.051
-450.938	424.099	0.129	-0.276
-449.924	14.484	0.316	-0.246
-448.909	36.070	0.236	-0.207
-447.895	43.564	0.124	0.113
-446.880	101.329	0.145	0.168
-445.865	239.599	0.135	0.224
-444.851	511.399	-0.061	-0.141
-443.836	557.165	0.054	-0.131
-442.822	-200.000	0.004	0.458
-441.807	74.920	-0.120	0.127
-440.792	800.000	-0.025	0.078
-439.778	800.000	0.079	-0.219
-438.763	-83.042	0.260	0.084
-437.749	130.493	-0.192	0.246
-436.734	12.312	0.180	0.138
-435.719	358.523	0.109	-0.217
-434.705	-200.000	0.063	-0.000
-433.690	800.000	0.055	-0.154
-432.676	-81.501	0.344	-0.113
-431.661	-70.587	-0.324	0.122
-430.646	91.818	-0.094	0.106
-429.632	-83.482	-0.249	0.080
-428.617	453.551	-0.119	-0.263
-427.603	607.268	-0.077	0.191
-426.588	-180.298	0.239	-0.005
-425.573	147.165	0.098	-0.132
-424.559	-40.731	-0.035	-0.018
-423.544	-97.816	0.127	0.033
-422.530	-47.212	0.383	0.186
-421.515	97.522	0.072	0.082
-420.500	-31.586	-0.293	-0.164
-419.486	-146.790	0.187	-0.016
-418.471	145.627	-0.213	-0.284
-417.457	589.826	-0.125	0.308
-416.442	281.565	-0.119	0.214
-415.428	64.344	-0.121	-0.122
-414.413	30.470	-0.292	0.249
-413.398	-91.450	-0.090	-0.026
-412.384	-66.332	0.058	-0.023
-411.369	-51.308	-0.265	0.124
-410.355	-200.000	-0.056	-0.314
-409.340	660.725	0.048	-0.123
-408.325	-15.860	-0.403	-0.256
-407.311	166.033	-0.065	-0.092
-406.296	-200.000	0.028	0.357
-405.282	-67.672	-0.208	0.081
-404.267	120.303	-0.030	-0.037
-403.252	-200.000	-0.015	-0.168
-402.238	65.476	0.109	-0.110
-401.223	-49.103	0.125	-0.060
-400.209	-200.000	-0.009	-0.096
-399.194	-200.000	0.067	-0.511
-398.179	-39.434	-0.057	0.030
-397.165	13.690	-0.155	-0.120
-396.150	-96.118	0.208	0.055
-395.136	54.768	-0.129	-0.124
-394.121	286.007	0.053	-0.095
-393.106	-125.179	-0.502	-0.077
-392.092	800.000	-0.030	0.128
-391.077	-168.488	-0.134	-0.005
-390.063	800.000	0.052	-0.165
-389.048	333.116	-0.170	0.328
-388.033	-200.000	-0.006	-0.159
-387.019	-97.492	0.195	0.051
-386.004	-162.976	0.458	0.022
-384.990	155.774	-0.103	-0.141
-383.975	171.371	-0.066	0.094
-382.960	-36.460	-0.135	-0.072
-381.946	-132.750	0.283	-0.036
-380.931	800.000	0.080	0.255
-379.917	800.000	-0.047	-0.142
-378.902	-200.000	-0.003	-0.142
-377.888	-54.289	-0.337	-0.152
-376.873	-99.063	-0.235	-0.059
-375.858	89.144	0.081	0.089
-374.844	32.213	-0.119	0.102
-373.829	-33.324	0.030	-0.016
-372.815	-20.350	-0.495	-0.303
-371.800	-200.000	0.007	-0.275
-370.785	-24.961	-0.144	0.085
-369.771	-105.639	-0.209	0.047
-368.756	42.199	-0.353	0.320
-367.742	83.783	0.174	-0.189
-366.727	-115.129	0.268	0.051
-365.712	-88.215	-0.191	0.057
-364.698	191.403	0.159	-0.239
-363.683	-18.542	-0.145	-0.090
-362.669	514.521	-0.062	0.145
-361.654	380.261	0.050	-0.103
-360.639	191.605	0.106	-0.159
-359.625	700.157	0.081	-0.213
-358.610	-99.718	-0.257	0.064
-357.596	-118.097	0.357	0.063
-356.581	12.091	0.186	-0.142
-355.566	-200.000	-0.005	-0.043
-354.552	800.000	-0.096	-0.335
-353.537	9.243	-0.089	-0.067
-352.523	-57.204	-0.202	-0.089
-351.508	-200.000	0.012	-0.145
-350.493	544.079	0.103	-0.246
-349.479	203.210	-0.072	-0.111
-348.464	31.973	0.236	0.202
-347.450	-153.639	0.219	0.015
-346.435	238.604	-0.161	-0.266
-345.420	-45.630	-0.263	-0.129
-344.406	-200.000	0.029	-0.131
-343.391	-163.356	0.308	-0.015
-342.377	-4.160	0.068	-0.047
-341.362	138.033	0.216	0.281
-340.348	163.673	-0.076	-0.106
-339.333	-65.194	0.214	0.086
-338.318	-106.080	0.329	-0.073
-337.304	-12.447	0.025	0.016
-336.289	106.351	-0.231	-0.273
-335.275	443.759	0.107	-0.234
-334.260	-88.296	-0.238	-0.071
-333.245	-30.232	-0.290	-0.164
-332.231	-200.000	0.006	0.072
-331.216	-36.409	0.252	-0.135
-330.202	-171.302	-0.140	-0.005
-329.187	-110.365	0.219	-0.045
-328.172	-141.801	-0.078	0.008
-327.158	-200.000	0.050	0.423
-326.143	-200.000	-0.031	-0.347
-325.129	104.532	0.061	-0.071
-324.114	4.289	0.208	0.151
-323.099	34.967	0.455	0.396
-322.085	-99.783	0.393	0.098
-321.070	-200.000	-0.054	0.284
-320.056	-143.419	0.324	-0.031
-319.041	27.526	0.256	-0.214
-318.026	214.040	-0.197	-0.310
-317.012	91.416	0.081	0.090
-315.997	-200.000	0.005	0.076
-314.983	800.000	0.127	0.434
-313.968	3.975	0.277	-0.201
-312.953	-108.278	0.280	-0.060
-311.939	318.218	-0.123	0.231
-310.924	-83.490	0.146	-0.046
-309.910	-200.000	-0.003	0.144
-308.895	-200.000	0.010	-0.279
-307.880	-200.000	-0.028	-0.427
-306.866	131.569	-0.324	-0.413
-305.851	145.770	-0.179	0.239
-304.837	225.016	0.024	0.039
-303.822	28.942	-0.043	0.036
-302.807	-10.397	0.236	-0.155
-301.793	170.001	-0.097	-0.138
-300.778	-70.960	0.399	0.149
-299.764	438.022	0.043	-0.093
-298.749	431.816	-0.184	0.396
-297.735	-200.000	-0.011	0.147
-296.720	602.117	0.100	0.247
-295.705	-115.626	-0.296	-0.055
-294.691	196.310	-0.079	0.119
-293.676	51.515	0.304	0.287
-292.662	65.250	-0.290	0.291
-291.647	-200.000	-0.081	0.365
-290.632	-58.916	-0.310	-0.133
-289.618	-36.762	0.233	-0.124
-288.603	490.297	0.149	-0.339
-287.589	140.327	0.154	-0.202
-286.574	-200.000	0.012	0.342
-285.559	800.000	0.062	0.200
-284.545	-134.178	-0.461	-0.056
-283.530	-200.000	0.044	0.278
-282.516	800.000	0.040	-0.138
-281.501	-125.813	0.317	0.048
-280.486	-80.777	-0.291	-0.096
-279.472	800.000	0.080	-0.233
-278.457	800.000	-0.026	0.108
-277.443	-200.000	0.040	0.203
-276.428	12.514	-0.062	-0.048
-275.413	649.410	0.090	-0.228
-274.399	-200.000	-0.037	-0.164
-273.384	-120.091	0.204	-0.035
-272.370	800.000	-0.022	-0.094
-271.355	220.044	-0.132	0.210
-270.340	165.809	0.048	0.068
-269.326	-155.461	0.251	0.016
-268.311	508.718	0.040	-0.092
-267.297	800.000	-0.083	-0.281
-266.282	-108.613	0.163	-0.035
-265.267	419.673	0.126	0.268
-264.253	-7.951	-0.171	-0.114
-263.238	101.324	0.251	0.290
-262.224	800.000	-0.033	-0.118
-261.209	429.788	-0.030	-0.065
-260.195	247.586	0.136	0.227
-259.180	800.000	-0.118	0.366
-258.165	64.455	-0.201	0.201
-257.151	-200.000	0.031	0.279
-256.136	130.836	-0.095	-0.120
-255.122	-118.951	-0.075	0.013
-254.107	106.105	-0.015	-0.017
-253.092	256.755	0.081	-0.139
-252.078	800.000	0.091	-0.314
-251.063	800.000	0.070	0.200
-250.049	-103.126	-0.169	0.040
-249.034	800.000	-0.103	-0.307
-248.019	-6.154	-0.298	0.202
-247.005	-200.000	-0.014	0.280
-245.990	800.000	-0.091	-0.372
-244.976	-166.956	-0.407	-0.017
-243.961	-200.000	-0.012	0.394
-242.946	-200.000	0.050	-0.403
-241.932	-128.046	-0.206	-0.029
-240.917	42.513	0.142	0.128
-239.903	39.775	0.202	-0.180
-238.888	-13.986	0.144	0.092
-237.873	343.294	-0.060	-0.117
-236.859	-83.565	0.253	0.080
-235.844	10.064	-0.058	0.044
-234.830	800.000	0.080	-0.301
-233.815	156.345	-0.077	0.106
-232.800	-59.930	0.093	0.039
-231.786	800.000	-0.045	-0.164
-230.771	-200.000	0.031	-0.154
-229.757	389.987	-0.030	0.061
-228.742	-48.868	-0.093	0.044
-227.727	-105.033	-0.085	-0.019
-226.713	478.754	-0.028	0.063
-225.698	-123.560	0.119	0.019
-224.684	-9.261	0.310	0.205
-223.669	-81.807	0.172	0.056
-222.655	-5.305	0.158	0.108
-221.640	770.569	-0.013	-0.036
-220.625	-120.944	-0.138	-0.023
-219.611	-77.952	-0.072	-0.025
-218.596	-98.392	-0.335	0.085
-217.582	730.365	-0.115	0.304
-216.567	-42.695	0.208	0.105
-215.552	46.250	0.043	-0.040
-214.538	30.416	-0.067	0.057
-213.523	-23.129	-0.322	0.192
-212.509	-6.508	-0.222	-0.150
-211.494	-90.450	0.195	0.056
-210.479	-23.589	-0.311	0.185
-209.465	-161.448	0.167	0.009
-208.450	-28.596	0.338	0.193
-207.436	-134.728	-0.363	0.044
-206.421	-169.128	-0.228	0.008
-205.406	303.589	0.034	0.063
-204.392	-200.000	0.050	0.272
-203.377	774.088	-0.130	0.351
-202.363	280.637	0.028	0.049
-201.348	18.642	0.423	0.335
-200.333	14.913	-0.032	-0.024
-199.319	626.305	0.038	-0.095
-198.304	-10.410	0.245	0.161
-197.290	800.000	0.073	0.311
-196.275	-200.000	0.000	0.055
-195.260	-25.738	0.190	0.111
-194.246	-200.000	0.012	-0.145
-193.231	28.512	-0.289	0.242
-192.217	-65.777	-0.078	-0.031
-191.202	-31.609	0.023	0.013
-190.187	-177.924	-0.305	0.007
-189.173	-163.794	-0.207	-0.010
-188.158	13.677	0.266	-0.204
-187.144	-41.840	0.050	0.025
-186.129	-200.000	-0.005	-0.094
-185.114	126.518	0.122	0.152
-184.100	661.948	-0.042	0.106
-183.085	228.992	-0.156	0.252
-182.071	-9.350	-0.119	0.079
-181.056	-128.605	-0.180	0.025
-180.042	93.046	0.177	0.198
-179.027	496.000	-0.079	-0.178
-178.012	800.000	0.128	-0.451
-176.998	-200.000	0.044	-0.231
-175.983	-116.535	-0.135	-0.025
-174.969	79.132	-0.179	0.189
-173.954	-97.222	0.130	-0.034
-172.939	-159.520	0.226	-0.012
-171.925	253.246	0.117	0.197
-170.910	75.658	0.195	-0.204
-169.896	-169.364	-0.178	0.006
-168.881	-115.091	-0.370	0.069
-167.866	-200.000	-0.020	0.228
-166.852	187.435	-0.029	0.043
-165.837	-70.078	0.082	-0.031
-164.823	800.000	0.019	-0.062
-163.808	-93.591	0.206	-0.056
-162.793	75.361	-0.192	0.201
-161.779	800.000	-0.038	0.115
-160.764	-70.947	-0.214	-0.080
-159.750	800.000	0.091	-0.390
-158.735	-17.952	-0.106	0.066
-157.720	-84.618	-0.144	-0.045
-156.706	800.000	-0.177	0.501
-155.691	-80.224	0.017	0.006
-154.677	-30.316	0.308	-0.173
-153.662	-115.054	-0.462	0.087
-152.647	-177.355	-0.199	-0.005
-151.633	23.874	0.171	0.139
-150.618	800.000	-0.100	-0.290
-149.604	-200.000	0.050	-0.311
-148.589	91.408	0.079	0.088
-147.574	762.104	-0.138	0.370
-146.560	41.141	0.123	0.110
-145.545	-92.860	-0.164	0.045
-144.531	-200.000	0.037	0.288
-143.516	-200.000	0.018	-0.343
-142.502	11.902	-0.099	-0.075
-141.487	-200.000	0.009	-0.137
-140.472	384.845	-0.022	-0.045
-139.458	-152.605	-0.249	0.018
-138.443	-96.241	0.199	-0.052
-137.429	800.000	-0.099	-0.276
-136.414	44.741	-0.103	0.093
-135.399	-106.754	0.186	-0.041
-134.385	800.000	0.068	-0.190
-133.370	320.058	0.047	-0.087
-132.356	58.718	0.015	-0.014
-131.341	84.071	0.224	0.242
-130.326	800.000	-0.057	-0.177
-129.312	800.000	0.014	-0.055
-128.297	-78.315	-0.342	0.116
-127.283	90.042	0.169	0.186
-126.268	-200.000	0.020	0.302
-125.253	-146.623	0.271	0.023
-124.239	-200.000	-0.061	0.367
-123.224	-59.744	0.294	0.124
-122.210	-200.000	-0.012	0.114
-121.195	1.463	-0.208	0.147
-120.180	-76.938	0.181	-0.062
-119.166	666.743	-0.011	0.028
-118.151	-119.173	0.425	-0.073
-117.137	-200.000	0.019	-0.279
-116.122	2.675	-0.175	0.125
-115.107	119.275	0.274	0.334
-114.093	203.247	-0.307	0.468
-113.078	-145.205	-0.310	0.028
-112.064	800.000	0.009	0.025
-111.049	389.450	0.090	-0.184
-110.034	-69.004	-0.295	-0.112
-109.020	718.941	-0.054	-0.143
-108.005	-18.596	0.160	0.099
-106.991	-127.806	-0.104	0.015
-105.976	24.751	0.065	-0.053
-104.962	-200.000	-0.030	-0.274
-103.947	-31.905	-0.269	0.149
-102.932	-200.000	-0.104	-0.465
-101.918	-200.000	0.005	0.087
-100.903	89.430	-0.172	-0.189
-99.889	-31.891	-0.132	-0.073
-98.874	-130.491	-0.285	-0.038
-97.859	52.390	-0.103	-0.097
-96.845	120.448	0.245	0.300
-95.830	-56.714	-0.137	0.060
-94.816	-200.000	0.027	-0.331
-93.801	-18.435	0.196	-0.121
-92.786	800.000	-0.127	-0.394
-91.772	104.146	0.065	0.075
-90.757	99.948	0.178	-0.203
-89.743	-23.948	0.153	-0.090
-88.728	67.731	0.128	0.129
-87.713	55.675	-0.449	0.429
-86.699	-122.961	0.065	0.010
-85.684	800.000	0.109	0.323
-84.670	800.000	-0.095	-0.265
-83.655	-137.567	-0.416	-0.046
-82.640	-130.772	0.265	-0.035
-81.626	79.530	-0.141	0.149
-80.611	334.438	-0.036	-0.068
-79.597	474.587	-0.069	0.154
-78.582	144.771	0.104	0.136
-77.567	102.530	0.087	0.100
-76.553	18.960	-0.398	0.314
-75.538	-68.066	-0.159	-0.061
-74.524	535.100	0.095	0.223
-73.509	59.638	-0.113	0.110
-72.494	-200.000	0.024	-0.240
-71.480	-36.798	0.199	-0.105
-70.465	-159.096	0.356	0.020
-69.451	29.623	-0.178	-0.149
-68.436	-76.791	-0.149	-0.051
-67.422	-116.377	-0.180	0.033
-66.407	661.187	-0.116	-0.294
-65.392	-200.000	0.217	-0.001
-64.378	-29.422	-0.236	-0.133
-63.363	26.854	-0.097	0.080
-62.349	-200.000	0.014	-0.108
-61.334	167.624	-0.876	-1.225
-60.319	66.714	0.433	0.433
-59.305	800.000	-0.339	-1.136
-58.290	328.319	0.528	0.999
-57.276	655.588	0.601	1.519
-56.261	-200.000	116.781	657.895
-55.246	511.818	1539.123	3526.334
-54.232	171.782	2719.586	3843.442
-53.217	97.431	2335.588	2638.868
-52.203	33.358	2079.635	1775.932
-51.188	28.451	1994.426	1658.827
-50.173	27.150	1977.307	1632.849
-49.159	45.309	2037.075	1848.341
-48.144	44.060	2052.033	1850.446
-47.130	28.999	2010.387	1676.836
-46.115	26.733	2000.456	1647.909
-45.100	26.704	1997.435	1645.093
-44.086	26.719	1995.112	1643.247
-43.071	26.658	1992.665	1640.619
-42.057	26.531	1990.744	1637.822
-41.042	26.584	1988.599	1636.466
-40.027	26.622	1986.257	1634.815
-39.013	26.639	1984.295	1633.289
-37.998	26.740	1982.517	1632.676
-36.984	26.601	1980.958	1630.075
-35.969	26.624	1979.406	1628.938
-34.954	26.688	1977.541	1627.917
-33.940	26.682	1976.211	1626.699
-32.925	26.709	1974.377	1625.373
-31.911	26.747	1972.499	1624.097
-30.896	26.710	1970.697	1622.218
-29.881	26.756	1969.256	1621.385
-28.867	26.856	1967.463	1620.736
-27.852	26.761	1966.067	1618.670
-26.838	26.753	1964.161	1616.968
-25.823	26.784	1962.236	1615.598
-24.809	26.807	1960.204	1614.064
-23.794	26.841	1958.421	1612.829
-22.779	26.800	1956.737	1611.019
-21.765	26.757	1955.572	1609.613
-20.750	26.820	1953.550	1608.444
-19.736	26.841	1952.217	1607.468
-18.721	26.890	1950.155	1606.142
-17.706	26.854	1948.594	1604.473
-16.692	26.808	1947.084	1602.759
-15.677	26.785	1945.609	1601.275
-14.663	26.858	1944.694	1601.104
-13.648	26.728	1943.256	1598.708
-12.633	26.718	1942.296	1597.766
-11.619	26.770	1940.325	1596.540
-10.604	26.744	1938.761	1594.960
-9.590	26.777	1937.282	1593.975
-8.575	26.736	1936.487	1592.900
-7.560	26.688	1935.152	1591.310
-6.546	26.716	1933.548	1590.179
-5.531	26.755	1932.054	1589.225
-4.517	26.772	1931.391	1588.766
-3.502	26.783	1929.962	1587.624
-2.487	26.776	1928.671	1586.437
-1.473	26.792	1927.699	1585.714
-0.458	26.790	1923.092	1581.850
0.556	27.705	1903.425	1554.724
1.571	23.529	1885.788	1504.840
2.586	19.810	1908.871	1491.119
3.600	18.868	1944.689	1510.690
4.615	18.418	1937.759	1501.230
5.629	14.022	1835.851	1385.580
6.644	6.801	1722.036	1242.916
7.659	3.610	1689.076	1194.356
8.673	3.315	1685.923	1189.742
9.688	3.296	1684.790	1188.697
10.702	3.324	1683.879	1188.160
11.717	3.415	1679.976	1186.004
12.731	3.835	1679.113	1188.515
13.746	8.723	1690.101	1233.938
14.761	16.303	1707.178	1305.090
15.775	20.001	1713.899	1338.756
16.790	20.237	1712.801	1339.600
17.804	19.341	1710.019	1330.395
18.819	18.235	1706.971	1319.381
19.834	17.736	1703.952	1313.091
20.848	17.490	1702.654	1310.086
21.863	17.472	1700.808	1308.407
22.877	17.132	1699.887	1304.970
23.892	16.991	1698.645	1302.822
24.907	16.958	1697.576	1301.629
25.921	16.898	1696.153	1299.968
26.936	16.936	1695.497	1299.638
27.950	16.854	1694.337	1298.009
28.965	16.956	1693.480	1298.017
29.980	17.002	1693.153	1298.004
30.994	17.111	1692.306	1298.069
32.009	17.176	1690.741	1297.251
33.023	17.224	1689.653	1296.669
34.038	17.340	1689.264	1297.138
35.053	17.286	1687.759	1295.458
36.067	17.181	1686.514	1293.587
37.082	17.125	1685.918	1292.590
38.096	17.079	1684.826	1291.289
39.111	17.118	1684.582	1291.283
40.126	17.127	1683.374	1290.317
41.140	17.146	1681.940	1289.241
42.155	16.992	1680.168	1286.608
43.169	16.791	1678.664	1283.815
44.184	16.796	1677.734	1283.032
45.199	16.803	1676.149	1281.752
46.213	16.732	1675.391	1280.524
47.228	16.749	1674.281	1279.690
48.242	16.910	1672.906	1279.743
49.257	17.049	1672.521	1280.387
50.271	17.049	1670.773	1278.934
51.286	16.921	1670.022	1277.281
52.301	17.106	1667.740	1276.811
53.315	17.072	1667.038	1275.907
54.330	16.903	1665.991	1273.728
55.344	16.808	1664.000	1271.378
56.359	16.792	1662.415	1269.930
57.374	16.905	1661.189	1269.730
58.388	16.928	1659.982	1268.865
59.403	16.822	1658.724	1266.999
60.417	16.734	1657.259	1265.116
61.432	16.762	1656.014	1264.260
62.447	16.717	1654.789	1262.878
63.461	16.626	1653.702	1261.256
64.476	16.567	1652.754	1259.986
65.490	16.510	1651.545	1258.525
66.505	16.630	1649.446	1257.707
67.520	16.603	1648.843	1256.933
68.534	16.561	1648.299	1256.101
69.549	16.632	1647.436	1255.856
70.563	16.729	1645.598	1255.060
71.578	16.638	1644.362	1253.331
72.593	16.531	1643.498	1251.773
73.607	16.486	1642.142	1250.294
74.622	16.467	1641.096	1249.251
75.636	16.450	1640.081	1248.242
76.651	16.496	1639.234	1247.826
77.666	16.540	1638.518	1247.494
78.680	16.539	1637.492	1246.599
79.695	16.518	1637.007	1245.960
80.709	16.624	1636.236	1246.046
81.724	16.654	1635.305	1245.445
82.739	16.745	1634.602	1245.469
83.753	16.877	1633.167	1245.237
84.768	16.871	1632.562	1244.619
85.782	16.918	1632.078	1244.488
86.797	16.996	1631.655	1244.623
87.812	17.071	1630.278	1244.018
88.826	17.048	1628.779	1242.594
89.841	16.982	1627.796	1241.253
90.855	17.068	1626.763	1240.981
91.870	17.004	1626.139	1239.930
92.884	17.217	1624.668	1240.249
93.899	17.231	1623.144	1239.077
94.914	17.107	1622.529	1237.594
95.928	17.116	1621.614	1236.853
96.943	17.272	1619.783	1236.483
97.957	17.229	1618.140	1234.806
98.972	17.078	1616.886	1232.643
99.987	17.085	1615.347	1231.417
101.001	17.090	1614.139	1230.417
102.016	17.001	1612.855	1228.693
103.030	17.049	1611.141	1227.624
104.045	17.126	1609.987	1227.191
105.060	17.165	1608.553	1226.273
106.074	17.069	1607.023	1224.300
107.089	16.960	1605.125	1221.962
108.103	16.723	1603.300	1218.762
109.118	16.617	1601.877	1216.812
110.133	16.580	1600.399	1215.311
111.147	16.585	1599.271	1214.387
112.162	16.547	1598.074	1213.095
113.176	16.743	1596.441	1213.155
114.191	16.716	1595.283	1211.973
115.206	16.806	1593.966	1211.511
116.220	16.825	1592.482	1210.410
117.235	16.765	1591.396	1209.048
118.249	16.758	1590.068	1207.882
119.264	16.681	1588.747	1206.222
120.279	16.682	1587.458	1205.143
121.293	16.670	1585.791	1203.685
122.308	16.619	1584.208	1202.016
123.322	16.580	1582.943	1200.675
124.337	16.495	1581.111	1198.574
125.352	16.497	1579.988	1197.630
126.366	16.513	1578.556	1196.555
127.381	16.554	1577.561	1195.983
128.395	16.450	1577.151	1194.834
129.410	16.487	1575.295	1193.580
130.424	16.525	1573.963	1192.733
131.439	16.637	1572.546	1192.345
132.454	16.689	1571.128	1191.529
133.468	16.683	1569.977	1190.509
134.483	16.646	1568.396	1188.947
135.497	16.660	1567.357	1188.152
136.512	16.729	1565.848	1187.387
137.527	16.723	1564.397	1186.135
138.541	16.742	1563.528	1185.507
139.556	16.822	1561.871	1184.707
140.570	16.923	1560.135	1183.992
141.585	16.847	1559.144	1182.601
142.600	17.025	1558.324	1183.116
143.614	17.064	1556.704	1182.054
144.629	17.188	1555.631	1181.998
145.643	17.247	1554.064	1181.110
146.658	17.216	1553.196	1180.130
147.673	17.209	1551.533	1178.717
148.687	16.994	1550.214	1176.120
149.702	17.009	1548.335	1174.694
150.716	16.860	1546.753	1172.361
151.731	16.875	1545.059	1171.074
152.746	16.877	1544.098	1170.256
153.760	16.889	1542.551	1169.064
154.775	16.945	1541.558	1168.595
155.789	17.048	1540.446	1168.358
156.804	17.113	1539.354	1167.875
157.819	17.100	1537.463	1166.247
158.833	17.185	1536.675	1166.125
159.848	17.155	1535.679	1165.064
160.862	17.298	1534.600	1165.119
161.877	17.391	1533.554	1164.864
162.892	17.213	1531.599	1162.053
163.906	16.908	1530.665	1159.157
164.921	16.850	1529.442	1157.735
165.935	17.001	1527.761	1157.391
166.950	16.980	1527.260	1156.767
167.964	17.060	1526.042	1156.282
168.979	17.095	1525.296	1155.854
169.994	17.056	1524.054	1154.545
171.008	17.077	1522.936	1153.737
172.023	17.085	1521.547	1152.637
173.037	17.142	1520.547	1152.165
174.052	17.216	1519.590	1151.844
175.067	17.398	1518.624	1152.237
176.081	17.257	1516.936	1149.906
177.096	17.055	1515.411	1147.283
178.110	16.998	1514.665	1146.229
179.125	17.039	1513.345	1145.408
180.140	17.072	1512.413	1144.823
181.154	17.150	1511.086	1144.240
182.169	17.202	1510.223	1143.839
183.183	17.211	1509.549	1143.283
184.198	17.352	1508.507	1143.344
185.213	17.428	1507.459	1142.961
186.227	17.283	1506.497	1141.156
187.242	17.338	1504.933	1140.236
188.256	17.440	1503.896	1140.037
189.271	17.554	1502.730	1139.811
190.286	17.568	1502.163	1139.375
191.300	17.365	1501.191	1137.183
192.315	17.207	1499.725	1134.916
193.329	16.933	1497.584	1131.363
194.344	16.914	1496.689	1130.462
195.359	17.054	1496.098	1130.850
196.373	17.052	1495.319	1130.148
197.388	17.202	1494.258	1130.244
198.402	17.284	1493.084	1129.799
199.417	17.376	1492.067	1129.543
200.432	17.540	1491.163	1129.842
201.446	17.600	1490.275	1129.469
202.461	17.705	1489.440	1129.431
203.475	17.745	1487.962	1128.474
204.490	17.861	1486.623	1128.131
205.504	17.706	1486.318	1126.772
206.519	17.507	1485.016	1124.372
207.534	17.397	1483.844	1122.659
208.548	17.540	1482.236	1122.288
209.563	17.490	1481.030	1120.946
210.577	17.541	1480.385	1120.689
211.592	17.542	1479.518	1119.947
212.607	17.628	1478.991	1120.008
213.621	17.635	1478.589	1119.652
214.636	17.804	1477.312	1119.695
215.650	17.683	1476.238	1117.993
216.665	17.695	1475.592	1117.483
217.680	17.740	1474.721	1117.017
218.694	17.840	1473.723	1116.818
219.709	17.940	1473.071	1116.875
220.723	17.952	1471.623	1115.761
221.738	17.872	1471.100	1114.741
222.753	17.940	1469.959	1114.220
223.767	17.863	1469.184	1113.031
224.782	17.873	1468.325	1112.348
225.796	17.903	1468.012	1112.209
226.811	17.974	1467.003	1111.810
227.826	17.960	1465.956	1110.823
228.840	17.956	1464.779	1109.811
229.855	17.832	1464.170	1108.446
230.869	17.923	1463.109	1108.131
231.884	17.844	1461.843	1106.566
232.899	17.760	1460.671	1105.038
233.913	17.711	1460.176	1104.243
234.928	17.724	1458.438	1102.916
235.942	17.705	1457.076	1101.666
236.957	17.751	1455.646	1100.786
237.972	17.630	1454.782	1099.254
238.986	17.777	1453.329	1099.006
240.001	17.804	1452.588	1098.522
241.015	17.860	1451.138	1097.689
242.030	17.824	1450.205	1096.653
243.045	17.881	1449.500	1096.393
244.059	17.882	1448.606	1095.625
245.074	17.967	1447.759	1095.431
246.088	17.924	1446.977	1094.469
247.103	18.076	1446.192	1094.749
248.117	18.096	1445.564	1094.303
249.132	18.224	1444.784	1094.440
250.147	18.247	1444.338	1094.150
251.161	18.371	1443.674	1094.342
252.176	18.453	1443.278	1094.467
253.190	18.494	1442.773	1094.252
254.205	18.548	1441.768	1093.736
255.220	18.599	1440.778	1093.216
256.234	18.696	1439.775	1092.978
257.249	18.776	1438.931	1092.745
258.263	18.656	1438.075	1091.234
259.278	18.619	1437.139	1090.193
260.293	18.644	1436.189	1089.533
261.307	18.555	1435.475	1088.334
262.322	18.673	1434.929	1088.572
263.336	18.665	1434.421	1088.040
264.351	18.750	1433.221	1087.572
265.366	18.777	1432.021	1086.736
266.380	18.786	1431.139	1086.025
267.395	18.730	1430.619	1085.183
268.409	18.747	1429.355	1084.233
269.424	18.671	1428.729	1083.182
270.439	18.705	1427.230	1082.167
271.453	18.571	1426.684	1080.811
272.468	18.736	1425.301	1080.707
273.482	18.612	1424.560	1079.269
274.497	18.596	1423.697	1078.421
275.512	18.583	1422.503	1077.337
276.526	18.501	1422.069	1076.401
277.541	18.610	1420.711	1075.961
278.555	18.580	1419.961	1075.108
279.570	18.603	1419.279	1074.639
280.585	18.799	1418.153	1074.922
281.599	18.798	1417.922	1074.645
282.614	18.824	1417.288	1074.229
283.628	18.803	1415.537	1072.679
284.643	18.785	1414.313	1071.544
285.657	18.840	1412.978	1070.775
286.672	18.690	1412.275	1069.219
287.687	18.730	1411.834	1069.035
288.701	18.618	1410.645	1067.343
289.716	18.839	1409.254	1067.572
290.730	18.820	1409.030	1067.192
291.745	18.806	1407.874	1066.131
292.760	18.839	1406.522	1065.219
293.774	18.896	1405.803	1064.933
294.789	18.833	1404.904	1063.770
295.803	18.930	1404.852	1064.236
296.818	18.942	1403.599	1063.265
297.833	18.886	1402.211	1061.773
298.847	18.949	1400.902	1061.076
299.862	18.891	1400.140	1060.052
300.876	18.853	1399.174	1058.993
301.891	18.832	1398.292	1058.101
302.906	18.924	1397.809	1058.205
303.920	18.974	1396.990	1057.801
304.935	19.136	1396.567	1058.385
305.949	19.256	1395.337	1058.092
306.964	19.254	1394.963	1057.704
307.979	19.249	1394.083	1056.915
308.993	19.247	1392.869	1055.885
310.008	19.252	1391.635	1054.892
311.022	19.203	1390.752	1053.824
312.037	19.176	1389.690	1052.765
313.052	19.265	1389.307	1052.926
314.066	19.262	1387.905	1051.751
315.081	19.157	1386.410	1049.882
316.095	19.094	1385.321	1048.585
317.110	19.007	1384.063	1047.008
318.125	19.028	1383.387	1046.532
319.139	18.987	1382.292	1045.361
320.154	19.022	1381.354	1044.774
321.168	19.035	1380.602	1044.190
322.183	19.062	1379.509	1043.433
323.197	19.006	1379.031	1042.640
324.212	19.038	1377.731	1041.760
325.227	19.148	1377.104	1041.861
326.241	19.188	1376.205	1041.332
327.256	19.211	1374.858	1040.357
328.270	19.115	1374.424	1039.359
329.285	19.112	1373.411	1038.477
330.300	19.114	1372.606	1037.791
331.314	19.179	1371.440	1037.211
332.329	19.132	1370.276	1035.954
333.343	19.168	1369.829	1035.740
334.358	19.223	1368.755	1035.172
335.373	19.256	1368.035	1034.728
336.387	19.239	1367.667	1034.261
337.402	19.374	1366.469	1034.072
338.416	19.350	1366.232	1033.658
339.431	19.442	1365.185	1033.326
340.446	19.519	1364.745	1033.362
341.460	19.532	1364.089	1032.850
342.475	19.613	1363.068	1032.467
343.489	19.751	1362.086	1032.459
344.504	19.689	1361.267	1031.374
345.519	19.749	1360.393	1030.982
346.533	19.845	1359.694	1030.933
347.548	19.865	1358.453	1030.019
348.562	19.839	1357.808	1029.285
349.577	19.955	1356.787	1029.111
350.592	19.784	1356.238	1027.584
351.606	19.745	1355.024	1026.343
352.621	19.640	1353.753	1024.668
353.635	19.487	1352.864	1022.999
354.650	19.571	1351.732	1022.548
355.665	19.496	1350.936	1021.408
356.679	19.627	1349.752	1021.200
357.694	19.608	1348.803	1020.280
358.708	19.711	1348.045	1020.220
359.723	19.713	1346.984	1019.343
360.738	19.739	1346.099	1018.733
361.752	19.711	1345.095	1017.723
362.767	19.814	1343.540	1017.060
363.781	19.748	1342.499	1015.793
364.796	19.832	1342.100	1015.895
365.810	19.808	1341.400	1015.135
366.825	19.902	1340.914	1015.230
367.840	20.054	1340.287	1015.552
368.854	20.084	1339.797	1015.270
369.869	20.236	1339.077	1015.521
370.883	20.280	1338.215	1015.035
371.898	20.203	1337.321	1013.817
372.913	20.080	1336.793	1012.608
373.927	20.060	1335.748	1011.613
374.942	20.078	1334.678	1010.820
375.956	20.133	1334.164	1010.662
376.971	20.142	1333.461	1010.090
377.986	20.138	1332.242	1009.057
379.000	20.189	1331.312	1008.558
380.015	20.153	1331.162	1008.147
381.029	20.302	1330.581	1008.482
382.044	20.359	1329.434	1007.856
383.059	20.423	1328.966	1007.783
384.073	20.356	1328.202	1006.722
385.088	20.416	1327.293	1006.292
386.102	20.468	1326.555	1005.948
387.117	20.417	1325.977	1005.124
388.132	20.357	1325.332	1004.197
389.146	20.252	1324.301	1002.721
390.161	20.168	1323.388	1001.457
391.175	20.199	1322.709	1001.033
392.190	20.163	1321.818	1000.061
393.205	20.222	1320.885	999.607
394.219	20.407	1320.001	999.915
395.234	20.470	1318.436	999.008
396.248	20.373	1317.293	997.493
397.263	20.334	1316.239	996.384
398.278	20.245	1314.592	994.539
399.292	20.210	1313.502	993.425
400.307	20.167	1312.477	992.315
401.321	20.076	1311.524	990.986
402.336	20.099	1310.742	990.438
403.350	20.105	1309.567	989.500
404.365	20.142	1308.254	988.628
405.380	20.095	1308.065	988.134
406.394	20.193	1307.353	988.065
407.409	20.271	1306.547	987.814
408.423	20.450	1305.774	988.156
409.438	20.506	1305.075	987.861
410.453	20.540	1304.258	987.348
411.467	20.618	1303.644	987.239
412.482	20.538	1303.077	986.270
413.496	20.684	1302.289	986.414
414.511	20.685	1301.636	985.836
415.526	20.704	1300.801	985.222
416.540	20.825	1300.257	985.409
417.555	20.867	1299.866	985.262
418.569	20.930	1299.093	984.945
419.584	20.841	1298.486	983.894
420.599	20.864	1297.716	983.357
421.613	145.470	1435.415	1797.409
422.628	140.679	1455.430	1797.474
