DTS Sentinel unit serial number:	SN413079Multiplexer serial number:	ORYXHardware model number:	OX4-SRSoftware version number:	ORYX F/W v4.00 Oryx Data Collector v3.7.2.0data status	okinstallation	princeton_trtdifferential loss correction	single-endedforward channel	channel 4reverse channel	N/Adate	2019/09/18time	00:25:35forward acquisition time	60.00reverse acquisition time	0.00gamma	496.2192k internal	0.2333k external	0.2333temperature offset calibration	0.9999default loss term (dB/km)	0.3790temperature slope calibration	1.0000multiplexer offset coefficient	1.0000multiplexer slope coefficient	1.0000fibre end	0.00T internal ref (°C)	23.56T ext. ref 1 (°C)	0.17T ext. ref 2 (°C)	17.21length (m)	temperature (°C)	Stokes	anti-Stokes-747.200	-200.000	-0.018	0.116
-746.185	28.434	-0.197	0.168
-745.171	2.880	-0.169	-0.124
-744.156	-95.081	-0.316	0.086
-743.142	-200.000	0.018	0.352
-742.127	800.000	-0.173	0.575
-741.112	627.154	-0.119	0.302
-740.098	-3.952	-0.226	0.158
-739.083	800.000	-0.054	0.204
-738.069	-200.000	0.001	0.159
-737.054	247.623	0.049	-0.084
-736.039	-200.000	0.018	-0.193
-735.025	298.028	0.168	-0.310
-734.010	-81.482	-0.115	0.038
-732.996	124.850	-0.079	-0.099
-731.981	255.998	-0.047	0.081
-730.966	-100.339	0.220	0.055
-729.952	-154.524	-0.412	-0.028
-728.937	36.289	0.140	-0.124
-727.923	-159.308	0.162	-0.009
-726.908	-200.000	-0.035	-0.199
-725.894	-50.984	0.338	-0.159
-724.879	-21.632	-0.056	-0.034
-723.864	-39.253	-0.060	0.032
-722.850	145.837	-0.079	-0.107
-721.835	366.153	0.032	0.066
-720.821	-33.825	0.340	0.188
-719.806	166.124	0.271	0.386
-718.791	381.401	0.149	-0.306
-717.777	-200.000	-0.035	0.324
-716.762	800.000	0.085	-0.258
-715.748	181.352	0.053	0.078
-714.733	-65.347	0.102	-0.041
-713.718	513.301	0.098	0.229
-712.704	101.150	-0.063	0.074
-711.689	-200.000	-0.004	0.059
-710.675	-67.523	-0.065	-0.026
-709.660	-200.000	-0.021	-0.213
-708.645	129.561	0.203	0.261
-707.631	63.607	0.167	0.168
-706.616	-200.000	0.024	-0.149
-705.602	-48.224	-0.098	-0.048
-704.587	-87.105	0.250	0.076
-703.572	-145.841	0.160	0.014
-702.558	800.000	-0.045	0.141
-701.543	87.497	-0.235	-0.261
-700.529	-9.050	0.144	-0.097
-699.514	57.380	0.216	0.212
-698.499	-25.422	-0.170	-0.101
-697.485	457.159	-0.122	0.272
-696.470	-97.252	0.153	0.040
-695.456	-68.922	0.243	0.094
-694.441	-103.893	0.109	-0.026
-693.426	-61.945	0.083	-0.035
-692.412	95.688	-0.348	-0.399
-691.397	96.975	-0.132	-0.152
-690.383	800.000	-0.025	0.085
-689.368	-92.486	0.335	-0.095
-688.354	82.508	-0.071	0.078
-687.339	138.836	-0.134	-0.176
-686.324	-71.205	0.202	-0.076
-685.310	-4.572	-0.369	0.255
-684.295	-39.138	-0.153	0.081
-683.281	-138.918	-0.086	0.009
-682.266	-114.727	-0.117	-0.022
-681.251	-200.000	0.012	-0.460
-680.237	-200.000	-0.017	-0.076
-679.222	-58.006	-0.262	0.115
-678.208	-200.000	0.038	0.197
-677.193	501.951	-0.147	0.341
-676.178	-9.579	0.024	0.016
-675.164	62.201	0.258	-0.258
-674.149	800.000	-0.122	-0.525
-673.135	25.435	-0.146	-0.122
-672.120	209.680	0.048	0.076
-671.105	-80.951	-0.292	0.097
-670.091	5.753	0.204	-0.151
-669.076	-200.000	0.070	0.390
-668.062	-55.664	0.035	0.016
-667.047	94.709	-0.080	0.092
-666.032	-52.775	-0.149	-0.069
-665.018	59.296	0.164	-0.162
-664.003	-80.216	0.176	-0.059
-662.989	800.000	-0.085	0.288
-661.974	-34.017	-0.374	-0.206
-660.959	76.766	-0.112	0.119
-659.945	18.275	-0.257	0.205
-658.930	207.745	-0.102	-0.160
-657.916	-115.645	0.247	0.047
-656.901	10.931	-0.278	0.213
-655.886	99.854	-0.212	0.246
-654.872	-57.704	0.413	-0.181
-653.857	-200.000	0.064	-0.308
-652.843	-156.770	0.117	0.007
-651.828	-141.594	-0.184	0.019
-650.814	-200.000	0.028	0.224
-649.799	-62.599	-0.067	0.028
-648.784	-200.000	-0.016	0.263
-647.770	800.000	0.107	-0.346
-646.755	1.970	0.285	-0.206
-645.741	-167.749	0.227	0.009
-644.726	227.368	0.126	-0.204
-643.711	-101.904	0.438	0.106
-642.697	-43.096	-0.237	0.120
-641.682	-37.086	0.131	-0.071
-640.668	800.000	0.052	-0.206
-639.653	399.977	0.056	0.118
-638.638	72.866	-0.175	0.183
-637.624	-27.612	0.228	0.133
-636.609	-149.470	-0.236	0.019
-635.595	-122.332	-0.227	0.037
-634.580	424.079	-0.067	-0.145
-633.565	17.217	-0.425	-0.338
-632.551	34.300	-0.116	-0.101
-631.536	-42.000	-0.195	-0.100
-630.522	-2.612	-0.253	0.177
-629.507	800.000	0.036	-0.124
-628.492	-200.000	0.011	0.210
-627.478	-132.515	0.514	-0.066
-626.463	288.975	-0.103	-0.188
-625.449	79.782	0.126	-0.136
-624.434	800.000	0.046	0.166
-623.419	-81.982	0.179	0.059
-622.405	83.644	-0.130	-0.142
-621.390	-126.343	0.197	0.029
-620.376	4.283	-0.346	-0.254
-619.361	-77.792	0.244	0.084
-618.346	-21.596	-0.120	-0.073
-617.332	-78.013	0.401	-0.138
-616.317	-200.000	-0.015	-0.231
-615.303	-89.031	-0.297	0.088
-614.288	-200.000	-0.052	0.407
-613.273	496.157	-0.015	0.035
-612.259	-200.000	-0.006	-0.094
-611.244	-148.287	-0.091	-0.007
-610.230	23.272	0.092	0.076
-609.215	-56.999	0.180	-0.080
-608.201	-76.794	0.277	-0.097
-607.186	143.139	-0.057	-0.076
-606.171	62.909	0.157	0.157
-605.157	305.702	-0.106	0.197
-604.142	-200.000	0.004	-0.026
-603.128	-170.179	0.408	-0.014
-602.113	-200.000	-0.008	-0.234
-601.098	301.514	0.154	0.285
-600.084	-76.047	0.229	-0.081
-599.069	-200.000	0.019	0.320
-598.055	-200.000	-0.005	0.034
-597.040	-69.889	-0.223	0.085
-596.025	253.197	0.113	0.194
-595.011	-200.000	0.002	0.061
-593.996	22.039	-0.167	-0.136
-592.982	35.176	-0.158	-0.139
-591.967	-146.635	0.203	-0.018
-590.952	305.012	-0.117	0.218
-589.938	800.000	-0.083	-0.250
-588.923	87.816	-0.195	-0.216
-587.909	-120.258	-0.275	-0.047
-586.894	800.000	-0.051	-0.182
-585.879	-200.000	0.027	-0.146
-584.865	-17.576	0.216	0.136
-583.850	-67.258	0.383	-0.151
-582.836	595.071	0.091	0.224
-581.821	9.415	-0.218	-0.165
-580.806	-200.000	0.062	-0.318
-579.792	-39.217	0.067	0.035
-578.777	-9.487	0.008	0.005
-577.763	313.942	0.065	0.122
-576.748	-72.038	-0.382	-0.142
-575.733	368.831	0.069	0.139
-574.719	-191.870	-0.127	-0.001
-573.704	-47.541	0.058	-0.028
-572.690	-200.000	0.024	-0.183
-571.675	-90.418	-0.155	-0.045
-570.661	-200.000	-0.094	0.463
-569.646	800.000	-0.076	-0.283
-568.631	-13.753	0.523	0.338
-567.617	335.300	-0.066	0.128
-566.602	-200.000	0.046	-0.282
-565.588	-26.142	0.249	-0.146
-564.573	36.067	0.196	0.172
-563.558	-200.000	0.101	-0.774
-562.544	35.613	0.204	-0.179
-561.529	177.617	-0.072	-0.105
-560.515	800.000	0.114	-0.395
-559.500	-107.384	0.346	0.076
-558.485	264.226	0.086	0.149
-557.471	345.815	-0.167	0.327
-556.456	-200.000	0.006	0.398
-555.442	193.410	0.163	0.246
-554.427	-44.123	-0.118	0.059
-553.412	22.776	0.087	0.071
-552.398	83.661	-0.032	-0.034
-551.383	-25.212	-0.179	-0.106
-550.369	-139.748	0.200	0.021
-549.354	-96.289	-0.364	-0.096
-548.339	-109.453	-0.052	-0.011
-547.325	251.730	-0.078	-0.133
-546.310	-113.923	-0.083	0.016
-545.296	239.803	0.018	-0.029
-544.281	800.000	-0.118	0.372
-543.266	186.056	-0.062	-0.092
-542.252	67.392	-0.197	0.200
-541.237	-200.000	0.000	0.064
-540.223	153.138	0.133	-0.181
-539.208	-200.000	0.030	-0.181
-538.193	-89.770	0.405	-0.118
-537.179	152.945	-0.205	0.279
-536.164	800.000	-0.074	0.311
-535.150	260.797	-0.057	0.098
-534.135	248.553	-0.092	0.155
-533.121	64.177	-0.117	-0.118
-532.106	236.737	0.061	-0.100
-531.091	-200.000	-0.019	-0.199
-530.077	-200.000	0.027	0.220
-529.062	114.635	0.200	-0.243
-528.048	-99.415	0.195	-0.049
-527.033	-200.000	-0.073	-0.358
-526.018	-200.000	-0.013	-0.080
-525.004	341.613	0.050	-0.098
-523.989	-48.314	-0.116	0.056
-522.975	13.179	0.169	-0.131
-521.960	-141.853	-0.147	0.015
-520.945	-200.000	0.018	-0.218
-519.931	-167.573	-0.084	-0.003
-518.916	-115.200	0.124	-0.023
-517.902	-68.240	-0.502	-0.195
-516.887	800.000	0.105	0.314
-515.872	-27.543	0.307	0.177
-514.858	46.564	-0.302	-0.280
-513.843	-200.000	0.017	0.360
-512.829	-200.000	-0.054	-0.332
-511.814	680.332	-0.086	0.224
-510.799	-200.000	0.028	-0.198
-509.785	21.142	0.018	-0.014
-508.770	800.000	0.058	0.163
-507.756	-93.324	-0.280	-0.077
-506.741	406.139	-0.180	-0.378
-505.726	624.068	0.125	0.313
-504.712	-115.894	-0.421	-0.078
-503.697	-97.067	0.077	0.020
-502.683	29.086	-0.206	-0.174
-501.668	5.313	-0.279	-0.205
-500.653	-200.000	-0.011	0.073
-499.639	-117.585	-0.131	0.024
-498.624	82.971	-0.260	-0.282
-497.610	-58.584	-0.127	0.055
-496.595	-200.000	0.053	-0.238
-495.581	-47.084	-0.362	-0.176
-494.566	-200.000	-0.041	-0.207
-493.551	223.197	-0.228	-0.366
-492.537	-105.753	0.117	-0.026
-491.522	800.000	-0.030	0.116
-490.508	-142.800	0.113	0.011
-489.493	-121.539	-0.150	-0.025
-488.478	7.362	0.110	-0.082
-487.464	738.470	-0.029	-0.079
-486.449	366.194	-0.192	-0.385
-485.435	-68.606	-0.236	-0.091
-484.420	163.686	-0.138	0.194
-483.405	800.000	-0.038	0.136
-482.391	-13.396	-0.257	0.166
-481.376	-139.012	0.394	0.043
-480.362	-72.468	0.222	0.082
-479.347	-200.000	-0.044	-0.274
-478.332	674.219	-0.033	0.086
-477.318	128.451	-0.227	0.288
-476.303	-97.633	-0.214	-0.055
-475.289	257.961	-0.158	0.271
-474.274	-98.796	0.065	0.017
-473.259	172.752	0.119	0.171
-472.245	-174.449	-0.298	-0.009
-471.230	-63.891	0.435	0.177
-470.216	175.541	0.111	-0.161
-469.201	-22.093	-0.431	-0.260
-468.186	-200.000	0.038	0.347
-467.172	488.800	0.139	0.316
-466.157	-15.012	-0.147	-0.094
-465.143	800.000	-0.020	0.061
-464.128	-34.659	0.358	0.195
-463.113	56.891	0.133	0.129
-462.099	45.313	0.258	0.237
-461.084	-61.765	-0.175	0.073
-460.070	-38.292	0.046	-0.024
-459.055	-200.000	0.033	-0.165
-458.040	-89.075	-0.260	-0.076
-457.026	-200.000	0.036	-0.276
-456.011	282.928	0.070	-0.125
-454.997	800.000	-0.029	0.107
-453.982	-199.207	0.182	0.001
-452.968	115.385	-0.141	-0.171
-451.953	-200.000	-0.034	-0.156
-450.938	-110.943	-0.339	-0.069
-449.924	16.240	-0.273	0.214
-448.909	176.364	0.059	0.084
-447.895	-130.026	-0.046	-0.006
-446.880	-40.894	0.185	-0.095
-445.865	160.311	-0.065	0.090
-444.851	-86.639	0.059	-0.018
-443.836	-10.727	0.065	0.043
-442.822	142.263	0.219	-0.288
-441.807	-62.403	-0.092	0.038
-440.792	-81.345	0.212	0.069
-439.778	-200.000	-0.013	0.426
-438.763	105.807	-0.162	-0.191
-437.749	103.240	-0.308	-0.358
-436.734	65.457	-0.184	-0.185
-435.719	-71.312	-0.165	0.062
-434.705	-116.330	0.194	0.036
-433.690	-190.837	0.333	0.003
-432.676	431.680	-0.134	-0.289
-431.661	36.717	0.234	0.205
-430.646	-200.000	0.081	0.458
-429.632	-93.161	0.226	-0.063
-428.617	-8.211	0.188	0.126
-427.603	-50.344	0.177	-0.083
-426.588	-200.000	0.027	-0.286
-425.573	108.858	0.212	0.252
-424.559	-103.303	-0.078	-0.018
-423.544	-200.000	-0.001	-0.027
-422.530	-123.700	0.292	-0.046
-421.515	-200.000	-0.016	0.155
-420.500	131.537	0.024	0.031
-419.486	125.669	0.180	-0.225
-418.471	-200.000	0.039	0.337
-417.457	200.374	0.063	0.096
-416.442	9.740	0.227	0.171
-415.428	-200.000	-0.011	0.149
-414.413	800.000	-0.041	-0.142
-413.398	661.712	0.118	-0.303
-412.384	407.980	-0.062	0.130
-411.369	-52.859	0.164	0.075
-410.355	281.481	0.022	-0.040
-409.340	800.000	0.119	0.328
-408.325	56.352	0.096	-0.093
-407.311	-200.000	0.004	-0.039
-406.296	-129.525	0.138	-0.019
-405.282	-200.000	0.254	0.000
-404.267	192.255	-0.149	-0.222
-403.252	180.484	0.198	-0.289
-402.238	-136.120	-0.435	-0.051
-401.223	19.205	0.317	0.252
-400.209	313.602	-0.064	0.119
-399.194	-188.538	0.258	-0.003
-398.179	800.000	0.065	-0.204
-397.165	-42.234	-0.210	-0.106
-396.150	800.000	-0.068	-0.207
-395.136	-175.098	0.261	0.007
-394.121	102.041	0.201	0.233
-393.106	-146.695	-0.161	-0.014
-392.092	-0.935	-0.142	0.100
-391.077	25.542	0.408	-0.337
-390.063	-113.750	-0.331	0.064
-389.048	19.518	0.389	0.311
-388.033	-200.000	0.078	-0.676
-387.019	-1.337	0.155	-0.108
-386.004	-200.000	0.000	0.079
-384.990	-134.809	-0.269	-0.032
-383.975	800.000	-0.011	0.030
-382.960	88.707	0.297	0.327
-381.946	-200.000	0.011	0.048
-380.931	412.789	-0.075	0.159
-379.917	313.500	0.226	-0.421
-378.902	-19.708	0.181	-0.111
-377.888	-139.131	-0.078	0.008
-376.873	-97.489	0.202	-0.052
-375.858	-200.000	0.010	-0.149
-374.844	11.654	0.090	-0.069
-373.829	-65.027	-0.109	-0.044
-372.815	-57.538	-0.336	0.146
-371.800	-3.845	0.220	-0.151
-370.785	-68.450	-0.183	-0.071
-369.771	-52.571	-0.133	-0.061
-368.756	150.220	0.145	-0.196
-367.742	10.951	-0.226	0.171
-366.727	192.752	-0.099	0.148
-365.712	800.000	0.057	0.217
-364.698	342.186	0.162	-0.313
-363.683	3.204	0.047	0.034
-362.669	569.634	0.101	-0.242
-361.654	800.000	0.050	-0.164
-360.639	-113.758	-0.385	-0.074
-359.625	-108.019	0.177	-0.038
-358.610	137.560	-0.126	-0.163
-357.596	-40.348	-0.162	0.083
-356.581	-199.603	0.190	0.001
-355.566	290.674	-0.187	0.337
-354.552	-59.558	0.393	0.167
-353.537	-42.469	-0.297	0.150
-352.523	190.519	-0.017	-0.025
-351.508	-200.000	-0.052	0.376
-350.493	-84.157	-0.535	-0.168
-349.479	62.273	0.253	-0.250
-348.464	-114.336	0.351	-0.067
-347.450	-184.997	0.204	-0.003
-346.435	-80.835	0.126	-0.041
-345.420	-76.292	-0.191	-0.067
-344.406	-200.000	0.020	0.258
-343.391	-59.281	0.372	0.159
-342.377	35.980	-0.374	0.326
-341.362	46.159	-0.088	-0.080
-340.348	100.652	-0.102	-0.117
-339.333	-181.124	-0.102	0.002
-338.318	-19.151	-0.068	0.042
-337.304	-125.709	0.073	0.011
-336.289	37.697	0.191	0.168
-335.275	127.280	0.124	0.155
-334.260	-35.015	-0.199	0.107
-333.245	-13.516	0.056	-0.036
-332.231	-37.053	0.063	-0.033
-331.216	-151.733	-0.364	0.026
-330.202	5.250	0.241	0.176
-329.187	-57.909	0.388	0.168
-328.172	26.355	-0.199	-0.164
-327.158	-200.000	0.024	-0.115
-326.143	800.000	-0.078	0.226
-325.129	-133.421	0.269	0.033
-324.114	-200.000	-0.014	0.233
-323.099	0.712	0.262	0.186
-322.085	-158.727	-0.169	-0.010
-321.070	-34.781	0.012	-0.006
-320.056	562.020	0.057	-0.137
-319.041	639.410	-0.171	0.429
-318.026	10.178	0.185	0.139
-317.012	-16.193	-0.306	-0.192
-315.997	614.964	-0.030	0.073
-314.983	-200.000	0.045	0.284
-313.968	36.963	-0.230	0.201
-312.953	175.383	-0.159	0.228
-311.939	146.452	-0.122	-0.162
-310.924	46.360	0.259	0.238
-309.910	253.506	0.144	0.243
-308.895	105.951	0.138	0.161
-307.880	-48.301	-0.284	0.136
-306.866	-200.000	0.023	-0.187
-305.851	-200.000	0.009	0.116
-304.837	-200.000	0.138	-0.000
-303.822	76.659	-0.172	0.180
-302.807	-200.000	0.021	-0.127
-301.793	-200.000	0.003	-0.083
-300.778	-200.000	0.013	-0.282
-299.764	-112.055	-0.344	-0.068
-298.749	-200.000	0.028	0.126
-297.735	-124.261	-0.085	-0.013
-296.720	-200.000	0.011	0.313
-295.705	213.986	-0.040	0.063
-294.691	119.671	0.088	0.108
-293.676	-96.239	0.278	0.073
-292.662	-148.197	-0.035	-0.003
-291.647	127.542	-0.129	0.162
-290.632	431.640	-0.045	0.096
-289.618	175.426	0.255	-0.365
-288.603	-161.032	0.320	0.017
-287.589	231.984	-0.076	-0.124
-286.574	467.820	-0.007	0.016
-285.559	-200.000	-0.057	-0.377
-284.545	59.503	-0.086	-0.083
-283.530	800.000	0.035	-0.105
-282.516	-200.000	-0.050	-0.424
-281.501	-200.000	-0.013	0.204
-280.486	-123.077	0.143	-0.023
-279.472	-84.285	-0.227	0.071
-278.457	-164.338	0.227	-0.010
-277.443	11.766	0.040	0.030
-276.428	23.622	-0.113	-0.092
-275.413	212.572	-0.096	0.150
-274.399	129.011	-0.299	-0.376
-273.384	-200.000	0.003	-0.055
-272.370	-150.275	-0.260	-0.020
-271.355	800.000	0.004	0.016
-270.340	9.096	-0.126	-0.094
-269.326	-136.207	0.309	-0.036
-268.311	-200.000	-0.024	-0.157
-267.297	194.016	-0.174	-0.260
-266.282	-73.852	0.140	-0.050
-265.267	800.000	0.021	-0.080
-264.253	-157.426	-0.216	0.013
-263.238	-125.172	-0.068	-0.010
-262.224	800.000	-0.066	-0.185
-261.209	-200.000	-0.002	0.354
-260.195	117.786	-0.143	-0.174
-259.180	-35.867	0.247	0.132
-258.165	466.568	-0.025	0.055
-257.151	-80.272	0.189	0.062
-256.136	594.288	-0.240	-0.585
-255.122	107.035	0.211	-0.247
-254.107	-77.406	0.323	0.111
-253.092	0.369	-0.174	0.122
-252.078	-200.000	-0.014	-0.203
-251.063	-16.723	-0.096	0.060
-250.049	-91.461	-0.149	-0.042
-249.034	-78.262	-0.055	0.019
-248.019	-103.353	-0.134	-0.031
-247.005	-30.006	0.083	0.047
-245.990	-200.000	-0.014	0.293
-244.976	47.116	-0.022	-0.020
-243.961	87.031	0.252	0.275
-242.946	-96.734	-0.369	0.096
-241.932	-141.361	-0.290	-0.029
-240.917	-116.078	-0.194	-0.036
-239.903	-122.607	0.107	-0.017
-238.888	-200.000	0.030	0.453
-237.873	359.978	0.258	-0.509
-236.859	-200.000	-0.013	0.203
-235.844	-25.800	0.395	-0.230
-234.830	-193.564	0.062	0.001
-233.815	-93.778	0.108	-0.029
-232.800	-94.683	0.151	-0.040
-231.786	714.627	-0.066	-0.173
-230.771	-200.000	-0.019	-0.087
-229.757	54.040	-0.136	0.129
-228.742	800.000	0.045	-0.137
-227.727	-127.218	-0.137	0.020
-226.713	-17.473	0.123	-0.076
-225.698	168.358	-0.192	-0.269
-224.684	-40.215	0.181	-0.093
-223.669	335.082	-0.120	0.230
-222.655	-81.694	0.305	-0.099
-221.640	-200.000	0.024	-0.152
-220.625	11.546	-0.140	0.105
-219.611	800.000	0.033	0.116
-218.596	132.351	0.013	-0.016
-217.582	-200.000	0.001	0.087
-216.567	-48.799	0.256	-0.121
-215.552	7.711	0.231	0.170
-214.538	311.284	0.061	0.113
-213.523	800.000	-0.061	-0.264
-212.509	-200.000	-0.021	0.222
-211.494	-200.000	0.004	-0.221
-210.479	-200.000	0.033	-0.318
-209.465	-200.000	0.020	-0.278
-208.450	-200.000	-0.063	-0.441
-207.436	-134.739	-0.231	0.028
-206.421	-139.147	-0.490	0.052
-205.406	434.616	0.118	0.253
-204.392	-175.061	-0.046	-0.001
-203.377	-4.315	-0.150	-0.102
-202.363	-141.130	-0.319	-0.032
-201.348	410.689	0.091	0.190
-200.333	-2.974	-0.152	0.104
-199.319	800.000	-0.100	0.303
-198.304	246.900	0.112	0.186
-197.290	397.338	-0.146	0.300
-196.275	-200.000	-0.083	0.386
-195.260	-102.136	-0.447	-0.106
-194.246	800.000	0.051	0.182
-193.231	151.462	0.211	0.283
-192.217	17.416	-0.156	-0.122
-191.202	-4.646	0.158	-0.107
-190.187	-12.331	-0.242	-0.156
-189.173	-82.709	0.233	-0.074
-188.158	800.000	-0.099	0.339
-187.144	-200.000	0.035	0.171
-186.129	-89.112	0.182	0.053
-185.114	309.321	-0.022	-0.040
-184.100	98.521	0.148	-0.168
-183.085	73.382	-0.442	-0.455
-182.071	109.703	-0.087	0.102
-181.056	68.412	-0.037	0.037
-180.042	-200.000	-0.075	0.373
-179.027	-1.751	0.091	-0.063
-178.012	-99.555	0.204	-0.050
-176.998	-132.532	0.320	-0.040
-175.983	-11.457	0.134	0.087
-174.969	-91.001	-0.054	0.015
-173.954	-200.000	0.031	-0.240
-172.939	-38.862	-0.157	0.082
-171.925	551.638	-0.128	0.301
-170.910	-97.633	0.195	-0.050
-169.896	-33.738	-0.502	0.272
-168.881	800.000	-0.033	-0.141
-167.866	-200.000	0.013	0.375
-166.852	-102.469	-0.323	-0.076
-165.837	-200.000	0.025	0.465
-164.823	47.839	0.130	0.119
-163.808	385.074	0.076	0.153
-162.793	791.817	0.057	0.153
-161.779	367.678	0.106	0.210
-160.764	-200.000	0.023	-0.260
-159.750	266.418	0.154	0.265
-158.735	-43.489	-0.428	0.212
-157.720	-74.431	0.168	0.060
-156.706	247.468	-0.030	0.050
-155.691	758.913	-0.122	-0.324
-154.677	269.619	-0.106	-0.184
-153.662	-93.518	0.351	-0.095
-152.647	556.197	-0.090	0.213
-151.633	-200.000	0.041	0.189
-150.618	33.835	0.136	-0.116
-149.604	182.363	-0.058	0.084
-148.589	251.565	-0.112	0.187
-147.574	640.951	-0.071	-0.178
-146.560	-200.000	0.006	0.070
-145.545	748.999	-0.088	-0.234
-144.531	-173.404	0.232	0.007
-143.516	-34.046	0.235	0.127
-142.502	78.546	0.361	-0.379
-141.487	-166.870	-0.263	-0.011
-140.472	-200.000	-0.013	-0.201
-139.458	800.000	-0.038	0.162
-138.443	-8.709	0.106	-0.070
-137.429	-123.551	0.219	0.034
-136.414	42.902	0.198	0.177
-135.399	-85.434	0.218	0.067
-134.385	268.318	-0.083	-0.142
-133.370	204.054	-0.169	0.257
-132.356	-99.717	0.264	0.065
-131.341	374.241	-0.187	0.373
-130.326	-158.062	0.168	-0.010
-129.312	277.620	0.233	0.407
-128.297	44.470	-0.082	-0.074
-127.283	-164.867	0.248	-0.011
-126.268	313.701	0.083	-0.152
-125.253	800.000	-0.063	-0.182
-124.239	-106.378	0.185	-0.041
-123.224	800.000	-0.086	0.344
-122.210	228.853	0.076	0.122
-121.195	-200.000	-0.022	0.223
-120.180	626.973	0.010	0.024
-119.166	330.404	-0.075	0.141
-118.151	128.036	-0.045	-0.057
-117.137	800.000	0.067	-0.222
-116.122	72.819	0.158	-0.162
-115.107	-79.031	0.228	0.076
-114.093	-28.182	0.239	0.135
-113.078	-84.746	0.070	0.022
-112.064	15.823	-0.208	-0.161
-111.049	-200.000	-0.054	-0.377
-110.034	-39.614	-0.418	0.214
-109.020	-75.291	0.344	0.121
-108.005	53.467	-0.215	0.202
-106.991	588.282	-0.120	0.291
-105.976	159.190	-0.240	-0.327
-104.962	442.569	0.098	0.210
-103.947	78.618	0.340	-0.356
-102.932	112.057	0.201	0.239
-101.918	242.841	-0.114	0.188
-100.903	-145.824	-0.145	0.013
-99.889	174.199	-0.176	0.250
-98.874	-200.000	-0.045	0.229
-97.859	141.275	0.097	0.126
-96.845	-60.372	-0.127	0.053
-95.830	-200.000	0.053	-0.348
-94.816	-200.000	-0.050	0.365
-93.801	-101.605	0.249	0.059
-92.786	-200.000	0.008	-0.202
-91.772	-57.033	-0.320	0.138
-90.757	-22.314	0.138	0.082
-89.743	-88.390	-0.223	0.065
-88.728	-73.912	-0.246	-0.087
-87.713	74.353	0.121	0.124
-86.699	-101.868	-0.380	-0.090
-85.684	-119.877	-0.330	-0.056
-84.670	12.032	-0.157	0.118
-83.655	-136.345	0.227	-0.026
-82.640	-172.151	0.289	-0.009
-81.626	-122.261	0.521	-0.083
-80.611	-200.000	-0.010	-0.133
-79.597	-200.000	0.026	-0.128
-78.582	-99.508	0.129	-0.032
-77.567	241.717	0.034	-0.055
-76.553	-5.749	0.207	-0.139
-75.538	-20.416	-0.142	-0.085
-74.524	800.000	-0.043	-0.145
-73.509	231.191	0.206	0.331
-72.494	-17.046	0.254	-0.157
-71.480	245.039	0.199	0.327
-70.465	800.000	-0.009	0.035
-69.451	256.471	-0.105	-0.176
-68.436	-104.223	0.150	-0.034
-67.422	162.373	-0.136	-0.187
-66.407	399.009	-0.048	-0.098
-65.392	-200.000	0.002	-0.214
-64.378	-200.000	0.000	-0.013
-63.363	-102.178	0.269	0.063
-62.349	800.000	0.029	0.109
-61.334	54.483	-0.999	-0.942
-60.319	-19.215	0.761	0.462
-59.305	732.704	-0.505	-1.323
-58.290	409.843	0.604	1.254
-57.276	319.452	0.877	1.629
-56.261	-200.000	123.830	664.178
-55.246	437.090	1546.661	3298.483
-54.232	144.270	2706.318	3535.307
-53.217	88.346	2316.049	2517.150
-52.203	30.025	2065.192	1723.552
-51.188	25.287	1980.982	1610.802
-50.173	24.209	1964.282	1587.564
-49.159	42.473	2036.608	1812.821
-48.144	40.477	2048.808	1805.458
-47.130	25.737	2002.157	1631.842
-46.115	23.579	1991.208	1603.376
-45.100	23.482	1988.141	1599.972
-44.086	23.477	1985.499	1597.737
-43.071	23.521	1983.060	1596.103
-42.057	23.444	1981.073	1593.751
-41.042	23.472	1979.583	1592.743
-40.027	23.499	1977.772	1591.463
-39.013	23.512	1975.425	1589.629
-37.998	23.462	1973.794	1587.805
-36.984	23.506	1972.027	1586.716
-35.969	23.454	1970.108	1584.642
-34.954	23.471	1968.973	1583.816
-33.940	23.448	1967.452	1582.326
-32.925	23.529	1965.520	1581.438
-31.911	23.564	1963.747	1580.254
-30.896	23.485	1962.456	1578.455
-29.881	23.536	1961.285	1577.905
-28.867	23.612	1959.216	1576.851
-27.852	23.630	1957.717	1575.742
-26.838	23.651	1955.481	1574.060
-25.823	23.632	1953.804	1572.480
-24.809	23.601	1951.966	1570.668
-23.794	23.658	1950.330	1569.794
-22.779	23.683	1948.844	1568.755
-21.765	23.577	1947.890	1566.984
-20.750	23.614	1945.821	1565.583
-19.736	23.603	1944.598	1564.442
-18.721	23.614	1942.604	1562.873
-17.706	23.524	1941.072	1560.792
-16.692	23.671	1939.140	1560.468
-15.677	23.510	1938.387	1558.384
-14.663	23.549	1936.684	1557.297
-13.648	23.606	1935.304	1556.625
-12.633	23.553	1934.322	1555.310
-11.619	23.603	1932.969	1554.595
-10.604	23.606	1931.589	1553.447
-9.590	23.544	1930.228	1551.754
-8.575	23.594	1928.166	1550.466
-7.560	23.598	1927.198	1549.662
-6.546	23.569	1925.909	1548.316
-5.531	23.575	1925.016	1547.587
-4.517	23.581	1923.618	1546.452
-3.502	23.541	1922.455	1545.108
-2.487	23.615	1921.072	1544.578
-1.473	23.624	1919.922	1543.672
-0.458	23.632	1915.122	1539.820
0.556	21.851	1894.961	1510.671
1.571	17.521	1876.400	1458.729
2.586	13.634	1900.220	1443.334
3.600	12.735	1935.263	1461.845
4.615	12.759	1928.056	1456.481
5.629	9.925	1829.163	1357.852
6.644	3.881	1717.417	1226.959
7.659	0.599	1684.731	1177.930
8.673	0.270	1681.849	1173.244
9.688	0.210	1680.852	1171.982
10.702	0.143	1679.735	1170.579
11.717	0.047	1675.246	1166.604
12.731	0.504	1674.053	1169.211
13.746	5.279	1683.702	1212.983
14.761	12.541	1698.773	1280.446
15.775	16.430	1705.133	1315.460
16.790	16.826	1704.490	1317.924
17.804	15.937	1701.834	1308.848
18.819	14.942	1698.239	1298.245
19.834	14.432	1695.667	1292.210
20.848	14.155	1694.229	1288.858
21.863	13.965	1692.666	1286.083
22.877	13.593	1691.637	1282.310
23.892	13.370	1690.035	1279.260
24.907	13.351	1688.475	1277.816
25.921	13.305	1687.829	1276.857
26.936	13.264	1686.591	1275.493
27.950	13.341	1686.146	1275.637
28.965	13.331	1685.117	1274.672
29.980	13.436	1684.411	1274.833
30.994	13.462	1683.421	1274.172
32.009	13.494	1682.429	1273.554
33.023	13.566	1681.598	1273.365
34.038	13.500	1681.354	1272.563
35.053	13.575	1680.488	1272.365
36.067	13.495	1678.940	1270.471
37.082	13.550	1677.211	1269.468
38.096	13.506	1676.648	1268.593
39.111	13.494	1675.651	1267.639
40.126	13.510	1675.000	1267.152
41.140	13.462	1674.250	1266.104
42.155	13.456	1672.824	1264.867
43.169	13.427	1671.293	1263.383
44.184	13.286	1670.602	1261.669
45.199	13.337	1669.113	1260.819
46.213	13.328	1668.081	1259.861
47.228	13.334	1666.660	1258.725
48.242	13.353	1665.309	1257.736
49.257	13.375	1664.419	1257.123
50.271	13.438	1663.118	1256.502
51.286	13.400	1661.601	1254.961
52.301	13.430	1660.053	1253.908
53.315	13.421	1658.627	1252.653
54.330	13.476	1657.311	1251.962
55.344	13.448	1655.232	1250.068
56.359	13.379	1654.150	1248.622
57.374	13.343	1653.289	1247.590
58.388	13.505	1651.197	1247.122
59.403	13.390	1650.229	1245.409
60.417	13.333	1649.301	1244.173
61.432	13.317	1647.801	1242.809
62.447	13.299	1646.790	1241.801
63.461	13.253	1645.338	1240.254
64.476	13.219	1644.549	1239.296
65.490	13.291	1642.446	1238.137
66.505	13.290	1641.654	1237.422
67.520	13.232	1641.139	1236.494
68.534	13.318	1639.902	1236.097
69.549	13.316	1638.373	1234.818
70.563	13.316	1637.411	1233.981
71.578	13.231	1636.289	1232.393
72.593	13.275	1634.934	1231.593
73.607	13.225	1634.020	1230.421
74.622	13.165	1633.003	1229.101
75.636	13.241	1631.760	1228.623
76.651	13.177	1630.881	1227.378
77.666	13.144	1629.982	1226.348
78.680	13.286	1628.253	1225.993
79.695	13.137	1628.023	1224.606
80.709	13.235	1626.849	1224.339
81.724	13.292	1626.232	1224.192
82.739	13.275	1624.873	1222.934
83.753	13.380	1623.864	1222.841
84.768	13.408	1623.129	1222.385
85.782	13.390	1622.697	1221.815
86.797	13.373	1621.946	1221.017
87.812	13.462	1620.483	1220.466
88.826	13.391	1619.568	1219.146
89.841	13.387	1617.963	1217.803
90.855	13.433	1617.352	1217.573
91.870	13.273	1616.542	1215.680
92.884	13.537	1614.864	1216.245
93.899	13.495	1614.024	1215.199
94.914	13.365	1613.294	1213.588
95.928	13.469	1611.926	1213.216
96.943	13.519	1610.030	1212.048
97.957	13.431	1609.524	1210.914
98.972	13.469	1607.662	1209.685
99.987	13.522	1605.689	1208.478
101.001	13.522	1604.478	1207.457
102.016	13.481	1602.459	1205.532
103.030	13.425	1601.596	1204.368
104.045	13.450	1600.352	1203.512
105.060	13.585	1598.803	1203.223
106.074	13.464	1597.258	1201.076
107.089	13.465	1596.123	1200.118
108.103	13.352	1594.392	1197.895
109.118	13.251	1593.225	1196.184
110.133	13.332	1591.378	1195.276
111.147	13.232	1590.269	1193.616
112.162	13.219	1589.245	1192.648
113.176	13.375	1587.466	1192.326
114.191	13.309	1585.911	1190.582
115.206	13.385	1585.011	1190.348
116.220	13.400	1583.500	1189.211
117.235	13.426	1582.158	1188.289
118.249	13.416	1580.455	1186.834
119.264	13.367	1579.716	1185.817
120.279	13.419	1578.082	1184.862
121.293	13.349	1576.476	1183.052
122.308	13.276	1575.121	1181.404
123.322	13.299	1573.563	1180.294
124.337	13.285	1572.124	1179.018
125.352	13.191	1571.279	1177.609
126.366	13.297	1569.336	1176.798
127.381	13.252	1568.672	1175.877
128.395	13.306	1567.307	1175.134
129.410	13.333	1565.527	1173.886
130.424	13.360	1564.051	1172.872
131.439	13.425	1562.453	1172.028
132.454	13.282	1561.853	1170.459
133.468	13.369	1560.361	1169.853
134.483	13.343	1559.201	1168.699
135.497	13.311	1558.186	1167.605
136.512	13.360	1556.639	1166.687
137.527	13.369	1555.438	1165.753
138.541	13.458	1553.260	1164.645
139.556	13.373	1552.358	1163.265
140.570	13.372	1551.165	1162.259
141.585	13.422	1549.492	1161.251
142.600	13.606	1548.248	1161.508
143.614	13.536	1546.977	1159.961
144.629	13.554	1545.848	1159.142
145.643	13.658	1544.483	1158.741
146.658	13.680	1542.762	1157.504
147.673	13.659	1541.230	1156.102
148.687	13.514	1540.196	1154.212
149.702	13.535	1538.997	1153.359
150.716	13.493	1537.212	1151.628
151.731	13.551	1535.479	1150.632
152.746	13.481	1534.317	1149.171
153.760	13.529	1532.880	1148.327
154.775	13.536	1531.871	1147.516
155.789	13.574	1530.614	1146.736
156.804	13.638	1529.218	1146.031
157.819	13.656	1528.180	1145.281
158.833	13.662	1527.123	1144.424
159.848	13.786	1525.725	1144.131
160.862	13.721	1524.771	1142.866
161.877	13.781	1523.519	1142.241
162.892	13.761	1522.033	1140.889
163.906	13.724	1520.718	1139.551
164.921	13.603	1519.655	1137.823
165.935	13.674	1518.508	1137.347
166.950	13.616	1517.404	1136.019
167.964	13.649	1516.544	1135.501
168.979	13.717	1515.441	1135.041
169.994	13.780	1513.941	1134.248
171.008	13.677	1513.108	1132.823
172.023	13.773	1511.801	1132.398
173.037	13.811	1510.587	1131.650
174.052	13.774	1509.872	1130.761
175.067	13.835	1508.413	1129.981
176.081	13.955	1506.740	1129.446
177.096	13.768	1506.498	1127.894
178.110	13.787	1504.389	1126.340
179.125	13.793	1503.562	1125.666
180.140	13.838	1502.607	1125.152
181.154	13.760	1501.470	1123.679
182.169	13.855	1500.275	1123.324
183.183	13.794	1499.883	1122.518
184.198	13.955	1498.397	1122.395
185.213	13.879	1497.324	1120.981
186.227	13.946	1495.823	1120.210
187.242	13.937	1495.026	1119.455
188.256	13.966	1494.162	1118.900
189.271	14.113	1492.967	1118.896
190.286	14.077	1491.968	1117.805
191.300	14.050	1490.423	1116.372
192.315	13.935	1489.542	1114.840
193.329	13.840	1488.142	1113.056
194.344	13.908	1487.738	1113.110
195.359	13.894	1486.280	1111.828
196.373	13.929	1485.121	1111.098
197.388	13.982	1484.214	1110.675
198.402	14.032	1483.196	1110.149
199.417	14.027	1481.771	1108.949
200.432	14.093	1481.184	1108.850
201.446	14.175	1480.045	1108.449
202.461	14.173	1478.671	1107.308
203.475	14.213	1477.224	1106.390
204.490	14.276	1476.497	1106.165
205.504	14.335	1474.850	1105.229
206.519	14.247	1473.823	1103.780
207.534	14.125	1473.191	1102.400
208.548	14.265	1471.676	1102.095
209.563	14.266	1470.350	1101.010
210.577	14.252	1469.618	1100.269
211.592	14.222	1469.035	1099.542
212.607	14.247	1467.928	1098.780
213.621	14.351	1467.639	1099.147
214.636	14.389	1466.973	1098.803
215.650	14.362	1465.430	1097.372
216.665	14.273	1464.935	1096.324
217.680	14.485	1463.700	1096.694
218.694	14.392	1463.323	1095.705
219.709	14.433	1462.085	1094.950
220.723	14.423	1461.360	1094.243
221.738	14.389	1460.553	1093.317
222.753	14.456	1459.444	1092.829
223.767	14.394	1458.390	1091.538
224.782	14.564	1456.789	1091.360
225.796	14.423	1456.371	1090.023
226.811	14.535	1455.781	1090.216
227.826	14.524	1455.029	1089.485
228.840	14.530	1453.946	1088.617
229.855	14.522	1452.938	1087.714
230.869	14.485	1452.275	1086.883
231.884	14.607	1451.087	1086.692
232.899	14.596	1449.664	1085.458
233.913	14.457	1448.688	1083.726
234.928	14.451	1447.584	1082.768
235.942	14.527	1446.062	1082.027
236.957	14.545	1444.924	1081.194
237.972	14.441	1443.820	1079.602
238.986	14.588	1442.600	1079.544
240.001	14.590	1442.185	1079.151
241.015	14.618	1440.768	1078.173
242.030	14.540	1439.838	1076.879
243.045	14.552	1438.968	1076.213
244.059	14.687	1437.722	1076.056
245.074	14.635	1437.136	1075.185
246.088	14.706	1436.235	1074.875
247.103	14.706	1435.786	1074.443
248.117	14.741	1434.999	1073.982
249.132	14.760	1433.767	1073.089
250.147	14.818	1433.129	1072.887
251.161	14.946	1432.461	1073.113
252.176	14.923	1431.976	1072.512
253.190	15.004	1431.057	1072.248
254.205	14.921	1430.255	1071.016
255.220	14.945	1429.524	1070.528
256.234	15.016	1428.619	1070.212
257.249	15.031	1427.682	1069.512
258.263	15.015	1426.841	1068.683
259.278	15.130	1425.609	1068.396
260.293	15.111	1424.982	1067.717
261.307	15.054	1424.127	1066.615
262.322	15.063	1423.454	1066.072
263.336	15.093	1423.003	1065.835
264.351	15.186	1421.468	1065.183
265.366	15.147	1420.472	1064.092
266.380	15.227	1419.273	1063.606
267.395	15.271	1418.420	1063.156
268.409	15.233	1417.823	1062.372
269.424	15.218	1417.026	1061.582
270.439	15.167	1415.963	1060.374
271.453	15.238	1414.669	1059.759
272.468	15.296	1413.769	1059.354
273.482	15.274	1413.090	1058.616
274.497	15.178	1412.698	1057.619
275.512	15.271	1411.371	1057.121
276.526	15.210	1410.759	1056.185
277.541	15.298	1409.304	1055.557
278.555	15.366	1408.316	1055.148
279.570	15.175	1408.414	1053.926
280.585	15.357	1406.698	1053.692
281.599	15.456	1405.642	1053.431
282.614	15.377	1404.780	1052.197
283.628	15.409	1403.953	1051.685
284.643	15.381	1403.047	1050.738
285.657	15.411	1401.779	1049.884
286.672	15.420	1401.355	1049.527
287.687	15.416	1399.995	1048.393
288.701	15.365	1399.326	1047.481
289.716	15.507	1398.296	1047.502
290.730	15.387	1397.870	1046.344
291.745	15.489	1396.488	1045.853
292.760	15.517	1395.789	1045.411
293.774	15.555	1394.591	1044.655
294.789	15.479	1393.679	1043.408
295.803	15.617	1392.925	1043.610
296.818	15.534	1392.204	1042.462
297.833	15.600	1390.918	1041.817
298.847	15.596	1389.892	1040.928
299.862	15.656	1388.583	1040.230
300.876	15.610	1388.018	1039.426
301.891	15.615	1387.135	1038.703
302.906	15.706	1386.369	1038.602
303.920	15.618	1386.120	1037.777
304.935	15.696	1385.008	1037.339
305.949	15.726	1384.393	1036.970
306.964	15.831	1383.436	1036.809
307.979	15.867	1382.362	1036.134
308.993	15.856	1381.482	1035.316
310.008	15.856	1380.279	1034.322
311.022	15.841	1379.225	1033.348
312.037	15.830	1378.115	1032.354
313.052	15.890	1377.585	1032.237
314.066	15.845	1376.716	1031.216
315.081	15.913	1375.673	1030.763
316.095	15.788	1374.456	1028.994
317.110	15.880	1373.526	1028.771
318.125	15.852	1372.520	1027.754
319.139	15.875	1371.673	1027.171
320.154	15.823	1370.670	1026.008
321.168	15.829	1369.716	1025.244
322.183	15.836	1369.213	1024.817
323.197	15.799	1368.030	1023.618
324.212	15.909	1366.428	1022.996
325.227	15.887	1366.055	1022.493
326.241	16.007	1365.143	1022.447
327.256	15.980	1364.055	1021.379
328.270	15.982	1363.419	1020.825
329.285	15.982	1362.572	1020.100
330.300	15.986	1361.789	1019.450
331.314	15.919	1361.094	1018.432
332.329	15.944	1359.916	1017.612
333.343	15.907	1359.530	1017.006
334.358	15.992	1358.350	1016.547
335.373	16.110	1357.480	1016.517
336.387	16.069	1356.785	1015.661
337.402	16.085	1355.827	1014.949
338.416	16.155	1355.208	1014.819
339.431	16.152	1354.655	1014.298
340.446	16.178	1354.073	1013.925
341.460	16.185	1352.829	1012.949
342.475	16.258	1351.658	1012.421
343.489	16.348	1351.055	1012.416
344.504	16.368	1349.994	1011.655
345.519	16.294	1349.331	1010.627
346.533	16.369	1348.108	1010.068
347.548	16.364	1346.987	1009.105
348.562	16.410	1346.168	1008.678
349.577	16.459	1345.413	1008.316
350.592	16.400	1345.107	1007.647
351.606	16.343	1343.981	1006.374
352.621	16.332	1342.979	1005.467
353.635	16.345	1341.629	1004.446
354.650	16.360	1341.315	1004.209
355.665	16.395	1340.292	1003.565
356.679	16.409	1338.945	1002.553
357.694	16.439	1338.026	1001.954
358.708	16.482	1336.568	1001.028
359.723	16.512	1335.679	1000.448
360.738	16.411	1334.893	999.176
361.752	16.594	1333.473	999.107
362.767	16.540	1332.378	997.877
363.781	16.501	1332.053	997.318
364.796	16.471	1331.311	996.494
365.810	16.589	1330.534	996.522
366.825	16.532	1330.095	995.765
367.840	16.570	1328.947	995.042
368.854	16.655	1328.624	995.214
369.869	16.703	1327.924	994.881
370.883	16.729	1327.164	994.377
371.898	16.669	1326.586	993.504
372.913	16.698	1325.597	992.844
373.927	16.687	1324.730	992.045
374.942	16.703	1323.761	991.326
375.956	16.739	1323.148	990.990
376.971	16.753	1322.154	990.241
377.986	16.797	1321.497	989.915
379.000	16.841	1320.455	989.308
380.015	16.787	1320.239	988.743
381.029	16.881	1318.945	988.229
382.044	16.900	1317.860	987.444
383.059	16.994	1317.360	987.528
384.073	16.892	1317.069	986.628
385.088	16.977	1316.587	986.673
386.102	16.988	1315.551	985.875
387.117	16.920	1314.823	984.845
388.132	16.942	1313.909	984.201
389.146	16.929	1312.977	983.340
390.161	16.891	1312.513	982.685
391.175	16.931	1311.709	982.229
392.190	17.023	1310.276	981.600
393.205	17.083	1309.551	981.316
394.219	17.044	1308.720	980.387
395.234	17.088	1307.238	979.443
396.248	17.197	1305.809	978.914
397.263	17.100	1304.669	977.413
398.278	17.167	1303.461	976.807
399.292	16.992	1302.599	975.070
400.307	17.104	1301.565	974.852
401.321	16.923	1300.790	973.147
402.336	16.944	1300.056	972.631
403.350	17.060	1298.850	972.307
404.365	17.060	1297.962	971.555
405.380	17.054	1297.164	970.841
406.394	17.180	1295.968	970.581
407.409	17.120	1295.544	969.829
408.423	17.214	1294.770	969.701
409.438	17.262	1294.029	969.335
410.453	17.287	1293.306	968.853
411.467	17.323	1292.771	968.567
412.482	17.347	1292.123	968.135
413.496	17.319	1291.710	967.579
414.511	17.334	1290.715	966.833
415.526	17.339	1290.030	966.262
416.540	17.507	1289.072	966.416
417.555	17.481	1288.459	965.725
418.569	17.512	1287.620	965.186
419.584	17.531	1287.537	965.142
420.599	17.472	1286.965	964.298
421.613	100.082	1361.004	1487.967
422.628	97.938	1371.701	1488.052
