DTS Sentinel unit serial number:	SN413079Multiplexer serial number:	ORYXHardware model number:	OX4-SRSoftware version number:	ORYX F/W v4.00 Oryx Data Collector v3.7.2.0data status	okinstallation	princeton_trtdifferential loss correction	single-endedforward channel	channel 4reverse channel	N/Adate	2019/09/16time	08:09:35forward acquisition time	60.00reverse acquisition time	0.00gamma	496.2192k internal	0.2314k external	0.2314temperature offset calibration	0.9982default loss term (dB/km)	0.3790temperature slope calibration	1.0000multiplexer offset coefficient	1.0000multiplexer slope coefficient	1.0000fibre end	0.00T internal ref (°C)	28.69T ext. ref 1 (°C)	11.81T ext. ref 2 (°C)	24.90length (m)	temperature (°C)	Stokes	anti-Stokes-747.200	-21.430	-0.111	0.069
-746.185	-36.455	-0.270	0.148
-745.171	-120.200	0.113	-0.020
-744.156	-200.000	0.011	0.341
-743.142	-71.354	-0.179	0.068
-742.127	60.488	0.174	-0.175
-741.112	28.922	0.131	0.113
-740.098	-179.316	-0.033	-0.001
-739.083	-6.136	0.336	0.233
-738.069	-200.000	0.011	0.137
-737.054	800.000	0.028	-0.104
-736.039	-11.175	-0.105	0.070
-735.025	132.905	0.176	-0.231
-734.010	410.325	0.036	-0.077
-732.996	573.014	-0.187	-0.462
-731.981	114.141	0.088	0.108
-730.966	800.000	0.026	-0.108
-729.952	54.027	-0.060	0.059
-728.937	800.000	-0.030	0.090
-727.923	-6.041	-0.152	0.105
-726.908	181.571	0.279	-0.416
-725.894	800.000	-0.092	-0.276
-724.879	-200.000	0.019	-0.265
-723.864	-200.000	0.037	-0.260
-722.850	-63.739	0.160	-0.067
-721.835	-114.754	-0.261	0.051
-720.821	-144.356	-0.156	0.015
-719.806	-144.624	-0.289	-0.027
-718.791	96.918	-0.189	-0.219
-717.777	-105.368	0.273	0.063
-716.762	175.881	-0.232	0.341
-715.748	518.167	0.157	-0.373
-714.733	-33.577	-0.227	-0.127
-713.718	-104.470	-0.275	-0.064
-712.704	677.775	-0.106	0.278
-711.689	-200.000	-0.023	0.193
-710.675	-59.522	-0.283	0.123
-709.660	-82.854	0.299	0.098
-708.645	172.790	-0.160	-0.233
-707.631	170.877	-0.131	-0.190
-706.616	127.217	0.048	0.062
-705.602	36.651	0.157	-0.141
-704.587	800.000	-0.030	-0.096
-703.572	-200.000	-0.061	-0.363
-702.558	7.014	-0.071	0.054
-701.543	-200.000	0.054	-0.277
-700.529	-61.342	0.169	0.072
-699.514	-121.784	-0.091	0.015
-698.499	24.245	-0.078	-0.065
-697.485	56.390	0.168	-0.166
-696.470	-86.334	-0.244	-0.076
-695.456	126.715	-0.107	0.137
-694.441	54.882	0.239	0.233
-693.426	-7.232	0.069	-0.047
-692.412	-200.000	-0.060	0.288
-691.397	-200.000	0.024	-0.211
-690.383	-31.068	0.225	-0.128
-689.368	-200.000	-0.029	0.153
-688.354	-25.862	0.161	-0.096
-687.339	125.169	-0.100	-0.127
-686.324	-16.945	-0.229	0.146
-685.310	40.646	0.243	-0.221
-684.295	75.996	-0.110	0.118
-683.281	351.161	-0.089	0.178
-682.266	-102.763	0.325	0.078
-681.251	0.853	0.050	-0.036
-680.237	410.489	-0.048	-0.104
-679.222	-178.345	0.157	0.004
-678.208	-200.000	0.016	0.252
-677.193	-200.000	-0.054	-0.299
-676.178	-25.624	-0.422	-0.252
-675.164	-200.000	-0.060	0.343
-674.149	541.211	-0.145	-0.350
-673.135	-161.883	-0.249	0.013
-672.120	-106.153	-0.321	-0.073
-671.105	51.153	0.107	-0.103
-670.091	-120.312	0.210	-0.036
-669.076	-200.000	0.008	0.370
-668.062	118.921	0.116	-0.145
-667.047	-127.652	-0.049	0.007
-666.032	-78.335	-0.120	-0.041
-665.018	800.000	-0.075	-0.239
-664.003	-200.000	-0.049	-0.363
-662.989	478.044	0.148	-0.339
-661.974	49.223	-0.210	0.200
-660.959	-9.020	0.186	0.126
-659.945	110.728	0.193	-0.235
-658.930	-200.000	-0.000	-0.013
-657.916	-200.000	0.028	-0.307
-656.901	107.331	-0.148	-0.178
-655.886	800.000	-0.087	-0.270
-654.872	12.148	0.273	0.212
-653.857	-52.482	0.248	0.116
-652.843	-91.754	-0.205	0.059
-651.828	166.850	-0.216	-0.310
-650.814	-6.192	-0.145	0.100
-649.799	-200.000	-0.028	-0.377
-648.784	-70.135	-0.160	0.062
-647.770	207.890	-0.079	0.125
-646.755	-67.969	-0.431	-0.170
-645.741	-108.291	-0.387	-0.084
-644.726	381.744	-0.076	-0.157
-643.711	-117.861	0.156	0.028
-642.697	-66.546	-0.159	-0.064
-641.682	379.372	-0.013	-0.027
-640.668	-112.566	0.234	-0.047
-639.653	214.108	-0.159	0.254
-638.638	89.415	-0.199	0.224
-637.624	-200.000	0.031	0.182
-636.609	166.956	0.136	0.194
-635.595	-16.163	-0.138	0.089
-634.580	-175.576	-0.103	-0.003
-633.565	-111.740	-0.119	-0.024
-632.551	190.450	-0.144	-0.219
-631.536	-200.000	0.448	0.000
-630.522	800.000	-0.074	0.217
-629.507	-167.100	-0.089	-0.004
-628.492	800.000	-0.086	-0.294
-627.478	-80.375	-0.091	0.031
-626.463	452.340	0.013	-0.029
-625.449	137.258	0.068	0.090
-624.434	-20.351	0.204	-0.126
-623.419	0.244	-0.041	-0.030
-622.405	-52.795	0.299	-0.139
-621.390	800.000	-0.123	0.372
-620.376	366.381	-0.085	0.173
-619.361	-65.708	0.229	-0.092
-618.346	-33.801	0.182	-0.101
-617.332	-151.102	0.212	0.016
-616.317	-125.506	-0.095	-0.015
-615.303	-11.306	0.241	0.160
-614.288	-3.704	-0.088	-0.062
-613.273	800.000	0.047	0.150
-612.259	234.018	-0.254	0.422
-611.244	800.000	0.023	-0.066
-610.230	-166.714	-0.217	0.009
-609.215	-195.861	-0.177	-0.001
-608.201	-200.000	-0.013	-0.124
-607.186	52.009	-0.191	0.184
-606.171	800.000	0.033	0.139
-605.157	-200.000	-0.013	-0.139
-604.142	-77.749	-0.180	0.063
-603.128	118.434	0.122	-0.152
-602.113	-127.581	-0.160	0.023
-601.098	597.769	0.030	-0.074
-600.084	-40.295	0.536	-0.281
-599.069	-42.442	0.197	-0.101
-598.055	-200.000	0.023	-0.139
-597.040	-23.001	-0.126	0.076
-596.025	0.646	0.191	-0.137
-595.011	53.537	-0.017	0.017
-593.996	746.880	0.043	-0.117
-592.982	43.328	-0.268	-0.247
-591.967	637.245	0.131	0.335
-590.952	-187.473	-0.158	0.002
-589.938	264.829	-0.161	-0.283
-588.923	-95.625	-0.255	0.069
-587.909	227.776	0.198	-0.325
-586.894	-200.000	0.027	-0.221
-585.879	123.398	-0.071	-0.089
-584.865	-128.000	0.471	0.068
-583.850	-200.000	0.061	0.363
-582.836	436.148	0.111	-0.243
-581.821	365.780	0.064	0.130
-580.806	211.811	0.108	-0.171
-579.792	-69.552	-0.118	0.046
-578.777	-38.681	0.087	0.046
-577.763	-200.000	0.151	0.001
-576.748	13.142	-0.226	0.176
-575.733	271.580	-0.226	-0.402
-574.719	-200.000	-0.002	-0.280
-573.704	293.361	-0.136	-0.251
-572.690	-16.054	0.332	0.213
-571.675	-65.328	0.072	-0.029
-570.661	134.076	0.126	-0.164
-569.646	-116.554	0.139	-0.026
-568.631	-200.000	-0.055	-0.429
-567.617	800.000	0.027	-0.082
-566.602	-11.631	-0.160	-0.106
-565.588	-128.856	0.115	-0.016
-564.573	50.522	-0.368	-0.351
-563.558	-98.311	-0.270	0.070
-562.544	800.000	-0.017	-0.072
-561.529	800.000	-0.072	0.264
-560.515	41.034	-0.063	0.058
-559.500	454.202	-0.066	-0.148
-558.485	-200.000	0.015	-0.496
-557.471	-200.000	-0.042	-0.200
-556.456	-33.086	0.179	-0.100
-555.442	69.830	-0.210	0.218
-554.427	-48.788	0.169	0.082
-553.412	-184.989	-0.450	0.007
-552.398	-200.000	0.009	-0.196
-551.383	-74.905	0.378	-0.137
-550.369	-96.084	0.208	-0.056
-549.354	236.503	-0.092	-0.153
-548.339	-127.061	0.096	-0.014
-547.325	23.751	-0.097	-0.080
-546.310	-118.863	-0.152	-0.027
-545.296	73.384	0.027	0.028
-544.281	-89.057	-0.205	-0.061
-543.266	56.773	0.148	0.145
-542.252	800.000	0.104	0.410
-541.237	-10.583	0.133	-0.089
-540.223	670.033	-0.054	0.142
-539.208	800.000	-0.091	-0.310
-538.193	483.987	-0.128	0.292
-537.179	267.582	0.211	0.372
-536.164	-200.000	0.035	0.282
-535.150	272.287	-0.144	-0.255
-534.135	94.138	-0.155	0.176
-533.121	-200.000	0.054	0.332
-532.106	-200.000	-0.061	0.336
-531.091	-125.807	-0.127	0.019
-530.077	168.278	0.139	-0.200
-529.062	68.574	0.117	0.121
-528.048	-18.703	-0.033	0.020
-527.033	-169.210	0.399	0.015
-526.018	118.568	0.091	-0.113
-525.004	-64.746	-0.091	0.037
-523.989	309.568	-0.198	0.373
-522.975	-71.135	0.247	-0.093
-521.960	438.774	-0.086	0.188
-520.945	-112.741	-0.264	-0.053
-519.931	-29.642	-0.295	0.169
-518.916	-41.162	-0.205	-0.106
-517.902	-71.424	0.522	0.196
-516.887	-73.679	-0.157	0.058
-515.872	-127.144	0.133	0.020
-514.858	-91.039	0.172	-0.050
-513.843	-79.496	-0.324	-0.110
-512.829	-200.000	-0.002	0.157
-511.814	-200.000	0.059	-0.535
-510.799	48.362	-0.056	-0.053
-509.785	-42.499	-0.207	0.106
-508.770	52.657	0.123	0.118
-507.756	-99.947	0.353	0.089
-506.741	-93.454	0.313	0.087
-505.726	118.394	-0.203	0.251
-504.712	-200.000	0.049	-0.230
-503.697	800.000	-0.028	-0.109
-502.683	199.108	-0.074	0.113
-501.668	507.730	-0.159	-0.370
-500.653	-200.000	-0.050	-0.281
-499.639	-157.956	0.242	-0.014
-498.624	-95.153	0.170	0.046
-497.610	-200.000	-0.020	0.233
-496.595	-153.707	0.470	0.032
-495.581	86.123	-0.141	0.156
-494.566	-200.000	0.047	-0.340
-493.551	-123.716	0.425	-0.068
-492.537	-115.073	0.563	0.107
-491.522	-81.096	-0.210	-0.070
-490.508	-200.000	0.006	-0.246
-489.493	21.479	-0.093	0.076
-488.478	-119.068	0.132	0.023
-487.464	-77.441	0.339	0.118
-486.449	373.033	-0.070	0.142
-485.435	-200.000	-0.015	-0.304
-484.420	-69.019	-0.058	0.022
-483.405	-128.913	-0.289	-0.041
-482.391	-5.468	0.346	-0.238
-481.376	243.335	0.048	-0.081
-480.362	222.366	0.031	-0.050
-479.347	-35.652	-0.229	0.125
-478.332	-200.000	-0.011	-0.156
-477.318	-92.657	-0.146	0.041
-476.303	9.114	-0.124	-0.094
-475.289	504.959	0.054	0.125
-474.274	-16.158	0.162	0.103
-473.259	25.769	-0.139	-0.116
-472.245	766.140	-0.145	-0.394
-471.230	315.000	0.169	0.320
-470.216	-1.200	0.265	0.188
-469.201	-200.000	0.049	0.236
-468.186	-53.766	0.289	-0.132
-467.172	-200.000	-0.122	-0.615
-466.157	638.035	-0.138	0.352
-465.143	-40.801	-0.044	0.023
-464.128	-39.370	-0.357	0.188
-463.113	27.834	-0.160	-0.135
-462.099	-90.160	0.356	-0.104
-461.084	-113.479	0.163	0.032
-460.070	149.476	-0.280	0.380
-459.055	800.000	-0.091	0.262
-458.040	800.000	-0.092	-0.282
-457.026	351.935	-0.041	-0.082
-456.011	-186.456	-0.166	0.002
-454.997	189.763	-0.049	-0.074
-453.982	69.454	0.351	0.362
-452.968	54.648	0.135	0.130
-451.953	204.023	0.123	0.190
-450.938	20.514	-0.306	-0.248
-449.924	8.353	-0.285	0.215
-448.909	-200.000	-0.011	0.133
-447.895	-177.642	0.225	-0.005
-446.880	800.000	-0.120	-0.374
-445.865	-200.000	0.001	-0.167
-444.851	265.663	0.167	0.292
-443.836	-20.758	-0.157	0.096
-442.822	-40.623	-0.221	0.115
-441.807	-70.166	0.164	0.062
-440.792	-200.000	0.007	-0.128
-439.778	-200.000	0.044	-0.200
-438.763	-99.955	-0.443	0.111
-437.749	72.930	0.085	-0.088
-436.734	-200.000	0.015	0.120
-435.719	-165.902	-0.155	-0.007
-434.705	66.927	-0.187	-0.190
-433.690	-159.773	0.212	-0.012
-432.676	-200.000	-0.003	0.123
-431.661	-200.000	-0.003	0.034
-430.646	-200.000	-0.007	-0.163
-429.632	-200.000	0.027	-0.404
-428.617	-200.000	0.021	-0.140
-427.603	337.564	0.028	-0.054
-426.588	29.110	0.212	-0.180
-425.573	-200.000	0.023	-0.313
-424.559	482.440	0.081	-0.185
-423.544	114.210	0.047	0.058
-422.530	-26.304	0.041	0.024
-421.515	134.514	0.216	0.281
-420.500	-74.836	-0.259	0.093
-419.486	-145.958	-0.127	-0.011
-418.471	398.662	-0.034	-0.072
-417.457	88.517	-0.224	0.249
-416.442	-31.512	0.163	0.092
-415.428	36.006	-0.242	0.213
-414.413	8.974	-0.109	-0.082
-413.398	549.079	-0.169	0.406
-412.384	229.660	0.103	-0.168
-411.369	12.001	0.137	0.105
-410.355	-68.326	0.033	-0.013
-409.340	-149.490	-0.120	-0.009
-408.325	-200.000	-0.025	0.308
-407.311	13.949	0.073	0.056
-406.296	-72.630	-0.172	-0.064
-405.282	800.000	-0.028	-0.113
-404.267	-95.080	0.309	0.083
-403.252	-101.827	-0.156	0.038
-402.238	-59.029	0.091	-0.039
-401.223	800.000	0.054	-0.195
-400.209	109.248	0.169	-0.202
-399.194	-200.000	-0.018	0.226
-398.179	-200.000	0.023	0.267
-397.165	450.935	0.060	0.132
-396.150	-112.879	0.305	-0.060
-395.136	764.594	0.035	-0.094
-394.121	88.492	-0.271	-0.301
-393.106	44.274	-0.179	0.165
-392.092	-69.824	-0.111	-0.042
-391.077	220.001	-0.131	0.209
-390.063	80.445	-0.126	0.135
-389.048	-200.000	-0.042	-0.273
-388.033	603.960	-0.038	-0.094
-387.019	-200.000	0.029	0.135
-386.004	-200.000	-0.038	0.234
-384.990	-146.722	-0.189	0.016
-383.975	-200.000	-0.055	0.277
-382.960	-24.849	0.374	-0.222
-381.946	95.025	0.128	-0.145
-380.931	205.618	0.178	-0.276
-379.917	800.000	-0.073	-0.297
-378.902	-143.027	0.084	-0.008
-377.888	-50.911	0.290	0.136
-376.873	-200.000	0.001	0.032
-375.858	-200.000	0.011	0.315
-374.844	573.818	-0.046	-0.111
-373.829	-200.000	-0.008	-0.256
-372.815	306.159	-0.118	-0.219
-371.800	-122.477	-0.544	-0.088
-370.785	233.385	0.199	-0.327
-369.771	-86.114	0.263	-0.081
-368.756	37.512	0.186	-0.165
-367.742	-78.318	0.277	0.095
-366.727	1.009	0.196	-0.140
-365.712	-200.000	-0.008	-0.605
-364.698	800.000	-0.023	-0.089
-363.683	-21.884	0.184	-0.112
-362.669	253.485	0.053	0.090
-361.654	-130.356	-0.372	0.050
-360.639	147.051	-0.111	-0.149
-359.625	387.106	0.119	-0.245
-358.610	48.364	-0.108	0.101
-357.596	-0.383	0.076	0.054
-356.581	155.344	-0.061	-0.084
-355.566	277.967	-0.055	0.098
-354.552	171.973	-0.129	0.186
-353.537	11.480	0.161	0.123
-352.523	-200.000	0.007	0.052
-351.508	800.000	-0.071	-0.227
-350.493	277.638	0.054	-0.097
-349.479	800.000	0.054	0.168
-348.464	-107.803	0.213	0.046
-347.450	-200.000	-0.055	0.288
-346.435	395.554	0.088	0.184
-345.420	-71.507	0.178	0.067
-344.406	-30.129	-0.115	0.065
-343.391	728.873	-0.031	0.083
-342.377	90.366	-0.030	0.033
-341.362	250.644	-0.021	-0.036
-340.348	-67.464	0.123	-0.048
-339.333	63.531	0.065	0.065
-338.318	97.348	0.187	0.214
-337.304	-98.800	0.265	0.067
-336.289	15.871	0.077	-0.060
-335.275	-64.874	-0.112	-0.045
-334.260	117.226	0.102	0.125
-333.245	207.023	0.133	0.207
-332.231	-75.028	-0.459	0.164
-331.216	36.097	0.057	-0.050
-330.202	-62.858	-0.252	0.104
-329.187	-28.174	0.118	0.068
-328.172	-4.348	-0.208	0.144
-327.158	800.000	-0.045	-0.137
-326.143	159.058	0.039	0.055
-325.129	800.000	-0.078	-0.224
-324.114	-36.982	0.162	-0.087
-323.099	-44.765	0.046	-0.023
-322.085	216.799	0.092	-0.145
-321.070	-200.000	0.027	0.117
-320.056	7.936	-0.325	0.243
-319.041	-120.637	-0.225	-0.038
-318.026	-200.000	0.011	0.249
-317.012	-169.527	0.344	0.013
-315.997	170.630	-0.176	0.252
-314.983	-200.000	0.020	0.167
-313.968	163.382	0.277	0.388
-312.953	-200.000	0.012	-0.264
-311.939	-9.352	-0.274	0.183
-310.924	-35.591	-0.082	-0.044
-309.910	-200.000	0.007	0.075
-308.895	175.343	-0.222	-0.321
-307.880	-34.068	0.160	-0.087
-306.866	135.614	-0.108	-0.140
-305.851	-95.570	-0.157	-0.042
-304.837	449.396	0.079	0.173
-303.822	-46.642	-0.257	0.125
-302.807	-87.736	0.090	-0.027
-301.793	800.000	0.036	-0.110
-300.778	-200.000	0.015	0.254
-299.764	-118.952	-0.091	0.016
-298.749	264.132	0.155	0.268
-297.735	-58.343	-0.144	-0.062
-296.720	17.312	-0.226	0.179
-295.705	418.848	0.036	-0.077
-294.691	439.908	-0.049	-0.106
-293.676	648.431	0.101	-0.257
-292.662	738.735	-0.138	0.369
-291.647	474.035	0.042	0.095
-290.632	800.000	0.020	0.069
-289.618	800.000	0.029	0.109
-288.603	-200.000	-0.007	0.112
-287.589	-164.721	0.287	0.013
-286.574	63.011	0.018	0.018
-285.559	-105.256	0.174	0.039
-284.545	-78.489	0.100	0.034
-283.530	335.569	-0.125	-0.241
-282.516	-148.662	-0.230	-0.019
-281.501	-200.000	0.016	-0.087
-280.486	241.000	0.250	0.415
-279.472	-121.487	-0.277	0.046
-278.457	16.894	0.109	-0.086
-277.443	-200.000	0.010	-0.083
-276.428	-144.577	0.273	-0.025
-275.413	243.900	-0.135	0.226
-274.399	561.681	-0.100	0.241
-273.384	800.000	-0.080	0.227
-272.370	-81.952	-0.370	0.120
-271.355	800.000	0.030	0.115
-270.340	-86.074	0.154	-0.047
-269.326	800.000	-0.074	-0.247
-268.311	32.627	0.328	-0.283
-267.297	-93.190	0.215	0.059
-266.282	-200.000	-0.030	-0.422
-265.267	355.552	0.060	-0.118
-264.253	-107.102	0.206	0.045
-263.238	-57.892	0.177	0.077
-262.224	-9.620	0.267	-0.177
-261.209	431.369	0.034	0.074
-260.195	50.448	0.168	-0.158
-259.180	-200.000	0.074	0.397
-258.165	19.006	-0.165	0.132
-257.151	-200.000	-0.007	0.264
-256.136	53.568	0.180	0.172
-255.122	10.354	0.378	-0.286
-254.107	-9.348	0.236	0.157
-253.092	-200.000	-0.083	-0.378
-252.078	71.391	-0.268	0.276
-251.063	175.290	-0.203	0.292
-250.049	800.000	0.114	-0.449
-249.034	46.579	-0.163	-0.150
-248.019	-34.328	-0.134	0.073
-247.005	-153.210	-0.251	-0.017
-245.990	-62.605	-0.329	-0.136
-244.976	-143.920	0.334	-0.031
-243.961	423.768	-0.113	0.242
-242.946	-194.113	0.164	0.001
-241.932	-200.000	0.015	-0.216
-240.917	-146.186	-0.042	0.004
-239.903	-200.000	0.019	-0.289
-238.888	800.000	0.007	0.019
-237.873	-23.306	-0.400	-0.239
-236.859	-200.000	0.009	0.199
-235.844	-70.255	0.274	-0.103
-234.830	-19.311	-0.161	0.099
-233.815	12.751	-0.321	0.246
-232.800	-112.611	-0.184	-0.036
-231.786	-127.414	-0.146	-0.021
-230.771	-56.643	0.148	-0.065
-229.757	-13.201	-0.295	-0.190
-228.742	-200.000	-0.022	-0.184
-227.727	205.459	0.171	0.263
-226.713	119.790	-0.209	0.258
-225.698	716.171	0.042	-0.111
-224.684	-27.969	-0.183	-0.105
-223.669	-45.787	0.226	0.111
-222.655	800.000	-0.088	-0.364
-221.640	-200.000	0.062	0.283
-220.625	122.070	0.170	-0.210
-219.611	-200.000	-0.002	-0.128
-218.596	-200.000	-0.015	-0.075
-217.582	-25.851	-0.067	-0.039
-216.567	148.434	-0.184	0.247
-215.552	192.983	-0.101	0.152
-214.538	-71.690	-0.307	-0.114
-213.523	43.230	-0.230	-0.208
-212.509	-200.000	-0.016	0.307
-211.494	118.983	-0.180	0.221
-210.479	-148.695	-0.072	-0.006
-209.465	-66.917	0.239	0.094
-208.450	-71.456	0.193	-0.072
-207.436	171.114	-0.161	-0.229
-206.421	-6.376	0.124	0.084
-205.406	-200.000	-0.023	-0.200
-204.392	65.009	0.201	0.201
-203.377	-77.011	-0.201	-0.070
-202.363	428.733	-0.089	-0.191
-201.348	-194.589	-0.219	-0.002
-200.333	251.760	0.224	-0.379
-199.319	233.574	0.061	0.100
-198.304	346.945	-0.102	-0.200
-197.290	-105.061	0.327	0.074
-196.275	-42.497	-0.225	0.114
-195.260	-138.410	0.530	-0.058
-194.246	800.000	-0.057	0.162
-193.231	-105.751	-0.212	-0.048
-192.217	82.865	-0.225	0.243
-191.202	-107.355	0.070	0.015
-190.187	-15.866	-0.201	0.127
-189.173	-167.658	0.100	-0.004
-188.158	398.682	-0.224	-0.465
-187.144	-158.130	0.300	-0.017
-186.129	213.968	-0.269	0.422
-185.114	-110.415	0.377	0.078
-184.100	800.000	0.063	-0.201
-183.085	380.988	0.054	0.110
-182.071	76.312	0.307	0.323
-181.056	-135.666	-0.094	-0.011
-180.042	51.158	0.167	-0.157
-179.027	27.338	-0.062	0.052
-178.012	-200.000	-0.018	-0.199
-176.998	72.908	-0.142	0.147
-175.983	-86.516	0.368	-0.112
-174.969	-9.364	0.190	0.126
-173.954	300.059	-0.221	0.405
-172.939	97.588	-0.225	0.256
-171.925	144.590	-0.187	0.247
-170.910	366.051	0.090	-0.180
-169.896	-73.415	0.177	-0.064
-168.881	-70.507	0.174	-0.065
-167.866	-87.444	0.375	-0.113
-166.852	-7.126	-0.189	-0.127
-165.837	800.000	-0.063	-0.208
-164.823	800.000	0.034	-0.105
-163.808	116.324	-0.102	0.124
-162.793	246.723	-0.085	0.141
-161.779	-44.479	-0.183	0.091
-160.764	476.046	0.165	0.369
-159.750	-200.000	-0.009	-0.073
-158.735	13.956	-0.333	0.257
-157.720	-24.509	-0.212	-0.125
-156.706	-103.029	-0.159	0.037
-155.691	26.102	0.053	-0.044
-154.677	-74.065	0.400	-0.144
-153.662	210.006	-0.118	-0.183
-152.647	800.000	0.041	-0.177
-151.633	-38.133	0.290	0.152
-150.618	-200.000	0.033	-0.165
-149.604	-200.000	-0.069	0.320
-148.589	-80.747	0.078	0.026
-147.574	87.366	-0.129	0.142
-146.560	194.588	-0.206	0.309
-145.545	-10.502	0.069	0.045
-144.531	-7.876	0.211	-0.141
-143.516	-61.283	0.212	0.089
-142.502	-114.895	-0.142	0.027
-141.487	258.261	-0.105	0.179
-140.472	-200.000	0.048	0.280
-139.458	800.000	-0.026	-0.092
-138.443	800.000	-0.087	0.330
-137.429	-149.074	-0.093	0.007
-136.414	-200.000	0.000	-0.113
-135.399	-200.000	0.040	0.370
-134.385	-200.000	-0.006	-0.128
-133.370	121.112	-0.169	-0.208
-132.356	354.268	-0.103	0.202
-131.341	146.379	-0.105	-0.139
-130.326	-92.526	0.360	0.100
-129.312	-78.697	-0.258	-0.087
-128.297	-150.366	0.250	-0.019
-127.283	259.702	-0.269	-0.459
-126.268	-179.824	0.137	-0.003
-125.253	5.690	0.079	0.058
-124.239	13.650	0.333	0.256
-123.224	52.993	0.224	0.212
-122.210	-152.360	-0.257	0.018
-121.195	364.314	0.140	-0.279
-120.180	678.731	-0.108	0.277
-119.166	209.527	-0.077	-0.119
-118.151	-134.406	-0.348	0.042
-117.137	202.758	0.108	0.165
-116.122	-62.912	-0.238	-0.097
-115.107	291.038	0.099	-0.177
-114.093	-61.862	0.201	-0.083
-113.078	-200.000	0.013	0.448
-112.064	85.703	-0.123	-0.134
-111.049	97.608	0.236	-0.268
-110.034	342.804	0.142	-0.274
-109.020	800.000	-0.076	0.280
-108.005	282.038	-0.122	0.216
-106.991	15.382	0.234	-0.182
-105.976	69.441	0.148	-0.150
-104.962	-166.784	-0.349	-0.014
-103.947	45.999	0.156	0.143
-102.932	-200.000	0.018	0.189
-101.918	800.000	0.039	-0.141
-100.903	-200.000	-0.055	-0.406
-99.889	-200.000	-0.058	0.000
-98.874	-200.000	-0.011	-0.291
-97.859	800.000	0.056	-0.156
-96.845	-200.000	-0.003	-0.305
-95.830	170.391	-0.076	-0.108
-94.816	-187.652	-0.273	0.004
-93.801	283.196	0.020	-0.035
-92.786	800.000	0.105	-0.291
-91.772	800.000	-0.040	-0.146
-90.757	63.174	-0.252	-0.249
-89.743	156.781	-0.151	-0.206
-88.728	800.000	-0.029	-0.090
-87.713	-81.439	-0.130	0.042
-86.699	-39.215	0.142	-0.074
-85.684	-55.871	-0.277	-0.122
-84.670	-196.148	0.150	-0.001
-83.655	-200.000	0.020	0.278
-82.640	695.939	0.143	-0.371
-81.626	-200.000	0.005	-0.023
-80.611	-117.495	0.110	-0.020
-79.597	800.000	-0.088	0.263
-78.582	-13.363	-0.279	0.179
-77.567	-200.000	0.015	0.097
-76.553	465.612	0.113	0.249
-75.538	-200.000	0.059	-0.570
-74.524	-132.457	0.119	-0.015
-73.509	-168.995	-0.423	0.016
-72.494	16.352	-0.184	-0.143
-71.480	-108.228	-0.047	0.010
-70.465	800.000	-0.063	0.189
-69.451	175.300	-0.151	0.216
-68.436	-63.273	0.078	-0.032
-67.422	-200.000	0.023	0.131
-66.407	1.539	-0.096	0.068
-65.392	-6.182	0.121	0.082
-64.378	-116.961	0.158	0.028
-63.363	-34.270	0.190	-0.103
-62.349	133.873	0.252	0.322
-61.334	96.588	-0.937	-1.058
-60.319	154.038	0.309	0.419
-59.305	-200.000	-0.279	-1.286
-58.290	168.182	0.906	1.273
-57.276	365.257	0.632	1.257
-56.261	-200.000	108.563	579.711
-55.246	422.044	1502.684	3182.562
-54.232	140.535	2700.648	3518.947
-53.217	93.628	2340.091	2615.392
-52.203	34.856	2088.159	1802.751
-51.188	30.370	2003.876	1689.208
-50.173	28.952	1987.543	1662.568
-49.159	44.376	2044.570	1852.246
-48.144	44.488	2061.244	1868.308
-47.130	30.959	2019.429	1707.454
-46.115	28.739	2009.072	1678.363
-45.100	28.622	2005.848	1674.534
-44.086	28.627	2003.419	1672.491
-43.071	28.518	2001.542	1669.860
-42.057	28.590	1998.263	1667.719
-41.042	28.591	1996.801	1666.440
-40.027	28.623	1995.577	1665.645
-39.013	28.598	1993.252	1663.408
-37.998	28.586	1991.436	1661.723
-36.984	28.570	1989.491	1659.885
-35.969	28.626	1987.517	1658.675
-34.954	28.603	1985.825	1656.994
-33.940	28.591	1984.517	1655.727
-32.925	28.705	1982.484	1654.996
-31.911	28.634	1981.028	1653.072
-30.896	28.620	1979.126	1651.289
-29.881	28.610	1977.834	1650.062
-28.867	28.721	1976.183	1649.618
-27.852	28.643	1974.868	1647.755
-26.838	28.766	1972.547	1646.854
-25.823	28.762	1971.271	1645.686
-24.809	28.766	1969.143	1643.877
-23.794	28.715	1967.126	1641.677
-22.779	28.783	1965.662	1640.995
-21.765	28.756	1963.799	1639.136
-20.750	28.691	1962.493	1637.394
-19.736	28.796	1960.631	1636.715
-18.721	28.731	1959.639	1635.245
-17.706	28.731	1957.478	1633.378
-16.692	28.688	1956.070	1631.753
-15.677	28.717	1954.095	1630.303
-14.663	28.677	1952.939	1628.910
-13.648	28.740	1951.190	1627.952
-12.633	28.709	1950.238	1626.813
-11.619	28.734	1948.777	1625.755
-10.604	28.713	1947.603	1624.527
-9.590	28.700	1946.553	1623.470
-8.575	28.693	1945.241	1622.247
-7.560	28.759	1943.869	1621.620
-6.546	28.728	1942.301	1619.980
-5.531	28.742	1941.007	1618.957
-4.517	28.674	1940.121	1617.559
-3.502	28.721	1938.843	1616.838
-2.487	28.724	1937.602	1615.764
-1.473	28.772	1936.747	1615.408
-0.458	28.801	1931.921	1611.576
0.556	27.252	1912.558	1587.236
1.571	23.509	1895.508	1540.498
2.586	20.107	1919.124	1529.579
3.600	19.226	1956.464	1551.278
4.615	19.171	1951.864	1547.001
5.629	17.513	1857.550	1457.927
6.644	14.034	1751.568	1346.487
7.659	12.099	1719.027	1305.958
8.673	11.852	1716.592	1302.030
9.688	11.864	1715.259	1301.003
10.702	11.815	1713.834	1299.418
11.717	11.688	1710.511	1295.777
12.731	11.971	1708.538	1296.403
13.746	14.491	1713.532	1320.054
14.761	17.258	1719.547	1346.523
15.775	18.069	1719.124	1352.488
16.790	17.466	1715.939	1345.104
17.804	16.300	1713.223	1333.652
18.819	15.318	1709.710	1323.055
19.834	14.646	1706.993	1315.541
20.848	14.252	1704.968	1310.758
21.863	14.024	1703.520	1307.734
22.877	13.739	1701.955	1304.182
23.892	13.493	1700.600	1301.093
24.907	13.422	1699.364	1299.474
25.921	13.430	1698.282	1298.596
26.936	13.393	1697.440	1297.549
27.950	13.413	1697.006	1297.260
28.965	13.506	1696.087	1297.171
29.980	13.521	1695.686	1296.867
30.994	13.666	1693.868	1296.489
32.009	13.712	1693.093	1296.147
33.023	13.687	1692.305	1295.228
34.038	13.709	1690.892	1294.207
35.053	13.731	1689.858	1293.474
36.067	13.756	1688.191	1292.274
37.082	13.646	1687.346	1290.661
38.096	13.574	1686.702	1289.491
39.111	13.558	1685.878	1288.623
40.126	13.751	1684.804	1289.185
41.140	13.727	1683.291	1287.729
42.155	13.601	1681.898	1285.572
43.169	13.472	1680.705	1283.551
44.184	13.418	1679.454	1282.057
45.199	13.400	1678.386	1280.996
46.213	13.384	1677.497	1280.079
47.228	13.429	1676.425	1279.497
48.242	13.486	1675.096	1278.807
49.257	13.616	1673.925	1278.803
50.271	13.504	1673.199	1277.270
51.286	13.543	1671.340	1276.039
52.301	13.567	1670.405	1275.398
53.315	13.628	1668.976	1274.663
54.330	13.569	1667.238	1272.771
55.344	13.529	1665.427	1270.971
56.359	13.469	1664.222	1269.476
57.374	13.498	1663.146	1268.763
58.388	13.468	1661.981	1267.535
59.403	13.467	1660.417	1266.220
60.417	13.414	1659.163	1264.750
61.432	13.369	1658.257	1263.601
62.447	13.431	1657.162	1263.126
63.461	13.354	1655.863	1261.441
64.476	13.361	1655.201	1260.880
65.490	13.339	1653.653	1259.414
66.505	13.301	1652.236	1257.942
67.520	13.293	1651.316	1257.063
68.534	13.367	1650.443	1256.854
69.549	13.382	1649.418	1256.074
70.563	13.413	1648.012	1255.127
71.578	13.350	1647.211	1253.930
72.593	13.269	1646.160	1252.406
73.607	13.281	1645.096	1251.576
74.622	13.229	1643.935	1250.184
75.636	13.259	1642.843	1249.471
76.651	13.229	1641.781	1248.326
77.666	13.286	1641.055	1248.095
78.680	13.303	1640.188	1247.451
79.695	13.268	1639.076	1246.238
80.709	13.301	1638.312	1245.795
81.724	13.340	1637.477	1245.343
82.739	13.327	1637.056	1244.816
83.753	13.535	1635.123	1244.792
84.768	13.476	1634.776	1243.976
85.782	13.589	1634.576	1244.564
86.797	13.576	1633.058	1243.204
87.812	13.643	1631.888	1242.701
88.826	13.477	1631.170	1240.799
89.841	13.523	1629.675	1239.897
90.855	13.627	1628.522	1239.690
91.870	13.561	1628.009	1238.697
92.884	13.559	1626.805	1237.657
93.899	13.625	1625.381	1236.958
94.914	13.577	1624.275	1235.649
95.928	13.631	1622.858	1234.865
96.943	13.667	1621.475	1233.966
97.957	13.605	1620.230	1232.450
98.972	13.673	1618.194	1231.297
99.987	13.553	1617.550	1229.807
101.001	13.679	1615.242	1228.882
102.016	13.605	1613.682	1227.032
103.030	13.550	1612.708	1225.780
104.045	13.620	1611.326	1225.138
105.060	13.653	1609.973	1224.240
106.074	13.595	1608.282	1222.424
107.089	13.542	1606.557	1220.615
108.103	13.381	1605.282	1218.349
109.118	13.302	1604.281	1216.898
110.133	13.353	1602.830	1216.067
111.147	13.419	1601.035	1215.081
112.162	13.363	1599.903	1213.703
113.176	13.473	1598.110	1213.041
114.191	13.460	1597.086	1212.065
115.206	13.448	1595.735	1210.841
116.220	13.467	1594.617	1210.031
117.235	13.460	1593.172	1208.771
118.249	13.342	1592.329	1207.168
119.264	13.495	1590.622	1206.881
120.279	13.464	1589.204	1205.474
121.293	13.363	1588.343	1203.978
122.308	13.452	1586.259	1202.935
123.322	13.416	1584.490	1201.227
124.337	13.393	1583.161	1199.949
125.352	13.416	1581.991	1199.122
126.366	13.422	1581.226	1198.478
127.381	13.461	1579.909	1197.658
128.395	13.367	1579.027	1196.199
129.410	13.404	1577.673	1195.335
130.424	13.351	1576.319	1193.825
131.439	13.446	1574.506	1193.031
132.454	13.499	1573.479	1192.529
133.468	13.518	1571.413	1190.993
134.483	13.448	1570.995	1190.070
135.497	13.559	1568.967	1189.220
136.512	13.416	1567.821	1187.222
137.527	13.520	1566.257	1186.681
138.541	13.539	1565.215	1185.923
139.556	13.548	1563.738	1184.758
140.570	13.606	1562.401	1184.059
141.585	13.607	1561.345	1183.162
142.600	13.699	1559.798	1182.535
143.614	13.681	1558.658	1181.444
144.629	13.649	1557.508	1180.241
145.643	13.763	1555.771	1179.628
146.658	13.755	1554.696	1178.651
147.673	13.846	1552.317	1177.387
148.687	13.708	1551.419	1175.626
149.702	13.708	1549.858	1174.342
150.716	13.679	1548.293	1172.847
151.731	13.734	1546.660	1171.893
152.746	13.723	1544.892	1170.369
153.760	13.622	1543.886	1168.796
154.775	13.682	1542.877	1168.349
155.789	13.722	1542.084	1167.929
156.804	13.837	1540.410	1167.365
157.819	13.785	1538.661	1165.570
158.833	13.796	1538.117	1165.132
159.848	13.838	1537.000	1164.478
160.862	13.854	1535.317	1163.212
161.877	13.953	1533.801	1162.656
162.892	13.829	1533.123	1161.170
163.906	13.796	1531.900	1159.910
164.921	13.735	1530.620	1158.409
165.935	13.647	1529.575	1156.902
166.950	13.723	1528.495	1156.514
167.964	13.753	1527.542	1155.897
168.979	13.825	1526.084	1155.197
169.994	13.915	1525.324	1155.142
171.008	13.844	1524.144	1153.652
172.023	13.781	1523.420	1152.567
173.037	13.896	1521.950	1152.153
174.052	13.939	1520.868	1151.530
175.067	14.021	1519.402	1150.884
176.081	13.896	1518.401	1149.158
177.096	13.855	1517.283	1147.929
178.110	13.848	1515.732	1146.604
179.125	13.844	1514.978	1145.904
180.140	13.930	1513.541	1145.310
181.154	13.852	1513.042	1144.293
182.169	13.879	1511.890	1143.507
183.183	13.956	1510.284	1142.720
184.198	14.020	1509.106	1142.166
185.213	13.995	1508.638	1141.542
186.227	14.043	1507.101	1140.609
187.242	14.050	1506.169	1139.847
188.256	14.091	1505.345	1139.407
189.271	14.141	1503.914	1138.561
190.286	14.125	1503.009	1137.669
191.300	14.174	1501.781	1136.975
192.315	13.958	1500.704	1134.584
193.329	13.843	1499.580	1132.847
194.344	13.854	1498.042	1131.656
195.359	13.906	1497.471	1131.481
196.373	13.919	1496.488	1130.729
197.388	14.008	1495.151	1130.222
198.402	14.193	1493.785	1130.349
199.417	14.169	1492.840	1129.367
200.432	14.280	1491.951	1129.349
201.446	14.357	1490.907	1128.979
202.461	14.259	1489.575	1127.212
203.475	14.361	1488.046	1126.644
204.490	14.303	1487.848	1126.001
205.504	14.403	1486.302	1125.407
206.519	14.289	1485.448	1123.893
207.534	14.299	1483.978	1122.748
208.548	14.296	1482.769	1121.715
209.563	14.265	1481.687	1120.584
210.577	14.348	1480.494	1120.143
211.592	14.306	1480.135	1119.488
212.607	14.322	1479.628	1119.115
213.621	14.423	1478.901	1119.147
214.636	14.446	1477.585	1118.204
215.650	14.386	1476.993	1117.257
216.665	14.454	1475.707	1116.636
217.680	14.428	1475.335	1116.081
218.694	14.562	1473.799	1115.718
219.709	14.483	1473.046	1114.523
220.723	14.555	1472.402	1114.419
221.738	14.579	1471.268	1113.619
222.753	14.484	1470.707	1112.463
223.767	14.563	1469.220	1111.766
224.782	14.560	1468.078	1110.781
225.796	14.658	1467.107	1110.604
226.811	14.620	1466.681	1109.930
227.826	14.657	1465.778	1109.393
228.840	14.674	1464.795	1108.669
229.855	14.705	1463.912	1108.104
230.869	14.540	1463.683	1106.735
231.884	14.552	1462.520	1105.840
232.899	14.573	1460.648	1104.468
233.913	14.629	1459.621	1103.962
234.928	14.552	1458.329	1102.382
235.942	14.504	1457.397	1101.261
236.957	14.458	1456.245	1099.991
237.972	14.428	1454.949	1098.712
238.986	14.509	1453.893	1098.354
240.001	14.575	1452.622	1097.733
241.015	14.609	1451.518	1097.020
242.030	14.653	1450.284	1096.279
243.045	14.728	1449.648	1096.197
244.059	14.726	1448.538	1095.247
245.074	14.642	1448.088	1094.256
246.088	14.652	1447.304	1093.633
247.103	14.797	1446.524	1093.901
248.117	14.756	1445.359	1092.650
249.132	14.895	1444.323	1092.683
250.147	14.986	1443.746	1092.739
251.161	14.943	1443.240	1091.979
252.176	15.046	1442.587	1092.064
253.190	15.007	1442.047	1091.302
254.205	15.097	1440.934	1090.951
255.220	15.118	1440.643	1090.773
256.234	15.063	1439.468	1089.427
257.249	15.166	1438.504	1089.272
258.263	15.299	1437.679	1089.416
259.278	15.292	1436.422	1088.319
260.293	15.253	1435.689	1087.415
261.307	15.315	1434.469	1086.796
262.322	15.280	1434.188	1086.261
263.336	15.299	1433.235	1085.562
264.351	15.335	1432.699	1085.294
265.366	15.361	1431.299	1084.305
266.380	15.419	1430.311	1083.836
267.395	15.399	1429.662	1083.120
268.409	15.337	1428.485	1081.737
269.424	15.319	1427.904	1081.080
270.439	15.349	1426.597	1080.190
271.453	15.367	1425.382	1079.290
272.468	15.312	1424.696	1078.322
273.482	15.349	1424.034	1077.965
274.497	15.388	1423.148	1077.446
275.512	15.252	1422.061	1075.655
276.526	15.364	1421.486	1075.843
277.541	15.366	1420.100	1074.717
278.555	15.305	1419.384	1073.688
279.570	15.462	1418.656	1074.047
280.585	15.404	1417.744	1072.891
281.599	15.462	1417.018	1072.616
282.614	15.566	1415.854	1072.303
283.628	15.464	1414.914	1070.844
284.643	15.468	1413.884	1069.997
285.657	15.500	1412.412	1068.991
286.672	15.460	1411.929	1068.276
287.687	15.466	1410.813	1067.375
288.701	15.615	1409.436	1067.188
289.716	15.447	1409.534	1066.099
290.730	15.550	1408.061	1065.545
291.745	15.528	1406.832	1064.380
292.760	15.545	1406.226	1063.936
293.774	15.618	1404.968	1063.353
294.789	15.647	1404.205	1062.861
295.803	15.647	1403.228	1062.031
296.818	15.751	1402.560	1062.089
297.833	15.676	1401.593	1060.790
298.847	15.557	1400.867	1059.396
299.862	15.683	1399.601	1059.134
300.876	15.679	1398.520	1058.201
301.891	15.608	1398.241	1057.445
302.906	15.756	1396.923	1057.284
303.920	15.759	1396.189	1056.655
304.935	15.827	1395.552	1056.507
305.949	15.838	1394.456	1055.654
306.964	15.991	1394.010	1056.183
307.979	15.892	1392.988	1054.692
308.993	15.839	1391.939	1053.476
310.008	15.883	1390.943	1052.905
311.022	15.881	1390.218	1052.248
312.037	15.977	1388.842	1051.711
313.052	15.994	1388.323	1051.333
314.066	15.977	1387.296	1050.357
315.081	15.877	1386.266	1048.861
316.095	15.832	1385.175	1047.664
317.110	15.832	1383.809	1046.538
318.125	15.763	1383.303	1045.632
319.139	15.938	1382.438	1045.971
320.154	15.883	1381.245	1044.640
321.168	15.963	1380.065	1044.146
322.183	15.935	1379.128	1043.174
323.197	15.979	1377.965	1042.471
324.212	15.945	1377.587	1041.887
325.227	15.997	1376.479	1041.275
326.241	15.960	1375.532	1040.240
327.256	16.023	1374.697	1039.903
328.270	16.043	1373.812	1039.264
329.285	16.075	1372.931	1038.706
330.300	16.010	1371.712	1037.291
331.314	15.972	1371.160	1036.550
332.329	16.023	1370.553	1036.314
333.343	16.055	1369.470	1035.599
334.358	16.070	1368.746	1035.048
335.373	16.159	1367.632	1034.662
336.387	15.990	1367.274	1033.265
337.402	16.160	1366.364	1033.527
338.416	16.206	1365.430	1033.011
339.431	16.186	1364.880	1032.380
340.446	16.309	1364.323	1032.617
341.460	16.337	1362.741	1031.501
342.475	16.331	1362.304	1031.044
343.489	16.373	1361.555	1030.638
344.504	16.393	1360.689	1030.018
345.519	16.358	1359.494	1028.809
346.533	16.499	1358.618	1028.909
347.548	16.407	1357.811	1027.652
348.562	16.501	1356.871	1027.416
349.577	16.565	1356.037	1027.084
350.592	16.517	1355.661	1026.418
351.606	16.491	1354.655	1025.408
352.621	16.422	1353.457	1023.993
353.635	16.368	1352.593	1022.924
354.650	16.362	1351.050	1021.625
355.665	16.482	1350.282	1021.682
356.679	16.443	1349.212	1020.545
357.694	16.469	1347.840	1019.575
358.708	16.386	1347.096	1018.419
359.723	16.475	1346.550	1018.455
360.738	16.565	1344.811	1017.588
361.752	16.616	1344.173	1017.326
362.767	16.584	1342.976	1016.134
363.781	16.576	1341.785	1015.096
364.796	16.540	1340.945	1014.159
365.810	16.642	1340.539	1014.372
366.825	16.675	1339.839	1013.948
367.840	16.742	1338.985	1013.612
368.854	16.758	1338.635	1013.357
369.869	16.790	1338.023	1012.991
370.883	16.754	1336.977	1011.895
371.898	16.839	1336.105	1011.654
372.913	16.813	1335.257	1010.766
373.927	16.755	1334.538	1009.791
374.942	16.785	1333.611	1009.174
375.956	16.897	1332.892	1009.209
376.971	16.876	1332.319	1008.562
377.986	16.942	1331.470	1008.220
379.000	16.888	1330.724	1007.246
380.015	16.900	1329.951	1006.641
381.029	16.994	1328.720	1006.180
382.044	17.019	1328.053	1005.736
383.059	17.005	1327.552	1005.183
384.073	17.121	1326.837	1005.240
385.088	17.063	1326.188	1004.318
386.102	17.095	1325.637	1003.997
387.117	17.114	1324.937	1003.492
388.132	17.136	1323.809	1002.680
389.146	16.993	1322.915	1001.070
390.161	17.040	1321.973	1000.544
391.175	16.944	1321.428	999.477
392.190	17.061	1320.401	999.302
393.205	17.177	1319.571	999.265
394.219	17.095	1318.938	998.219
395.234	17.187	1317.278	997.411
396.248	17.143	1316.090	996.168
397.263	16.989	1315.106	994.431
398.278	17.073	1313.608	993.703
399.292	17.045	1312.239	992.415
400.307	17.093	1311.771	992.253
401.321	17.065	1310.417	990.979
402.336	17.096	1309.154	990.115
403.350	17.028	1308.443	989.097
404.365	17.037	1307.880	988.634
405.380	17.105	1306.643	988.008
406.394	17.098	1305.866	987.290
407.409	17.161	1305.109	986.999
408.423	17.226	1304.324	986.694
409.438	17.355	1303.428	986.677
410.453	17.382	1302.955	986.391
411.467	17.397	1302.335	985.919
412.482	17.446	1301.698	985.634
413.496	17.479	1300.841	985.091
414.511	17.509	1300.361	984.810
415.526	17.521	1299.356	984.033
416.540	17.490	1298.645	983.228
417.555	17.530	1298.067	982.936
418.569	17.494	1297.593	982.283
419.584	17.538	1297.209	982.159
420.599	17.466	1296.588	981.188
421.613	95.180	1356.089	1471.151
422.628	93.502	1364.697	1471.262
