DTS Sentinel unit serial number:	SN413079Multiplexer serial number:	ORYXHardware model number:	OX4-SRSoftware version number:	ORYX F/W v4.00 Oryx Data Collector v3.7.2.0data status	okinstallation	princeton_trtdifferential loss correction	single-endedforward channel	channel 4reverse channel	N/Adate	2019/09/15time	20:29:34forward acquisition time	60.00reverse acquisition time	0.00gamma	496.2192k internal	0.2313k external	0.2313temperature offset calibration	0.9934default loss term (dB/km)	0.3790temperature slope calibration	1.0000multiplexer offset coefficient	1.0000multiplexer slope coefficient	1.0000fibre end	0.00T internal ref (°C)	33.50T ext. ref 1 (°C)	7.81T ext. ref 2 (°C)	25.25length (m)	temperature (°C)	Stokes	anti-Stokes-747.200	188.241	-0.232	-0.351
-746.185	293.108	-0.119	0.220
-745.171	620.369	-0.099	0.251
-744.156	7.065	0.101	-0.077
-743.142	-112.548	-0.164	0.033
-742.127	-93.393	0.283	-0.079
-741.112	-94.630	0.126	-0.035
-740.098	255.694	-0.104	-0.181
-739.083	800.000	0.047	0.182
-738.069	-200.000	0.024	0.376
-737.054	800.000	0.052	-0.151
-736.039	-17.096	-0.299	-0.192
-735.025	-67.354	0.365	0.146
-734.010	-138.552	0.227	0.025
-732.996	59.907	-0.143	-0.143
-731.981	-184.073	-0.209	-0.004
-730.966	-80.764	-0.281	0.095
-729.952	-200.000	-0.007	0.204
-728.937	-106.085	-0.381	-0.087
-727.923	800.000	-0.010	-0.045
-726.908	-131.273	-0.281	0.038
-725.894	107.305	0.152	0.183
-724.879	800.000	0.026	-0.102
-723.864	-97.591	0.381	0.100
-722.850	-116.316	-0.142	-0.027
-721.835	-75.131	0.239	0.086
-720.821	3.106	0.099	0.073
-719.806	-122.603	-0.453	0.074
-718.791	340.965	0.153	-0.303
-717.777	-200.000	-0.011	0.083
-716.762	800.000	0.017	0.072
-715.748	800.000	0.035	0.112
-714.733	-16.578	-0.082	-0.053
-713.718	-182.134	-0.211	0.004
-712.704	429.768	0.044	-0.097
-711.689	800.000	0.048	-0.150
-710.675	3.027	0.239	0.176
-709.660	-151.695	-0.346	0.026
-708.645	751.418	-0.110	-0.302
-707.631	-200.000	-0.015	0.097
-706.616	-200.000	0.021	-0.100
-705.602	4.813	0.158	0.118
-704.587	181.071	-0.126	0.187
-703.572	-97.101	-0.180	-0.048
-702.558	145.184	-0.256	0.347
-701.543	-42.147	0.103	0.054
-700.529	-96.697	-0.183	-0.049
-699.514	-159.268	-0.170	0.010
-698.499	-93.066	-0.452	0.127
-697.485	800.000	-0.038	0.137
-696.470	182.738	-0.164	0.244
-695.456	800.000	0.037	-0.162
-694.441	-127.966	-0.291	-0.042
-693.426	149.898	0.043	-0.059
-692.412	-200.000	-0.037	-0.287
-691.397	800.000	0.160	-0.450
-690.383	16.879	0.357	-0.286
-689.368	74.775	0.190	0.203
-688.354	14.381	0.158	0.125
-687.339	800.000	0.102	0.335
-686.324	181.758	0.199	0.297
-685.310	-119.709	0.238	0.042
-684.295	-200.000	0.008	-0.140
-683.281	-200.000	-0.016	0.215
-682.266	-136.454	-0.157	-0.018
-681.251	-200.000	-0.042	0.228
-680.237	144.268	0.157	0.213
-679.222	-129.352	0.185	0.026
-678.208	-200.000	0.084	-0.480
-677.193	-200.000	-0.035	0.234
-676.178	50.600	0.118	0.113
-675.164	-21.463	-0.272	-0.168
-674.149	199.156	0.118	-0.183
-673.135	-48.416	0.262	-0.128
-672.120	800.000	0.112	0.427
-671.105	-76.548	-0.204	0.072
-670.091	-60.941	0.206	-0.088
-669.076	79.419	0.185	-0.201
-668.062	14.003	-0.281	-0.221
-667.047	-200.000	-0.022	0.245
-666.032	-141.809	0.321	-0.032
-665.018	-200.000	0.015	0.217
-664.003	-138.650	-0.390	-0.043
-662.989	-60.962	-0.181	0.077
-661.974	33.838	0.308	-0.271
-660.959	158.535	0.068	0.095
-659.945	135.981	-0.092	0.121
-658.930	117.172	0.316	-0.393
-657.916	578.989	-0.124	-0.307
-656.901	-200.000	-0.034	0.211
-655.886	-200.000	-0.008	-0.035
-654.872	762.013	0.031	0.084
-653.857	200.106	0.036	-0.056
-652.843	-107.745	-0.130	-0.029
-651.828	24.013	-0.113	0.094
-650.814	152.477	-0.224	0.309
-649.799	800.000	-0.113	0.358
-648.784	-200.000	0.017	-0.182
-647.770	262.311	-0.115	0.202
-646.755	-48.639	0.126	-0.061
-645.741	800.000	0.015	0.060
-644.726	55.547	0.050	0.049
-643.711	120.939	-0.076	0.096
-642.697	-200.000	0.004	0.071
-641.682	-19.210	-0.338	-0.212
-640.668	-109.727	-0.321	0.068
-639.653	654.969	-0.197	0.511
-638.638	800.000	-0.091	-0.372
-637.624	6.777	0.115	-0.086
-636.609	117.228	-0.073	0.091
-635.595	-156.338	0.497	-0.031
-634.580	-65.415	-0.086	-0.035
-633.565	-69.626	-0.290	-0.112
-632.551	800.000	-0.007	0.025
-631.536	341.341	-0.021	-0.042
-630.522	-90.811	-0.298	0.087
-629.507	96.704	0.054	-0.063
-628.492	-118.012	0.073	0.013
-627.478	563.013	0.066	-0.160
-626.463	273.553	-0.111	-0.198
-625.449	-200.000	-0.027	0.285
-624.434	-54.856	0.224	0.102
-623.419	-200.000	-0.005	-0.249
-622.405	188.045	-0.246	0.371
-621.390	49.987	-0.168	0.160
-620.376	71.787	0.354	0.371
-619.361	0.132	0.077	0.056
-618.346	13.695	-0.120	0.094
-617.332	-43.008	-0.126	-0.064
-616.317	-16.725	-0.127	-0.081
-615.303	-175.794	-0.224	0.006
-614.288	-200.000	0.003	0.306
-613.273	-200.000	0.074	0.377
-612.259	800.000	0.032	0.143
-611.244	1.629	-0.256	-0.186
-610.230	-71.742	-0.303	-0.114
-609.215	-200.000	-0.007	0.160
-608.201	800.000	0.131	0.408
-607.186	624.018	0.015	0.039
-606.171	-126.520	-0.305	-0.046
-605.157	-66.557	0.065	0.026
-604.142	-113.080	-0.166	-0.033
-603.128	37.510	-0.321	-0.287
-602.113	-132.105	-0.115	-0.015
-601.098	12.129	-0.096	0.075
-600.084	41.421	0.189	0.172
-599.069	-200.000	0.021	-0.314
-598.055	-36.804	0.081	-0.044
-597.040	-200.000	-0.004	-0.066
-596.025	58.513	-0.066	-0.066
-595.011	-98.822	0.204	-0.052
-593.996	-200.000	-0.009	0.063
-592.982	-69.534	0.323	0.125
-591.967	-200.000	-0.015	-0.074
-590.952	465.575	0.072	0.162
-589.938	800.000	-0.041	0.180
-588.923	39.549	-0.200	-0.180
-587.909	-148.474	-0.171	0.014
-586.894	324.612	0.143	-0.276
-585.879	399.175	0.028	0.060
-584.865	187.796	-0.200	-0.300
-583.850	-200.000	0.009	-0.127
-582.836	-12.904	0.234	0.154
-581.821	654.566	-0.060	0.154
-580.806	-200.000	0.006	-0.192
-579.792	-200.000	-0.041	-0.353
-578.777	430.203	0.058	-0.127
-577.763	-200.000	-0.056	-0.294
-576.748	184.536	0.124	-0.185
-575.733	367.195	0.096	-0.195
-574.719	13.384	-0.261	-0.204
-573.704	-174.025	0.165	-0.005
-572.690	800.000	-0.060	-0.227
-571.675	800.000	-0.044	0.144
-570.661	-200.000	0.050	0.289
-569.646	27.406	-0.215	0.182
-568.631	-131.232	0.117	-0.016
-567.617	-200.000	-0.020	0.184
-566.602	546.665	0.098	0.236
-565.588	1.040	-0.271	0.196
-564.573	333.045	0.049	-0.096
-563.558	416.409	0.169	0.363
-562.544	80.398	0.088	-0.096
-561.529	323.088	0.164	0.314
-560.515	355.896	0.123	0.246
-559.500	119.748	-0.116	0.145
-558.485	103.748	-0.219	-0.259
-557.471	619.234	-0.075	-0.190
-556.456	-200.000	-0.041	-0.292
-555.442	-36.477	0.390	0.211
-554.427	-200.000	0.023	-0.267
-553.412	39.908	0.193	0.175
-552.398	-109.326	-0.083	0.018
-551.383	-159.009	0.302	0.017
-550.369	-40.797	-0.304	0.158
-549.354	-119.932	-0.311	0.054
-548.339	-126.871	0.226	0.033
-547.325	-97.928	0.198	0.051
-546.310	-0.296	-0.189	0.135
-545.296	800.000	0.108	-0.321
-544.281	-81.486	-0.141	0.047
-543.266	36.671	-0.291	-0.259
-542.252	-200.000	0.007	-0.033
-541.237	-27.033	-0.209	-0.123
-540.223	29.159	0.184	0.157
-539.208	-131.332	-0.052	0.007
-538.193	-47.669	-0.067	-0.033
-537.179	-198.211	-0.053	0.000
-536.164	354.246	0.120	0.240
-535.150	-83.735	-0.077	0.025
-534.135	-20.254	0.249	0.154
-533.121	800.000	0.039	0.117
-532.106	-4.580	-0.098	-0.068
-531.091	800.000	0.115	-0.362
-530.077	15.477	0.111	-0.087
-529.062	6.749	0.070	0.053
-528.048	-80.361	0.107	0.036
-527.033	84.982	0.241	0.266
-526.018	5.371	0.102	-0.076
-525.004	-104.176	-0.327	-0.076
-523.989	-96.654	-0.228	-0.060
-522.975	118.629	0.094	-0.117
-521.960	390.261	0.092	0.192
-520.945	337.855	-0.107	-0.209
-519.931	800.000	0.010	0.042
-518.916	-14.418	0.204	0.132
-517.902	63.070	0.155	-0.156
-516.887	-200.000	-0.012	-0.557
-515.872	-200.000	-0.006	-0.153
-514.858	-4.657	0.105	-0.073
-513.843	-140.725	-0.216	-0.022
-512.829	-191.246	0.229	-0.002
-511.814	254.900	-0.138	0.237
-510.799	-200.000	0.018	-0.333
-509.785	800.000	-0.028	0.103
-508.770	43.067	0.111	-0.102
-507.756	64.672	0.045	-0.046
-506.741	-162.566	0.132	0.007
-505.726	232.423	0.163	0.268
-504.712	-200.000	0.013	0.287
-503.697	-92.414	0.312	0.088
-502.683	800.000	0.115	0.356
-501.668	-200.000	0.001	0.090
-500.653	-0.988	-0.148	0.105
-499.639	800.000	-0.036	0.114
-498.624	-200.000	0.011	0.118
-497.610	30.152	0.119	-0.102
-496.595	354.653	-0.178	-0.355
-495.581	800.000	-0.080	-0.238
-494.566	163.463	-0.089	-0.125
-493.551	-200.000	-0.081	0.571
-492.537	152.384	0.066	0.091
-491.522	24.081	-0.347	0.288
-490.508	-120.875	0.042	0.007
-489.493	111.961	-0.178	-0.216
-488.478	353.343	0.117	0.232
-487.464	539.348	-0.085	0.202
-486.449	-200.000	-0.008	0.221
-485.435	235.418	0.060	0.099
-484.420	-200.000	-0.041	-0.331
-483.405	-35.845	0.128	-0.070
-482.391	504.285	0.273	-0.635
-481.376	-17.153	-0.122	-0.077
-480.362	-200.000	0.009	-0.144
-479.347	43.434	0.174	0.160
-478.332	431.404	-0.043	0.094
-477.318	-17.200	0.380	-0.240
-476.303	335.936	-0.145	0.283
-475.289	26.318	-0.232	0.194
-474.274	-69.278	-0.059	-0.023
-473.259	-130.157	-0.154	-0.021
-472.245	113.172	0.240	-0.292
-471.230	-123.233	0.074	-0.012
-470.216	-104.414	-0.271	0.063
-469.201	131.818	-0.044	-0.057
-468.186	248.004	-0.235	-0.399
-467.172	764.402	-0.101	-0.274
-466.157	-200.000	-0.009	0.086
-465.143	-200.000	0.008	-0.355
-464.128	171.040	0.172	-0.248
-463.113	82.850	-0.101	0.111
-462.099	-200.000	-0.031	-0.155
-461.084	198.696	0.180	0.276
-460.070	-200.000	0.060	0.369
-459.055	-79.105	-0.192	-0.065
-458.040	369.925	0.152	0.310
-457.026	-110.539	0.120	0.025
-456.011	-110.955	0.116	-0.024
-454.997	-98.065	0.404	0.104
-453.982	99.552	-0.127	-0.147
-452.968	-46.261	-0.067	0.033
-451.953	-200.000	0.006	-0.054
-450.938	800.000	-0.079	0.256
-449.924	-127.755	-0.212	-0.031
-448.909	92.746	-0.263	-0.298
-447.895	-200.000	0.028	0.149
-446.880	231.655	0.109	-0.178
-445.865	-67.199	-0.205	0.081
-444.851	800.000	0.055	-0.177
-443.836	-90.900	0.188	0.054
-442.822	-26.471	0.212	0.125
-441.807	-160.837	0.165	0.009
-440.792	-111.995	0.229	0.046
-439.778	2.628	0.257	-0.186
-438.763	-131.356	-0.278	-0.037
-437.749	-5.973	0.178	0.122
-436.734	8.918	0.102	-0.077
-435.719	55.126	0.279	-0.270
-434.705	3.459	0.178	0.130
-433.690	183.236	-0.150	0.222
-432.676	-63.935	0.143	-0.059
-431.661	-73.281	0.299	-0.110
-430.646	-80.171	0.265	0.089
-429.632	-55.059	-0.198	-0.089
-428.617	-35.589	0.277	0.151
-427.603	117.426	0.140	0.172
-426.588	-156.377	0.256	-0.016
-425.573	-5.734	0.042	-0.029
-424.559	120.089	-0.027	-0.034
-423.544	-127.448	0.251	-0.037
-422.530	54.882	0.160	-0.155
-421.515	20.410	-0.121	-0.098
-420.500	209.265	0.198	0.311
-419.486	800.000	-0.019	0.052
-418.471	-200.000	-0.020	-0.199
-417.457	-52.073	-0.098	0.046
-416.442	-121.976	-0.413	-0.068
-415.428	304.664	-0.103	-0.191
-414.413	-149.035	0.282	-0.023
-413.398	800.000	-0.035	-0.131
-412.384	369.932	0.085	0.172
-411.369	-200.000	0.066	0.293
-410.355	-47.362	0.375	0.183
-409.340	800.000	-0.030	0.097
-408.325	-59.136	-0.422	0.182
-407.311	33.244	-0.163	0.141
-406.296	398.026	0.188	0.394
-405.282	-100.042	-0.379	0.094
-404.267	56.266	-0.102	0.099
-403.252	220.977	0.037	0.059
-402.238	-116.616	0.303	0.056
-401.223	109.985	0.149	-0.179
-400.209	196.943	-0.122	-0.186
-399.194	-200.000	0.025	-0.113
-398.179	-95.986	0.244	0.065
-397.165	435.808	-0.117	-0.255
-396.150	-2.307	-0.133	-0.093
-395.136	800.000	-0.109	-0.333
-394.121	-136.091	-0.227	0.027
-393.106	705.645	-0.098	0.259
-392.092	-200.000	-0.037	0.164
-391.077	-158.281	-0.194	0.011
-390.063	109.522	0.168	-0.201
-389.048	-142.035	0.153	-0.015
-388.033	785.056	0.231	-0.633
-387.019	-200.000	0.006	-0.065
-386.004	365.165	-0.087	-0.174
-384.990	-105.998	0.275	0.062
-383.975	49.794	-0.114	0.107
-382.960	-154.343	-0.137	0.009
-381.946	266.802	0.042	0.073
-380.931	800.000	0.031	0.109
-379.917	154.617	0.176	0.242
-378.902	62.175	0.090	-0.090
-377.888	-200.000	-0.000	-0.019
-376.873	300.320	-0.162	0.299
-375.858	800.000	-0.043	0.156
-374.844	-65.313	-0.260	-0.105
-373.829	-73.510	0.130	0.047
-372.815	800.000	-0.044	0.165
-371.800	-103.863	0.247	-0.058
-370.785	-47.715	-0.258	0.125
-369.771	193.645	-0.123	0.185
-368.756	749.072	0.013	0.036
-367.742	-159.349	0.090	-0.005
-366.727	-51.041	0.255	0.120
-365.712	-65.381	0.181	0.073
-364.698	-35.706	-0.186	0.101
-363.683	-5.373	0.286	-0.196
-362.669	768.517	-0.070	-0.192
-361.654	175.965	0.200	0.289
-360.639	215.471	0.093	-0.147
-359.625	800.000	-0.036	0.115
-358.610	66.706	-0.192	-0.196
-357.596	-142.070	-0.709	-0.070
-356.581	80.045	0.043	0.047
-355.566	-200.000	-0.019	-0.108
-354.552	-47.618	-0.228	-0.111
-353.537	391.986	-0.108	-0.225
-352.523	85.154	-0.046	0.050
-351.508	7.968	0.131	-0.098
-350.493	225.765	-0.049	0.079
-349.479	-200.000	0.045	-0.248
-348.464	-124.699	0.207	0.032
-347.450	-200.000	-0.050	0.332
-346.435	349.791	0.124	0.244
-345.420	186.056	0.102	-0.151
-344.406	-200.000	-0.020	0.098
-343.391	800.000	-0.051	-0.200
-342.377	51.187	-0.128	-0.122
-341.362	-165.546	-0.358	0.016
-340.348	800.000	0.040	0.148
-339.333	-112.983	-0.245	-0.048
-338.318	-200.000	0.037	-0.384
-337.304	-64.909	0.186	-0.075
-336.289	-11.377	-0.459	0.301
-335.275	-59.721	-0.184	-0.079
-334.260	800.000	0.097	-0.365
-333.245	-33.121	0.332	0.184
-332.231	-79.646	-0.202	-0.068
-331.216	-93.796	-0.251	-0.069
-330.202	-200.000	0.016	-0.113
-329.187	790.696	-0.138	0.377
-328.172	-200.000	0.033	0.178
-327.158	-8.984	0.078	-0.052
-326.143	722.018	0.152	0.404
-325.129	17.317	0.098	-0.077
-324.114	-95.736	0.328	0.087
-323.099	68.827	-0.123	-0.126
-322.085	138.948	-0.039	-0.051
-321.070	-14.062	0.136	-0.087
-320.056	-100.106	0.001	0.000
-319.041	-200.000	0.029	-0.128
-318.026	800.000	0.087	0.362
-317.012	47.308	-0.129	-0.120
-315.997	-28.039	0.212	0.122
-314.983	-93.220	-0.081	0.023
-313.968	560.591	0.067	-0.161
-312.953	364.444	0.141	-0.282
-311.939	533.682	0.111	-0.261
-310.924	-102.999	-0.130	0.031
-309.910	-96.305	-0.203	-0.053
-308.895	800.000	0.011	-0.031
-307.880	800.000	-0.036	0.111
-306.866	7.283	-0.190	0.142
-305.851	800.000	0.036	-0.111
-304.837	-107.794	0.126	-0.027
-303.822	-38.449	-0.316	-0.166
-302.807	-141.036	0.252	0.026
-301.793	-200.000	-0.008	-0.258
-300.778	95.463	0.227	0.258
-299.764	-94.543	-0.258	0.070
-298.749	114.170	-0.169	-0.205
-297.735	9.243	-0.151	0.114
-296.720	-200.000	-0.011	0.242
-295.705	-61.272	0.362	0.152
-294.691	-140.725	-0.071	-0.007
-293.676	-130.463	0.475	-0.064
-292.662	800.000	0.062	-0.177
-291.647	398.879	-0.182	0.380
-290.632	-200.000	-0.025	-0.162
-289.618	170.799	0.136	-0.194
-288.603	-84.414	-0.374	-0.118
-287.589	660.415	-0.047	-0.120
-286.574	-70.410	0.158	0.060
-285.559	309.608	0.072	-0.135
-284.545	15.566	-0.269	0.211
-283.530	229.930	-0.023	-0.037
-282.516	-200.000	-0.010	-0.158
-281.501	13.975	-0.107	-0.083
-280.486	-200.000	-0.004	-0.042
-279.472	111.570	0.163	0.196
-278.457	96.998	0.158	-0.180
-277.443	-200.000	-0.022	-0.141
-276.428	-139.747	-0.074	0.008
-275.413	364.523	-0.082	0.165
-274.399	83.309	-0.158	0.171
-273.384	-49.129	0.332	-0.158
-272.370	490.274	0.153	0.349
-271.355	-135.365	-0.203	-0.024
-270.340	-84.789	-0.121	-0.038
-269.326	800.000	0.063	-0.175
-268.311	236.938	-0.184	0.303
-267.297	11.392	0.319	-0.244
-266.282	204.391	-0.145	0.223
-265.267	-108.512	-0.250	0.054
-264.253	347.324	0.033	-0.065
-263.238	-109.995	0.221	0.046
-262.224	-50.490	-0.228	-0.107
-261.209	-127.666	0.140	0.020
-260.195	41.188	-0.025	0.023
-259.180	-135.879	-0.225	-0.026
-258.165	-71.591	0.173	0.064
-257.151	800.000	0.075	-0.294
-256.136	-109.272	0.226	0.048
-255.122	63.673	0.268	-0.268
-254.107	-111.037	-0.419	0.086
-253.092	-200.000	-0.026	-0.209
-252.078	-200.000	-0.072	0.410
-251.063	113.257	-0.092	-0.111
-250.049	-74.021	-0.071	-0.026
-249.034	-169.139	-0.337	-0.012
-248.019	800.000	0.058	0.194
-247.005	-200.000	-0.047	0.258
-245.990	-127.840	0.106	0.015
-244.976	-200.000	-0.083	0.373
-243.961	-175.967	0.062	-0.002
-242.946	-93.745	-0.184	0.050
-241.932	431.075	-0.024	0.052
-240.917	10.454	-0.110	0.083
-239.903	-73.614	0.125	-0.045
-238.888	-197.522	0.094	-0.001
-237.873	138.605	-0.297	-0.388
-236.859	751.073	0.075	0.200
-235.844	-108.359	-0.216	-0.046
-234.830	522.505	0.037	0.086
-233.815	-15.260	-0.286	-0.182
-232.800	-27.054	-0.066	0.039
-231.786	-151.322	0.158	-0.012
-230.771	31.756	-0.058	0.050
-229.757	-118.596	0.095	-0.017
-228.742	108.491	-0.166	-0.196
-227.727	-52.352	0.073	0.034
-226.713	-3.551	0.314	-0.217
-225.698	56.524	-0.079	-0.077
-224.684	363.089	0.080	-0.159
-223.669	405.782	0.081	0.170
-222.655	-70.315	0.302	-0.114
-221.640	-2.141	0.180	-0.126
-220.625	-107.420	0.184	0.040
-219.611	-122.976	-0.099	-0.016
-218.596	-31.746	-0.312	-0.174
-217.582	-106.048	0.176	0.039
-216.567	202.686	0.074	-0.114
-215.552	-144.949	-0.330	0.030
-214.538	-200.000	0.004	-0.186
-213.523	-67.053	0.357	0.140
-212.509	-169.028	-0.668	0.025
-211.494	-200.000	0.033	0.243
-210.479	391.315	0.119	0.246
-209.465	187.841	0.109	-0.162
-208.450	800.000	-0.032	-0.130
-207.436	14.705	0.104	-0.081
-206.421	-79.709	-0.031	0.010
-205.406	-200.000	0.002	-0.020
-204.392	-85.358	0.182	-0.056
-203.377	-81.304	-0.360	0.118
-202.363	-90.072	0.092	0.027
-201.348	99.921	-0.095	0.110
-200.333	218.448	0.242	-0.383
-199.319	-200.000	0.010	-0.224
-198.304	-65.137	0.204	-0.082
-197.290	-89.130	0.089	0.026
-196.275	-17.732	0.134	-0.083
-195.260	172.881	0.073	0.104
-194.246	800.000	-0.063	-0.177
-193.231	578.120	0.074	-0.179
-192.217	199.942	-0.109	0.166
-191.202	27.219	-0.070	0.058
-190.187	-200.000	-0.048	0.220
-189.173	-114.129	0.164	0.031
-188.158	360.851	0.025	-0.050
-187.144	-181.138	0.052	0.001
-186.129	394.170	-0.044	0.092
-185.114	-200.000	0.035	-0.234
-184.100	-27.929	0.251	-0.145
-183.085	-200.000	0.012	-0.383
-182.071	671.518	0.141	-0.362
-181.056	-63.757	0.407	0.166
-180.042	-149.756	0.261	0.020
-179.027	800.000	-0.049	-0.179
-178.012	-150.025	-0.182	-0.014
-176.998	97.211	-0.118	0.134
-175.983	-200.000	0.001	0.060
-174.969	-30.047	-0.242	-0.137
-173.954	-106.164	-0.133	0.030
-172.939	-76.879	-0.083	0.029
-171.925	800.000	-0.034	0.141
-170.910	107.738	0.138	0.162
-169.896	23.364	0.277	0.226
-168.881	121.807	-0.095	-0.117
-167.866	-200.000	-0.023	-0.122
-166.852	51.429	-0.362	-0.341
-165.837	63.304	0.282	0.280
-164.823	446.121	-0.096	0.209
-163.808	264.518	-0.151	0.261
-162.793	266.139	0.028	0.049
-161.779	649.323	0.046	-0.116
-160.764	-54.391	0.206	0.092
-159.750	783.028	-0.104	0.283
-158.735	800.000	0.085	-0.244
-157.720	-69.301	0.031	-0.012
-156.706	-200.000	0.021	-0.094
-155.691	-200.000	-0.040	0.538
-154.677	-88.479	-0.350	-0.103
-153.662	13.282	-0.062	0.047
-152.647	-200.000	0.028	-0.341
-151.633	-4.345	-0.128	-0.088
-150.618	-70.001	0.350	-0.132
-149.604	-200.000	0.033	-0.189
-148.589	150.868	0.145	-0.196
-147.574	800.000	-0.051	-0.167
-146.560	243.308	0.141	-0.234
-145.545	-2.296	-0.086	0.060
-144.531	-80.901	0.440	-0.145
-143.516	10.725	0.270	0.204
-142.502	-200.000	0.024	0.238
-141.487	278.193	-0.060	0.107
-140.472	-74.003	-0.171	0.061
-139.458	800.000	0.054	0.221
-138.443	59.332	0.072	-0.071
-137.429	462.436	0.081	0.179
-136.414	-60.855	-0.167	0.070
-135.399	-147.528	0.110	0.009
-134.385	-20.108	-0.086	-0.052
-133.370	569.375	0.105	0.253
-132.356	-200.000	0.021	0.133
-131.341	477.895	0.107	0.240
-130.326	-109.901	0.099	0.021
-129.312	127.278	-0.233	-0.292
-128.297	29.596	0.101	-0.085
-127.283	-200.000	-0.038	-0.215
-126.268	-185.278	-0.212	0.003
-125.253	100.542	-0.229	0.263
-124.239	762.475	0.075	0.202
-123.224	-60.774	0.141	-0.059
-122.210	28.624	0.171	-0.143
-121.195	-120.378	0.345	0.058
-120.180	800.000	0.111	0.456
-119.166	-200.000	-0.027	-0.225
-118.151	40.801	-0.101	0.090
-117.137	-38.195	0.144	0.075
-116.122	183.047	0.070	-0.102
-115.107	-200.000	0.032	-0.145
-114.093	-200.000	-0.019	-0.130
-113.078	-200.000	0.025	0.169
-112.064	47.842	0.045	0.042
-111.049	110.512	-0.115	-0.137
-110.034	-4.920	0.282	-0.192
-109.020	800.000	0.023	-0.073
-108.005	146.679	0.152	0.202
-106.991	273.406	-0.070	-0.123
-105.976	-41.586	-0.353	-0.179
-104.962	416.932	0.004	0.009
-103.947	180.506	0.174	-0.253
-102.932	-200.000	-0.033	0.184
-101.918	160.262	-0.109	0.150
-100.903	116.904	0.307	-0.372
-99.889	385.105	0.038	-0.078
-98.874	800.000	0.040	-0.135
-97.859	-79.331	0.172	-0.058
-96.845	273.592	-0.105	-0.183
-95.830	100.896	-0.100	0.115
-94.816	211.856	-0.080	0.124
-93.801	85.365	-0.399	0.433
-92.786	-144.356	0.469	-0.043
-91.772	-200.000	-0.042	0.247
-90.757	-12.399	-0.278	0.179
-89.743	-121.725	0.126	-0.021
-88.728	-175.167	0.184	-0.005
-87.713	38.380	-0.105	0.092
-86.699	715.776	0.052	0.135
-85.684	800.000	0.113	0.368
-84.670	800.000	0.023	0.097
-83.655	103.128	0.222	0.257
-82.640	800.000	0.031	0.126
-81.626	-33.032	-0.284	-0.156
-80.611	-200.000	0.010	0.150
-79.597	800.000	0.015	0.062
-78.582	-114.246	0.114	-0.022
-77.567	6.008	0.148	0.108
-76.553	-82.606	-0.174	0.056
-75.538	-200.000	0.251	-0.000
-74.524	38.868	0.012	-0.011
-73.509	-52.597	-0.099	0.045
-72.494	-49.744	0.218	-0.103
-71.480	192.500	0.269	0.401
-70.465	-20.549	-0.225	-0.137
-69.451	-83.631	0.359	-0.113
-68.436	-1.680	-0.137	-0.095
-67.422	35.056	0.026	-0.023
-66.407	-44.896	0.327	-0.161
-65.392	192.226	0.101	-0.150
-64.378	263.380	0.079	-0.136
-63.363	-200.000	0.005	0.080
-62.349	-144.216	-0.352	0.032
-61.334	233.450	-0.563	-0.915
-60.319	-139.880	0.421	0.044
-59.305	800.000	-0.209	-0.710
-58.290	800.000	0.412	1.186
-57.276	351.362	0.831	1.625
-56.261	-200.000	91.939	566.626
-55.246	573.334	1344.988	3237.204
-54.232	164.388	2517.844	3503.575
-53.217	104.132	2287.823	2655.974
-52.203	39.970	2053.846	1820.975
-51.188	35.236	1969.358	1704.034
-50.173	33.723	1951.287	1674.994
-49.159	49.094	1999.113	1853.577
-48.144	50.333	2017.507	1881.622
-47.130	35.884	1980.092	1718.842
-46.115	33.520	1970.039	1689.015
-45.100	33.464	1967.073	1685.902
-44.086	33.387	1965.029	1683.404
-43.071	33.310	1962.481	1680.471
-42.057	33.302	1960.445	1678.585
-41.042	33.380	1957.699	1676.858
-40.027	33.364	1956.135	1675.312
-39.013	33.384	1953.662	1673.301
-37.998	33.412	1952.505	1672.495
-36.984	33.408	1950.397	1670.583
-35.969	33.423	1948.224	1668.792
-34.954	33.439	1946.712	1667.573
-33.940	33.451	1945.255	1666.362
-32.925	33.510	1943.331	1665.165
-31.911	33.496	1941.860	1663.715
-30.896	33.524	1940.205	1662.480
-29.881	33.490	1939.182	1661.239
-28.867	33.586	1937.433	1660.519
-27.852	33.481	1935.341	1657.742
-26.838	33.553	1932.941	1656.243
-25.823	33.487	1931.801	1654.629
-24.809	33.563	1929.876	1653.570
-23.794	33.571	1928.494	1652.398
-22.779	33.492	1926.390	1649.836
-21.765	33.502	1924.894	1648.577
-20.750	33.505	1923.553	1647.391
-19.736	33.515	1921.412	1645.581
-18.721	33.555	1919.864	1644.534
-17.706	33.502	1918.507	1642.846
-16.692	33.469	1917.108	1641.300
-15.677	33.568	1915.309	1640.553
-14.663	33.518	1914.113	1639.032
-13.648	33.584	1912.953	1638.540
-12.633	33.618	1911.497	1637.524
-11.619	33.521	1910.364	1635.650
-10.604	33.591	1908.557	1634.644
-9.590	33.486	1907.618	1632.870
-8.575	33.500	1905.829	1631.391
-7.560	33.553	1904.311	1630.485
-6.546	33.525	1903.592	1629.562
-5.531	33.471	1902.606	1628.186
-4.517	33.429	1900.974	1626.370
-3.502	33.509	1899.859	1626.034
-2.487	33.486	1898.308	1624.446
-1.473	33.506	1897.610	1623.956
-0.458	33.466	1892.826	1619.453
0.556	30.140	1871.002	1585.494
1.571	24.802	1848.833	1521.316
2.586	19.928	1867.726	1494.743
3.600	18.487	1902.254	1509.560
4.615	17.880	1896.516	1499.543
5.629	15.194	1804.329	1404.051
6.644	10.726	1697.355	1285.397
7.659	8.156	1664.164	1240.182
8.673	7.841	1660.664	1235.026
9.688	7.843	1659.536	1234.092
10.702	7.866	1657.691	1232.788
11.717	7.699	1654.096	1228.717
12.731	7.862	1653.014	1229.059
13.746	11.118	1660.154	1259.480
14.761	15.503	1668.973	1300.081
15.775	17.078	1671.399	1314.051
16.790	16.654	1668.877	1308.682
17.804	15.551	1664.965	1296.982
18.819	14.568	1662.187	1287.120
19.834	13.884	1659.420	1279.599
20.848	13.557	1657.904	1275.797
21.863	13.298	1656.320	1272.474
22.877	13.145	1655.037	1270.201
23.892	12.942	1653.092	1267.030
24.907	12.706	1652.792	1264.881
25.921	12.708	1651.688	1263.940
26.936	12.865	1650.283	1263.955
27.950	12.802	1649.667	1262.887
28.965	12.800	1649.411	1262.564
29.980	12.917	1647.864	1262.164
30.994	12.967	1646.890	1261.686
32.009	13.054	1645.932	1261.509
33.023	13.053	1645.376	1260.960
34.038	13.092	1644.220	1260.264
35.053	13.015	1643.025	1258.647
36.067	13.069	1641.866	1258.058
37.082	12.996	1640.587	1256.413
38.096	12.985	1639.879	1255.675
39.111	13.004	1638.996	1255.031
40.126	13.023	1638.156	1254.424
41.140	12.901	1637.719	1253.050
42.155	12.912	1635.708	1251.487
43.169	12.809	1634.140	1249.391
44.184	12.764	1633.388	1248.366
45.199	12.673	1632.557	1246.929
46.213	12.863	1630.630	1246.789
47.228	12.758	1630.123	1245.492
48.242	12.882	1628.287	1244.920
49.257	12.865	1628.102	1244.540
50.271	12.872	1626.418	1243.193
51.286	12.908	1625.220	1242.443
52.301	12.926	1623.222	1240.941
53.315	12.898	1622.784	1240.280
54.330	12.813	1620.884	1238.084
55.344	12.739	1619.887	1236.657
56.359	12.822	1617.683	1235.486
57.374	12.820	1616.746	1234.644
58.388	12.803	1615.728	1233.634
59.403	12.665	1615.045	1231.968
60.417	12.705	1613.100	1230.673
61.432	12.691	1611.781	1229.455
62.447	12.725	1610.952	1228.972
63.461	12.661	1609.790	1227.497
64.476	12.624	1608.953	1226.470
65.490	12.618	1607.558	1225.257
66.505	12.664	1605.953	1224.269
67.520	12.640	1605.425	1223.578
68.534	12.713	1604.457	1223.275
69.549	12.645	1603.804	1222.160
70.563	12.695	1602.512	1221.440
71.578	12.666	1601.460	1220.316
72.593	12.571	1600.718	1218.942
73.607	12.545	1599.719	1217.875
74.622	12.602	1597.934	1216.834
75.636	12.612	1597.356	1216.357
76.651	12.553	1596.230	1214.958
77.666	12.554	1595.862	1214.576
78.680	12.650	1594.555	1214.184
79.695	12.595	1593.596	1212.943
80.709	12.629	1592.690	1212.396
81.724	12.751	1591.828	1212.527
82.739	12.642	1591.139	1211.097
83.753	12.808	1590.273	1211.546
84.768	12.854	1589.498	1211.191
85.782	12.861	1589.082	1210.813
86.797	12.975	1587.960	1210.688
87.812	12.963	1586.658	1209.501
88.826	12.875	1586.166	1208.378
89.841	12.843	1584.994	1207.145
90.855	12.858	1583.682	1206.144
91.870	12.918	1582.360	1205.468
92.884	12.970	1581.477	1205.074
93.899	12.965	1580.576	1204.240
94.914	12.942	1579.230	1202.940
95.928	13.009	1578.164	1202.513
96.943	13.061	1576.837	1201.772
97.957	13.024	1575.348	1200.266
98.972	12.912	1574.330	1198.568
99.987	12.918	1572.527	1197.132
101.001	12.990	1570.683	1196.146
102.016	12.917	1569.100	1194.305
103.030	12.935	1567.829	1193.360
104.045	12.860	1567.256	1192.278
105.060	12.932	1565.888	1191.653
106.074	12.885	1564.200	1189.923
107.089	12.853	1562.596	1188.368
108.103	12.746	1560.797	1186.125
109.118	12.707	1559.367	1184.651
110.133	12.724	1558.458	1183.976
111.147	12.698	1556.926	1182.520
112.162	12.713	1555.080	1181.126
113.176	12.751	1553.801	1180.317
114.191	12.684	1552.418	1178.686
115.206	12.808	1551.688	1178.913
116.220	12.772	1550.344	1177.528
117.235	12.831	1548.587	1176.514
118.249	12.810	1547.598	1175.506
119.264	12.805	1546.340	1174.414
120.279	12.838	1544.390	1173.060
121.293	12.662	1543.638	1171.137
122.308	12.657	1542.298	1169.983
123.322	12.674	1540.114	1168.342
124.337	12.686	1539.097	1167.547
125.352	12.703	1537.674	1166.487
126.366	12.633	1536.619	1165.090
127.381	12.642	1535.690	1164.348
128.395	12.730	1534.351	1163.849
129.410	12.719	1533.068	1162.694
130.424	12.695	1531.661	1161.357
131.439	12.742	1530.559	1160.751
132.454	12.743	1529.430	1159.796
133.468	12.787	1527.912	1158.852
134.483	12.840	1526.526	1158.074
135.497	12.807	1525.213	1156.738
136.512	12.860	1523.632	1155.813
137.527	12.879	1522.217	1154.769
138.541	12.897	1521.069	1153.923
139.556	12.900	1519.833	1152.903
140.570	12.879	1518.303	1151.496
141.585	12.926	1516.965	1150.703
142.600	12.933	1516.362	1150.197
143.614	13.006	1515.094	1149.642
144.629	13.029	1513.657	1148.608
145.643	13.133	1512.254	1148.165
146.658	13.148	1510.712	1146.998
147.673	13.105	1509.457	1145.642
148.687	13.034	1508.121	1144.032
149.702	13.014	1506.489	1142.557
150.716	13.035	1504.655	1141.210
151.731	12.930	1503.535	1139.535
152.746	12.953	1502.487	1138.800
153.760	12.957	1501.271	1137.807
154.775	13.000	1499.872	1136.939
155.789	13.090	1498.602	1136.495
156.804	13.070	1497.467	1135.396
157.819	13.173	1495.976	1134.874
158.833	13.165	1495.044	1134.009
159.848	13.131	1493.875	1132.792
160.862	13.190	1492.583	1132.117
161.877	13.203	1491.817	1131.525
162.892	13.117	1490.916	1130.149
163.906	13.116	1489.194	1128.736
164.921	13.003	1488.259	1127.156
165.935	13.058	1486.944	1126.436
166.950	13.092	1486.120	1125.948
167.964	13.153	1484.882	1125.326
168.979	13.133	1483.923	1124.362
169.994	13.090	1483.138	1123.376
171.008	13.149	1481.865	1122.715
172.023	13.208	1480.678	1122.112
173.037	13.165	1479.741	1121.016
174.052	13.209	1478.525	1120.289
175.067	13.300	1477.647	1120.140
176.081	13.208	1476.393	1118.474
177.096	13.198	1475.111	1117.336
178.110	13.209	1473.858	1116.362
179.125	13.164	1472.897	1115.228
180.140	13.163	1471.730	1114.237
181.154	13.267	1470.633	1114.014
182.169	13.260	1469.367	1112.905
183.183	13.316	1467.989	1112.143
184.198	13.358	1467.354	1111.845
185.213	13.340	1466.229	1110.774
186.227	13.418	1465.192	1110.410
187.242	13.359	1463.942	1108.970
188.256	13.388	1463.175	1108.485
189.271	13.499	1461.920	1108.183
190.286	13.541	1460.988	1107.656
191.300	13.409	1460.171	1106.054
192.315	13.312	1458.584	1104.108
193.329	13.097	1457.478	1101.737
194.344	13.132	1455.963	1100.732
195.359	13.171	1455.397	1100.462
196.373	13.266	1454.549	1100.356
197.388	13.224	1453.925	1099.507
198.402	13.401	1452.336	1099.386
199.417	13.514	1451.496	1099.407
200.432	13.657	1450.266	1099.323
201.446	13.660	1449.507	1098.668
202.461	13.661	1448.675	1097.953
203.475	13.736	1447.203	1097.234
204.490	13.825	1446.092	1096.883
205.504	13.767	1445.110	1095.655
206.519	13.560	1444.336	1093.606
207.534	13.544	1443.308	1092.629
208.548	13.638	1441.722	1091.948
209.563	13.619	1440.827	1091.050
210.577	13.630	1440.007	1090.403
211.592	13.604	1439.212	1089.534
212.607	13.711	1438.470	1089.579
213.621	13.635	1437.969	1088.606
214.636	13.733	1436.866	1088.317
215.650	13.760	1435.666	1087.490
216.665	13.717	1435.025	1086.621
217.680	13.709	1434.254	1085.893
218.694	13.844	1433.256	1085.925
219.709	13.882	1432.428	1085.446
220.723	13.936	1431.455	1084.969
221.738	13.882	1430.333	1083.669
222.753	13.812	1429.702	1082.640
223.767	13.829	1428.805	1081.975
224.782	13.947	1427.228	1081.450
225.796	13.886	1426.684	1080.547
226.811	14.016	1426.029	1080.801
227.826	13.923	1425.875	1079.987
228.840	13.973	1424.431	1079.118
229.855	13.941	1423.438	1078.067
230.869	13.953	1422.907	1077.647
231.884	14.048	1421.347	1076.981
232.899	13.846	1420.712	1075.100
233.913	13.909	1419.391	1074.411
234.928	13.944	1417.764	1073.311
235.942	13.912	1417.162	1072.556
236.957	13.792	1415.729	1070.602
237.972	13.840	1414.692	1070.033
238.986	13.816	1413.491	1068.876
240.001	13.867	1412.962	1068.706
241.015	13.943	1411.408	1067.926
242.030	14.006	1410.719	1067.715
243.045	14.011	1409.485	1066.715
244.059	14.112	1408.818	1066.766
245.074	14.104	1408.198	1066.154
246.088	14.112	1407.259	1065.398
247.103	14.071	1406.394	1064.389
248.117	14.033	1406.005	1063.755
249.132	14.208	1404.860	1063.912
250.147	14.311	1404.200	1063.975
251.161	14.365	1403.333	1063.574
252.176	14.495	1403.055	1064.095
253.190	14.495	1401.992	1063.196
254.205	14.459	1401.262	1062.317
255.220	14.476	1400.881	1062.046
256.234	14.574	1399.584	1061.590
257.249	14.501	1399.024	1060.604
258.263	14.516	1398.403	1060.135
259.278	14.496	1397.364	1059.129
260.293	14.547	1396.158	1058.446
261.307	14.540	1395.744	1057.992
262.322	14.628	1394.959	1057.865
263.336	14.607	1394.115	1056.997
264.351	14.699	1392.687	1056.400
265.366	14.689	1392.368	1056.005
266.380	14.640	1391.250	1054.751
267.395	14.708	1390.188	1054.285
268.409	14.687	1389.184	1053.298
269.424	14.730	1387.913	1052.507
270.439	14.595	1387.198	1051.021
271.453	14.713	1386.322	1051.007
272.468	14.706	1385.588	1050.314
273.482	14.669	1384.864	1049.442
274.497	14.622	1383.975	1048.379
275.512	14.565	1383.147	1047.305
276.526	14.702	1382.120	1047.289
277.541	14.587	1381.462	1045.980
278.555	14.767	1379.953	1045.870
279.570	14.752	1379.290	1045.185
280.585	14.733	1378.583	1044.434
281.599	14.756	1378.209	1044.202
282.614	14.854	1376.559	1043.474
283.628	14.892	1375.385	1042.726
284.643	14.844	1374.409	1041.597
285.657	14.779	1373.145	1040.141
286.672	14.850	1372.284	1039.836
287.687	14.855	1371.484	1039.171
288.701	14.912	1370.627	1038.788
289.716	14.729	1370.133	1037.184
290.730	14.792	1369.381	1036.914
291.745	14.872	1368.082	1036.334
292.760	14.850	1367.526	1035.685
293.774	14.917	1366.088	1034.916
294.789	15.011	1365.202	1034.736
295.803	14.967	1364.587	1033.908
296.818	15.078	1363.984	1034.042
297.833	14.934	1362.992	1032.311
298.847	14.994	1362.183	1031.978
299.862	15.001	1360.890	1030.947
300.876	14.953	1359.711	1029.670
301.891	15.036	1358.865	1029.447
302.906	15.045	1358.455	1029.101
303.920	15.180	1357.374	1029.022
304.935	15.121	1356.835	1028.161
305.949	15.212	1356.126	1028.089
306.964	15.194	1355.385	1027.327
307.979	15.270	1354.610	1027.113
308.993	15.289	1353.325	1026.164
310.008	15.251	1352.656	1025.335
311.022	15.234	1351.453	1024.229
312.037	15.246	1351.036	1023.895
313.052	15.221	1349.784	1022.703
314.066	15.325	1348.659	1022.394
315.081	15.178	1347.912	1020.841
316.095	15.183	1346.635	1019.814
317.110	15.185	1345.389	1018.792
318.125	15.148	1344.584	1017.868
319.139	15.204	1343.822	1017.542
320.154	15.173	1342.627	1016.359
321.168	15.278	1341.822	1016.295
322.183	15.297	1340.532	1015.346
323.197	15.186	1340.075	1014.234
324.212	15.217	1338.904	1013.444
325.227	15.273	1338.625	1013.484
326.241	15.367	1337.555	1013.155
327.256	15.330	1336.646	1012.151
328.270	15.368	1335.707	1011.577
329.285	15.422	1334.551	1010.939
330.300	15.343	1334.049	1009.993
331.314	15.301	1333.309	1009.091
332.329	15.349	1332.362	1008.576
333.343	15.413	1331.090	1007.908
334.358	15.396	1330.399	1007.194
335.373	15.433	1329.753	1006.839
336.387	15.464	1329.255	1006.558
337.402	15.506	1327.843	1005.647
338.416	15.549	1327.349	1005.442
339.431	15.645	1326.853	1005.554
340.446	15.613	1325.950	1004.588
341.460	15.552	1325.546	1003.830
342.475	15.714	1324.392	1003.832
343.489	15.703	1323.474	1002.986
344.504	15.684	1322.514	1002.052
345.519	15.715	1321.791	1001.599
346.533	15.870	1320.782	1001.672
347.548	15.892	1319.852	1001.007
348.562	15.802	1319.049	999.776
349.577	15.872	1318.347	999.573
350.592	15.873	1317.426	998.788
351.606	15.878	1316.434	997.981
352.621	15.722	1315.336	996.133
353.635	15.591	1314.536	994.663
354.650	15.664	1313.822	994.470
355.665	15.734	1312.338	993.670
356.679	15.790	1311.689	993.422
357.694	15.824	1310.358	992.530
358.708	15.875	1309.035	991.736
359.723	15.791	1308.598	990.823
360.738	15.854	1307.459	990.247
361.752	15.827	1306.635	989.373
362.767	15.916	1305.477	988.931
363.781	15.884	1304.329	987.786
364.796	15.971	1303.801	987.810
365.810	15.987	1303.163	987.332
366.825	15.912	1302.868	986.581
367.840	15.976	1302.415	986.529
368.854	16.060	1301.667	986.363
369.869	16.067	1301.048	985.851
370.883	16.100	1300.391	985.458
371.898	16.175	1299.271	984.959
372.913	16.133	1298.716	984.208
373.927	16.146	1297.642	983.383
374.942	16.014	1297.154	982.155
375.956	16.080	1296.460	981.930
376.971	16.126	1295.545	981.414
377.986	16.202	1294.448	980.939
379.000	16.194	1293.395	980.010
380.015	16.222	1292.769	979.609
381.029	16.311	1292.030	979.481
382.044	16.341	1291.703	979.321
383.059	16.364	1290.856	978.726
384.073	16.354	1290.361	978.205
385.088	16.473	1289.634	978.257
386.102	16.388	1288.801	977.046
387.117	16.391	1288.268	976.570
388.132	16.346	1287.287	975.479
389.146	16.395	1286.177	974.839
390.161	16.250	1285.424	973.344
391.175	16.287	1284.992	973.142
392.190	16.305	1284.131	972.511
393.205	16.340	1282.985	971.759
394.219	16.412	1282.139	971.442
395.234	16.434	1281.105	970.699
396.248	16.436	1280.238	969.969
397.263	16.431	1278.250	968.350
398.278	16.431	1276.932	967.263
399.292	16.370	1276.420	966.442
400.307	16.361	1274.768	965.052
401.321	16.247	1273.998	963.736
402.336	16.286	1273.088	963.185
403.350	16.397	1271.988	962.897
404.365	16.389	1270.821	961.888
405.380	16.377	1270.059	961.156
406.394	16.567	1269.356	961.619
407.409	16.418	1269.127	960.512
408.423	16.464	1268.260	960.034
409.438	16.627	1267.040	959.948
410.453	16.572	1266.835	959.395
411.467	16.658	1266.032	959.191
412.482	16.680	1265.607	958.908
413.496	16.794	1264.984	958.995
414.511	16.694	1264.094	957.670
415.526	16.875	1262.942	957.738
416.540	16.898	1262.517	957.459
417.555	16.836	1261.777	956.466
418.569	16.841	1261.106	955.897
419.584	16.960	1261.034	956.430
420.599	16.911	1260.263	955.488
421.613	92.746	1346.914	1455.628
422.628	90.293	1359.514	1455.728
