DTS Sentinel unit serial number:	SN413079Multiplexer serial number:	ORYXHardware model number:	OX4-SRSoftware version number:	ORYX F/W v4.00 Oryx Data Collector v3.7.2.0data status	okinstallation	princeton_trtdifferential loss correction	single-endedforward channel	channel 4reverse channel	N/Adate	2019/09/19time	03:37:35forward acquisition time	60.00reverse acquisition time	0.00gamma	496.2192k internal	0.2340k external	0.2340temperature offset calibration	1.0031default loss term (dB/km)	0.3790temperature slope calibration	1.0000multiplexer offset coefficient	1.0000multiplexer slope coefficient	1.0000fibre end	0.00T internal ref (°C)	20.56T ext. ref 1 (°C)	0.65T ext. ref 2 (°C)	14.33length (m)	temperature (°C)	Stokes	anti-Stokes-747.200	2.286	0.158	-0.115
-746.185	-164.901	0.167	-0.008
-745.171	-11.209	-0.120	0.080
-744.156	40.697	-0.361	0.326
-743.142	167.815	-0.060	-0.086
-742.127	-200.000	0.013	0.148
-741.112	-41.765	0.253	-0.130
-740.098	-84.317	0.379	-0.120
-739.083	341.787	0.064	-0.125
-738.069	-87.109	-0.419	-0.128
-737.054	435.749	0.027	-0.058
-736.039	51.978	-0.149	0.142
-735.025	-200.000	-0.036	-0.187
-734.010	39.871	-0.298	-0.268
-732.996	-200.000	-0.002	-0.103
-731.981	67.813	-0.190	0.195
-730.966	-200.000	0.026	-0.136
-729.952	65.844	-0.154	0.157
-728.937	-200.000	0.019	0.131
-727.923	-18.196	-0.118	-0.074
-726.908	-73.685	0.065	-0.024
-725.894	54.308	-0.086	-0.083
-724.879	-165.614	0.410	0.018
-723.864	-200.000	-0.060	-0.274
-722.850	170.776	-0.045	0.064
-721.835	-113.205	-0.357	-0.070
-720.821	344.359	-0.087	0.172
-719.806	227.424	-0.147	-0.239
-718.791	-200.000	-0.029	-0.283
-717.777	67.079	0.033	0.033
-716.762	473.546	0.107	-0.241
-715.748	39.755	-0.146	0.131
-714.733	-50.140	0.242	0.115
-713.718	-200.000	0.009	-0.212
-712.704	320.406	-0.148	-0.281
-711.689	-200.000	-0.036	-0.168
-710.675	-55.102	-0.230	0.104
-709.660	-94.353	0.255	0.070
-708.645	-46.770	-0.115	-0.056
-707.631	116.935	0.190	-0.234
-706.616	-200.000	0.035	-0.297
-705.602	-200.000	-0.034	-0.368
-704.587	473.659	-0.034	-0.077
-703.572	-200.000	0.009	0.296
-702.558	160.914	0.030	0.041
-701.543	339.797	0.201	0.392
-700.529	-200.000	-0.004	0.216
-699.514	189.116	0.121	0.181
-698.499	228.540	0.109	-0.179
-697.485	-94.898	-0.319	-0.086
-696.470	123.656	0.062	0.078
-695.456	-75.343	-0.242	-0.086
-694.441	150.920	0.165	0.225
-693.426	404.660	0.039	0.083
-692.412	285.696	-0.166	0.300
-691.397	-200.000	-0.043	0.196
-690.383	-200.000	-0.036	0.275
-689.368	-143.768	0.335	0.032
-688.354	-100.747	-0.074	0.018
-687.339	137.640	0.219	-0.287
-686.324	800.000	0.021	0.092
-685.310	0.676	-0.069	0.049
-684.295	-196.530	0.196	-0.001
-683.281	-139.998	-0.420	0.044
-682.266	-200.000	-0.035	0.199
-681.251	126.645	0.014	0.018
-680.237	-200.000	0.417	-0.002
-679.222	20.363	0.042	-0.034
-678.208	-36.372	-0.096	-0.052
-677.193	339.150	-0.079	-0.154
-676.178	-36.770	-0.152	-0.081
-675.164	-168.417	0.311	0.012
-674.149	18.492	-0.132	0.106
-673.135	260.107	-0.289	0.499
-672.120	-78.788	-0.090	0.031
-671.105	-78.121	0.167	-0.057
-670.091	-141.208	0.128	0.013
-669.076	190.407	-0.358	-0.537
-668.062	96.774	-0.190	0.217
-667.047	704.702	-0.063	-0.166
-666.032	-125.025	0.224	0.034
-665.018	100.400	0.062	0.072
-664.003	-77.758	0.147	-0.051
-662.989	-200.000	-0.035	-0.244
-661.974	-114.731	0.063	-0.012
-660.959	-200.000	0.012	0.113
-659.945	-136.519	0.260	0.030
-658.930	139.086	-0.132	0.173
-657.916	-38.199	-0.497	0.263
-656.901	-200.000	0.026	0.119
-655.886	-57.052	-0.288	-0.127
-654.872	35.559	-0.310	0.272
-653.857	-121.759	0.112	-0.019
-652.843	800.000	-0.098	-0.280
-651.828	-47.020	0.300	-0.146
-650.814	-10.998	-0.104	-0.069
-649.799	19.655	0.182	-0.146
-648.784	-84.797	0.163	0.051
-647.770	-53.960	0.112	-0.051
-646.755	-69.983	0.074	0.028
-645.741	9.832	0.071	-0.054
-644.726	168.489	-0.166	0.237
-643.711	-70.111	0.336	0.128
-642.697	-42.503	0.058	0.030
-641.682	86.370	-0.134	0.148
-640.668	103.830	0.056	0.066
-639.653	-103.225	-0.032	0.007
-638.638	6.888	-0.086	0.064
-637.624	16.741	-0.221	0.175
-636.609	-200.000	-0.001	0.319
-635.595	-140.468	-0.352	0.037
-634.580	104.590	0.187	0.220
-633.565	52.681	0.230	-0.220
-632.551	-18.561	0.311	-0.194
-631.536	-200.000	-0.074	0.324
-630.522	-45.952	-0.310	-0.153
-629.507	-13.966	-0.199	0.128
-628.492	-103.384	-0.235	-0.055
-627.478	-169.867	-0.208	0.007
-626.463	-95.478	0.220	-0.059
-625.449	228.561	-0.037	-0.060
-624.434	61.389	-0.066	-0.065
-623.419	137.820	0.132	0.173
-622.405	180.089	-0.156	-0.228
-621.390	-124.099	0.209	-0.033
-620.376	268.278	0.206	-0.360
-619.361	479.958	0.012	0.027
-618.346	185.204	-0.108	-0.159
-617.332	87.259	-0.194	0.214
-616.317	800.000	-0.072	0.254
-615.303	-19.793	-0.058	-0.036
-614.288	-163.376	0.164	-0.008
-613.273	800.000	0.071	-0.223
-612.259	30.663	-0.168	0.143
-611.244	9.338	0.116	-0.088
-610.230	94.496	0.166	-0.188
-609.215	-29.554	0.091	0.052
-608.201	105.726	0.174	0.205
-607.186	-200.000	-0.047	0.418
-606.171	-26.224	0.462	0.271
-605.157	51.965	-0.254	0.241
-604.142	52.295	0.189	-0.179
-603.128	-181.236	-0.210	-0.004
-602.113	-7.460	0.143	0.096
-601.098	-116.761	-0.184	-0.034
-600.084	-67.917	0.502	-0.196
-599.069	-143.642	-0.271	0.026
-598.055	-200.000	-0.005	-0.041
-597.040	-200.000	-0.042	-0.187
-596.025	-19.342	-0.044	0.027
-595.011	-200.000	-0.001	0.227
-593.996	109.413	-0.026	0.030
-592.982	-43.332	0.299	-0.151
-591.967	80.826	-0.274	0.295
-590.952	-105.664	0.187	-0.042
-589.938	-137.262	-0.278	0.032
-588.923	-145.513	0.370	0.033
-587.909	-26.840	0.171	-0.099
-586.894	-184.737	-0.185	-0.003
-585.879	-200.000	0.008	-0.215
-584.865	800.000	-0.068	0.198
-583.850	116.928	-0.222	0.272
-582.836	82.918	0.127	-0.138
-581.821	9.571	0.489	-0.369
-580.806	-138.414	0.043	-0.005
-579.792	95.742	-0.358	0.407
-578.777	-2.606	0.208	-0.145
-577.763	55.873	-0.329	-0.317
-576.748	-34.687	-0.093	0.050
-575.733	-11.018	0.221	-0.146
-574.719	-35.162	-0.302	-0.164
-573.704	-200.000	0.038	-0.221
-572.690	800.000	0.028	-0.124
-571.675	-25.847	0.161	0.094
-570.661	-90.829	-0.290	-0.083
-569.646	152.108	0.137	-0.186
-568.631	-34.881	0.174	-0.095
-567.617	-40.941	0.090	0.046
-566.602	-146.660	-0.223	-0.019
-565.588	-200.000	-0.011	-0.055
-564.573	-6.158	-0.043	0.029
-563.558	-30.348	0.208	-0.117
-562.544	243.168	-0.205	0.342
-561.529	-22.482	-0.214	-0.129
-560.515	-11.085	-0.318	-0.209
-559.500	-200.000	-0.002	-0.152
-558.485	-200.000	-0.020	-0.175
-557.471	-64.980	0.242	-0.097
-556.456	-103.728	0.048	-0.011
-555.442	-70.574	-0.311	-0.117
-554.427	-200.000	-0.005	-0.150
-553.412	49.620	0.275	0.258
-552.398	7.797	0.263	0.196
-551.383	-200.000	-0.018	-0.255
-550.369	800.000	-0.044	-0.139
-549.354	235.046	0.051	-0.085
-548.339	102.058	-0.083	-0.097
-547.325	-97.604	0.112	-0.029
-546.310	68.604	0.120	0.122
-545.296	800.000	-0.062	0.191
-544.281	134.730	-0.122	0.158
-543.266	243.948	0.096	-0.161
-542.252	-200.000	-0.038	-0.173
-541.237	295.631	0.039	0.072
-540.223	-113.532	0.220	-0.043
-539.208	24.254	0.314	0.258
-538.193	-149.834	0.173	-0.013
-537.179	-128.360	-0.114	-0.016
-536.164	-62.015	-0.030	-0.013
-535.150	-200.000	0.024	-0.291
-534.135	73.752	0.166	-0.174
-533.121	-94.623	-0.032	0.009
-532.106	145.852	-0.135	0.179
-531.091	180.493	0.148	0.216
-530.077	-49.915	-0.379	0.179
-529.062	-200.000	-0.081	-0.488
-528.048	-169.646	-0.099	0.004
-527.033	447.905	-0.187	0.410
-526.018	-3.173	-0.220	0.153
-525.004	800.000	0.061	-0.251
-523.989	28.588	0.219	0.184
-522.975	-49.945	0.161	-0.076
-521.960	-200.000	0.043	-0.205
-520.945	800.000	0.056	0.220
-519.931	133.330	-0.048	0.061
-518.916	-98.843	-0.113	-0.029
-517.902	54.026	0.142	-0.136
-516.887	10.210	0.037	-0.028
-515.872	310.273	-0.131	-0.244
-514.858	-80.465	-0.350	-0.116
-513.843	9.899	0.194	0.146
-512.829	-57.429	0.119	-0.052
-511.814	187.695	0.197	-0.292
-510.799	266.613	0.110	-0.190
-509.785	-19.176	0.119	-0.073
-508.770	127.898	-0.068	-0.086
-507.756	294.187	0.201	-0.364
-506.741	121.682	-0.236	-0.292
-505.726	42.189	-0.242	0.218
-504.712	-128.459	0.273	0.039
-503.697	-104.689	0.080	-0.018
-502.683	-200.000	-0.028	-0.136
-501.668	-200.000	-0.018	0.220
-500.653	67.845	-0.169	-0.172
-499.639	-49.340	0.385	0.182
-498.624	33.404	0.089	0.077
-497.610	-157.975	0.396	0.023
-496.595	-65.994	0.126	-0.050
-495.581	-200.000	0.025	-0.168
-494.566	354.616	-0.048	-0.095
-493.551	800.000	-0.067	-0.240
-492.537	-200.000	-0.024	0.175
-491.522	27.893	0.180	0.150
-490.508	800.000	0.028	0.113
-489.493	-91.195	-0.186	0.053
-488.478	-75.892	-0.190	-0.067
-487.464	25.479	-0.153	0.126
-486.449	-164.189	-0.316	0.014
-485.435	167.750	-0.145	-0.204
-484.420	52.478	0.212	-0.201
-483.405	419.923	-0.119	-0.253
-482.391	213.124	0.062	0.097
-481.376	-200.000	-0.045	-0.252
-480.362	264.705	-0.031	-0.054
-479.347	-20.268	-0.155	0.095
-478.332	-200.000	-0.047	0.210
-477.318	-200.000	-0.039	-0.191
-476.303	-25.185	0.045	-0.027
-475.289	75.639	0.278	0.291
-474.274	-35.871	0.029	-0.015
-473.259	66.147	-0.055	-0.055
-472.245	150.926	0.089	0.120
-471.230	42.032	0.097	0.088
-470.216	-126.976	0.109	0.016
-469.201	-110.395	0.166	0.034
-468.186	800.000	0.088	0.328
-467.172	800.000	-0.087	0.299
-466.157	800.000	-0.031	-0.108
-465.143	354.807	-0.123	0.243
-464.128	278.052	-0.233	-0.411
-463.113	-200.000	0.011	-0.058
-462.099	800.000	0.085	0.324
-461.084	81.168	0.171	-0.183
-460.070	-21.832	-0.204	-0.123
-459.055	195.990	0.141	-0.212
-458.040	150.859	0.279	-0.375
-457.026	-143.337	-0.173	-0.016
-456.011	-14.921	-0.079	-0.050
-454.997	-122.899	-0.370	-0.059
-453.982	-81.317	0.242	0.079
-452.968	-9.491	-0.186	-0.123
-451.953	-62.658	-0.489	0.201
-450.938	98.933	-0.365	0.417
-449.924	800.000	0.062	-0.188
-448.909	-137.917	0.307	0.034
-447.895	7.364	-0.022	0.016
-446.880	0.296	0.007	0.005
-445.865	778.655	0.094	0.256
-444.851	-200.000	0.010	-0.101
-443.836	-34.641	-0.086	-0.047
-442.822	-200.000	0.002	-0.084
-441.807	-56.396	-0.241	-0.106
-440.792	21.936	0.073	-0.059
-439.778	-17.770	-0.225	0.140
-438.763	101.916	-0.202	-0.234
-437.749	602.214	0.115	-0.282
-436.734	-157.163	0.128	0.008
-435.719	71.236	0.269	0.276
-434.705	-45.178	0.138	0.068
-433.690	463.699	0.051	0.114
-432.676	-200.000	0.047	0.254
-431.661	-200.000	0.030	0.156
-430.646	9.391	0.187	0.140
-429.632	201.153	0.022	0.034
-428.617	-76.287	-0.214	-0.075
-427.603	-75.694	-0.069	0.024
-426.588	-141.483	0.368	0.037
-425.573	-200.000	0.052	0.275
-424.559	7.922	-0.047	0.035
-423.544	-112.105	-0.246	-0.049
-422.530	-137.154	-0.184	-0.021
-421.515	-200.000	0.026	0.277
-420.500	-200.000	0.037	-0.237
-419.486	-106.630	0.136	-0.030
-418.471	203.509	0.184	-0.282
-417.457	-200.000	0.027	-0.174
-416.442	-200.000	0.003	0.107
-415.428	8.507	0.222	-0.165
-414.413	179.456	0.018	0.027
-413.398	-200.000	-0.045	0.292
-412.384	-200.000	0.018	0.365
-411.369	-141.790	0.286	0.028
-410.355	-200.000	0.035	0.160
-409.340	332.150	0.130	-0.249
-408.325	-163.440	-0.056	-0.003
-407.311	800.000	0.070	0.291
-406.296	0.604	-0.168	0.119
-405.282	183.041	0.015	0.021
-404.267	-154.281	-0.149	-0.010
-403.252	-125.914	0.148	-0.022
-402.238	-200.000	0.003	-0.069
-401.223	42.237	0.059	-0.053
-400.209	226.893	-0.074	-0.119
-399.194	127.354	-0.060	-0.075
-398.179	-200.000	-0.004	0.021
-397.165	88.896	-0.123	0.135
-396.150	539.829	0.111	-0.260
-395.136	-200.000	-0.053	-0.272
-394.121	782.726	0.082	-0.222
-393.106	800.000	-0.036	0.124
-392.092	-200.000	-0.002	-0.080
-391.077	486.896	-0.208	-0.470
-390.063	800.000	-0.072	-0.213
-389.048	-102.005	-0.229	-0.055
-388.033	-105.139	-0.233	-0.053
-387.019	100.040	-0.215	-0.246
-386.004	-79.107	0.156	0.052
-384.990	800.000	-0.091	0.394
-383.975	69.792	-0.068	0.069
-382.960	159.044	0.276	-0.379
-381.946	-163.622	-0.114	-0.005
-380.931	23.692	0.145	0.118
-379.917	-10.608	-0.190	-0.125
-378.902	-135.549	0.176	-0.021
-377.888	800.000	-0.034	0.120
-376.873	552.246	0.066	-0.156
-375.858	-123.328	0.193	-0.030
-374.844	34.004	-0.189	0.163
-373.829	71.112	0.148	-0.152
-372.815	-200.000	0.037	-0.190
-371.800	21.256	-0.111	-0.089
-370.785	-200.000	-0.010	0.201
-369.771	397.877	-0.067	-0.139
-368.756	-97.645	-0.180	0.046
-367.742	12.735	0.277	-0.211
-366.727	-200.000	0.033	0.354
-365.712	374.475	0.075	0.151
-364.698	379.255	0.051	-0.103
-363.683	251.552	-0.059	-0.098
-362.669	82.138	-0.297	0.318
-361.654	-30.934	0.302	0.169
-360.639	-68.330	-0.030	-0.012
-359.625	128.929	-0.018	0.022
-358.610	125.460	-0.125	-0.156
-357.596	305.850	0.103	-0.189
-356.581	-200.000	0.041	-0.255
-355.566	165.322	-0.069	0.096
-354.552	-200.000	-0.005	0.103
-353.537	800.000	0.025	0.083
-352.523	-125.123	-0.227	-0.034
-351.508	-106.770	0.093	-0.020
-350.493	-64.403	-0.433	-0.174
-349.479	437.968	-0.039	0.084
-348.464	47.781	-0.319	0.294
-347.450	55.049	-0.074	0.071
-346.435	-200.000	-0.083	-0.371
-345.420	71.386	0.046	0.047
-344.406	402.912	-0.118	0.245
-343.391	270.386	0.264	0.458
-342.377	502.333	0.115	0.262
-341.362	242.840	0.192	0.318
-340.348	-134.536	0.276	0.033
-339.333	800.000	-0.071	0.246
-338.318	-67.839	-0.091	0.035
-337.304	-109.198	0.253	-0.053
-336.289	-200.000	-0.009	-0.123
-335.275	-200.000	-0.062	-0.541
-334.260	800.000	0.055	-0.169
-333.245	159.726	-0.019	0.027
-332.231	-27.363	-0.160	0.092
-331.216	-200.000	-0.028	-0.178
-330.202	-92.960	0.326	-0.090
-329.187	-200.000	0.069	-0.314
-328.172	-200.000	-0.017	0.252
-327.158	-164.107	-0.215	0.010
-326.143	-76.134	-0.212	-0.074
-325.129	-28.143	0.338	0.193
-324.114	-13.238	-0.248	0.159
-323.099	305.768	-0.102	-0.188
-322.085	-200.000	-0.038	-0.183
-321.070	-200.000	0.003	0.069
-320.056	-10.377	-0.270	-0.176
-319.041	498.899	0.037	0.084
-318.026	254.640	0.089	0.150
-317.012	-200.000	0.012	-0.162
-315.997	-200.000	-0.016	-0.083
-314.983	89.292	-0.140	0.153
-313.968	-102.310	-0.360	0.085
-312.953	-200.000	0.001	0.016
-311.939	421.333	-0.029	-0.062
-310.924	-74.742	0.342	-0.121
-309.910	-46.017	0.105	0.051
-308.895	-23.739	0.266	-0.157
-307.880	-35.726	0.109	0.058
-306.866	-80.050	-0.037	0.012
-305.851	-200.000	-0.039	-0.214
-304.837	-28.661	-0.091	0.052
-303.822	32.204	0.068	-0.058
-302.807	-95.842	-0.155	0.041
-301.793	-19.821	0.267	0.162
-300.778	-33.215	0.056	0.031
-299.764	-200.000	-0.007	0.087
-298.749	23.938	-0.110	0.090
-297.735	-107.347	-0.238	0.052
-296.720	-97.152	0.374	0.096
-295.705	-140.050	-0.323	-0.033
-294.691	-144.961	0.315	-0.028
-293.676	60.810	0.022	0.021
-292.662	-78.067	0.197	-0.067
-291.647	541.390	0.175	-0.412
-290.632	-200.000	0.007	0.094
-289.618	18.585	-0.197	0.155
-288.603	554.788	0.128	-0.304
-287.589	-9.345	0.222	-0.146
-286.574	-200.000	-0.030	0.195
-285.559	-200.000	0.003	0.258
-284.545	800.000	0.061	-0.225
-283.530	-1.930	0.246	0.170
-282.516	19.181	-0.441	-0.348
-281.501	265.859	-0.053	-0.091
-280.486	52.958	-0.052	-0.049
-279.472	800.000	0.063	0.237
-278.457	71.423	-0.120	0.123
-277.443	95.317	-0.126	-0.141
-276.428	359.742	0.179	0.352
-275.413	-200.000	0.088	0.520
-274.399	105.479	0.146	0.170
-273.384	-127.913	-0.424	-0.060
-272.370	-24.492	0.336	-0.197
-271.355	30.345	-0.115	0.097
-270.340	267.330	-0.199	0.343
-269.326	451.628	0.069	0.149
-268.311	-200.000	-0.027	0.151
-267.297	-127.692	0.379	0.054
-266.282	-200.000	-0.065	0.285
-265.267	-66.930	-0.241	0.094
-264.253	556.516	0.059	-0.140
-263.238	2.129	0.311	-0.221
-262.224	-107.498	-0.252	-0.054
-261.209	429.635	-0.033	-0.070
-260.195	32.282	0.174	-0.148
-259.180	-101.550	-0.290	-0.069
-258.165	79.651	-0.166	-0.175
-257.151	-94.855	0.215	0.057
-256.136	108.102	-0.062	0.072
-255.122	800.000	-0.051	0.212
-254.107	-58.272	0.300	-0.128
-253.092	82.977	0.054	0.058
-252.078	800.000	0.081	0.245
-251.063	800.000	-0.054	-0.211
-250.049	-121.103	-0.398	-0.066
-249.034	800.000	0.110	0.337
-248.019	-81.684	-0.263	-0.085
-247.005	161.982	0.237	0.327
-245.990	2.182	0.283	-0.201
-244.976	0.401	-0.047	-0.033
-243.961	185.258	-0.041	-0.059
-242.946	-200.000	0.000	0.049
-241.932	798.291	-0.065	0.175
-240.917	-45.969	0.181	0.088
-239.903	-2.821	-0.275	-0.189
-238.888	-200.000	0.008	0.379
-237.873	-67.600	0.216	0.083
-236.859	800.000	0.052	-0.141
-235.844	-200.000	0.039	0.326
-234.830	-200.000	0.026	-0.241
-233.815	-159.112	-0.168	-0.009
-232.800	293.047	0.024	-0.043
-231.786	-200.000	0.029	0.193
-230.771	428.113	-0.088	-0.187
-229.757	-86.888	0.143	0.043
-228.742	20.506	0.283	0.225
-227.727	-43.825	-0.316	0.156
-226.713	800.000	-0.052	0.153
-225.698	800.000	0.090	-0.292
-224.684	-140.830	0.227	0.023
-223.669	396.769	0.199	-0.407
-222.655	-31.971	-0.134	-0.074
-221.640	-200.000	-0.020	0.217
-220.625	275.959	-0.083	0.145
-219.611	-117.686	0.180	0.032
-218.596	800.000	-0.084	0.250
-217.582	-106.796	-0.495	0.108
-216.567	-76.511	0.087	0.030
-215.552	-142.828	-0.154	-0.015
-214.538	165.380	-0.104	-0.144
-213.523	800.000	-0.052	-0.198
-212.509	189.434	0.075	-0.110
-211.494	-200.000	-0.017	-0.129
-210.479	-18.597	0.354	-0.217
-209.465	-6.857	-0.039	0.026
-208.450	-106.088	-0.189	0.042
-207.436	164.334	-0.143	-0.198
-206.421	-25.998	-0.290	-0.167
-205.406	-143.500	0.280	-0.026
-204.392	-55.027	-0.174	-0.077
-203.377	60.662	-0.338	0.329
-202.363	-167.522	0.274	0.011
-201.348	555.560	0.023	0.055
-200.333	-66.703	-0.159	-0.062
-199.319	800.000	-0.043	-0.129
-198.304	-19.863	0.125	-0.076
-197.290	800.000	-0.053	0.213
-196.275	474.721	0.046	-0.101
-195.260	417.791	-0.114	-0.239
-194.246	112.622	0.098	0.116
-193.231	-38.345	-0.059	-0.031
-192.217	134.592	0.409	-0.520
-191.202	800.000	0.116	-0.360
-190.187	787.550	-0.151	-0.408
-189.173	6.525	-0.240	0.175
-188.158	54.991	-0.067	0.063
-187.144	-21.875	-0.184	0.110
-186.129	165.298	0.049	-0.068
-185.114	136.257	-0.030	0.039
-184.100	238.022	0.143	0.233
-183.085	160.940	0.237	0.325
-182.071	-165.759	-0.370	0.016
-181.056	120.992	0.069	0.084
-180.042	98.552	0.264	0.299
-179.027	-5.428	-0.336	0.226
-178.012	800.000	-0.059	0.171
-176.998	-98.477	0.316	0.079
-175.983	-123.757	0.210	-0.033
-174.969	-78.163	-0.121	-0.041
-173.954	800.000	-0.010	-0.032
-172.939	-108.467	0.024	-0.005
-171.925	-75.065	-0.078	-0.027
-170.910	-122.984	-0.270	0.043
-169.896	11.707	0.072	-0.054
-168.881	-112.176	-0.227	0.045
-167.866	161.259	-0.156	0.214
-166.852	-69.963	0.273	0.102
-165.837	-59.613	-0.289	0.122
-164.823	302.971	0.273	0.496
-163.808	-200.000	-0.008	0.159
-162.793	-73.428	0.200	0.072
-161.779	0.069	0.096	0.067
-160.764	800.000	-0.040	-0.157
-159.750	70.066	-0.242	-0.244
-158.735	-25.511	-0.172	-0.099
-157.720	-161.635	-0.034	0.002
-156.706	120.944	-0.123	-0.149
-155.691	-200.000	-0.048	0.217
-154.677	249.521	0.172	-0.286
-153.662	-188.716	-0.301	0.004
-152.647	52.110	0.048	-0.045
-151.633	10.501	-0.131	-0.098
-150.618	-91.361	0.062	0.017
-149.604	46.808	-0.245	-0.223
-148.589	-84.283	-0.336	-0.104
-147.574	800.000	-0.040	-0.168
-146.560	219.912	0.129	-0.202
-145.545	168.822	0.290	0.405
-144.531	207.996	-0.155	0.236
-143.516	446.306	0.127	0.273
-142.502	-200.000	-0.007	-0.248
-141.487	-177.674	-0.165	0.004
-140.472	-51.038	-0.321	-0.148
-139.458	-82.896	-0.296	-0.093
-138.443	228.606	0.193	-0.308
-137.429	107.142	0.027	0.031
-136.414	-200.000	0.005	-0.129
-135.399	2.692	-0.106	0.075
-134.385	102.274	0.174	-0.199
-133.370	-70.483	-0.154	0.057
-132.356	-200.000	0.015	-0.082
-131.341	-50.681	-0.243	-0.112
-130.326	-85.657	-0.122	0.037
-129.312	262.045	0.088	-0.149
-128.297	13.547	-0.207	-0.157
-127.283	108.934	-0.265	-0.310
-126.268	-125.038	-0.172	-0.026
-125.253	-58.003	-0.120	0.051
-124.239	-128.510	-0.166	-0.023
-123.224	-161.756	0.121	-0.006
-122.210	-200.000	-0.005	0.165
-121.195	-74.620	0.160	0.056
-120.180	-29.858	-0.106	-0.059
-119.166	800.000	-0.053	-0.179
-118.151	-33.457	0.229	0.124
-117.137	-37.423	0.194	0.101
-116.122	800.000	0.093	-0.300
-115.107	-200.000	0.030	0.148
-114.093	-127.800	0.284	-0.040
-113.078	146.167	0.257	-0.337
-112.064	-169.765	-0.190	0.007
-111.049	16.198	0.236	0.182
-110.034	53.363	0.184	0.172
-109.020	-200.000	-0.121	-0.000
-108.005	-200.000	0.026	0.372
-106.991	-157.442	-0.274	0.016
-105.976	-200.000	-0.026	0.167
-104.962	10.137	-0.234	0.174
-103.947	-29.557	-0.244	0.136
-102.932	541.390	-0.109	0.253
-101.918	-200.000	-0.028	0.135
-100.903	69.936	0.133	0.134
-99.889	52.466	-0.083	0.077
-98.874	800.000	-0.071	0.194
-97.859	22.749	0.046	0.037
-96.845	60.165	-0.069	0.067
-95.830	76.606	0.083	0.086
-94.816	234.068	0.069	0.111
-93.801	134.900	0.157	0.199
-92.786	-80.236	0.080	-0.026
-91.772	-105.789	-0.056	0.012
-90.757	41.043	0.179	0.158
-89.743	800.000	-0.011	0.032
-88.728	554.344	-0.167	-0.393
-87.713	-11.527	-0.260	-0.167
-86.699	-133.106	-0.056	0.007
-85.684	800.000	-0.091	0.259
-84.670	800.000	0.090	-0.285
-83.655	61.035	0.165	-0.160
-82.640	67.261	-0.068	0.068
-81.626	800.000	-0.098	0.320
-80.611	800.000	0.110	0.387
-79.597	800.000	0.028	-0.099
-78.582	121.446	0.274	-0.334
-77.567	271.364	-0.199	0.343
-76.553	800.000	-0.084	-0.267
-75.538	340.790	0.135	-0.257
-74.524	-16.388	-0.175	0.108
-73.509	166.270	0.021	-0.029
-72.494	321.950	0.126	-0.234
-71.480	-68.146	-0.142	-0.054
-70.465	800.000	0.012	-0.039
-69.451	800.000	0.107	0.369
-68.436	578.876	0.002	-0.005
-67.422	-68.843	0.129	-0.049
-66.407	-81.909	-0.127	0.041
-65.392	-200.000	-0.003	0.083
-64.378	-82.808	0.092	-0.029
-63.363	-137.739	-0.069	0.008
-62.349	-89.374	-0.198	-0.057
-61.334	10.922	-1.314	-0.979
-60.319	23.708	0.926	0.745
-59.305	308.562	-0.916	-1.670
-58.290	327.564	0.984	1.843
-57.276	-200.000	0.355	1.528
-56.261	-200.000	136.776	665.945
-55.246	333.498	1675.360	3161.453
-54.232	132.591	2811.571	3538.426
-53.217	77.815	2350.771	2444.314
-52.203	26.667	2090.307	1707.606
-51.188	22.117	2008.993	1599.786
-50.173	21.247	1994.267	1580.126
-49.159	39.308	2071.525	1809.234
-48.144	36.902	2080.996	1795.170
-47.130	22.635	2033.706	1623.977
-46.115	20.642	2022.935	1597.032
-45.100	20.557	2019.544	1593.518
-44.086	20.479	2017.774	1591.343
-43.071	20.441	2015.062	1588.791
-42.057	20.397	2012.734	1586.489
-41.042	20.441	2011.015	1585.478
-40.027	20.485	2008.934	1584.171
-39.013	20.505	2007.003	1582.766
-37.998	20.417	2005.626	1580.820
-36.984	20.492	2003.852	1580.036
-35.969	20.489	2001.544	1578.130
-34.954	20.591	1999.461	1577.349
-33.940	20.512	1999.060	1576.253
-32.925	20.470	1997.722	1574.760
-31.911	20.513	1995.562	1573.383
-30.896	20.606	1993.670	1572.670
-29.881	20.599	1992.186	1571.375
-28.867	20.710	1990.038	1570.615
-27.852	20.615	1989.075	1568.937
-26.838	20.631	1987.061	1567.428
-25.823	20.671	1984.619	1565.802
-24.809	20.504	1983.933	1563.692
-23.794	20.652	1982.016	1563.451
-22.779	20.680	1980.197	1562.211
-21.765	20.632	1978.207	1560.146
-20.750	20.611	1977.237	1559.133
-19.736	20.597	1975.468	1557.547
-18.721	20.488	1974.714	1555.919
-17.706	20.604	1972.576	1555.205
-16.692	20.600	1970.586	1553.544
-15.677	20.529	1969.237	1551.779
-14.663	20.521	1967.740	1550.468
-13.648	20.579	1966.991	1550.330
-12.633	20.563	1965.661	1549.082
-11.619	20.559	1964.189	1547.824
-10.604	20.614	1962.488	1546.914
-9.590	20.523	1961.248	1545.065
-8.575	20.494	1960.292	1543.989
-7.560	20.556	1958.836	1543.335
-6.546	20.632	1957.549	1542.930
-5.531	20.581	1956.476	1541.578
-4.517	20.590	1954.942	1540.380
-3.502	20.546	1953.996	1539.190
-2.487	20.478	1953.247	1537.939
-1.473	20.474	1952.103	1536.936
-0.458	20.560	1946.459	1533.190
0.556	19.345	1925.285	1503.497
1.571	14.935	1907.045	1450.947
2.586	11.090	1930.690	1434.978
3.600	10.115	1965.862	1452.235
4.615	10.251	1958.282	1447.724
5.629	8.281	1858.382	1357.017
6.644	3.504	1748.751	1238.559
7.659	0.873	1718.189	1196.035
8.673	0.634	1715.661	1192.278
9.688	0.675	1714.254	1191.517
10.702	0.671	1713.077	1190.569
11.717	0.610	1708.950	1187.117
12.731	0.908	1706.417	1187.590
13.746	4.785	1714.417	1223.569
14.761	11.444	1728.481	1286.115
15.775	16.196	1737.776	1330.477
16.790	17.159	1738.286	1338.343
17.804	16.351	1734.971	1329.313
18.819	15.383	1732.133	1319.408
19.834	14.899	1729.124	1313.206
20.848	14.492	1727.967	1309.009
21.863	14.340	1726.412	1306.524
22.877	14.014	1724.910	1302.720
23.892	13.874	1723.495	1300.438
24.907	13.748	1721.812	1298.070
25.921	13.703	1721.232	1297.164
26.936	13.703	1719.624	1295.837
27.950	13.791	1719.096	1296.009
28.965	13.822	1718.643	1295.798
29.980	13.814	1717.783	1294.970
30.994	13.869	1716.458	1294.289
32.009	13.904	1715.779	1293.932
33.023	13.948	1714.668	1293.322
34.038	13.999	1713.574	1292.778
35.053	13.916	1712.965	1291.561
36.067	13.913	1711.876	1290.599
37.082	13.889	1710.368	1289.169
38.096	13.866	1709.868	1288.497
39.111	13.868	1709.353	1288.007
40.126	13.904	1708.127	1287.251
41.140	13.881	1707.331	1286.361
42.155	13.815	1705.829	1284.606
43.169	13.703	1704.539	1282.651
44.184	13.678	1703.608	1281.644
45.199	13.643	1702.447	1280.387
46.213	13.741	1700.601	1279.642
47.228	13.723	1700.099	1279.014
48.242	13.710	1698.290	1277.433
49.257	13.694	1697.742	1276.792
50.271	13.779	1696.018	1276.031
51.286	13.793	1694.381	1274.795
52.301	13.761	1693.255	1273.593
53.315	13.797	1691.768	1272.639
54.330	13.846	1689.860	1271.466
55.344	13.820	1687.994	1269.749
56.359	13.771	1686.974	1268.493
57.374	13.783	1685.660	1267.484
58.388	13.741	1684.556	1266.225
59.403	13.693	1683.332	1264.823
60.417	13.759	1681.495	1263.832
61.432	13.669	1681.261	1262.864
62.447	13.688	1679.485	1261.558
63.461	13.711	1678.141	1260.617
64.476	13.722	1676.971	1259.707
65.490	13.722	1675.808	1258.723
66.505	13.631	1675.191	1257.454
67.520	13.603	1674.249	1256.429
68.534	13.772	1672.967	1256.631
69.549	13.734	1671.693	1255.280
70.563	13.770	1670.317	1254.405
71.578	13.721	1669.529	1253.332
72.593	13.764	1668.245	1252.580
73.607	13.696	1666.867	1250.919
74.622	13.576	1666.349	1249.518
75.636	13.591	1665.008	1248.518
76.651	13.693	1663.624	1248.135
77.666	13.681	1663.007	1247.473
78.680	13.668	1662.501	1246.885
79.695	13.595	1661.320	1245.341
80.709	13.570	1660.474	1244.404
81.724	13.620	1659.496	1243.941
82.739	13.685	1658.362	1243.467
83.753	13.781	1657.072	1243.110
84.768	13.693	1656.378	1241.817
85.782	13.774	1655.320	1241.524
86.797	13.792	1654.470	1240.908
87.812	13.835	1653.382	1240.308
88.826	13.780	1652.044	1238.781
89.841	13.796	1650.722	1237.799
90.855	13.738	1650.180	1236.851
91.870	13.753	1649.013	1235.980
92.884	13.760	1647.936	1235.114
93.899	13.948	1646.291	1235.168
94.914	13.896	1645.027	1233.726
95.928	13.833	1644.198	1232.527
96.943	13.972	1642.675	1232.309
97.957	13.864	1641.136	1230.245
98.972	13.874	1639.444	1228.939
99.987	13.861	1638.167	1227.778
101.001	13.918	1636.208	1226.625
102.016	13.798	1635.269	1224.921
103.030	13.856	1634.537	1224.697
104.045	13.920	1632.172	1223.289
105.060	13.856	1630.744	1221.634
106.074	13.898	1629.527	1220.925
107.089	13.739	1627.779	1218.341
108.103	13.816	1626.236	1217.645
109.118	13.731	1624.708	1215.770
110.133	13.738	1623.545	1214.841
111.147	13.699	1622.386	1213.585
112.162	13.741	1620.697	1212.516
113.176	13.740	1619.811	1211.743
114.191	13.694	1618.514	1210.326
115.206	13.752	1617.124	1209.605
116.220	13.874	1615.704	1209.323
117.235	13.792	1614.256	1207.538
118.249	13.765	1612.267	1205.745
119.264	13.820	1611.247	1205.277
120.279	13.737	1609.979	1203.617
121.293	13.748	1608.524	1202.506
122.308	13.776	1606.515	1201.100
123.322	13.742	1605.342	1199.869
124.337	13.680	1603.698	1198.089
125.352	13.712	1602.254	1197.134
126.366	13.696	1600.978	1195.954
127.381	13.673	1600.229	1195.128
128.395	13.735	1598.432	1194.126
129.410	13.687	1597.936	1193.303
130.424	13.752	1595.721	1192.008
131.439	13.696	1594.480	1190.579
132.454	13.715	1593.335	1189.750
133.468	13.726	1591.913	1188.663
134.483	13.887	1589.985	1188.271
135.497	13.699	1589.394	1186.378
136.512	13.822	1587.456	1185.709
137.527	13.796	1585.983	1184.313
138.541	13.798	1584.488	1183.112
139.556	13.810	1583.300	1182.205
140.570	13.819	1582.671	1181.691
141.585	13.833	1581.316	1180.677
142.600	13.918	1579.530	1179.840
143.614	14.006	1578.135	1179.318
144.629	14.020	1577.198	1178.613
145.643	14.010	1575.696	1177.314
146.658	14.015	1574.629	1176.452
147.673	14.037	1573.081	1175.343
148.687	13.918	1571.357	1173.112
149.702	13.963	1569.782	1172.150
150.716	13.935	1568.202	1170.667
151.731	13.895	1566.894	1169.307
152.746	13.932	1565.515	1168.435
153.760	13.969	1563.887	1167.376
154.775	14.094	1562.534	1167.139
155.789	14.021	1561.216	1165.540
156.804	14.031	1560.226	1164.771
157.819	13.998	1559.353	1163.787
158.833	14.076	1557.854	1163.109
159.848	14.071	1556.935	1162.282
160.862	14.150	1555.380	1161.571
161.877	14.212	1553.949	1160.837
162.892	14.128	1553.212	1159.597
163.906	14.085	1551.781	1158.127
164.921	14.053	1550.350	1156.732
165.935	14.170	1548.943	1156.394
166.950	14.035	1548.590	1155.092
167.964	14.103	1547.039	1154.305
168.979	14.156	1546.077	1153.852
169.994	14.137	1544.264	1152.261
171.008	14.181	1543.441	1151.854
172.023	14.105	1542.568	1150.570
173.037	14.217	1540.977	1150.058
174.052	14.244	1540.229	1149.582
175.067	14.294	1539.050	1148.947
176.081	14.211	1537.981	1147.476
177.096	14.185	1536.389	1146.007
178.110	14.175	1535.043	1144.830
179.125	14.151	1533.843	1143.672
180.140	14.302	1532.819	1143.843
181.154	14.240	1531.542	1142.365
182.169	14.284	1530.369	1141.691
183.183	14.204	1529.642	1140.495
184.198	14.339	1528.128	1140.191
185.213	14.455	1527.153	1140.158
186.227	14.435	1525.864	1138.962
187.242	14.462	1524.895	1138.316
188.256	14.374	1523.946	1136.911
189.271	14.388	1522.856	1136.092
190.286	14.425	1521.341	1135.111
191.300	14.468	1520.330	1134.552
192.315	14.354	1519.134	1132.784
193.329	14.363	1517.681	1131.656
194.344	14.284	1516.969	1130.491
195.359	14.211	1515.943	1129.130
196.373	14.396	1514.572	1129.263
197.388	14.312	1514.110	1128.252
198.402	14.393	1512.695	1127.643
199.417	14.455	1511.332	1126.947
200.432	14.580	1509.833	1126.576
201.446	14.609	1509.442	1126.377
202.461	14.593	1507.934	1125.047
203.475	14.627	1507.010	1124.489
204.490	14.662	1505.643	1123.603
205.504	14.573	1504.929	1122.374
206.519	14.729	1503.398	1122.180
207.534	14.631	1502.187	1120.518
208.548	14.577	1501.237	1119.349
209.563	14.626	1499.828	1118.525
210.577	14.599	1499.071	1117.684
211.592	14.672	1498.059	1117.316
212.607	14.713	1497.206	1116.859
213.621	14.709	1496.532	1116.230
214.636	14.717	1495.655	1115.528
215.650	14.731	1494.651	1114.778
216.665	14.657	1494.029	1113.717
217.680	14.808	1492.927	1113.806
218.694	14.812	1492.013	1113.054
219.709	14.937	1491.050	1113.068
220.723	14.877	1490.454	1112.122
221.738	14.846	1489.440	1111.063
222.753	14.771	1488.637	1109.866
223.767	14.878	1487.468	1109.608
224.782	14.851	1486.139	1108.340
225.796	14.901	1485.472	1108.077
226.811	14.970	1484.414	1107.641
227.826	14.946	1483.523	1106.723
228.840	14.936	1482.920	1106.112
229.855	14.861	1482.226	1105.001
230.869	14.901	1480.895	1104.172
231.884	14.916	1479.935	1103.457
232.899	14.922	1478.787	1102.542
233.913	14.904	1477.619	1101.454
234.928	14.961	1476.443	1100.857
235.942	14.981	1474.790	1099.660
236.957	14.875	1474.211	1098.434
237.972	14.939	1472.760	1097.674
238.986	14.990	1471.457	1096.941
240.001	14.911	1470.981	1095.971
241.015	14.901	1469.678	1094.841
242.030	15.112	1468.032	1094.897
243.045	15.111	1467.131	1094.120
244.059	15.135	1465.996	1093.332
245.074	15.074	1465.638	1092.572
246.088	15.098	1464.607	1091.861
247.103	15.211	1463.517	1091.687
248.117	15.103	1463.467	1090.852
249.132	15.179	1462.314	1090.393
250.147	15.186	1462.188	1090.247
251.161	15.361	1460.867	1090.301
252.176	15.387	1460.427	1090.046
253.190	15.331	1459.753	1089.080
254.205	15.386	1458.870	1088.685
255.220	15.387	1457.533	1087.597
256.234	15.442	1456.900	1087.382
257.249	15.453	1455.505	1086.316
258.263	15.394	1455.511	1085.844
259.278	15.404	1454.489	1085.053
260.293	15.467	1453.103	1084.326
261.307	15.438	1452.444	1083.556
262.322	15.489	1451.974	1083.435
263.336	15.549	1450.819	1082.862
264.351	15.531	1449.780	1081.879
265.366	15.544	1448.899	1081.207
266.380	15.577	1448.145	1080.765
267.395	15.666	1447.241	1080.563
268.409	15.556	1446.403	1079.134
269.424	15.594	1445.317	1078.476
270.439	15.574	1443.882	1077.178
271.453	15.643	1443.247	1077.051
272.468	15.645	1442.197	1076.184
273.482	15.553	1441.652	1075.097
274.497	15.520	1440.580	1073.991
275.512	15.636	1439.501	1073.830
276.526	15.729	1438.293	1073.431
277.541	15.687	1437.451	1072.438
278.555	15.682	1436.314	1071.461
279.570	15.767	1435.324	1071.169
280.585	15.757	1434.951	1070.735
281.599	15.797	1433.736	1069.988
282.614	15.797	1433.130	1069.442
283.628	15.769	1431.903	1068.252
284.643	15.848	1430.550	1067.650
285.657	15.806	1429.850	1066.769
286.672	15.808	1428.737	1065.852
287.687	15.886	1427.731	1065.505
288.701	15.840	1426.747	1064.384
289.716	15.917	1425.834	1064.097
290.730	15.854	1424.990	1062.974
291.745	15.851	1423.987	1062.112
292.760	15.870	1423.183	1061.539
293.774	15.931	1421.939	1060.904
294.789	15.900	1420.878	1059.822
295.803	15.908	1420.428	1059.439
296.818	16.038	1419.060	1059.142
297.833	15.985	1418.287	1058.139
298.847	15.972	1417.467	1057.354
299.862	16.009	1416.584	1056.837
300.876	15.957	1415.507	1055.612
301.891	16.046	1414.261	1055.148
302.906	16.134	1413.447	1054.993
303.920	16.024	1413.267	1054.082
304.935	16.052	1412.222	1053.384
305.949	16.161	1411.309	1053.289
306.964	16.131	1410.638	1052.507
307.979	16.201	1409.573	1052.054
308.993	16.107	1408.822	1050.816
310.008	16.286	1407.428	1050.798
311.022	16.325	1406.281	1050.092
312.037	16.219	1405.337	1048.633
313.052	16.258	1404.769	1048.362
314.066	16.246	1403.542	1047.275
315.081	16.325	1402.232	1046.700
316.095	16.321	1401.044	1045.691
317.110	16.274	1400.633	1045.001
318.125	16.303	1399.215	1044.033
319.139	16.274	1398.581	1043.285
320.154	16.232	1397.546	1042.163
321.168	16.231	1396.616	1041.372
322.183	16.252	1395.474	1040.556
323.197	16.421	1394.529	1040.802
324.212	16.418	1393.334	1039.800
325.227	16.438	1392.612	1039.288
326.241	16.353	1391.752	1038.033
327.256	16.402	1390.961	1037.656
328.270	16.413	1390.211	1037.068
329.285	16.361	1389.363	1036.026
330.300	16.348	1388.317	1035.072
331.314	16.431	1387.392	1034.802
332.329	16.473	1386.493	1034.295
333.343	16.356	1385.696	1032.895
334.358	16.436	1385.239	1032.953
335.373	16.526	1383.926	1032.431
336.387	16.508	1382.832	1031.415
337.402	16.583	1382.094	1031.232
338.416	16.503	1381.775	1030.411
339.431	16.670	1380.824	1030.630
340.446	16.632	1380.041	1029.723
341.460	16.656	1379.162	1029.125
342.475	16.549	1378.477	1027.872
343.489	16.638	1377.828	1027.835
344.504	16.734	1376.626	1027.432
345.519	16.705	1375.823	1026.563
346.533	16.736	1374.501	1025.674
347.548	16.750	1373.672	1025.050
348.562	16.777	1372.939	1024.574
349.577	16.760	1372.183	1023.815
350.592	16.761	1371.425	1023.169
351.606	16.761	1370.372	1022.289
352.621	16.816	1369.269	1021.711
353.635	16.766	1368.524	1020.763
354.650	16.706	1367.646	1019.658
355.665	16.734	1366.575	1018.934
356.679	16.725	1365.407	1017.921
357.694	16.847	1364.443	1017.841
358.708	16.899	1362.639	1016.719
359.723	16.858	1362.089	1015.973
360.738	16.823	1361.336	1015.115
361.752	16.853	1359.814	1014.069
362.767	16.938	1358.719	1013.672
363.781	16.934	1357.690	1012.787
364.796	17.021	1357.091	1012.768
365.810	16.970	1356.563	1011.983
366.825	16.959	1356.092	1011.477
367.840	17.066	1355.038	1011.241
368.854	16.998	1354.491	1010.340
369.869	17.156	1353.475	1010.431
370.883	17.181	1352.970	1010.112
371.898	17.150	1352.343	1009.368
372.913	17.190	1351.345	1008.775
373.927	17.102	1350.718	1007.693
374.942	17.145	1349.551	1006.990
375.956	17.071	1349.374	1006.329
376.971	17.252	1348.456	1006.629
377.986	17.206	1347.230	1005.351
379.000	17.356	1346.144	1005.339
380.015	17.321	1345.512	1004.571
381.029	17.372	1344.949	1004.365
382.044	17.251	1344.789	1003.439
383.059	17.268	1343.782	1002.699
384.073	17.355	1342.755	1002.356
385.088	17.309	1342.424	1001.750
386.102	17.436	1341.579	1001.779
387.117	17.396	1340.820	1000.887
388.132	17.437	1339.809	1000.284
389.146	17.350	1339.538	999.486
390.161	17.283	1338.055	997.894
391.175	17.439	1337.464	998.279
392.190	17.379	1336.677	997.252
393.205	17.529	1335.433	997.117
394.219	17.508	1334.825	996.449
395.234	17.535	1333.393	995.451
396.248	17.512	1332.028	994.212
397.263	17.477	1330.712	992.937
398.278	17.458	1329.698	991.981
399.292	17.570	1328.710	991.810
400.307	17.457	1327.663	990.280
401.321	17.508	1326.513	989.631
402.336	17.501	1325.833	989.000
403.350	17.648	1324.248	988.581
404.365	17.534	1323.591	987.342
405.380	17.644	1322.895	987.370
406.394	17.611	1321.921	986.364
407.409	17.588	1321.044	985.490
408.423	17.616	1320.677	985.294
409.438	17.680	1319.669	984.825
410.453	17.702	1318.891	984.280
411.467	17.706	1318.388	983.846
412.482	17.686	1318.001	983.350
413.496	17.900	1316.802	983.603
414.511	17.883	1316.113	982.907
415.526	17.797	1315.699	982.010
416.540	17.778	1314.943	981.254
417.555	17.855	1314.180	981.038
418.569	17.869	1313.471	980.503
419.584	17.864	1312.770	979.864
420.599	17.885	1312.426	979.640
421.613	101.991	1364.806	1492.930
422.628	100.473	1372.350	1493.001
