DTS Sentinel unit serial number:	SN413079Multiplexer serial number:	ORYXHardware model number:	OX4-SRSoftware version number:	ORYX F/W v4.00 Oryx Data Collector v3.7.2.0data status	okinstallation	princeton_trtdifferential loss correction	single-endedforward channel	channel 4reverse channel	N/Adate	2019/09/11time	15:55:11forward acquisition time	60.00reverse acquisition time	0.00gamma	496.2192k internal	0.2277k external	0.2277temperature offset calibration	1.0011default loss term (dB/km)	0.3790temperature slope calibration	1.0000multiplexer offset coefficient	1.0000multiplexer slope coefficient	1.0000fibre end	0.00T internal ref (°C)	42.95T ext. ref 1 (°C)	0.99T ext. ref 2 (°C)	38.87length (m)	temperature (°C)	Stokes	anti-Stokes-747.200	257.235	-0.024	-0.043
-746.185	200.345	-0.131	0.207
-745.171	198.615	0.058	-0.091
-744.156	-143.444	-0.364	0.036
-743.142	546.020	-0.071	-0.175
-742.127	156.224	0.175	0.249
-741.112	-9.750	-0.287	0.197
-740.098	33.560	-0.231	0.207
-739.083	-200.000	-0.004	0.146
-738.069	78.141	-0.308	0.339
-737.054	-4.046	-0.046	-0.033
-736.039	57.449	-0.173	-0.174
-735.025	-92.553	0.198	0.057
-734.010	-79.674	-0.247	0.086
-732.996	64.826	-0.068	-0.071
-731.981	-74.609	0.056	0.021
-730.966	55.366	0.045	0.045
-729.952	-143.261	0.163	-0.016
-728.937	-200.000	0.013	-0.326
-727.923	-60.076	0.086	-0.038
-726.908	-120.288	-0.219	0.039
-725.894	61.727	-0.112	-0.115
-724.879	350.047	-0.080	-0.163
-723.864	162.822	-0.193	0.278
-722.850	-145.522	0.299	-0.028
-721.835	90.161	-0.160	-0.184
-720.821	-200.000	-0.009	-0.315
-719.806	-160.340	-0.428	0.024
-718.791	-200.000	-0.006	0.057
-717.777	-200.000	0.016	-0.161
-716.762	82.085	-0.100	0.111
-715.748	-112.146	-0.220	0.045
-714.733	36.587	-0.275	-0.250
-713.718	69.749	-0.227	-0.241
-712.704	800.000	0.100	-0.313
-711.689	670.158	-0.060	-0.159
-710.675	800.000	-0.116	-0.332
-709.660	267.521	-0.048	-0.086
-708.645	-135.696	-0.109	-0.013
-707.631	-200.000	-0.025	0.225
-706.616	800.000	-0.033	-0.105
-705.602	800.000	0.044	-0.132
-704.587	-200.000	-0.067	-0.548
-703.572	329.007	-0.057	0.112
-702.558	-200.000	-0.056	-0.429
-701.543	-14.761	-0.057	-0.038
-700.529	800.000	-0.051	0.186
-699.514	-90.240	-0.182	0.054
-698.499	-122.685	0.335	0.056
-697.485	-36.560	0.157	-0.087
-696.470	-78.987	-0.166	-0.058
-695.456	-95.112	-0.353	-0.098
-694.441	-56.594	-0.267	-0.122
-693.426	304.792	0.241	0.460
-692.412	-73.499	0.180	-0.067
-691.397	60.670	-0.141	-0.144
-690.383	49.505	-0.183	-0.177
-689.368	148.520	-0.154	-0.213
-688.354	-99.121	-0.251	-0.065
-687.339	15.500	0.168	-0.136
-686.324	-200.000	-0.004	0.111
-685.310	800.000	0.032	-0.121
-684.295	-19.652	-0.214	0.136
-683.281	113.799	-0.226	0.282
-682.266	-23.069	-0.124	0.077
-681.251	800.000	0.114	-0.416
-680.237	255.407	-0.205	-0.360
-679.222	171.754	-0.048	0.071
-678.208	-200.000	0.019	-0.214
-677.193	-187.850	0.255	0.003
-676.178	-86.678	-0.246	0.077
-675.164	15.976	-0.212	0.172
-674.149	73.601	-0.210	-0.226
-673.135	97.877	-0.067	0.079
-672.120	-200.000	0.044	0.203
-671.105	46.461	-0.264	-0.252
-670.091	-31.618	-0.112	-0.064
-669.076	-200.000	0.011	-0.340
-668.062	136.364	0.170	-0.228
-667.047	-9.016	-0.250	0.172
-666.032	353.630	-0.055	-0.113
-665.018	-12.207	0.042	-0.029
-664.003	800.000	0.016	0.061
-662.989	-200.000	0.011	0.224
-661.974	69.798	-0.202	-0.214
-660.959	-105.606	-0.205	-0.048
-659.945	705.858	-0.061	-0.165
-658.930	-95.765	-0.499	0.137
-657.916	-200.000	-0.000	0.039
-656.901	26.032	-0.154	0.132
-655.886	85.455	-0.130	-0.147
-654.872	459.127	-0.079	-0.180
-653.857	-102.287	-0.427	-0.105
-652.843	86.490	0.095	0.108
-651.828	-131.372	0.233	0.032
-650.814	-4.593	-0.325	0.230
-649.799	22.975	-0.186	0.157
-648.784	-43.620	-0.171	-0.089
-647.770	-45.351	-0.288	-0.147
-646.755	265.641	0.110	0.197
-645.741	294.147	0.120	0.226
-644.726	-200.000	-0.013	-0.175
-643.711	-4.812	-0.140	0.099
-642.697	-200.000	-0.001	0.133
-641.682	800.000	-0.017	-0.066
-640.668	25.398	-0.023	-0.020
-639.653	-159.520	-0.357	-0.020
-638.638	-103.157	-0.215	-0.052
-637.624	11.104	-0.093	-0.073
-636.609	-200.000	0.015	-0.291
-635.595	-19.760	0.131	0.083
-634.580	-67.430	-0.037	-0.015
-633.565	55.756	0.122	-0.121
-632.551	-151.188	0.260	-0.020
-631.536	-20.807	0.279	0.175
-630.522	-188.932	0.371	0.005
-629.507	-86.866	0.011	-0.003
-628.492	-23.132	-0.217	0.134
-627.478	-102.181	-0.136	0.034
-626.463	-72.781	-0.043	0.016
-625.449	800.000	-0.084	-0.378
-624.434	262.639	-0.142	0.253
-623.419	167.075	-0.226	0.329
-622.405	-35.931	0.023	-0.013
-621.390	-156.299	-0.213	-0.014
-620.376	269.492	-0.105	-0.188
-619.361	419.225	-0.069	0.151
-618.346	-100.554	-0.115	-0.029
-617.332	-48.538	0.216	-0.107
-616.317	155.820	-0.175	-0.248
-615.303	579.406	-0.067	-0.167
-614.288	207.792	0.111	0.178
-613.273	-200.000	0.063	0.367
-612.259	-33.044	0.226	0.128
-611.244	249.697	0.113	-0.196
-610.230	-1.460	-0.111	-0.080
-609.215	-115.519	-0.206	-0.040
-608.201	-9.954	0.148	-0.101
-607.186	-151.024	-0.060	0.005
-606.171	-11.565	-0.224	0.151
-605.157	-27.823	-0.113	0.067
-604.142	166.397	-0.042	-0.060
-603.128	-164.578	0.130	-0.006
-602.113	-92.493	0.026	0.007
-601.098	-20.819	0.292	-0.184
-600.084	-200.000	0.002	-0.249
-599.069	418.056	0.057	0.126
-598.055	-200.000	0.016	-0.184
-597.040	-200.000	-0.043	-0.285
-596.025	-46.548	0.130	0.065
-595.011	-92.762	-0.196	-0.056
-593.996	-200.000	-0.044	0.198
-592.982	-200.000	-0.043	0.327
-591.967	261.847	0.135	0.240
-590.952	800.000	0.073	0.208
-589.938	-122.633	-0.333	-0.055
-588.923	-15.421	-0.180	0.118
-587.909	-200.000	-0.002	0.208
-586.894	-48.826	-0.269	-0.132
-585.879	2.136	0.103	0.076
-584.865	-200.000	-0.079	-0.391
-583.850	800.000	-0.038	-0.169
-582.836	100.667	-0.133	0.159
-581.821	40.681	-0.088	-0.082
-580.806	-200.000	0.010	-0.281
-579.792	-64.936	-0.162	-0.067
-578.777	10.192	0.169	-0.131
-577.763	-14.808	-0.139	-0.091
-576.748	308.222	0.192	0.367
-575.733	20.557	-0.305	-0.253
-574.719	-144.551	-0.095	-0.009
-573.704	-163.437	-0.209	-0.010
-572.690	-197.114	-0.390	0.003
-571.675	-200.000	-0.013	-0.131
-570.661	800.000	-0.111	0.321
-569.646	131.744	0.179	0.236
-568.631	-86.183	-0.123	-0.039
-567.617	63.129	0.307	-0.315
-566.602	-200.000	-0.019	0.181
-565.588	800.000	0.128	0.488
-564.573	-32.615	-0.225	-0.128
-563.558	-198.314	-0.303	0.002
-562.544	7.141	0.089	0.068
-561.529	139.289	-0.141	0.190
-560.515	-158.311	-0.171	-0.010
-559.500	-200.000	-0.022	-0.156
-558.485	-40.675	0.184	0.098
-557.471	-23.480	-0.125	-0.077
-556.456	-68.615	-0.200	-0.079
-555.442	20.323	0.146	0.120
-554.427	1.442	-0.331	0.243
-553.412	-200.000	-0.005	-0.235
-552.398	27.057	0.090	0.077
-551.383	800.000	-0.077	-0.285
-550.369	800.000	-0.112	-0.368
-549.354	130.544	0.129	0.169
-548.339	-0.252	-0.109	0.079
-547.325	247.864	-0.126	0.218
-546.310	-200.000	0.003	-0.204
-545.296	-61.878	0.345	-0.148
-544.281	-6.134	0.405	-0.283
-543.266	-0.557	0.323	-0.234
-542.252	-127.671	0.396	-0.059
-541.237	-200.000	0.025	-0.195
-540.223	-161.332	0.117	-0.006
-539.208	-76.739	-0.158	-0.056
-538.193	-200.000	0.022	-0.212
-537.179	-41.233	0.161	-0.085
-536.164	-169.772	-0.083	-0.003
-535.150	-200.000	0.011	0.207
-534.135	289.531	0.170	0.316
-533.121	-200.000	-0.016	-0.125
-532.106	232.880	-0.147	-0.247
-531.091	-74.349	-0.428	-0.158
-530.077	-62.152	0.318	0.135
-529.062	110.956	0.091	-0.112
-528.048	42.803	0.072	-0.067
-527.033	-136.450	-0.343	0.041
-526.018	-200.000	-0.011	-0.072
-525.004	-36.486	-0.147	-0.081
-523.989	-5.776	0.072	0.050
-522.975	144.777	0.038	-0.052
-521.960	155.267	-0.232	-0.327
-520.945	-200.000	-0.037	0.273
-519.931	88.057	-0.044	0.050
-518.916	-195.891	-0.201	-0.001
-517.902	77.344	-0.302	0.328
-516.887	20.095	0.180	0.148
-515.872	-200.000	0.001	-0.632
-514.858	420.449	0.091	0.199
-513.843	-127.765	0.107	0.016
-512.829	-124.812	-0.072	0.011
-511.814	475.297	0.047	-0.109
-510.799	97.670	-0.094	-0.110
-509.785	-55.974	0.111	0.050
-508.770	-33.360	-0.040	-0.022
-507.756	-179.126	-0.261	0.006
-506.741	-200.000	0.020	0.183
-505.726	215.778	0.038	-0.062
-504.712	-200.000	0.002	-0.314
-503.697	87.294	-0.215	0.242
-502.683	-129.088	0.051	0.007
-501.668	156.628	-0.062	-0.088
-500.653	86.041	0.076	-0.085
-499.639	-52.492	0.338	0.160
-498.624	-131.987	0.293	-0.039
-497.610	-200.000	0.008	0.081
-496.595	-142.025	0.382	0.039
-495.581	382.980	0.025	0.052
-494.566	138.052	0.051	0.068
-493.551	73.618	0.309	-0.330
-492.537	318.405	0.035	-0.068
-491.522	48.785	0.061	-0.058
-490.508	31.070	0.225	-0.197
-489.493	205.396	-0.159	-0.252
-488.478	-104.382	0.130	0.031
-487.464	-6.591	-0.159	-0.110
-486.449	-143.649	0.155	0.015
-485.435	-99.407	0.143	0.037
-484.420	633.943	0.098	0.252
-483.405	-2.191	0.215	-0.154
-482.391	-39.870	-0.178	0.095
-481.376	800.000	0.040	0.126
-480.362	800.000	0.082	0.295
-479.347	800.000	0.071	0.247
-478.332	-126.372	0.218	-0.033
-477.318	-200.000	-0.011	-0.125
-476.303	-200.000	-0.030	-0.165
-475.289	-41.349	-0.194	-0.102
-474.274	120.369	0.125	-0.159
-473.259	65.112	0.093	0.096
-472.245	-6.445	-0.316	-0.220
-471.230	-45.516	-0.118	-0.060
-470.216	0.468	-0.378	0.275
-469.201	249.976	-0.035	0.061
-468.186	-32.751	0.327	0.185
-467.172	-6.652	-0.033	0.023
-466.157	-42.928	0.133	0.069
-465.143	-200.000	-0.033	0.167
-464.128	206.555	-0.191	-0.304
-463.113	800.000	0.133	-0.389
-462.099	-154.859	0.416	-0.028
-461.084	246.563	0.180	-0.310
-460.070	62.694	-0.017	0.017
-459.055	-150.363	-0.011	-0.001
-458.040	-90.998	-0.367	-0.107
-457.026	38.761	-0.115	0.104
-456.011	-200.000	-0.205	0.001
-454.997	-103.381	-0.120	0.029
-453.982	-90.355	-0.130	0.039
-452.968	-39.440	0.077	0.041
-451.953	-66.596	0.291	-0.118
-450.938	-38.898	0.277	-0.149
-449.924	56.149	-0.144	0.143
-448.909	800.000	0.028	-0.110
-447.895	81.095	-0.132	-0.146
-446.880	-107.676	-0.226	0.050
-445.865	-200.000	-0.001	0.286
-444.851	-162.387	-0.069	-0.004
-443.836	177.504	0.176	-0.261
-442.822	800.000	0.015	0.058
-441.807	2.280	0.069	0.051
-440.792	-189.289	0.139	0.002
-439.778	25.326	0.182	0.154
-438.763	308.520	-0.070	0.132
-437.749	-99.429	-0.196	-0.050
-436.734	14.598	0.158	0.126
-435.719	-12.271	0.285	0.190
-434.705	-37.340	0.147	0.080
-433.690	-38.107	-0.064	-0.035
-432.676	-71.987	0.163	-0.062
-431.661	-102.031	0.174	0.043
-430.646	382.745	-0.048	0.101
-429.632	-116.499	-0.240	0.045
-428.617	-90.491	-0.178	-0.053
-427.603	-200.000	-0.036	0.237
-426.588	-9.855	-0.084	0.057
-425.573	-200.000	-0.003	-0.092
-424.559	21.284	-0.138	-0.114
-423.544	800.000	-0.064	-0.256
-422.530	-2.988	0.069	0.049
-421.515	-54.768	0.258	-0.119
-420.500	195.493	0.013	0.020
-419.486	52.440	0.072	-0.070
-418.471	-200.000	-0.011	-0.364
-417.457	800.000	0.066	-0.238
-416.442	-109.289	-0.219	-0.047
-415.428	171.370	0.066	-0.097
-414.413	-37.619	0.328	0.178
-413.398	-200.000	0.020	0.116
-412.384	-69.462	-0.022	-0.009
-411.369	-88.388	-0.328	0.100
-410.355	47.634	0.116	0.110
-409.340	-176.275	0.407	0.011
-408.325	153.458	0.151	0.210
-407.311	-52.719	-0.105	0.049
-406.296	248.113	-0.222	0.381
-405.282	16.220	0.250	0.201
-404.267	800.000	-0.024	0.078
-403.252	-131.503	-0.219	-0.029
-402.238	-200.000	0.026	0.126
-401.223	-27.483	-0.151	0.089
-400.209	800.000	-0.061	0.219
-399.194	-200.000	0.066	-0.430
-398.179	7.006	-0.243	-0.184
-397.165	-97.657	-0.115	-0.030
-396.150	-200.000	0.034	-0.177
-395.136	25.383	-0.238	-0.201
-394.121	314.743	-0.219	0.420
-393.106	649.090	-0.105	0.273
-392.092	800.000	0.070	0.243
-391.077	-123.515	0.171	0.028
-390.063	3.306	-0.021	-0.015
-389.048	-131.055	0.167	0.023
-388.033	-200.000	0.012	-0.088
-387.019	599.813	0.092	-0.232
-386.004	-18.819	-0.063	0.040
-384.990	-200.000	0.023	0.261
-383.975	56.713	-0.256	0.253
-382.960	-200.000	-0.010	-0.048
-381.946	113.169	0.087	-0.107
-380.931	48.010	-0.078	0.074
-379.917	321.434	-0.092	-0.177
-378.902	800.000	-0.055	-0.215
-377.888	142.455	0.053	-0.072
-376.873	-108.728	0.295	-0.064
-375.858	-70.496	-0.072	-0.028
-374.844	800.000	-0.115	0.407
-373.829	-95.023	-0.187	0.051
-372.815	313.189	0.033	-0.062
-371.800	247.125	-0.068	-0.117
-370.785	-8.737	0.038	0.026
-369.771	-200.000	0.011	0.060
-368.756	-62.676	-0.272	0.114
-367.742	800.000	0.074	-0.235
-366.727	394.996	0.208	-0.441
-365.712	170.608	0.072	0.104
-364.698	-91.485	0.263	0.076
-363.683	81.641	0.085	-0.093
-362.669	267.562	0.090	0.160
-361.654	-200.000	0.002	-0.344
-360.639	-79.893	-0.382	0.130
-359.625	-112.208	-0.231	0.047
-358.610	78.459	-0.132	-0.143
-357.596	-200.000	-0.055	-0.273
-356.581	262.351	-0.181	0.319
-355.566	329.835	-0.062	0.120
-354.552	440.968	0.073	0.162
-353.537	117.946	0.267	0.334
-352.523	18.945	-0.176	-0.143
-351.508	-116.437	0.195	-0.037
-350.493	-113.032	0.233	-0.047
-349.479	783.390	-0.082	0.228
-348.464	-75.378	-0.114	0.041
-347.450	-128.101	-0.218	0.032
-346.435	137.557	0.095	0.126
-345.420	-103.772	0.178	-0.042
-344.406	-153.881	-0.188	0.013
-343.391	-60.112	0.095	-0.041
-342.377	-116.643	-0.175	0.033
-341.362	138.969	0.112	0.149
-340.348	67.957	0.233	-0.242
-339.333	622.650	0.033	-0.085
-338.318	-200.000	-0.059	0.412
-337.304	113.723	-0.177	-0.218
-336.289	-200.000	-0.004	0.128
-335.275	49.919	-0.251	0.240
-334.260	446.445	0.168	0.375
-333.245	-91.861	0.340	-0.098
-332.231	-30.632	0.073	-0.042
-331.216	800.000	0.129	-0.372
-330.202	71.277	-0.173	0.182
-329.187	-200.000	0.095	-0.529
-328.172	458.838	0.188	0.425
-327.158	-14.469	-0.144	0.094
-326.143	-163.242	0.283	-0.014
-325.129	176.358	0.128	0.189
-324.114	-57.092	0.043	0.019
-323.099	-9.598	-0.016	0.011
-322.085	-33.680	-0.248	0.139
-321.070	-200.000	0.013	-0.063
-320.056	-179.859	-0.069	0.001
-319.041	381.626	0.085	0.177
-318.026	90.435	-0.123	-0.139
-317.012	-110.072	0.078	-0.017
-315.997	-90.104	-0.223	0.066
-314.983	269.514	-0.248	0.440
-313.968	375.632	-0.176	0.363
-312.953	197.521	-0.132	0.204
-311.939	-39.530	-0.105	0.056
-310.924	-200.000	-0.005	0.154
-309.910	-86.358	-0.390	-0.121
-308.895	144.805	-0.113	-0.153
-307.880	-19.110	0.188	0.119
-306.866	-94.010	0.207	-0.058
-305.851	202.671	0.060	-0.094
-304.837	27.068	0.124	0.106
-303.822	-8.908	0.249	-0.169
-302.807	-200.000	0.013	-0.132
-301.793	73.795	-0.277	-0.294
-300.778	361.563	0.053	-0.108
-299.764	-107.401	-0.053	0.012
-298.749	328.166	-0.279	-0.543
-297.735	-23.756	-0.084	-0.051
-296.720	44.955	0.096	-0.089
-295.705	-89.826	0.084	-0.025
-294.691	303.283	-0.137	0.258
-293.676	-20.535	0.284	0.177
-292.662	88.331	0.095	0.107
-291.647	351.367	0.074	-0.149
-290.632	800.000	-0.021	-0.081
-289.618	-83.848	0.056	-0.018
-288.603	-10.213	0.164	0.110
-287.589	-62.954	0.030	0.012
-286.574	220.081	-0.164	-0.266
-285.559	-122.379	-0.448	-0.074
-284.545	11.152	0.280	-0.216
-283.530	12.675	0.195	-0.152
-282.516	-96.282	-0.267	0.072
-281.501	19.678	-0.080	0.065
-280.486	757.807	-0.132	0.362
-279.472	520.269	0.078	0.186
-278.457	39.230	-0.059	-0.054
-277.443	-60.849	0.221	-0.094
-276.428	227.342	0.132	0.218
-275.413	-200.000	-0.012	0.214
-274.399	-96.595	-0.433	-0.116
-273.384	687.701	-0.156	-0.411
-272.370	-42.432	0.224	-0.116
-271.355	731.545	-0.078	0.212
-270.340	800.000	0.102	-0.451
-269.326	165.116	-0.177	-0.253
-268.311	-20.408	0.286	0.178
-267.297	-27.024	0.341	-0.201
-266.282	800.000	0.005	0.016
-265.267	59.543	0.240	0.239
-264.253	-77.026	0.153	0.054
-263.238	-102.723	0.047	0.011
-262.224	-200.000	-0.003	0.094
-261.209	-61.460	-0.235	0.100
-260.195	693.276	-0.017	0.044
-259.180	223.527	0.151	-0.247
-258.165	-200.000	0.056	0.367
-257.151	-2.116	0.067	-0.048
-256.136	-200.000	-0.025	0.179
-255.122	64.612	-0.131	-0.134
-254.107	-200.000	0.069	-0.336
-253.092	308.486	-0.178	-0.335
-252.078	-200.000	0.045	-0.331
-251.063	-200.000	-0.009	-0.142
-250.049	-122.502	-0.129	-0.021
-249.034	-200.000	0.016	-0.182
-248.019	-67.192	0.303	0.121
-247.005	-200.000	0.012	-0.444
-245.990	-84.081	0.354	0.113
-244.976	-118.118	0.383	0.069
-243.961	-65.493	0.085	-0.034
-242.946	166.880	-0.097	0.139
-241.932	-116.444	0.132	0.025
-240.917	35.382	0.119	-0.105
-239.903	594.128	0.059	-0.146
-238.888	6.338	-0.208	0.156
-237.873	53.589	0.225	-0.218
-236.859	-200.000	-0.029	-0.379
-235.844	724.321	-0.083	0.223
-234.830	256.481	-0.104	0.180
-233.815	16.989	0.218	-0.175
-232.800	578.560	0.034	-0.085
-231.786	-102.534	0.119	-0.029
-230.771	-94.782	0.197	-0.054
-229.757	225.081	0.127	0.207
-228.742	-133.121	-0.218	0.028
-227.727	-200.000	-0.014	-0.113
-226.713	-160.732	0.312	-0.017
-225.698	399.566	0.147	0.310
-224.684	13.075	0.106	-0.083
-223.669	227.371	0.070	-0.115
-222.655	-100.852	0.249	0.062
-221.640	273.465	0.112	0.199
-220.625	-124.794	-0.089	-0.014
-219.611	94.917	-0.106	-0.122
-218.596	102.253	0.162	-0.191
-217.582	180.574	0.028	-0.041
-216.567	-156.617	0.182	-0.011
-215.552	-38.565	-0.311	-0.166
-214.538	442.068	0.095	0.211
-213.523	12.796	0.062	-0.048
-212.509	-111.150	0.198	0.041
-211.494	800.000	0.067	0.188
-210.479	-200.000	-0.053	-0.475
-209.465	171.423	-0.091	-0.132
-208.450	-39.241	0.090	0.048
-207.436	-176.267	0.285	-0.008
-206.421	-56.074	0.042	0.019
-205.406	-200.000	-0.018	0.217
-204.392	463.423	0.080	-0.180
-203.377	212.299	0.079	0.126
-202.363	-200.000	0.060	0.322
-201.348	-34.315	0.217	0.120
-200.333	90.145	0.267	-0.301
-199.319	79.722	-0.170	-0.184
-198.304	-200.000	-0.015	0.234
-197.290	135.546	-0.266	0.349
-196.275	-200.000	0.043	0.410
-195.260	572.466	-0.078	0.190
-194.246	84.244	0.155	-0.171
-193.231	-57.540	-0.159	-0.070
-192.217	-200.000	0.024	0.198
-191.202	23.850	-0.212	-0.176
-190.187	-200.000	-0.072	-0.320
-189.173	-138.246	-0.142	0.016
-188.158	800.000	-0.049	0.193
-187.144	-109.949	-0.122	-0.026
-186.129	-39.106	-0.120	-0.064
-185.114	-200.000	-0.045	0.345
-184.100	10.055	-0.182	0.139
-183.085	233.483	0.079	0.131
-182.071	-200.000	0.005	0.385
-181.056	28.830	0.076	-0.065
-180.042	17.186	-0.016	-0.013
-179.027	13.553	0.193	0.151
-178.012	-200.000	-0.016	-0.105
-176.998	65.957	0.130	-0.133
-175.983	168.012	-0.064	0.092
-174.969	99.570	0.304	-0.355
-173.954	-6.389	-0.088	0.060
-172.939	-90.136	0.200	-0.059
-171.925	-115.557	0.186	-0.035
-170.910	-128.254	-0.064	0.009
-169.896	4.080	-0.243	-0.179
-168.881	152.609	0.116	-0.159
-167.866	-6.079	-0.232	0.160
-166.852	-25.705	-0.080	0.048
-165.837	238.557	-0.173	0.290
-164.823	-200.000	-0.026	0.301
-163.808	-200.000	0.011	0.170
-162.793	117.736	-0.095	-0.117
-161.779	-8.516	-0.181	0.123
-160.764	19.643	-0.166	0.134
-159.750	-4.920	-0.173	-0.120
-158.735	-101.517	-0.162	0.040
-157.720	-64.973	-0.315	0.128
-156.706	-117.036	0.194	0.036
-155.691	-151.030	0.258	0.020
-154.677	-11.120	0.158	-0.105
-153.662	800.000	0.077	0.232
-152.647	-78.705	-0.197	0.068
-151.633	-42.660	-0.174	-0.089
-150.618	-171.322	0.230	0.008
-149.604	213.183	0.142	0.225
-148.589	-99.094	0.322	-0.082
-147.574	-17.240	-0.236	0.150
-146.560	280.354	0.091	0.164
-145.545	-24.711	0.209	0.125
-144.531	-200.000	0.031	0.172
-143.516	244.134	0.074	-0.126
-142.502	193.138	0.192	-0.293
-141.487	-200.000	0.018	-0.357
-140.472	50.399	0.124	-0.118
-139.458	-200.000	-0.011	0.328
-138.443	206.328	0.135	0.211
-137.429	62.223	-0.150	-0.151
-136.414	800.000	0.044	-0.160
-135.399	-15.777	-0.089	-0.057
-134.385	323.514	-0.147	0.283
-133.370	-200.000	0.268	-0.000
-132.356	-86.026	-0.196	0.061
-131.341	148.449	-0.185	-0.252
-130.326	-200.000	0.029	-0.131
-129.312	41.457	0.133	0.121
-128.297	-58.446	0.157	0.069
-127.283	800.000	-0.059	0.237
-126.268	-105.952	0.313	-0.071
-125.253	-110.209	0.020	-0.004
-124.239	77.545	0.094	0.101
-123.224	-49.159	0.224	-0.108
-122.210	371.838	-0.026	0.053
-121.195	-12.180	0.286	-0.188
-120.180	-144.272	0.284	-0.027
-119.166	-139.815	-0.367	-0.039
-118.151	-200.000	0.021	-0.195
-117.137	154.899	-0.061	0.084
-116.122	100.377	-0.116	0.136
-115.107	-200.000	-0.025	0.518
-114.093	-200.000	-0.005	-0.175
-113.078	525.986	0.171	0.404
-112.064	586.497	0.072	0.178
-111.049	-193.266	-0.270	0.002
-110.034	800.000	-0.056	0.168
-109.020	-166.020	0.259	0.011
-108.005	6.322	0.161	0.120
-106.991	144.553	-0.064	0.086
-105.976	68.845	0.190	0.196
-104.962	-97.502	-0.079	-0.021
-103.947	103.744	-0.041	-0.049
-102.932	-105.065	-0.099	0.023
-101.918	-200.000	-0.034	-0.199
-100.903	182.565	0.268	-0.397
-99.889	369.371	0.083	-0.169
-98.874	6.112	0.073	0.054
-97.859	-33.916	0.231	-0.128
-96.845	14.251	-0.199	-0.155
-95.830	-169.021	0.179	0.007
-94.816	800.000	-0.063	-0.195
-93.801	-66.819	0.112	-0.045
-92.786	-96.672	-0.068	0.018
-91.772	-200.000	0.471	0.002
-90.757	-200.000	0.022	0.196
-89.743	110.666	0.030	0.036
-88.728	-111.299	0.329	0.068
-87.713	-3.945	0.151	0.105
-86.699	-200.000	-0.051	0.449
-85.684	800.000	0.064	0.209
-84.670	-16.886	-0.117	0.074
-83.655	-168.608	0.301	-0.012
-82.640	-127.560	-0.049	-0.007
-81.626	19.752	0.271	-0.219
-80.611	-200.000	0.017	-0.152
-79.597	-169.282	-0.367	-0.014
-78.582	-68.766	-0.241	-0.093
-77.567	38.942	-0.066	-0.059
-76.553	114.499	0.297	-0.363
-75.538	-73.767	0.215	0.079
-74.524	11.548	0.078	-0.060
-73.509	-96.488	0.164	0.044
-72.494	13.919	-0.244	-0.190
-71.480	-168.304	0.399	0.015
-70.465	800.000	0.109	0.362
-69.451	372.889	0.063	-0.128
-68.436	-200.000	-0.001	0.053
-67.422	-13.075	-0.041	-0.027
-66.407	-47.163	0.217	0.106
-65.392	-50.506	0.243	0.115
-64.378	242.295	0.092	0.155
-63.363	170.780	-0.181	0.260
-62.349	-17.388	-0.186	-0.117
-61.334	157.990	-0.359	-0.499
-60.319	144.118	0.036	-0.049
-59.305	-200.000	-0.112	-0.751
-58.290	54.411	0.611	0.590
-57.276	800.000	0.600	1.725
-56.261	-200.000	74.069	541.524
-55.246	583.930	1292.968	3184.279
-54.232	144.927	2519.331	3378.044
-53.217	112.495	2368.148	2873.569
-52.203	50.417	2106.394	1996.745
-51.188	45.094	2013.794	1860.551
-50.173	43.206	1994.889	1825.933
-49.159	55.313	2031.304	1969.855
-48.144	60.722	2052.159	2039.307
-47.130	45.779	2016.722	1869.207
-46.115	43.019	2005.818	1833.945
-45.100	42.896	2002.995	1830.178
-44.086	42.863	2000.924	1827.910
-43.071	42.808	1998.433	1825.058
-42.057	42.778	1996.873	1823.292
-41.042	42.828	1994.654	1821.647
-40.027	42.931	1992.031	1820.108
-39.013	42.845	1990.458	1817.824
-37.998	42.898	1988.334	1816.287
-36.984	42.839	1986.753	1814.241
-35.969	42.885	1984.611	1812.630
-34.954	43.022	1983.026	1812.345
-33.940	43.050	1981.198	1810.856
-32.925	42.994	1979.829	1809.022
-31.911	43.053	1978.071	1807.876
-30.896	42.891	1976.618	1805.021
-29.881	42.984	1974.964	1804.280
-28.867	43.058	1972.803	1802.895
-27.852	43.038	1971.256	1801.224
-26.838	43.020	1969.312	1799.216
-25.823	43.040	1967.449	1797.621
-24.809	43.030	1965.593	1795.765
-23.794	43.027	1964.116	1794.322
-22.779	42.916	1962.871	1792.127
-21.765	42.945	1961.036	1790.634
-20.750	42.970	1959.775	1789.631
-19.736	43.017	1957.536	1787.940
-18.721	43.021	1956.275	1786.745
-17.706	42.950	1954.984	1784.874
-16.692	42.959	1953.349	1783.387
-15.677	42.936	1951.361	1781.297
-14.663	42.923	1949.666	1779.565
-13.648	42.881	1948.927	1778.447
-12.633	42.994	1947.151	1777.758
-11.619	42.910	1945.983	1775.874
-10.604	42.934	1944.603	1774.761
-9.590	42.938	1943.536	1773.749
-8.575	42.893	1942.333	1772.186
-7.560	42.929	1940.929	1771.153
-6.546	42.921	1938.916	1769.170
-5.531	42.948	1937.763	1768.290
-4.517	42.934	1937.206	1767.583
-3.502	42.960	1935.420	1766.111
-2.487	42.873	1934.379	1764.334
-1.473	43.011	1932.448	1763.712
-0.458	43.096	1929.598	1761.777
0.556	42.393	1911.313	1739.779
1.571	38.537	1892.034	1688.894
2.586	34.271	1912.896	1670.056
3.600	32.893	1949.268	1689.341
4.615	31.860	1946.274	1677.361
5.629	23.775	1839.101	1516.178
6.644	9.398	1704.275	1290.372
7.659	1.709	1657.997	1195.049
8.673	1.098	1653.303	1186.776
9.688	1.071	1651.464	1185.137
10.702	0.943	1650.261	1183.168
11.717	0.859	1647.637	1180.526
12.731	1.169	1647.546	1182.775
13.746	9.124	1667.216	1259.386
14.761	20.365	1691.959	1366.967
15.775	24.598	1698.777	1405.736
16.790	24.778	1697.737	1406.168
17.804	24.759	1697.608	1405.785
18.819	24.714	1696.961	1404.770
19.834	24.849	1696.022	1404.925
20.848	25.097	1695.391	1406.229
21.863	25.141	1694.374	1405.605
22.877	25.091	1693.424	1404.298
23.892	25.141	1692.247	1403.592
24.907	25.048	1691.643	1402.238
25.921	25.158	1690.834	1402.304
26.936	25.094	1689.736	1400.769
27.950	25.091	1688.654	1399.722
28.965	25.041	1688.191	1398.828
29.980	25.093	1687.043	1398.159
30.994	25.155	1685.896	1397.569
32.009	25.109	1684.276	1395.741
33.023	25.162	1683.492	1395.377
34.038	25.090	1682.604	1393.958
35.053	25.085	1681.611	1392.977
36.067	25.068	1680.088	1391.457
37.082	25.118	1679.407	1391.162
38.096	25.140	1678.261	1390.259
39.111	25.115	1677.906	1389.649
40.126	25.085	1677.536	1388.983
41.140	25.091	1676.445	1388.003
42.155	25.074	1675.095	1386.635
43.169	25.102	1674.010	1385.830
44.184	25.152	1673.089	1385.329
45.199	25.118	1672.215	1384.221
46.213	25.097	1670.828	1382.790
47.228	25.078	1670.084	1381.906
48.242	25.114	1668.471	1380.729
49.257	25.212	1667.169	1380.277
50.271	25.171	1665.645	1378.579
51.286	25.140	1664.593	1377.346
52.301	25.076	1663.790	1376.073
53.315	25.117	1662.306	1375.037
54.330	25.134	1661.017	1373.978
55.344	25.039	1659.921	1372.222
56.359	25.095	1658.291	1371.182
57.374	25.107	1657.447	1370.453
58.388	25.164	1656.166	1369.713
59.403	25.105	1655.081	1368.239
60.417	25.141	1654.021	1367.524
61.432	25.211	1653.098	1367.168
62.447	25.160	1651.762	1365.555
63.461	25.108	1650.964	1364.378
64.476	25.169	1649.931	1363.867
65.490	25.079	1649.265	1362.513
66.505	25.128	1648.010	1361.724
67.520	25.167	1646.532	1360.679
68.534	25.150	1646.248	1360.198
69.549	25.134	1644.822	1358.776
70.563	25.153	1643.717	1357.890
71.578	25.165	1642.344	1356.728
72.593	25.098	1641.855	1355.697
73.607	25.168	1641.148	1355.516
74.622	25.141	1639.959	1354.216
75.636	25.091	1639.502	1353.337
76.651	25.132	1638.408	1352.629
77.666	25.184	1637.311	1351.993
78.680	25.136	1636.971	1351.230
79.695	25.104	1635.855	1349.950
80.709	25.156	1634.831	1349.377
81.724	25.194	1634.440	1349.222
82.739	25.113	1633.532	1347.738
83.753	25.097	1632.614	1346.746
84.768	25.123	1631.209	1345.664
85.782	25.142	1630.587	1345.174
86.797	25.144	1629.440	1344.118
87.812	25.194	1628.814	1343.860
88.826	25.130	1627.914	1342.519
89.841	25.175	1626.606	1341.662
90.855	25.155	1625.936	1340.840
91.870	25.209	1624.383	1339.840
92.884	25.157	1623.738	1338.803
93.899	25.207	1622.704	1338.205
94.914	25.172	1621.662	1336.965
95.928	25.131	1620.508	1335.590
96.943	25.194	1618.565	1334.340
97.957	25.172	1617.769	1333.403
98.972	25.198	1616.643	1332.548
99.987	25.162	1615.312	1331.067
101.001	25.243	1614.151	1330.591
102.016	25.175	1612.329	1328.468
103.030	25.143	1611.196	1327.181
104.045	25.126	1609.990	1325.949
105.060	25.239	1608.623	1325.537
106.074	25.208	1607.501	1324.265
107.089	25.220	1606.404	1323.337
108.103	25.206	1605.122	1322.057
109.118	25.191	1604.324	1321.175
110.133	25.247	1602.825	1320.238
111.147	25.229	1601.639	1319.006
112.162	25.217	1600.369	1317.759
113.176	25.259	1599.773	1317.460
114.191	25.264	1598.609	1316.419
115.206	25.213	1597.449	1314.975
116.220	25.183	1596.488	1313.851
117.235	25.288	1595.009	1313.278
118.249	25.204	1594.190	1311.876
119.264	25.206	1592.763	1310.598
120.279	25.168	1591.401	1309.086
121.293	25.291	1590.156	1308.848
122.308	25.239	1589.092	1307.474
123.322	25.254	1587.988	1306.557
124.337	25.342	1586.494	1305.852
125.352	25.304	1585.545	1304.678
126.366	25.312	1584.719	1303.946
127.381	25.307	1584.350	1303.489
128.395	25.311	1583.218	1302.469
129.410	25.270	1582.229	1301.248
130.424	25.355	1581.150	1300.862
131.439	25.286	1579.731	1299.076
132.454	25.292	1578.674	1298.135
133.468	25.278	1577.582	1297.025
134.483	25.274	1576.260	1295.796
135.497	25.326	1574.900	1294.933
136.512	25.268	1573.716	1293.426
137.527	25.246	1572.685	1292.312
138.541	25.336	1571.719	1292.050
139.556	25.243	1570.430	1290.207
140.570	25.318	1569.038	1289.486
141.585	25.302	1567.766	1288.211
142.600	25.356	1566.751	1287.648
143.614	25.325	1565.843	1286.565
144.629	25.459	1564.446	1286.264
145.643	25.337	1563.598	1284.579
146.658	25.167	1562.509	1282.358
147.673	25.259	1560.615	1281.348
148.687	25.308	1559.771	1280.888
149.702	25.275	1558.852	1279.786
150.716	25.268	1557.629	1278.624
151.731	25.262	1556.407	1277.465
152.746	25.324	1555.676	1277.189
153.760	25.323	1554.086	1275.767
154.775	25.322	1553.277	1274.981
155.789	25.447	1551.818	1274.557
156.804	25.336	1551.051	1273.024
157.819	25.314	1550.016	1271.907
158.833	25.400	1548.914	1271.504
159.848	25.310	1548.447	1270.367
160.862	25.376	1547.373	1269.841
161.877	25.361	1546.231	1268.685
162.892	25.380	1545.239	1267.895
163.906	25.368	1544.201	1266.848
164.921	25.395	1543.303	1266.186
165.935	25.424	1541.843	1265.080
166.950	25.307	1542.031	1264.299
167.964	25.397	1540.268	1263.374
168.979	25.438	1539.295	1262.752
169.994	25.369	1538.920	1261.846
171.008	25.440	1537.517	1261.087
172.023	25.488	1536.282	1260.297
173.037	25.414	1535.571	1259.087
174.052	25.471	1534.356	1258.378
175.067	25.504	1533.714	1257.969
176.081	25.400	1532.972	1256.524
177.096	25.442	1531.388	1255.402
178.110	25.426	1530.870	1254.760
179.125	25.426	1530.108	1254.023
180.140	25.475	1528.568	1252.991
181.154	25.427	1528.088	1252.152
182.169	25.459	1526.946	1251.331
183.183	25.469	1526.364	1250.810
184.198	25.442	1525.509	1249.813
185.213	25.566	1524.169	1249.465
186.227	25.551	1523.490	1248.690
187.242	25.561	1522.855	1248.129
188.256	25.590	1521.693	1247.270
189.271	25.527	1521.007	1246.161
190.286	25.559	1519.988	1245.437
191.300	25.490	1519.297	1244.284
192.315	25.518	1518.344	1243.586
193.329	25.505	1517.401	1242.616
194.344	25.458	1516.736	1241.632
195.359	25.608	1515.856	1241.841
196.373	25.588	1515.147	1241.013
197.388	25.500	1514.165	1239.487
198.402	25.363	1513.425	1237.831
199.417	25.476	1512.138	1237.444
200.432	25.498	1511.030	1236.583
201.446	25.502	1510.615	1236.159
202.461	25.578	1509.554	1235.704
203.475	25.549	1508.750	1234.735
204.490	25.578	1507.936	1234.160
205.504	25.542	1507.271	1233.263
206.519	25.504	1506.265	1232.066
207.534	25.571	1505.406	1231.712
208.548	25.609	1504.722	1231.310
209.563	25.621	1503.815	1230.538
210.577	25.584	1502.758	1229.311
211.592	25.624	1502.323	1229.118
212.607	25.614	1501.246	1228.062
213.621	25.686	1500.826	1228.104
214.636	25.666	1500.001	1227.182
215.650	25.605	1499.051	1225.878
216.665	25.697	1498.309	1225.788
217.680	25.616	1497.605	1224.558
218.694	25.645	1496.843	1224.017
219.709	25.687	1495.855	1223.391
220.723	25.756	1495.109	1223.144
221.738	25.710	1494.040	1221.845
222.753	25.741	1493.098	1221.176
223.767	25.606	1492.382	1219.569
224.782	25.612	1491.330	1218.638
225.796	25.614	1491.220	1218.459
226.811	25.662	1490.634	1218.194
227.826	25.747	1489.319	1217.585
228.840	25.669	1488.705	1216.451
229.855	25.737	1487.978	1216.212
230.869	25.719	1487.006	1215.185
231.884	25.762	1485.985	1214.532
232.899	25.798	1485.085	1213.932
233.913	25.694	1484.310	1212.488
234.928	25.801	1482.516	1211.639
235.942	25.676	1482.105	1210.355
236.957	25.826	1480.844	1210.225
237.972	25.743	1480.493	1209.270
238.986	25.827	1478.711	1208.276
240.001	25.815	1478.014	1207.515
241.015	25.815	1476.972	1206.558
242.030	25.893	1476.041	1206.215
243.045	25.959	1475.121	1205.800
244.059	25.910	1474.463	1204.826
245.074	25.914	1473.241	1203.749
246.088	25.918	1472.990	1203.464
247.103	25.911	1472.417	1202.844
248.117	25.923	1471.489	1202.055
249.132	25.878	1470.897	1201.166
250.147	25.809	1470.135	1199.979
251.161	25.933	1469.260	1199.980
252.176	25.987	1468.897	1199.939
253.190	26.036	1467.796	1199.257
254.205	25.990	1466.712	1197.960
255.220	25.987	1466.076	1197.319
256.234	25.977	1465.232	1196.453
257.249	26.027	1464.315	1195.933
258.263	26.047	1463.634	1195.402
259.278	26.088	1462.953	1195.014
260.293	25.981	1462.119	1193.520
261.307	26.197	1460.805	1193.769
262.322	26.106	1460.618	1192.909
263.336	25.986	1460.435	1191.862
264.351	26.057	1458.871	1190.944
265.366	25.978	1458.263	1189.826
266.380	26.029	1457.430	1189.371
267.395	26.096	1456.247	1188.743
268.409	26.093	1455.758	1188.220
269.424	26.076	1454.547	1187.014
270.439	26.004	1453.727	1185.767
271.453	26.071	1453.146	1185.630
272.468	26.036	1452.334	1184.631
273.482	26.090	1451.470	1184.180
274.497	26.096	1450.865	1183.617
275.512	26.168	1449.569	1182.930
276.526	26.192	1448.955	1182.479
277.541	26.112	1448.328	1181.337
278.555	26.149	1447.271	1180.615
279.570	26.183	1446.692	1180.261
280.585	26.192	1445.809	1179.495
281.599	26.226	1444.961	1178.918
282.614	26.210	1444.126	1178.031
283.628	26.249	1442.884	1177.167
284.643	26.164	1442.140	1175.900
285.657	26.220	1441.374	1175.537
286.672	26.253	1440.297	1174.768
287.687	26.214	1439.494	1173.756
288.701	26.252	1438.773	1173.312
289.716	26.234	1438.266	1172.676
290.730	26.339	1437.117	1172.316
291.745	26.294	1436.653	1171.543
292.760	26.300	1435.624	1170.639
293.774	26.272	1434.950	1169.807
294.789	26.273	1433.947	1168.892
295.803	26.320	1433.439	1168.678
296.818	26.339	1432.445	1167.888
297.833	26.358	1431.515	1167.148
298.847	26.342	1430.851	1166.400
299.862	26.391	1429.854	1165.801
300.876	26.327	1429.248	1164.789
301.891	26.373	1427.935	1163.912
302.906	26.321	1427.468	1163.096
303.920	26.463	1426.974	1163.504
304.935	26.470	1426.501	1163.061
305.949	26.424	1425.671	1161.986
306.964	26.461	1424.645	1161.282
307.979	26.448	1423.799	1160.408
308.993	26.448	1423.161	1159.785
310.008	26.513	1422.165	1159.286
311.022	26.519	1421.189	1158.429
312.037	26.508	1420.045	1157.320
313.052	26.425	1419.463	1156.217
314.066	26.557	1418.492	1156.164
315.081	26.533	1417.565	1155.155
316.095	26.466	1416.883	1154.068
317.110	26.489	1415.985	1153.380
318.125	26.504	1414.997	1152.568
319.139	26.633	1414.019	1152.490
320.154	26.599	1413.351	1151.633
321.168	26.555	1412.328	1150.412
322.183	26.557	1411.433	1149.594
323.197	26.580	1410.419	1148.815
324.212	26.598	1409.930	1148.430
325.227	26.496	1409.163	1147.056
326.241	26.565	1408.364	1146.739
327.256	26.637	1407.628	1146.494
328.270	26.656	1406.994	1146.002
329.285	26.604	1406.151	1144.880
330.300	26.615	1405.023	1143.931
331.314	26.656	1404.458	1143.627
332.329	26.739	1403.437	1143.222
333.343	26.737	1402.806	1142.589
334.358	26.663	1402.527	1141.799
335.373	26.703	1401.718	1141.292
336.387	26.750	1401.032	1140.929
337.402	26.799	1400.236	1140.484
338.416	26.733	1399.706	1139.536
339.431	26.838	1398.913	1139.454
340.446	26.822	1398.197	1138.663
341.460	26.918	1397.209	1138.363
342.475	26.892	1396.051	1137.156
343.489	26.934	1395.268	1136.679
344.504	26.909	1394.686	1135.947
345.519	26.820	1393.902	1134.651
346.533	26.904	1392.744	1134.136
347.548	26.869	1392.153	1133.333
348.562	26.912	1391.037	1132.596
349.577	26.913	1390.361	1131.951
350.592	26.844	1389.434	1130.663
351.606	26.912	1388.970	1130.613
352.621	26.812	1387.504	1128.697
353.635	26.861	1386.692	1128.243
354.650	27.073	1386.196	1129.057
355.665	26.929	1385.692	1127.653
356.679	26.912	1384.472	1126.449
357.694	27.009	1383.352	1126.040
358.708	27.004	1382.588	1125.291
359.723	26.968	1381.333	1123.944
360.738	26.950	1380.187	1122.799
361.752	26.961	1379.148	1121.928
362.767	26.960	1378.016	1120.902
363.781	26.914	1377.258	1119.901
364.796	27.122	1376.243	1120.257
365.810	27.057	1375.896	1119.477
366.825	27.107	1375.455	1119.325
367.840	27.169	1374.543	1118.868
368.854	27.058	1373.834	1117.509
369.869	27.185	1373.456	1117.880
370.883	27.288	1372.542	1117.669
371.898	27.271	1371.568	1116.674
372.913	27.200	1371.449	1116.046
373.927	27.088	1370.630	1114.592
374.942	27.161	1369.527	1114.044
375.956	27.190	1369.121	1113.791
376.971	27.214	1368.285	1113.162
377.986	27.219	1367.088	1112.119
379.000	27.378	1365.738	1111.891
380.015	27.276	1365.903	1111.309
381.029	27.294	1365.228	1110.772
382.044	27.312	1364.670	1110.328
383.059	27.298	1363.509	1109.200
384.073	27.376	1363.065	1109.212
385.088	27.213	1362.958	1108.035
386.102	27.234	1362.216	1107.460
387.117	27.319	1361.414	1107.232
388.132	27.264	1361.005	1106.465
389.146	27.246	1360.142	1105.553
390.161	27.391	1359.323	1105.674
391.175	27.399	1358.475	1104.936
392.190	27.412	1357.757	1104.328
393.205	27.402	1357.176	1103.701
394.219	27.437	1356.384	1103.168
395.234	27.370	1355.580	1102.010
396.248	27.428	1354.141	1101.096
397.263	27.467	1353.216	1100.484
398.278	27.461	1351.792	1099.188
399.292	27.510	1351.285	1098.977
400.307	27.480	1350.367	1097.952
401.321	27.524	1349.636	1097.524
402.336	27.521	1348.475	1096.467
403.350	27.485	1347.337	1095.229
404.365	27.517	1346.686	1094.792
405.380	27.495	1346.205	1094.175
406.394	27.544	1345.380	1093.703
407.409	27.532	1344.464	1092.787
408.423	27.504	1344.201	1092.309
409.438	27.639	1343.185	1092.194
410.453	27.619	1342.209	1091.184
411.467	27.718	1341.437	1091.054
412.482	27.712	1341.081	1090.631
413.496	27.597	1340.335	1089.238
414.511	27.720	1339.317	1089.050
415.526	27.812	1338.670	1088.978
416.540	27.674	1338.270	1087.736
417.555	27.706	1337.716	1087.377
418.569	27.698	1337.143	1086.769
419.584	27.645	1336.700	1085.994
420.599	27.671	1336.317	1085.742
421.613	73.331	1317.189	1329.948
422.628	73.896	1314.380	1330.091
