DTS Sentinel unit serial number:	SN413079Multiplexer serial number:	ORYXHardware model number:	OX4-SRSoftware version number:	ORYX F/W v4.00 Oryx Data Collector v3.7.2.0data status	okinstallation	princeton_trtdifferential loss correction	single-endedforward channel	channel 4reverse channel	N/Adate	2019/09/16time	22:05:35forward acquisition time	60.00reverse acquisition time	0.00gamma	496.2192k internal	0.2312k external	0.2312temperature offset calibration	0.9971default loss term (dB/km)	0.3790temperature slope calibration	1.0000multiplexer offset coefficient	1.0000multiplexer slope coefficient	1.0000fibre end	0.00T internal ref (°C)	31.12T ext. ref 1 (°C)	0.08T ext. ref 2 (°C)	25.02length (m)	temperature (°C)	Stokes	anti-Stokes-747.200	-26.721	0.296	-0.176
-746.185	525.103	-0.170	0.405
-745.171	800.000	-0.114	0.323
-744.156	-200.000	-0.070	0.403
-743.142	-7.314	0.193	-0.133
-742.127	-12.176	-0.039	0.026
-741.112	-87.336	-0.194	-0.060
-740.098	14.711	0.225	0.178
-739.083	-31.272	-0.140	0.080
-738.069	800.000	0.114	0.352
-737.054	19.604	-0.172	0.140
-736.039	63.569	-0.082	-0.084
-735.025	164.414	0.231	-0.330
-734.010	430.749	-0.065	0.144
-732.996	-200.000	-0.040	-0.401
-731.981	-114.880	0.383	0.074
-730.966	493.400	0.166	0.385
-729.952	-43.666	-0.131	-0.067
-728.937	-51.785	-0.263	-0.124
-727.923	165.108	0.034	0.049
-726.908	-58.354	0.153	-0.067
-725.894	447.685	-0.174	0.389
-724.879	-173.302	0.270	-0.008
-723.864	800.000	-0.072	-0.211
-722.850	-92.310	0.101	-0.029
-721.835	800.000	0.095	0.298
-720.821	333.975	0.099	-0.195
-719.806	50.510	0.068	0.065
-718.791	14.883	0.130	0.103
-717.777	570.282	0.025	0.062
-716.762	-80.632	0.268	0.090
-715.748	-129.028	0.282	0.040
-714.733	-200.000	-0.052	-0.419
-713.718	90.445	0.085	-0.096
-712.704	107.081	-0.072	-0.087
-711.689	-48.857	0.434	-0.211
-710.675	127.431	0.097	0.125
-709.660	29.150	0.014	-0.012
-708.645	-126.004	0.123	0.019
-707.631	214.754	0.110	0.177
-706.616	156.036	0.271	-0.378
-705.602	53.374	-0.168	0.163
-704.587	12.703	0.154	-0.121
-703.572	16.135	-0.188	0.150
-702.558	130.333	-0.099	-0.128
-701.543	-52.351	0.191	0.090
-700.529	-145.239	0.294	-0.027
-699.514	-189.361	0.339	0.004
-698.499	-200.000	-0.037	0.257
-697.485	13.297	0.107	0.084
-696.470	74.964	-0.075	0.080
-695.456	384.094	0.073	0.151
-694.441	-58.349	0.133	-0.058
-693.426	327.365	-0.137	-0.266
-692.412	-59.177	-0.133	0.058
-691.397	-200.000	-0.063	-0.326
-690.383	84.341	-0.143	-0.158
-689.368	0.299	0.192	0.139
-688.354	-200.000	0.000	-0.391
-687.339	-87.544	0.292	0.089
-686.324	-152.339	0.232	-0.017
-685.310	-27.488	0.126	-0.074
-684.295	721.563	-0.039	0.104
-683.281	41.038	-0.304	-0.277
-682.266	-59.741	0.073	0.032
-681.251	-63.017	0.404	0.169
-680.237	25.382	-0.069	0.058
-679.222	103.046	-0.077	0.091
-678.208	-43.222	-0.495	-0.254
-677.193	-110.312	0.109	0.023
-676.178	-109.864	0.334	-0.071
-675.164	800.000	0.097	-0.313
-674.149	-108.007	-0.135	-0.030
-673.135	-109.404	0.075	0.016
-672.120	30.992	0.233	0.202
-671.105	800.000	-0.047	-0.159
-670.091	89.393	-0.139	0.157
-669.076	-121.460	0.217	-0.036
-668.062	-116.885	-0.197	0.036
-667.047	800.000	0.082	0.361
-666.032	-79.440	0.344	0.118
-665.018	-101.767	-0.105	0.026
-664.003	-200.000	-0.016	-0.235
-662.989	-200.000	-0.064	0.605
-661.974	70.038	-0.101	0.106
-660.959	33.005	0.101	-0.088
-659.945	52.159	0.053	-0.051
-658.930	140.080	-0.159	-0.212
-657.916	-200.000	0.039	0.206
-656.901	-178.114	0.253	-0.006
-655.886	-5.282	0.073	0.051
-654.872	-195.656	-0.407	0.003
-653.857	114.204	0.163	0.201
-652.843	537.046	-0.041	-0.100
-651.828	-114.964	0.337	-0.065
-650.814	-22.874	0.213	0.130
-649.799	255.047	-0.189	-0.327
-648.784	679.399	0.173	0.454
-647.770	204.515	-0.084	0.131
-646.755	40.138	0.088	0.080
-645.741	-146.659	-0.470	0.041
-644.726	-105.008	0.133	0.031
-643.711	130.554	-0.119	0.154
-642.697	87.239	-0.134	-0.150
-641.682	264.922	0.137	-0.242
-640.668	-132.483	-0.139	-0.018
-639.653	527.762	-0.188	-0.447
-638.638	-47.386	-0.493	-0.242
-637.624	800.000	-0.044	0.147
-636.609	-200.000	0.034	-0.382
-635.595	-200.000	0.011	0.109
-634.580	138.827	-0.039	-0.052
-633.565	-18.289	-0.506	-0.319
-632.551	-57.406	0.336	0.149
-631.536	-200.000	-0.019	0.106
-630.522	7.239	-0.249	0.188
-629.507	-113.691	-0.044	-0.009
-628.492	122.313	-0.216	-0.273
-627.478	-152.916	0.137	0.010
-626.463	133.245	0.083	0.108
-625.449	-132.124	-0.382	-0.050
-624.434	52.910	0.057	0.055
-623.419	221.839	0.100	-0.162
-622.405	-100.504	-0.470	-0.118
-621.390	-53.750	0.270	0.124
-620.376	-78.529	-0.173	0.060
-619.361	385.210	-0.072	0.150
-618.346	-200.000	-0.039	-0.304
-617.332	-200.000	-0.001	-0.211
-616.317	-22.972	0.319	-0.194
-615.303	356.690	-0.087	0.175
-614.288	-9.090	-0.331	0.224
-613.273	223.551	0.025	0.041
-612.259	356.324	-0.035	0.071
-611.244	-127.312	-0.326	0.048
-610.230	83.358	-0.236	0.260
-609.215	-104.335	0.310	0.072
-608.201	-200.000	-0.025	-0.119
-607.186	800.000	0.031	-0.134
-606.171	-124.841	-0.167	-0.026
-605.157	-130.641	-0.322	-0.044
-604.142	800.000	-0.017	0.053
-603.128	-172.519	-0.343	0.011
-602.113	-7.693	0.297	-0.202
-601.098	-48.916	0.062	-0.030
-600.084	-5.616	0.156	-0.108
-599.069	317.813	-0.093	0.177
-598.055	503.802	-0.071	0.165
-597.040	-5.347	0.377	-0.261
-596.025	-177.054	-0.060	0.002
-595.011	-21.262	-0.171	0.106
-593.996	-200.000	0.057	-0.277
-592.982	-200.000	0.001	0.060
-591.967	233.051	-0.084	0.140
-590.952	-147.102	0.024	0.002
-589.938	17.321	-0.268	-0.214
-588.923	-200.000	0.005	0.096
-587.909	17.131	-0.364	-0.291
-586.894	112.682	0.105	-0.129
-585.879	-94.851	0.096	-0.026
-584.865	3.957	0.036	-0.027
-583.850	-200.000	-0.087	0.394
-582.836	27.778	0.181	-0.154
-581.821	418.585	0.085	-0.183
-580.806	76.706	-0.164	0.175
-579.792	47.624	0.196	0.185
-578.777	85.501	0.136	-0.150
-577.763	-76.062	-0.025	-0.009
-576.748	-200.000	-0.035	-0.264
-575.733	-80.064	0.288	-0.097
-574.719	-170.328	-0.344	-0.012
-573.704	-90.457	-0.162	-0.047
-572.690	-161.213	-0.382	-0.020
-571.675	404.237	-0.121	-0.257
-570.661	-200.000	-0.038	-0.331
-569.646	-29.141	-0.088	-0.051
-568.631	64.776	-0.114	0.116
-567.617	632.652	0.150	0.382
-566.602	700.817	0.133	0.353
-565.588	-49.316	0.062	0.030
-564.573	522.617	0.068	-0.161
-563.558	212.802	-0.122	-0.194
-562.544	-58.552	0.252	-0.110
-561.529	-200.000	0.017	0.202
-560.515	-200.000	0.053	-0.253
-559.500	703.262	0.089	-0.236
-558.485	62.952	0.195	0.197
-557.471	74.602	-0.146	0.154
-556.456	-119.812	0.326	0.057
-555.442	-200.000	-0.017	-0.110
-554.427	-88.986	0.098	-0.029
-553.412	342.574	-0.132	-0.260
-552.398	27.435	0.166	-0.141
-551.383	47.680	0.329	0.309
-550.369	111.478	-0.219	-0.266
-549.354	366.103	0.166	-0.336
-548.339	67.216	-0.051	-0.052
-547.325	-200.000	-0.030	-0.185
-546.310	-97.615	-0.068	-0.018
-545.296	-98.468	-0.096	-0.025
-544.281	-99.772	0.258	0.065
-543.266	-140.577	0.071	0.007
-542.252	-12.746	0.057	0.038
-541.237	800.000	0.058	0.245
-540.223	-176.131	0.292	-0.008
-539.208	800.000	0.040	0.177
-538.193	-106.305	0.379	0.085
-537.179	447.435	-0.033	0.074
-536.164	-5.156	0.082	0.057
-535.150	-135.540	-0.283	-0.034
-534.135	-200.000	-0.046	-0.391
-533.121	-37.286	-0.217	-0.117
-532.106	182.076	0.174	-0.258
-531.091	-3.819	-0.217	-0.152
-530.077	-200.000	0.043	-0.271
-529.062	-88.688	0.168	0.050
-528.048	-57.686	-0.279	-0.123
-527.033	-30.004	-0.098	0.056
-526.018	800.000	0.021	-0.080
-525.004	41.217	-0.045	0.041
-523.989	-200.000	-0.030	0.275
-522.975	800.000	0.082	0.297
-521.960	146.104	-0.036	0.049
-520.945	166.979	-0.239	-0.341
-519.931	64.050	-0.078	-0.079
-518.916	800.000	0.110	-0.352
-517.902	-17.652	0.095	-0.060
-516.887	110.816	-0.112	0.135
-515.872	-121.573	0.103	-0.017
-514.858	194.869	-0.080	-0.123
-513.843	28.262	-0.043	-0.037
-512.829	-146.572	0.319	0.028
-511.814	-200.000	0.023	0.135
-510.799	-68.662	-0.076	0.030
-509.785	195.701	0.217	0.332
-508.770	150.501	-0.115	0.156
-507.756	77.648	0.272	-0.291
-506.741	-112.503	0.188	-0.038
-505.726	-200.000	0.019	0.310
-504.712	-155.783	0.023	0.002
-503.697	67.744	-0.217	0.223
-502.683	-103.503	0.221	0.052
-501.668	9.216	0.183	0.139
-500.653	242.092	-0.103	-0.172
-499.639	269.990	-0.089	0.158
-498.624	1.168	-0.141	0.102
-497.610	56.848	0.132	-0.129
-496.595	-32.441	0.228	-0.128
-495.581	142.376	0.078	0.104
-494.566	-200.000	0.065	-0.351
-493.551	-50.782	-0.273	-0.129
-492.537	-200.000	-0.064	-0.330
-491.522	31.054	-0.178	-0.154
-490.508	-200.000	-0.021	0.190
-489.493	-105.754	0.169	0.038
-488.478	257.766	-0.090	0.155
-487.464	-86.933	-0.144	-0.044
-486.449	-43.838	-0.172	-0.087
-485.435	800.000	-0.068	0.259
-484.420	-108.471	0.263	0.057
-483.405	107.201	0.139	-0.165
-482.391	387.016	-0.113	-0.234
-481.376	223.873	-0.099	0.161
-480.362	800.000	0.040	-0.160
-479.347	-200.000	0.029	0.319
-478.332	205.846	0.054	0.085
-477.318	-31.082	-0.152	-0.086
-476.303	-39.070	0.062	-0.033
-475.289	-73.730	-0.228	0.083
-474.274	-200.000	0.010	0.299
-473.259	-57.292	-0.327	0.145
-472.245	119.211	-0.160	0.199
-471.230	800.000	0.036	0.147
-470.216	-113.040	0.352	0.070
-469.201	-54.962	-0.411	-0.186
-468.186	-118.789	0.180	-0.032
-467.172	-200.000	-0.009	-0.131
-466.157	194.791	0.113	0.172
-465.143	168.612	-0.128	-0.183
-464.128	-10.044	0.218	-0.145
-463.113	519.510	-0.046	-0.107
-462.099	44.603	0.099	0.092
-461.084	-20.079	-0.125	0.078
-460.070	-140.924	-0.208	-0.021
-459.055	-8.124	-0.129	-0.087
-458.040	-158.311	-0.338	0.020
-457.026	-83.719	-0.167	0.053
-456.011	144.437	0.054	-0.073
-454.997	99.645	0.136	0.158
-453.982	-106.161	-0.157	0.035
-452.968	210.223	-0.016	0.025
-451.953	472.417	-0.174	-0.392
-450.938	-65.738	0.425	-0.171
-449.924	-127.741	0.322	0.047
-448.909	63.989	-0.172	0.173
-447.895	-43.925	0.138	0.070
-446.880	-16.694	0.253	-0.160
-445.865	20.658	-0.336	-0.273
-444.851	800.000	0.019	-0.072
-443.836	59.283	0.028	-0.027
-442.822	48.333	0.149	-0.140
-441.807	-166.255	-0.252	-0.011
-440.792	-178.160	0.118	0.003
-439.778	-20.450	0.078	0.048
-438.763	-140.005	-0.355	0.037
-437.749	-47.184	-0.367	-0.179
-436.734	-19.413	0.190	0.118
-435.719	-2.606	0.074	-0.052
-434.705	-99.724	-0.448	0.112
-433.690	800.000	0.088	-0.291
-432.676	-36.922	0.178	-0.096
-431.661	-200.000	-0.018	0.193
-430.646	-163.156	-0.259	-0.012
-429.632	800.000	-0.038	0.129
-428.617	18.597	-0.110	0.088
-427.603	30.943	-0.158	-0.136
-426.588	-200.000	0.021	-0.103
-425.573	363.394	-0.049	0.100
-424.559	-35.641	-0.077	-0.042
-423.544	-76.410	-0.198	0.070
-422.530	90.990	-0.055	-0.062
-421.515	52.173	0.265	-0.253
-420.500	800.000	0.065	-0.252
-419.486	47.497	0.443	-0.413
-418.471	116.207	0.087	-0.107
-417.457	-200.000	0.050	0.241
-416.442	800.000	0.067	-0.212
-415.428	-67.759	0.555	-0.218
-414.413	-200.000	-0.037	-0.282
-413.398	-200.000	0.018	-0.413
-412.384	-106.160	-0.477	0.107
-411.369	-200.000	-0.084	-0.465
-410.355	-16.711	0.102	0.065
-409.340	800.000	0.052	0.149
-408.325	-35.492	-0.070	-0.038
-407.311	-70.974	-0.146	-0.055
-406.296	-115.394	0.480	-0.091
-405.282	-60.372	-0.164	0.070
-404.267	-94.014	0.373	-0.103
-403.252	-77.033	0.097	-0.034
-402.238	-143.826	0.224	0.021
-401.223	-105.198	0.467	0.107
-400.209	313.783	-0.052	-0.098
-399.194	448.672	-0.134	0.295
-398.179	-119.036	0.065	-0.011
-397.165	-10.473	0.082	0.055
-396.150	107.779	0.310	0.369
-395.136	-200.000	-0.042	0.293
-394.121	744.486	0.171	-0.460
-393.106	316.606	0.086	-0.162
-392.092	-200.000	-0.017	-0.274
-391.077	-49.100	-0.108	-0.052
-390.063	331.055	-0.139	0.268
-389.048	-155.836	0.335	0.021
-388.033	-32.401	-0.412	0.230
-387.019	-55.134	0.253	0.114
-386.004	-23.603	-0.097	0.058
-384.990	-200.000	-0.021	-0.107
-383.975	-63.785	0.399	-0.163
-382.960	386.137	0.166	0.343
-381.946	45.069	0.151	-0.139
-380.931	-200.000	0.027	-0.249
-379.917	-68.110	0.170	-0.066
-378.902	5.899	-0.119	-0.088
-377.888	117.466	-0.203	0.250
-376.873	178.911	0.127	0.186
-375.858	126.467	0.162	-0.205
-374.844	23.555	-0.062	0.051
-373.829	74.285	-0.103	-0.109
-372.815	118.981	-0.270	0.333
-371.800	-49.359	0.049	0.024
-370.785	-200.000	-0.017	0.198
-369.771	-24.293	0.112	-0.067
-368.756	-200.000	0.018	0.187
-367.742	33.144	0.157	-0.136
-366.727	-88.663	0.070	-0.021
-365.712	-200.000	0.006	0.071
-364.698	-9.466	0.130	0.087
-363.683	-100.069	-0.426	-0.106
-362.669	-15.312	-0.239	0.153
-361.654	-119.633	-0.163	-0.028
-360.639	-16.834	0.322	0.204
-359.625	-200.000	-0.023	-0.195
-358.610	-200.000	0.020	0.212
-357.596	-36.462	-0.312	-0.168
-356.581	36.705	-0.121	0.107
-355.566	23.135	-0.134	0.110
-354.552	-13.672	0.119	-0.077
-353.537	-75.249	0.092	0.033
-352.523	127.787	-0.129	-0.164
-351.508	-101.212	-0.313	0.076
-350.493	-200.000	-0.021	0.337
-349.479	244.580	0.130	0.218
-348.464	-200.000	0.019	-0.258
-347.450	82.861	-0.131	0.142
-346.435	-142.701	-0.530	-0.052
-345.420	-72.566	0.182	-0.067
-344.406	-200.000	0.009	0.177
-343.391	-132.312	-0.234	-0.030
-342.377	51.916	0.095	-0.090
-341.362	299.786	0.080	0.147
-340.348	-98.683	0.327	0.083
-339.333	-25.571	0.222	0.131
-338.318	214.102	-0.059	-0.094
-337.304	-200.000	-0.055	-0.307
-336.289	-200.000	-0.008	-0.163
-335.275	-45.758	0.241	0.119
-334.260	-157.033	-0.321	-0.020
-333.245	-82.381	0.176	0.057
-332.231	-31.240	-0.123	0.069
-331.216	411.255	0.091	0.193
-330.202	173.953	-0.166	0.239
-329.187	4.839	0.261	0.192
-328.172	-92.367	0.297	-0.084
-327.158	-45.462	-0.199	0.098
-326.143	-102.647	-0.255	-0.061
-325.129	47.476	0.132	-0.123
-324.114	-53.709	0.370	0.169
-323.099	180.254	-0.175	-0.256
-322.085	-103.781	0.163	0.038
-321.070	-132.030	0.283	-0.037
-320.056	183.938	0.154	-0.228
-319.041	-102.913	0.253	-0.060
-318.026	228.928	-0.107	-0.175
-317.012	-128.076	0.188	-0.027
-315.997	-120.526	0.158	0.027
-314.983	-71.860	0.075	-0.028
-313.968	-200.000	-0.353	0.000
-312.953	-200.000	-0.005	0.328
-311.939	-54.349	0.051	-0.023
-310.924	-200.000	-0.042	0.231
-309.910	456.692	0.053	0.118
-308.895	380.021	0.090	-0.185
-307.880	-84.656	-0.324	-0.102
-306.866	218.472	-0.209	0.333
-305.851	380.813	-0.072	0.148
-304.837	-124.299	0.266	0.041
-303.822	-56.412	-0.246	0.109
-302.807	242.498	-0.088	-0.147
-301.793	167.148	-0.154	-0.219
-300.778	-200.000	-0.025	-0.163
-299.764	-200.000	0.038	0.341
-298.749	800.000	-0.093	-0.269
-297.735	639.433	0.065	-0.165
-296.720	800.000	-0.026	0.114
-295.705	187.108	0.103	0.153
-294.691	-148.229	0.018	-0.001
-293.676	210.509	-0.135	0.212
-292.662	800.000	-0.050	-0.175
-291.647	22.579	0.186	0.152
-290.632	-200.000	-0.023	0.179
-289.618	-29.709	0.253	0.144
-288.603	305.410	0.168	0.311
-287.589	-200.000	0.014	0.187
-286.574	-66.676	0.193	0.076
-285.559	800.000	0.060	-0.242
-284.545	180.669	-0.155	0.226
-283.530	56.450	0.281	0.272
-282.516	281.106	-0.169	0.302
-281.501	-75.028	-0.255	-0.091
-280.486	-91.307	-0.122	0.035
-279.472	-80.697	0.089	-0.030
-278.457	800.000	-0.075	0.311
-277.443	-119.685	-0.453	-0.078
-276.428	244.014	0.169	0.282
-275.413	297.523	-0.128	0.235
-274.399	-129.843	-0.304	0.042
-273.384	525.877	-0.069	-0.161
-272.370	-93.502	0.302	0.083
-271.355	59.924	0.291	0.287
-270.340	-148.196	0.191	-0.016
-269.326	-200.000	0.029	0.177
-268.311	-86.685	-0.086	-0.026
-267.297	-17.869	-0.329	-0.206
-266.282	-60.944	-0.114	0.048
-265.267	-100.382	0.033	-0.008
-264.253	-70.303	0.275	-0.104
-263.238	-200.000	-0.050	0.512
-262.224	-113.136	0.430	0.084
-261.209	268.962	-0.177	-0.309
-260.195	159.715	-0.102	0.142
-259.180	800.000	-0.088	-0.295
-258.165	-200.000	0.049	-0.268
-257.151	-2.175	-0.066	-0.046
-256.136	97.024	0.163	0.186
-255.122	135.731	0.241	-0.313
-254.107	-67.197	-0.182	-0.071
-253.092	-200.000	0.008	0.242
-252.078	-50.581	-0.354	0.166
-251.063	27.874	0.379	-0.318
-250.049	800.000	0.143	0.477
-249.034	23.944	-0.169	0.139
-248.019	18.717	-0.095	0.075
-247.005	-29.812	0.071	0.040
-245.990	-88.797	-0.422	-0.125
-244.976	522.626	-0.025	-0.058
-243.961	468.736	0.125	0.279
-242.946	76.381	-0.115	-0.122
-241.932	-200.000	0.012	0.116
-240.917	186.974	0.158	0.234
-239.903	401.438	0.119	-0.248
-238.888	-67.556	-0.222	-0.087
-237.873	-155.149	-0.472	0.031
-236.859	-56.017	-0.549	0.244
-235.844	-200.000	0.011	0.320
-234.830	122.676	0.022	-0.027
-233.815	-200.000	-0.093	-0.437
-232.800	800.000	-0.065	0.203
-231.786	1.038	-0.239	0.171
-230.771	-85.746	0.373	-0.115
-229.757	-45.850	-0.059	0.029
-228.742	800.000	0.065	-0.197
-227.727	-15.729	0.222	-0.141
-226.713	-200.000	-0.042	0.216
-225.698	-45.886	-0.146	0.072
-224.684	558.081	0.103	0.248
-223.669	281.779	-0.091	-0.162
-222.655	-200.000	0.042	0.259
-221.640	-200.000	0.021	-0.151
-220.625	683.188	-0.102	-0.264
-219.611	-21.421	-0.208	0.126
-218.596	-117.855	0.344	0.061
-217.582	-200.000	-0.016	-0.145
-216.567	102.412	-0.151	-0.176
-215.552	-66.939	-0.216	-0.085
-214.538	32.857	0.047	0.040
-213.523	800.000	0.107	0.314
-212.509	-86.534	0.131	-0.040
-211.494	60.294	-0.200	-0.196
-210.479	134.232	-0.116	-0.149
-209.465	-21.221	0.189	-0.115
-208.450	111.148	0.200	0.240
-207.436	-200.000	0.027	0.224
-206.421	-30.362	-0.187	0.106
-205.406	-154.647	-0.101	0.007
-204.392	-142.057	-0.216	0.021
-203.377	-0.560	-0.091	-0.064
-202.363	-71.639	0.153	-0.057
-201.348	800.000	-0.077	0.219
-200.333	-90.411	0.322	-0.093
-199.319	-101.738	0.070	-0.017
-198.304	123.670	0.139	-0.173
-197.290	-80.561	-0.352	-0.116
-196.275	12.085	0.130	-0.099
-195.260	65.121	0.217	-0.218
-194.246	277.006	0.185	-0.326
-193.231	-157.482	0.207	-0.012
-192.217	800.000	0.093	0.266
-191.202	56.104	0.328	0.316
-190.187	-117.518	0.159	0.028
-189.173	570.307	0.074	0.178
-188.158	-84.346	0.220	-0.069
-187.144	-200.000	0.076	0.538
-186.129	800.000	0.031	0.122
-185.114	67.329	-0.186	0.188
-184.100	241.885	0.044	0.073
-183.085	-99.074	0.381	0.096
-182.071	-88.205	-0.087	-0.026
-181.056	6.861	-0.213	-0.157
-180.042	-200.000	0.041	0.230
-179.027	225.179	0.030	-0.048
-178.012	800.000	-0.067	0.244
-176.998	62.288	0.126	0.125
-175.983	-200.000	-0.020	0.113
-174.969	-29.423	0.209	0.119
-173.954	-200.000	-0.042	-0.201
-172.939	52.247	0.060	-0.057
-171.925	-3.644	0.138	0.095
-170.910	-112.635	0.136	-0.027
-169.896	338.227	0.107	0.207
-168.881	-140.270	0.127	0.013
-167.866	-58.999	-0.447	-0.192
-166.852	-189.241	0.241	-0.003
-165.837	28.162	-0.181	-0.152
-164.823	304.185	0.107	-0.197
-163.808	405.165	0.127	0.265
-162.793	-47.749	-0.153	-0.074
-161.779	541.838	0.116	-0.274
-160.764	-150.902	0.427	-0.032
-159.750	-200.000	-0.032	0.202
-158.735	-135.001	0.094	-0.011
-157.720	-71.774	0.183	-0.068
-156.706	800.000	-0.101	-0.321
-155.691	47.050	0.125	-0.115
-154.677	73.766	0.084	-0.087
-153.662	-55.571	0.165	-0.073
-152.647	-140.267	-0.177	-0.018
-151.633	-2.202	-0.166	0.116
-150.618	-18.145	0.296	-0.184
-149.604	70.834	0.269	0.276
-148.589	126.598	0.133	0.167
-147.574	-153.370	-0.301	-0.021
-146.560	-114.738	-0.289	-0.055
-145.545	-200.000	-0.055	-0.534
-144.531	713.159	-0.121	-0.318
-143.516	15.195	-0.180	0.140
-142.502	800.000	-0.043	-0.148
-141.487	-64.040	0.349	-0.141
-140.472	-100.792	0.120	0.029
-139.458	-27.650	-0.138	-0.079
-138.443	800.000	0.131	0.451
-137.429	-122.046	0.375	-0.061
-136.414	249.746	0.154	-0.259
-135.399	82.871	-0.031	0.034
-134.385	-50.170	0.114	-0.053
-133.370	-39.049	-0.063	-0.033
-132.356	800.000	-0.033	-0.110
-131.341	-55.062	0.135	-0.060
-130.326	-34.089	0.093	0.051
-129.312	-188.085	-0.255	-0.003
-128.297	95.973	-0.101	0.115
-127.283	10.977	0.132	0.100
-126.268	102.415	0.195	0.226
-125.253	10.635	-0.212	0.160
-124.239	-200.000	-0.059	0.319
-123.224	137.811	0.198	0.257
-122.210	96.706	-0.099	0.113
-121.195	96.989	0.174	0.198
-120.180	-200.000	0.053	0.332
-119.166	-125.898	0.097	0.014
-118.151	-200.000	-0.006	-0.201
-117.137	-127.544	0.277	0.040
-116.122	-200.000	-0.073	-0.460
-115.107	-115.983	-0.317	-0.059
-114.093	-12.374	0.048	0.031
-113.078	72.543	-0.162	0.168
-112.064	800.000	-0.074	-0.246
-111.049	47.848	0.265	-0.245
-110.034	6.477	-0.316	0.232
-109.020	-200.000	-0.023	-0.145
-108.005	-200.000	0.005	0.374
-106.991	54.541	0.097	-0.093
-105.976	-67.983	-0.323	-0.125
-104.962	148.988	-0.122	0.163
-103.947	18.117	0.160	-0.126
-102.932	-8.880	-0.275	-0.183
-101.918	800.000	0.102	0.299
-100.903	-17.559	0.152	-0.094
-99.889	-200.000	0.009	0.285
-98.874	-200.000	-0.080	0.366
-97.859	530.212	-0.074	0.174
-96.845	-200.000	-0.014	0.340
-95.830	-168.230	-0.275	0.011
-94.816	223.553	-0.098	-0.156
-93.801	-200.000	-0.017	0.109
-92.786	137.514	0.013	-0.017
-91.772	13.249	-0.204	0.157
-90.757	97.718	-0.166	0.189
-89.743	106.570	0.201	-0.235
-88.728	-200.000	-0.015	-0.065
-87.713	-200.000	0.208	-0.000
-86.699	800.000	-0.037	0.120
-85.684	126.648	-0.009	0.012
-84.670	-18.437	0.094	-0.058
-83.655	151.573	0.201	0.271
-82.640	800.000	-0.067	0.197
-81.626	800.000	0.035	0.141
-80.611	29.318	0.116	0.097
-79.597	-93.030	0.301	0.083
-78.582	193.440	-0.028	-0.043
-77.567	97.010	-0.132	0.150
-76.553	-200.000	-0.031	0.232
-75.538	-71.501	-0.192	-0.071
-74.524	178.289	0.108	-0.156
-73.509	172.083	0.041	-0.058
-72.494	-98.023	-0.030	0.008
-71.480	-32.000	0.095	-0.053
-70.465	328.979	0.107	-0.202
-69.451	-142.104	0.209	-0.020
-68.436	-82.280	0.125	-0.040
-67.422	-200.000	-0.004	-0.236
-66.407	20.887	-0.225	0.180
-65.392	-77.320	0.319	0.110
-64.378	-200.000	0.063	0.327
-63.363	-125.078	0.129	-0.020
-62.349	120.005	-0.120	0.147
-61.334	72.752	-0.721	-0.743
-60.319	-30.750	0.670	0.374
-59.305	800.000	-0.274	-1.090
-58.290	341.992	0.558	1.078
-57.276	800.000	0.512	1.682
-56.261	-200.000	99.512	583.722
-55.246	504.641	1407.700	3218.468
-54.232	154.709	2587.619	3510.853
-53.217	101.185	2302.852	2646.932
-52.203	37.500	2060.758	1804.946
-51.188	32.728	1975.498	1687.620
-50.173	31.281	1957.166	1659.046
-49.159	46.261	2008.624	1837.859
-48.144	47.608	2027.988	1867.647
-47.130	33.406	1988.472	1704.533
-46.115	31.158	1977.084	1674.559
-45.100	31.057	1974.923	1671.755
-44.086	31.008	1972.697	1669.365
-43.071	30.958	1969.655	1666.281
-42.057	30.941	1968.013	1664.675
-41.042	30.866	1966.175	1662.385
-40.027	30.957	1964.164	1661.427
-39.013	31.029	1961.852	1660.045
-37.998	31.108	1960.048	1659.157
-36.984	31.052	1958.394	1657.192
-35.969	31.076	1956.066	1655.373
-34.954	31.109	1954.703	1654.443
-33.940	31.045	1953.142	1652.493
-32.925	31.098	1951.528	1651.529
-31.911	31.106	1950.220	1650.430
-30.896	31.125	1948.760	1649.293
-29.881	31.161	1946.836	1647.919
-28.867	31.159	1945.001	1646.280
-27.852	31.158	1943.610	1645.033
-26.838	31.222	1941.646	1643.870
-25.823	31.110	1940.207	1641.596
-24.809	31.088	1938.345	1639.765
-23.794	31.160	1936.390	1638.680
-22.779	31.118	1935.378	1637.392
-21.765	31.068	1933.728	1635.490
-20.750	31.147	1931.736	1634.427
-19.736	31.125	1930.186	1632.863
-18.721	31.203	1928.398	1631.969
-17.706	31.158	1927.037	1630.353
-16.692	31.191	1924.717	1628.621
-15.677	31.175	1923.311	1627.227
-14.663	31.195	1922.005	1626.225
-13.648	31.136	1920.529	1624.405
-12.633	31.207	1919.359	1623.969
-11.619	31.109	1918.483	1622.312
-10.604	31.190	1917.053	1621.737
-9.590	31.080	1915.844	1619.695
-8.575	31.126	1914.157	1618.600
-7.560	31.132	1913.044	1617.650
-6.546	31.146	1911.684	1616.556
-5.531	31.190	1910.436	1615.817
-4.517	31.159	1909.153	1614.404
-3.502	31.140	1908.054	1613.247
-2.487	31.101	1907.044	1611.987
-1.473	31.139	1906.214	1611.548
-0.458	31.221	1900.910	1607.706
0.556	29.035	1881.208	1579.367
1.571	24.783	1862.390	1527.212
2.586	20.729	1884.587	1510.179
3.600	19.682	1919.789	1528.991
4.615	19.382	1915.161	1522.524
5.629	15.029	1814.336	1405.763
6.644	6.044	1693.996	1241.654
7.659	0.733	1655.528	1172.249
8.673	0.166	1652.622	1165.695
9.688	0.135	1651.168	1164.323
10.702	0.084	1649.706	1162.796
11.717	-0.084	1646.031	1158.812
12.731	0.501	1646.174	1163.315
13.746	7.107	1660.028	1224.230
14.761	15.333	1676.719	1300.452
15.775	17.775	1678.917	1320.979
16.790	16.958	1676.184	1312.396
17.804	15.876	1672.583	1301.099
18.819	14.898	1669.113	1290.740
19.834	14.305	1666.950	1284.378
20.848	14.085	1665.227	1281.245
21.863	13.793	1663.659	1277.676
22.877	13.548	1662.146	1274.518
23.892	13.290	1661.221	1271.708
24.907	13.201	1659.670	1269.729
25.921	13.274	1658.791	1269.505
26.936	13.242	1657.629	1268.255
27.950	13.263	1656.550	1267.483
28.965	13.333	1656.052	1267.525
29.980	13.301	1655.570	1266.794
30.994	13.442	1654.424	1266.886
32.009	13.399	1653.602	1265.818
33.023	13.497	1652.426	1265.553
34.038	13.560	1651.272	1265.035
35.053	13.506	1651.026	1264.327
36.067	13.409	1649.864	1262.587
37.082	13.439	1649.054	1262.084
38.096	13.394	1648.079	1260.882
39.111	13.437	1647.188	1260.413
40.126	13.390	1646.394	1259.338
41.140	13.452	1644.926	1258.571
42.155	13.313	1644.086	1256.766
43.169	13.224	1642.640	1254.876
44.184	13.259	1641.027	1253.795
45.199	13.185	1640.241	1252.525
46.213	13.077	1639.013	1250.652
47.228	13.222	1637.870	1250.773
48.242	13.251	1636.968	1250.191
49.257	13.254	1635.581	1249.042
50.271	13.350	1633.965	1248.424
51.286	13.272	1633.080	1247.045
52.301	13.347	1631.754	1246.489
53.315	13.297	1630.421	1244.982
54.330	13.271	1628.902	1243.518
55.344	13.253	1627.604	1242.287
56.359	13.236	1625.878	1240.728
57.374	13.203	1624.545	1239.356
58.388	13.323	1623.429	1239.293
59.403	13.154	1622.578	1237.267
60.417	13.202	1620.477	1235.913
61.432	13.122	1619.933	1234.792
62.447	13.176	1618.493	1233.987
63.461	13.157	1617.366	1232.877
64.476	13.091	1616.289	1231.455
65.490	13.001	1615.539	1230.103
66.505	13.052	1614.024	1229.222
67.520	13.106	1612.937	1228.688
68.534	13.127	1612.373	1228.303
69.549	13.163	1610.575	1227.097
70.563	13.082	1609.819	1225.805
71.578	13.131	1608.983	1225.423
72.593	13.151	1607.478	1224.320
73.607	13.073	1606.302	1222.742
74.622	13.111	1604.684	1221.682
75.636	13.081	1604.257	1221.022
76.651	13.045	1603.322	1219.941
77.666	13.040	1602.350	1219.055
78.680	13.101	1601.523	1218.771
79.695	13.097	1600.420	1217.792
80.709	13.052	1599.883	1216.946
81.724	12.991	1598.937	1215.670
82.739	13.195	1597.694	1216.114
83.753	13.244	1596.599	1215.534
84.768	13.183	1595.907	1214.453
85.782	13.241	1595.261	1214.281
86.797	13.363	1594.195	1214.258
87.812	13.377	1593.197	1213.490
88.826	13.303	1591.776	1211.758
89.841	13.312	1590.576	1210.803
90.855	13.356	1589.579	1210.260
91.870	13.310	1588.627	1209.092
92.884	13.370	1587.991	1208.940
93.899	13.306	1586.739	1207.412
94.914	13.383	1585.497	1206.923
95.928	13.376	1584.180	1205.761
96.943	13.434	1582.833	1205.054
97.957	13.498	1581.526	1204.415
98.972	13.425	1580.354	1202.889
99.987	13.395	1578.775	1201.360
101.001	13.424	1576.925	1200.056
102.016	13.392	1575.651	1198.750
103.030	13.338	1574.247	1197.182
104.045	13.324	1573.174	1196.160
105.060	13.331	1571.847	1195.093
106.074	13.305	1570.381	1193.688
107.089	13.238	1569.038	1192.079
108.103	13.183	1567.533	1190.436
109.118	13.190	1566.327	1189.465
110.133	13.093	1565.148	1187.765
111.147	13.160	1562.948	1186.471
112.162	13.165	1561.868	1185.580
113.176	13.192	1560.399	1184.552
114.191	13.168	1559.546	1183.629
115.206	13.226	1558.376	1183.050
116.220	13.229	1557.187	1182.065
117.235	13.155	1555.623	1180.246
118.249	13.242	1554.396	1179.834
119.264	13.203	1552.835	1178.268
120.279	13.165	1551.529	1176.898
121.293	13.257	1550.065	1176.339
122.308	13.180	1549.000	1174.878
123.322	13.242	1547.291	1173.922
124.337	13.150	1545.514	1171.812
125.352	13.128	1544.575	1170.843
126.366	13.008	1543.830	1169.324
127.381	13.239	1542.243	1169.658
128.395	13.231	1540.693	1168.319
129.410	13.148	1539.710	1166.886
130.424	13.168	1538.654	1166.121
131.439	13.212	1537.282	1165.287
132.454	13.188	1536.084	1164.111
133.468	13.319	1534.533	1163.753
134.483	13.164	1533.167	1161.523
135.497	13.252	1531.473	1160.756
136.512	13.371	1530.283	1160.583
137.527	13.277	1529.299	1159.081
138.541	13.322	1527.570	1157.978
139.556	13.264	1526.443	1156.615
140.570	13.296	1524.571	1155.317
141.585	13.405	1523.254	1154.981
142.600	13.379	1522.561	1154.171
143.614	13.387	1521.361	1153.217
144.629	13.556	1519.600	1152.952
145.643	13.477	1518.513	1151.479
146.658	13.492	1517.507	1150.717
147.673	13.470	1516.148	1149.437
148.687	13.490	1513.886	1147.756
149.702	13.526	1512.355	1146.740
150.716	13.507	1511.191	1145.624
151.731	13.331	1509.965	1143.378
152.746	13.432	1508.762	1143.069
153.760	13.502	1506.970	1142.091
154.775	13.528	1506.165	1141.557
155.789	13.566	1504.433	1140.404
156.804	13.497	1503.567	1139.171
157.819	13.505	1502.165	1138.068
158.833	13.564	1501.295	1137.712
159.848	13.504	1500.531	1136.621
160.862	13.667	1498.461	1136.066
161.877	13.642	1497.445	1135.025
162.892	13.602	1496.342	1133.818
163.906	13.477	1495.195	1131.992
164.921	13.522	1493.577	1130.972
165.935	13.544	1492.381	1130.120
166.950	13.460	1491.916	1129.091
167.964	13.600	1490.438	1128.826
168.979	13.595	1489.201	1127.755
169.994	13.538	1488.583	1126.799
171.008	13.617	1487.439	1126.373
172.023	13.648	1485.727	1125.186
173.037	13.581	1485.244	1124.271
174.052	13.704	1483.810	1123.918
175.067	13.697	1482.813	1123.016
176.081	13.649	1481.686	1121.736
177.096	13.573	1480.031	1119.874
178.110	13.506	1478.918	1118.480
179.125	13.609	1477.897	1118.301
180.140	13.685	1476.662	1117.783
181.154	13.705	1476.057	1117.359
182.169	13.765	1474.499	1116.482
183.183	13.752	1473.387	1115.455
184.198	13.707	1472.713	1114.544
185.213	13.780	1471.113	1113.727
186.227	13.824	1470.472	1113.435
187.242	13.864	1469.205	1112.643
188.256	13.843	1468.438	1111.828
189.271	13.877	1467.125	1110.962
190.286	13.887	1465.966	1110.055
191.300	13.833	1464.920	1108.801
192.315	13.708	1463.475	1106.775
193.329	13.608	1462.325	1105.141
194.344	13.636	1460.957	1104.198
195.359	13.650	1460.330	1103.717
196.373	13.656	1459.336	1102.906
197.388	13.775	1458.852	1103.233
198.402	13.793	1457.420	1102.176
199.417	13.932	1455.792	1101.768
200.432	13.973	1455.048	1101.379
201.446	14.051	1454.026	1101.023
202.461	14.134	1452.763	1100.521
203.475	14.072	1451.433	1099.008
204.490	14.101	1450.680	1098.529
205.504	14.125	1449.342	1097.580
206.519	14.038	1448.333	1096.145
207.534	14.112	1447.293	1095.751
208.548	14.051	1446.331	1094.519
209.563	14.029	1445.041	1093.302
210.577	14.132	1443.975	1093.076
211.592	14.044	1443.498	1092.042
212.607	14.210	1442.602	1092.358
213.621	14.238	1442.099	1092.064
214.636	14.228	1441.252	1091.261
215.650	14.177	1440.164	1090.001
216.665	14.237	1439.212	1089.582
217.680	14.237	1438.132	1088.667
218.694	14.271	1437.838	1088.568
219.709	14.300	1437.090	1088.099
220.723	14.322	1435.855	1087.205
221.738	14.349	1435.360	1086.915
222.753	14.239	1434.245	1085.255
223.767	14.254	1433.392	1084.611
224.782	14.291	1432.454	1084.047
225.796	14.354	1431.245	1083.446
226.811	14.433	1430.598	1083.377
227.826	14.385	1429.761	1082.331
228.840	14.398	1428.698	1081.519
229.855	14.391	1427.746	1080.656
230.869	14.422	1426.767	1080.017
231.884	14.361	1425.956	1078.915
232.899	14.389	1424.503	1077.899
233.913	14.358	1423.407	1076.774
234.928	14.297	1422.713	1075.758
235.942	14.391	1421.262	1075.174
236.957	14.363	1420.289	1074.166
237.972	14.286	1419.205	1072.754
238.986	14.402	1417.907	1072.423
240.001	14.314	1417.249	1071.263
241.015	14.419	1416.002	1070.904
242.030	14.476	1414.712	1070.198
243.045	14.439	1414.408	1069.633
244.059	14.513	1413.353	1069.216
245.074	14.430	1412.687	1068.084
246.088	14.517	1411.528	1067.672
247.103	14.587	1410.793	1067.472
248.117	14.559	1410.434	1066.927
249.132	14.664	1409.339	1066.676
250.147	14.729	1408.948	1066.696
251.161	14.755	1408.150	1066.169
252.176	14.850	1407.417	1066.126
253.190	14.908	1406.878	1065.989
254.205	14.896	1405.858	1065.045
255.220	14.859	1405.007	1064.074
256.234	14.906	1404.229	1063.685
257.249	14.851	1403.524	1062.711
258.263	15.012	1402.116	1062.571
259.278	14.928	1401.751	1061.667
260.293	14.881	1400.643	1060.439
261.307	15.063	1399.231	1060.424
262.322	15.043	1398.616	1059.738
263.336	15.098	1398.119	1059.620
264.351	15.047	1397.222	1058.524
265.366	15.036	1396.421	1057.750
266.380	14.981	1395.881	1056.900
267.395	15.218	1394.292	1057.102
268.409	15.173	1393.417	1056.057
269.424	15.115	1392.425	1054.851
270.439	15.097	1391.757	1054.135
271.453	15.135	1390.422	1053.270
272.468	15.145	1390.001	1052.920
273.482	15.001	1389.658	1051.662
274.497	15.119	1388.131	1051.154
275.512	15.073	1387.353	1050.186
276.526	15.172	1386.395	1049.988
277.541	15.187	1385.547	1049.345
278.555	15.162	1384.916	1048.620
279.570	15.119	1383.932	1047.513
280.585	15.209	1382.653	1047.013
281.599	15.239	1382.102	1046.693
282.614	15.261	1381.185	1046.039
283.628	15.222	1380.082	1044.870
284.643	15.327	1379.169	1044.742
285.657	15.266	1378.139	1043.491
286.672	15.276	1377.148	1042.709
287.687	15.251	1376.268	1041.797
288.701	15.239	1375.116	1040.758
289.716	15.277	1374.499	1040.433
290.730	15.350	1373.387	1039.954
291.745	15.385	1372.420	1039.341
292.760	15.356	1371.264	1038.196
293.774	15.389	1370.680	1037.870
294.789	15.437	1369.459	1037.146
295.803	15.497	1368.662	1036.823
296.818	15.486	1368.001	1036.160
297.833	15.396	1367.125	1034.851
298.847	15.472	1366.197	1034.524
299.862	15.498	1365.052	1033.726
300.876	15.528	1363.900	1032.951
301.891	15.552	1362.541	1031.977
302.906	15.505	1362.723	1031.735
303.920	15.535	1362.339	1031.535
304.935	15.608	1361.358	1031.146
305.949	15.582	1360.562	1030.296
306.964	15.639	1359.763	1029.950
307.979	15.651	1358.588	1029.041
308.993	15.750	1357.428	1028.679
310.008	15.705	1356.601	1027.686
311.022	15.726	1355.408	1026.820
312.037	15.687	1354.742	1025.986
313.052	15.750	1353.642	1025.443
314.066	15.801	1352.767	1025.003
315.081	15.681	1351.699	1023.370
316.095	15.687	1351.014	1022.801
317.110	15.616	1350.044	1021.543
318.125	15.774	1348.670	1021.374
319.139	15.648	1348.462	1020.358
320.154	15.637	1347.129	1019.195
321.168	15.709	1345.633	1018.406
322.183	15.742	1344.871	1017.943
323.197	15.709	1343.982	1016.974
324.212	15.656	1343.682	1016.339
325.227	15.864	1342.619	1016.702
326.241	15.789	1341.462	1015.281
327.256	15.755	1341.013	1014.652
328.270	15.803	1339.674	1013.836
329.285	15.832	1339.216	1013.576
330.300	15.836	1337.861	1012.481
331.314	15.819	1337.340	1011.897
332.329	15.875	1336.080	1011.188
333.343	15.904	1335.426	1010.782
334.358	15.912	1334.503	1010.041
335.373	15.946	1333.687	1009.535
336.387	15.905	1333.048	1008.720
337.402	15.995	1332.319	1008.613
338.416	16.036	1331.780	1008.362
339.431	16.012	1331.196	1007.690
340.446	16.016	1330.381	1007.008
341.460	16.064	1329.382	1006.448
342.475	16.114	1328.462	1005.961
343.489	16.166	1327.765	1005.653
344.504	16.123	1326.928	1004.675
345.519	16.203	1325.246	1003.786
346.533	16.182	1324.872	1003.294
347.548	16.273	1323.906	1003.014
348.562	16.312	1322.994	1002.461
349.577	16.367	1321.932	1001.894
350.592	16.268	1321.775	1001.103
351.606	16.192	1320.925	999.918
352.621	16.181	1319.796	998.909
353.635	16.271	1318.387	998.288
354.650	16.173	1317.792	997.172
355.665	16.226	1316.700	996.566
356.679	16.262	1315.442	995.738
357.694	16.289	1314.522	995.115
358.708	16.309	1313.443	994.327
359.723	16.324	1312.268	993.439
360.738	16.326	1311.550	992.817
361.752	16.302	1310.644	991.904
362.767	16.347	1309.126	990.933
363.781	16.433	1308.638	990.979
364.796	16.319	1308.211	989.900
365.810	16.391	1307.200	989.467
366.825	16.459	1306.547	989.284
367.840	16.556	1305.648	989.087
368.854	16.579	1305.130	988.737
369.869	16.543	1304.486	987.955
370.883	16.509	1304.038	987.330
371.898	16.517	1303.229	986.675
372.913	16.492	1302.296	985.737
373.927	16.524	1301.464	985.202
374.942	16.582	1300.775	984.932
375.956	16.606	1299.680	984.157
376.971	16.570	1298.861	983.241
377.986	16.674	1298.383	983.396
379.000	16.604	1297.751	982.425
380.015	16.689	1296.641	981.991
381.029	16.795	1295.508	981.656
382.044	16.759	1294.944	980.939
383.059	16.799	1294.279	980.579
384.073	16.925	1293.681	980.763
385.088	16.813	1293.150	979.629
386.102	16.829	1292.611	979.224
387.117	16.830	1291.901	978.608
388.132	16.853	1291.199	978.122
389.146	16.794	1290.103	976.868
390.161	16.881	1289.025	976.461
391.175	16.775	1288.932	975.694
392.190	16.838	1287.774	975.098
393.205	16.826	1287.107	974.435
394.219	16.914	1285.633	973.739
395.234	16.990	1284.704	973.386
396.248	16.908	1283.230	971.715
397.263	16.912	1282.297	970.943
398.278	16.886	1281.017	969.736
399.292	16.979	1279.206	968.812
400.307	16.849	1278.818	967.694
401.321	16.860	1277.532	966.697
402.336	16.866	1276.972	966.218
403.350	16.870	1275.717	965.208
404.365	16.856	1274.851	964.390
405.380	16.922	1274.017	964.047
406.394	16.965	1273.094	963.510
407.409	17.054	1272.507	963.482
408.423	16.982	1271.881	962.518
409.438	17.120	1271.186	962.686
410.453	17.090	1270.316	961.774
411.467	17.125	1269.879	961.554
412.482	17.106	1269.400	960.998
413.496	17.185	1268.864	960.954
414.511	17.232	1268.060	960.526
415.526	17.259	1267.144	959.902
416.540	17.206	1266.672	959.159
417.555	17.340	1265.290	958.784
418.569	17.380	1264.880	958.616
419.584	17.429	1264.469	958.493
420.599	17.311	1264.288	957.606
421.613	94.345	1350.129	1462.862
422.628	91.906	1362.591	1462.977
