DTS Sentinel unit serial number:	SN413079Multiplexer serial number:	ORYXHardware model number:	OX4-SRSoftware version number:	ORYX F/W v4.00 Oryx Data Collector v3.7.2.0data status	okinstallation	princeton_trtdifferential loss correction	single-endedforward channel	channel 4reverse channel	N/Adate	2019/09/17time	03:57:35forward acquisition time	60.00reverse acquisition time	0.00gamma	496.2192k internal	0.2312k external	0.2312temperature offset calibration	0.9975default loss term (dB/km)	0.3790temperature slope calibration	1.0000multiplexer offset coefficient	1.0000multiplexer slope coefficient	1.0000fibre end	0.00T internal ref (°C)	29.92T ext. ref 1 (°C)	0.14T ext. ref 2 (°C)	24.42length (m)	temperature (°C)	Stokes	anti-Stokes-747.200	-83.751	0.219	0.071
-746.185	-115.397	0.130	-0.025
-745.171	401.328	-0.161	0.343
-744.156	-107.448	-0.296	0.066
-743.142	-119.749	-0.126	0.022
-742.127	93.306	-0.539	0.619
-741.112	-138.281	0.102	0.011
-740.098	-106.716	-0.108	0.024
-739.083	223.921	-0.061	0.100
-738.069	-92.891	-0.353	0.100
-737.054	-200.000	-0.016	0.103
-736.039	253.039	0.028	-0.049
-735.025	301.510	0.082	0.155
-734.010	-75.939	-0.350	-0.125
-732.996	-200.000	-0.003	-0.249
-731.981	-165.821	-0.232	-0.010
-730.966	18.121	-0.312	-0.252
-729.952	7.865	-0.382	0.290
-728.937	-136.463	-0.352	0.041
-727.923	65.396	0.006	-0.006
-726.908	-26.630	-0.244	0.145
-725.894	420.581	-0.064	0.138
-724.879	451.413	-0.083	-0.185
-723.864	519.640	-0.017	0.039
-722.850	800.000	-0.093	0.349
-721.835	-12.176	0.167	0.111
-720.821	-18.805	0.142	0.089
-719.806	55.621	-0.282	0.277
-718.791	-22.695	0.031	0.019
-717.777	417.360	-0.075	0.162
-716.762	-144.548	0.168	0.016
-715.748	-200.000	0.066	-0.336
-714.733	-29.225	0.031	0.018
-713.718	-200.000	-0.086	-0.000
-712.704	85.147	0.090	-0.100
-711.689	-125.631	0.300	0.046
-710.675	800.000	-0.088	0.307
-709.660	104.614	0.289	0.345
-708.645	156.886	0.061	-0.086
-707.631	800.000	-0.049	0.214
-706.616	527.913	0.034	-0.082
-705.602	14.042	0.203	-0.160
-704.587	149.526	-0.161	0.221
-703.572	84.556	0.255	-0.283
-702.558	306.247	0.045	-0.085
-701.543	445.834	-0.145	0.323
-700.529	-63.603	-0.148	-0.061
-699.514	300.088	0.015	-0.027
-698.499	67.936	0.138	0.143
-697.485	800.000	0.079	-0.223
-696.470	800.000	-0.070	-0.196
-695.456	-200.000	-0.021	-0.302
-694.441	800.000	-0.025	0.104
-693.426	2.768	0.216	0.158
-692.412	-101.126	-0.399	-0.099
-691.397	375.261	0.126	0.261
-690.383	-40.098	0.288	-0.152
-689.368	-35.405	-0.191	-0.105
-688.354	20.902	0.141	0.116
-687.339	-68.747	0.090	-0.035
-686.324	-51.025	-0.223	0.106
-685.310	503.255	0.007	0.016
-684.295	-124.542	-0.206	0.032
-683.281	-186.704	0.395	0.006
-682.266	121.908	-0.106	-0.134
-681.251	-45.887	-0.188	-0.094
-680.237	-200.000	0.055	0.374
-679.222	-200.000	-0.005	0.214
-678.208	-26.244	0.263	-0.156
-677.193	117.659	-0.218	-0.272
-676.178	7.102	0.051	-0.038
-675.164	685.520	-0.185	-0.490
-674.149	-35.737	0.133	-0.073
-673.135	800.000	-0.082	0.238
-672.120	-13.305	-0.475	-0.312
-671.105	-105.967	0.165	0.038
-670.091	800.000	-0.049	0.179
-669.076	-40.326	-0.195	0.103
-668.062	771.085	0.071	-0.197
-667.047	227.713	0.048	0.078
-666.032	-52.585	-0.129	-0.060
-665.018	800.000	-0.061	-0.232
-664.003	-15.937	0.111	-0.071
-662.989	255.328	-0.209	0.362
-661.974	-57.363	0.140	-0.062
-660.959	242.739	0.141	-0.239
-659.945	-99.917	-0.196	-0.050
-658.930	-200.000	0.016	0.094
-657.916	169.758	-0.050	0.072
-656.901	-200.000	0.002	0.027
-655.886	-132.124	0.146	0.019
-654.872	-121.418	-0.155	-0.026
-653.857	62.668	0.250	-0.252
-652.843	-22.378	-0.270	0.165
-651.828	-200.000	0.010	-0.089
-650.814	800.000	0.072	-0.277
-649.799	308.040	0.065	-0.123
-648.784	-83.338	0.362	0.117
-647.770	45.427	-0.117	0.109
-646.755	604.831	-0.083	0.208
-645.741	-28.642	0.362	0.210
-644.726	23.828	-0.215	-0.179
-643.711	478.293	0.086	0.196
-642.697	271.820	0.042	-0.074
-641.682	-104.638	0.147	0.034
-640.668	800.000	0.040	0.120
-639.653	599.960	0.129	-0.323
-638.638	-151.897	0.038	-0.003
-637.624	85.416	-0.227	0.251
-636.609	531.803	0.158	0.379
-635.595	-192.326	-0.358	0.003
-634.580	-100.381	-0.273	0.068
-633.565	60.499	0.146	-0.146
-632.551	163.690	-0.135	-0.192
-631.536	-200.000	0.010	-0.076
-630.522	403.543	-0.068	-0.146
-629.507	160.388	0.088	0.124
-628.492	42.809	-0.110	0.101
-627.478	-200.000	-0.053	0.411
-626.463	18.345	-0.123	0.099
-625.449	-119.353	0.226	-0.040
-624.434	-200.000	-0.008	-0.127
-623.419	502.888	0.014	0.032
-622.405	-134.665	-0.216	0.027
-621.390	54.094	0.101	-0.098
-620.376	-31.961	-0.072	-0.041
-619.361	-17.343	0.276	-0.176
-618.346	-200.000	0.004	0.069
-617.332	262.712	0.057	-0.100
-616.317	7.861	-0.151	-0.114
-615.303	800.000	0.067	0.258
-614.288	800.000	-0.068	0.272
-613.273	71.154	-0.172	-0.180
-612.259	-153.704	-0.246	0.017
-611.244	-66.774	0.037	0.015
-610.230	-18.664	0.194	-0.122
-609.215	-130.864	-0.166	0.022
-608.201	33.613	0.149	0.131
-607.186	-0.691	-0.213	-0.153
-606.171	59.775	-0.234	-0.233
-605.157	-27.271	-0.151	-0.089
-604.142	-200.000	0.000	-0.158
-603.128	122.276	0.165	0.209
-602.113	-200.000	-0.043	-0.223
-601.098	-200.000	0.025	-0.279
-600.084	495.525	0.091	0.210
-599.069	-200.000	0.070	0.309
-598.055	-200.000	-0.037	0.276
-597.040	111.562	-0.173	-0.210
-596.025	14.675	-0.150	-0.118
-595.011	-96.465	-0.281	0.075
-593.996	5.983	0.012	-0.009
-592.982	-146.935	-0.382	-0.033
-591.967	-52.032	-0.062	0.029
-590.952	342.945	-0.038	0.074
-589.938	-79.739	-0.329	0.112
-588.923	800.000	0.120	-0.493
-587.909	800.000	-0.029	0.125
-586.894	800.000	0.080	0.304
-585.879	18.647	-0.098	-0.079
-584.865	135.600	-0.097	-0.127
-583.850	-123.553	-0.167	-0.027
-582.836	-138.133	-0.069	0.008
-581.821	-67.248	0.290	0.115
-580.806	800.000	-0.084	0.235
-579.792	800.000	0.140	0.392
-578.777	793.974	0.044	0.123
-577.763	-145.060	0.152	-0.014
-576.748	-200.000	0.016	-0.178
-575.733	-144.381	0.059	0.005
-574.719	-156.803	0.390	-0.024
-573.704	-68.304	0.097	-0.038
-572.690	800.000	0.050	0.213
-571.675	3.834	-0.140	-0.103
-570.661	-200.000	-0.019	-0.119
-569.646	-26.730	0.239	-0.141
-568.631	800.000	-0.043	-0.120
-567.617	-91.206	0.208	0.060
-566.602	113.431	-0.281	-0.343
-565.588	-51.728	0.135	0.063
-564.573	800.000	-0.043	0.185
-563.558	303.977	-0.139	0.260
-562.544	-200.000	-0.045	-0.277
-561.529	218.432	-0.162	-0.261
-560.515	573.653	-0.101	0.247
-559.500	800.000	0.043	0.126
-558.485	371.300	0.088	-0.181
-557.471	12.291	0.131	-0.102
-556.456	-75.535	-0.169	-0.060
-555.442	-200.000	0.037	-0.195
-554.427	-67.585	0.044	0.017
-553.412	98.137	-0.287	0.333
-552.398	681.533	0.085	-0.222
-551.383	16.190	-0.088	0.070
-550.369	1.456	-0.119	-0.086
-549.354	800.000	-0.067	0.214
-548.339	14.275	0.191	-0.150
-547.325	800.000	0.057	-0.230
-546.310	-31.029	-0.057	0.032
-545.296	-62.395	-0.394	-0.165
-544.281	144.025	-0.173	0.232
-543.266	-153.987	0.034	0.002
-542.252	234.610	-0.134	-0.223
-541.237	-200.000	-0.020	0.122
-540.223	-60.662	0.418	0.179
-539.208	-80.866	-0.094	-0.031
-538.193	-128.399	0.259	-0.037
-537.179	69.366	-0.173	0.180
-536.164	-194.410	-0.350	0.003
-535.150	-108.307	0.072	-0.016
-534.135	-154.327	-0.500	-0.034
-533.121	55.565	-0.128	-0.125
-532.106	-74.200	-0.226	0.082
-531.091	-111.181	0.318	-0.066
-530.077	800.000	-0.073	0.261
-529.062	642.572	-0.131	0.336
-528.048	-52.152	0.205	-0.096
-527.033	-117.248	-0.362	-0.066
-526.018	25.273	0.028	-0.023
-525.004	-82.522	-0.030	0.010
-523.989	-94.783	0.192	0.052
-522.975	-124.737	0.199	-0.031
-521.960	793.892	-0.065	-0.180
-520.945	176.000	-0.169	-0.247
-519.931	180.747	0.062	0.092
-518.916	-181.712	-0.183	0.004
-517.902	-51.693	0.364	-0.171
-516.887	306.065	0.025	0.046
-515.872	447.050	-0.167	-0.370
-514.858	388.176	-0.101	-0.211
-513.843	800.000	0.121	0.397
-512.829	1.335	0.271	-0.196
-511.814	346.308	-0.022	-0.044
-510.799	-136.145	0.264	-0.031
-509.785	-200.000	-0.008	-0.308
-508.770	800.000	0.100	-0.285
-507.756	421.820	0.029	0.062
-506.741	-89.161	-0.336	0.100
-505.726	181.462	-0.028	-0.041
-504.712	-58.193	-0.328	-0.143
-503.697	193.867	0.116	0.177
-502.683	349.441	0.101	-0.201
-501.668	255.111	0.075	-0.128
-500.653	800.000	-0.030	0.084
-499.639	-200.000	0.102	-0.606
-498.624	-40.587	-0.020	0.011
-497.610	-156.199	0.160	0.010
-496.595	158.074	-0.194	0.270
-495.581	197.012	0.127	0.195
-494.566	85.518	-0.083	0.091
-493.551	-200.000	0.022	0.127
-492.537	-34.254	-0.114	-0.063
-491.522	415.356	-0.143	0.307
-490.508	-146.372	0.308	-0.027
-489.493	-200.000	0.046	0.239
-488.478	-79.487	-0.217	-0.074
-487.464	148.146	0.134	0.182
-486.449	-128.344	0.304	-0.044
-485.435	-200.000	-0.006	-0.066
-484.420	-20.127	0.149	-0.093
-483.405	-200.000	0.000	0.019
-482.391	71.441	-0.382	-0.399
-481.376	-154.642	-0.373	-0.025
-480.362	800.000	0.048	-0.158
-479.347	106.852	0.114	0.136
-478.332	84.186	-0.210	-0.231
-477.318	34.705	0.190	0.167
-476.303	-200.000	0.022	0.450
-475.289	11.786	0.229	-0.177
-474.274	22.173	-0.185	0.152
-473.259	-200.000	0.010	0.103
-472.245	79.792	0.227	0.244
-471.230	-200.000	0.027	0.219
-470.216	-71.384	-0.186	-0.070
-469.201	-71.017	-0.211	0.080
-468.186	-30.869	0.119	-0.068
-467.172	435.533	-0.035	-0.077
-466.157	-139.610	0.094	-0.010
-465.143	800.000	0.020	0.065
-464.128	-85.744	0.165	-0.051
-463.113	-79.443	0.291	0.099
-462.099	-200.000	-0.101	0.533
-461.084	-200.000	0.009	-0.154
-460.070	187.152	0.152	0.227
-459.055	-60.906	-0.112	0.047
-458.040	-57.544	-0.025	0.011
-457.026	622.966	0.139	0.350
-456.011	-200.000	0.001	0.030
-454.997	-136.274	-0.387	-0.045
-453.982	-146.816	-0.108	0.009
-452.968	279.573	-0.096	-0.173
-451.953	68.423	-0.043	-0.044
-450.938	-25.237	-0.208	-0.124
-449.924	117.246	0.262	0.323
-448.909	24.628	-0.180	0.150
-447.895	-11.548	0.321	0.212
-446.880	800.000	0.034	0.095
-445.865	3.777	-0.114	0.084
-444.851	800.000	0.053	-0.186
-443.836	-200.000	-0.012	-0.119
-442.822	22.096	-0.125	0.102
-441.807	-117.975	-0.411	-0.074
-440.792	-200.000	-0.015	-0.104
-439.778	-106.160	-0.271	-0.061
-438.763	800.000	0.128	-0.418
-437.749	-50.731	-0.209	-0.098
-436.734	156.582	-0.225	-0.312
-435.719	33.775	-0.080	-0.070
-434.705	-150.957	-0.104	-0.008
-433.690	121.657	-0.138	0.173
-432.676	-149.936	0.184	0.014
-431.661	-103.363	0.278	-0.066
-430.646	305.130	-0.048	-0.089
-429.632	-200.000	0.018	0.389
-428.617	-99.273	0.141	0.036
-427.603	250.852	-0.141	-0.241
-426.588	-78.945	-0.117	0.040
-425.573	3.170	0.176	0.128
-424.559	-200.000	0.007	-0.207
-423.544	-185.515	-0.293	-0.004
-422.530	-3.761	0.208	0.145
-421.515	4.645	0.458	0.337
-420.500	-163.879	0.079	-0.004
-419.486	-131.989	0.122	-0.016
-418.471	-200.000	-0.002	0.262
-417.457	800.000	0.149	-0.444
-416.442	44.090	-0.158	-0.145
-415.428	800.000	0.095	-0.274
-414.413	-200.000	0.007	-0.103
-413.398	-101.989	0.240	0.058
-412.384	-21.876	0.084	0.051
-411.369	11.386	-0.440	-0.337
-410.355	-200.000	-0.079	0.458
-409.340	-64.974	-0.313	0.127
-408.325	800.000	-0.094	-0.262
-407.311	-21.772	0.094	0.057
-406.296	-77.402	0.282	-0.098
-405.282	194.022	0.144	-0.218
-404.267	800.000	0.078	0.253
-403.252	395.500	-0.102	0.213
-402.238	521.130	-0.152	-0.356
-401.223	-132.318	-0.125	-0.016
-400.209	-81.514	0.365	-0.120
-399.194	-200.000	-0.008	-0.038
-398.179	46.488	-0.012	0.011
-397.165	211.995	0.151	-0.239
-396.150	-200.000	-0.024	-0.243
-395.136	-200.000	0.016	0.077
-394.121	-89.308	0.034	-0.010
-393.106	-154.507	0.264	-0.018
-392.092	-88.267	0.056	0.017
-391.077	139.174	-0.089	-0.117
-390.063	800.000	0.097	-0.301
-389.048	67.465	0.308	-0.315
-388.033	-150.175	0.148	0.011
-387.019	142.525	-0.045	0.059
-386.004	-84.623	-0.107	-0.034
-384.990	800.000	-0.046	0.138
-383.975	-110.805	0.382	0.079
-382.960	-86.981	0.186	0.057
-381.946	-200.000	-0.117	-0.562
-380.931	-157.320	0.467	0.028
-379.917	-146.511	0.177	-0.015
-378.902	26.155	0.220	-0.184
-377.888	-74.154	0.091	0.033
-376.873	102.357	0.192	-0.225
-375.858	62.514	-0.177	-0.177
-374.844	-44.237	-0.278	0.140
-373.829	-68.727	0.183	-0.071
-372.815	-35.704	0.060	-0.033
-371.800	262.150	-0.062	0.108
-370.785	-200.000	-0.031	0.212
-369.771	243.507	0.176	0.295
-368.756	800.000	0.045	-0.143
-367.742	-73.759	0.113	-0.041
-366.727	724.843	0.174	0.465
-365.712	800.000	-0.066	-0.214
-364.698	800.000	0.076	-0.280
-363.683	-145.538	-0.202	-0.018
-362.669	164.712	-0.110	-0.155
-361.654	309.226	-0.048	-0.089
-360.639	-200.000	-0.125	0.000
-359.625	357.217	0.180	-0.360
-358.610	92.108	0.184	0.207
-357.596	160.817	-0.091	0.126
-356.581	800.000	-0.089	0.272
-355.566	-169.489	-0.175	-0.006
-354.552	40.364	-0.047	-0.042
-353.537	-48.122	0.186	0.090
-352.523	-39.941	0.037	0.019
-351.508	-200.000	0.027	0.238
-350.493	-20.255	0.175	0.108
-349.479	-67.516	0.099	0.039
-348.464	-10.030	-0.170	-0.113
-347.450	395.067	-0.138	-0.288
-346.435	-41.478	-0.142	0.073
-345.420	-104.213	0.127	-0.030
-344.406	-39.520	-0.090	-0.047
-343.391	-200.000	-0.025	0.113
-342.377	-48.758	0.127	-0.061
-341.362	127.406	0.184	0.234
-340.348	800.000	-0.064	-0.187
-339.333	800.000	0.070	0.267
-338.318	-135.428	0.141	0.017
-337.304	181.654	0.050	-0.073
-336.289	-118.227	0.222	-0.040
-335.275	47.099	-0.329	0.306
-334.260	137.611	0.121	-0.158
-333.245	-78.009	0.214	0.074
-332.231	-200.000	0.029	-0.209
-331.216	-139.084	-0.243	0.026
-330.202	-127.090	0.116	0.017
-329.187	-118.678	-0.390	0.069
-328.172	317.459	-0.056	-0.105
-327.158	-35.456	0.325	0.176
-326.143	178.371	0.246	0.359
-325.129	-134.919	-0.262	-0.032
-324.114	-104.263	-0.220	-0.051
-323.099	-111.726	-0.073	0.015
-322.085	354.558	-0.092	0.183
-321.070	-84.526	0.274	-0.086
-320.056	57.178	-0.197	-0.192
-319.041	41.649	-0.329	-0.298
-318.026	41.249	0.151	0.136
-317.012	189.517	0.237	0.355
-315.997	-165.031	0.164	-0.007
-314.983	706.572	-0.086	-0.227
-313.968	800.000	-0.080	-0.345
-312.953	-124.999	-0.086	-0.013
-311.939	800.000	-0.063	0.202
-310.924	-200.000	0.010	0.107
-309.910	800.000	0.044	0.129
-308.895	-130.962	-0.523	0.070
-307.880	-200.000	0.039	-0.210
-306.866	-200.000	-0.031	-0.199
-305.851	86.847	0.214	-0.235
-304.837	-7.569	-0.072	-0.048
-303.822	59.469	0.133	-0.131
-302.807	377.229	0.040	-0.082
-301.793	-200.000	0.012	-0.471
-300.778	800.000	-0.043	-0.134
-299.764	-138.460	0.299	-0.033
-298.749	47.330	-0.056	-0.052
-297.735	-200.000	0.048	0.289
-296.720	-128.627	-0.322	-0.045
-295.705	-103.546	-0.417	0.098
-294.691	133.235	-0.123	0.159
-293.676	-150.401	0.145	-0.011
-292.662	-101.107	-0.235	-0.057
-291.647	800.000	-0.014	0.043
-290.632	251.257	0.136	0.231
-289.618	-57.219	0.075	-0.033
-288.603	-153.963	-0.238	0.016
-287.589	800.000	-0.023	-0.092
-286.574	-200.000	0.048	-0.278
-285.559	192.485	0.057	0.086
-284.545	-125.847	0.199	0.030
-283.530	-200.000	-0.006	0.294
-282.516	-49.358	0.153	0.073
-281.501	-115.344	-0.124	0.023
-280.486	262.052	-0.113	-0.195
-279.472	-49.614	0.105	0.050
-278.457	-200.000	0.029	0.182
-277.443	600.039	-0.058	0.144
-276.428	626.336	-0.055	0.138
-275.413	-170.764	0.043	0.001
-274.399	238.112	0.113	0.187
-273.384	-65.344	-0.090	-0.036
-272.370	-53.201	0.043	-0.019
-271.355	800.000	0.033	0.096
-270.340	-200.000	-0.004	0.088
-269.326	14.066	-0.085	0.066
-268.311	-63.308	0.220	0.090
-267.297	263.581	-0.117	-0.202
-266.282	-49.916	0.036	0.017
-265.267	93.443	0.164	0.185
-264.253	800.000	-0.066	0.247
-263.238	-152.805	-0.202	-0.014
-262.224	800.000	-0.060	-0.206
-261.209	-54.752	0.172	-0.077
-260.195	-104.208	0.173	0.040
-259.180	-42.723	-0.011	0.005
-258.165	40.545	-0.178	-0.160
-257.151	800.000	0.043	-0.179
-256.136	-62.174	-0.142	-0.059
-255.122	-19.209	-0.123	0.076
-254.107	6.470	-0.106	0.079
-253.092	-30.727	-0.258	-0.146
-252.078	588.543	-0.078	0.191
-251.063	-61.531	-0.303	-0.127
-250.049	-146.597	0.254	0.022
-249.034	-47.744	0.072	-0.035
-248.019	200.572	-0.077	0.118
-247.005	83.333	-0.135	-0.146
-245.990	-137.787	-0.206	0.023
-244.976	27.982	0.108	0.091
-243.961	-200.000	-0.009	0.149
-242.946	140.142	0.204	-0.268
-241.932	-76.948	-0.399	-0.139
-240.917	-19.514	0.087	-0.054
-239.903	110.592	-0.155	0.185
-238.888	-110.655	0.107	0.022
-237.873	123.211	0.153	-0.191
-236.859	498.721	-0.173	0.398
-235.844	-60.977	-0.185	-0.078
-234.830	341.347	-0.073	-0.143
-233.815	166.620	0.147	-0.207
-232.800	800.000	-0.038	0.157
-231.786	-11.771	0.333	0.217
-230.771	-40.568	0.203	-0.105
-229.757	570.436	0.092	-0.223
-228.742	21.935	0.137	0.111
-227.727	432.911	-0.094	0.202
-226.713	73.422	0.202	0.211
-225.698	800.000	-0.113	0.385
-224.684	34.319	0.209	0.181
-223.669	-61.579	-0.131	0.055
-222.655	203.616	0.164	0.252
-221.640	-124.127	-0.286	0.045
-220.625	399.602	-0.151	0.315
-219.611	29.514	0.467	0.395
-218.596	-200.000	0.022	0.210
-217.582	-150.794	0.338	0.026
-216.567	438.692	0.122	0.264
-215.552	639.898	-0.060	-0.152
-214.538	-19.250	-0.085	-0.053
-213.523	547.050	-0.137	-0.326
-212.509	-200.000	-0.045	-0.223
-211.494	800.000	-0.061	0.225
-210.479	203.789	0.009	0.014
-209.465	60.367	0.257	-0.252
-208.450	-102.438	-0.113	-0.027
-207.436	-160.812	0.071	0.004
-206.421	82.559	0.257	-0.278
-205.406	-200.000	-0.007	0.054
-204.392	175.552	-0.187	-0.270
-203.377	702.684	-0.096	0.251
-202.363	42.132	0.090	0.081
-201.348	-200.000	-0.008	-0.046
-200.333	-157.086	0.461	0.028
-199.319	112.200	-0.102	0.123
-198.304	519.105	0.025	-0.059
-197.290	-58.948	0.055	-0.024
-196.275	-123.533	-0.134	-0.021
-195.260	70.681	0.142	0.146
-194.246	-199.254	-0.223	0.001
-193.231	653.251	0.041	-0.105
-192.217	7.913	0.164	-0.122
-191.202	36.446	-0.039	-0.034
-190.187	-110.116	-0.332	-0.069
-189.173	-78.180	-0.119	0.041
-188.158	800.000	0.021	0.082
-187.144	-200.000	0.013	-0.075
-186.129	-107.742	-0.337	0.073
-185.114	300.587	0.073	0.134
-184.100	23.746	-0.200	0.163
-183.085	800.000	0.035	0.096
-182.071	75.004	0.132	0.138
-181.056	-49.292	0.193	-0.091
-180.042	1.985	0.374	-0.268
-179.027	-140.874	0.020	0.002
-178.012	145.163	0.087	-0.115
-176.998	800.000	0.039	-0.124
-175.983	-80.502	0.285	-0.094
-174.969	612.111	-0.083	-0.205
-173.954	-200.000	-0.024	-0.543
-172.939	344.112	-0.097	0.189
-171.925	-79.288	-0.242	-0.082
-170.910	368.747	-0.099	-0.198
-169.896	-200.000	-0.015	0.157
-168.881	-200.000	0.020	0.330
-167.866	90.309	0.239	-0.265
-166.852	795.865	0.086	-0.234
-165.837	257.865	-0.067	-0.115
-164.823	-136.738	0.384	-0.044
-163.808	800.000	-0.035	0.120
-162.793	-200.000	0.004	-0.027
-161.779	-176.631	-0.555	-0.014
-160.764	257.576	-0.096	-0.163
-159.750	800.000	-0.065	0.247
-158.735	-152.571	-0.257	-0.018
-157.720	-100.267	0.160	-0.039
-156.706	-70.543	0.036	-0.014
-155.691	-80.938	0.230	0.076
-154.677	22.915	0.092	0.075
-153.662	-200.000	0.176	0.000
-152.647	274.046	0.177	0.311
-151.633	177.562	0.041	0.059
-150.618	-200.000	-0.015	0.205
-149.604	-10.432	0.020	-0.013
-148.589	-200.000	0.046	0.220
-147.574	373.532	0.113	0.227
-146.560	800.000	-0.020	-0.079
-145.545	49.792	-0.134	0.125
-144.531	720.084	-0.045	-0.118
-143.516	-130.295	0.152	0.020
-142.502	-72.987	-0.197	-0.072
-141.487	800.000	-0.051	0.216
-140.472	800.000	-0.085	0.304
-139.458	-200.000	-0.021	-0.245
-138.443	171.261	-0.184	0.262
-137.429	-200.000	0.051	0.353
-136.414	-36.875	0.279	0.148
-135.399	-145.505	0.205	0.018
-134.385	-6.444	0.079	-0.053
-133.370	-168.980	-0.369	-0.014
-132.356	155.705	0.129	-0.176
-131.341	-159.092	-0.234	-0.013
-130.326	164.330	0.113	-0.158
-129.312	-45.730	0.435	-0.213
-128.297	-200.000	0.009	0.573
-127.283	66.906	-0.087	-0.088
-126.268	-165.155	0.220	-0.010
-125.253	231.016	0.099	-0.161
-124.239	-87.536	0.125	0.037
-123.224	-107.342	-0.233	0.051
-122.210	-200.000	0.041	-0.211
-121.195	369.405	0.085	0.170
-120.180	231.506	-0.143	0.232
-119.166	81.677	0.221	0.237
-118.151	-59.804	0.271	-0.115
-117.137	-103.986	-0.030	-0.007
-116.122	-40.337	-0.166	-0.086
-115.107	56.560	-0.112	-0.108
-114.093	-94.674	0.165	0.044
-113.078	-200.000	-0.004	-0.130
-112.064	-200.000	-0.019	-0.224
-111.049	-86.492	0.097	-0.030
-110.034	-86.320	-0.142	0.043
-109.020	-200.000	0.013	-0.125
-108.005	-200.000	-0.031	0.152
-106.991	-200.000	-0.039	0.381
-105.976	-37.948	0.045	0.024
-104.962	-12.372	0.132	-0.085
-103.947	-97.072	-0.249	-0.065
-102.932	124.397	-0.265	0.329
-101.918	800.000	-0.122	-0.337
-100.903	-200.000	-0.012	-0.077
-99.889	800.000	-0.047	-0.142
-98.874	619.185	0.107	0.266
-97.859	-126.499	0.248	-0.037
-96.845	127.016	-0.160	-0.201
-95.830	-103.693	-0.485	-0.113
-94.816	-200.000	0.058	0.495
-93.801	-15.368	0.303	-0.192
-92.786	800.000	0.043	-0.161
-91.772	-103.956	-0.257	-0.059
-90.757	-81.106	-0.206	-0.067
-89.743	567.801	0.104	0.250
-88.728	800.000	-0.113	0.457
-87.713	-200.000	-0.001	0.110
-86.699	35.973	0.349	0.303
-85.684	800.000	-0.079	0.218
-84.670	-184.426	-0.084	-0.001
-83.655	69.674	-0.315	0.321
-82.640	341.286	0.128	0.247
-81.626	-159.491	-0.194	0.011
-80.611	800.000	-0.021	-0.075
-79.597	-143.879	0.255	-0.024
-78.582	419.024	-0.158	0.335
-77.567	60.247	0.124	-0.121
-76.553	103.810	0.067	-0.078
-75.538	112.675	-0.264	-0.316
-74.524	17.084	-0.213	-0.167
-73.509	-200.000	0.034	-0.168
-72.494	174.799	0.078	-0.112
-71.480	556.930	0.011	0.025
-70.465	242.620	0.146	0.241
-69.451	38.437	0.173	-0.152
-68.436	83.733	0.209	0.225
-67.422	346.388	-0.027	-0.053
-66.407	800.000	0.021	0.091
-65.392	-138.561	-0.364	0.040
-64.378	83.208	-0.104	0.112
-63.363	749.383	0.189	0.505
-62.349	-132.829	0.141	0.018
-61.334	241.562	-0.766	-1.264
-60.319	361.606	0.419	0.831
-59.305	-200.000	-0.148	-0.713
-58.290	345.017	0.568	1.103
-57.276	619.097	0.680	1.687
-56.261	-200.000	106.474	583.323
-55.246	450.175	1464.461	3192.102
-54.232	145.578	2656.980	3515.934
-53.217	97.339	2325.407	2637.075
-52.203	36.288	2077.091	1808.418
-51.188	31.693	1993.311	1693.960
-50.173	30.226	1976.507	1666.445
-49.159	45.417	2031.826	1851.975
-48.144	46.093	2048.426	1873.198
-47.130	32.197	2007.770	1710.565
-46.115	29.960	1996.712	1680.797
-45.100	29.836	1994.311	1677.589
-44.086	29.927	1991.231	1675.751
-43.071	29.819	1989.318	1673.099
-42.057	29.790	1986.913	1670.746
-41.042	29.842	1984.971	1669.519
-40.027	29.822	1983.163	1667.754
-39.013	29.835	1981.385	1666.304
-37.998	29.798	1979.265	1664.129
-36.984	29.887	1977.266	1663.177
-35.969	29.758	1976.020	1660.907
-34.954	29.883	1974.147	1660.390
-33.940	29.965	1972.142	1659.374
-32.925	29.883	1970.630	1657.301
-31.911	29.960	1968.846	1656.422
-30.896	29.976	1967.232	1655.139
-29.881	29.988	1965.834	1654.009
-28.867	30.007	1964.210	1652.745
-27.852	30.032	1962.284	1651.283
-26.838	29.946	1960.465	1648.915
-25.823	29.944	1958.912	1647.528
-24.809	29.934	1957.085	1645.840
-23.794	29.921	1955.170	1644.048
-22.779	29.925	1953.672	1642.752
-21.765	29.871	1952.311	1641.069
-20.750	29.946	1950.159	1639.859
-19.736	29.948	1948.633	1638.528
-18.721	30.021	1946.740	1637.515
-17.706	29.961	1945.434	1635.825
-16.692	29.926	1943.764	1634.041
-15.677	29.964	1942.147	1632.956
-14.663	29.909	1941.028	1631.461
-13.648	29.921	1939.848	1630.517
-12.633	29.948	1938.094	1629.211
-11.619	30.006	1936.597	1628.398
-10.604	29.905	1935.648	1626.647
-9.590	29.870	1934.224	1625.082
-8.575	29.899	1932.681	1623.974
-7.560	29.963	1931.436	1623.423
-6.546	29.931	1930.153	1621.999
-5.531	29.946	1928.621	1620.784
-4.517	29.914	1927.815	1619.764
-3.502	29.947	1927.016	1619.316
-2.487	29.997	1924.790	1617.815
-1.473	29.931	1924.171	1616.654
-0.458	30.065	1918.918	1613.341
0.556	27.995	1899.321	1585.379
1.571	23.769	1880.674	1533.285
2.586	19.792	1902.893	1516.461
3.600	18.829	1939.274	1536.709
4.615	18.700	1933.926	1531.190
5.629	14.672	1833.330	1417.281
6.644	5.803	1712.731	1253.318
7.659	0.652	1674.897	1185.191
8.673	0.256	1671.206	1179.372
9.688	0.180	1670.076	1177.876
10.702	0.117	1669.032	1176.542
11.717	-0.002	1665.280	1172.867
12.731	0.674	1664.438	1177.437
13.746	7.128	1678.863	1238.144
14.761	15.339	1694.739	1314.328
15.775	17.698	1697.618	1334.941
16.790	17.020	1695.224	1327.639
17.804	15.883	1691.624	1315.814
18.819	14.924	1688.438	1305.738
19.834	14.330	1686.057	1299.150
20.848	14.094	1684.207	1295.772
21.863	13.838	1682.577	1292.410
22.877	13.636	1681.024	1289.532
23.892	13.367	1679.716	1286.319
24.907	13.189	1679.163	1284.404
25.921	13.217	1677.741	1283.420
26.936	13.238	1676.423	1282.460
27.950	13.225	1675.892	1281.839
28.965	13.290	1675.613	1282.014
29.980	13.280	1674.737	1281.151
30.994	13.321	1673.834	1280.668
32.009	13.469	1672.522	1280.692
33.023	13.455	1671.733	1279.871
34.038	13.488	1670.840	1279.329
35.053	13.507	1669.854	1278.602
36.067	13.379	1668.752	1276.665
37.082	13.411	1667.977	1276.205
38.096	13.426	1666.383	1274.985
39.111	13.432	1665.626	1274.342
40.126	13.504	1664.764	1274.124
41.140	13.435	1664.166	1273.018
42.155	13.300	1662.455	1270.560
43.169	13.315	1661.238	1269.632
44.184	13.236	1660.279	1268.186
45.199	13.293	1658.549	1267.188
46.213	13.239	1657.768	1266.065
47.228	13.214	1656.828	1265.043
48.242	13.198	1655.722	1263.959
49.257	13.197	1654.962	1263.261
50.271	13.352	1653.171	1262.965
51.286	13.325	1652.200	1261.910
52.301	13.364	1650.630	1260.893
53.315	13.368	1649.103	1259.644
54.330	13.292	1647.459	1257.700
55.344	13.256	1646.337	1256.462
56.359	13.206	1644.887	1254.866
57.374	13.303	1643.456	1254.396
58.388	13.203	1642.914	1253.116
59.403	13.258	1640.944	1251.920
60.417	13.228	1639.506	1250.482
61.432	13.105	1638.873	1248.958
62.447	13.233	1637.306	1248.622
63.461	13.193	1636.034	1247.240
64.476	13.170	1634.817	1246.024
65.490	13.124	1633.746	1244.752
66.505	13.110	1632.559	1243.631
67.520	13.170	1631.562	1243.219
68.534	13.151	1630.416	1242.092
69.549	13.101	1629.373	1240.809
70.563	13.141	1628.298	1240.182
71.578	13.204	1627.221	1239.721
72.593	13.070	1626.004	1237.681
73.607	13.050	1625.096	1236.730
74.622	13.148	1623.568	1236.190
75.636	13.091	1622.556	1234.884
76.651	13.024	1622.052	1233.895
77.666	13.176	1620.667	1233.864
78.680	13.125	1619.903	1232.791
79.695	13.101	1619.344	1232.079
80.709	13.171	1617.872	1231.370
81.724	13.282	1616.729	1231.218
82.739	13.234	1615.967	1230.177
83.753	13.200	1615.397	1229.381
84.768	13.278	1614.412	1229.102
85.782	13.252	1613.438	1228.054
86.797	13.334	1613.193	1228.369
87.812	13.319	1612.100	1227.315
88.826	13.287	1610.577	1225.814
89.841	13.263	1609.534	1224.733
90.855	13.295	1608.046	1223.731
91.870	13.304	1607.207	1223.047
92.884	13.336	1606.203	1222.412
93.899	13.376	1605.539	1222.093
94.914	13.370	1603.805	1220.622
95.928	13.374	1602.763	1219.751
96.943	13.440	1601.437	1219.120
97.957	13.390	1599.756	1217.363
98.972	13.349	1598.140	1215.726
99.987	13.347	1596.835	1214.609
101.001	13.330	1595.525	1213.382
102.016	13.397	1593.717	1212.389
103.030	13.397	1592.266	1211.182
104.045	13.376	1591.198	1210.104
105.060	13.432	1589.547	1209.152
106.074	13.433	1587.982	1207.864
107.089	13.302	1586.306	1205.524
108.103	13.157	1585.302	1203.603
109.118	13.223	1583.574	1202.664
110.133	13.185	1582.673	1201.595
111.147	13.222	1580.569	1200.160
112.162	13.179	1579.744	1199.117
113.176	13.228	1577.997	1198.038
114.191	13.201	1577.405	1197.289
115.206	13.303	1575.963	1196.827
116.220	13.276	1574.806	1195.645
117.235	13.233	1573.469	1194.214
118.249	13.268	1571.776	1193.078
119.264	13.329	1570.116	1192.151
120.279	13.311	1568.365	1190.587
121.293	13.191	1567.734	1189.139
122.308	13.221	1566.581	1188.371
123.322	13.227	1564.734	1186.908
124.337	13.126	1563.367	1185.047
125.352	13.142	1562.382	1184.309
126.366	13.195	1560.710	1183.312
127.381	13.168	1559.721	1182.264
128.395	13.148	1558.939	1181.426
129.410	13.203	1557.387	1180.536
130.424	13.175	1555.912	1179.113
131.439	13.249	1554.710	1178.631
132.454	13.312	1553.657	1178.175
133.468	13.232	1552.089	1176.310
134.483	13.331	1550.240	1175.508
135.497	13.302	1549.632	1174.743
136.512	13.307	1547.817	1173.294
137.527	13.206	1546.589	1171.548
138.541	13.354	1544.801	1171.135
139.556	13.393	1543.609	1170.403
140.570	13.336	1542.150	1168.793
141.585	13.421	1540.990	1168.408
142.600	13.429	1539.602	1167.312
143.614	13.442	1538.634	1166.560
144.629	13.513	1537.434	1166.052
145.643	13.508	1536.374	1165.106
146.658	13.524	1535.077	1164.132
147.673	13.614	1532.577	1162.769
148.687	13.390	1532.080	1160.713
149.702	13.479	1530.222	1159.828
150.716	13.480	1528.500	1158.425
151.731	13.479	1527.057	1157.227
152.746	13.392	1526.302	1155.943
153.760	13.437	1524.338	1154.666
154.775	13.452	1523.245	1153.838
155.789	13.471	1522.094	1153.002
156.804	13.554	1520.566	1152.320
157.819	13.637	1519.422	1151.929
158.833	13.540	1518.209	1150.229
159.848	13.629	1517.050	1149.870
160.862	13.667	1515.739	1149.039
161.877	13.577	1514.677	1147.507
162.892	13.659	1513.282	1146.917
163.906	13.643	1511.677	1145.489
164.921	13.515	1510.615	1143.700
165.935	13.525	1509.541	1142.853
166.950	13.471	1508.944	1141.923
167.964	13.578	1507.516	1141.478
168.979	13.730	1506.327	1141.524
169.994	13.560	1505.750	1139.819
171.008	13.584	1504.578	1138.996
172.023	13.548	1503.729	1138.008
173.037	13.688	1501.840	1137.433
174.052	13.697	1500.859	1136.654
175.067	13.679	1500.135	1135.878
176.081	13.655	1499.124	1134.848
177.096	13.649	1497.446	1133.441
178.110	13.644	1496.381	1132.501
179.125	13.703	1494.926	1131.700
180.140	13.634	1494.261	1130.625
181.154	13.656	1493.279	1129.935
182.169	13.642	1491.971	1128.746
183.183	13.772	1490.729	1128.589
184.198	13.775	1489.658	1127.700
185.213	13.833	1488.639	1127.224
186.227	13.937	1487.083	1126.652
187.242	13.940	1486.258	1125.949
188.256	13.950	1485.470	1125.316
189.271	13.886	1484.848	1124.315
190.286	13.947	1483.574	1123.661
191.300	13.926	1482.623	1122.705
192.315	13.778	1481.125	1120.465
193.329	13.710	1479.461	1118.649
194.344	13.641	1478.703	1117.515
195.359	13.714	1477.642	1117.106
196.373	13.673	1476.876	1116.153
197.388	13.856	1475.900	1116.544
198.402	13.993	1474.048	1115.967
199.417	13.972	1473.295	1115.154
200.432	14.033	1472.236	1114.663
201.446	14.009	1471.502	1113.849
202.461	14.145	1469.682	1113.283
203.475	14.135	1469.065	1112.650
204.490	14.096	1467.645	1111.219
205.504	14.161	1467.145	1111.177
206.519	14.046	1465.788	1109.284
207.534	14.163	1464.404	1108.916
208.548	14.051	1463.912	1107.697
209.563	14.128	1462.553	1107.082
210.577	14.131	1461.467	1106.184
211.592	14.045	1460.755	1104.974
212.607	14.144	1459.943	1104.919
213.621	14.115	1459.610	1104.382
214.636	14.227	1458.285	1104.025
215.650	14.331	1456.768	1103.464
216.665	14.176	1456.706	1102.296
217.680	14.231	1455.494	1101.644
218.694	14.302	1454.782	1101.476
219.709	14.370	1453.747	1101.048
220.723	14.269	1453.081	1099.775
221.738	14.316	1452.140	1099.277
222.753	14.330	1451.171	1098.538
223.767	14.353	1450.084	1097.768
224.782	14.305	1449.480	1096.898
225.796	14.348	1448.071	1096.019
226.811	14.420	1447.346	1095.845
227.826	14.530	1446.595	1095.902
228.840	14.402	1446.095	1094.585
229.855	14.394	1444.997	1093.608
230.869	14.334	1444.074	1092.417
231.884	14.392	1443.267	1092.090
232.899	14.332	1441.867	1090.539
233.913	14.398	1440.647	1089.953
234.928	14.303	1439.554	1088.409
235.942	14.263	1438.593	1087.324
236.957	14.415	1437.328	1087.262
237.972	14.397	1435.901	1085.971
238.986	14.397	1434.265	1084.641
240.001	14.347	1434.015	1084.028
241.015	14.397	1432.893	1083.411
242.030	14.424	1431.865	1082.711
243.045	14.426	1431.066	1082.025
244.059	14.498	1429.956	1081.558
245.074	14.464	1429.146	1080.628
246.088	14.531	1428.422	1080.419
247.103	14.585	1427.531	1080.001
248.117	14.493	1427.010	1078.913
249.132	14.633	1425.961	1078.932
250.147	14.752	1425.500	1079.258
251.161	14.771	1424.729	1078.698
252.176	14.745	1423.884	1077.792
253.190	14.881	1423.501	1078.288
254.205	14.864	1422.177	1077.081
255.220	14.980	1421.043	1076.870
256.234	14.944	1420.502	1076.134
257.249	14.919	1419.936	1075.453
258.263	14.936	1418.978	1074.739
259.278	14.941	1418.000	1073.938
260.293	15.027	1416.835	1073.508
261.307	15.021	1416.223	1072.910
262.322	15.025	1415.717	1072.462
263.336	14.987	1414.859	1071.475
264.351	15.108	1413.745	1071.306
265.366	15.056	1412.756	1070.132
266.380	15.083	1411.872	1069.537
267.395	15.055	1410.859	1068.501
268.409	15.130	1410.169	1068.360
269.424	15.101	1408.852	1067.084
270.439	15.054	1407.883	1065.956
271.453	15.111	1407.073	1065.612
272.468	15.181	1406.101	1065.227
273.482	15.141	1405.285	1064.255
274.497	15.073	1404.449	1063.098
275.512	15.129	1403.523	1062.661
276.526	15.184	1402.391	1062.055
277.541	15.149	1401.920	1061.386
278.555	15.257	1400.359	1060.792
279.570	15.225	1399.978	1060.205
280.585	15.216	1398.902	1059.244
281.599	15.209	1398.385	1058.714
282.614	15.289	1397.045	1058.107
283.628	15.228	1396.173	1056.971
284.643	15.230	1395.063	1056.047
285.657	15.236	1394.036	1055.215
286.672	15.377	1393.353	1055.495
287.687	15.285	1392.222	1053.963
288.701	15.217	1391.015	1052.533
289.716	15.298	1390.218	1052.344
290.730	15.315	1389.957	1052.155
291.745	15.377	1388.392	1051.266
292.760	15.347	1387.589	1050.377
293.774	15.359	1386.822	1049.785
294.789	15.429	1385.187	1048.886
295.803	15.466	1384.778	1048.718
296.818	15.496	1383.874	1048.128
297.833	15.497	1382.522	1047.017
298.847	15.481	1381.697	1046.198
299.862	15.417	1381.054	1045.219
300.876	15.526	1379.851	1044.899
301.891	15.473	1379.028	1043.853
302.906	15.521	1378.519	1043.670
303.920	15.557	1378.061	1043.459
304.935	15.583	1376.925	1042.669
305.949	15.639	1375.674	1041.971
306.964	15.654	1375.160	1041.588
307.979	15.784	1373.759	1041.236
308.993	15.693	1373.042	1040.038
310.008	15.672	1372.310	1039.265
311.022	15.649	1371.405	1038.345
312.037	15.709	1370.162	1037.678
313.052	15.748	1369.268	1037.151
314.066	15.771	1368.319	1036.480
315.081	15.670	1367.346	1035.030
316.095	15.713	1366.246	1034.375
317.110	15.729	1365.300	1033.662
318.125	15.728	1364.209	1032.740
319.139	15.724	1363.440	1032.042
320.154	15.631	1362.676	1030.802
321.168	15.674	1361.660	1030.203
322.183	15.729	1360.489	1029.562
323.197	15.756	1359.923	1029.213
324.212	15.857	1358.290	1028.500
325.227	15.909	1357.830	1028.379
326.241	15.799	1356.951	1026.949
327.256	15.848	1356.223	1026.605
328.270	15.840	1355.270	1025.743
329.285	15.828	1354.578	1025.058
330.300	15.809	1353.620	1024.130
331.314	15.877	1352.633	1023.703
332.329	15.907	1351.613	1023.025
333.343	15.844	1350.951	1022.050
334.358	15.818	1350.117	1021.173
335.373	15.900	1349.296	1020.959
336.387	15.942	1348.283	1020.351
337.402	15.918	1347.741	1019.707
338.416	15.926	1347.424	1019.424
339.431	15.988	1346.660	1019.134
340.446	16.027	1345.674	1018.532
341.460	16.088	1344.763	1018.121
342.475	16.135	1343.708	1017.517
343.489	16.193	1342.694	1017.007
344.504	16.222	1341.719	1016.353
345.519	16.203	1340.895	1015.526
346.533	16.264	1339.869	1015.023
347.548	16.190	1339.422	1014.151
348.562	16.309	1338.289	1013.919
349.577	16.340	1338.015	1013.810
350.592	16.313	1336.813	1012.646
351.606	16.351	1335.826	1012.037
352.621	16.175	1334.885	1010.179
353.635	16.182	1333.961	1009.430
354.650	16.175	1332.924	1008.518
355.665	16.229	1331.805	1007.905
356.679	16.257	1330.771	1007.201
357.694	16.254	1329.839	1006.386
358.708	16.249	1328.884	1005.547
359.723	16.340	1327.512	1004.956
360.738	16.422	1326.522	1004.609
361.752	16.365	1325.586	1003.475
362.767	16.367	1324.670	1002.701
363.781	16.345	1323.742	1001.779
364.796	16.372	1323.077	1001.351
365.810	16.382	1322.328	1000.751
366.825	16.498	1321.455	1000.689
367.840	16.510	1320.948	1000.287
368.854	16.479	1320.371	999.579
369.869	16.580	1320.018	999.821
370.883	16.632	1319.214	999.431
371.898	16.633	1318.496	998.806
372.913	16.622	1317.375	997.799
373.927	16.596	1316.102	996.596
374.942	16.555	1315.472	995.790
375.956	16.590	1314.865	995.451
376.971	16.628	1314.172	995.059
377.986	16.673	1313.326	994.594
379.000	16.654	1312.563	993.818
380.015	16.676	1311.899	993.352
381.029	16.779	1311.054	993.234
382.044	16.832	1310.511	993.041
383.059	16.758	1309.776	991.964
384.073	16.769	1309.069	991.407
385.088	16.780	1308.487	990.943
386.102	16.813	1307.606	990.381
387.117	16.841	1307.222	990.166
388.132	16.868	1306.279	989.518
389.146	16.748	1305.269	987.970
390.161	16.830	1304.162	987.521
391.175	16.871	1303.405	987.100
392.190	16.862	1303.263	986.851
393.205	16.836	1302.104	985.737
394.219	16.923	1300.868	985.218
395.234	16.903	1299.452	983.943
396.248	17.022	1298.047	983.481
397.263	16.895	1297.235	982.043
398.278	16.860	1296.223	980.990
399.292	16.938	1294.718	980.212
400.307	16.940	1293.600	979.293
401.321	16.878	1292.748	978.199
402.336	16.906	1291.860	977.606
403.350	16.864	1290.828	976.495
404.365	16.951	1289.946	976.241
405.380	16.919	1289.206	975.413
406.394	17.023	1287.930	974.957
407.409	16.999	1287.575	974.466
408.423	17.005	1287.159	974.096
409.438	17.125	1286.048	973.859
410.453	17.133	1285.406	973.332
411.467	17.194	1284.975	973.268
412.482	17.162	1284.284	972.475
413.496	17.199	1283.562	972.055
414.511	17.252	1282.738	971.648
415.526	17.288	1281.438	970.784
416.540	17.281	1281.089	970.396
417.555	17.350	1280.460	970.225
418.569	17.328	1280.399	969.965
419.584	17.280	1279.873	969.212
420.599	17.363	1278.595	968.630
421.613	94.756	1352.988	1468.007
422.628	92.644	1363.795	1468.125
