DTS Sentinel unit serial number:	SN413079Multiplexer serial number:	ORYXHardware model number:	OX4-SRSoftware version number:	ORYX F/W v4.00 Oryx Data Collector v3.7.2.0data status	okinstallation	princeton_trtdifferential loss correction	single-endedforward channel	channel 4reverse channel	N/Adate	2019/09/19time	12:09:35forward acquisition time	60.00reverse acquisition time	0.00gamma	496.2192k internal	0.2324k external	0.2324temperature offset calibration	1.0016default loss term (dB/km)	0.3790temperature slope calibration	1.0000multiplexer offset coefficient	1.0000multiplexer slope coefficient	1.0000fibre end	0.00T internal ref (°C)	26.27T ext. ref 1 (°C)	0.84T ext. ref 2 (°C)	22.81length (m)	temperature (°C)	Stokes	anti-Stokes-747.200	-149.826	-0.271	0.021
-746.185	-86.915	-0.094	-0.029
-745.171	-137.424	0.172	0.020
-744.156	-94.713	-0.438	0.120
-743.142	433.339	0.142	0.312
-742.127	800.000	0.090	0.268
-741.112	371.313	-0.062	-0.127
-740.098	627.886	-0.067	0.171
-739.083	15.352	0.101	-0.080
-738.069	390.275	-0.040	-0.083
-737.054	800.000	-0.058	0.241
-736.039	-200.000	-0.008	0.323
-735.025	-116.194	0.100	0.019
-734.010	-73.777	-0.277	0.102
-732.996	-161.320	-0.532	-0.028
-731.981	-26.936	0.232	0.137
-730.966	-195.052	0.163	0.001
-729.952	800.000	0.043	0.168
-728.937	397.200	0.096	-0.203
-727.923	800.000	0.010	0.042
-726.908	800.000	-0.055	0.197
-725.894	498.844	0.084	-0.196
-724.879	-75.305	-0.280	-0.101
-723.864	600.500	0.100	0.250
-722.850	-20.489	-0.020	0.013
-721.835	-46.614	-0.403	-0.199
-720.821	-74.589	0.370	-0.134
-719.806	-43.618	0.181	0.092
-718.791	800.000	-0.047	-0.163
-717.777	-119.115	-0.432	-0.076
-716.762	-118.064	0.042	-0.008
-715.748	25.449	0.146	-0.122
-714.733	-29.058	-0.143	-0.083
-713.718	224.780	0.137	-0.224
-712.704	-72.763	0.233	0.087
-711.689	-125.582	0.319	-0.049
-710.675	151.174	-0.069	-0.095
-709.660	-111.607	0.031	-0.006
-708.645	-200.000	0.052	0.372
-707.631	618.445	-0.080	0.202
-706.616	365.758	-0.066	-0.135
-705.602	223.791	0.016	-0.026
-704.587	-200.000	0.016	0.265
-703.572	55.358	-0.107	0.104
-702.558	-68.290	0.178	-0.070
-701.543	112.224	-0.164	0.200
-700.529	-200.000	0.023	-0.374
-699.514	227.964	-0.128	0.210
-698.499	100.482	-0.243	0.285
-697.485	136.393	0.216	-0.283
-696.470	-113.874	0.325	0.064
-695.456	516.035	-0.085	0.200
-694.441	-200.000	0.012	0.204
-693.426	544.223	-0.033	0.080
-692.412	-200.000	-0.001	0.179
-691.397	-200.000	0.005	-0.260
-690.383	103.559	-0.122	-0.144
-689.368	153.976	0.114	-0.157
-688.354	800.000	-0.037	0.103
-687.339	-200.000	0.021	0.165
-686.324	-48.046	-0.049	-0.024
-685.310	-200.000	-0.008	-0.061
-684.295	309.551	-0.137	-0.258
-683.281	-90.347	0.090	-0.026
-682.266	408.343	-0.144	-0.306
-681.251	-8.779	-0.210	-0.142
-680.237	308.512	-0.099	-0.186
-679.222	154.538	-0.167	-0.231
-678.208	-104.351	-0.494	0.115
-677.193	800.000	-0.045	0.160
-676.178	-47.339	-0.287	0.141
-675.164	-129.195	0.024	-0.003
-674.149	-200.000	-0.007	-0.213
-673.135	-200.000	0.007	0.103
-672.120	-102.630	0.372	-0.089
-671.105	607.790	-0.039	0.098
-670.091	-83.497	-0.351	-0.113
-669.076	294.129	0.187	-0.344
-668.062	-40.115	0.158	-0.083
-667.047	267.496	0.125	0.219
-666.032	-61.241	-0.150	0.064
-665.018	7.541	-0.372	0.280
-664.003	313.504	0.110	0.208
-662.989	800.000	0.037	-0.114
-661.974	-200.000	-0.006	-0.049
-660.959	-111.240	-0.448	0.092
-659.945	122.242	-0.135	-0.170
-658.930	244.668	0.266	-0.450
-657.916	140.591	-0.292	0.388
-656.901	-115.289	0.277	-0.053
-655.886	97.030	-0.206	0.238
-654.872	-137.964	0.197	0.022
-653.857	-96.044	0.161	-0.043
-652.843	800.000	0.097	-0.307
-651.828	47.625	-0.257	-0.241
-650.814	-200.000	-0.003	-0.324
-649.799	-200.000	-0.011	0.370
-648.784	-55.665	-0.054	0.025
-647.770	29.334	-0.330	-0.282
-646.755	-131.068	0.338	0.045
-645.741	125.161	0.081	-0.103
-644.726	-34.189	0.201	0.111
-643.711	800.000	-0.090	0.311
-642.697	-143.974	0.029	0.003
-641.682	-120.808	-0.235	-0.040
-640.668	-69.916	0.269	0.103
-639.653	-53.462	0.117	-0.054
-638.638	-200.000	-0.004	-0.353
-637.624	113.620	-0.197	-0.241
-636.609	-84.921	-0.339	0.107
-635.595	30.419	-0.159	-0.136
-634.580	-127.571	0.217	-0.032
-633.565	800.000	-0.071	-0.235
-632.551	-44.616	0.275	-0.138
-631.536	211.300	-0.093	-0.147
-630.522	-101.679	-0.383	-0.093
-629.507	12.970	-0.191	-0.148
-628.492	-200.000	-0.020	-0.114
-627.478	-122.048	0.308	-0.051
-626.463	151.085	0.176	-0.240
-625.449	-200.000	-0.095	-0.525
-624.434	386.255	-0.038	-0.079
-623.419	402.893	0.128	0.270
-622.405	230.260	-0.106	-0.174
-621.390	800.000	0.033	0.126
-620.376	-200.000	0.014	0.198
-619.361	-96.401	-0.216	0.057
-618.346	-141.981	-0.288	-0.029
-617.332	-162.056	0.189	-0.010
-616.317	81.862	0.170	0.185
-615.303	-36.872	-0.276	-0.149
-614.288	-21.208	0.068	-0.041
-613.273	16.386	0.556	-0.441
-612.259	-128.184	0.183	0.026
-611.244	39.102	0.181	-0.163
-610.230	-148.110	0.350	0.029
-609.215	-138.406	-0.253	-0.028
-608.201	-77.803	-0.163	-0.057
-607.186	-200.000	0.002	0.182
-606.171	-123.533	0.163	0.026
-605.157	-200.000	0.005	-0.177
-604.142	800.000	-0.040	-0.143
-603.128	22.033	-0.276	-0.226
-602.113	-200.000	0.016	-0.244
-601.098	-21.142	-0.240	-0.147
-600.084	81.446	0.183	-0.199
-599.069	19.145	-0.062	0.050
-598.055	800.000	0.041	0.127
-597.040	-124.868	0.361	-0.056
-596.025	18.249	0.127	-0.101
-595.011	-56.985	0.116	0.051
-593.996	-64.458	0.164	0.067
-592.982	-67.547	-0.451	-0.177
-591.967	-200.000	0.047	-0.319
-590.952	76.832	-0.070	0.075
-589.938	317.005	0.229	-0.435
-588.923	65.010	-0.029	0.030
-587.909	-129.469	-0.279	0.039
-586.894	-190.123	0.140	-0.002
-585.879	-102.449	-0.189	0.045
-584.865	-134.763	-0.171	-0.021
-583.850	142.134	0.149	0.198
-582.836	340.535	-0.138	0.270
-581.821	-172.950	-0.159	0.005
-580.806	53.409	0.142	0.136
-579.792	800.000	0.069	-0.300
-578.777	231.180	0.017	-0.028
-577.763	604.169	-0.010	-0.025
-576.748	-98.587	0.053	0.014
-575.733	646.383	0.050	-0.128
-574.719	-172.267	0.349	-0.011
-573.704	50.904	-0.095	0.090
-572.690	800.000	-0.066	-0.224
-571.675	-36.083	0.331	0.179
-570.661	-115.185	0.189	-0.036
-569.646	-136.101	0.037	-0.004
-568.631	34.361	-0.090	0.079
-567.617	391.336	0.144	0.300
-566.602	17.165	-0.041	0.033
-565.588	-21.584	-0.205	-0.125
-564.573	323.805	-0.127	-0.244
-563.558	61.723	-0.143	0.143
-562.544	83.645	-0.108	0.118
-561.529	-117.765	-0.215	0.039
-560.515	787.073	-0.039	0.106
-559.500	0.944	0.105	-0.076
-558.485	71.443	0.200	0.208
-557.471	800.000	-0.119	-0.495
-556.456	273.287	0.113	0.200
-555.442	800.000	0.034	-0.099
-554.427	-62.015	-0.331	-0.139
-553.412	-160.151	-0.241	0.013
-552.398	-78.976	-0.313	0.107
-551.383	800.000	0.062	-0.259
-550.369	-200.000	0.004	0.188
-549.354	-77.909	0.231	0.080
-548.339	-105.528	0.028	-0.006
-547.325	-200.000	0.000	-0.002
-546.310	-70.075	0.175	0.067
-545.296	-200.000	-0.020	0.155
-544.281	-200.000	0.025	0.136
-543.266	44.928	0.142	-0.131
-542.252	-200.000	-0.060	0.287
-541.237	-72.157	0.228	0.085
-540.223	800.000	0.054	0.167
-539.208	-20.030	0.259	0.160
-538.193	-84.946	-0.256	0.080
-537.179	-200.000	-0.047	0.000
-536.164	-200.000	-0.000	0.108
-535.150	-133.155	-0.055	0.007
-534.135	75.396	0.185	0.195
-533.121	-144.976	0.212	-0.019
-532.106	-200.000	-0.068	-0.317
-531.091	229.183	-0.084	0.138
-530.077	573.212	0.182	0.444
-529.062	-200.000	-0.037	-0.248
-528.048	-116.724	0.168	0.031
-527.033	17.756	0.151	0.120
-526.018	-200.000	0.007	0.049
-525.004	800.000	0.050	0.167
-523.989	-47.709	0.278	-0.135
-522.975	800.000	-0.097	-0.294
-521.960	166.994	-0.119	-0.169
-520.945	608.947	0.155	0.386
-519.931	126.162	-0.187	0.236
-518.916	385.716	-0.027	0.055
-517.902	32.521	0.407	-0.352
-516.887	148.637	0.104	0.140
-515.872	800.000	-0.008	0.032
-514.858	-60.353	-0.123	0.053
-513.843	286.210	0.101	-0.182
-512.829	3.245	0.175	0.127
-511.814	-140.834	-0.145	0.015
-510.799	-82.733	0.095	0.031
-509.785	93.876	-0.097	-0.110
-508.770	-98.968	-0.132	-0.033
-507.756	623.617	0.091	-0.230
-506.741	44.578	-0.123	0.113
-505.726	-3.047	0.122	0.085
-504.712	-88.725	-0.107	0.032
-503.697	125.239	0.247	0.311
-502.683	-103.041	-0.545	-0.129
-501.668	-44.166	-0.136	0.068
-500.653	-3.291	0.139	-0.097
-499.639	558.655	0.158	-0.381
-498.624	-127.414	-0.128	0.019
-497.610	-114.262	-0.326	-0.063
-496.595	-52.208	0.163	0.075
-495.581	164.639	-0.129	-0.181
-494.566	-105.646	-0.219	-0.050
-493.551	-29.366	0.158	0.091
-492.537	606.171	0.037	-0.092
-491.522	-46.961	0.077	0.038
-490.508	4.764	0.157	-0.115
-489.493	13.356	0.306	0.237
-488.478	359.675	-0.062	0.124
-487.464	-35.109	-0.180	0.098
-486.449	75.321	-0.181	0.191
-485.435	-23.390	-0.214	0.129
-484.420	45.382	0.313	-0.289
-483.405	276.556	0.070	0.125
-482.391	-200.000	0.020	0.115
-481.376	565.068	0.100	0.243
-480.362	756.556	-0.144	0.389
-479.347	-200.000	0.026	0.285
-478.332	-200.000	-0.027	-0.223
-477.318	-200.000	-0.042	-0.310
-476.303	-200.000	-0.043	-0.262
-475.289	-112.737	0.210	0.042
-474.274	-163.384	0.195	-0.009
-473.259	-77.062	0.339	0.118
-472.245	86.175	0.108	0.119
-471.230	-173.633	-0.137	-0.004
-470.216	179.759	-0.191	0.279
-469.201	263.838	0.102	-0.177
-468.186	699.876	-0.043	0.113
-467.172	-200.000	0.038	-0.393
-466.157	320.743	-0.088	-0.167
-465.143	-110.762	0.280	-0.058
-464.128	211.129	-0.171	0.268
-463.113	85.092	-0.070	-0.077
-462.099	97.671	0.046	-0.053
-461.084	-75.556	0.254	0.090
-460.070	366.225	-0.080	-0.162
-459.055	-27.923	0.215	-0.124
-458.040	-200.000	-0.053	-0.276
-457.026	158.785	0.027	-0.037
-456.011	264.193	-0.099	0.172
-454.997	-200.000	-0.002	0.116
-453.982	-65.044	0.188	0.076
-452.968	11.433	0.089	0.068
-451.953	137.304	0.219	0.285
-450.938	246.981	-0.109	-0.184
-449.924	-25.412	0.145	-0.086
-448.909	-137.202	0.038	0.004
-447.895	-80.558	0.293	-0.098
-446.880	800.000	-0.104	-0.298
-445.865	-15.870	-0.156	0.099
-444.851	85.280	-0.253	-0.277
-443.836	34.501	0.090	-0.078
-442.822	35.623	0.158	0.138
-441.807	148.542	0.196	-0.264
-440.792	84.645	0.181	-0.198
-439.778	-200.000	-0.013	0.213
-438.763	1.779	-0.162	-0.116
-437.749	800.000	0.036	0.136
-436.734	-200.000	0.011	-0.433
-435.719	226.811	-0.168	-0.271
-434.705	727.790	-0.084	-0.224
-433.690	278.242	-0.113	-0.202
-432.676	-102.703	0.348	0.083
-431.661	26.984	0.185	0.155
-430.646	-152.353	0.160	0.011
-429.632	-184.499	-0.061	-0.001
-428.617	-200.000	-0.027	0.117
-427.603	177.728	-0.220	0.319
-426.588	-200.000	0.037	-0.169
-425.573	800.000	0.062	-0.268
-424.559	-200.000	-0.038	0.300
-423.544	91.649	0.119	-0.134
-422.530	-61.816	0.014	-0.006
-421.515	-200.000	-0.037	0.194
-420.500	106.272	0.044	-0.052
-419.486	201.501	-0.003	-0.004
-418.471	-54.779	0.071	-0.032
-417.457	800.000	0.036	-0.119
-416.442	-107.316	0.065	-0.014
-415.428	293.914	-0.137	0.249
-414.413	720.285	-0.078	0.206
-413.398	-96.990	0.318	0.083
-412.384	-200.000	0.016	0.109
-411.369	183.396	0.078	0.115
-410.355	-88.877	0.468	-0.138
-409.340	572.496	0.100	-0.242
-408.325	-200.000	0.034	-0.152
-407.311	-154.975	-0.257	-0.017
-406.296	-200.000	0.030	-0.382
-405.282	349.675	0.091	0.178
-404.267	-142.577	-0.230	-0.022
-403.252	-0.662	-0.083	-0.058
-402.238	800.000	0.071	-0.238
-401.223	-76.566	-0.211	-0.074
-400.209	-80.614	0.270	0.090
-399.194	-92.305	-0.220	0.062
-398.179	-185.221	-0.292	0.005
-397.165	-200.000	-0.048	-0.253
-396.150	226.587	-0.073	-0.118
-395.136	800.000	-0.051	-0.194
-394.121	18.338	-0.294	0.234
-393.106	-25.613	0.150	-0.088
-392.092	-126.409	-0.032	0.005
-391.077	-36.905	-0.182	0.097
-390.063	272.391	0.044	0.077
-389.048	67.427	0.127	0.129
-388.033	-104.364	0.204	-0.047
-387.019	-121.872	-0.078	-0.013
-386.004	-101.632	-0.242	-0.058
-384.990	-200.000	0.054	-0.344
-383.975	-200.000	-0.018	-0.223
-382.960	-9.957	-0.242	0.160
-381.946	-50.967	-0.195	0.091
-380.931	288.197	0.044	-0.080
-379.917	-80.282	-0.098	-0.033
-378.902	89.134	-0.215	0.238
-377.888	-172.024	-0.255	0.008
-376.873	63.805	-0.331	-0.331
-375.858	106.727	-0.212	0.251
-374.844	800.000	0.011	0.045
-373.829	-5.892	-0.094	-0.064
-372.815	800.000	-0.071	0.292
-371.800	-200.000	0.019	0.235
-370.785	148.649	-0.058	-0.078
-369.771	-149.683	-0.183	-0.014
-368.756	63.327	-0.114	0.113
-367.742	140.820	0.183	0.240
-366.727	25.115	-0.028	-0.023
-365.712	-157.482	-0.222	0.013
-364.698	0.132	0.112	0.079
-363.683	409.295	0.104	-0.219
-362.669	-107.257	0.204	-0.045
-361.654	222.902	0.097	-0.155
-360.639	567.726	0.155	-0.375
-359.625	-92.212	0.216	0.061
-358.610	107.766	0.179	0.211
-357.596	393.689	-0.131	-0.272
-356.581	-67.328	0.113	-0.044
-355.566	229.171	-0.118	0.192
-354.552	-102.172	0.373	0.089
-353.537	60.121	-0.208	0.205
-352.523	29.698	-0.264	-0.223
-351.508	-97.159	-0.202	0.053
-350.493	-200.000	-0.030	-0.140
-349.479	800.000	-0.097	-0.393
-348.464	62.295	-0.179	-0.178
-347.450	-116.172	0.032	0.006
-346.435	755.127	0.120	-0.321
-345.420	-67.409	0.238	-0.093
-344.406	14.567	0.190	0.148
-343.391	104.410	-0.178	0.208
-342.377	282.579	-0.118	0.210
-341.362	-62.122	0.045	0.018
-340.348	147.261	0.072	-0.096
-339.333	-124.068	0.139	-0.022
-338.318	-149.327	-0.112	-0.009
-337.304	-200.000	0.003	0.101
-336.289	-200.000	0.001	0.403
-335.275	-4.410	0.150	0.103
-334.260	-141.943	0.318	0.031
-333.245	237.506	0.212	0.349
-332.231	69.492	-0.150	0.154
-331.216	800.000	-0.036	-0.104
-330.202	-200.000	-0.002	0.106
-329.187	-44.088	0.292	0.146
-328.172	189.369	-0.104	0.155
-327.158	-129.565	-0.216	0.030
-326.143	4.451	0.313	-0.228
-325.129	-200.000	-0.020	0.358
-324.114	120.619	0.088	-0.108
-323.099	-48.575	-0.207	0.099
-322.085	-200.000	0.022	0.102
-321.070	-107.067	-0.114	-0.025
-320.056	-90.633	-0.401	0.115
-319.041	97.436	0.402	0.458
-318.026	11.823	0.103	0.078
-317.012	-3.629	-0.074	-0.051
-315.997	134.601	-0.075	0.096
-314.983	324.683	-0.156	0.296
-313.968	-200.000	-0.080	-0.355
-312.953	254.920	-0.139	-0.236
-311.939	41.754	-0.146	0.131
-310.924	-91.613	0.193	0.054
-309.910	800.000	-0.127	-0.525
-308.895	-72.894	-0.062	0.023
-307.880	800.000	-0.057	-0.182
-306.866	-200.000	0.012	0.159
-305.851	118.453	-0.146	-0.179
-304.837	8.721	-0.279	-0.209
-303.822	-90.346	-0.213	0.061
-302.807	-71.200	-0.217	-0.081
-301.793	800.000	-0.091	0.378
-300.778	-39.983	-0.102	0.053
-299.764	360.698	0.066	0.131
-298.749	800.000	0.010	0.042
-297.735	-52.504	0.132	0.061
-296.720	-200.000	-0.012	0.111
-295.705	-98.183	0.141	0.036
-294.691	-45.724	0.153	-0.075
-293.676	-79.416	-0.222	0.074
-292.662	-200.000	-0.021	0.414
-291.647	800.000	0.038	0.132
-290.632	-80.077	0.166	0.055
-289.618	-200.000	-0.007	0.073
-288.603	-45.955	0.274	0.134
-287.589	-200.000	0.031	-0.240
-286.574	124.210	-0.079	0.099
-285.559	-165.313	-0.033	-0.001
-284.545	445.476	0.071	0.155
-283.530	-200.000	-0.019	-0.285
-282.516	-98.420	-0.043	-0.011
-281.501	311.750	0.114	-0.213
-280.486	-6.394	0.230	-0.156
-279.472	-7.186	0.060	0.040
-278.457	800.000	-0.111	-0.439
-277.443	-44.851	0.202	-0.100
-276.428	-111.540	-0.128	0.026
-275.413	-200.000	-0.043	0.247
-274.399	-35.857	-0.210	-0.113
-273.384	-30.186	0.071	-0.040
-272.370	169.244	0.103	-0.146
-271.355	90.806	0.266	-0.295
-270.340	85.819	-0.291	-0.317
-269.326	246.679	0.087	-0.146
-268.311	800.000	0.055	0.191
-267.297	-4.483	0.214	0.147
-266.282	-200.000	0.000	-0.222
-265.267	-200.000	0.001	0.059
-264.253	58.300	0.143	0.139
-263.238	-105.453	-0.301	0.068
-262.224	800.000	-0.100	0.325
-261.209	-61.739	-0.165	-0.068
-260.195	113.578	-0.151	0.182
-259.180	716.440	-0.059	0.156
-258.165	236.266	0.123	0.201
-257.151	341.192	0.088	0.171
-256.136	800.000	0.015	-0.058
-255.122	447.922	0.077	0.167
-254.107	-200.000	0.010	-0.090
-253.092	617.760	-0.053	0.132
-252.078	800.000	-0.064	0.246
-251.063	228.186	0.203	0.327
-250.049	11.969	0.260	-0.198
-249.034	29.592	-0.081	-0.069
-248.019	-65.606	-0.177	0.070
-247.005	-149.600	0.115	-0.009
-245.990	123.402	-0.229	-0.285
-244.976	186.450	-0.226	0.334
-243.961	720.010	0.122	0.321
-242.946	192.153	0.167	0.250
-241.932	-83.811	0.342	-0.108
-240.917	-200.000	-0.001	-0.207
-239.903	451.814	0.270	0.590
-238.888	-15.671	0.208	0.131
-237.873	161.911	-0.163	0.226
-236.859	539.286	-0.032	0.074
-235.844	-137.745	-0.178	0.020
-234.830	-185.613	-0.162	0.002
-233.815	-200.000	0.000	0.119
-232.800	0.998	0.408	-0.290
-231.786	-105.506	-0.467	-0.105
-230.771	-28.932	0.095	0.054
-229.757	42.067	0.219	0.197
-228.742	39.346	-0.405	0.359
-227.727	-96.058	0.242	-0.064
-226.713	-200.000	0.061	0.340
-225.698	82.339	-0.196	0.210
-224.684	156.425	-0.215	-0.294
-223.669	-200.000	0.024	-0.172
-222.655	55.048	0.048	0.045
-221.640	3.731	0.313	-0.226
-220.625	-14.731	-0.288	-0.183
-219.611	119.651	-0.289	0.354
-218.596	128.995	-0.144	0.182
-217.582	-200.000	0.008	0.108
-216.567	-110.253	0.169	-0.035
-215.552	-151.881	0.402	0.029
-214.538	150.113	-0.097	-0.130
-213.523	-173.664	0.133	0.004
-212.509	339.776	0.086	0.166
-211.494	800.000	-0.156	-0.455
-210.479	-200.000	0.008	-0.162
-209.465	-27.458	-0.180	0.103
-208.450	517.664	-0.040	0.092
-207.436	-63.027	-0.173	-0.071
-206.421	-70.222	0.189	0.071
-205.406	554.987	0.137	0.326
-204.392	316.720	0.039	0.073
-203.377	-95.404	-0.269	-0.071
-202.363	140.747	-0.093	-0.122
-201.348	800.000	0.033	-0.097
-200.333	25.388	0.176	-0.145
-199.319	-200.000	-0.017	-0.358
-198.304	259.829	-0.053	-0.090
-197.290	272.821	0.087	-0.152
-196.275	800.000	0.111	0.345
-195.260	181.778	-0.299	-0.434
-194.246	729.880	0.094	0.247
-193.231	-200.000	-0.041	-0.261
-192.217	294.701	0.095	0.171
-191.202	39.559	0.179	-0.159
-190.187	562.572	-0.098	-0.234
-189.173	233.432	0.175	-0.285
-188.158	126.135	-0.178	0.222
-187.144	72.272	0.074	0.076
-186.129	-200.000	0.000	0.103
-185.114	-20.754	-0.188	0.114
-184.100	43.193	0.059	0.053
-183.085	-13.263	0.314	-0.201
-182.071	-25.066	-0.204	0.120
-181.056	403.086	-0.142	-0.296
-180.042	-200.000	-0.037	-0.379
-179.027	107.898	0.040	0.047
-178.012	-13.562	-0.164	0.105
-176.998	80.293	0.115	0.122
-175.983	-92.393	-0.238	0.066
-174.969	-200.000	-0.007	-0.085
-173.954	128.834	-0.060	-0.075
-172.939	-200.000	-0.002	0.218
-171.925	-200.000	-0.020	0.164
-170.910	-53.548	0.159	-0.072
-169.896	-81.276	-0.369	-0.120
-168.881	-200.000	0.011	0.081
-167.866	104.016	0.107	0.124
-166.852	-110.237	0.080	0.016
-165.837	-104.615	-0.201	-0.046
-164.823	295.461	-0.123	0.223
-163.808	-200.000	0.070	-0.333
-162.793	114.364	-0.106	-0.127
-161.779	203.184	-0.215	0.328
-160.764	-200.000	-0.027	0.263
-159.750	-133.865	0.063	0.008
-158.735	-200.000	0.082	0.381
-157.720	-36.129	-0.354	-0.188
-156.706	-143.871	-0.065	-0.006
-155.691	-64.994	-0.043	0.017
-154.677	-43.316	0.085	0.042
-153.662	-200.000	-0.001	-0.044
-152.647	-51.112	-0.166	0.077
-151.633	82.950	0.043	-0.046
-150.618	246.036	-0.075	0.124
-149.604	-22.223	0.278	-0.166
-148.589	-49.385	-0.235	-0.110
-147.574	-56.902	-0.232	-0.101
-146.560	-200.000	-0.032	-0.174
-145.545	-78.048	-0.377	0.128
-144.531	-42.550	0.096	-0.048
-143.516	-31.890	0.197	0.109
-142.502	-200.000	0.015	0.242
-141.487	-82.497	0.386	-0.123
-140.472	169.050	-0.178	0.250
-139.458	800.000	0.086	0.335
-138.443	145.794	-0.130	0.172
-137.429	-114.982	-0.290	-0.054
-136.414	128.528	-0.161	-0.202
-135.399	-34.486	0.204	-0.110
-134.385	-35.948	-0.215	0.115
-133.370	105.469	-0.097	0.113
-132.356	-43.581	-0.157	0.078
-131.341	44.939	-0.246	0.224
-130.326	-15.424	0.309	-0.194
-129.312	-145.393	0.248	-0.022
-128.297	800.000	0.071	0.293
-127.283	142.056	-0.181	0.236
-126.268	104.334	-0.283	0.328
-125.253	384.771	0.107	0.218
-124.239	-56.918	-0.156	-0.068
-123.224	-200.000	-0.007	0.036
-122.210	800.000	-0.056	0.222
-121.195	-200.000	-0.275	-0.001
-120.180	42.871	0.104	0.093
-119.166	-200.000	0.020	0.269
-118.151	-148.049	-0.050	0.004
-117.137	-200.000	0.006	-0.137
-116.122	-200.000	-0.036	0.330
-115.107	-23.661	-0.021	0.012
-114.093	151.020	0.123	-0.164
-113.078	497.563	-0.123	-0.279
-112.064	-200.000	0.013	0.119
-111.049	-200.000	0.001	0.016
-110.034	-48.010	-0.114	-0.054
-109.020	800.000	0.055	-0.199
-108.005	-200.000	0.009	0.127
-106.991	-200.000	-0.023	-0.125
-105.976	760.950	-0.089	-0.237
-104.962	-39.171	0.167	0.086
-103.947	693.585	-0.114	-0.294
-102.932	192.458	-0.284	-0.422
-101.918	-20.388	0.092	-0.056
-100.903	-49.967	-0.183	-0.086
-99.889	-200.000	0.026	-0.401
-98.874	-84.714	-0.057	-0.018
-97.859	-66.099	0.488	0.191
-96.845	-67.714	-0.125	-0.048
-95.830	113.537	-0.200	-0.239
-94.816	-95.354	0.164	0.043
-93.801	-91.582	0.218	0.061
-92.786	80.606	0.133	-0.141
-91.772	-14.491	-0.273	-0.173
-90.757	272.351	0.200	-0.347
-89.743	-4.926	-0.240	-0.163
-88.728	-200.000	-0.028	-0.160
-87.713	35.300	-0.131	0.113
-86.699	642.015	0.126	0.316
-85.684	188.930	-0.269	-0.397
-84.670	163.291	-0.084	0.116
-83.655	54.840	-0.173	-0.165
-82.640	214.776	-0.084	-0.130
-81.626	-200.000	0.024	0.160
-80.611	-161.440	-0.130	0.007
-79.597	4.191	0.042	0.030
-78.582	-90.904	0.066	-0.019
-77.567	-5.285	0.141	0.095
-76.553	-76.949	0.191	0.066
-75.538	-200.000	0.028	0.133
-74.524	-126.799	0.123	-0.018
-73.509	-200.000	-0.037	-0.235
-72.494	-138.084	-0.181	0.020
-71.480	-67.907	0.077	-0.029
-70.465	149.792	0.096	0.128
-69.451	-116.912	-0.195	0.035
-68.436	-77.254	0.155	0.053
-67.422	-99.325	-0.048	-0.012
-66.407	71.100	-0.289	0.295
-65.392	-22.451	-0.043	0.026
-64.378	298.010	0.219	-0.395
-63.363	-200.000	0.013	-0.158
-62.349	214.475	-0.070	-0.109
-61.334	90.971	-0.897	-0.989
-60.319	244.716	0.463	0.765
-59.305	800.000	-0.323	-1.268
-58.290	361.959	0.624	1.230
-57.276	519.937	0.660	1.520
-56.261	-200.000	113.740	613.230
-55.246	426.823	1527.840	3237.165
-54.232	139.196	2731.710	3529.788
-53.217	90.334	2365.021	2599.413
-52.203	32.790	2108.496	1792.586
-51.188	28.029	2021.970	1675.441
-50.173	26.753	2004.140	1649.000
-49.159	43.383	2063.653	1852.105
-48.144	42.396	2079.023	1856.698
-47.130	28.462	2038.722	1693.054
-46.115	26.295	2028.178	1664.303
-45.100	26.191	2025.107	1660.762
-44.086	26.228	2022.383	1658.803
-43.071	26.152	2019.857	1655.962
-42.057	26.168	2017.546	1654.151
-41.042	26.162	2015.560	1652.404
-40.027	26.144	2013.984	1650.879
-39.013	26.151	2011.868	1649.145
-37.998	26.162	2010.323	1647.915
-36.984	26.104	2008.675	1645.970
-35.969	26.136	2006.599	1644.488
-34.954	26.262	2004.175	1643.591
-33.940	26.230	2003.397	1642.595
-32.925	26.284	2001.859	1641.759
-31.911	26.255	2000.170	1640.045
-30.896	26.254	1998.789	1638.835
-29.881	26.299	1996.603	1637.382
-28.867	26.357	1994.876	1636.428
-27.852	26.389	1993.272	1635.343
-26.838	26.370	1991.190	1633.393
-25.823	26.306	1989.725	1631.548
-24.809	26.319	1987.684	1629.930
-23.794	26.260	1986.055	1627.998
-22.779	26.398	1983.733	1627.274
-21.765	26.359	1982.134	1625.548
-20.750	26.252	1980.815	1623.437
-19.736	26.248	1979.496	1622.255
-18.721	26.314	1977.678	1621.293
-17.706	26.332	1975.747	1619.803
-16.692	26.286	1974.356	1618.191
-15.677	26.292	1972.599	1616.737
-14.663	26.296	1971.595	1615.886
-13.648	26.316	1970.035	1614.723
-12.633	26.217	1969.198	1613.087
-11.619	26.201	1967.921	1611.838
-10.604	26.160	1966.383	1610.149
-9.590	26.291	1964.659	1609.839
-8.575	26.296	1963.485	1608.855
-7.560	26.278	1961.819	1607.269
-6.546	26.336	1960.767	1606.857
-5.531	26.258	1959.868	1605.365
-4.517	26.359	1957.826	1604.526
-3.502	26.243	1957.104	1602.842
-2.487	26.336	1955.697	1602.451
-1.473	26.367	1954.817	1601.936
-0.458	26.458	1950.311	1598.992
0.556	25.478	1930.845	1574.247
1.571	21.642	1913.271	1526.420
2.586	17.857	1936.506	1511.360
3.600	16.679	1972.212	1528.465
4.615	16.460	1965.634	1521.257
5.629	12.924	1863.735	1412.046
6.644	5.434	1745.182	1261.867
7.659	1.249	1709.841	1203.075
8.673	0.901	1706.068	1197.562
9.688	0.894	1705.539	1197.022
10.702	0.843	1703.960	1195.407
11.717	0.722	1700.432	1191.876
12.731	1.091	1699.454	1193.993
13.746	6.491	1711.037	1244.767
14.761	13.568	1725.108	1311.075
15.775	16.808	1729.975	1340.325
16.790	17.178	1729.735	1342.952
17.804	16.309	1726.626	1333.559
18.819	15.415	1722.950	1323.550
19.834	14.881	1720.525	1317.366
20.848	14.556	1718.711	1313.300
21.863	14.311	1717.186	1310.093
22.877	13.993	1715.828	1306.441
23.892	13.817	1714.133	1303.654
24.907	13.657	1713.165	1301.544
25.921	13.686	1711.980	1300.755
26.936	13.654	1711.109	1299.731
27.950	13.607	1710.582	1298.847
28.965	13.674	1709.806	1298.662
29.980	13.768	1709.005	1298.676
30.994	13.779	1707.858	1297.778
32.009	13.971	1706.405	1298.060
33.023	13.820	1706.432	1296.786
34.038	13.804	1705.704	1295.988
35.053	13.832	1704.349	1295.069
36.067	13.712	1703.003	1292.993
37.082	13.768	1701.873	1292.456
38.096	13.780	1701.162	1291.900
39.111	13.747	1700.277	1290.850
40.126	13.841	1699.222	1290.670
41.140	13.721	1698.272	1288.902
42.155	13.668	1696.934	1287.357
43.169	13.659	1695.445	1286.046
44.184	13.654	1694.301	1285.022
45.199	13.637	1693.048	1283.827
46.213	13.608	1691.860	1282.591
47.228	13.617	1690.766	1281.714
48.242	13.694	1688.946	1280.822
49.257	13.739	1688.114	1280.420
50.271	13.737	1687.112	1279.537
51.286	13.663	1685.648	1277.742
52.301	13.690	1684.284	1276.802
53.315	13.809	1682.691	1276.392
54.330	13.656	1681.442	1274.162
55.344	13.646	1679.686	1272.639
56.359	13.621	1678.438	1271.386
57.374	13.656	1676.978	1270.438
58.388	13.614	1675.827	1269.134
59.403	13.640	1674.571	1268.269
60.417	13.549	1673.172	1266.402
61.432	13.609	1671.805	1265.709
62.447	13.590	1670.573	1264.524
63.461	13.567	1669.434	1263.375
64.476	13.490	1668.747	1262.157
65.490	13.498	1667.322	1261.023
66.505	13.522	1666.185	1260.238
67.520	13.590	1664.985	1259.731
68.534	13.589	1663.603	1258.567
69.549	13.594	1662.931	1257.992
70.563	13.649	1661.189	1256.973
71.578	13.630	1659.885	1255.734
72.593	13.592	1659.129	1254.761
73.607	13.525	1658.133	1253.392
74.622	13.504	1657.320	1252.510
75.636	13.512	1655.987	1251.449
76.651	13.491	1655.289	1250.657
77.666	13.442	1653.875	1249.102
78.680	13.541	1652.948	1249.044
79.695	13.581	1651.966	1248.490
80.709	13.528	1651.198	1247.402
81.724	13.620	1650.195	1247.227
82.739	13.687	1649.023	1246.735
83.753	13.637	1648.112	1245.555
84.768	13.647	1646.911	1244.615
85.782	13.575	1646.482	1243.639
86.797	13.705	1646.169	1244.269
87.812	13.715	1644.675	1243.101
88.826	13.658	1643.266	1241.503
89.841	13.646	1642.533	1240.751
90.855	13.634	1641.084	1239.456
91.870	13.688	1639.843	1238.812
92.884	13.617	1639.009	1237.544
93.899	13.735	1637.783	1237.388
94.914	13.757	1636.526	1236.493
95.928	13.762	1635.344	1235.525
96.943	13.842	1633.639	1234.725
97.957	13.685	1632.104	1232.288
98.972	13.690	1631.210	1231.542
99.987	13.623	1629.612	1229.726
101.001	13.734	1627.559	1228.891
102.016	13.817	1625.870	1228.126
103.030	13.738	1624.514	1226.405
104.045	13.720	1623.737	1225.581
105.060	13.775	1621.764	1224.385
106.074	13.711	1620.429	1222.796
107.089	13.596	1619.422	1221.086
108.103	13.701	1617.200	1220.075
109.118	13.653	1615.846	1218.593
110.133	13.615	1614.891	1217.485
111.147	13.612	1613.073	1215.980
112.162	13.569	1612.199	1214.901
113.176	13.597	1610.873	1213.999
114.191	13.601	1609.251	1212.695
115.206	13.660	1608.238	1212.257
116.220	13.630	1607.300	1211.227
117.235	13.580	1605.420	1209.336
118.249	13.675	1604.229	1209.023
119.264	13.604	1602.719	1207.266
120.279	13.674	1601.452	1206.710
121.293	13.653	1600.131	1205.454
122.308	13.590	1598.588	1203.729
123.322	13.720	1596.509	1202.999
124.337	13.631	1595.557	1201.535
125.352	13.648	1594.390	1200.670
126.366	13.643	1592.980	1199.463
127.381	13.558	1592.075	1198.060
128.395	13.602	1590.736	1197.268
129.410	13.591	1589.086	1195.840
130.424	13.670	1587.802	1195.336
131.439	13.603	1586.158	1193.510
132.454	13.686	1585.112	1193.216
133.468	13.734	1583.416	1192.181
134.483	13.794	1581.569	1191.116
135.497	13.681	1580.783	1189.610
136.512	13.775	1578.996	1188.832
137.527	13.747	1577.551	1187.438
138.541	13.756	1576.325	1186.473
139.556	13.725	1574.522	1184.786
140.570	13.699	1573.709	1183.890
141.585	13.725	1572.282	1182.893
142.600	13.811	1570.632	1182.162
143.614	13.803	1569.581	1181.211
144.629	13.799	1568.312	1180.122
145.643	13.890	1567.083	1179.739
146.658	13.975	1565.529	1179.069
147.673	14.010	1563.735	1177.858
148.687	13.789	1563.164	1175.758
149.702	13.841	1561.483	1174.761
150.716	13.898	1559.426	1173.512
151.731	13.852	1558.162	1172.129
152.746	13.881	1557.113	1171.440
153.760	13.895	1555.096	1169.921
154.775	13.878	1554.310	1169.105
155.789	13.888	1553.128	1168.185
156.804	13.889	1551.651	1166.977
157.819	13.943	1550.610	1166.470
158.833	14.021	1548.954	1165.666
159.848	14.043	1547.743	1164.810
160.862	14.140	1546.475	1164.426
161.877	14.087	1545.146	1162.957
162.892	14.024	1544.295	1161.768
163.906	13.958	1543.083	1160.292
164.921	13.901	1541.908	1158.909
165.935	13.923	1540.835	1158.155
166.950	14.013	1539.192	1157.444
167.964	13.999	1538.582	1156.788
168.979	14.112	1537.146	1156.389
169.994	14.083	1536.524	1155.616
171.008	14.003	1535.556	1154.232
172.023	14.007	1534.320	1153.230
173.037	14.039	1533.218	1152.519
174.052	14.065	1532.414	1151.992
175.067	14.073	1531.162	1151.008
176.081	14.095	1529.829	1150.052
177.096	14.050	1528.781	1148.852
178.110	14.004	1526.686	1146.857
179.125	14.103	1525.521	1146.565
180.140	14.172	1524.509	1146.182
181.154	14.137	1523.793	1145.296
182.169	14.190	1522.347	1144.476
183.183	14.138	1521.439	1143.338
184.198	14.194	1520.278	1142.746
185.213	14.209	1519.438	1142.116
186.227	14.317	1517.966	1141.647
187.242	14.266	1517.047	1140.508
188.256	14.319	1515.947	1139.940
189.271	14.266	1514.597	1138.460
190.286	14.332	1513.672	1138.122
191.300	14.374	1512.230	1137.218
192.315	14.232	1511.307	1135.458
193.329	14.187	1509.999	1134.068
194.344	14.267	1508.868	1133.665
195.359	14.248	1508.248	1132.970
196.373	14.282	1507.179	1132.298
197.388	14.317	1505.874	1131.453
198.402	14.269	1504.678	1130.127
199.417	14.378	1503.452	1129.845
200.432	14.491	1501.943	1129.380
201.446	14.497	1501.358	1128.880
202.461	14.391	1499.873	1126.942
203.475	14.605	1498.190	1127.024
204.490	14.605	1497.762	1126.606
205.504	14.561	1496.817	1125.499
206.519	14.531	1495.770	1124.407
207.534	14.533	1494.312	1123.227
208.548	14.472	1492.892	1121.647
209.563	14.483	1492.152	1121.070
210.577	14.527	1491.347	1120.660
211.592	14.550	1490.361	1119.977
212.607	14.545	1489.853	1119.461
213.621	14.672	1489.054	1119.611
214.636	14.552	1488.272	1118.119
215.650	14.638	1487.233	1117.816
216.665	14.647	1485.806	1116.703
217.680	14.625	1485.105	1115.932
218.694	14.694	1484.395	1115.761
219.709	14.706	1483.629	1115.168
220.723	14.736	1482.593	1114.493
221.738	14.740	1481.239	1113.397
222.753	14.808	1480.148	1112.935
223.767	14.684	1479.685	1111.663
224.782	14.670	1478.467	1110.555
225.796	14.779	1477.570	1110.505
226.811	14.823	1476.762	1110.098
227.826	14.893	1476.097	1109.960
228.840	14.839	1474.976	1108.660
229.855	14.799	1474.088	1107.634
230.869	14.823	1473.503	1107.251
231.884	14.791	1472.208	1105.967
232.899	14.792	1470.745	1104.782
233.913	14.882	1469.981	1104.700
234.928	14.905	1468.498	1103.644
235.942	14.737	1467.565	1101.735
236.957	14.867	1466.150	1101.430
237.972	14.855	1464.941	1100.350
238.986	14.878	1463.632	1099.417
240.001	14.856	1462.780	1098.538
241.015	14.865	1462.018	1097.929
242.030	14.911	1460.506	1096.994
243.045	14.942	1459.583	1096.410
244.059	14.968	1458.816	1095.907
245.074	14.922	1458.325	1095.140
246.088	14.968	1457.142	1094.452
247.103	15.048	1456.052	1094.058
248.117	15.103	1455.602	1093.985
249.132	15.048	1454.705	1092.855
250.147	15.129	1453.706	1092.537
251.161	15.222	1453.452	1092.859
252.176	15.249	1452.731	1092.396
253.190	15.259	1451.519	1091.449
254.205	15.353	1450.436	1091.148
255.220	15.283	1449.965	1090.247
256.234	15.367	1448.739	1089.771
257.249	15.261	1448.434	1088.757
258.263	15.359	1447.540	1088.624
259.278	15.350	1446.471	1087.670
260.293	15.335	1445.700	1086.894
261.307	15.365	1444.482	1086.079
262.322	15.456	1444.215	1086.371
263.336	15.454	1443.311	1085.582
264.351	15.457	1442.185	1084.654
265.366	15.537	1441.245	1084.366
266.380	15.576	1439.915	1083.522
267.395	15.555	1438.937	1082.558
268.409	15.455	1438.690	1081.632
269.424	15.473	1437.461	1080.729
270.439	15.426	1436.559	1079.651
271.453	15.623	1434.929	1079.598
272.468	15.539	1434.168	1078.386
273.482	15.560	1433.559	1077.967
274.497	15.515	1432.670	1076.919
275.512	15.554	1431.541	1076.221
276.526	15.625	1430.571	1075.857
277.541	15.534	1429.599	1074.445
278.555	15.662	1428.697	1074.492
279.570	15.616	1428.185	1073.718
280.585	15.569	1427.174	1072.561
281.599	15.648	1426.408	1072.392
282.614	15.774	1425.122	1072.137
283.628	15.716	1423.903	1070.757
284.643	15.754	1422.894	1070.144
285.657	15.689	1421.647	1068.696
286.672	15.679	1421.253	1068.241
287.687	15.741	1419.863	1067.497
288.701	15.702	1418.618	1066.218
289.716	15.774	1418.136	1066.219
290.730	15.900	1416.993	1066.063
291.745	15.855	1416.286	1065.151
292.760	15.816	1415.521	1064.234
293.774	15.817	1414.397	1063.304
294.789	15.854	1413.315	1062.630
295.803	15.949	1412.712	1062.684
296.818	15.950	1411.664	1061.803
297.833	15.983	1410.493	1061.038
298.847	15.891	1409.868	1059.894
299.862	15.931	1408.815	1059.261
300.876	16.025	1407.716	1058.930
301.891	15.884	1407.161	1057.534
302.906	15.984	1405.995	1057.196
303.920	16.025	1405.412	1056.916
304.935	16.077	1404.461	1056.433
305.949	16.172	1403.043	1055.868
306.964	16.087	1402.877	1055.121
307.979	16.173	1401.775	1054.738
308.993	16.159	1400.877	1053.882
310.008	16.135	1400.059	1053.022
311.022	16.111	1399.123	1052.075
312.037	16.152	1397.686	1051.158
313.052	16.217	1396.720	1050.741
314.066	16.176	1396.094	1049.924
315.081	16.221	1395.070	1049.342
316.095	16.095	1394.129	1047.757
317.110	16.204	1392.800	1047.340
318.125	16.149	1392.203	1046.459
319.139	16.278	1390.745	1046.066
320.154	16.121	1390.074	1044.500
321.168	16.159	1389.316	1044.074
322.183	16.181	1388.056	1043.167
323.197	16.189	1387.310	1042.564
324.212	16.231	1386.799	1042.351
325.227	16.173	1385.588	1040.986
326.241	16.347	1384.307	1041.007
327.256	16.310	1383.315	1039.942
328.270	16.256	1382.513	1038.915
329.285	16.316	1381.668	1038.558
330.300	16.282	1380.659	1037.495
331.314	16.310	1379.979	1037.066
332.329	16.387	1378.663	1036.456
333.343	16.294	1377.771	1035.126
334.358	16.332	1377.396	1034.983
335.373	16.434	1376.200	1034.619
336.387	16.351	1375.798	1033.718
337.402	16.387	1374.737	1033.047
338.416	16.470	1373.947	1032.868
339.431	16.556	1373.669	1033.096
340.446	16.497	1372.699	1031.913
341.460	16.480	1371.655	1030.934
342.475	16.635	1370.559	1030.961
343.489	16.608	1369.545	1029.942
344.504	16.647	1368.752	1029.496
345.519	16.630	1367.884	1028.648
346.533	16.750	1367.030	1028.645
347.548	16.766	1365.662	1027.618
348.562	16.750	1365.119	1027.024
349.577	16.738	1364.119	1026.110
350.592	16.720	1363.807	1025.674
351.606	16.786	1362.719	1025.164
352.621	16.664	1361.980	1023.778
353.635	16.661	1360.418	1022.497
354.650	16.671	1359.924	1022.091
355.665	16.725	1358.704	1021.410
356.679	16.628	1358.091	1020.277
357.694	16.658	1356.536	1019.198
358.708	16.757	1355.630	1019.022
359.723	16.782	1354.486	1018.226
360.738	16.744	1353.697	1017.313
361.752	16.877	1352.417	1017.060
362.767	16.884	1351.304	1016.171
363.781	16.807	1350.289	1014.861
364.796	16.835	1349.544	1014.377
365.810	16.775	1349.272	1013.725
366.825	16.954	1348.278	1013.958
367.840	16.941	1347.620	1013.293
368.854	16.921	1346.993	1012.613
369.869	17.002	1346.618	1012.724
370.883	17.119	1345.136	1012.218
371.898	17.024	1344.774	1011.292
372.913	17.053	1344.021	1010.810
373.927	17.078	1343.001	1010.101
374.942	17.042	1342.295	1009.270
375.956	17.084	1341.079	1008.510
376.971	17.076	1340.929	1008.261
377.986	17.124	1340.058	1007.804
379.000	17.159	1338.877	1007.035
380.015	17.090	1338.295	1006.096
381.029	17.207	1337.440	1006.059
382.044	17.161	1336.702	1005.144
383.059	17.198	1336.285	1004.961
384.073	17.237	1335.390	1004.430
385.088	17.288	1334.477	1003.954
386.102	17.305	1333.826	1003.475
387.117	17.318	1333.050	1002.879
388.132	17.372	1332.403	1002.623
389.146	17.234	1331.435	1000.989
390.161	17.328	1330.686	1000.892
391.175	17.285	1329.947	999.998
392.190	17.322	1329.364	999.686
393.205	17.330	1328.269	998.823
394.219	17.289	1327.032	997.566
395.234	17.486	1325.453	997.441
396.248	17.455	1324.613	996.540
397.263	17.353	1323.290	994.862
398.278	17.301	1321.821	993.365
399.292	17.380	1320.931	993.065
400.307	17.380	1320.191	992.425
401.321	17.498	1318.707	991.906
402.336	17.325	1317.943	990.236
403.350	17.382	1316.862	989.670
404.365	17.456	1315.667	989.116
405.380	17.428	1314.818	988.226
406.394	17.508	1313.892	987.909
407.409	17.560	1313.204	987.601
408.423	17.591	1312.768	987.370
409.438	17.593	1312.103	986.794
410.453	17.608	1311.117	986.050
411.467	17.670	1310.614	985.943
412.482	17.719	1310.298	985.901
413.496	17.658	1309.529	984.886
414.511	17.695	1308.543	984.269
415.526	17.697	1307.601	983.483
416.540	17.770	1306.982	983.352
417.555	17.837	1306.294	983.134
418.569	17.805	1305.925	982.586
419.584	17.787	1305.475	982.053
420.599	17.830	1304.450	981.444
421.613	98.583	1360.127	1482.068
422.628	96.990	1368.182	1482.171
