DTS Sentinel unit serial number:	SN413079Multiplexer serial number:	ORYXHardware model number:	OX4-SRSoftware version number:	ORYX F/W v4.00 Oryx Data Collector v3.7.2.0data status	okinstallation	princeton_trtdifferential loss correction	single-endedforward channel	channel 4reverse channel	N/Adate	2019/09/12time	19:14:19forward acquisition time	15.00reverse acquisition time	0.00gamma	496.2192k internal	0.2308k external	0.2308temperature offset calibration	1.0144default loss term (dB/km)	0.3790temperature slope calibration	1.0000multiplexer offset coefficient	1.0000multiplexer slope coefficient	1.0000fibre end	0.00T internal ref (°C)	32.56T ext. ref 1 (°C)	3.24T ext. ref 2 (°C)	27.07length (m)	temperature (°C)	Stokes	anti-Stokes-747.200	-20.757	0.322	0.201
-746.185	-155.957	-0.676	-0.044
-745.171	-200.000	-0.019	0.609
-744.156	-72.563	-0.482	0.181
-743.142	-61.133	0.439	0.188
-742.127	66.871	-0.276	0.286
-741.112	455.339	0.072	-0.163
-740.098	301.500	-0.402	0.755
-739.083	73.075	0.301	0.320
-738.069	-53.312	0.131	0.061
-737.054	800.000	0.205	0.663
-736.039	-71.407	-0.602	-0.229
-735.025	41.614	0.730	0.672
-734.010	-49.642	-0.590	0.285
-732.996	11.903	-0.877	0.684
-731.981	40.311	-0.172	0.157
-730.966	419.666	-0.107	-0.233
-729.952	-200.000	0.032	-0.531
-728.937	-200.000	-0.006	-0.291
-727.923	-21.494	0.730	-0.452
-726.908	74.611	0.384	-0.411
-725.894	-118.720	-0.794	0.142
-724.879	207.029	0.212	0.336
-723.864	231.138	-0.528	0.878
-722.850	-200.000	0.020	0.491
-721.835	-82.980	-0.266	0.087
-720.821	-83.591	0.384	-0.125
-719.806	-41.514	-0.309	0.162
-718.791	-200.000	-0.070	-0.536
-717.777	800.000	-0.108	-0.325
-716.762	94.349	-0.389	0.448
-715.748	-200.000	-0.087	1.015
-714.733	-81.956	0.419	-0.139
-713.718	-200.000	0.118	-0.661
-712.704	-200.000	0.071	0.415
-711.689	800.000	-0.082	0.354
-710.675	-200.000	-0.054	0.329
-709.660	-115.148	-0.260	-0.050
-708.645	-23.030	-0.469	0.287
-707.631	-137.643	0.627	0.072
-706.616	99.887	-0.291	0.343
-705.602	4.365	-0.629	-0.468
-704.587	-71.526	0.449	-0.171
-703.572	-24.954	0.444	0.268
-702.558	-200.000	-0.071	0.315
-701.543	-200.000	0.098	-0.590
-700.529	6.429	-0.140	0.105
-699.514	114.789	0.638	-0.789
-698.499	-174.496	0.685	0.020
-697.485	-183.319	0.267	0.005
-696.470	104.522	0.080	-0.095
-695.456	-19.586	-0.541	0.340
-694.441	-82.616	0.938	0.308
-693.426	-57.514	-0.306	0.136
-692.412	-111.691	-0.501	0.103
-691.397	-200.000	-0.041	0.535
-690.383	-44.366	-0.501	0.255
-689.368	-126.437	0.588	-0.089
-688.354	-53.636	-0.418	0.194
-687.339	50.420	0.202	-0.194
-686.324	-83.014	-0.700	0.229
-685.310	800.000	-0.020	-0.086
-684.295	-86.748	0.359	0.111
-683.281	-200.000	-0.025	-0.595
-682.266	-161.152	0.593	-0.031
-681.251	-200.000	0.088	-0.412
-680.237	28.233	-0.533	0.456
-679.222	-156.772	-0.465	-0.029
-678.208	251.142	0.147	-0.254
-677.193	107.365	-0.144	-0.174
-676.178	59.164	-0.087	-0.086
-675.164	800.000	0.155	0.540
-674.149	-171.721	0.427	0.014
-673.135	197.407	0.114	0.177
-672.120	56.542	0.721	-0.711
-671.105	-98.126	-0.687	0.179
-670.091	-89.145	-0.340	-0.102
-669.076	35.173	-0.310	0.275
-668.062	-79.706	-1.258	-0.430
-667.047	800.000	0.074	-0.217
-666.032	-200.000	0.074	0.351
-665.018	-166.418	-1.004	-0.043
-664.003	268.718	-0.109	-0.194
-662.989	37.646	0.664	-0.597
-661.974	-92.644	-0.429	0.122
-660.959	-148.225	1.013	-0.085
-659.945	-200.000	-0.126	-0.641
-658.930	-35.937	-0.648	-0.355
-657.916	800.000	0.123	-0.480
-656.901	-63.593	0.463	-0.193
-655.886	-58.557	-0.094	-0.041
-654.872	301.300	-0.059	0.110
-653.857	-90.458	0.864	-0.253
-652.843	319.044	-0.164	-0.314
-651.828	101.480	-0.559	-0.660
-650.814	800.000	-0.196	-0.558
-649.799	382.495	0.398	-0.829
-648.784	-200.000	0.021	-0.305
-647.770	552.084	0.154	-0.375
-646.755	109.345	-0.323	-0.392
-645.741	-53.703	-0.231	-0.107
-644.726	-15.208	0.215	-0.139
-643.711	187.400	-0.569	0.859
-642.697	-6.593	-0.386	-0.266
-641.682	389.283	0.086	0.179
-640.668	-200.000	0.053	-0.388
-639.653	-1.114	-0.251	0.180
-638.638	157.857	-0.171	0.240
-637.624	-16.885	0.771	-0.493
-636.609	44.628	-0.900	-0.837
-635.595	241.483	0.417	-0.706
-634.580	432.066	-0.190	0.416
-633.565	321.200	-0.067	0.128
-632.551	36.343	-0.314	0.281
-631.536	15.910	-0.104	-0.083
-630.522	-63.177	0.722	-0.301
-629.507	-134.225	-0.163	-0.020
-628.492	-41.185	0.348	0.182
-627.478	187.909	-0.049	-0.074
-626.463	-107.776	0.664	-0.146
-625.449	800.000	-0.101	-0.364
-624.434	157.586	0.115	0.161
-623.419	-90.462	-0.543	-0.159
-622.405	-0.888	0.248	0.178
-621.390	-200.000	-0.063	-0.450
-620.376	136.472	0.592	-0.781
-619.361	-31.893	0.397	-0.225
-618.346	-113.665	-0.669	0.132
-617.332	0.694	0.534	0.386
-616.317	-200.000	0.032	-0.986
-615.303	58.387	-0.256	0.254
-614.288	-200.000	0.017	0.230
-613.273	800.000	-0.287	0.835
-612.259	-200.000	-0.154	-0.735
-611.244	-171.022	1.291	0.044
-610.230	584.231	-0.044	-0.110
-609.215	202.916	-0.303	-0.473
-608.201	137.179	-0.361	0.477
-607.186	-128.837	-0.375	0.053
-606.171	-17.275	-0.249	-0.158
-605.157	153.496	0.053	-0.073
-604.142	175.847	-0.335	0.491
-603.128	161.891	0.410	0.581
-602.113	-169.905	-0.460	0.017
-601.098	-83.463	-0.310	-0.100
-600.084	800.000	-0.070	-0.257
-599.069	-200.000	-0.031	-0.480
-598.055	117.824	-0.436	-0.543
-597.040	0.725	0.154	0.112
-596.025	199.679	-0.016	-0.025
-595.011	499.982	0.282	-0.657
-593.996	117.356	-0.337	0.418
-592.982	-94.299	-0.330	-0.091
-591.967	42.179	-0.345	0.317
-590.952	-173.959	0.142	-0.004
-589.938	139.167	0.178	-0.236
-588.923	-20.523	1.115	0.692
-587.909	-96.420	0.476	-0.127
-586.894	79.874	0.064	-0.069
-585.879	800.000	0.283	-0.992
-584.865	800.000	0.170	0.744
-583.850	-130.326	0.344	-0.047
-582.836	-175.710	0.483	-0.013
-581.821	-200.000	0.155	-0.782
-580.806	559.811	-0.318	-0.776
-579.792	-200.000	-0.001	0.098
-578.777	52.710	-0.237	0.229
-577.763	800.000	0.227	-0.894
-576.748	-46.421	-0.368	0.183
-575.733	65.105	0.540	0.551
-574.719	-108.408	-0.425	0.093
-573.704	-173.353	0.924	0.028
-572.690	104.918	-0.177	-0.211
-571.675	-7.713	-0.092	-0.063
-570.661	86.301	0.080	-0.089
-569.646	21.865	-0.558	0.459
-568.631	-87.351	0.634	0.194
-567.617	-101.197	-0.426	-0.105
-566.602	-116.686	0.513	0.095
-565.588	-141.246	0.114	0.012
-564.573	-132.298	0.518	-0.068
-563.558	800.000	-0.078	-0.308
-562.544	327.760	-0.200	0.386
-561.529	-200.000	0.025	0.216
-560.515	-8.641	0.336	0.228
-559.500	-200.000	0.079	0.661
-558.485	-200.000	0.007	0.061
-557.471	72.045	0.372	0.390
-556.456	165.960	-0.244	-0.348
-555.442	-200.000	0.023	-0.314
-554.427	525.580	-0.278	0.660
-553.412	126.681	-0.383	-0.490
-552.398	704.496	0.148	0.395
-551.383	800.000	-0.115	0.509
-550.369	800.000	0.140	-0.434
-549.354	-105.941	-0.471	0.107
-548.339	800.000	0.078	-0.336
-547.325	-49.885	0.537	-0.257
-546.310	-87.128	-0.312	0.096
-545.296	136.897	0.201	0.265
-544.281	-130.107	0.844	0.116
-543.266	-200.000	-0.096	0.450
-542.252	-9.511	0.313	-0.210
-541.237	382.430	-0.171	-0.355
-540.223	115.728	0.552	-0.680
-539.208	-80.394	0.165	-0.055
-538.193	14.189	0.509	-0.400
-537.179	17.857	-0.931	-0.747
-536.164	-39.148	0.639	-0.338
-535.150	800.000	0.177	-0.544
-534.135	435.080	0.109	-0.240
-533.121	-168.606	1.043	-0.040
-532.106	-99.433	-0.455	0.116
-531.091	-52.365	-0.672	0.313
-530.077	-151.336	-0.585	0.044
-529.062	-48.541	0.345	0.167
-528.048	-157.933	-0.675	0.040
-527.033	-200.000	0.029	0.848
-526.018	-172.277	-0.297	0.010
-525.004	-2.707	-0.364	0.256
-523.989	-200.000	0.009	-0.380
-522.975	-38.295	0.114	-0.061
-521.960	33.394	0.588	-0.514
-520.945	-134.083	0.719	-0.089
-519.931	135.591	-0.077	-0.100
-518.916	-169.220	1.016	-0.038
-517.902	-155.244	0.378	-0.025
-516.887	80.415	-0.591	0.641
-515.872	-89.542	0.250	-0.074
-514.858	-50.004	-0.369	0.176
-513.843	180.840	0.324	-0.479
-512.829	-129.144	0.579	0.081
-511.814	-118.087	0.676	-0.122
-510.799	27.545	0.667	0.565
-509.785	69.988	-0.035	-0.036
-508.770	-80.355	0.715	0.241
-507.756	-111.217	0.562	-0.116
-506.741	-197.327	-0.466	0.003
-505.726	32.678	0.286	-0.249
-504.712	-49.779	-0.998	-0.478
-503.697	-34.924	-0.227	-0.125
-502.683	-38.391	-1.093	-0.582
-501.668	-200.000	0.010	-0.099
-500.653	-84.957	-0.872	0.275
-499.639	-67.051	-0.451	0.179
-498.624	54.358	-0.794	-0.770
-497.610	32.955	0.773	0.674
-496.595	81.459	-0.190	-0.207
-495.581	-200.000	-0.114	0.667
-494.566	-91.469	-0.293	-0.084
-493.551	-75.263	0.164	0.059
-492.537	-200.000	-0.037	-0.278
-491.522	89.322	0.129	-0.145
-490.508	800.000	-0.133	-0.401
-489.493	-200.000	-0.020	0.378
-488.478	-120.764	0.771	0.131
-487.464	-78.208	-0.206	0.071
-486.449	-190.312	0.823	0.009
-485.435	24.402	-0.270	-0.224
-484.420	-139.712	-0.465	0.050
-483.405	-7.296	-0.851	0.580
-482.391	-144.862	-0.903	-0.083
-481.376	-108.730	-0.333	0.072
-480.362	-200.000	-0.086	-0.559
-479.347	23.035	0.507	0.419
-478.332	208.870	0.354	0.557
-477.318	800.000	-0.057	0.200
-476.303	-200.000	-0.095	-0.662
-475.289	-12.837	-0.683	-0.447
-474.274	-200.000	-0.037	-0.579
-473.259	714.686	0.131	0.349
-472.245	-200.000	0.229	1.190
-471.230	-120.429	-0.234	-0.040
-470.216	-87.639	-0.311	-0.094
-469.201	-141.270	0.473	0.048
-468.186	-200.000	0.104	-0.689
-467.172	-130.683	0.774	-0.105
-466.157	-14.477	-0.346	0.224
-465.143	-75.352	0.760	-0.272
-464.128	-128.057	-0.356	-0.051
-463.113	-200.000	0.142	0.679
-462.099	-123.625	-0.328	-0.052
-461.084	2.167	-0.330	0.239
-460.070	-200.000	-0.066	-0.346
-459.055	-200.000	0.042	-0.743
-458.040	-136.859	-0.761	0.088
-457.026	7.019	-0.809	0.606
-456.011	19.511	0.647	0.523
-454.997	800.000	0.277	0.846
-453.982	-200.000	-0.043	0.564
-452.968	-200.000	0.733	-0.001
-451.953	-193.078	-0.765	0.007
-450.938	44.521	0.051	0.047
-449.924	-52.992	-0.637	-0.295
-448.909	-49.818	-0.521	-0.249
-447.895	260.241	-0.029	0.051
-446.880	119.725	-0.604	-0.752
-445.865	165.517	-0.403	-0.572
-444.851	359.447	-0.289	-0.581
-443.836	138.245	0.450	0.592
-442.822	-51.963	-0.889	0.415
-441.807	331.967	-0.423	-0.820
-440.792	16.617	0.435	-0.346
-439.778	71.183	0.250	0.260
-438.763	-107.771	-0.415	0.091
-437.749	-162.445	0.527	0.026
-436.734	-200.000	-0.180	0.811
-435.719	92.092	0.232	0.263
-434.705	171.778	-0.169	-0.244
-433.690	-60.987	-0.368	0.156
-432.676	800.000	0.125	-0.403
-431.661	-200.000	0.018	0.563
-430.646	-200.000	0.011	0.355
-429.632	-169.983	0.862	0.031
-428.617	-57.037	-0.213	-0.094
-427.603	800.000	0.147	0.411
-426.588	260.003	0.206	-0.357
-425.573	-80.921	0.622	-0.207
-424.559	-200.000	0.108	0.717
-423.544	46.559	-0.322	0.300
-422.530	-46.319	0.924	-0.456
-421.515	-119.179	1.050	-0.184
-420.500	36.928	-0.304	0.270
-419.486	-114.728	0.126	0.024
-418.471	408.421	0.230	-0.487
-417.457	-200.000	-0.083	-0.882
-416.442	-32.766	0.354	0.198
-415.428	58.518	-0.704	0.693
-414.413	-86.031	0.723	0.224
-413.398	591.901	-0.180	0.447
-412.384	52.399	-0.114	0.109
-411.369	265.801	-0.401	-0.702
-410.355	630.840	-0.111	0.282
-409.340	607.878	-0.017	-0.043
-408.325	-200.000	0.111	-0.544
-407.311	222.667	-0.251	-0.405
-406.296	-200.000	-0.004	-0.541
-405.282	-116.282	0.605	-0.112
-404.267	-124.111	0.415	0.065
-403.252	-146.276	-0.298	0.026
-402.238	120.905	0.213	-0.265
-401.223	-86.451	0.446	0.137
-400.209	-137.251	-0.094	-0.011
-399.194	-136.730	0.948	0.110
-398.179	-68.500	0.194	-0.075
-397.165	-119.070	0.538	0.094
-396.150	47.931	-0.207	-0.194
-395.136	21.118	0.481	0.391
-394.121	-63.349	-0.586	0.242
-393.106	226.229	-0.063	-0.102
-392.092	-181.925	0.379	0.007
-391.077	119.475	-0.319	-0.396
-390.063	-200.000	-0.036	-0.926
-389.048	62.205	-0.306	-0.306
-388.033	-61.843	0.392	-0.164
-387.019	301.851	-0.687	-1.273
-386.004	9.173	0.420	0.318
-384.990	-18.584	-0.599	0.375
-383.975	40.644	0.708	0.639
-382.960	-200.000	-0.021	-0.242
-381.946	505.534	0.172	-0.399
-380.931	466.274	-0.230	0.516
-379.917	-89.215	0.517	-0.153
-378.902	-200.000	-0.106	-0.599
-377.888	61.621	-0.177	-0.176
-376.873	106.764	-0.104	0.123
-375.858	-200.000	-0.028	-0.193
-374.844	415.410	-0.101	0.216
-373.829	690.427	-0.161	-0.423
-372.815	800.000	-0.156	-0.569
-371.800	-149.112	0.183	0.015
-370.785	518.908	-0.172	-0.405
-369.771	561.501	0.167	-0.404
-368.756	-200.000	0.045	0.609
-367.742	800.000	0.157	-0.490
-366.727	250.036	0.118	0.201
-365.712	-200.000	0.068	-0.697
-364.698	-62.030	1.168	0.488
-363.683	308.220	-0.254	-0.474
-362.669	-200.000	-0.000	0.623
-361.654	-117.078	-0.160	-0.029
-360.639	-66.760	-0.581	0.230
-359.625	-102.640	0.274	0.065
-358.610	800.000	-0.272	0.806
-357.596	-60.155	-0.182	-0.078
-356.581	417.159	-0.320	-0.683
-355.566	-69.388	0.525	-0.201
-354.552	-200.000	0.015	-0.519
-353.537	-59.103	1.077	0.465
-352.523	785.932	0.263	0.723
-351.508	21.891	0.129	-0.105
-350.493	-104.620	0.677	0.156
-349.479	361.417	-0.211	-0.424
-348.464	-11.737	0.625	0.410
-347.450	-200.000	0.036	-0.395
-346.435	-200.000	0.127	0.676
-345.420	140.419	0.333	0.440
-344.406	-200.000	-0.021	-0.215
-343.391	800.000	-0.242	0.706
-342.377	108.793	-0.246	-0.294
-341.362	800.000	-0.235	-1.013
-340.348	536.065	-0.192	0.455
-339.333	381.461	0.439	0.903
-338.318	-167.078	-0.624	0.025
-337.304	112.981	-0.139	0.169
-336.289	72.803	-0.503	-0.525
-335.275	68.872	-0.420	-0.431
-334.260	112.126	0.533	-0.645
-333.245	-82.418	0.566	-0.184
-332.231	-144.142	-1.334	-0.125
-331.216	715.620	0.275	-0.729
-330.202	-101.868	-0.416	-0.101
-329.187	800.000	-0.162	0.551
-328.172	-27.126	0.823	-0.480
-327.158	428.809	-0.282	-0.609
-326.143	-155.146	-0.835	0.055
-325.129	216.683	0.321	0.510
-324.114	469.205	-0.185	0.416
-323.099	-200.000	0.105	-0.599
-322.085	315.425	0.187	0.353
-321.070	-200.000	-0.021	0.853
-320.056	-200.000	-0.003	-0.197
-319.041	160.843	-0.467	0.652
-318.026	-200.000	0.023	0.388
-317.012	-75.133	-0.379	0.135
-315.997	596.382	0.082	-0.203
-314.983	-200.000	-0.109	-0.728
-313.968	800.000	0.257	-0.791
-312.953	140.354	-0.854	1.126
-311.939	-138.109	0.855	0.095
-310.924	-130.202	0.599	0.081
-309.910	-200.000	0.049	0.564
-308.895	22.219	0.239	0.195
-307.880	107.921	0.281	0.334
-306.866	433.188	0.320	-0.695
-305.851	25.609	0.156	0.130
-304.837	366.309	-0.218	0.439
-303.822	17.358	-0.589	0.467
-302.807	68.471	0.124	0.127
-301.793	84.027	0.510	0.557
-300.778	800.000	0.213	0.905
-299.764	-200.000	0.048	0.338
-298.749	58.370	0.126	0.124
-297.735	505.849	-0.081	-0.188
-296.720	4.607	0.685	0.502
-295.705	86.274	-0.613	-0.675
-294.691	425.210	-0.261	-0.561
-293.676	-200.000	0.111	-0.786
-292.662	130.793	-0.522	-0.669
-291.647	-200.000	0.006	0.404
-290.632	-200.000	-0.144	0.885
-289.618	-122.557	0.193	0.031
-288.603	-48.000	-0.516	0.249
-287.589	68.873	0.211	-0.217
-286.574	-136.551	-1.052	-0.122
-285.559	645.149	0.154	-0.393
-284.545	-55.746	0.447	0.200
-283.530	179.705	0.272	-0.398
-282.516	-88.922	0.430	0.127
-281.501	800.000	0.303	-1.022
-280.486	-47.770	-0.167	0.081
-279.472	-200.000	0.147	1.001
-278.457	124.075	-0.312	-0.391
-277.443	136.439	0.452	0.589
-276.428	93.467	-0.626	-0.707
-275.413	292.813	-0.109	0.197
-274.399	-54.953	-0.499	-0.225
-273.384	122.775	-0.370	0.462
-272.370	800.000	-0.108	-0.370
-271.355	800.000	0.127	0.541
-270.340	245.743	-0.219	-0.368
-269.326	159.242	0.543	0.753
-268.311	145.848	-0.727	0.973
-267.297	-53.699	-1.029	-0.469
-266.282	-61.659	-0.198	0.083
-265.267	-200.000	0.141	0.815
-264.253	-152.137	-0.518	0.037
-263.238	607.425	0.383	0.953
-262.224	-73.165	-0.584	0.213
-261.209	48.958	-0.537	0.503
-260.195	13.203	-0.295	0.228
-259.180	800.000	-0.056	0.174
-258.165	678.073	0.055	0.142
-257.151	56.604	-0.238	0.231
-256.136	-157.837	1.090	0.064
-255.122	-133.967	-0.268	-0.033
-254.107	228.427	-0.066	-0.107
-253.092	42.738	0.151	0.137
-252.078	-92.715	-0.282	0.079
-251.063	-200.000	0.035	0.672
-250.049	-55.654	-0.659	0.294
-249.034	-200.000	-0.060	-0.757
-248.019	153.654	-0.272	-0.371
-247.005	21.791	0.431	0.350
-245.990	79.201	0.600	0.641
-244.976	-6.436	0.571	-0.388
-243.961	458.857	-0.223	-0.494
-242.946	222.908	-0.365	0.587
-241.932	-37.927	0.334	0.177
-240.917	-75.313	-0.264	0.094
-239.903	162.407	0.205	0.286
-238.888	233.677	0.273	0.448
-237.873	47.751	0.757	0.704
-236.859	-22.017	-0.375	0.227
-235.844	-3.237	0.317	0.220
-234.830	128.690	0.076	-0.096
-233.815	-7.613	-0.351	0.236
-232.800	4.627	-0.449	0.329
-231.786	-40.364	-0.450	-0.233
-230.771	56.819	0.089	0.087
-229.757	-33.838	-0.563	0.309
-228.742	49.988	0.194	-0.182
-227.727	176.910	0.275	-0.399
-226.713	-78.273	0.418	-0.143
-225.698	-37.077	-0.263	-0.140
-224.684	99.116	0.456	-0.525
-223.669	-32.253	-0.684	0.380
-222.655	67.366	0.430	0.437
-221.640	16.475	-0.315	-0.247
-220.625	800.000	0.031	0.105
-219.611	-80.484	-0.567	0.188
-218.596	-47.897	-0.464	-0.224
-217.582	141.078	-0.211	-0.277
-216.567	-79.051	0.711	-0.240
-215.552	-200.000	0.119	0.776
-214.538	136.280	0.470	0.610
-213.523	18.648	-0.182	0.145
-212.509	196.000	-0.909	-1.376
-211.494	65.496	-0.108	-0.108
-210.479	-165.246	-0.435	0.019
-209.465	-200.000	0.167	1.163
-208.450	-200.000	0.094	0.511
-207.436	16.847	-0.508	0.400
-206.421	90.560	-0.318	-0.355
-205.406	100.684	0.285	-0.330
-204.392	-200.000	-0.001	-0.473
-203.377	800.000	0.145	0.530
-202.363	-129.143	-0.498	-0.069
-201.348	52.563	-0.403	-0.383
-200.333	-143.424	0.982	0.093
-199.319	-37.133	-0.792	-0.422
-198.304	-71.798	0.769	0.285
-197.290	-164.844	-0.588	0.026
-196.275	577.690	-0.097	0.236
-195.260	-69.124	-0.773	-0.296
-194.246	-64.800	0.546	-0.220
-193.231	418.595	0.445	-0.946
-192.217	800.000	0.177	-0.584
-191.202	-155.450	-0.708	0.046
-190.187	102.881	0.149	0.173
-189.173	247.708	-0.279	-0.469
-188.158	166.463	-0.200	-0.282
-187.144	7.082	0.653	0.484
-186.129	-21.500	-0.189	-0.115
-185.114	-127.260	0.656	0.095
-184.100	-12.369	0.605	-0.393
-183.085	656.195	0.277	-0.707
-182.071	-194.901	0.429	0.003
-181.056	-38.820	-0.757	-0.397
-180.042	-111.934	-0.248	-0.050
-179.027	159.364	-0.203	-0.281
-178.012	-53.460	-0.357	0.162
-176.998	0.802	-0.595	-0.424
-175.983	800.000	-0.247	-0.756
-174.969	616.424	0.223	0.556
-173.954	800.000	0.082	0.323
-172.939	-83.579	-0.694	-0.221
-171.925	-116.075	0.287	0.053
-170.910	-158.097	0.742	0.043
-169.896	-200.000	-0.071	1.197
-168.881	-101.653	0.155	-0.037
-167.866	-104.778	-0.451	0.103
-166.852	578.703	-0.336	0.816
-165.837	222.337	0.406	-0.650
-164.823	8.786	-0.263	0.197
-163.808	-200.000	-0.102	0.669
-162.793	800.000	-0.132	0.567
-161.779	247.381	0.209	0.351
-160.764	23.906	-0.630	0.516
-159.750	63.228	0.353	-0.352
-158.735	-13.278	-0.657	0.424
-157.720	292.646	-0.393	0.711
-156.706	-158.255	0.522	-0.030
-155.691	-4.669	0.532	-0.364
-154.677	539.902	0.297	-0.702
-153.662	-164.164	0.623	0.029
-152.647	800.000	-0.177	0.630
-151.633	4.230	-0.356	-0.259
-150.618	398.192	0.131	-0.273
-149.604	800.000	-0.187	-0.556
-148.589	80.932	0.407	0.436
-147.574	-17.781	-1.015	-0.633
-146.560	30.105	-0.707	0.599
-145.545	502.641	-0.327	-0.751
-144.531	79.786	0.213	0.227
-143.516	79.138	-0.611	0.649
-142.502	-73.939	0.403	-0.145
-141.487	290.510	-0.362	0.652
-140.472	151.077	0.170	-0.229
-139.458	473.343	0.159	0.356
-138.443	26.411	0.571	0.474
-137.429	-200.000	-0.147	1.020
-136.414	-8.255	-0.430	-0.287
-135.399	800.000	-0.068	0.288
-134.385	-107.585	-0.853	-0.185
-133.370	437.135	0.173	0.373
-132.356	800.000	-0.134	-0.407
-131.341	596.888	-0.218	-0.535
-130.326	131.914	0.438	0.559
-129.312	-103.478	-0.092	-0.021
-128.297	-38.881	0.469	0.245
-127.283	168.748	-0.616	-0.871
-126.268	800.000	0.195	0.726
-125.253	800.000	0.135	-0.401
-124.239	-84.667	-0.565	-0.177
-123.224	-82.682	-0.422	-0.136
-122.210	-87.427	0.490	-0.147
-121.195	800.000	-0.085	0.305
-120.180	-99.155	-0.415	-0.104
-119.166	104.921	-0.731	-0.855
-118.151	677.056	-0.075	0.192
-117.137	94.093	0.335	0.377
-116.122	164.878	0.318	0.445
-115.107	-200.000	-0.018	-0.518
-114.093	7.376	-0.520	0.385
-113.078	-100.653	0.313	-0.077
-112.064	800.000	0.158	-0.552
-111.049	-82.333	0.758	0.244
-110.034	-133.704	0.210	-0.026
-109.020	-200.000	-0.046	0.413
-108.005	159.459	-0.372	0.513
-106.991	800.000	0.098	-0.330
-105.976	63.460	-0.537	-0.534
-104.962	1.682	-0.544	-0.388
-103.947	-200.000	-0.153	0.848
-102.932	-50.798	0.496	0.231
-101.918	103.806	0.604	0.703
-100.903	-117.844	-0.411	0.073
-99.889	800.000	0.109	0.428
-98.874	200.674	0.051	0.077
-97.859	2.786	1.050	0.755
-96.845	222.170	-0.379	-0.604
-95.830	-22.520	-0.535	-0.321
-94.816	603.314	-0.248	-0.612
-93.801	-127.010	-0.085	0.012
-92.786	-20.879	0.131	-0.079
-91.772	35.644	0.339	0.295
-90.757	-0.938	-0.387	0.272
-89.743	315.069	0.572	1.068
-88.728	-200.000	-0.001	-0.380
-87.713	-117.711	1.239	0.221
-86.699	-99.098	-0.491	0.123
-85.684	-200.000	-0.040	-0.668
-84.670	175.741	0.287	0.412
-83.655	800.000	0.232	0.704
-82.640	-73.925	-0.662	-0.238
-81.626	46.980	-0.586	0.540
-80.611	800.000	0.164	-0.471
-79.597	-57.167	-0.139	0.061
-78.582	210.243	-0.441	0.685
-77.567	-39.310	0.401	0.208
-76.553	36.474	0.113	-0.099
-75.538	800.000	-0.111	0.364
-74.524	493.971	0.134	0.304
-73.509	-200.000	0.048	0.607
-72.494	-200.000	0.028	0.483
-71.480	-26.737	-0.440	-0.255
-70.465	800.000	-0.177	0.593
-69.451	62.343	0.153	-0.151
-68.436	-170.679	0.190	-0.006
-67.422	-31.710	0.424	0.235
-66.407	208.673	-0.368	0.570
-65.392	169.247	-0.289	-0.409
-64.378	92.928	-0.411	0.459
-63.363	-27.738	-0.723	0.415
-62.349	-93.999	0.256	-0.070
-61.334	-46.448	-0.903	-0.438
-60.319	-200.000	0.051	0.605
-59.305	-200.000	0.402	-1.927
-58.290	371.540	0.735	1.475
-57.276	800.000	0.481	1.686
-56.261	-200.000	94.440	589.225
-55.246	671.010	1350.386	3460.590
-54.232	200.953	2522.951	3839.555
-53.217	109.595	2278.228	2700.562
-52.203	39.222	2046.768	1811.594
-51.188	34.260	1961.957	1692.495
-50.173	32.888	1943.005	1664.001
-49.159	48.367	1994.723	1846.910
-48.144	48.528	2013.715	1865.860
-47.130	34.798	1975.879	1709.046
-46.115	32.795	1964.239	1681.087
-45.100	32.671	1960.663	1676.852
-44.086	32.506	1959.490	1674.315
-43.071	32.373	1957.915	1671.728
-42.057	32.243	1955.752	1668.657
-41.042	32.571	1951.770	1668.096
-40.027	32.589	1950.095	1666.757
-39.013	32.492	1950.124	1665.864
-37.998	32.408	1946.943	1662.337
-36.984	32.456	1945.283	1661.273
-35.969	32.439	1943.009	1659.120
-34.954	32.543	1942.354	1659.408
-33.940	32.492	1940.883	1657.638
-32.925	32.608	1939.342	1657.274
-31.911	32.568	1937.410	1655.204
-30.896	32.587	1936.145	1654.232
-29.881	32.681	1933.201	1652.474
-28.867	32.720	1931.425	1651.228
-27.852	32.790	1929.976	1650.542
-26.838	32.638	1928.613	1647.978
-25.823	32.583	1926.351	1645.504
-24.809	32.643	1925.170	1644.953
-23.794	32.633	1923.174	1643.095
-22.779	32.611	1921.277	1641.211
-21.765	32.583	1920.034	1639.844
-20.750	32.376	1919.430	1637.457
-19.736	32.470	1917.241	1636.344
-18.721	32.526	1915.675	1635.429
-17.706	32.604	1913.613	1634.284
-16.692	32.510	1912.030	1632.053
-15.677	32.651	1909.491	1631.036
-14.663	32.587	1909.491	1630.418
-13.648	32.654	1907.702	1629.407
-12.633	32.503	1906.639	1627.133
-11.619	32.697	1904.738	1627.113
-10.604	32.738	1904.483	1627.184
-9.590	32.390	1903.103	1622.941
-8.575	32.632	1901.408	1623.516
-7.560	32.436	1900.228	1620.756
-6.546	32.563	1898.379	1620.207
-5.531	32.547	1897.336	1619.116
-4.517	32.726	1895.493	1619.017
-3.502	32.611	1894.443	1617.069
-2.487	32.527	1893.762	1615.704
-1.473	32.613	1892.390	1615.209
-0.458	32.819	1888.173	1613.301
0.556	33.805	1867.728	1583.734
1.571	29.303	1849.292	1530.688
2.586	25.289	1871.440	1515.078
3.600	24.222	1907.403	1534.867
4.615	23.364	1901.204	1522.382
5.629	18.171	1800.469	1399.221
6.644	8.422	1683.825	1233.517
7.659	3.728	1646.211	1170.363
8.673	3.331	1642.304	1164.478
9.688	3.140	1642.147	1162.823
10.702	3.238	1641.131	1162.743
11.717	3.251	1636.683	1159.583
12.731	3.584	1636.997	1162.210
13.746	10.557	1651.673	1225.357
14.761	20.218	1673.852	1315.327
15.775	24.493	1682.247	1354.308
16.790	25.151	1681.007	1358.173
17.804	24.938	1679.128	1354.925
18.819	24.790	1678.173	1352.914
19.834	24.721	1677.086	1351.395
20.848	24.734	1676.553	1350.951
21.863	24.723	1675.594	1349.971
22.877	24.798	1674.529	1349.561
23.892	24.840	1674.115	1349.422
24.907	24.938	1673.223	1349.323
25.921	24.796	1672.249	1347.347
26.936	25.117	1670.619	1348.331
27.950	24.856	1669.958	1345.716
28.965	24.768	1669.640	1344.676
29.980	24.658	1669.985	1344.013
30.994	24.782	1667.454	1342.784
32.009	24.722	1666.862	1341.741
33.023	25.062	1665.901	1343.398
34.038	25.275	1663.374	1342.837
35.053	25.015	1663.155	1340.594
36.067	25.011	1662.255	1339.719
37.082	25.039	1661.325	1339.060
38.096	24.841	1661.510	1337.611
39.111	24.919	1659.278	1336.279
40.126	25.046	1659.218	1337.057
41.140	24.722	1659.301	1334.593
42.155	24.814	1657.189	1333.456
43.169	24.613	1656.036	1330.917
44.184	24.506	1654.459	1328.738
45.199	24.747	1652.025	1328.453
46.213	24.620	1652.057	1327.417
47.228	24.475	1652.035	1326.207
48.242	24.674	1650.039	1325.963
49.257	24.971	1650.104	1328.103
50.271	24.894	1648.740	1326.313
51.286	24.976	1646.910	1325.329
52.301	24.886	1645.029	1323.035
53.315	24.882	1645.418	1323.201
54.330	24.898	1643.116	1321.355
55.344	24.819	1641.172	1319.088
56.359	24.847	1640.730	1318.824
57.374	24.890	1639.660	1318.167
58.388	24.763	1638.933	1316.531
59.403	24.778	1637.200	1315.126
60.417	24.534	1636.919	1312.993
61.432	24.638	1634.365	1311.590
62.447	24.731	1633.841	1311.736
63.461	24.548	1632.072	1308.859
64.476	24.492	1630.791	1307.308
65.490	24.399	1631.110	1306.765
66.505	24.447	1630.245	1306.306
67.520	24.464	1628.320	1304.776
68.534	24.496	1627.886	1304.546
69.549	24.705	1625.904	1304.365
70.563	24.654	1626.187	1304.109
71.578	24.489	1625.636	1302.345
72.593	24.479	1623.580	1300.510
73.607	24.315	1623.918	1299.471
74.622	24.554	1621.020	1298.778
75.636	24.296	1621.081	1296.834
76.651	24.459	1620.054	1297.078
77.666	24.396	1618.704	1295.428
78.680	24.184	1618.690	1293.765
79.695	24.288	1618.210	1294.023
80.709	24.345	1616.827	1293.215
81.724	24.531	1615.749	1293.584
82.739	24.529	1616.114	1293.747
83.753	24.737	1614.479	1293.830
84.768	24.683	1614.383	1293.247
85.782	24.940	1613.843	1294.557
86.797	25.281	1612.439	1295.781
87.812	25.125	1611.286	1293.613
88.826	25.150	1611.402	1293.769
89.841	24.831	1610.553	1290.673
90.855	24.826	1609.354	1289.563
91.870	25.107	1607.705	1290.153
92.884	24.980	1606.994	1288.549
93.899	25.245	1606.749	1290.151
94.914	25.175	1604.689	1287.874
95.928	25.117	1603.714	1286.563
96.943	24.931	1603.603	1285.029
97.957	25.114	1601.199	1284.297
98.972	25.158	1600.342	1283.814
99.987	25.303	1597.810	1282.701
101.001	25.262	1597.154	1281.771
102.016	25.048	1595.940	1279.154
103.030	24.988	1594.147	1277.176
104.045	25.022	1594.039	1277.222
105.060	24.965	1592.165	1275.199
106.074	24.970	1590.709	1273.955
107.089	24.871	1589.824	1272.430
108.103	24.640	1587.716	1268.992
109.118	24.519	1586.998	1267.447
110.133	24.370	1585.258	1264.888
111.147	24.425	1584.894	1264.876
112.162	24.407	1584.106	1264.005
113.176	24.535	1581.648	1262.841
114.191	24.748	1580.107	1263.003
115.206	24.570	1580.074	1261.609
116.220	24.655	1578.979	1261.219
117.235	24.746	1577.414	1260.500
118.249	24.685	1576.674	1259.366
119.264	24.351	1575.146	1255.683
120.279	24.307	1573.835	1254.220
121.293	24.397	1572.773	1253.896
122.308	24.658	1571.106	1254.283
123.322	24.452	1569.797	1251.684
124.337	24.544	1568.535	1251.213
125.352	24.283	1567.534	1248.479
126.366	24.251	1566.429	1247.262
127.381	24.406	1566.027	1247.916
128.395	24.358	1564.732	1246.440
129.410	24.445	1562.656	1245.282
130.424	24.265	1561.783	1243.220
131.439	24.021	1561.836	1241.454
132.454	23.922	1560.576	1239.646
133.468	24.421	1558.609	1241.449
134.483	24.534	1557.306	1241.087
135.497	24.623	1556.779	1241.175
136.512	24.662	1555.934	1240.660
137.527	24.689	1553.822	1239.055
138.541	24.717	1552.161	1237.818
139.556	24.827	1551.235	1237.728
140.570	24.518	1550.466	1234.868
141.585	24.731	1549.434	1235.413
142.600	24.729	1549.620	1235.435
143.614	24.876	1548.250	1235.251
144.629	25.029	1546.658	1234.920
145.643	25.180	1545.388	1234.841
146.658	25.339	1544.122	1234.809
147.673	25.061	1543.454	1232.257
148.687	24.959	1541.891	1230.201
149.702	25.030	1539.806	1228.918
150.716	24.996	1539.268	1228.145
151.731	24.475	1537.915	1223.388
152.746	24.312	1536.026	1220.663
153.760	24.223	1535.654	1219.645
154.775	24.372	1535.260	1220.241
155.789	24.702	1533.271	1220.813
156.804	25.064	1532.622	1222.655
157.819	24.895	1531.441	1220.453
158.833	24.931	1530.534	1219.870
159.848	24.672	1530.240	1217.759
160.862	24.962	1528.934	1218.587
161.877	25.122	1527.088	1218.095
162.892	24.925	1527.577	1217.038
163.906	24.792	1525.747	1214.572
164.921	24.607	1525.009	1212.618
165.935	24.493	1523.148	1210.261
166.950	24.611	1522.453	1210.402
167.964	24.769	1521.129	1210.307
168.979	24.977	1520.496	1211.109
169.994	24.759	1519.434	1208.681
171.008	24.635	1518.812	1207.242
172.023	24.747	1516.781	1206.274
173.037	24.768	1516.000	1205.686
174.052	24.894	1515.214	1205.804
175.067	24.816	1515.042	1205.035
176.081	25.000	1513.375	1204.844
177.096	24.755	1511.842	1201.871
178.110	24.571	1510.773	1199.676
179.125	24.697	1510.176	1199.941
180.140	24.418	1509.281	1197.254
181.154	24.546	1508.559	1197.433
182.169	24.827	1508.156	1198.888
183.183	24.897	1506.216	1197.709
184.198	24.774	1504.876	1195.713
185.213	24.826	1504.911	1195.986
186.227	24.996	1503.072	1195.551
187.242	25.021	1502.637	1195.268
188.256	25.032	1501.893	1194.645
189.271	25.132	1500.359	1193.987
190.286	24.971	1500.545	1192.952
191.300	25.159	1499.544	1193.305
192.315	24.900	1498.497	1190.644
193.329	24.740	1497.216	1188.459
194.344	24.616	1496.320	1186.817
195.359	24.849	1495.762	1187.816
196.373	24.818	1494.099	1186.185
197.388	24.578	1492.221	1183.000
198.402	24.355	1491.288	1180.681
199.417	24.576	1490.342	1181.288
200.432	24.809	1490.656	1182.969
201.446	24.845	1490.642	1183.095
202.461	24.900	1489.902	1182.765
203.475	24.984	1488.143	1181.820
204.490	24.842	1487.573	1180.327
205.504	24.780	1486.591	1179.030
206.519	24.646	1485.613	1177.273
207.534	24.461	1483.738	1174.466
208.548	24.476	1482.001	1173.081
209.563	24.354	1481.662	1171.913
210.577	24.437	1480.881	1171.732
211.592	24.346	1480.185	1170.483
212.607	24.558	1478.081	1170.100
213.621	24.740	1479.482	1172.304
214.636	25.233	1477.475	1173.833
215.650	24.997	1477.463	1172.179
216.665	24.731	1476.192	1169.325
217.680	24.780	1476.290	1169.621
218.694	25.149	1474.708	1170.671
219.709	25.189	1474.919	1171.000
220.723	25.091	1473.118	1168.823
221.738	24.977	1471.680	1166.837
222.753	24.977	1471.174	1166.331
223.767	24.808	1470.341	1164.470
224.782	24.728	1469.694	1163.336
225.796	24.778	1468.806	1162.852
226.811	25.216	1468.173	1165.096
227.826	25.192	1467.628	1164.402
228.840	25.008	1467.059	1162.656
229.855	24.859	1466.154	1160.868
230.869	24.542	1464.751	1157.603
231.884	24.834	1462.887	1157.915
232.899	24.946	1461.622	1157.537
233.913	24.561	1461.158	1154.577
234.928	24.469	1459.542	1152.603
235.942	24.514	1458.441	1151.921
236.957	24.540	1457.528	1151.270
237.972	24.458	1455.701	1149.194
238.986	24.367	1455.429	1148.290
240.001	24.357	1454.127	1147.098
241.015	24.224	1453.523	1145.667
242.030	24.362	1451.851	1145.136
243.045	24.316	1452.040	1144.883
244.059	24.591	1450.266	1145.148
245.074	24.862	1450.146	1146.691
246.088	24.772	1450.034	1145.923
247.103	24.955	1449.138	1146.285
248.117	25.156	1448.169	1146.699
249.132	25.014	1448.563	1146.007
250.147	25.053	1448.170	1145.841
251.161	25.417	1447.583	1147.602
252.176	25.697	1446.378	1148.328
253.190	25.644	1446.406	1147.910
254.205	25.661	1444.998	1146.801
255.220	25.737	1443.458	1145.964
256.234	25.893	1443.209	1146.655
257.249	25.805	1442.976	1145.808
258.263	25.747	1443.652	1145.878
259.278	25.487	1441.662	1142.544
260.293	25.561	1440.067	1141.648
261.307	25.460	1439.810	1140.701
262.322	25.574	1439.599	1141.154
263.336	25.795	1437.820	1141.047
264.351	25.746	1436.485	1139.575
265.366	25.645	1436.632	1138.951
266.380	25.774	1434.772	1138.189
267.395	25.575	1435.163	1137.141
268.409	25.958	1433.226	1137.925
269.424	25.507	1432.082	1134.069
270.439	25.617	1430.634	1133.521
271.453	25.593	1430.205	1132.927
272.468	25.400	1430.627	1131.945
273.482	25.470	1429.091	1131.069
274.497	25.329	1427.559	1128.868
275.512	25.027	1426.852	1126.313
276.526	25.486	1425.846	1128.302
277.541	25.250	1425.366	1126.343
278.555	25.227	1424.586	1125.483
279.570	25.208	1422.872	1123.905
280.585	25.697	1422.202	1126.341
281.599	25.695	1422.534	1126.494
282.614	25.701	1421.034	1125.239
283.628	25.679	1419.581	1123.853
284.643	25.490	1418.932	1122.059
285.657	25.237	1418.790	1120.270
286.672	25.385	1417.070	1119.736
287.687	25.276	1416.409	1118.438
288.701	25.389	1414.951	1117.886
289.716	25.515	1414.605	1118.297
290.730	25.389	1414.284	1117.164
291.745	25.332	1413.039	1115.725
292.760	25.332	1412.559	1115.251
293.774	25.589	1410.370	1115.017
294.789	25.530	1409.442	1113.815
295.803	25.433	1410.421	1113.891
296.818	25.424	1410.280	1113.626
297.833	25.643	1409.096	1113.950
298.847	25.288	1408.613	1111.271
299.862	25.334	1406.928	1110.125
300.876	25.579	1404.953	1109.980
301.891	25.415	1404.347	1108.395
302.906	25.519	1402.658	1107.604
303.920	25.520	1403.446	1108.133
304.935	25.602	1403.859	1108.865
305.949	25.690	1402.171	1107.979
306.964	26.053	1401.277	1109.408
307.979	25.884	1400.673	1107.793
308.993	26.036	1399.673	1107.834
310.008	25.966	1398.078	1106.044
311.022	25.396	1398.560	1102.830
312.037	25.825	1396.306	1103.586
313.052	26.062	1395.105	1103.986
314.066	25.905	1393.670	1101.793
315.081	25.474	1393.852	1099.208
316.095	25.603	1391.692	1098.191
317.110	25.200	1390.569	1094.753
318.125	25.154	1389.995	1093.919
319.139	25.436	1389.282	1094.981
320.154	25.244	1387.893	1092.622
321.168	25.312	1387.546	1092.664
322.183	25.549	1386.104	1092.876
323.197	25.135	1385.608	1089.868
324.212	25.020	1385.975	1089.366
325.227	25.304	1384.656	1089.958
326.241	25.508	1383.206	1089.952
327.256	25.318	1383.316	1088.792
328.270	25.418	1382.884	1088.965
329.285	25.356	1380.714	1086.782
330.300	25.265	1379.932	1085.518
331.314	25.523	1379.619	1086.736
332.329	25.657	1378.600	1086.650
333.343	25.320	1377.158	1083.380
334.358	25.468	1375.983	1083.254
335.373	25.433	1375.887	1082.873
336.387	25.715	1376.026	1084.588
337.402	25.743	1374.688	1083.604
338.416	25.863	1375.023	1084.494
339.431	25.816	1373.702	1083.075
340.446	25.947	1373.303	1083.450
341.460	26.046	1372.224	1083.097
342.475	25.893	1372.209	1082.073
343.489	26.103	1371.638	1082.782
344.504	26.130	1370.740	1082.143
345.519	26.348	1369.484	1082.358
346.533	26.535	1368.048	1082.248
347.548	26.365	1367.816	1080.953
348.562	26.277	1366.712	1079.457
349.577	26.373	1366.168	1079.507
350.592	26.295	1364.501	1077.631
351.606	25.911	1364.665	1075.372
352.621	25.741	1363.018	1072.969
353.635	25.609	1362.117	1071.375
354.650	25.602	1361.461	1070.723
355.665	25.563	1360.514	1069.651
356.679	25.365	1359.837	1067.847
357.694	25.611	1358.615	1068.253
358.708	25.774	1356.597	1067.542
359.723	26.078	1355.179	1068.128
360.738	25.978	1354.390	1066.821
361.752	25.824	1353.990	1065.500
362.767	25.874	1352.832	1064.789
363.781	25.994	1350.854	1063.850
364.796	25.861	1350.517	1062.704
365.810	25.793	1350.969	1062.565
366.825	26.106	1350.757	1064.147
367.840	26.077	1350.991	1064.069
368.854	26.492	1348.661	1064.583
369.869	26.535	1348.309	1064.464
370.883	26.528	1348.339	1064.349
371.898	26.308	1346.714	1061.684
372.913	26.340	1345.768	1061.028
373.927	26.057	1344.686	1058.425
374.942	26.071	1344.991	1058.651
375.956	26.235	1344.691	1059.284
376.971	26.510	1342.931	1059.413
377.986	26.215	1342.327	1057.119
379.000	26.313	1340.647	1056.273
380.015	26.405	1340.666	1056.734
381.029	26.386	1340.154	1056.124
382.044	26.564	1339.726	1056.735
383.059	26.543	1339.428	1056.283
384.073	26.281	1338.469	1053.901
385.088	26.569	1337.108	1054.416
386.102	26.290	1337.908	1053.330
387.117	26.167	1337.884	1052.499
388.132	26.343	1336.381	1052.247
389.146	25.936	1334.312	1048.159
390.161	26.062	1333.084	1047.833
391.175	26.052	1331.813	1046.687
392.190	25.948	1332.121	1046.231
393.205	25.879	1331.395	1045.167
394.219	26.274	1330.676	1046.802
395.234	26.368	1330.504	1047.118
396.248	26.632	1327.269	1046.001
397.263	26.228	1326.659	1043.095
398.278	26.312	1324.214	1041.569
399.292	26.159	1323.542	1040.067
400.307	26.082	1322.586	1038.778
401.321	26.174	1322.656	1039.268
402.336	26.060	1321.682	1037.757
403.350	25.905	1320.153	1035.573
404.365	25.770	1319.031	1033.830
405.380	25.867	1318.835	1034.137
406.394	25.941	1318.613	1034.302
407.409	25.927	1318.054	1033.688
408.423	25.915	1317.890	1033.401
409.438	26.531	1316.658	1035.867
410.453	26.621	1316.259	1035.978
411.467	26.501	1315.865	1034.891
412.482	26.599	1314.764	1034.495
413.496	26.575	1314.574	1034.112
414.511	26.567	1314.018	1033.538
415.526	26.618	1313.160	1033.066
416.540	26.870	1312.112	1033.585
417.555	27.118	1311.496	1034.419
418.569	26.593	1311.577	1031.403
419.584	26.781	1310.352	1031.420
420.599	26.649	1309.167	1029.644
421.613	142.921	1435.610	1792.952
422.628	138.571	1453.974	1792.991
