DTS Sentinel unit serial number:	SN413079Multiplexer serial number:	ORYXHardware model number:	OX4-SRSoftware version number:	ORYX F/W v4.00 Oryx Data Collector v3.7.2.0data status	okinstallation	princeton_trtdifferential loss correction	single-endedforward channel	channel 4reverse channel	N/Adate	2019/09/19time	14:17:34forward acquisition time	60.00reverse acquisition time	0.00gamma	496.2192k internal	0.2307k external	0.2307temperature offset calibration	1.0021default loss term (dB/km)	0.3790temperature slope calibration	1.0000multiplexer offset coefficient	1.0000multiplexer slope coefficient	1.0000fibre end	0.00T internal ref (°C)	31.73T ext. ref 1 (°C)	1.04T ext. ref 2 (°C)	29.09length (m)	temperature (°C)	Stokes	anti-Stokes-747.200	181.415	-0.082	-0.122
-746.185	-200.000	0.074	0.402
-745.171	-78.966	0.229	-0.079
-744.156	800.000	-0.104	0.300
-743.142	-80.269	0.601	0.205
-742.127	-200.000	0.050	0.228
-741.112	-200.000	0.036	-0.206
-740.098	-58.064	-0.160	0.071
-739.083	-163.428	0.413	-0.020
-738.069	-115.450	-0.212	0.041
-737.054	-98.247	-0.111	0.029
-736.039	-58.755	-0.122	-0.054
-735.025	-140.752	-0.079	0.008
-734.010	246.199	-0.253	-0.434
-732.996	153.442	-0.063	-0.088
-731.981	-200.000	0.022	0.193
-730.966	485.998	-0.070	0.162
-729.952	427.748	0.190	-0.416
-728.937	-68.977	-0.280	-0.110
-727.923	138.011	-0.133	0.177
-726.908	-200.000	0.126	-0.000
-725.894	49.111	-0.380	-0.363
-724.879	34.826	-0.125	0.111
-723.864	-71.223	-0.369	0.141
-722.850	423.717	-0.061	0.134
-721.835	-154.963	-0.163	-0.011
-720.821	153.286	0.049	0.068
-719.806	-200.000	-0.001	-0.405
-718.791	59.959	0.053	-0.054
-717.777	800.000	0.037	-0.123
-716.762	176.181	-0.200	-0.294
-715.748	24.151	-0.187	-0.156
-714.733	-127.194	-0.168	0.025
-713.718	-85.518	0.218	-0.069
-712.704	208.999	0.116	-0.184
-711.689	800.000	0.130	0.490
-710.675	139.492	-0.130	0.173
-709.660	-200.000	-0.426	0.002
-708.645	-36.522	0.194	0.106
-707.631	198.608	0.174	-0.270
-706.616	-10.592	-0.193	-0.130
-705.602	800.000	0.068	0.295
-704.587	532.182	-0.073	0.175
-703.572	216.003	0.159	-0.256
-702.558	-135.226	0.174	0.021
-701.543	-102.483	-0.293	0.071
-700.529	-124.131	-0.276	0.044
-699.514	-88.569	-0.224	0.068
-698.499	360.476	0.213	0.433
-697.485	636.591	-0.065	-0.167
-696.470	-32.574	-0.098	0.056
-695.456	-200.000	0.018	0.149
-694.441	167.086	-0.158	-0.228
-693.426	-200.000	-0.008	-0.204
-692.412	262.716	0.154	0.271
-691.397	-110.416	0.324	0.068
-690.383	159.599	0.167	-0.235
-689.368	20.000	-0.134	-0.109
-688.354	-92.731	-0.210	-0.060
-687.339	-142.258	-0.382	-0.038
-686.324	26.343	0.139	0.118
-685.310	163.505	0.178	0.254
-684.295	-126.386	-0.054	0.008
-683.281	718.509	-0.163	-0.440
-682.266	-200.000	0.025	0.120
-681.251	40.996	-0.134	-0.123
-680.237	-200.000	-0.027	0.238
-679.222	-200.000	0.000	-0.104
-678.208	-200.000	-0.021	0.535
-677.193	392.249	0.084	0.177
-676.178	-200.000	-0.108	-0.487
-675.164	101.461	-0.153	0.180
-674.149	635.085	0.126	0.324
-673.135	-200.000	0.022	0.273
-672.120	800.000	0.099	0.283
-671.105	-200.000	-0.028	-0.164
-670.091	-63.827	0.240	-0.100
-669.076	-200.000	0.060	-0.361
-668.062	-186.729	-0.376	0.005
-667.047	-159.947	0.071	0.004
-666.032	28.574	0.057	-0.049
-665.018	468.332	-0.119	-0.270
-664.003	-100.551	-0.300	0.075
-662.989	-200.000	0.022	-0.118
-661.974	800.000	0.027	0.095
-660.959	800.000	0.040	0.149
-659.945	280.878	0.133	-0.241
-658.930	800.000	0.036	0.109
-657.916	-200.000	-0.015	-0.129
-656.901	61.509	-0.258	-0.260
-655.886	5.327	-0.229	-0.171
-654.872	800.000	-0.088	-0.301
-653.857	-200.000	0.000	0.173
-652.843	-200.000	-0.063	0.457
-651.828	-61.277	-0.091	0.039
-650.814	-43.953	0.300	0.153
-649.799	421.274	0.157	0.341
-648.784	18.308	-0.174	0.141
-647.770	-38.745	-0.027	-0.014
-646.755	496.005	-0.118	-0.275
-645.741	-18.683	-0.176	-0.111
-644.726	-75.518	-0.126	0.045
-643.711	-73.882	0.338	0.124
-642.697	-173.884	-0.151	0.005
-641.682	-200.000	0.006	0.113
-640.668	51.102	-0.079	-0.075
-639.653	165.276	-0.144	0.206
-638.638	334.147	-0.102	0.200
-637.624	27.174	0.099	0.084
-636.609	-136.201	-0.229	-0.027
-635.595	-186.031	-0.288	-0.004
-634.580	220.352	0.208	-0.338
-633.565	-179.776	-0.388	0.008
-632.551	182.563	-0.045	-0.067
-631.536	359.003	0.105	-0.212
-630.522	2.940	-0.036	0.027
-629.507	-114.325	-0.155	0.030
-628.492	-195.804	-0.523	-0.004
-627.478	-67.182	0.318	0.127
-626.463	74.626	-0.162	0.173
-625.449	332.885	0.010	0.020
-624.434	78.151	-0.107	0.116
-623.419	365.617	-0.072	0.147
-622.405	586.978	0.040	-0.100
-621.390	86.369	0.061	0.068
-620.376	-96.908	0.359	0.095
-619.361	0.167	0.108	0.078
-618.346	23.286	0.180	-0.149
-617.332	-200.000	0.010	-0.286
-616.317	387.881	-0.111	-0.233
-615.303	-200.000	-0.010	0.186
-614.288	-85.666	0.363	-0.114
-613.273	-44.950	-0.215	-0.108
-612.259	800.000	0.052	0.191
-611.244	-52.900	0.321	-0.150
-610.230	-92.592	-0.182	0.052
-609.215	-143.022	-0.106	0.010
-608.201	-75.781	0.120	0.043
-607.186	-159.666	0.321	-0.018
-606.171	133.894	-0.016	-0.021
-605.157	537.353	-0.070	-0.169
-604.142	401.202	0.086	-0.182
-603.128	-200.000	-0.028	-0.217
-602.113	-6.254	0.077	0.053
-601.098	59.437	-0.248	-0.247
-600.084	-134.865	0.252	0.031
-599.069	704.411	-0.041	-0.109
-598.055	-163.548	0.271	-0.013
-597.040	-37.368	0.004	-0.002
-596.025	-14.903	-0.230	-0.149
-595.011	183.615	0.140	0.209
-593.996	33.175	-0.155	-0.136
-592.982	-200.000	-0.004	-0.060
-591.967	-183.513	-0.224	0.004
-590.952	-134.869	0.107	0.013
-589.938	285.358	-0.065	0.119
-588.923	550.458	0.023	0.057
-587.909	-63.573	0.213	-0.088
-586.894	-79.660	0.305	-0.104
-585.879	-67.369	-0.293	0.117
-584.865	88.024	-0.193	-0.217
-583.850	-198.572	0.353	-0.002
-582.836	162.971	-0.122	0.174
-581.821	-124.575	-0.487	0.076
-580.806	-53.443	-0.479	-0.221
-579.792	109.441	-0.086	0.104
-578.777	-63.455	0.045	0.019
-577.763	289.134	0.050	0.092
-576.748	535.809	0.147	0.353
-575.733	-200.000	0.002	-0.343
-574.719	-148.258	-0.046	0.004
-573.704	-48.552	0.434	-0.211
-572.690	-185.880	0.276	-0.004
-571.675	61.153	-0.234	0.234
-570.661	-200.000	-0.027	0.183
-569.646	-152.760	-0.363	0.026
-568.631	800.000	-0.036	-0.136
-567.617	34.977	0.057	0.050
-566.602	213.445	-0.105	0.167
-565.588	-200.000	-0.053	-0.314
-564.573	-53.157	0.067	-0.031
-563.558	-200.000	0.000	0.036
-562.544	382.047	0.099	-0.205
-561.529	-88.616	0.447	-0.134
-560.515	246.815	-0.171	-0.291
-559.500	-200.000	0.007	-0.161
-558.485	-112.151	-0.340	0.069
-557.471	9.778	0.213	-0.163
-556.456	588.633	0.102	0.254
-555.442	11.937	-0.130	-0.101
-554.427	800.000	0.089	0.277
-553.412	-200.000	0.005	0.216
-552.398	-60.472	-0.114	-0.049
-551.383	800.000	-0.087	0.292
-550.369	-200.000	0.013	-0.332
-549.354	-86.017	0.319	0.100
-548.339	583.230	-0.112	-0.278
-547.325	777.874	0.047	0.129
-546.310	162.472	0.143	-0.202
-545.296	2.008	-0.062	-0.045
-544.281	-158.875	0.062	-0.004
-543.266	-200.000	0.009	0.449
-542.252	126.082	0.254	0.324
-541.237	-107.985	-0.030	-0.007
-540.223	36.407	0.021	0.019
-539.208	285.552	-0.045	-0.082
-538.193	-127.412	0.041	-0.006
-537.179	-200.000	-0.019	-0.175
-536.164	-32.543	0.212	-0.119
-535.150	-120.475	0.363	-0.062
-534.135	-151.126	0.278	-0.021
-533.121	219.498	-0.086	-0.138
-532.106	800.000	0.041	0.178
-531.091	-22.229	-0.250	0.153
-530.077	429.925	-0.013	-0.029
-529.062	497.044	0.040	-0.092
-528.048	-15.132	0.380	0.245
-527.033	447.006	0.060	-0.133
-526.018	-27.433	0.219	-0.128
-525.004	-30.736	-0.459	-0.262
-523.989	51.596	-0.058	0.056
-522.975	-24.719	-0.222	-0.133
-521.960	800.000	-0.019	-0.057
-520.945	77.280	-0.060	-0.064
-519.931	-81.530	0.187	-0.062
-518.916	-37.339	-0.076	-0.041
-517.902	-9.677	-0.044	0.030
-516.887	432.449	-0.146	0.318
-515.872	-6.938	-0.185	-0.127
-514.858	-100.337	-0.267	0.067
-513.843	-106.959	0.146	-0.032
-512.829	-139.620	-0.144	-0.016
-511.814	52.791	0.128	0.123
-510.799	-200.000	0.013	-0.247
-509.785	-171.165	-0.309	-0.011
-508.770	-11.548	-0.230	0.152
-507.756	196.139	-0.092	-0.140
-506.741	-120.726	0.082	-0.014
-505.726	800.000	0.125	-0.495
-504.712	77.905	0.162	-0.174
-503.697	-27.812	0.250	0.146
-502.683	-107.013	0.172	-0.038
-501.668	57.512	-0.201	0.197
-500.653	-24.445	0.397	-0.238
-499.639	-114.280	0.129	-0.025
-498.624	-200.000	-0.002	0.263
-497.610	800.000	-0.094	0.337
-496.595	261.764	0.040	-0.070
-495.581	800.000	-0.068	-0.230
-494.566	567.830	-0.015	0.037
-493.551	-192.650	-0.098	0.001
-492.537	-99.848	-0.297	-0.075
-491.522	-44.558	0.231	0.116
-490.508	-24.940	-0.259	0.155
-489.493	60.076	-0.164	0.163
-488.478	-70.323	-0.130	0.050
-487.464	568.116	-0.033	0.080
-486.449	-57.142	-0.149	-0.066
-485.435	17.388	0.286	-0.229
-484.420	-140.842	-0.092	0.010
-483.405	-5.033	-0.187	-0.130
-482.391	21.468	0.273	0.224
-481.376	249.612	-0.061	-0.104
-480.362	121.240	0.210	0.263
-479.347	-200.000	-0.063	0.322
-478.332	-47.228	-0.234	-0.115
-477.318	-200.000	0.022	-0.405
-476.303	188.137	-0.057	-0.085
-475.289	144.587	-0.234	-0.315
-474.274	1.654	-0.311	0.226
-473.259	-200.000	-0.037	0.198
-472.245	800.000	-0.071	-0.309
-471.230	-200.000	0.028	-0.152
-470.216	-200.000	-0.011	0.243
-469.201	-200.000	0.021	-0.126
-468.186	173.135	-0.079	0.115
-467.172	110.335	0.079	-0.096
-466.157	-198.596	0.587	0.003
-465.143	55.384	0.247	0.241
-464.128	-200.000	-0.032	0.483
-463.113	800.000	0.120	0.383
-462.099	-200.000	-0.005	-0.060
-461.084	6.336	-0.213	-0.159
-460.070	155.628	-0.189	-0.261
-459.055	800.000	-0.081	0.297
-458.040	-112.243	-0.401	-0.081
-457.026	28.137	-0.343	-0.291
-456.011	-154.968	-0.326	0.022
-454.997	-196.590	-0.288	0.002
-453.982	800.000	0.031	-0.134
-452.968	-17.107	-0.222	-0.141
-451.953	-119.602	-0.349	0.061
-450.938	800.000	-0.027	0.091
-449.924	-142.618	0.332	-0.033
-448.909	-111.475	-0.205	0.042
-447.895	55.825	0.211	-0.206
-446.880	-200.000	-0.042	0.323
-445.865	232.801	-0.042	0.069
-444.851	186.938	0.019	0.029
-443.836	131.649	0.154	-0.199
-442.822	40.303	-0.221	-0.200
-441.807	190.807	0.048	-0.073
-440.792	314.824	0.067	-0.127
-439.778	-200.000	-0.010	0.121
-438.763	-102.430	0.227	-0.055
-437.749	-158.550	-0.083	0.005
-436.734	128.685	0.178	0.228
-435.719	-4.784	-0.259	0.179
-434.705	-104.310	-0.111	-0.026
-433.690	75.333	-0.109	-0.116
-432.676	67.476	0.164	-0.168
-431.661	363.251	0.067	-0.135
-430.646	-200.000	-0.040	0.249
-429.632	38.457	0.263	0.235
-428.617	-200.000	0.024	0.143
-427.603	-59.808	0.078	0.034
-426.588	-63.349	-0.210	-0.087
-425.573	177.907	-0.192	0.281
-424.559	740.547	-0.018	0.048
-423.544	-200.000	-0.034	-0.253
-422.530	438.289	0.143	0.313
-421.515	800.000	0.111	0.316
-420.500	-121.149	-0.385	-0.065
-419.486	-200.000	0.016	-0.444
-418.471	-19.514	-0.115	-0.072
-417.457	-152.103	-0.233	-0.017
-416.442	44.748	-0.168	-0.155
-415.428	-197.358	0.316	0.002
-414.413	-142.213	0.376	-0.037
-413.398	13.607	0.104	-0.081
-412.384	-130.109	-0.169	0.023
-411.369	800.000	0.049	0.153
-410.355	159.235	-0.180	0.251
-409.340	-106.594	-0.227	-0.051
-408.325	90.340	-0.097	-0.109
-407.311	-200.000	0.004	0.265
-406.296	38.867	-0.163	-0.146
-405.282	360.377	-0.155	0.312
-404.267	402.944	-0.042	0.088
-403.252	-113.922	-0.176	-0.034
-402.238	-185.123	-0.397	-0.006
-401.223	800.000	-0.037	0.127
-400.209	-200.000	0.039	-0.369
-399.194	96.449	-0.079	0.091
-398.179	-200.000	0.023	0.318
-397.165	42.948	-0.195	-0.178
-396.150	39.139	0.248	0.222
-395.136	-12.575	0.086	0.056
-394.121	800.000	-0.044	0.166
-393.106	-200.000	-0.043	-0.337
-392.092	-29.773	-0.152	0.087
-391.077	14.422	-0.215	-0.168
-390.063	174.027	-0.133	0.193
-389.048	624.987	-0.076	0.193
-388.033	-200.000	-0.014	0.155
-387.019	-43.227	0.253	0.129
-386.004	-143.123	-0.164	0.016
-384.990	-200.000	0.012	-0.122
-383.975	102.112	0.076	-0.089
-382.960	-43.025	-0.188	-0.096
-381.946	800.000	0.088	0.309
-380.931	-3.909	0.310	-0.216
-379.917	20.652	0.135	-0.110
-378.902	263.513	-0.161	-0.281
-377.888	-77.820	-0.264	-0.092
-376.873	800.000	-0.034	0.107
-375.858	-61.132	0.345	0.146
-374.844	-48.369	0.208	0.101
-373.829	800.000	0.055	-0.233
-372.815	-108.111	0.273	-0.059
-371.800	-114.733	-0.087	-0.017
-370.785	131.053	-0.060	0.077
-369.771	-200.000	0.006	-0.232
-368.756	231.130	0.182	0.299
-367.742	-200.000	-0.009	-0.091
-366.727	-105.460	-0.205	-0.047
-365.712	465.869	0.049	-0.110
-364.698	23.656	0.294	-0.243
-363.683	-37.247	0.229	-0.123
-362.669	130.687	0.128	-0.165
-361.654	800.000	-0.107	0.341
-360.639	156.777	-0.080	0.110
-359.625	-200.000	0.003	0.082
-358.610	47.080	-0.168	0.157
-357.596	223.473	0.131	-0.212
-356.581	-102.955	0.131	-0.031
-355.566	-200.000	0.011	-0.148
-354.552	-133.213	-0.249	0.032
-353.537	97.180	0.263	-0.302
-352.523	33.843	0.190	-0.165
-351.508	585.297	-0.072	-0.178
-350.493	79.891	-0.080	-0.086
-349.479	291.012	0.100	0.182
-348.464	-118.094	0.204	0.036
-347.450	-144.876	0.131	-0.012
-346.435	717.606	0.117	0.311
-345.420	-200.000	-0.017	-0.163
-344.406	800.000	-0.095	0.412
-343.391	334.936	0.087	-0.168
-342.377	-92.612	-0.251	0.070
-341.362	-113.152	-0.277	0.055
-340.348	-41.695	-0.214	0.110
-339.333	58.904	0.098	0.097
-338.318	248.907	0.179	-0.303
-337.304	-200.000	0.040	-0.182
-336.289	-170.581	-0.310	-0.011
-335.275	-106.391	-0.080	-0.018
-334.260	77.166	0.065	0.069
-333.245	176.305	-0.061	0.089
-332.231	470.154	-0.149	-0.334
-331.216	459.397	0.068	-0.151
-330.202	-59.155	0.076	-0.033
-329.187	-61.445	-0.284	0.119
-328.172	215.590	-0.344	0.546
-327.158	800.000	0.026	-0.077
-326.143	-200.000	0.012	-0.080
-325.129	800.000	0.022	-0.063
-324.114	800.000	-0.010	-0.036
-323.099	-138.184	-0.231	0.026
-322.085	-116.102	-0.226	-0.042
-321.070	423.461	0.054	0.117
-320.056	-69.951	0.228	-0.087
-319.041	226.006	-0.183	0.296
-318.026	329.322	0.021	0.040
-317.012	-40.675	0.262	-0.136
-315.997	-31.417	-0.080	-0.045
-314.983	318.658	-0.110	-0.208
-313.968	494.016	0.143	-0.328
-312.953	30.136	0.145	0.124
-311.939	709.763	0.055	0.146
-310.924	-200.000	0.017	-0.264
-309.910	-200.000	-0.024	-0.129
-308.895	99.692	0.073	-0.084
-307.880	24.267	-0.112	0.092
-306.866	109.568	0.144	0.173
-305.851	-200.000	-0.032	0.232
-304.837	-148.382	-0.312	-0.026
-303.822	596.669	-0.073	-0.180
-302.807	-200.000	0.013	0.069
-301.793	-18.720	0.129	-0.081
-300.778	800.000	-0.045	0.187
-299.764	-144.185	-0.207	0.019
-298.749	800.000	-0.084	-0.310
-297.735	-134.962	0.493	0.060
-296.720	-40.185	-0.235	-0.122
-295.705	-71.405	-0.112	0.042
-294.691	-15.562	-0.158	-0.101
-293.676	284.004	-0.183	-0.330
-292.662	-200.000	-0.035	-0.306
-291.647	-102.309	0.099	-0.024
-290.632	153.970	0.227	-0.312
-289.618	-200.000	-0.046	-0.329
-288.603	-34.774	0.196	-0.107
-287.589	-110.999	0.076	-0.016
-286.574	384.363	0.097	-0.199
-285.559	-186.588	0.268	-0.004
-284.545	-147.181	-0.343	-0.029
-283.530	-200.000	-0.097	0.433
-282.516	-76.584	0.078	-0.027
-281.501	-150.344	0.261	-0.020
-280.486	133.449	0.082	-0.106
-279.472	-200.000	-0.016	-0.257
-278.457	378.092	0.070	0.143
-277.443	206.754	0.178	0.277
-276.428	-70.342	-0.293	-0.111
-275.413	309.330	0.077	-0.144
-274.399	-51.197	0.338	-0.158
-273.384	800.000	-0.039	-0.114
-272.370	250.277	-0.127	0.215
-271.355	227.505	0.191	-0.310
-270.340	121.733	-0.100	-0.124
-269.326	160.132	0.234	-0.326
-268.311	800.000	-0.081	0.260
-267.297	-24.092	0.223	0.133
-266.282	6.191	0.126	0.094
-265.267	-200.000	-0.005	-0.111
-264.253	105.946	0.079	0.093
-263.238	-166.859	-0.280	0.011
-262.224	-10.768	0.021	0.014
-261.209	-200.000	0.041	0.351
-260.195	24.138	-0.058	0.048
-259.180	-15.220	0.218	0.139
-258.165	165.974	-0.372	-0.525
-257.151	-200.000	0.006	-0.382
-256.136	347.263	-0.118	-0.231
-255.122	175.464	-0.104	0.150
-254.107	265.091	0.068	-0.118
-253.092	-48.877	-0.224	0.107
-252.078	-105.791	-0.209	0.047
-251.063	-48.757	0.215	-0.103
-250.049	-56.360	0.137	-0.061
-249.034	-200.000	-0.062	0.476
-248.019	183.449	-0.087	-0.129
-247.005	308.356	-0.158	0.294
-245.990	-12.360	0.353	0.230
-244.976	-29.105	0.228	-0.130
-243.961	50.270	-0.196	0.184
-242.946	745.980	0.105	0.281
-241.932	-200.000	0.007	0.310
-240.917	-175.001	0.311	0.009
-239.903	-35.366	-0.059	-0.032
-238.888	800.000	-0.061	-0.253
-237.873	800.000	0.046	0.183
-236.859	361.561	-0.028	-0.056
-235.844	-200.000	0.022	0.188
-234.830	137.817	-0.051	0.067
-233.815	80.870	0.180	0.194
-232.800	-7.236	0.278	-0.188
-231.786	800.000	0.081	-0.244
-230.771	137.326	0.130	-0.170
-229.757	525.424	0.036	0.083
-228.742	96.881	-0.087	0.099
-227.727	-200.000	-0.036	-0.190
-226.713	12.929	-0.247	0.190
-225.698	-200.000	-0.031	0.225
-224.684	-65.652	0.191	0.076
-223.669	-197.782	0.268	-0.002
-222.655	31.002	-0.195	0.167
-221.640	-16.666	-0.046	-0.029
-220.625	-128.887	0.312	0.044
-219.611	-54.790	0.319	0.143
-218.596	-121.072	-0.186	0.031
-217.582	-39.898	-0.224	0.117
-216.567	-15.556	-0.341	0.217
-215.552	139.471	0.336	0.441
-214.538	7.908	0.151	0.113
-213.523	42.033	0.160	0.145
-212.509	-121.478	-0.274	0.045
-211.494	18.381	-0.257	-0.204
-210.479	-17.506	0.245	0.153
-209.465	86.908	0.290	-0.319
-208.450	-17.030	-0.134	-0.084
-207.436	166.249	0.052	0.073
-206.421	23.883	0.367	0.301
-205.406	55.369	-0.189	-0.182
-204.392	52.947	0.135	0.129
-203.377	-117.294	0.076	0.014
-202.363	-200.000	0.363	-0.001
-201.348	22.411	0.249	-0.203
-200.333	800.000	-0.090	-0.362
-199.319	10.155	-0.099	-0.075
-198.304	6.641	0.233	-0.173
-197.290	42.319	-0.209	0.189
-196.275	118.151	-0.056	-0.069
-195.260	-20.685	0.202	-0.123
-194.246	800.000	0.082	0.262
-193.231	-71.670	0.174	-0.065
-192.217	-200.000	0.042	0.324
-191.202	1.619	0.129	0.092
-190.187	152.692	-0.023	-0.031
-189.173	800.000	-0.028	0.088
-188.158	-200.000	-0.077	-0.351
-187.144	49.320	-0.121	-0.114
-186.129	-178.311	-0.112	-0.003
-185.114	106.895	-0.086	-0.102
-184.100	348.145	0.080	0.157
-183.085	-155.930	-0.037	-0.002
-182.071	63.882	0.206	-0.206
-181.056	-63.113	0.451	0.185
-180.042	-200.000	-0.003	-0.110
-179.027	800.000	0.069	-0.285
-178.012	-179.792	0.149	-0.003
-176.998	12.940	-0.203	-0.156
-175.983	1.226	0.148	0.105
-174.969	65.643	0.232	0.233
-173.954	188.672	0.311	0.463
-172.939	33.308	-0.273	0.236
-171.925	196.939	-0.059	-0.089
-170.910	-135.202	0.240	-0.029
-169.896	-10.373	0.181	0.119
-168.881	-200.000	0.018	0.149
-167.866	638.783	0.060	-0.152
-166.852	800.000	-0.084	0.284
-165.837	-52.090	0.152	-0.070
-164.823	800.000	-0.063	0.227
-163.808	778.182	-0.065	0.176
-162.793	-154.003	0.248	0.017
-161.779	-21.748	0.112	0.068
-160.764	-200.000	0.077	0.571
-159.750	-200.000	-0.007	-0.206
-158.735	-0.923	-0.291	-0.205
-157.720	-82.793	-0.196	-0.063
-156.706	-8.075	0.406	0.272
-155.691	800.000	-0.057	-0.161
-154.677	-77.661	-0.400	-0.138
-153.662	800.000	0.050	-0.154
-152.647	800.000	-0.044	0.126
-151.633	444.263	0.017	0.038
-150.618	116.924	-0.292	-0.356
-149.604	0.294	-0.355	-0.252
-148.589	44.893	0.496	0.454
-147.574	89.736	0.121	-0.134
-146.560	800.000	-0.065	-0.253
-145.545	-70.607	0.191	-0.072
-144.531	-200.000	-0.030	-0.470
-143.516	-119.665	-0.179	0.031
-142.502	-144.622	-0.235	-0.021
-141.487	-103.315	0.314	0.074
-140.472	424.773	0.156	0.334
-139.458	244.273	0.161	0.269
-138.443	-51.722	0.197	-0.091
-137.429	-200.000	-0.058	0.649
-136.414	80.384	0.063	0.068
-135.399	-113.481	0.094	0.018
-134.385	-200.000	-0.004	-0.147
-133.370	17.040	0.174	-0.137
-132.356	81.214	0.159	0.170
-131.341	159.526	0.131	0.181
-130.326	800.000	-0.032	-0.136
-129.312	112.864	0.227	-0.273
-128.297	15.726	-0.192	0.150
-127.283	-21.024	-0.302	0.184
-126.268	-58.887	-0.170	-0.073
-125.253	231.479	0.070	-0.114
-124.239	718.590	0.130	-0.344
-123.224	-109.667	-0.258	-0.054
-122.210	-105.620	0.195	-0.044
-121.195	35.382	0.186	-0.162
-120.180	14.059	0.169	0.131
-119.166	-100.781	-0.110	0.027
-118.151	-32.824	0.145	0.080
-117.137	458.813	-0.011	-0.023
-116.122	800.000	0.016	-0.047
-115.107	170.945	0.180	0.257
-114.093	800.000	0.064	0.251
-113.078	-95.514	0.333	-0.089
-112.064	-55.142	0.195	-0.087
-111.049	800.000	0.075	-0.237
-110.034	-61.260	0.090	0.038
-109.020	800.000	0.008	-0.029
-108.005	63.330	-0.098	-0.097
-106.991	-2.591	0.202	0.140
-105.976	55.072	-0.219	-0.210
-104.962	373.137	0.127	-0.257
-103.947	51.660	0.145	0.137
-102.932	800.000	-0.124	-0.398
-101.918	-200.000	-0.039	-0.276
-100.903	94.058	0.091	-0.103
-99.889	124.526	-0.106	0.132
-98.874	192.689	-0.188	0.282
-97.859	41.351	0.040	0.035
-96.845	-40.279	0.151	0.078
-95.830	-4.495	0.232	-0.159
-94.816	800.000	0.066	0.248
-93.801	-200.000	-0.032	0.155
-92.786	9.961	-0.094	-0.071
-91.772	-200.000	0.018	0.085
-90.757	-64.100	0.058	0.023
-89.743	222.559	0.119	-0.191
-88.728	-108.967	-0.248	0.052
-87.713	-150.335	0.398	0.030
-86.699	228.657	-0.095	0.154
-85.684	800.000	-0.128	0.432
-84.670	45.115	-0.111	0.102
-83.655	182.354	0.067	0.099
-82.640	155.315	0.134	0.183
-81.626	744.566	0.129	0.344
-80.611	150.802	0.144	0.195
-79.597	-71.526	0.141	0.052
-78.582	-147.142	0.278	0.023
-77.567	800.000	-0.015	-0.055
-76.553	800.000	0.070	-0.262
-75.538	-106.334	0.159	0.035
-74.524	-186.580	0.247	0.003
-73.509	-153.936	0.204	0.014
-72.494	-70.169	0.267	0.101
-71.480	175.127	-0.038	-0.055
-70.465	145.027	0.083	0.109
-69.451	-200.000	-0.031	0.247
-68.436	3.260	0.045	-0.033
-67.422	176.027	-0.043	0.062
-66.407	-87.794	0.217	0.065
-65.392	-120.046	0.278	-0.047
-64.378	-67.446	0.207	0.081
-63.363	800.000	0.162	0.485
-62.349	89.656	0.176	-0.195
-61.334	130.747	-0.754	-0.957
-60.319	414.364	0.295	0.623
-59.305	800.000	-0.327	-1.353
-58.290	226.800	0.540	0.869
-57.276	-200.000	0.243	1.393
-56.261	-200.000	93.633	565.846
-55.246	501.857	1402.951	3207.924
-54.232	149.172	2619.606	3508.993
-53.217	100.676	2364.649	2719.552
-52.203	38.371	2122.427	1871.745
-51.188	33.318	2036.274	1749.148
-50.173	31.909	2017.587	1720.116
-49.159	46.774	2065.485	1899.127
-48.144	47.808	2083.772	1925.466
-47.130	34.176	2046.606	1765.713
-46.115	31.692	2036.392	1733.870
-45.100	31.638	2033.702	1731.011
-44.086	31.582	2031.411	1728.476
-43.071	31.586	2028.037	1725.568
-42.057	31.537	2026.101	1723.399
-41.042	31.546	2024.012	1721.637
-40.027	31.641	2021.344	1720.180
-39.013	31.699	2019.611	1719.166
-37.998	31.655	2018.465	1717.720
-36.984	31.623	2016.133	1715.367
-35.969	31.742	2013.857	1714.460
-34.954	31.657	2012.161	1712.163
-33.940	31.775	2010.717	1711.949
-32.925	31.775	2009.584	1710.912
-31.911	31.782	2007.355	1709.017
-30.896	31.846	2005.480	1707.933
-29.881	31.716	2004.760	1706.067
-28.867	31.822	2002.980	1705.452
-27.852	31.871	2000.338	1703.577
-26.838	31.803	1998.525	1701.351
-25.823	31.751	1996.564	1699.140
-24.809	31.720	1995.167	1697.603
-23.794	31.735	1993.265	1696.054
-22.779	31.719	1991.677	1694.488
-21.765	31.715	1989.745	1692.745
-20.750	31.714	1988.225	1691.372
-19.736	31.746	1986.479	1690.114
-18.721	31.709	1984.797	1688.283
-17.706	31.799	1983.166	1687.638
-16.692	31.751	1981.446	1685.676
-15.677	31.700	1979.804	1683.754
-14.663	31.697	1978.772	1682.779
-13.648	31.735	1977.372	1681.865
-12.633	31.808	1975.867	1681.168
-11.619	31.798	1974.586	1679.921
-10.604	31.705	1973.518	1678.117
-9.590	31.724	1972.020	1676.946
-8.575	31.724	1970.809	1675.853
-7.560	31.712	1969.399	1674.474
-6.546	31.793	1968.079	1674.010
-5.531	31.688	1967.257	1672.309
-4.517	31.799	1965.148	1671.440
-3.502	31.739	1964.491	1670.275
-2.487	31.764	1962.659	1668.877
-1.473	31.821	1961.941	1668.709
-0.458	31.868	1957.717	1665.463
0.556	31.159	1937.937	1641.446
1.571	27.227	1918.601	1590.607
2.586	22.923	1940.964	1570.824
3.600	21.315	1975.362	1583.959
4.615	20.177	1969.058	1568.470
5.629	15.359	1865.589	1444.531
6.644	6.444	1742.896	1277.403
7.659	1.518	1703.856	1209.554
8.673	1.036	1700.773	1203.431
9.688	1.071	1699.680	1202.830
10.702	1.118	1697.993	1201.904
11.717	0.955	1694.674	1198.159
12.731	1.406	1693.744	1200.964
13.746	7.229	1706.497	1256.173
14.761	14.472	1721.568	1324.905
15.775	17.360	1724.536	1350.032
16.790	17.440	1724.091	1350.195
17.804	16.514	1721.164	1340.444
18.819	15.575	1717.629	1330.142
19.834	14.922	1715.305	1323.064
20.848	14.626	1713.169	1318.960
21.863	14.387	1711.455	1315.638
22.877	14.150	1710.512	1312.928
23.892	13.912	1708.801	1309.616
24.907	13.766	1707.717	1307.526
25.921	13.812	1706.299	1306.680
26.936	13.813	1704.693	1305.343
27.950	13.813	1704.485	1305.068
28.965	13.770	1704.100	1304.319
29.980	13.842	1703.521	1304.329
30.994	13.905	1701.884	1303.455
32.009	14.059	1700.478	1303.467
33.023	13.997	1700.473	1302.865
34.038	13.994	1699.633	1302.080
35.053	13.980	1698.536	1301.016
36.067	13.986	1697.388	1300.071
37.082	13.988	1695.859	1298.796
38.096	13.944	1695.088	1297.751
39.111	13.900	1694.663	1296.968
40.126	13.984	1693.506	1296.624
41.140	13.966	1692.916	1295.915
42.155	13.845	1691.758	1293.972
43.169	13.871	1689.995	1292.712
44.184	13.813	1688.985	1291.368
45.199	13.800	1687.437	1289.975
46.213	13.793	1686.622	1289.181
47.228	13.780	1685.330	1287.977
48.242	13.805	1683.738	1286.839
49.257	13.876	1682.520	1286.345
50.271	13.834	1681.248	1284.939
51.286	13.872	1679.937	1284.114
52.301	13.854	1679.023	1283.166
53.315	13.817	1677.645	1281.713
54.330	13.876	1675.671	1280.540
55.344	13.863	1673.835	1278.927
56.359	13.844	1672.432	1277.598
57.374	13.806	1671.540	1276.507
58.388	13.800	1670.563	1275.601
59.403	13.820	1669.088	1274.515
60.417	13.795	1667.134	1272.724
61.432	13.791	1665.997	1271.714
62.447	13.788	1664.677	1270.567
63.461	13.793	1663.449	1269.557
64.476	13.707	1662.855	1268.333
65.490	13.596	1662.427	1267.044
66.505	13.702	1660.265	1266.093
67.520	13.760	1659.536	1265.869
68.534	13.735	1658.664	1264.902
69.549	13.804	1657.154	1264.164
70.563	13.800	1655.689	1262.906
71.578	13.776	1654.549	1261.743
72.593	13.717	1653.517	1260.395
73.607	13.694	1652.389	1259.245
74.622	13.705	1651.127	1258.258
75.636	13.724	1650.470	1257.789
76.651	13.663	1649.373	1256.381
77.666	13.637	1648.538	1255.435
78.680	13.702	1646.920	1254.584
79.695	13.667	1646.999	1254.267
80.709	13.701	1645.593	1253.342
81.724	13.691	1644.956	1252.674
82.739	13.740	1643.901	1252.125
83.753	13.817	1642.581	1251.592
84.768	13.862	1641.630	1251.095
85.782	13.925	1640.570	1250.653
86.797	13.894	1639.528	1249.515
87.812	13.879	1639.010	1248.895
88.826	13.794	1637.682	1247.131
89.841	13.770	1636.789	1246.165
90.855	13.769	1635.547	1245.097
91.870	13.928	1634.320	1245.245
92.884	13.899	1633.665	1244.423
93.899	13.869	1632.408	1243.126
94.914	13.831	1631.221	1241.835
95.928	13.947	1629.951	1241.619
96.943	14.059	1627.661	1240.605
97.957	13.950	1626.549	1238.832
98.972	13.949	1625.149	1237.648
99.987	13.815	1624.193	1235.815
101.001	13.925	1621.835	1234.726
102.016	13.833	1620.620	1233.015
103.030	13.923	1618.561	1232.001
104.045	13.938	1617.510	1231.208
105.060	13.910	1616.192	1229.889
106.074	13.833	1614.858	1228.196
107.089	13.892	1613.197	1227.260
108.103	13.786	1611.810	1225.307
109.118	13.774	1610.234	1223.915
110.133	13.804	1609.047	1223.128
111.147	13.797	1607.334	1221.662
112.162	13.783	1606.138	1220.546
113.176	13.820	1604.628	1219.559
114.191	13.836	1603.178	1218.467
115.206	13.824	1602.176	1217.511
116.220	13.897	1601.143	1217.155
117.235	13.847	1599.649	1215.539
118.249	13.820	1598.653	1214.482
119.264	13.818	1597.030	1213.129
120.279	13.810	1595.570	1211.852
121.293	13.820	1593.952	1210.588
122.308	13.777	1592.188	1208.829
123.322	13.890	1590.763	1208.459
124.337	13.762	1589.990	1206.838
125.352	13.778	1588.055	1205.377
126.366	13.752	1586.926	1204.222
127.381	13.853	1585.685	1203.908
128.395	13.822	1584.978	1203.039
129.410	13.797	1583.256	1201.445
130.424	13.845	1581.576	1200.410
131.439	13.892	1580.434	1199.777
132.454	13.996	1578.808	1199.188
133.468	13.920	1577.395	1197.461
134.483	13.916	1575.756	1196.081
135.497	13.873	1574.614	1194.798
136.512	13.826	1573.594	1193.581
137.527	13.980	1571.519	1193.009
138.541	13.918	1570.657	1191.808
139.556	13.884	1569.179	1190.333
140.570	13.902	1567.578	1189.144
141.585	13.980	1565.957	1188.364
142.600	14.028	1565.018	1187.889
143.614	14.035	1563.748	1186.872
144.629	13.999	1562.438	1185.515
145.643	14.096	1560.992	1185.007
146.658	14.247	1559.656	1184.963
147.673	14.033	1558.659	1182.576
148.687	14.115	1556.979	1181.780
149.702	14.045	1555.711	1180.214
150.716	14.005	1553.671	1178.282
151.731	14.033	1552.700	1177.641
152.746	13.988	1551.576	1176.366
153.760	14.048	1549.712	1175.270
154.775	14.029	1548.466	1174.091
155.789	14.132	1546.982	1173.588
156.804	14.180	1545.781	1172.911
157.819	14.123	1544.703	1171.588
158.833	14.151	1543.433	1170.712
159.848	14.190	1542.223	1169.965
160.862	14.257	1540.897	1169.328
161.877	14.287	1539.561	1168.422
162.892	14.223	1538.452	1167.027
163.906	14.191	1536.932	1165.546
164.921	14.131	1536.069	1164.369
165.935	14.153	1534.673	1163.365
166.950	14.147	1534.074	1162.763
167.964	14.226	1532.794	1162.245
168.979	14.254	1531.261	1161.172
169.994	14.280	1530.067	1160.345
171.008	14.251	1529.250	1159.424
172.023	14.215	1528.369	1158.404
173.037	14.263	1527.277	1157.808
174.052	14.283	1525.974	1156.854
175.067	14.341	1524.547	1156.072
176.081	14.379	1523.330	1155.308
177.096	14.228	1522.077	1153.211
178.110	14.215	1520.951	1152.170
179.125	14.282	1520.189	1151.950
180.140	14.294	1518.688	1150.793
181.154	14.290	1517.815	1150.004
182.169	14.348	1516.261	1149.126
183.183	14.364	1515.145	1148.288
184.198	14.416	1514.162	1147.797
185.213	14.519	1512.489	1147.139
186.227	14.438	1511.574	1145.785
187.242	14.482	1510.715	1145.333
188.256	14.477	1509.780	1144.493
189.271	14.517	1508.468	1143.672
190.286	14.471	1507.355	1142.412
191.300	14.463	1506.347	1141.490
192.315	14.380	1505.033	1139.827
193.329	14.322	1503.620	1138.259
194.344	14.359	1502.418	1137.498
195.359	14.438	1501.227	1137.035
196.373	14.432	1500.484	1136.330
197.388	14.429	1499.432	1135.412
198.402	14.558	1498.297	1135.334
199.417	14.455	1497.142	1133.658
200.432	14.586	1495.646	1133.315
201.446	14.630	1494.758	1132.838
202.461	14.579	1494.088	1131.886
203.475	14.641	1492.693	1131.150
204.490	14.716	1491.641	1130.755
205.504	14.772	1490.474	1130.152
206.519	14.653	1489.550	1128.550
207.534	14.713	1488.093	1127.749
208.548	14.677	1487.283	1126.792
209.563	14.619	1486.411	1125.639
210.577	14.671	1485.013	1124.831
211.592	14.736	1484.021	1124.417
212.607	14.722	1483.627	1123.926
213.621	14.766	1482.934	1123.597
214.636	14.775	1482.155	1122.967
215.650	14.697	1480.611	1121.174
216.665	14.804	1479.702	1121.106
217.680	14.773	1479.084	1120.333
218.694	14.825	1478.176	1119.895
219.709	14.929	1476.703	1119.372
220.723	14.884	1476.052	1118.480
221.738	14.949	1475.016	1118.030
222.753	14.889	1474.372	1117.041
223.767	14.884	1473.283	1116.088
224.782	14.939	1472.391	1115.678
225.796	14.944	1471.289	1114.781
226.811	14.945	1470.442	1114.043
227.826	14.997	1469.245	1113.387
228.840	15.013	1468.538	1112.857
229.855	15.110	1467.603	1112.696
230.869	14.967	1467.094	1111.258
231.884	15.019	1465.855	1110.566
232.899	15.012	1464.345	1109.283
233.913	15.002	1463.341	1108.356
234.928	14.978	1462.435	1107.415
235.942	14.949	1461.255	1106.228
236.957	14.993	1459.700	1105.243
237.972	14.990	1458.911	1104.532
238.986	15.031	1457.556	1103.675
240.001	15.089	1456.274	1102.989
241.015	15.121	1455.294	1102.358
242.030	15.104	1453.877	1101.076
243.045	15.025	1453.794	1100.399
244.059	15.187	1452.472	1100.365
245.074	15.154	1451.717	1099.479
246.088	15.142	1450.820	1098.623
247.103	15.145	1450.533	1098.327
248.117	15.266	1449.085	1097.930
249.132	15.169	1448.544	1096.784
250.147	15.273	1447.710	1096.735
251.161	15.285	1447.537	1096.586
252.176	15.300	1446.763	1096.004
253.190	15.395	1445.579	1095.629
254.205	15.400	1444.388	1094.659
255.220	15.427	1443.778	1094.281
256.234	15.474	1443.131	1094.000
257.249	15.477	1442.207	1093.221
258.263	15.517	1441.356	1092.738
259.278	15.602	1440.053	1092.208
260.293	15.460	1439.244	1090.571
261.307	15.516	1438.500	1090.274
262.322	15.558	1438.028	1090.093
263.336	15.615	1437.083	1089.651
264.351	15.615	1436.210	1088.894
265.366	15.671	1434.902	1088.165
266.380	15.606	1433.964	1086.938
267.395	15.737	1432.864	1086.858
268.409	15.634	1432.375	1085.721
269.424	15.768	1431.341	1085.712
270.439	15.717	1430.063	1084.313
271.453	15.783	1429.096	1083.908
272.468	15.712	1428.284	1082.745
273.482	15.742	1427.429	1082.191
274.497	15.735	1426.859	1081.621
275.512	15.722	1425.618	1080.500
276.526	15.726	1424.863	1079.854
277.541	15.752	1423.683	1079.034
278.555	15.770	1422.828	1078.403
279.570	15.760	1422.486	1077.989
280.585	15.768	1421.279	1077.029
281.599	15.798	1420.471	1076.512
282.614	15.851	1419.606	1076.103
283.628	15.847	1418.183	1074.901
284.643	15.754	1417.536	1073.722
285.657	15.881	1416.095	1073.342
286.672	15.957	1415.006	1072.908
287.687	15.871	1414.828	1072.129
288.701	15.904	1413.177	1070.994
289.716	15.942	1412.608	1070.709
290.730	15.873	1411.875	1069.621
291.745	15.982	1410.729	1069.349
292.760	15.974	1409.961	1068.621
293.774	16.012	1409.052	1068.080
294.789	16.002	1407.981	1067.109
295.803	16.078	1407.198	1066.903
296.818	16.133	1406.236	1066.430
297.833	15.976	1405.095	1064.478
298.847	16.102	1403.735	1064.149
299.862	16.066	1402.898	1063.194
300.876	16.096	1401.927	1062.553
301.891	16.078	1401.534	1062.044
302.906	16.092	1400.539	1061.286
303.920	16.112	1400.116	1060.999
304.935	16.202	1398.764	1060.445
305.949	16.129	1398.412	1059.623
306.964	16.260	1397.154	1059.402
307.979	16.299	1396.306	1058.911
308.993	16.289	1395.022	1057.776
310.008	16.401	1393.897	1057.533
311.022	16.401	1393.043	1056.790
312.037	16.416	1391.614	1055.706
313.052	16.478	1391.170	1055.664
314.066	16.425	1390.202	1054.504
315.081	16.406	1389.133	1053.485
316.095	16.354	1388.175	1052.340
317.110	16.371	1387.115	1051.549
318.125	16.283	1386.433	1050.393
319.139	16.310	1385.695	1049.909
320.154	16.425	1384.052	1049.280
321.168	16.377	1382.928	1048.040
322.183	16.430	1382.199	1047.726
323.197	16.342	1381.693	1046.700
324.212	16.442	1380.348	1046.208
325.227	16.420	1379.923	1045.656
326.241	16.439	1379.068	1045.037
327.256	16.554	1377.571	1044.520
328.270	16.569	1376.456	1043.675
329.285	16.521	1376.442	1043.274
330.300	16.445	1375.515	1042.013
331.314	16.452	1374.380	1041.104
332.329	16.499	1373.445	1040.592
333.343	16.583	1372.332	1040.174
334.358	16.510	1371.877	1039.284
335.373	16.529	1371.132	1038.748
336.387	16.617	1369.886	1038.254
337.402	16.587	1369.216	1037.465
338.416	16.545	1368.779	1036.785
339.431	16.572	1368.552	1036.686
340.446	16.573	1367.719	1035.975
341.460	16.687	1366.160	1035.399
342.475	16.711	1365.369	1034.852
343.489	16.712	1364.459	1034.075
344.504	16.794	1362.965	1033.353
345.519	16.800	1362.696	1033.098
346.533	16.831	1361.493	1032.280
347.548	16.834	1360.864	1031.730
348.562	16.876	1359.905	1031.170
349.577	16.910	1358.882	1030.507
350.592	16.927	1358.224	1030.022
351.606	16.823	1357.377	1028.656
352.621	16.897	1356.098	1028.041
353.635	16.874	1355.199	1027.131
354.650	16.868	1354.379	1026.382
355.665	16.811	1353.706	1025.440
356.679	16.919	1351.956	1024.677
357.694	16.904	1351.180	1023.903
358.708	17.045	1349.658	1023.509
359.723	17.017	1348.741	1022.559
360.738	17.001	1347.858	1021.700
361.752	16.965	1346.894	1020.663
362.767	17.007	1345.822	1020.012
363.781	16.986	1345.020	1019.188
364.796	16.991	1344.604	1018.813
365.810	17.019	1343.692	1018.202
366.825	17.129	1342.471	1017.846
367.840	17.084	1341.804	1016.976
368.854	17.100	1341.257	1016.569
369.869	17.102	1340.879	1016.207
370.883	17.275	1340.051	1016.521
371.898	17.216	1338.944	1015.242
372.913	17.141	1338.637	1014.467
373.927	17.132	1337.682	1013.602
374.942	17.315	1336.629	1013.804
375.956	17.189	1336.213	1012.652
376.971	17.227	1334.989	1011.856
377.986	17.114	1334.616	1010.815
379.000	17.281	1333.089	1010.559
380.015	17.254	1332.379	1009.774
381.029	17.370	1331.485	1009.695
382.044	17.309	1331.070	1008.929
383.059	17.421	1330.455	1009.034
384.073	17.375	1329.866	1008.225
385.088	17.459	1328.965	1007.955
386.102	17.350	1328.650	1006.983
387.117	17.448	1327.861	1006.874
388.132	17.526	1326.793	1006.433
389.146	17.340	1326.338	1004.904
390.161	17.421	1325.180	1004.413
391.175	17.531	1324.020	1004.097
392.190	17.570	1323.208	1003.622
393.205	17.486	1322.705	1002.652
394.219	17.520	1321.319	1001.712
395.234	17.540	1320.233	1000.919
396.248	17.553	1319.100	1000.050
397.263	17.575	1317.473	998.854
398.278	17.617	1316.137	998.002
399.292	17.667	1315.022	997.363
400.307	17.669	1314.276	996.720
401.321	17.554	1313.243	995.174
402.336	17.570	1312.275	994.449
403.350	17.599	1311.383	993.852
404.365	17.664	1310.496	993.471
405.380	17.624	1309.342	992.274
406.394	17.710	1308.163	991.791
407.409	17.796	1307.725	991.875
408.423	17.723	1307.242	990.994
409.438	17.801	1306.394	990.716
410.453	17.778	1305.966	990.170
411.467	17.778	1304.853	989.240
412.482	17.806	1304.555	989.087
413.496	17.835	1303.913	988.686
414.511	17.885	1302.923	988.133
415.526	17.994	1301.837	987.853
416.540	17.902	1301.499	986.977
417.555	17.962	1300.787	986.696
418.569	17.877	1300.145	985.634
419.584	18.033	1299.375	985.863
420.599	17.945	1298.977	984.964
421.613	94.090	1353.195	1460.977
422.628	92.566	1361.037	1461.061
