DTS Sentinel unit serial number:	SN413079Multiplexer serial number:	ORYXHardware model number:	OX4-SRSoftware version number:	ORYX F/W v4.00 Oryx Data Collector v3.7.2.0data status	okinstallation	princeton_trtdifferential loss correction	single-endedforward channel	channel 4reverse channel	N/Adate	2019/09/15time	05:17:35forward acquisition time	60.00reverse acquisition time	0.00gamma	496.2192k internal	0.2312k external	0.2312temperature offset calibration	1.0034default loss term (dB/km)	0.3790temperature slope calibration	1.0000multiplexer offset coefficient	1.0000multiplexer slope coefficient	1.0000fibre end	0.00T internal ref (°C)	30.62T ext. ref 1 (°C)	4.80T ext. ref 2 (°C)	25.51length (m)	temperature (°C)	Stokes	anti-Stokes-747.200	-200.000	-0.037	0.209
-746.185	131.996	-0.211	0.275
-745.171	-131.040	0.188	-0.025
-744.156	-24.438	-0.281	0.170
-743.142	-102.344	-0.180	0.044
-742.127	-145.515	-0.122	-0.011
-741.112	-200.000	0.022	-0.225
-740.098	71.724	0.111	0.117
-739.083	136.522	-0.058	-0.077
-738.069	72.950	-0.259	0.275
-737.054	-200.000	-0.023	-0.250
-736.039	141.552	-0.142	-0.191
-735.025	-9.365	0.107	-0.072
-734.010	-108.561	-0.305	-0.067
-732.996	640.888	0.100	-0.258
-731.981	-92.051	-0.349	-0.100
-730.966	40.914	0.255	0.234
-729.952	77.624	0.139	-0.150
-728.937	15.771	-0.371	-0.296
-727.923	-97.818	-0.181	-0.047
-726.908	18.226	0.158	-0.128
-725.894	164.995	0.035	0.051
-724.879	-115.770	-0.175	-0.033
-723.864	-126.098	-0.092	-0.014
-722.850	800.000	0.088	-0.259
-721.835	-149.457	0.435	0.035
-720.821	-140.405	0.355	0.038
-719.806	154.553	-0.118	-0.165
-718.791	225.215	0.146	0.240
-717.777	-59.579	0.228	-0.099
-716.762	122.764	-0.131	0.166
-715.748	800.000	0.084	0.348
-714.733	-200.000	0.012	0.113
-713.718	-65.302	-0.169	-0.069
-712.704	147.017	0.156	0.212
-711.689	-200.000	0.003	-0.269
-710.675	137.419	0.054	-0.071
-709.660	393.370	-0.095	-0.201
-708.645	800.000	-0.093	0.282
-707.631	-8.892	0.232	0.158
-706.616	93.772	0.085	-0.098
-705.602	800.000	0.063	0.267
-704.587	-200.000	-0.040	-0.250
-703.572	-200.000	-0.062	-0.319
-702.558	-100.784	-0.209	-0.052
-701.543	734.838	-0.106	-0.288
-700.529	-200.000	-0.006	-0.176
-699.514	-88.703	0.240	0.072
-698.499	280.562	0.116	-0.210
-697.485	2.875	-0.156	-0.114
-696.470	103.782	0.181	0.215
-695.456	11.853	0.087	0.068
-694.441	344.090	0.146	-0.291
-693.426	715.247	-0.104	-0.280
-692.412	394.038	-0.085	-0.180
-691.397	-170.005	-0.329	-0.012
-690.383	-74.329	0.240	0.088
-689.368	261.872	0.108	-0.190
-688.354	-77.396	-0.107	0.038
-687.339	186.407	-0.080	0.121
-686.324	90.184	-0.104	-0.117
-685.310	350.010	-0.182	-0.365
-684.295	-161.859	0.340	-0.017
-683.281	127.284	-0.014	-0.018
-682.266	-200.000	-0.063	0.409
-681.251	53.741	-0.185	-0.180
-680.237	23.120	-0.163	-0.135
-679.222	18.481	-0.117	-0.095
-678.208	101.457	-0.135	-0.159
-677.193	800.000	0.091	0.356
-676.178	101.902	-0.212	-0.251
-675.164	15.453	-0.282	0.224
-674.149	95.286	-0.069	-0.080
-673.135	114.592	0.043	-0.053
-672.120	-149.582	-0.389	-0.031
-671.105	214.282	0.131	-0.209
-670.091	-200.000	0.030	-0.217
-669.076	-48.747	0.033	0.016
-668.062	384.034	0.166	-0.345
-667.047	-184.930	-0.205	-0.003
-666.032	-200.000	0.068	0.417
-665.018	165.641	0.156	-0.224
-664.003	104.326	0.049	0.058
-662.989	-63.884	0.374	0.155
-661.974	-34.812	0.315	-0.174
-660.959	800.000	0.070	-0.265
-659.945	800.000	0.056	-0.232
-658.930	-50.950	0.112	-0.053
-657.916	-92.737	0.191	0.054
-656.901	-91.182	-0.248	-0.072
-655.886	422.471	-0.023	-0.049
-654.872	-58.241	-0.234	0.103
-653.857	-138.818	0.046	-0.005
-652.843	-66.999	0.244	0.097
-651.828	-139.696	-0.526	-0.057
-650.814	50.840	0.145	0.139
-649.799	433.516	0.092	-0.201
-648.784	800.000	0.030	0.122
-647.770	-70.177	0.455	0.175
-646.755	137.916	-0.165	-0.218
-645.741	-41.474	-0.234	0.122
-644.726	-83.364	0.166	0.054
-643.711	-150.393	0.257	-0.020
-642.697	-56.269	-0.143	-0.064
-641.682	61.852	0.027	-0.027
-640.668	-32.066	0.243	0.137
-639.653	-38.780	-0.217	0.116
-638.638	112.009	-0.256	0.313
-637.624	800.000	-0.077	-0.258
-636.609	-137.007	-0.455	0.053
-635.595	133.253	-0.064	0.083
-634.580	156.866	0.232	0.325
-633.565	-200.000	-0.016	-0.211
-632.551	-200.000	0.022	0.163
-631.536	-76.418	-0.139	0.049
-630.522	-200.000	0.032	-0.181
-629.507	232.321	0.140	-0.232
-628.492	-68.207	0.144	-0.057
-627.478	-200.000	0.002	0.133
-626.463	-50.680	-0.083	0.040
-625.449	98.482	0.070	-0.081
-624.434	186.142	-0.362	-0.544
-623.419	539.274	-0.097	-0.233
-622.405	-20.994	-0.295	0.182
-621.390	219.445	0.169	0.274
-620.376	-27.553	-0.182	-0.107
-619.361	-45.933	-0.112	-0.056
-618.346	-49.438	-0.340	-0.164
-617.332	-200.000	-0.005	0.217
-616.317	443.941	-0.153	-0.338
-615.303	-84.110	-0.377	-0.121
-614.288	160.542	-0.178	-0.251
-613.273	266.056	-0.052	-0.092
-612.259	-149.679	-0.440	0.035
-611.244	-86.949	-0.165	-0.051
-610.230	5.697	0.423	-0.316
-609.215	-70.761	0.237	-0.090
-608.201	800.000	-0.060	-0.194
-607.186	-159.970	-0.064	-0.004
-606.171	2.015	-0.071	0.051
-605.157	-53.883	-0.073	0.034
-604.142	-96.016	-0.257	-0.069
-603.128	-200.000	-0.049	-0.554
-602.113	222.305	0.128	-0.208
-601.098	42.852	0.269	-0.248
-600.084	-200.000	-0.037	-0.316
-599.069	253.117	0.116	-0.200
-598.055	-83.627	-0.039	0.012
-597.040	-73.534	-0.312	-0.115
-596.025	368.494	-0.119	-0.242
-595.011	58.108	-0.212	-0.210
-593.996	180.236	0.193	-0.286
-592.982	-109.136	-0.196	0.042
-591.967	-13.418	0.194	-0.127
-590.952	-103.497	0.192	-0.045
-589.938	-200.000	-0.005	-0.096
-588.923	800.000	-0.038	0.114
-587.909	86.767	0.087	0.097
-586.894	-178.612	-0.128	0.003
-585.879	56.520	-0.032	0.032
-584.865	163.091	0.255	-0.362
-583.850	103.263	0.133	-0.158
-582.836	-60.544	-0.317	-0.136
-581.821	-143.977	0.291	-0.028
-580.806	-6.422	-0.117	0.080
-579.792	572.125	0.080	-0.196
-578.777	-0.815	0.049	-0.035
-577.763	-200.000	0.048	0.221
-576.748	113.086	0.119	-0.146
-575.733	456.039	0.106	0.236
-574.719	90.427	-0.054	-0.061
-573.704	577.325	-0.097	0.240
-572.690	-176.293	0.259	-0.007
-571.675	800.000	0.036	-0.159
-570.661	-60.575	-0.183	-0.078
-569.646	242.615	-0.046	-0.078
-568.631	142.476	0.086	0.115
-567.617	-136.026	-0.210	-0.025
-566.602	-200.000	-0.008	0.341
-565.588	-116.794	-0.408	-0.075
-564.573	-55.057	-0.092	-0.042
-563.558	-128.749	0.332	-0.047
-562.544	-106.774	0.286	-0.064
-561.529	-200.000	-0.009	0.046
-560.515	-35.853	-0.279	-0.152
-559.500	226.547	-0.070	0.115
-558.485	-21.613	-0.138	0.085
-557.471	-98.182	-0.184	0.048
-556.456	-120.290	0.143	-0.025
-555.442	-94.833	-0.338	0.092
-554.427	-133.862	0.268	0.034
-553.412	-20.422	-0.341	0.211
-552.398	-39.544	-0.125	-0.066
-551.383	-160.491	-0.198	-0.011
-550.369	-93.268	-0.231	0.064
-549.354	-200.000	-0.080	-0.418
-548.339	-31.719	-0.160	0.091
-547.325	800.000	-0.086	-0.279
-546.310	-42.120	0.246	-0.127
-545.296	-200.000	-0.077	0.388
-544.281	-200.000	-0.015	-0.219
-543.266	800.000	0.105	-0.380
-542.252	-81.777	-0.255	0.084
-541.237	-11.579	0.036	-0.024
-540.223	174.231	-0.112	0.163
-539.208	-77.308	0.190	0.067
-538.193	113.400	-0.138	-0.169
-537.179	172.456	0.064	-0.093
-536.164	-141.732	-0.214	-0.022
-535.150	-140.848	-0.282	-0.029
-534.135	-157.522	-0.285	-0.017
-533.121	800.000	-0.106	-0.326
-532.106	480.364	-0.122	-0.279
-531.091	800.000	0.039	0.116
-530.077	46.778	-0.140	-0.131
-529.062	-196.628	0.180	-0.001
-528.048	800.000	-0.027	0.099
-527.033	48.276	0.152	-0.143
-526.018	-85.851	0.186	0.058
-525.004	-125.264	0.141	-0.022
-523.989	-170.870	-0.155	0.005
-522.975	318.797	0.126	0.240
-521.960	411.741	0.120	0.255
-520.945	383.233	0.158	0.328
-519.931	77.800	-0.090	-0.096
-518.916	800.000	0.107	-0.445
-517.902	-40.755	-0.112	0.058
-516.887	-48.964	0.142	-0.068
-515.872	27.148	-0.137	0.116
-514.858	-45.381	-0.223	0.111
-513.843	278.049	-0.075	-0.135
-512.829	-200.000	-0.043	0.319
-511.814	122.372	-0.150	0.188
-510.799	69.169	-0.065	0.067
-509.785	-147.705	-0.102	-0.009
-508.770	-200.000	0.003	-0.444
-507.756	-57.473	0.209	-0.092
-506.741	581.707	0.059	0.147
-505.726	-35.145	0.133	0.073
-504.712	-138.944	0.074	-0.008
-503.697	200.429	-0.166	-0.256
-502.683	31.955	0.114	-0.099
-501.668	-68.401	-0.488	-0.190
-500.653	105.428	0.238	0.282
-499.639	-149.601	0.071	-0.006
-498.624	587.318	-0.044	0.108
-497.610	-159.837	-0.304	0.017
-496.595	-39.151	0.116	-0.061
-495.581	-156.399	-0.064	0.004
-494.566	-200.000	0.089	0.394
-493.551	-85.471	-0.140	-0.044
-492.537	-200.000	-0.053	-0.296
-491.522	670.563	-0.050	-0.131
-490.508	-116.525	-0.155	-0.029
-489.493	176.697	0.316	-0.462
-488.478	296.999	0.034	-0.063
-487.464	15.732	0.223	0.176
-486.449	405.535	-0.181	-0.383
-485.435	-77.808	0.205	-0.071
-484.420	57.494	0.090	0.088
-483.405	5.296	0.194	-0.143
-482.391	-200.000	0.002	0.032
-481.376	800.000	0.107	0.449
-480.362	753.772	-0.162	-0.440
-479.347	-200.000	-0.044	-0.277
-478.332	-50.862	-0.317	0.150
-477.318	-18.777	0.385	0.241
-476.303	-200.000	0.065	0.344
-475.289	582.600	-0.097	-0.240
-474.274	100.660	0.238	0.278
-473.259	70.433	-0.030	0.031
-472.245	181.977	-0.125	-0.185
-471.230	800.000	0.033	-0.112
-470.216	-4.129	0.320	-0.223
-469.201	-94.746	-0.160	-0.044
-468.186	-200.000	0.010	-0.116
-467.172	-49.116	-0.132	0.063
-466.157	436.405	0.113	-0.246
-465.143	-80.037	-0.432	-0.146
-464.128	-101.358	0.356	0.087
-463.113	800.000	0.063	0.194
-462.099	800.000	-0.051	-0.165
-461.084	-115.038	0.172	-0.033
-460.070	212.652	-0.186	-0.294
-459.055	-21.510	-0.295	0.180
-458.040	485.677	-0.155	0.355
-457.026	262.658	-0.073	0.128
-456.011	119.178	0.263	0.327
-454.997	92.454	-0.128	-0.145
-453.982	-200.000	-0.015	0.177
-452.968	202.750	0.152	0.236
-451.953	-54.890	0.231	0.104
-450.938	235.974	-0.143	0.237
-449.924	-177.449	-0.180	0.004
-448.909	-134.192	-0.111	-0.014
-447.895	800.000	-0.053	-0.173
-446.880	552.843	-0.022	0.053
-445.865	-44.806	0.321	-0.161
-444.851	-161.891	0.382	0.019
-443.836	-200.000	-0.003	-0.058
-442.822	70.666	-0.226	0.234
-441.807	-55.018	-0.182	0.082
-440.792	-30.285	0.149	0.085
-439.778	160.410	-0.062	-0.087
-438.763	-62.534	0.212	0.088
-437.749	-38.154	-0.096	-0.051
-436.734	-48.651	0.067	0.032
-435.719	-56.958	-0.110	0.049
-434.705	277.026	0.192	0.342
-433.690	-200.000	-0.027	-0.206
-432.676	140.033	0.198	-0.262
-431.661	-14.027	-0.100	0.065
-430.646	-135.364	-0.195	-0.023
-429.632	-11.248	0.181	-0.120
-428.617	193.103	0.082	-0.124
-427.603	156.455	-0.188	-0.260
-426.588	-39.192	-0.191	0.101
-425.573	413.390	-0.083	-0.178
-424.559	335.560	0.174	0.338
-423.544	-63.757	-0.149	0.061
-422.530	492.305	0.107	-0.245
-421.515	67.625	0.138	-0.141
-420.500	-43.903	-0.105	0.053
-419.486	23.996	0.354	-0.292
-418.471	319.545	0.099	-0.188
-417.457	800.000	0.030	-0.130
-416.442	118.304	0.243	-0.300
-415.428	-36.102	0.141	-0.076
-414.413	210.510	-0.121	0.190
-413.398	-50.821	0.255	0.120
-412.384	-200.000	-0.066	0.325
-411.369	-80.542	-0.149	-0.050
-410.355	-113.275	0.247	-0.049
-409.340	-200.000	0.018	0.080
-408.325	-200.000	-0.053	-0.371
-407.311	459.530	0.103	0.230
-406.296	262.416	-0.108	0.188
-405.282	-200.000	-0.007	-0.272
-404.267	800.000	0.088	-0.312
-403.252	-118.663	0.228	-0.040
-402.238	-200.000	-0.017	-0.081
-401.223	-11.057	-0.218	0.144
-400.209	-57.431	-0.097	0.043
-399.194	-200.000	-0.053	0.397
-398.179	69.810	0.172	0.177
-397.165	-200.000	-0.014	0.208
-396.150	-91.782	0.058	0.016
-395.136	-105.918	-0.270	-0.061
-394.121	-147.271	-0.325	-0.028
-393.106	-200.000	0.098	-0.463
-392.092	800.000	0.036	0.104
-391.077	-115.984	-0.144	-0.027
-390.063	243.060	0.024	0.041
-389.048	800.000	-0.096	0.295
-388.033	-162.371	0.432	-0.021
-387.019	-127.211	0.349	-0.051
-386.004	-24.953	0.176	0.105
-384.990	572.033	-0.073	-0.178
-383.975	28.161	0.243	-0.205
-382.960	-200.000	0.038	-0.260
-381.946	161.362	-0.058	-0.081
-380.931	77.395	0.174	0.186
-379.917	-123.571	-0.082	0.013
-378.902	-200.000	-0.002	0.061
-377.888	-118.351	-0.209	0.037
-376.873	-118.776	-0.071	0.012
-375.858	800.000	-0.086	0.319
-374.844	800.000	0.034	-0.111
-373.829	-51.338	-0.364	0.170
-372.815	20.485	-0.155	-0.125
-371.800	-132.467	0.189	-0.024
-370.785	193.264	-0.128	-0.193
-369.771	-81.712	0.324	0.106
-368.756	-191.543	0.160	0.002
-367.742	-200.000	-0.042	0.222
-366.727	69.364	-0.213	0.219
-365.712	-115.076	-0.314	-0.060
-364.698	65.869	-0.127	0.129
-363.683	-200.000	0.001	-0.116
-362.669	4.628	-0.110	-0.081
-361.654	-132.823	0.154	-0.020
-360.639	354.901	-0.063	0.126
-359.625	-91.715	0.557	0.158
-358.610	57.049	-0.294	0.286
-357.596	125.967	0.250	-0.316
-356.581	-200.000	0.022	-0.289
-355.566	343.368	-0.013	0.026
-354.552	-95.098	0.481	-0.130
-353.537	-81.404	-0.093	-0.031
-352.523	19.449	-0.341	0.274
-351.508	-85.576	-0.391	0.121
-350.493	-161.786	0.257	-0.013
-349.479	-85.101	0.136	0.043
-348.464	-11.041	-0.180	0.119
-347.450	791.366	-0.063	0.174
-346.435	-142.591	0.261	-0.026
-345.420	9.207	0.248	-0.187
-344.406	-25.843	0.178	0.105
-343.391	-200.000	0.002	-0.187
-342.377	24.355	-0.134	0.110
-341.362	-110.721	-0.067	-0.014
-340.348	-178.202	0.222	-0.005
-339.333	-69.253	0.123	-0.047
-338.318	-14.927	0.242	-0.155
-337.304	800.000	-0.043	-0.133
-336.289	-14.627	-0.187	0.120
-335.275	-133.374	-0.116	0.015
-334.260	-200.000	-0.002	0.355
-333.245	150.955	0.315	-0.428
-332.231	-65.442	-0.136	0.055
-331.216	-200.000	0.013	0.062
-330.202	800.000	0.133	0.375
-329.187	-18.087	0.065	-0.041
-328.172	171.908	0.238	-0.342
-327.158	-157.698	-0.107	-0.006
-326.143	142.534	0.152	0.201
-325.129	1.373	0.109	0.079
-324.114	33.046	-0.190	-0.164
-323.099	800.000	0.065	0.224
-322.085	337.569	-0.040	0.079
-321.070	181.497	0.097	-0.142
-320.056	-114.428	-0.293	0.056
-319.041	-39.952	0.150	-0.078
-318.026	495.671	-0.046	0.106
-317.012	482.442	0.102	0.231
-315.997	-177.341	-0.103	-0.003
-314.983	57.444	-0.237	0.231
-313.968	384.095	-0.140	-0.288
-312.953	229.350	0.206	0.336
-311.939	387.297	-0.026	0.053
-310.924	267.284	0.050	0.088
-309.910	67.221	-0.210	0.214
-308.895	294.338	0.094	0.172
-307.880	-200.000	0.052	0.425
-306.866	-85.033	-0.103	0.032
-305.851	194.105	-0.099	-0.150
-304.837	252.613	-0.108	-0.183
-303.822	-138.230	-0.171	-0.019
-302.807	-25.305	0.138	0.082
-301.793	-69.330	-0.105	-0.040
-300.778	-15.982	-0.204	-0.129
-299.764	-136.355	-0.385	0.045
-298.749	16.429	-0.268	-0.211
-297.735	518.640	-0.103	0.240
-296.720	142.538	-0.055	-0.072
-295.705	-130.221	0.196	-0.027
-294.691	-143.726	0.364	-0.034
-293.676	-200.000	-0.012	-0.117
-292.662	187.065	-0.089	-0.132
-291.647	560.882	-0.149	0.359
-290.632	800.000	-0.028	-0.096
-289.618	-23.841	0.275	-0.164
-288.603	-98.748	-0.031	-0.008
-287.589	-200.000	-0.024	0.177
-286.574	800.000	0.036	-0.137
-285.559	-200.000	-0.001	0.122
-284.545	345.795	-0.105	-0.205
-283.530	570.384	0.102	0.247
-282.516	800.000	0.073	0.231
-281.501	-135.984	0.170	0.020
-280.486	-2.961	0.089	0.062
-279.472	30.874	0.115	0.098
-278.457	-44.934	0.196	0.097
-277.443	9.403	0.083	0.063
-276.428	-15.723	0.130	-0.083
-275.413	-14.388	0.108	0.069
-274.399	800.000	-0.074	0.245
-273.384	-63.120	-0.208	0.086
-272.370	800.000	-0.026	-0.106
-271.355	-200.000	-0.007	0.190
-270.340	-137.934	0.164	0.018
-269.326	800.000	-0.019	-0.067
-268.311	300.036	0.058	-0.107
-267.297	-200.000	0.024	-0.141
-266.282	-200.000	0.030	-0.404
-265.267	-200.000	0.214	-0.001
-264.253	-92.965	-0.179	0.050
-263.238	48.863	-0.052	-0.048
-262.224	-200.000	-0.040	0.274
-261.209	-200.000	0.000	0.219
-260.195	196.994	-0.167	0.253
-259.180	121.906	0.292	-0.363
-258.165	103.093	0.135	0.157
-257.151	-91.428	-0.123	-0.035
-256.136	800.000	-0.138	0.458
-255.122	149.122	-0.153	-0.205
-254.107	800.000	0.054	-0.172
-253.092	298.543	-0.045	0.082
-252.078	-78.306	-0.105	0.036
-251.063	120.048	0.276	0.340
-250.049	499.511	0.073	0.168
-249.034	308.046	-0.079	0.147
-248.019	78.775	-0.143	0.153
-247.005	251.281	-0.054	-0.091
-245.990	-4.067	0.310	0.214
-244.976	36.363	-0.053	-0.047
-243.961	-90.412	0.201	-0.058
-242.946	-110.423	0.227	-0.047
-241.932	-76.996	0.270	-0.094
-240.917	-17.888	-0.053	-0.033
-239.903	-200.000	0.005	0.259
-238.888	-147.173	-0.192	0.016
-237.873	-12.814	0.232	0.150
-236.859	-81.874	-0.255	-0.083
-235.844	-200.000	-0.018	-0.164
-234.830	-50.532	0.351	-0.165
-233.815	-24.661	-0.160	-0.095
-232.800	348.655	-0.162	0.319
-231.786	-123.645	-0.392	0.062
-230.771	192.948	-0.090	0.135
-229.757	-50.475	-0.177	0.083
-228.742	123.894	0.236	0.295
-227.727	-60.574	0.241	-0.102
-226.713	95.631	-0.049	-0.055
-225.698	800.000	-0.037	-0.135
-224.684	71.514	-0.113	0.116
-223.669	-200.000	0.082	-0.412
-222.655	-200.000	0.392	-0.002
-221.640	-115.334	0.289	-0.054
-220.625	800.000	-0.097	0.394
-219.611	-105.137	-0.181	0.041
-218.596	-120.205	-0.232	0.039
-217.582	39.913	-0.301	-0.268
-216.567	41.995	0.235	0.212
-215.552	-69.870	-0.059	0.022
-214.538	31.690	-0.146	-0.125
-213.523	-200.000	0.005	0.157
-212.509	21.470	0.218	0.176
-211.494	355.974	0.137	-0.272
-210.479	-97.169	0.235	0.061
-209.465	224.340	0.170	0.273
-208.450	-6.408	0.319	0.216
-207.436	-200.000	-0.091	0.564
-206.421	-200.000	0.011	0.175
-205.406	-73.272	0.121	-0.044
-204.392	-23.193	-0.041	0.025
-203.377	-200.000	-0.037	0.350
-202.363	81.837	0.268	-0.288
-201.348	-29.507	0.363	-0.206
-200.333	68.279	-0.091	0.092
-199.319	170.683	0.164	-0.233
-198.304	-51.616	0.101	-0.047
-197.290	124.661	0.049	-0.062
-196.275	150.569	0.115	-0.155
-195.260	16.424	0.171	0.134
-194.246	137.544	0.196	0.255
-193.231	68.608	-0.247	-0.252
-192.217	-200.000	0.041	-0.232
-191.202	-70.624	-0.043	-0.016
-190.187	-200.000	0.009	0.139
-189.173	-68.905	0.109	0.042
-188.158	800.000	0.022	0.063
-187.144	-104.604	-0.063	-0.015
-186.129	-200.000	0.053	-0.303
-185.114	225.929	-0.171	-0.276
-184.100	-94.485	-0.052	-0.014
-183.085	800.000	-0.045	0.134
-182.071	-200.000	-0.038	-0.167
-181.056	-107.176	0.126	-0.028
-180.042	-59.816	0.266	-0.113
-179.027	-133.081	-0.436	0.055
-178.012	800.000	-0.059	0.173
-176.998	609.421	0.136	0.338
-175.983	-116.484	-0.099	-0.018
-174.969	76.714	-0.222	-0.234
-173.954	-165.754	-0.276	0.012
-172.939	-200.000	-0.002	0.343
-171.925	81.087	0.197	-0.211
-170.910	-87.411	-0.066	-0.020
-169.896	-105.147	-0.216	0.049
-168.881	16.528	0.125	0.098
-167.866	38.688	0.082	0.072
-166.852	-15.540	-0.045	-0.028
-165.837	-200.000	-0.001	0.231
-164.823	-125.426	0.084	0.013
-163.808	-52.017	0.046	0.021
-162.793	800.000	0.112	0.329
-161.779	-25.092	0.272	0.160
-160.764	-200.000	0.004	0.247
-159.750	-101.809	0.164	0.039
-158.735	-109.007	0.129	0.027
-157.720	-200.000	-0.025	-0.355
-156.706	-16.379	-0.224	0.141
-155.691	-20.620	0.157	0.095
-154.677	30.332	-0.160	-0.136
-153.662	115.678	-0.070	0.085
-152.647	-200.000	0.052	0.247
-151.633	170.960	-0.080	0.114
-150.618	800.000	-0.059	-0.244
-149.604	64.710	-0.114	-0.114
-148.589	135.190	-0.220	0.284
-147.574	-200.000	0.034	0.158
-146.560	-200.000	0.043	0.234
-145.545	321.772	-0.082	0.155
-144.531	62.057	0.007	0.007
-143.516	-9.917	0.271	-0.178
-142.502	-38.924	0.108	-0.056
-141.487	-88.745	0.091	-0.027
-140.472	23.469	0.148	-0.121
-139.458	-58.683	0.163	-0.070
-138.443	-126.141	0.126	-0.019
-137.429	800.000	0.100	-0.328
-136.414	-76.954	0.400	-0.138
-135.399	-90.494	0.298	-0.086
-134.385	361.619	0.047	0.094
-133.370	2.917	0.032	-0.023
-132.356	220.093	0.078	0.124
-131.341	-47.456	0.135	0.065
-130.326	800.000	-0.092	0.260
-129.312	94.843	0.135	-0.153
-128.297	-132.803	0.169	-0.021
-127.283	142.955	0.131	0.173
-126.268	135.022	0.363	-0.467
-125.253	-136.626	0.093	0.011
-124.239	-200.000	0.046	0.234
-123.224	70.095	0.165	-0.169
-122.210	-200.000	0.041	-0.296
-121.195	94.642	-0.196	-0.220
-120.180	-58.956	-0.152	-0.065
-119.166	-46.970	0.335	0.162
-118.151	-86.144	0.124	-0.038
-117.137	-3.986	-0.201	0.138
-116.122	-40.900	0.213	-0.109
-115.107	-94.464	0.545	-0.147
-114.093	303.272	0.109	0.201
-113.078	-23.985	0.215	0.127
-112.064	-24.513	-0.248	0.146
-111.049	65.628	-0.173	-0.174
-110.034	490.629	0.094	-0.213
-109.020	57.892	0.101	0.098
-108.005	38.543	0.187	0.165
-106.991	-53.032	0.180	-0.082
-105.976	-200.000	-0.002	-0.313
-104.962	800.000	0.066	-0.257
-103.947	-31.288	-0.410	0.229
-102.932	-100.902	-0.393	0.096
-101.918	104.364	0.111	0.129
-100.903	-200.000	0.010	0.138
-99.889	-156.258	0.356	0.022
-98.874	180.568	-0.130	0.189
-97.859	-90.909	0.232	-0.066
-96.845	92.630	0.108	-0.121
-95.830	-200.000	-0.016	-0.101
-94.816	-1.984	-0.248	-0.172
-93.801	94.966	0.019	0.022
-92.786	-84.822	0.251	0.078
-91.772	18.511	0.136	-0.107
-90.757	363.996	-0.086	0.170
-89.743	-17.009	0.242	0.151
-88.728	106.229	-0.171	0.201
-87.713	-200.000	-0.021	0.133
-86.699	709.302	-0.066	-0.172
-85.684	-35.068	-0.101	-0.055
-84.670	800.000	0.150	0.458
-83.655	800.000	0.023	-0.078
-82.640	-200.000	0.068	-0.366
-81.626	-182.695	0.116	0.002
-80.611	-144.766	-0.335	-0.030
-79.597	39.751	-0.149	-0.132
-78.582	25.236	0.126	-0.103
-77.567	-100.898	0.446	-0.108
-76.553	-98.403	0.211	0.053
-75.538	400.341	0.130	-0.270
-74.524	-89.247	-0.194	-0.057
-73.509	36.602	0.026	-0.023
-72.494	800.000	-0.043	0.155
-71.480	720.127	-0.077	0.202
-70.465	78.583	0.170	-0.180
-69.451	201.773	0.102	0.156
-68.436	-200.000	-0.053	-0.482
-67.422	79.537	-0.290	-0.308
-66.407	-119.054	-0.441	0.076
-65.392	185.358	0.151	0.222
-64.378	-154.459	0.285	-0.019
-63.363	-200.000	-0.066	0.338
-62.349	50.236	-0.100	0.094
-61.334	91.372	-0.980	-1.088
-60.319	-88.427	0.568	0.167
-59.305	800.000	-0.289	-1.108
-58.290	121.560	0.875	1.077
-57.276	344.223	0.671	1.300
-56.261	-200.000	102.852	588.492
-55.246	545.130	1433.986	3384.888
-54.232	183.505	2631.742	3842.978
-53.217	105.967	2314.878	2706.556
-52.203	37.101	2067.032	1807.352
-51.188	32.313	1980.682	1688.903
-50.173	30.873	1962.588	1660.581
-49.159	46.356	2017.170	1847.166
-48.144	47.223	2034.851	1871.135
-47.130	32.893	1994.156	1705.368
-46.115	30.606	1983.452	1675.565
-45.100	30.459	1980.858	1671.981
-44.086	30.487	1978.456	1670.144
-43.071	30.517	1975.799	1668.104
-42.057	30.421	1973.465	1665.201
-41.042	30.452	1971.578	1663.824
-40.027	30.551	1969.486	1662.882
-39.013	30.548	1967.433	1661.051
-37.998	30.585	1965.723	1659.871
-36.984	30.632	1963.675	1658.494
-35.969	30.592	1961.399	1656.151
-34.954	30.551	1959.978	1654.526
-33.940	30.599	1959.064	1654.108
-32.925	30.588	1957.248	1652.419
-31.911	30.657	1955.588	1651.558
-30.896	30.597	1954.031	1649.649
-29.881	30.633	1952.927	1648.971
-28.867	30.711	1950.683	1647.700
-27.852	30.708	1948.972	1646.166
-26.838	30.688	1947.198	1644.421
-25.823	30.623	1945.933	1642.715
-24.809	30.630	1944.042	1641.116
-23.794	30.637	1942.493	1639.805
-22.779	30.718	1940.205	1638.520
-21.765	30.648	1939.225	1637.008
-20.750	30.625	1937.298	1635.117
-19.736	30.669	1934.888	1633.405
-18.721	30.551	1934.210	1631.732
-17.706	30.663	1932.241	1630.988
-16.692	30.668	1930.424	1629.439
-15.677	30.675	1928.761	1628.028
-14.663	30.662	1927.448	1626.743
-13.648	30.673	1926.146	1625.676
-12.633	30.676	1924.905	1624.589
-11.619	30.635	1923.466	1622.951
-10.604	30.618	1922.185	1621.662
-9.590	30.540	1921.254	1620.126
-8.575	30.615	1919.725	1619.426
-7.560	30.620	1917.968	1617.927
-6.546	30.601	1916.690	1616.619
-5.531	30.660	1915.454	1616.026
-4.517	30.692	1914.483	1615.418
-3.502	30.630	1913.702	1614.155
-2.487	30.559	1912.577	1612.524
-1.473	30.601	1911.101	1611.584
-0.458	30.577	1906.921	1607.790
0.556	29.704	1887.382	1580.790
1.571	25.649	1868.477	1530.411
2.586	21.850	1891.722	1516.527
3.600	20.976	1927.476	1537.352
4.615	20.577	1921.730	1529.124
5.629	16.019	1822.732	1412.111
6.644	8.476	1708.152	1263.789
7.659	5.040	1673.375	1211.297
8.673	4.838	1670.030	1207.200
9.688	4.835	1668.375	1205.879
10.702	4.797	1667.591	1204.912
11.717	4.710	1664.798	1202.114
12.731	5.220	1663.323	1204.878
13.746	10.225	1675.368	1252.311
14.761	17.033	1690.162	1316.231
15.775	19.151	1692.623	1334.468
16.790	18.411	1689.590	1326.229
17.804	17.342	1686.040	1315.067
18.819	16.351	1683.065	1304.974
19.834	15.646	1680.699	1297.585
20.848	15.460	1679.079	1294.782
21.863	15.207	1677.641	1291.609
22.877	14.945	1675.920	1288.159
23.892	14.749	1674.748	1285.632
24.907	14.670	1673.524	1283.967
25.921	14.641	1672.685	1282.994
26.936	14.621	1671.811	1282.051
27.950	14.674	1670.686	1281.484
28.965	14.716	1670.069	1281.220
29.980	14.817	1669.538	1281.475
30.994	14.879	1668.131	1280.753
32.009	15.010	1667.026	1280.795
33.023	15.017	1665.943	1279.907
34.038	15.020	1665.513	1279.486
35.053	14.934	1664.220	1277.717
36.067	14.889	1662.823	1276.188
37.082	14.864	1661.761	1275.075
38.096	14.850	1660.657	1274.005
39.111	14.937	1659.149	1273.399
40.126	14.954	1659.167	1273.431
41.140	14.879	1658.401	1272.157
42.155	14.888	1656.191	1270.417
43.169	14.712	1655.153	1268.173
44.184	14.609	1653.855	1266.282
45.199	14.598	1652.694	1265.203
46.213	14.597	1651.524	1264.183
47.228	14.645	1650.264	1263.470
48.242	14.721	1649.283	1263.185
49.257	14.816	1648.078	1262.870
50.271	14.872	1646.778	1262.184
51.286	14.752	1645.796	1260.411
52.301	14.752	1644.278	1259.140
53.315	14.773	1643.299	1258.439
54.330	14.734	1641.763	1256.855
55.344	14.652	1640.190	1254.920
56.359	14.684	1638.499	1253.757
57.374	14.722	1637.369	1253.068
58.388	14.769	1636.132	1252.365
59.403	14.658	1634.765	1250.372
60.417	14.624	1633.596	1249.118
61.432	14.670	1632.088	1248.192
62.447	14.567	1631.772	1247.076
63.461	14.535	1630.019	1245.387
64.476	14.489	1629.390	1244.446
65.490	14.455	1628.344	1243.288
66.505	14.503	1626.586	1242.196
67.520	14.507	1626.094	1241.734
68.534	14.519	1625.131	1240.984
69.549	14.464	1624.590	1240.047
70.563	14.488	1623.064	1238.955
71.578	14.598	1621.277	1238.295
72.593	14.494	1620.741	1237.001
73.607	14.465	1619.357	1235.622
74.622	14.346	1618.648	1234.089
75.636	14.363	1617.836	1233.488
76.651	14.367	1617.204	1232.928
77.666	14.346	1615.724	1231.539
78.680	14.422	1615.248	1231.625
79.695	14.495	1613.905	1231.029
80.709	14.469	1613.041	1230.073
81.724	14.535	1612.413	1229.969
82.739	14.596	1611.571	1229.671
83.753	14.614	1610.677	1229.010
84.768	14.759	1609.535	1229.100
85.782	14.799	1608.823	1228.739
86.797	14.855	1607.988	1228.403
87.812	14.829	1607.101	1227.426
88.826	14.878	1605.486	1226.444
89.841	14.779	1604.781	1225.071
90.855	14.809	1603.596	1224.281
91.870	14.765	1603.102	1223.468
92.884	14.785	1601.590	1222.356
93.899	14.861	1600.758	1222.170
94.914	14.820	1599.115	1220.504
95.928	14.937	1598.269	1220.608
96.943	14.920	1597.102	1219.480
97.957	14.824	1595.844	1217.711
98.972	14.866	1594.017	1216.521
99.987	14.867	1592.570	1215.313
101.001	14.806	1591.060	1213.611
102.016	14.859	1589.356	1212.585
103.030	14.733	1588.032	1210.560
104.045	14.920	1586.921	1210.954
105.060	14.802	1585.370	1208.810
106.074	14.803	1583.967	1207.642
107.089	14.654	1582.688	1205.487
108.103	14.658	1580.180	1203.496
109.118	14.520	1579.161	1201.618
110.133	14.571	1577.947	1200.961
111.147	14.572	1576.558	1199.800
112.162	14.549	1575.089	1198.413
113.176	14.579	1573.284	1197.149
114.191	14.556	1572.200	1196.052
115.206	14.615	1571.205	1195.616
116.220	14.655	1569.805	1194.725
117.235	14.610	1568.667	1193.438
118.249	14.598	1567.377	1192.259
119.264	14.637	1565.549	1191.044
120.279	14.607	1564.460	1189.894
121.293	14.556	1563.293	1188.542
122.308	14.611	1561.334	1187.340
123.322	14.570	1559.758	1185.742
124.337	14.627	1558.094	1184.780
125.352	14.444	1557.774	1183.133
126.366	14.524	1555.962	1182.219
127.381	14.447	1555.033	1180.858
128.395	14.535	1553.847	1180.480
129.410	14.524	1552.645	1179.379
130.424	14.503	1551.313	1178.122
131.439	14.574	1549.804	1177.368
132.454	14.678	1548.540	1177.036
133.468	14.685	1547.257	1176.007
134.483	14.669	1546.018	1174.853
135.497	14.720	1544.311	1173.810
136.512	14.658	1542.977	1172.256
137.527	14.655	1542.113	1171.474
138.541	14.733	1540.471	1170.669
139.556	14.806	1539.151	1170.076
140.570	14.750	1538.102	1168.783
141.585	14.871	1536.713	1168.467
142.600	14.881	1535.962	1167.863
143.614	14.928	1534.269	1166.800
144.629	14.922	1533.656	1166.187
145.643	15.017	1531.897	1165.408
146.658	15.076	1530.874	1164.936
147.673	14.995	1529.116	1162.936
148.687	14.905	1527.693	1161.124
149.702	14.910	1526.136	1159.875
150.716	14.736	1524.698	1157.474
151.731	14.767	1523.246	1156.483
152.746	14.701	1522.202	1155.133
153.760	14.736	1520.637	1154.085
154.775	14.860	1519.226	1153.766
155.789	14.907	1518.298	1153.283
156.804	14.996	1516.651	1152.541
157.819	14.997	1515.287	1151.408
158.833	15.031	1514.774	1151.150
159.848	14.992	1513.773	1150.019
160.862	15.206	1511.884	1149.955
161.877	15.069	1511.212	1148.403
162.892	15.025	1510.327	1147.326
163.906	14.977	1508.703	1145.665
164.921	14.839	1507.362	1143.596
165.935	14.877	1506.204	1142.879
166.950	14.909	1505.385	1142.372
167.964	14.993	1504.398	1142.097
168.979	15.009	1503.581	1141.487
169.994	14.914	1502.677	1140.049
171.008	14.958	1501.752	1139.547
172.023	15.016	1500.041	1138.546
173.037	15.094	1498.884	1138.093
174.052	15.102	1498.208	1137.536
175.067	15.186	1496.775	1136.916
176.081	15.165	1495.646	1135.813
177.096	14.963	1494.314	1133.333
178.110	14.894	1493.353	1132.039
179.125	14.894	1492.125	1131.008
180.140	15.041	1491.080	1131.111
181.154	15.094	1489.984	1130.537
182.169	14.983	1488.939	1128.897
183.183	15.003	1488.080	1128.277
184.198	15.206	1486.243	1128.156
185.213	15.353	1484.923	1128.042
186.227	15.287	1484.318	1127.033
187.242	15.282	1483.651	1126.399
188.256	15.301	1482.362	1125.444
189.271	15.284	1480.674	1123.949
190.286	15.449	1479.518	1124.078
191.300	15.319	1479.295	1122.937
192.315	15.203	1477.689	1120.848
193.329	15.026	1476.268	1118.482
194.344	15.000	1475.188	1117.396
195.359	15.002	1474.270	1116.613
196.373	15.080	1473.558	1116.496
197.388	15.249	1472.137	1116.448
198.402	15.314	1471.204	1116.072
199.417	15.320	1470.347	1115.365
200.432	15.404	1469.537	1115.208
201.446	15.538	1468.037	1114.859
202.461	15.615	1467.239	1114.670
203.475	15.509	1466.716	1113.465
204.490	15.606	1465.714	1113.248
205.504	15.555	1464.505	1111.895
206.519	15.539	1462.462	1110.139
207.534	15.420	1461.904	1108.832
208.548	15.415	1461.072	1108.071
209.563	15.395	1459.953	1106.992
210.577	15.407	1458.877	1106.155
211.592	15.443	1457.677	1105.390
212.607	15.473	1457.739	1105.532
213.621	15.598	1456.745	1105.507
214.636	15.618	1455.555	1104.633
215.650	15.609	1454.627	1103.773
216.665	15.614	1453.727	1103.029
217.680	15.640	1453.022	1102.567
218.694	15.760	1451.643	1102.206
219.709	15.799	1450.646	1101.606
220.723	15.757	1449.814	1100.601
221.738	15.726	1449.015	1099.698
222.753	15.739	1448.213	1099.079
223.767	15.687	1447.528	1098.116
224.782	15.750	1446.316	1097.514
225.796	15.773	1445.305	1096.802
226.811	15.919	1444.791	1097.263
227.826	15.957	1443.991	1096.809
228.840	15.800	1442.789	1094.775
229.855	15.894	1441.615	1094.399
230.869	15.752	1440.668	1092.663
231.884	15.815	1439.977	1092.449
232.899	15.838	1438.594	1091.453
233.913	15.717	1437.722	1089.913
234.928	15.809	1435.984	1089.090
235.942	15.653	1435.569	1087.671
236.957	15.660	1434.463	1086.779
237.972	15.641	1433.187	1085.596
238.986	15.802	1431.551	1085.301
240.001	15.717	1431.276	1084.450
241.015	15.782	1430.162	1083.928
242.030	15.759	1428.885	1082.716
243.045	15.781	1428.221	1082.255
244.059	15.902	1426.817	1081.875
245.074	15.848	1426.359	1081.083
246.088	15.830	1425.720	1080.387
247.103	16.018	1424.836	1080.829
248.117	15.978	1423.968	1079.819
249.132	16.100	1423.043	1079.805
250.147	16.094	1422.800	1079.485
251.161	16.240	1421.840	1079.593
252.176	16.361	1421.242	1079.821
253.190	16.339	1420.840	1079.277
254.205	16.368	1419.891	1078.649
255.220	16.339	1419.393	1077.985
256.234	16.358	1418.427	1077.279
257.249	16.381	1417.153	1076.365
258.263	16.456	1416.793	1076.471
259.278	16.390	1415.710	1075.137
260.293	16.420	1414.747	1074.502
261.307	16.504	1413.896	1074.288
262.322	16.484	1413.268	1073.594
263.336	16.544	1412.617	1073.380
264.351	16.582	1411.076	1072.358
265.366	16.596	1410.463	1071.888
266.380	16.589	1409.586	1071.080
267.395	16.500	1409.206	1070.132
268.409	16.618	1407.835	1069.741
269.424	16.550	1406.724	1068.375
270.439	16.501	1405.909	1067.355
271.453	16.601	1404.461	1066.787
272.468	16.541	1403.781	1065.803
273.482	16.543	1402.999	1065.128
274.497	16.522	1402.192	1064.286
275.512	16.469	1401.420	1063.270
276.526	16.554	1400.316	1062.875
277.541	16.537	1399.190	1061.822
278.555	16.597	1398.036	1061.229
279.570	16.644	1397.403	1060.947
280.585	16.638	1396.772	1060.334
281.599	16.659	1396.004	1059.793
282.614	16.748	1395.257	1059.687
283.628	16.763	1394.049	1058.772
284.643	16.683	1393.098	1057.455
285.657	16.639	1391.990	1056.244
286.672	16.625	1390.988	1055.306
287.687	16.671	1390.250	1054.939
288.701	16.718	1389.302	1054.414
289.716	16.699	1388.709	1053.753
290.730	16.661	1387.833	1052.759
291.745	16.730	1386.507	1052.090
292.760	16.740	1386.053	1051.714
293.774	16.692	1384.555	1050.188
294.789	16.797	1383.451	1049.907
295.803	16.901	1382.816	1049.977
296.818	16.951	1382.086	1049.638
297.833	16.896	1380.729	1048.175
298.847	16.824	1380.416	1047.398
299.862	16.835	1379.095	1046.371
300.876	16.794	1377.981	1045.180
301.891	16.820	1377.391	1044.803
302.906	16.933	1376.488	1044.724
303.920	16.922	1376.205	1044.349
304.935	17.043	1375.171	1044.212
305.949	17.128	1373.927	1043.699
306.964	17.186	1373.345	1043.524
307.979	17.160	1372.722	1042.796
308.993	17.176	1371.841	1042.132
310.008	17.064	1371.241	1040.901
311.022	17.081	1369.819	1039.830
312.037	17.174	1368.763	1039.509
313.052	17.182	1368.161	1039.005
314.066	17.087	1367.128	1037.551
315.081	17.019	1365.758	1036.000
316.095	17.012	1364.401	1034.840
317.110	16.982	1363.595	1033.954
318.125	17.063	1362.449	1033.484
319.139	16.977	1362.161	1032.650
320.154	17.130	1360.634	1032.335
321.168	17.040	1359.697	1030.985
322.183	17.106	1358.483	1030.375
323.197	17.032	1357.804	1029.319
324.212	17.170	1357.125	1029.547
325.227	17.137	1356.040	1028.434
326.241	17.070	1355.570	1027.581
327.256	17.065	1354.896	1026.951
328.270	17.203	1353.458	1026.606
329.285	17.227	1352.549	1025.966
330.300	17.167	1351.561	1024.767
331.314	17.074	1350.896	1023.612
332.329	17.173	1349.807	1023.290
333.343	17.155	1348.941	1022.435
334.358	17.180	1348.627	1022.255
335.373	17.211	1347.799	1021.724
336.387	17.365	1346.298	1021.424
337.402	17.369	1345.634	1020.854
338.416	17.428	1345.344	1020.893
339.431	17.399	1344.759	1020.187
340.446	17.421	1344.190	1019.794
341.460	17.477	1343.063	1019.186
342.475	17.582	1341.798	1018.764
343.489	17.575	1341.477	1018.392
344.504	17.661	1340.606	1018.153
345.519	17.600	1339.903	1017.166
346.533	17.677	1338.843	1016.727
347.548	17.700	1337.902	1016.059
348.562	17.846	1336.865	1016.055
349.577	17.770	1336.274	1015.062
350.592	17.663	1335.761	1013.947
351.606	17.746	1334.305	1013.245
352.621	17.566	1333.376	1011.379
353.635	17.580	1332.550	1010.747
354.650	17.475	1331.607	1009.319
355.665	17.533	1330.619	1008.823
356.679	17.584	1329.475	1008.172
357.694	17.523	1328.265	1006.803
358.708	17.546	1327.696	1006.418
359.723	17.704	1326.413	1006.288
360.738	17.799	1324.916	1005.624
361.752	17.738	1324.411	1004.792
362.767	17.745	1323.308	1003.909
363.781	17.715	1322.227	1002.824
364.796	17.757	1321.706	1002.587
365.810	17.811	1320.882	1002.187
366.825	17.867	1320.519	1002.156
367.840	17.937	1319.587	1001.769
368.854	18.059	1318.606	1001.649
369.869	17.983	1318.442	1000.991
370.883	17.973	1318.196	1000.656
371.898	18.048	1317.250	1000.288
372.913	17.975	1316.212	998.988
373.927	17.902	1315.444	997.888
374.942	17.979	1313.894	997.077
375.956	17.974	1313.581	996.720
376.971	17.943	1313.339	996.264
377.986	17.974	1312.217	995.511
379.000	18.118	1311.111	995.417
380.015	18.161	1310.754	995.312
381.029	18.157	1309.803	994.478
382.044	18.298	1308.949	994.563
383.059	18.314	1307.993	993.837
384.073	18.199	1307.676	992.841
385.088	18.331	1306.828	992.874
386.102	18.273	1306.296	992.048
387.117	18.326	1305.211	991.443
388.132	18.124	1304.717	989.810
389.146	18.105	1303.900	988.995
390.161	18.161	1302.609	988.250
391.175	18.110	1302.360	987.677
392.190	18.150	1301.019	986.803
393.205	18.200	1300.378	986.520
394.219	18.264	1299.366	986.036
395.234	18.358	1298.131	985.552
396.248	18.299	1297.068	984.319
397.263	18.238	1295.500	982.692
398.278	18.288	1294.232	981.927
399.292	18.153	1293.509	980.518
400.307	18.070	1292.492	979.187
401.321	18.152	1291.256	978.630
402.336	18.260	1289.882	978.124
403.350	18.206	1289.201	977.208
404.365	18.143	1288.087	975.918
405.380	18.161	1287.417	975.428
406.394	18.310	1286.651	975.613
407.409	18.222	1285.914	974.463
408.423	18.381	1285.689	975.111
409.438	18.525	1284.562	974.990
410.453	18.502	1283.916	974.282
411.467	18.537	1283.193	973.850
412.482	18.630	1282.479	973.748
413.496	18.564	1282.394	973.224
414.511	18.693	1281.165	972.937
415.526	18.721	1280.448	972.463
416.540	18.833	1279.434	972.238
417.555	18.725	1279.369	971.493
418.569	18.846	1278.536	971.458
419.584	18.754	1278.010	970.455
420.599	18.717	1277.258	969.589
421.613	140.867	1432.687	1795.835
422.628	135.578	1455.295	1795.943
