DTS Sentinel unit serial number:	SN413079Multiplexer serial number:	ORYXHardware model number:	OX4-SRSoftware version number:	ORYX F/W v4.00 Oryx Data Collector v3.7.2.0data status	okinstallation	princeton_trtdifferential loss correction	single-endedforward channel	channel 4reverse channel	N/Adate	2019/09/13time	19:05:35forward acquisition time	60.00reverse acquisition time	0.00gamma	496.2192k internal	0.2312k external	0.2312temperature offset calibration	1.0168default loss term (dB/km)	0.3790temperature slope calibration	1.0000multiplexer offset coefficient	1.0000multiplexer slope coefficient	1.0000fibre end	0.00T internal ref (°C)	31.73T ext. ref 1 (°C)	3.88T ext. ref 2 (°C)	25.01length (m)	temperature (°C)	Stokes	anti-Stokes-747.200	19.564	-0.104	-0.085
-746.185	-11.587	-0.122	0.081
-745.171	-67.429	-0.292	0.116
-744.156	-200.000	0.039	0.240
-743.142	-200.000	0.019	0.159
-742.127	800.000	0.055	0.170
-741.112	-21.783	0.353	0.218
-740.098	-107.966	-0.403	0.089
-739.083	800.000	-0.043	0.147
-738.069	341.494	-0.067	0.132
-737.054	167.057	0.080	0.115
-736.039	125.804	0.215	-0.275
-735.025	210.122	-0.070	0.112
-734.010	-111.181	-0.035	0.007
-732.996	-87.830	-0.342	0.104
-731.981	60.624	0.213	-0.215
-730.966	-200.000	-0.053	-0.338
-729.952	156.419	0.057	-0.080
-728.937	-133.635	-0.044	0.006
-727.923	49.513	-0.144	0.137
-726.908	105.056	-0.032	-0.039
-725.894	71.982	-0.148	0.156
-724.879	31.335	-0.045	0.040
-723.864	60.988	-0.168	0.169
-722.850	800.000	0.055	-0.225
-721.835	-173.165	-0.455	-0.014
-720.821	-120.374	-0.107	-0.018
-719.806	-200.000	-0.005	0.185
-718.791	32.979	-0.149	0.131
-717.777	351.599	0.046	0.093
-716.762	-98.554	0.216	-0.056
-715.748	32.016	0.061	-0.053
-714.733	-118.191	0.194	-0.035
-713.718	590.447	-0.154	0.386
-712.704	167.352	-0.055	0.079
-711.689	-76.016	-0.358	-0.128
-710.675	-62.708	-0.200	-0.084
-709.660	30.560	-0.221	0.192
-708.645	235.875	-0.198	0.332
-707.631	-58.224	0.120	0.053
-706.616	280.540	0.006	0.010
-705.602	-95.098	-0.320	-0.088
-704.587	275.389	0.095	-0.170
-703.572	407.453	-0.101	0.216
-702.558	-66.589	0.147	-0.059
-701.543	-148.193	0.379	0.032
-700.529	-200.000	0.002	-0.124
-699.514	9.326	0.143	0.110
-698.499	-200.000	-0.007	-0.239
-697.485	35.513	-0.237	-0.211
-696.470	-14.193	0.122	0.080
-695.456	688.656	0.045	-0.120
-694.441	497.134	0.168	0.392
-693.426	52.114	-0.157	0.152
-692.412	77.014	0.031	-0.033
-691.397	55.094	-0.103	0.101
-690.383	101.668	-0.108	0.127
-689.368	-38.006	0.209	-0.112
-688.354	153.524	-0.091	0.126
-687.339	108.347	0.225	-0.272
-686.324	800.000	-0.065	-0.227
-685.310	-154.560	0.040	-0.003
-684.295	96.742	0.170	-0.197
-683.281	169.470	0.085	-0.123
-682.266	186.703	-0.130	0.196
-681.251	-106.553	-0.282	-0.064
-680.237	794.680	-0.030	-0.084
-679.222	800.000	0.035	-0.120
-678.208	-51.413	-0.191	-0.090
-677.193	38.115	0.158	-0.142
-676.178	446.972	-0.072	-0.161
-675.164	-189.711	0.298	-0.003
-674.149	800.000	-0.069	-0.260
-673.135	248.204	-0.202	-0.346
-672.120	-8.981	0.237	-0.161
-671.105	-200.000	0.028	0.152
-670.091	144.513	0.100	0.135
-669.076	-200.000	-0.020	-0.108
-668.062	-81.532	0.155	-0.051
-667.047	292.627	-0.125	0.231
-666.032	15.667	0.087	0.069
-665.018	-90.100	-0.061	0.018
-664.003	800.000	0.126	0.371
-662.989	51.761	-0.126	0.121
-661.974	800.000	0.103	-0.345
-660.959	32.004	-0.074	0.064
-659.945	55.793	-0.259	-0.254
-658.930	195.970	0.076	-0.117
-657.916	38.892	-0.246	-0.222
-656.901	-102.810	0.349	0.084
-655.886	43.167	-0.349	0.323
-654.872	323.145	-0.191	-0.369
-653.857	166.517	-0.193	-0.276
-652.843	-190.893	-0.241	-0.003
-651.828	-200.000	-0.014	-0.134
-650.814	-17.417	-0.100	0.064
-649.799	137.073	-0.072	-0.095
-648.784	-163.079	0.251	0.012
-647.770	-30.179	-0.480	-0.276
-646.755	42.607	0.073	0.067
-645.741	82.903	0.156	-0.172
-644.726	112.506	-0.146	0.179
-643.711	534.050	-0.121	-0.289
-642.697	149.352	-0.042	-0.058
-641.682	-200.000	-0.040	0.205
-640.668	-200.000	0.021	0.248
-639.653	-149.893	0.122	-0.010
-638.638	-9.744	0.192	0.129
-637.624	800.000	0.021	-0.077
-636.609	-27.507	-0.090	0.053
-635.595	-200.000	0.002	-0.077
-634.580	627.852	-0.114	0.292
-633.565	4.853	0.105	0.078
-632.551	29.328	0.262	0.225
-631.536	318.717	-0.120	-0.230
-630.522	233.862	0.046	0.076
-629.507	33.275	-0.227	-0.199
-628.492	-81.773	0.286	0.095
-627.478	144.378	-0.204	0.276
-626.463	800.000	-0.029	0.085
-625.449	37.189	0.224	-0.200
-624.434	165.135	-0.192	-0.274
-623.419	-200.000	-0.007	0.291
-622.405	-50.805	0.156	0.074
-621.390	-150.258	-0.397	-0.031
-620.376	800.000	0.042	-0.130
-619.361	800.000	0.031	0.100
-618.346	12.601	-0.137	-0.106
-617.332	105.708	-0.307	0.367
-616.317	22.482	-0.261	-0.215
-615.303	-39.266	-0.163	0.086
-614.288	-83.090	0.121	-0.039
-613.273	-30.771	-0.094	0.054
-612.259	800.000	-0.037	-0.154
-611.244	-146.654	0.315	0.028
-610.230	-90.542	-0.223	-0.065
-609.215	800.000	-0.056	0.180
-608.201	-200.000	-0.050	0.232
-607.186	-200.000	-0.335	-0.000
-606.171	134.890	-0.068	-0.089
-605.157	342.475	-0.176	-0.348
-604.142	76.255	-0.041	0.044
-603.128	-122.820	-0.156	-0.025
-602.113	-200.000	-0.018	-0.169
-601.098	-108.711	0.356	-0.077
-600.084	-191.155	-0.096	0.001
-599.069	-200.000	0.012	0.431
-598.055	488.551	-0.193	0.446
-597.040	-102.511	0.269	0.065
-596.025	-100.090	-0.177	0.044
-595.011	800.000	-0.013	-0.058
-593.996	-33.467	-0.220	0.123
-592.982	-131.291	0.131	-0.018
-591.967	-200.000	0.013	-0.121
-590.952	-200.000	0.007	-0.062
-589.938	800.000	-0.041	-0.154
-588.923	615.219	0.125	0.316
-587.909	-178.886	-0.070	0.002
-586.894	-12.742	-0.302	-0.198
-585.879	-118.683	0.166	0.029
-584.865	77.063	-0.186	0.199
-583.850	535.164	0.057	-0.137
-582.836	-31.689	0.180	-0.102
-581.821	-68.779	-0.418	-0.163
-580.806	800.000	0.096	-0.422
-579.792	800.000	-0.004	-0.014
-578.777	-66.304	-0.179	-0.072
-577.763	-1.123	-0.158	0.113
-576.748	11.368	-0.241	0.186
-575.733	-95.159	0.154	-0.042
-574.719	-54.960	0.069	-0.031
-573.704	-150.748	0.266	0.020
-572.690	693.585	0.014	0.038
-571.675	31.118	-0.211	-0.182
-570.661	124.587	0.171	-0.216
-569.646	-44.206	-0.050	0.025
-568.631	4.889	0.264	-0.195
-567.617	-200.000	0.002	-0.046
-566.602	-200.000	-0.002	0.038
-565.588	297.577	-0.131	0.242
-564.573	619.133	-0.034	0.085
-563.558	13.164	0.269	0.210
-562.544	-200.000	-0.003	0.107
-561.529	-200.000	0.011	0.343
-560.515	288.126	-0.145	0.265
-559.500	-43.940	0.330	0.167
-558.485	539.399	0.094	-0.226
-557.471	52.642	-0.238	-0.229
-556.456	26.939	0.189	-0.160
-555.442	-158.286	0.179	0.010
-554.427	-200.000	-0.017	0.101
-553.412	12.388	-0.179	0.139
-552.398	-40.306	-0.255	-0.133
-551.383	275.324	-0.039	0.070
-550.369	456.873	0.059	-0.132
-549.354	-200.000	-0.024	0.208
-548.339	-151.668	-0.211	0.016
-547.325	710.750	0.026	-0.070
-546.310	800.000	0.075	0.312
-545.296	-103.434	-0.088	-0.021
-544.281	256.739	0.081	-0.140
-543.266	72.536	-0.198	-0.207
-542.252	-200.000	-0.072	0.388
-541.237	198.943	0.127	0.196
-540.223	800.000	-0.081	0.231
-539.208	77.175	-0.141	-0.151
-538.193	-47.276	0.161	-0.079
-537.179	-29.666	0.095	0.054
-536.164	-115.161	-0.109	0.021
-535.150	-200.000	-0.044	0.224
-534.135	-59.363	0.243	-0.105
-533.121	181.251	-0.017	0.026
-532.106	686.393	0.074	-0.196
-531.091	49.346	-0.119	0.113
-530.077	680.476	0.042	0.111
-529.062	-77.175	0.248	0.087
-528.048	220.831	0.112	0.181
-527.033	-98.745	-0.162	0.041
-526.018	-32.466	-0.235	0.132
-525.004	-200.000	0.004	0.107
-523.989	39.076	-0.077	-0.069
-522.975	-60.442	0.215	0.092
-521.960	-200.000	0.003	0.017
-520.945	112.007	-0.107	0.131
-519.931	15.175	0.085	-0.067
-518.916	226.359	-0.229	0.373
-517.902	194.616	0.185	-0.282
-516.887	514.444	-0.079	-0.184
-515.872	-200.000	-0.008	-0.213
-514.858	-19.243	0.258	-0.161
-513.843	-14.454	-0.216	-0.140
-512.829	-146.993	0.079	0.007
-511.814	-125.932	0.231	0.035
-510.799	46.469	-0.170	0.158
-509.785	472.743	0.036	-0.082
-508.770	-73.092	-0.305	0.112
-507.756	-18.482	-0.187	-0.117
-506.741	-71.779	-0.242	-0.091
-505.726	188.799	-0.167	0.252
-504.712	297.395	-0.117	0.216
-503.697	208.885	-0.058	-0.091
-502.683	303.651	0.164	-0.305
-501.668	72.436	-0.070	-0.074
-500.653	-13.648	-0.111	-0.072
-499.639	42.141	0.130	-0.118
-498.624	713.520	-0.169	-0.451
-497.610	-78.513	0.129	-0.044
-496.595	-200.000	-0.041	-0.181
-495.581	-200.000	-0.016	0.155
-494.566	575.231	0.026	-0.065
-493.551	-200.000	0.011	0.175
-492.537	-47.635	-0.217	0.106
-491.522	-200.000	-0.021	-0.185
-490.508	800.000	0.043	-0.153
-489.493	-20.449	-0.366	0.226
-488.478	1.367	-0.073	-0.053
-487.464	-167.156	-0.225	0.009
-486.449	641.369	-0.109	-0.279
-485.435	-200.000	0.006	-0.204
-484.420	-200.000	0.003	0.108
-483.405	-200.000	0.024	0.320
-482.391	-200.000	-0.056	0.248
-481.376	-90.928	0.319	-0.092
-480.362	10.823	-0.186	-0.143
-479.347	-76.047	0.426	0.151
-478.332	167.017	-0.215	-0.306
-477.318	-49.098	0.238	0.114
-476.303	205.842	0.034	-0.052
-475.289	-200.000	-0.046	-0.251
-474.274	-34.808	0.121	0.066
-473.259	-148.494	0.088	0.007
-472.245	800.000	0.073	-0.204
-471.230	-116.993	0.036	0.007
-470.216	-144.779	-0.069	0.006
-469.201	-150.322	0.339	0.026
-468.186	-93.659	0.109	0.030
-467.172	2.362	-0.083	0.060
-466.157	-181.653	-0.388	0.008
-465.143	-32.664	0.058	-0.032
-464.128	404.615	-0.082	-0.174
-463.113	510.868	-0.061	0.142
-462.099	-109.291	0.396	-0.084
-461.084	-157.342	-0.076	-0.005
-460.070	-150.160	0.242	0.019
-459.055	4.652	0.238	0.175
-458.040	-36.056	0.222	0.120
-457.026	42.198	0.171	-0.156
-456.011	-11.792	-0.272	0.179
-454.997	419.036	-0.071	0.152
-453.982	-200.000	-0.064	-0.300
-452.968	51.091	-0.080	-0.076
-451.953	76.274	0.082	0.087
-450.938	-86.619	-0.167	-0.051
-449.924	-117.058	0.099	-0.018
-448.909	-180.169	0.239	-0.005
-447.895	360.115	-0.075	-0.151
-446.880	19.304	-0.131	-0.105
-445.865	286.461	-0.131	-0.237
-444.851	-80.885	-0.072	-0.024
-443.836	494.553	0.103	-0.238
-442.822	8.503	-0.035	-0.026
-441.807	-126.334	-0.280	0.042
-440.792	12.839	0.352	0.272
-439.778	-26.740	-0.345	-0.203
-438.763	-200.000	0.033	-0.338
-437.749	-44.796	0.228	0.114
-436.734	-36.994	-0.551	0.296
-435.719	-117.908	-0.155	0.028
-434.705	-94.210	-0.193	0.053
-433.690	143.156	-0.124	-0.165
-432.676	-17.776	0.358	-0.225
-431.661	800.000	-0.012	0.038
-430.646	198.093	0.028	0.042
-429.632	788.558	-0.123	0.338
-428.617	697.945	0.164	-0.432
-427.603	-200.000	0.015	-0.097
-426.588	-200.000	0.015	-0.121
-425.573	800.000	0.048	-0.139
-424.559	117.205	0.140	0.172
-423.544	-130.331	0.183	0.025
-422.530	-113.480	-0.200	0.039
-421.515	-12.675	-0.298	0.194
-420.500	800.000	0.041	-0.114
-419.486	-66.142	0.386	0.154
-418.471	-63.312	-0.235	0.097
-417.457	208.644	-0.077	-0.121
-416.442	800.000	-0.067	-0.205
-415.428	-74.564	0.042	-0.015
-414.413	34.425	0.066	0.057
-413.398	-0.818	0.106	-0.075
-412.384	-200.000	0.002	-0.029
-411.369	375.407	-0.100	0.204
-410.355	502.452	0.134	0.311
-409.340	41.479	0.139	0.126
-408.325	800.000	0.024	0.105
-407.311	-88.239	-0.254	0.076
-406.296	113.074	0.113	-0.137
-405.282	4.886	0.081	-0.060
-404.267	99.881	-0.068	-0.079
-403.252	-92.585	0.095	0.027
-402.238	-200.000	0.022	0.256
-401.223	28.930	0.126	0.107
-400.209	-153.224	-0.352	-0.025
-399.194	14.677	0.185	0.145
-398.179	30.423	0.131	0.112
-397.165	-134.056	-0.474	-0.059
-396.150	-105.198	-0.195	0.045
-395.136	-200.000	-0.001	0.006
-394.121	32.243	-0.194	0.168
-393.106	-148.539	0.184	0.015
-392.092	-119.558	-0.313	-0.054
-391.077	-200.000	0.021	0.219
-390.063	-43.894	0.060	-0.030
-389.048	800.000	-0.025	0.079
-388.033	-200.000	0.040	0.311
-387.019	-200.000	-0.001	-0.281
-386.004	5.570	-0.257	-0.190
-384.990	-82.123	0.057	0.019
-383.975	-200.000	0.016	0.077
-382.960	-127.589	-0.279	-0.041
-381.946	800.000	0.059	-0.199
-380.931	5.891	0.131	-0.097
-379.917	-200.000	0.020	0.165
-378.902	82.435	0.186	0.202
-377.888	-40.618	-0.240	-0.125
-376.873	-121.103	0.084	-0.014
-375.858	70.378	-0.310	0.320
-374.844	-97.458	0.286	-0.074
-373.829	554.376	-0.114	-0.274
-372.815	800.000	-0.072	0.212
-371.800	110.993	0.121	-0.146
-370.785	25.886	-0.061	0.051
-369.771	77.181	0.114	0.121
-368.756	-200.000	-0.023	-0.172
-367.742	-200.000	-0.003	0.080
-366.727	800.000	0.033	0.116
-365.712	800.000	0.060	0.218
-364.698	11.636	0.051	0.039
-363.683	686.604	-0.035	0.092
-362.669	800.000	-0.032	0.116
-361.654	-200.000	0.035	0.196
-360.639	-200.000	-0.004	-0.032
-359.625	144.701	0.070	-0.094
-358.610	-6.357	0.234	0.160
-357.596	151.967	-0.185	0.252
-356.581	62.596	0.132	-0.132
-355.566	-200.000	0.009	0.139
-354.552	343.980	-0.078	-0.152
-353.537	-96.288	-0.038	-0.010
-352.523	-101.818	-0.107	-0.026
-351.508	372.738	-0.183	0.372
-350.493	119.203	0.088	-0.109
-349.479	113.426	0.018	0.022
-348.464	121.624	0.217	-0.271
-347.450	232.944	-0.153	-0.251
-346.435	-93.679	-0.329	-0.091
-345.420	-73.187	0.234	0.086
-344.406	-200.000	-0.003	-0.041
-343.391	21.277	0.208	-0.169
-342.377	-115.576	0.403	-0.076
-341.362	20.551	0.189	-0.153
-340.348	-200.000	-0.019	-0.123
-339.333	136.410	0.058	0.075
-338.318	-49.405	-0.261	0.124
-337.304	112.289	-0.203	0.245
-336.289	-84.954	0.269	0.084
-335.275	800.000	-0.067	0.189
-334.260	-21.135	-0.023	0.014
-333.245	-108.119	0.083	0.018
-332.231	251.123	0.077	0.131
-331.216	-71.407	0.331	0.124
-330.202	800.000	-0.055	0.171
-329.187	54.203	-0.116	0.111
-328.172	-200.000	0.034	-0.327
-327.158	-200.000	0.021	-0.159
-326.143	6.864	0.242	0.180
-325.129	-150.839	0.249	-0.019
-324.114	-21.493	-0.121	-0.074
-323.099	-70.331	-0.156	-0.059
-322.085	-200.000	0.025	0.123
-321.070	55.104	0.070	0.067
-320.056	-129.933	0.220	0.030
-319.041	-185.119	-0.173	-0.003
-318.026	164.059	-0.138	0.194
-317.012	-200.000	-0.021	0.406
-315.997	287.578	-0.091	0.164
-314.983	-130.405	-0.183	-0.025
-313.968	714.717	0.152	-0.403
-312.953	305.122	0.154	-0.285
-311.939	-33.663	0.260	0.143
-310.924	800.000	-0.047	0.139
-309.910	-185.445	0.163	0.002
-308.895	86.449	0.198	0.218
-307.880	-102.247	-0.171	0.041
-306.866	-53.250	-0.278	0.127
-305.851	432.101	0.129	0.279
-304.837	-200.000	0.039	-0.328
-303.822	-27.188	-0.100	0.058
-302.807	-48.453	0.246	0.118
-301.793	800.000	-0.070	0.236
-300.778	-64.340	0.297	-0.121
-299.764	-200.000	0.009	-0.218
-298.749	-51.890	0.182	0.085
-297.735	-90.417	-0.136	0.039
-296.720	-61.743	0.261	0.109
-295.705	-7.437	0.280	-0.189
-294.691	800.000	0.072	-0.228
-293.676	-74.122	0.205	0.074
-292.662	-169.784	0.075	-0.003
-291.647	59.607	-0.168	0.165
-290.632	226.790	-0.067	0.108
-289.618	800.000	-0.064	0.198
-288.603	15.267	-0.237	0.186
-287.589	-46.024	0.075	0.037
-286.574	-200.000	-0.014	-0.063
-285.559	496.602	0.095	0.218
-284.545	36.341	0.233	-0.204
-283.530	-58.891	-0.321	-0.138
-282.516	-82.380	0.248	-0.080
-281.501	-200.000	0.005	-0.112
-280.486	41.833	-0.198	0.178
-279.472	153.628	-0.080	0.109
-278.457	478.254	0.085	-0.191
-277.443	-91.358	-0.104	0.030
-276.428	-85.369	0.289	-0.090
-275.413	-113.468	0.473	-0.092
-274.399	-200.000	-0.036	-0.282
-273.384	800.000	0.029	0.099
-272.370	61.336	0.230	-0.228
-271.355	-17.850	0.257	0.161
-270.340	-13.826	0.241	-0.155
-269.326	800.000	0.104	-0.290
-268.311	-62.713	-0.108	-0.045
-267.297	-200.000	0.004	-0.045
-266.282	-133.878	0.018	-0.002
-265.267	56.314	0.232	0.224
-264.253	-200.000	0.026	-0.247
-263.238	-200.000	0.070	-0.323
-262.224	-148.719	0.376	-0.030
-261.209	-8.187	-0.067	-0.045
-260.195	-63.930	-0.335	0.136
-259.180	306.663	-0.093	-0.173
-258.165	174.715	-0.091	-0.131
-257.151	153.836	0.051	0.070
-256.136	35.176	0.188	0.164
-255.122	-164.298	-0.111	-0.005
-254.107	86.819	0.019	-0.021
-253.092	-23.459	0.121	0.072
-252.078	386.724	-0.111	0.228
-251.063	107.097	-0.103	-0.121
-250.049	56.892	-0.086	0.083
-249.034	-38.369	0.178	-0.094
-248.019	-75.219	-0.226	0.080
-247.005	-113.245	0.251	0.049
-245.990	-14.061	0.226	0.145
-244.976	-200.000	-0.036	-0.269
-243.961	443.027	0.030	0.066
-242.946	800.000	0.004	0.017
-241.932	32.203	-0.228	-0.196
-240.917	9.575	-0.089	-0.067
-239.903	143.067	0.101	0.134
-238.888	-132.974	-0.052	0.007
-237.873	-61.299	-0.032	0.013
-236.859	272.424	0.156	-0.275
-235.844	262.760	0.123	-0.212
-234.830	-200.000	0.023	0.265
-233.815	573.013	-0.103	0.249
-232.800	-125.849	0.061	-0.009
-231.786	44.519	0.285	-0.260
-230.771	0.922	-0.207	-0.148
-229.757	-72.035	-0.094	0.035
-228.742	-200.000	-0.000	0.046
-227.727	299.866	-0.222	-0.407
-226.713	496.752	-0.051	0.117
-225.698	94.942	0.080	-0.090
-224.684	275.342	0.029	0.052
-223.669	278.992	-0.072	-0.127
-222.655	-162.235	0.207	-0.010
-221.640	-184.133	-0.378	-0.006
-220.625	800.000	0.051	0.188
-219.611	627.264	-0.137	-0.345
-218.596	-80.638	0.178	0.059
-217.582	359.596	0.078	0.155
-216.567	242.290	0.075	-0.125
-215.552	72.222	-0.045	-0.047
-214.538	536.380	-0.029	0.067
-213.523	-69.127	0.032	0.012
-212.509	800.000	0.084	0.245
-211.494	-27.460	0.198	0.115
-210.479	-16.967	0.226	-0.142
-209.465	110.821	0.219	-0.261
-208.450	800.000	0.109	-0.309
-207.436	13.076	0.121	-0.093
-206.421	-144.739	-0.370	0.034
-205.406	170.048	-0.079	0.113
-204.392	-12.003	-0.182	-0.118
-203.377	240.715	0.043	0.072
-202.363	319.712	-0.041	0.077
-201.348	-58.231	0.168	-0.073
-200.333	-142.159	-0.303	-0.030
-199.319	-200.000	0.036	0.227
-198.304	193.470	-0.147	0.220
-197.290	6.738	0.204	-0.151
-196.275	194.019	-0.139	-0.209
-195.260	-200.000	-0.019	0.339
-194.246	-91.455	-0.270	0.077
-193.231	-138.781	0.155	-0.017
-192.217	351.689	0.114	0.224
-191.202	800.000	0.062	0.265
-190.187	-10.724	0.300	-0.197
-189.173	-135.038	-0.052	0.006
-188.158	158.439	0.140	-0.192
-187.144	-78.846	-0.314	0.106
-186.129	-200.000	-0.024	-0.231
-185.114	225.431	-0.126	-0.202
-184.100	637.125	-0.043	-0.109
-183.085	-200.000	-0.017	0.242
-182.071	124.564	0.082	-0.102
-181.056	-45.723	-0.206	0.101
-180.042	357.160	-0.016	-0.032
-179.027	800.000	0.027	-0.095
-178.012	-35.393	-0.353	0.190
-176.998	229.767	0.066	-0.108
-175.983	800.000	-0.112	-0.319
-174.969	-170.949	-0.390	-0.013
-173.954	-102.797	0.113	-0.027
-172.939	-102.316	-0.062	-0.015
-171.925	-5.349	0.272	-0.186
-170.910	-200.000	0.013	-0.119
-169.896	219.498	-0.217	-0.344
-168.881	158.103	-0.222	0.305
-167.866	65.682	0.060	-0.060
-166.852	-19.843	-0.210	-0.129
-165.837	-162.799	0.174	0.008
-164.823	-93.743	-0.152	-0.042
-163.808	800.000	0.026	0.111
-162.793	-90.103	-0.048	-0.014
-161.779	-51.598	0.121	0.056
-160.764	422.448	0.136	-0.291
-159.750	119.199	-0.123	-0.150
-158.735	800.000	0.076	-0.300
-157.720	49.109	-0.063	0.059
-156.706	78.193	-0.025	-0.026
-155.691	74.421	-0.060	0.062
-154.677	-118.348	0.401	-0.071
-153.662	138.594	0.059	0.077
-152.647	-164.753	0.309	-0.014
-151.633	-53.119	0.371	0.169
-150.618	-153.607	0.124	-0.008
-149.604	-2.500	0.078	0.054
-148.589	-178.261	0.165	0.004
-147.574	-120.669	-0.116	-0.019
-146.560	152.803	0.258	0.350
-145.545	18.512	0.110	0.087
-144.531	301.258	-0.074	0.135
-143.516	313.027	0.134	-0.250
-142.502	-200.000	0.006	-0.228
-141.487	-200.000	0.009	-0.173
-140.472	800.000	-0.010	0.041
-139.458	-200.000	-0.008	0.279
-138.443	-12.556	0.103	-0.067
-137.429	148.177	-0.166	-0.223
-136.414	-51.195	-0.023	-0.011
-135.399	800.000	-0.053	0.166
-134.385	379.489	0.154	0.313
-133.370	800.000	-0.033	0.096
-132.356	-200.000	0.021	0.169
-131.341	209.576	0.061	-0.095
-130.326	35.326	0.300	0.261
-129.312	220.270	-0.044	0.070
-128.297	-200.000	-0.026	0.175
-127.283	36.890	0.101	-0.089
-126.268	-189.799	0.186	-0.002
-125.253	-72.101	0.219	-0.081
-124.239	-200.000	0.025	0.201
-123.224	-147.759	0.200	0.017
-122.210	-63.130	-0.020	-0.008
-121.195	-200.000	-0.016	-0.394
-120.180	-200.000	-0.001	0.242
-119.166	-36.989	0.141	-0.075
-118.151	-99.018	-0.114	-0.029
-117.137	50.069	0.288	0.270
-116.122	800.000	0.097	-0.331
-115.107	22.402	0.166	-0.135
-114.093	-154.116	-0.223	0.015
-113.078	-137.637	0.236	0.026
-112.064	-174.808	0.408	0.011
-111.049	-112.562	0.111	-0.022
-110.034	-25.874	0.186	0.108
-109.020	232.735	0.100	0.163
-108.005	-44.838	-0.134	0.066
-106.991	-15.047	0.277	0.176
-105.976	72.013	0.106	0.109
-104.962	-200.000	0.008	-0.566
-103.947	209.427	0.075	0.116
-102.932	-64.609	-0.273	-0.110
-101.918	-200.000	-0.039	0.173
-100.903	-30.360	-0.190	-0.107
-99.889	-33.196	-0.191	0.105
-98.874	-200.000	-0.006	-0.067
-97.859	107.459	0.168	0.197
-96.845	371.172	-0.125	-0.252
-95.830	-96.029	0.095	0.025
-94.816	32.274	-0.122	0.104
-93.801	-51.804	0.195	0.090
-92.786	32.051	-0.232	-0.198
-91.772	188.605	-0.207	0.307
-90.757	53.129	0.211	0.200
-89.743	354.700	-0.088	0.173
-88.728	-119.167	-0.085	-0.015
-87.713	135.548	0.094	0.121
-86.699	27.590	-0.133	-0.111
-85.684	-168.506	-0.184	0.007
-84.670	-86.516	0.211	-0.064
-83.655	-93.718	-0.148	0.040
-82.640	-200.000	-0.011	-0.197
-81.626	-37.328	-0.247	0.130
-80.611	2.485	0.224	0.160
-79.597	-82.381	0.137	-0.044
-78.582	82.571	-0.133	0.143
-77.567	-200.000	0.033	0.242
-76.553	37.068	0.110	0.096
-75.538	-88.527	0.220	-0.065
-74.524	-47.173	0.306	-0.147
-73.509	207.899	-0.222	0.343
-72.494	26.984	0.309	0.256
-71.480	44.643	0.204	0.185
-70.465	35.150	0.049	-0.042
-69.451	-90.362	0.340	0.097
-68.436	320.376	-0.063	-0.118
-67.422	-200.000	0.017	0.347
-66.407	-102.564	0.313	0.074
-65.392	-82.807	0.261	0.083
-64.378	800.000	0.103	-0.356
-63.363	-200.000	0.012	0.209
-62.349	-200.000	0.045	-0.307
-61.334	85.488	-1.222	-1.326
-60.319	-69.922	0.675	0.254
-59.305	-200.000	-0.076	-0.577
-58.290	800.000	0.402	1.274
-57.276	800.000	0.488	1.520
-56.261	-200.000	99.282	602.615
-55.246	587.704	1400.186	3404.969
-54.232	190.200	2590.483	3841.737
-53.217	108.415	2300.451	2711.764
-52.203	38.421	2060.204	1813.229
-51.188	33.506	1975.599	1694.872
-50.173	31.988	1957.596	1665.898
-49.159	46.569	2009.815	1841.934
-48.144	48.167	2027.625	1872.581
-47.130	34.151	1988.015	1711.058
-46.115	31.766	1977.732	1680.771
-45.100	31.705	1974.404	1677.328
-44.086	31.730	1972.413	1675.800
-43.071	31.561	1969.897	1672.085
-42.057	31.594	1967.622	1670.380
-41.042	31.593	1965.648	1668.633
-40.027	31.621	1963.986	1667.401
-39.013	31.663	1961.670	1665.747
-37.998	31.673	1960.272	1664.579
-36.984	31.678	1958.262	1662.849
-35.969	31.688	1956.352	1661.252
-34.954	31.696	1954.849	1659.983
-33.940	31.651	1953.369	1658.264
-32.925	31.827	1951.191	1657.904
-31.911	31.703	1950.034	1655.755
-30.896	31.767	1948.035	1654.555
-29.881	31.761	1946.793	1653.387
-28.867	31.826	1944.727	1652.140
-27.852	31.792	1943.225	1650.494
-26.838	31.766	1941.384	1648.643
-25.823	31.770	1939.475	1646.988
-24.809	31.734	1938.653	1645.907
-23.794	31.741	1936.335	1643.934
-22.779	31.776	1934.568	1642.674
-21.765	31.786	1932.874	1641.259
-20.750	31.729	1931.076	1639.174
-19.736	31.711	1929.412	1637.536
-18.721	31.792	1927.910	1636.902
-17.706	31.778	1926.307	1635.352
-16.692	31.817	1924.828	1634.372
-15.677	31.727	1923.231	1632.174
-14.663	31.694	1922.317	1631.041
-13.648	31.696	1920.944	1629.831
-12.633	31.791	1919.419	1629.297
-11.619	31.739	1918.299	1627.827
-10.604	31.799	1916.807	1627.022
-9.590	31.723	1915.422	1625.120
-8.575	31.762	1913.857	1624.069
-7.560	31.751	1912.698	1622.922
-6.546	31.687	1911.759	1621.510
-5.531	31.719	1910.398	1620.567
-4.517	31.769	1908.747	1619.530
-3.502	31.781	1907.464	1618.481
-2.487	31.686	1906.198	1616.523
-1.473	31.694	1905.876	1616.262
-0.458	31.801	1900.693	1612.716
0.556	32.937	1879.974	1580.664
1.571	27.833	1858.172	1519.834
2.586	23.205	1878.527	1497.298
3.600	21.684	1913.197	1511.683
4.615	20.841	1907.142	1499.512
5.629	15.896	1807.170	1380.343
6.644	7.940	1692.027	1230.984
7.659	4.171	1657.260	1177.003
8.673	3.822	1654.479	1172.279
9.688	3.842	1653.003	1171.282
10.702	3.894	1651.361	1170.411
11.717	3.972	1648.330	1168.750
12.731	4.372	1647.632	1171.171
13.746	9.584	1659.599	1219.093
14.761	17.591	1677.221	1292.940
15.775	21.520	1682.847	1327.020
16.790	21.389	1681.890	1325.157
17.804	20.426	1678.739	1315.270
18.819	19.413	1675.660	1305.077
19.834	18.813	1673.283	1298.576
20.848	18.653	1671.858	1296.146
21.863	18.481	1670.419	1293.618
22.877	18.321	1669.340	1291.460
23.892	18.166	1668.081	1289.205
24.907	18.042	1667.081	1287.388
25.921	18.063	1665.502	1286.208
26.936	17.995	1664.528	1284.835
27.950	18.017	1664.326	1284.730
28.965	18.066	1663.526	1284.368
29.980	18.131	1662.538	1283.975
30.994	18.261	1661.585	1284.105
32.009	18.314	1660.592	1283.616
33.023	18.327	1660.232	1283.322
34.038	18.334	1658.851	1282.194
35.053	18.277	1657.917	1280.937
36.067	18.274	1656.537	1279.732
37.082	18.148	1655.267	1277.693
38.096	18.178	1654.263	1277.031
39.111	18.283	1653.229	1276.901
40.126	18.323	1653.106	1276.997
41.140	18.257	1652.095	1275.607
42.155	18.113	1650.006	1272.813
43.169	17.856	1648.545	1269.659
44.184	17.821	1647.580	1268.540
45.199	17.786	1646.436	1267.290
46.213	17.733	1644.659	1265.419
47.228	17.781	1643.893	1265.071
48.242	17.985	1642.728	1265.577
49.257	18.166	1641.930	1266.188
50.271	18.167	1640.890	1265.281
51.286	18.220	1639.442	1264.449
52.301	18.219	1637.801	1263.060
53.315	18.072	1637.074	1261.304
54.330	17.978	1635.635	1259.390
55.344	18.014	1633.125	1257.613
56.359	17.823	1631.982	1255.214
57.374	17.937	1630.891	1255.100
58.388	17.966	1629.632	1254.237
59.403	17.854	1627.924	1251.984
60.417	17.744	1627.021	1250.375
61.432	17.699	1626.152	1249.267
62.447	17.840	1624.203	1248.691
63.461	17.724	1623.581	1247.256
64.476	17.578	1622.510	1245.252
65.490	17.596	1621.076	1244.174
66.505	17.575	1620.159	1243.210
67.520	17.643	1618.534	1242.350
68.534	17.682	1617.802	1241.961
69.549	17.668	1617.108	1241.217
70.563	17.609	1615.773	1239.650
71.578	17.603	1614.372	1238.424
72.593	17.515	1613.288	1236.844
73.607	17.513	1612.041	1235.760
74.622	17.430	1610.943	1234.209
75.636	17.442	1610.174	1233.596
76.651	17.475	1609.460	1233.182
77.666	17.543	1608.122	1232.538
78.680	17.521	1607.803	1232.027
79.695	17.643	1607.018	1232.200
80.709	17.637	1606.460	1231.614
81.724	17.635	1605.863	1231.039
82.739	17.769	1604.738	1231.031
83.753	17.853	1603.481	1230.569
84.768	17.885	1603.558	1230.746
85.782	18.076	1602.740	1231.388
86.797	18.169	1602.214	1231.544
87.812	18.314	1601.078	1231.601
88.826	18.194	1599.592	1229.485
89.841	18.089	1598.692	1227.932
90.855	18.160	1597.431	1227.369
91.870	18.278	1596.303	1227.235
92.884	18.349	1595.718	1227.186
93.899	18.303	1595.129	1226.295
94.914	18.338	1593.369	1225.082
95.928	18.369	1592.280	1224.362
96.943	18.464	1591.116	1224.033
97.957	18.311	1589.364	1221.491
98.972	18.273	1587.912	1219.992
99.987	18.249	1586.455	1218.594
101.001	18.226	1585.310	1217.444
102.016	18.236	1583.442	1215.973
103.030	18.230	1581.954	1214.680
104.045	18.280	1581.458	1214.544
105.060	18.295	1580.008	1213.430
106.074	18.146	1578.185	1210.867
107.089	18.039	1576.763	1208.915
108.103	17.765	1574.518	1205.149
109.118	17.638	1573.277	1203.196
110.133	17.648	1571.771	1202.008
111.147	17.570	1571.115	1200.853
112.162	17.580	1569.208	1199.357
113.176	17.647	1567.987	1198.790
114.191	17.682	1566.614	1197.883
115.206	17.735	1565.625	1197.391
116.220	17.776	1564.482	1196.697
117.235	17.758	1562.810	1195.187
118.249	17.792	1561.757	1194.511
119.264	17.842	1560.391	1193.716
120.279	17.732	1558.828	1191.643
121.293	17.680	1557.389	1190.077
122.308	17.539	1556.627	1188.405
123.322	17.598	1553.874	1186.609
124.337	17.577	1552.736	1185.491
125.352	17.451	1552.201	1184.095
126.366	17.469	1550.492	1182.817
127.381	17.422	1549.326	1181.494
128.395	17.470	1548.199	1180.866
129.410	17.549	1546.531	1180.036
130.424	17.493	1545.451	1178.719
131.439	17.610	1544.573	1178.751
132.454	17.589	1543.386	1177.601
133.468	17.716	1542.194	1177.462
134.483	17.804	1540.085	1176.353
135.497	17.793	1539.199	1175.494
136.512	17.768	1537.968	1174.278
137.527	17.891	1536.562	1173.948
138.541	17.874	1535.265	1172.738
139.556	17.825	1534.274	1171.544
140.570	17.884	1532.669	1170.616
141.585	18.048	1531.550	1170.784
142.600	18.121	1530.156	1170.113
143.614	18.168	1529.424	1169.771
144.629	18.267	1528.008	1169.257
145.643	18.442	1526.240	1169.000
146.658	18.345	1525.351	1167.553
147.673	18.313	1523.366	1165.710
148.687	18.125	1521.850	1163.173
149.702	18.030	1520.643	1161.498
150.716	17.992	1519.094	1159.957
151.731	18.015	1517.306	1158.640
152.746	17.920	1516.408	1157.212
153.760	17.889	1515.151	1155.937
154.775	18.000	1514.009	1155.714
155.789	18.041	1512.497	1154.736
156.804	18.137	1511.456	1154.491
157.819	18.171	1510.291	1153.723
158.833	18.173	1509.291	1152.873
159.848	18.296	1508.115	1152.702
160.862	18.388	1506.958	1152.336
161.877	18.403	1505.940	1151.551
162.892	18.293	1504.839	1149.873
163.906	17.999	1503.198	1146.542
164.921	17.950	1501.684	1144.956
165.935	17.932	1500.772	1144.039
166.950	17.987	1499.551	1143.380
167.964	18.033	1498.477	1142.767
168.979	18.088	1497.894	1142.587
169.994	18.083	1496.714	1141.553
171.008	18.059	1495.236	1140.165
172.023	17.990	1494.497	1139.038
173.037	18.130	1493.234	1138.910
174.052	18.225	1492.296	1138.725
175.067	18.332	1491.310	1138.586
176.081	18.354	1489.726	1137.418
177.096	17.973	1488.772	1134.061
178.110	17.934	1487.278	1132.564
179.125	18.014	1485.924	1131.966
180.140	18.054	1484.438	1130.996
181.154	18.040	1483.716	1130.250
182.169	18.157	1482.580	1130.058
183.183	18.296	1481.410	1129.987
184.198	18.303	1480.763	1129.437
185.213	18.295	1480.247	1128.894
186.227	18.449	1478.487	1128.468
187.242	18.361	1477.855	1127.302
188.256	18.466	1476.792	1127.087
189.271	18.607	1475.614	1127.012
190.286	18.605	1475.003	1126.434
191.300	18.516	1473.538	1124.631
192.315	18.206	1472.073	1121.378
193.329	17.933	1470.551	1118.337
194.344	17.857	1469.537	1116.964
195.359	17.967	1468.309	1116.654
196.373	18.050	1467.929	1116.807
197.388	18.235	1467.020	1117.224
198.402	18.333	1465.645	1116.716
199.417	18.377	1465.119	1116.508
200.432	18.573	1464.195	1116.983
201.446	18.669	1463.690	1117.120
202.461	18.852	1462.327	1117.174
203.475	18.825	1461.403	1116.189
204.490	18.913	1460.195	1115.739
205.504	18.770	1458.956	1113.767
206.519	18.617	1458.023	1111.963
207.534	18.506	1456.652	1110.102
208.548	18.422	1455.404	1108.512
209.563	18.434	1454.557	1107.843
210.577	18.553	1453.044	1107.360
211.592	18.494	1452.759	1106.667
212.607	18.559	1452.157	1106.532
213.621	18.704	1451.494	1106.861
214.636	18.773	1450.831	1106.704
215.650	18.765	1449.116	1105.244
216.665	18.814	1448.253	1104.802
217.680	18.756	1447.632	1103.858
218.694	18.795	1447.052	1103.571
219.709	18.972	1446.419	1104.124
220.723	19.062	1444.936	1103.477
221.738	18.905	1444.016	1101.665
222.753	18.883	1443.353	1100.924
223.767	18.868	1442.522	1100.094
224.782	18.868	1441.329	1099.091
225.796	18.873	1440.587	1098.458
226.811	19.002	1439.818	1098.600
227.826	18.928	1439.283	1097.623
228.840	18.930	1438.327	1096.810
229.855	18.870	1436.967	1095.288
230.869	18.869	1435.975	1094.434
231.884	18.905	1434.561	1093.485
232.899	18.866	1433.035	1091.975
233.913	18.686	1432.644	1090.442
234.928	18.690	1431.312	1089.355
235.942	18.690	1429.750	1088.073
236.957	18.546	1429.253	1086.685
237.972	18.563	1427.361	1085.254
238.986	18.581	1426.646	1084.731
240.001	18.698	1425.270	1084.328
241.015	18.792	1424.322	1084.100
242.030	18.670	1423.427	1082.553
243.045	18.794	1422.529	1082.562
244.059	18.772	1422.050	1081.958
245.074	18.853	1421.200	1081.726
246.088	18.836	1420.606	1081.072
247.103	18.962	1419.801	1081.159
248.117	18.964	1419.252	1080.653
249.132	19.189	1417.806	1080.870
250.147	19.250	1417.705	1081.079
251.161	19.410	1417.501	1081.831
252.176	19.501	1416.970	1081.901
253.190	19.577	1416.153	1081.662
254.205	19.632	1415.040	1081.059
255.220	19.823	1413.832	1081.234
256.234	19.796	1413.471	1080.695
257.249	19.778	1412.695	1079.889
258.263	19.736	1411.906	1078.931
259.278	19.665	1411.016	1077.712
260.293	19.654	1409.871	1076.675
261.307	19.634	1409.081	1075.851
262.322	19.838	1408.112	1076.284
263.336	19.851	1407.615	1075.894
264.351	19.817	1406.844	1074.996
265.366	19.841	1405.996	1074.400
266.380	19.928	1404.613	1073.787
267.395	19.832	1404.299	1072.856
268.409	19.955	1403.039	1072.563
269.424	19.724	1402.330	1070.495
270.439	19.715	1400.782	1069.162
271.453	19.704	1399.641	1068.130
272.468	19.636	1399.019	1067.144
273.482	19.651	1398.079	1066.420
274.497	19.549	1397.104	1064.952
275.512	19.635	1396.118	1064.637
276.526	19.582	1395.518	1063.763
277.541	19.555	1394.588	1062.792
278.555	19.621	1393.722	1062.442
279.570	19.596	1392.657	1061.387
280.585	19.710	1392.276	1061.702
281.599	19.925	1391.268	1062.158
282.614	19.927	1390.720	1061.655
283.628	19.890	1388.680	1059.777
284.643	19.682	1388.452	1058.239
285.657	19.751	1387.112	1057.548
286.672	19.640	1385.863	1055.818
287.687	19.760	1385.023	1055.820
288.701	19.691	1384.597	1054.980
289.716	19.841	1383.237	1054.767
290.730	19.835	1382.859	1054.349
291.745	19.799	1381.746	1053.186
292.760	19.848	1380.968	1052.795
293.774	19.861	1379.665	1051.794
294.789	19.927	1378.898	1051.515
295.803	19.916	1378.473	1051.028
296.818	20.041	1377.228	1050.744
297.833	19.993	1376.088	1049.490
298.847	19.920	1375.229	1048.301
299.862	19.874	1374.436	1047.326
300.876	19.731	1373.754	1045.850
301.891	19.851	1372.789	1045.749
302.906	19.930	1371.611	1045.235
303.920	20.145	1371.069	1046.029
304.935	20.198	1370.470	1045.798
305.949	20.209	1370.007	1045.416
306.964	20.293	1369.552	1045.484
307.979	20.386	1368.275	1044.975
308.993	20.315	1367.413	1043.801
310.008	20.169	1366.734	1042.311
311.022	20.185	1365.279	1041.206
312.037	20.212	1364.631	1040.779
313.052	20.399	1362.929	1040.508
314.066	20.301	1361.986	1039.113
315.081	20.197	1361.060	1037.690
316.095	19.960	1360.037	1035.400
317.110	19.981	1358.858	1034.537
318.125	19.967	1357.746	1033.516
319.139	20.027	1357.135	1033.317
320.154	19.978	1356.272	1032.279
321.168	19.973	1355.376	1031.472
322.183	20.055	1354.228	1030.996
323.197	20.093	1353.014	1030.209
324.212	20.144	1352.012	1029.656
325.227	20.195	1351.672	1029.607
326.241	20.058	1350.984	1028.183
327.256	20.192	1349.782	1027.971
328.270	20.185	1349.347	1027.504
329.285	20.145	1348.377	1026.439
330.300	20.039	1347.092	1024.745
331.314	20.098	1346.695	1024.701
332.329	20.019	1345.802	1023.464
333.343	20.062	1344.729	1022.810
334.358	20.196	1343.804	1022.807
335.373	20.213	1343.300	1022.433
336.387	20.342	1342.541	1022.522
337.402	20.283	1341.810	1021.529
338.416	20.365	1341.076	1021.364
339.431	20.452	1341.032	1021.752
340.446	20.454	1340.117	1020.974
341.460	20.607	1339.051	1020.970
342.475	20.674	1338.199	1020.625
343.489	20.701	1337.542	1020.189
344.504	20.850	1336.412	1020.114
345.519	20.917	1335.250	1019.524
346.533	20.836	1334.527	1018.409
347.548	20.880	1333.817	1018.037
348.562	20.898	1333.033	1017.454
349.577	20.937	1332.341	1017.062
350.592	20.773	1331.341	1015.254
351.606	20.677	1330.326	1013.829
352.621	20.559	1329.128	1012.141
353.635	20.430	1328.116	1010.530
354.650	20.469	1326.906	1009.746
355.665	20.494	1326.029	1009.135
356.679	20.475	1324.933	1008.099
357.694	20.425	1324.637	1007.498
358.708	20.467	1323.542	1006.818
359.723	20.648	1321.968	1006.576
360.738	20.717	1321.078	1006.210
361.752	20.709	1320.029	1005.277
362.767	20.764	1319.089	1004.791
363.781	20.695	1318.302	1003.704
364.796	20.783	1317.279	1003.343
365.810	20.840	1316.825	1003.236
366.825	20.935	1316.600	1003.520
367.840	21.011	1315.918	1003.349
368.854	21.146	1314.776	1003.168
369.869	21.239	1314.797	1003.631
370.883	21.216	1314.109	1002.885
371.898	21.221	1312.902	1001.900
372.913	21.086	1312.079	1000.411
373.927	21.066	1311.237	999.565
374.942	20.997	1310.375	998.427
375.956	21.188	1309.592	998.835
376.971	21.237	1308.564	998.244
377.986	21.103	1308.000	996.958
379.000	21.168	1307.028	996.499
380.015	21.197	1306.451	996.138
381.029	21.283	1306.099	996.270
382.044	21.321	1305.588	996.007
383.059	21.416	1304.766	995.837
384.073	21.349	1303.988	994.773
385.088	21.337	1303.550	994.281
386.102	21.334	1302.888	993.668
387.117	21.298	1302.602	993.159
388.132	21.328	1301.253	992.215
389.146	21.165	1300.300	990.476
390.161	21.100	1299.280	989.244
391.175	21.150	1298.304	988.695
392.190	21.060	1297.245	987.291
393.205	21.045	1296.712	986.713
394.219	21.334	1295.562	987.386
395.234	21.414	1294.666	987.065
396.248	21.398	1293.255	985.812
397.263	21.333	1291.964	984.373
398.278	21.174	1290.564	982.329
399.292	21.224	1289.559	981.756
400.307	21.062	1288.302	979.800
401.321	21.036	1286.901	978.501
402.336	20.937	1286.159	977.300
403.350	21.030	1285.355	977.125
404.365	21.028	1284.472	976.352
405.380	21.086	1283.220	975.639
406.394	21.212	1282.359	975.604
407.409	21.236	1282.291	975.597
408.423	21.247	1281.847	975.234
409.438	21.438	1280.954	975.535
410.453	21.456	1280.446	975.164
411.467	21.614	1279.602	975.316
412.482	21.655	1279.491	975.373
413.496	21.726	1278.534	974.948
414.511	21.680	1277.673	973.953
415.526	21.722	1277.364	973.865
416.540	21.795	1276.580	973.584
417.555	21.911	1276.180	973.837
418.569	21.859	1275.508	972.948
419.584	21.925	1274.781	972.677
420.599	21.830	1273.950	971.431
421.613	145.540	1431.737	1794.510
422.628	140.033	1454.721	1794.584
