DTS Sentinel unit serial number:	SN413079Multiplexer serial number:	ORYXHardware model number:	OX4-SRSoftware version number:	ORYX F/W v4.00 Oryx Data Collector v3.7.2.0data status	okinstallation	princeton_trtdifferential loss correction	single-endedforward channel	channel 4reverse channel	N/Adate	2019/09/12time	19:20:19forward acquisition time	15.00reverse acquisition time	0.00gamma	496.2192k internal	0.2308k external	0.2308temperature offset calibration	1.0147default loss term (dB/km)	0.3790temperature slope calibration	1.0000multiplexer offset coefficient	1.0000multiplexer slope coefficient	1.0000fibre end	0.00T internal ref (°C)	32.44T ext. ref 1 (°C)	3.23T ext. ref 2 (°C)	27.02length (m)	temperature (°C)	Stokes	anti-Stokes-747.200	-200.000	-0.650	-0.003
-746.185	-200.000	0.059	0.516
-745.171	40.069	-0.486	0.444
-744.156	319.404	-0.467	0.900
-743.142	8.570	-0.246	-0.188
-742.127	-46.849	0.596	-0.296
-741.112	140.624	0.241	-0.323
-740.098	381.940	0.344	-0.718
-739.083	1.929	-0.162	-0.119
-738.069	-10.353	-0.689	-0.464
-737.054	-171.464	0.386	-0.013
-736.039	-85.383	-0.496	0.157
-735.025	-200.000	0.025	-0.191
-734.010	-72.407	0.343	0.129
-732.996	25.912	-0.223	-0.189
-731.981	-85.235	0.442	-0.140
-730.966	-200.000	0.030	-0.166
-729.952	-200.000	-0.013	-0.608
-728.937	800.000	-0.283	-0.846
-727.923	-68.790	-0.670	-0.263
-726.908	-39.011	-0.211	0.113
-725.894	252.369	-0.170	-0.295
-724.879	-142.169	0.777	0.078
-723.864	-200.000	-0.042	-0.298
-722.850	332.539	0.057	-0.112
-721.835	-113.756	0.447	0.088
-720.821	-184.177	-0.682	-0.011
-719.806	207.792	0.312	-0.494
-718.791	-25.456	0.519	-0.311
-717.777	-69.300	-0.196	0.077
-716.762	-9.361	0.295	0.200
-715.748	81.284	0.436	0.479
-714.733	-35.394	0.759	0.419
-713.718	-200.000	0.013	-0.582
-712.704	368.880	-0.114	0.235
-711.689	-152.588	-0.654	-0.047
-710.675	-65.651	-0.503	-0.205
-709.660	800.000	0.200	-0.575
-708.645	-63.279	-0.330	-0.138
-707.631	-200.000	0.197	0.996
-706.616	49.036	0.131	0.125
-705.602	-101.852	-0.449	-0.110
-704.587	-200.000	-0.107	0.511
-703.572	-164.521	-0.689	0.032
-702.558	745.906	0.265	0.725
-701.543	34.406	-0.570	0.505
-700.529	-38.740	0.569	-0.304
-699.514	14.108	0.421	-0.333
-698.499	-33.841	0.279	-0.156
-697.485	-200.000	-0.056	0.792
-696.470	-200.000	-0.003	-0.146
-695.456	800.000	0.156	-0.511
-694.441	82.425	-0.697	-0.768
-693.426	-40.321	-0.644	0.339
-692.412	19.726	-0.850	0.694
-691.397	-6.693	0.307	0.212
-690.383	-10.263	-0.364	-0.245
-689.368	-187.383	-0.979	-0.013
-688.354	-200.000	0.017	-0.156
-687.339	178.749	-0.500	-0.741
-686.324	-62.854	-0.689	-0.289
-685.310	-104.368	0.760	0.179
-684.295	800.000	-0.044	0.184
-683.281	366.314	-0.343	0.700
-682.266	-120.804	-0.156	0.027
-681.251	800.000	-0.140	0.521
-680.237	-10.638	0.106	0.071
-679.222	800.000	0.216	-0.670
-678.208	-40.475	-0.454	-0.239
-677.193	-153.121	-0.499	-0.035
-676.178	-48.356	-0.103	0.051
-675.164	-54.076	0.369	-0.170
-674.149	213.594	0.036	-0.058
-673.135	35.380	-0.192	0.171
-672.120	19.826	-0.330	0.270
-671.105	800.000	-0.212	0.706
-670.091	87.155	-0.408	-0.457
-669.076	133.852	0.574	-0.753
-668.062	-167.523	0.619	0.025
-667.047	-200.000	0.151	0.875
-666.032	-99.453	-0.865	0.221
-665.018	40.030	0.523	0.476
-664.003	-80.246	0.788	0.267
-662.989	-200.000	-0.074	0.374
-661.974	-50.841	-0.449	0.214
-660.959	-36.946	-0.101	-0.055
-659.945	-40.443	-0.210	-0.111
-658.930	88.007	0.222	-0.249
-657.916	77.249	-0.337	-0.363
-656.901	-117.625	0.426	-0.078
-655.886	558.465	-0.253	0.617
-654.872	-54.413	-0.525	0.241
-653.857	-200.000	-0.047	0.314
-652.843	13.720	-0.293	-0.231
-651.828	-186.833	0.468	0.007
-650.814	-48.485	-0.359	-0.175
-649.799	-50.102	0.493	0.237
-648.784	-200.000	-0.011	-0.209
-647.770	-3.262	-0.166	0.117
-646.755	-200.000	0.009	-0.453
-645.741	-104.712	-0.284	-0.066
-644.726	-86.575	-0.190	0.059
-643.711	-90.421	-0.381	-0.112
-642.697	49.609	0.063	0.060
-641.682	155.856	-0.314	-0.438
-640.668	-66.852	-0.724	-0.290
-639.653	756.734	-0.282	-0.771
-638.638	-51.263	-1.117	0.529
-637.624	-107.181	0.408	-0.091
-636.609	-62.268	-0.237	0.100
-635.595	55.449	-0.573	-0.561
-634.580	-54.952	-0.437	0.199
-633.565	224.145	-0.231	0.378
-632.551	272.059	0.238	0.425
-631.536	64.275	-0.406	0.414
-630.522	-193.424	0.045	-0.000
-629.507	800.000	0.310	-0.924
-628.492	-20.557	-0.027	0.017
-627.478	-76.522	0.640	-0.228
-626.463	800.000	-0.037	-0.163
-625.449	-188.614	-0.427	-0.005
-624.434	-164.839	0.474	0.022
-623.419	-10.011	-0.141	-0.095
-622.405	45.425	-0.348	-0.325
-621.390	-143.592	0.535	-0.051
-620.376	-107.898	-0.384	-0.085
-619.361	429.105	-0.353	0.771
-618.346	-128.153	0.749	0.108
-617.332	321.890	0.206	-0.397
-616.317	335.107	-0.322	0.631
-615.303	421.274	0.122	-0.265
-614.288	37.488	0.378	-0.339
-613.273	364.434	0.316	0.643
-612.259	-149.847	0.162	-0.013
-611.244	168.944	0.447	-0.645
-610.230	-200.000	-0.034	-0.532
-609.215	800.000	-0.251	0.866
-608.201	-142.825	0.543	0.053
-607.186	153.900	0.111	-0.154
-606.171	-200.000	-0.012	-0.248
-605.157	175.583	-0.094	-0.138
-604.142	232.504	-0.389	-0.645
-603.128	-141.016	-0.875	0.091
-602.113	-89.045	0.937	-0.280
-601.098	800.000	-0.087	-0.275
-600.084	106.566	0.085	0.102
-599.069	173.268	-0.274	-0.400
-598.055	-200.000	-0.067	0.504
-597.040	-200.000	-0.001	0.164
-596.025	453.504	-0.161	0.360
-595.011	89.908	-0.308	-0.348
-593.996	-152.612	0.176	0.013
-592.982	93.572	0.701	0.802
-591.967	-38.554	0.374	0.200
-590.952	61.421	0.653	-0.656
-589.938	-48.079	0.236	0.115
-588.923	-108.212	0.146	-0.032
-587.909	147.325	0.336	-0.457
-586.894	105.303	0.146	-0.174
-585.879	-110.033	-0.792	0.167
-584.865	-87.548	-0.574	-0.175
-583.850	800.000	0.163	-0.539
-582.836	7.423	-0.477	-0.360
-581.821	97.426	0.699	0.811
-580.806	-108.094	0.925	0.203
-579.792	29.093	0.234	-0.201
-578.777	32.065	0.231	0.201
-577.763	-10.234	0.293	-0.197
-576.748	54.794	-0.522	-0.509
-575.733	182.897	0.079	0.118
-574.719	-164.638	-0.350	0.016
-573.704	-25.414	-0.502	-0.300
-572.690	24.431	0.553	0.461
-571.675	-200.000	-0.088	-0.459
-570.661	-200.000	-0.049	1.680
-569.646	-39.456	0.227	0.120
-568.631	-124.392	0.540	-0.085
-567.617	-3.960	-0.354	0.248
-566.602	-200.000	-0.076	-0.537
-565.588	437.810	0.201	0.443
-564.573	800.000	-0.257	-0.871
-563.558	158.546	-0.093	-0.131
-562.544	-12.075	-0.492	0.325
-561.529	-62.384	0.118	0.049
-560.515	274.662	0.480	-0.859
-559.500	-18.269	0.447	-0.282
-558.485	-52.202	0.104	0.049
-557.471	-200.000	0.038	1.264
-556.456	118.646	0.437	-0.545
-555.442	166.656	-0.370	0.529
-554.427	-132.398	0.379	-0.049
-553.412	149.691	0.483	0.661
-552.398	-102.684	-0.361	0.087
-551.383	73.151	0.128	0.135
-550.369	-200.000	0.008	-0.720
-549.354	-32.176	0.332	0.187
-548.339	-105.089	-0.329	0.076
-547.325	-28.676	-0.166	0.097
-546.310	-60.624	-0.223	-0.096
-545.296	800.000	0.103	-0.371
-544.281	101.168	-0.488	0.573
-543.266	46.647	-0.250	-0.234
-542.252	-43.921	0.549	0.278
-541.237	77.280	0.444	-0.476
-540.223	377.546	-0.251	0.518
-539.208	227.253	0.056	0.092
-538.193	683.556	0.224	0.590
-537.179	6.623	-0.689	-0.517
-536.164	31.966	0.754	-0.655
-535.150	-109.156	-0.608	0.130
-534.135	-31.245	0.308	0.175
-533.121	-200.000	-0.134	-0.660
-532.106	-116.436	-0.535	-0.100
-531.091	-183.202	-0.425	-0.008
-530.077	-200.000	0.041	-0.540
-529.062	-95.163	0.135	0.037
-528.048	-115.749	-0.310	-0.058
-527.033	-31.753	-0.270	0.152
-526.018	-200.000	-0.052	0.412
-525.004	-200.000	0.059	0.441
-523.989	61.394	-0.502	-0.502
-522.975	-10.557	0.471	-0.314
-521.960	-117.757	-0.438	0.079
-520.945	352.091	0.161	-0.321
-519.931	-53.860	-0.912	-0.419
-518.916	-21.153	-0.568	0.350
-517.902	-200.000	0.049	-0.412
-516.887	-183.028	-1.125	0.020
-515.872	-85.566	0.349	0.109
-514.858	323.404	-0.236	-0.453
-513.843	-23.576	-0.512	-0.310
-512.829	196.673	0.291	-0.446
-511.814	-91.233	0.745	-0.215
-510.799	-200.000	-0.009	-0.303
-509.785	-43.907	-0.322	-0.163
-508.770	225.938	0.381	-0.623
-507.756	-44.540	-0.075	0.038
-506.741	171.279	0.111	-0.160
-505.726	272.138	-0.318	-0.564
-504.712	-200.000	-0.053	-0.669
-503.697	146.568	0.561	-0.758
-502.683	800.000	-0.095	0.295
-501.668	-115.806	0.510	0.096
-500.653	800.000	0.099	0.288
-499.639	-96.645	-0.625	0.166
-498.624	186.994	0.234	-0.350
-497.610	-60.191	0.391	-0.168
-496.595	-75.471	-0.163	-0.058
-495.581	800.000	0.263	-0.989
-494.566	76.755	0.552	-0.589
-493.551	104.507	-0.702	0.832
-492.537	-98.407	0.670	-0.173
-491.522	25.474	0.239	-0.200
-490.508	13.848	0.396	0.310
-489.493	413.223	-0.465	-0.996
-488.478	48.134	0.217	-0.204
-487.464	-11.482	-0.669	0.443
-486.449	-48.130	-0.211	-0.103
-485.435	-61.026	0.564	0.240
-484.420	-139.202	0.329	-0.036
-483.405	-92.550	-0.385	0.109
-482.391	74.633	-0.129	0.137
-481.376	142.586	-0.005	-0.006
-480.362	-172.275	-0.394	-0.013
-479.347	-145.030	-0.544	0.050
-478.332	-200.000	-0.061	0.278
-477.318	-3.692	-0.473	-0.331
-476.303	-200.000	0.023	-0.472
-475.289	800.000	0.126	0.419
-474.274	-4.125	0.625	-0.435
-473.259	414.015	0.189	0.405
-472.245	800.000	0.131	0.381
-471.230	43.486	0.337	-0.310
-470.216	24.917	-0.304	-0.254
-469.201	-185.429	0.263	0.004
-468.186	2.242	0.409	-0.298
-467.172	353.476	-0.286	0.571
-466.157	-116.926	0.752	0.138
-465.143	-141.094	-0.390	-0.040
-464.128	-200.000	0.018	0.283
-463.113	800.000	0.086	-0.308
-462.099	125.891	-0.629	0.798
-461.084	578.680	0.034	-0.084
-460.070	20.977	-0.359	0.292
-459.055	-89.357	-0.885	0.262
-458.040	-15.131	-0.446	-0.287
-457.026	-1.744	-0.284	0.201
-456.011	-26.326	-0.362	0.214
-454.997	-99.292	0.274	-0.070
-453.982	39.727	-0.186	-0.167
-452.968	383.008	0.329	0.680
-451.953	-200.000	0.085	-0.874
-450.938	800.000	0.096	0.420
-449.924	236.160	-0.498	-0.828
-448.909	9.785	-0.397	0.303
-447.895	-155.353	-0.563	-0.037
-446.880	-200.000	-0.150	-0.919
-445.865	800.000	0.216	-0.621
-444.851	5.539	1.205	0.894
-443.836	254.878	-0.145	-0.250
-442.822	800.000	-0.123	-0.342
-441.807	-200.000	0.085	-0.442
-440.792	157.279	0.185	0.257
-439.778	-90.640	1.191	-0.346
-438.763	-52.805	0.643	0.297
-437.749	-122.646	0.354	-0.058
-436.734	-126.024	1.314	0.198
-435.719	-19.181	-0.601	0.375
-434.705	-102.730	-0.591	0.141
-433.690	-200.000	0.091	-0.547
-432.676	174.388	-0.403	0.585
-431.661	201.164	0.488	0.754
-430.646	800.000	0.074	0.271
-429.632	-59.311	0.573	-0.248
-428.617	83.170	-0.520	0.568
-427.603	-200.000	0.007	0.293
-426.588	-41.042	0.668	0.346
-425.573	-200.000	-0.124	0.921
-424.559	-45.523	0.271	-0.135
-423.544	660.342	-0.033	0.085
-422.530	101.279	-0.145	0.169
-421.515	-147.038	-0.493	0.042
-420.500	-144.737	-0.816	-0.075
-419.486	-76.420	0.453	0.160
-418.471	-200.000	-0.111	0.886
-417.457	519.711	0.290	-0.682
-416.442	800.000	-0.063	-0.262
-415.428	-119.280	0.486	0.085
-414.413	-50.980	0.650	-0.306
-413.398	33.615	0.531	0.463
-412.384	-132.838	-0.965	0.124
-411.369	800.000	-0.098	0.305
-410.355	323.640	0.249	-0.476
-409.340	64.935	-0.549	0.556
-408.325	75.027	-0.161	-0.170
-407.311	-36.651	0.499	-0.269
-406.296	-181.227	-0.912	0.018
-405.282	3.180	-0.286	-0.208
-404.267	49.033	0.334	-0.315
-403.252	-111.112	0.670	-0.138
-402.238	503.745	0.300	0.695
-401.223	326.444	0.100	0.193
-400.209	-200.000	0.085	0.465
-399.194	-148.980	-0.575	-0.046
-398.179	-28.498	0.241	0.139
-397.165	95.509	0.233	-0.266
-396.150	52.435	0.187	0.179
-395.136	-200.000	-0.094	0.521
-394.121	-136.078	-1.095	0.129
-393.106	-45.348	-0.626	0.312
-392.092	63.392	-0.493	-0.496
-391.077	195.511	-0.180	-0.274
-390.063	-121.528	-0.231	0.038
-389.048	46.001	0.418	0.388
-388.033	457.174	-0.327	-0.727
-387.019	141.445	0.260	-0.345
-386.004	800.000	-0.199	0.596
-384.990	591.991	0.332	0.823
-383.975	-200.000	0.099	-0.760
-382.960	800.000	-0.030	-0.119
-381.946	98.096	-0.509	-0.587
-380.931	281.237	0.069	0.123
-379.917	800.000	0.128	0.506
-378.902	-103.892	0.610	0.143
-377.888	368.155	-0.392	0.794
-376.873	-8.038	0.131	0.088
-375.858	261.563	0.726	1.260
-374.844	-60.094	0.857	0.366
-373.829	-11.662	0.631	-0.415
-372.815	-200.000	-0.011	-0.595
-371.800	161.655	-0.264	0.371
-370.785	75.067	-0.271	-0.286
-369.771	800.000	0.151	-0.557
-368.756	204.640	0.243	-0.378
-367.742	800.000	-0.144	-0.529
-366.727	-200.000	-0.001	-0.164
-365.712	-200.000	-0.067	-0.362
-364.698	-123.021	0.082	-0.013
-363.683	14.969	-0.398	0.312
-362.669	-80.485	-0.832	-0.278
-361.654	-200.000	0.037	-1.242
-360.639	-93.741	-0.776	0.214
-359.625	-137.544	-0.831	0.094
-358.610	800.000	0.224	0.797
-357.596	-200.000	0.055	0.578
-356.581	286.794	0.110	-0.199
-355.566	-52.378	1.013	0.470
-354.552	225.033	0.151	0.244
-353.537	-54.706	-0.697	0.316
-352.523	-84.381	-0.637	-0.202
-351.508	-81.094	-0.232	0.077
-350.493	800.000	0.169	0.512
-349.479	-200.000	-0.095	0.634
-348.464	109.331	0.682	0.817
-347.450	462.254	-0.363	-0.811
-346.435	-94.520	0.515	-0.140
-345.420	-200.000	0.036	0.680
-344.406	800.000	0.183	0.647
-343.391	-200.000	0.001	-0.251
-342.377	800.000	-0.122	0.392
-341.362	-12.055	0.536	-0.351
-340.348	-181.288	-1.688	-0.033
-339.333	-12.424	-0.253	-0.165
-338.318	800.000	0.152	-0.492
-337.304	7.568	0.513	0.384
-336.289	800.000	-0.182	0.635
-335.275	133.173	-0.227	0.294
-334.260	120.200	0.263	0.327
-333.245	279.261	-0.166	-0.296
-332.231	-200.000	0.041	-0.846
-331.216	-84.155	-0.373	0.118
-330.202	373.856	0.276	-0.562
-329.187	-128.307	0.291	0.041
-328.172	-200.000	-0.023	-0.246
-327.158	-200.000	0.197	-1.091
-326.143	159.139	0.359	-0.499
-325.129	349.815	0.137	0.271
-324.114	-113.865	0.299	-0.058
-323.099	-200.000	0.126	-0.625
-322.085	176.536	0.200	-0.290
-321.070	-200.000	0.200	-0.940
-320.056	-89.377	-0.266	-0.078
-319.041	-102.784	-0.884	-0.210
-318.026	52.581	-0.507	0.484
-317.012	104.394	-0.504	-0.593
-315.997	80.078	0.496	-0.533
-314.983	-200.000	0.090	0.501
-313.968	325.224	-0.135	0.258
-312.953	-200.000	0.111	0.902
-311.939	146.941	-0.050	-0.067
-310.924	-16.635	0.426	-0.269
-309.910	95.106	0.355	0.404
-308.895	-185.674	-0.477	0.007
-307.880	-111.448	0.824	-0.168
-306.866	303.105	0.276	-0.510
-305.851	-200.000	0.034	0.178
-304.837	-45.388	-0.190	0.094
-303.822	-59.708	-1.069	0.458
-302.807	11.174	-0.303	0.232
-301.793	-31.596	0.653	-0.367
-300.778	-35.731	0.204	0.111
-299.764	-44.332	0.290	-0.145
-298.749	-200.000	0.085	-0.383
-297.735	-91.042	0.839	-0.241
-296.720	800.000	0.048	0.168
-295.705	-68.210	-0.510	-0.198
-294.691	5.827	0.743	0.549
-293.676	-200.000	-0.010	-0.592
-292.662	-40.408	-0.304	0.158
-291.647	64.661	-0.291	0.293
-290.632	-67.390	0.289	-0.114
-289.618	800.000	-0.078	-0.285
-288.603	-130.135	0.622	0.085
-287.589	-17.902	0.134	-0.084
-286.574	39.042	0.519	-0.464
-285.559	800.000	0.334	-0.972
-284.545	42.991	-0.227	-0.207
-283.530	-10.660	0.659	0.435
-282.516	800.000	0.036	-0.148
-281.501	-59.442	-0.705	-0.302
-280.486	-56.502	-0.366	-0.162
-279.472	-89.417	0.328	-0.096
-278.457	611.234	-0.269	0.672
-277.443	-18.040	0.256	0.160
-276.428	-17.038	-0.086	-0.054
-275.413	284.986	0.340	-0.612
-274.399	-200.000	0.069	0.371
-273.384	92.498	-0.307	0.345
-272.370	113.139	0.647	0.782
-271.355	-70.209	-0.651	0.247
-270.340	-85.009	-0.532	0.166
-269.326	348.271	-0.390	0.767
-268.311	-82.119	0.747	-0.243
-267.297	306.553	0.223	0.414
-266.282	-37.421	0.349	-0.186
-265.267	6.898	0.297	-0.221
-264.253	326.094	0.087	0.166
-263.238	124.104	0.254	0.318
-262.224	538.895	0.316	-0.751
-261.209	-111.936	-0.223	0.045
-260.195	-44.131	0.220	-0.110
-259.180	-70.403	-0.599	-0.226
-258.165	-48.505	-0.609	0.292
-257.151	-101.182	-0.929	-0.226
-256.136	-137.723	0.677	0.076
-255.122	13.750	0.273	-0.212
-254.107	-26.864	0.559	0.325
-253.092	60.314	0.384	0.378
-252.078	800.000	0.125	-0.395
-251.063	-200.000	-0.006	-0.283
-250.049	648.621	-0.232	0.592
-249.034	259.524	-0.354	0.610
-248.019	-71.840	0.478	0.178
-247.005	19.431	0.161	0.129
-245.990	90.639	-0.218	-0.243
-244.976	-122.143	-0.566	0.092
-243.961	-200.000	-0.132	-0.629
-242.946	800.000	-0.169	-0.651
-241.932	70.097	-0.437	0.450
-240.917	61.721	-0.366	0.363
-239.903	-50.826	-0.769	-0.360
-238.888	5.591	0.714	0.526
-237.873	119.967	0.166	-0.205
-236.859	343.637	0.319	0.622
-235.844	-97.356	-0.665	-0.173
-234.830	27.192	-0.779	0.651
-233.815	-18.690	1.031	0.640
-232.800	123.263	-0.489	0.611
-231.786	80.609	0.067	0.072
-230.771	-85.337	-0.845	-0.263
-229.757	177.890	0.746	1.084
-228.742	122.447	-0.366	-0.456
-227.727	450.670	-0.264	-0.580
-226.713	800.000	-0.070	0.204
-225.698	-130.058	-0.392	0.053
-224.684	-83.737	-0.478	0.152
-223.669	-200.000	0.072	0.417
-222.655	330.128	0.707	-1.355
-221.640	-200.000	-0.004	-0.288
-220.625	72.049	0.531	0.550
-219.611	-7.804	-0.527	-0.355
-218.596	-37.556	0.484	0.257
-217.582	57.710	-0.284	-0.276
-216.567	-200.000	0.005	-0.030
-215.552	-69.626	-0.502	-0.191
-214.538	139.413	0.258	-0.338
-213.523	20.175	-0.494	-0.397
-212.509	-200.000	0.029	-0.211
-211.494	51.453	0.422	0.399
-210.479	353.757	-0.362	0.716
-209.465	-200.000	0.009	-1.155
-208.450	-2.249	-0.750	0.524
-207.436	153.603	0.260	-0.355
-206.421	-83.628	-0.651	-0.207
-205.406	22.221	0.396	0.322
-204.392	34.284	-0.453	0.393
-203.377	73.771	0.335	0.349
-202.363	-32.216	0.486	-0.270
-201.348	-63.155	0.508	0.208
-200.333	800.000	0.186	0.569
-199.319	46.077	0.584	-0.538
-198.304	-145.397	-1.042	-0.093
-197.290	743.677	0.172	-0.459
-196.275	-200.000	-0.090	-0.465
-195.260	-69.605	0.477	-0.182
-194.246	-123.668	-0.112	0.018
-193.231	146.955	-0.149	-0.199
-192.217	604.013	-0.132	0.327
-191.202	-51.864	0.942	0.436
-190.187	-200.000	-0.036	-0.496
-189.173	-56.083	0.554	0.246
-188.158	15.335	0.864	0.674
-187.144	278.320	-0.131	-0.232
-186.129	481.246	0.153	0.346
-185.114	-200.000	-0.197	1.068
-184.100	-116.293	-0.442	-0.081
-183.085	-200.000	-0.067	-0.448
-182.071	-200.000	0.036	0.173
-181.056	800.000	0.214	0.902
-180.042	143.911	-0.233	0.308
-179.027	32.488	-0.544	-0.467
-178.012	800.000	-0.287	0.928
-176.998	-64.636	-0.303	-0.122
-175.983	800.000	0.141	0.490
-174.969	-200.000	0.053	0.380
-173.954	15.979	-0.411	0.322
-172.939	113.658	0.716	0.864
-171.925	211.043	0.561	-0.877
-170.910	48.353	0.764	0.711
-169.896	-200.000	0.022	-0.565
-168.881	-70.506	-0.148	-0.056
-167.866	-163.475	-0.427	-0.020
-166.852	33.730	-0.736	0.636
-165.837	-3.185	0.903	-0.625
-164.823	-57.625	-0.878	0.382
-163.808	148.911	0.275	-0.370
-162.793	-200.000	-0.116	-0.521
-161.779	-87.217	0.555	-0.167
-160.764	2.016	0.726	-0.520
-159.750	-115.475	-0.855	-0.160
-158.735	301.776	-0.223	-0.409
-157.720	-27.838	0.218	-0.125
-156.706	-200.000	-0.005	0.324
-155.691	164.740	-0.264	-0.369
-154.677	-200.000	0.070	0.434
-153.662	-108.534	-0.411	0.088
-152.647	-15.115	1.010	0.642
-151.633	662.313	-0.294	0.752
-150.618	-80.790	-0.362	0.119
-149.604	800.000	-0.381	-1.079
-148.589	-86.011	0.961	-0.295
-147.574	81.979	-0.428	0.461
-146.560	96.230	0.257	0.292
-145.545	-200.000	0.035	-0.221
-144.531	-200.000	-0.166	-1.022
-143.516	-200.000	0.074	-0.627
-142.502	-200.000	-0.028	0.131
-141.487	34.470	-0.206	0.179
-140.472	-148.170	-0.672	0.055
-139.458	207.964	0.137	0.213
-138.443	134.002	-0.135	0.174
-137.429	800.000	0.149	0.545
-136.414	-69.971	0.468	-0.177
-135.399	800.000	-0.094	-0.362
-134.385	800.000	0.377	-1.156
-133.370	371.028	-0.347	0.699
-132.356	-108.851	-0.367	-0.078
-131.341	800.000	-0.093	0.369
-130.326	286.160	-0.121	-0.216
-129.312	-200.000	0.068	0.646
-128.297	-200.000	0.158	-0.947
-127.283	84.143	-0.248	-0.269
-126.268	-103.743	-0.439	-0.102
-125.253	81.412	0.211	-0.226
-124.239	-12.485	-1.037	0.672
-123.224	-118.968	1.062	-0.185
-122.210	-91.434	0.214	0.061
-121.195	800.000	-0.239	-0.967
-120.180	16.266	0.684	-0.535
-119.166	800.000	0.173	-0.647
-118.151	800.000	0.140	0.557
-117.137	-200.000	0.066	-0.351
-116.122	-200.000	-0.074	0.394
-115.107	24.659	-0.301	0.247
-114.093	-109.679	0.672	-0.140
-113.078	416.478	0.178	-0.377
-112.064	-200.000	0.049	-0.264
-111.049	-120.770	0.638	0.107
-110.034	-180.662	0.571	-0.012
-109.020	18.166	0.340	0.269
-108.005	8.872	-0.320	-0.239
-106.991	-200.000	0.009	0.253
-105.976	-147.151	-0.887	-0.075
-104.962	236.099	-0.162	-0.265
-103.947	-124.722	0.825	-0.127
-102.932	-86.809	0.109	-0.033
-101.918	-66.327	0.704	0.278
-100.903	-131.342	-0.611	0.080
-99.889	14.573	-0.540	-0.418
-98.874	-22.548	-0.595	0.357
-97.859	-119.808	0.697	0.119
-96.845	-83.706	0.369	-0.117
-95.830	-200.000	-0.119	-0.645
-94.816	-186.665	-0.851	0.012
-93.801	-117.627	-0.424	0.076
-92.786	800.000	0.238	0.739
-91.772	-161.427	-0.993	0.051
-90.757	800.000	0.236	0.837
-89.743	-200.000	-0.050	-0.230
-88.728	-75.093	-0.603	0.214
-87.713	30.269	-0.212	-0.179
-86.699	-3.125	0.788	-0.544
-85.684	-121.081	0.084	-0.014
-84.670	-158.726	0.446	0.025
-83.655	800.000	0.136	0.490
-82.640	118.184	0.241	-0.295
-81.626	-23.777	1.106	0.656
-80.611	-200.000	-0.037	0.526
-79.597	91.650	0.383	0.427
-78.582	211.385	0.674	-1.050
-77.567	27.040	0.220	-0.183
-76.553	32.565	0.386	0.330
-75.538	-106.213	-0.891	-0.198
-74.524	-200.000	-0.117	0.656
-73.509	-4.291	-0.255	0.175
-72.494	-200.000	0.028	-0.456
-71.480	-33.704	0.367	-0.200
-70.465	-90.569	-0.403	-0.116
-69.451	-64.228	-0.089	-0.036
-68.436	-200.000	0.058	-0.295
-67.422	-200.000	-0.035	0.344
-66.407	347.455	-0.207	0.404
-65.392	145.230	0.193	-0.256
-64.378	-171.013	-0.918	0.031
-63.363	-46.262	-0.287	-0.140
-62.349	118.866	-0.153	-0.187
-61.334	-10.239	-1.559	-1.024
-60.319	-200.000	-0.014	0.343
-59.305	-200.000	-0.203	-0.910
-58.290	195.795	0.572	0.860
-57.276	-200.000	-0.424	2.287
-56.261	-200.000	95.662	593.768
-55.246	671.549	1349.963	3460.873
-54.232	201.130	2522.271	3840.390
-53.217	109.895	2278.359	2703.715
-52.203	39.278	2043.791	1809.648
-51.188	34.113	1961.372	1690.849
-50.173	32.803	1942.789	1663.220
-49.159	48.038	1994.612	1844.065
-48.144	48.821	2012.820	1867.829
-47.130	34.806	1974.473	1708.069
-46.115	32.482	1964.474	1678.658
-45.100	32.315	1962.039	1675.024
-44.086	32.237	1960.120	1672.620
-43.071	32.375	1955.636	1669.959
-42.057	32.249	1954.181	1667.525
-41.042	32.235	1951.863	1665.365
-40.027	32.328	1950.626	1665.059
-39.013	32.567	1946.736	1663.790
-37.998	32.416	1945.663	1661.476
-36.984	32.355	1945.142	1660.419
-35.969	32.386	1942.707	1658.554
-34.954	32.396	1941.014	1657.126
-33.940	32.533	1939.977	1657.380
-32.925	32.520	1938.194	1655.677
-31.911	32.430	1936.333	1653.230
-30.896	32.400	1935.035	1651.799
-29.881	32.487	1932.984	1650.745
-28.867	32.448	1932.039	1649.527
-27.852	32.432	1930.210	1647.762
-26.838	32.332	1928.110	1645.031
-25.823	32.245	1927.754	1643.899
-24.809	32.549	1923.511	1642.870
-23.794	32.458	1922.849	1641.444
-22.779	32.196	1921.698	1638.115
-21.765	32.140	1920.654	1636.670
-20.750	32.451	1917.972	1637.027
-19.736	32.507	1915.534	1635.368
-18.721	32.484	1913.769	1633.593
-17.706	32.473	1913.680	1633.357
-16.692	32.378	1911.446	1630.563
-15.677	32.594	1909.476	1630.688
-14.663	32.486	1908.740	1629.061
-13.648	32.407	1908.162	1627.817
-12.633	32.561	1906.490	1627.655
-11.619	32.551	1905.433	1626.606
-10.604	32.416	1903.673	1623.872
-9.590	32.537	1901.433	1622.937
-8.575	32.465	1901.385	1622.216
-7.560	32.507	1899.662	1621.043
-6.546	32.423	1899.225	1619.883
-5.531	32.578	1896.217	1618.587
-4.517	32.517	1896.148	1617.934
-3.502	32.301	1895.785	1615.704
-2.487	32.355	1894.899	1615.351
-1.473	32.443	1892.816	1614.266
-0.458	32.423	1888.614	1610.449
0.556	33.714	1867.468	1582.406
1.571	29.206	1848.735	1529.078
2.586	25.218	1870.125	1513.078
3.600	24.112	1904.501	1531.247
4.615	23.265	1900.843	1520.896
5.629	18.034	1801.069	1398.252
6.644	8.373	1682.765	1232.087
7.659	3.645	1645.900	1169.249
8.673	3.239	1642.216	1163.465
9.688	3.214	1641.846	1162.912
10.702	3.384	1640.277	1162.979
11.717	3.082	1637.169	1158.397
12.731	3.689	1635.659	1161.793
13.746	10.386	1652.553	1224.443
14.761	20.135	1673.511	1314.130
15.775	24.582	1681.568	1354.135
16.790	25.057	1679.862	1356.239
17.804	24.865	1678.875	1353.867
18.819	24.575	1677.597	1350.523
19.834	24.561	1676.095	1349.092
20.848	24.508	1675.782	1348.320
21.863	24.412	1675.607	1347.335
22.877	24.540	1673.200	1346.243
23.892	24.879	1673.524	1348.940
24.907	24.670	1672.291	1346.250
25.921	24.713	1670.557	1345.059
26.936	24.675	1669.601	1343.886
27.950	24.686	1668.333	1342.834
28.965	24.737	1667.981	1342.815
29.980	24.557	1667.735	1341.141
30.994	25.079	1665.838	1343.412
32.009	24.664	1666.195	1340.471
33.023	24.899	1665.472	1341.533
34.038	24.853	1663.489	1339.468
35.053	24.925	1663.415	1339.830
36.067	24.796	1662.752	1338.212
37.082	24.796	1659.735	1335.671
38.096	24.635	1660.676	1335.107
39.111	24.462	1659.422	1332.683
40.126	24.762	1658.075	1333.723
41.140	24.796	1658.222	1333.974
42.155	24.522	1657.612	1331.323
43.169	24.368	1654.750	1327.759
44.184	24.355	1654.149	1327.068
45.199	24.256	1653.252	1325.491
46.213	24.079	1651.926	1322.996
47.228	24.370	1651.510	1324.707
48.242	24.563	1650.538	1325.240
49.257	24.676	1649.083	1324.793
50.271	24.675	1648.540	1324.237
51.286	24.456	1648.030	1322.088
52.301	24.881	1644.560	1322.324
53.315	24.779	1644.989	1321.802
54.330	24.622	1641.826	1317.981
55.344	24.658	1640.758	1317.272
56.359	24.575	1639.774	1315.759
57.374	24.669	1638.523	1315.332
58.388	24.675	1637.538	1314.467
59.403	24.505	1636.798	1312.509
60.417	24.359	1635.598	1310.357
61.432	24.238	1635.613	1309.365
62.447	24.373	1633.130	1308.252
63.461	24.320	1632.330	1307.107
64.476	24.400	1631.554	1306.953
65.490	24.248	1631.537	1305.712
66.505	24.402	1629.548	1305.131
67.520	24.225	1628.680	1303.028
68.534	24.056	1627.086	1300.399
69.549	24.322	1626.455	1301.726
70.563	24.434	1624.510	1300.870
71.578	24.197	1622.799	1297.655
72.593	24.377	1622.967	1298.987
73.607	24.035	1622.993	1296.399
74.622	24.113	1621.657	1295.785
75.636	24.103	1620.296	1294.513
76.651	24.211	1619.788	1294.779
77.666	24.208	1618.448	1293.571
78.680	24.060	1618.246	1292.221
79.695	24.097	1618.191	1292.331
80.709	24.302	1616.615	1292.446
81.724	24.417	1614.145	1291.186
82.739	24.368	1615.725	1291.981
83.753	24.265	1614.881	1290.444
84.768	24.434	1612.528	1289.670
85.782	24.726	1612.969	1292.019
86.797	25.127	1612.235	1294.215
87.812	24.930	1610.947	1291.641
88.826	24.860	1611.161	1291.200
89.841	24.547	1610.027	1287.919
90.855	24.635	1608.135	1286.926
91.870	24.950	1606.581	1287.833
92.884	24.901	1606.718	1287.474
93.899	24.941	1606.921	1287.811
94.914	24.933	1604.764	1285.914
95.928	24.996	1603.530	1285.264
96.943	24.961	1601.623	1283.370
97.957	24.846	1600.724	1281.713
98.972	24.851	1598.839	1280.125
99.987	24.975	1598.849	1280.908
101.001	24.852	1596.309	1277.882
102.016	24.665	1595.654	1275.910
103.030	24.633	1594.308	1274.492
104.045	24.777	1592.615	1274.047
105.060	24.701	1592.295	1273.139
106.074	24.754	1590.823	1272.223
107.089	24.594	1588.209	1268.887
108.103	24.462	1587.252	1267.076
109.118	24.457	1586.393	1266.243
110.133	24.217	1584.425	1262.859
111.147	24.186	1582.851	1261.273
112.162	24.178	1581.890	1260.337
113.176	24.260	1580.835	1259.965
114.191	24.462	1580.105	1260.695
115.206	24.341	1579.108	1258.938
116.220	24.453	1577.578	1258.399
117.235	24.552	1576.074	1257.781
118.249	24.389	1575.387	1255.977
119.264	24.290	1573.696	1253.818
120.279	24.273	1571.997	1252.237
121.293	23.908	1571.290	1249.002
122.308	24.391	1569.634	1250.959
123.322	24.320	1568.280	1249.270
124.337	24.057	1567.138	1246.407
125.352	23.903	1566.604	1244.799
126.366	23.943	1566.231	1244.669
127.381	24.048	1564.527	1243.942
128.395	24.359	1562.422	1244.327
129.410	24.170	1562.589	1243.030
130.424	23.816	1561.794	1239.818
131.439	23.874	1559.681	1238.436
132.454	23.842	1558.531	1237.195
133.468	23.851	1557.939	1236.675
134.483	24.316	1556.007	1238.263
135.497	24.400	1554.625	1237.632
136.512	24.545	1553.427	1237.577
137.527	24.319	1553.200	1235.723
138.541	24.385	1552.061	1235.159
139.556	24.344	1550.508	1233.530
140.570	24.461	1548.489	1232.627
141.585	24.544	1547.605	1232.387
142.600	24.483	1548.166	1232.299
143.614	24.524	1547.788	1232.176
144.629	24.811	1546.603	1233.101
145.643	24.986	1544.769	1232.731
146.658	24.796	1543.645	1230.418
147.673	24.828	1542.427	1229.559
148.687	24.863	1541.004	1228.559
149.702	24.760	1539.858	1226.828
150.716	24.653	1538.489	1224.896
151.731	24.452	1536.797	1222.064
152.746	24.172	1535.425	1218.954
153.760	24.249	1533.921	1218.177
154.775	24.189	1533.490	1217.317
155.789	24.369	1533.548	1218.485
156.804	24.709	1531.331	1218.930
157.819	24.853	1529.201	1218.110
158.833	24.470	1529.197	1215.391
159.848	24.684	1527.954	1215.755
160.862	24.754	1528.044	1216.192
161.877	24.901	1526.606	1215.939
162.892	24.789	1524.229	1213.180
163.906	24.568	1524.324	1211.649
164.921	24.462	1522.648	1209.487
165.935	24.022	1522.382	1206.189
166.950	24.286	1520.852	1206.657
167.964	24.579	1519.780	1207.685
168.979	24.751	1518.708	1207.883
169.994	24.564	1519.163	1206.874
171.008	24.322	1517.782	1204.038
172.023	24.286	1515.967	1202.248
173.037	24.467	1514.838	1202.470
174.052	24.446	1515.203	1202.512
175.067	24.795	1513.416	1203.332
176.081	24.835	1512.294	1202.600
177.096	24.546	1511.302	1199.768
178.110	24.346	1509.198	1196.649
179.125	24.205	1509.589	1195.906
180.140	24.326	1507.750	1195.153
181.154	24.511	1506.908	1195.623
182.169	24.500	1505.587	1194.396
183.183	24.792	1505.033	1195.801
184.198	24.579	1504.718	1194.020
185.213	24.688	1502.938	1193.229
186.227	24.464	1503.522	1192.091
187.242	24.723	1501.543	1192.145
188.256	24.787	1501.953	1192.793
189.271	24.807	1500.552	1191.707
190.286	24.620	1499.482	1189.506
191.300	24.724	1498.313	1189.162
192.315	24.841	1496.807	1188.640
193.329	24.282	1495.762	1183.994
194.344	24.721	1495.050	1186.244
195.359	24.640	1494.117	1184.860
196.373	24.587	1492.448	1183.078
197.388	24.127	1492.126	1179.672
198.402	24.093	1490.727	1178.235
199.417	24.320	1489.555	1178.705
200.432	24.562	1489.389	1180.069
201.446	24.792	1490.202	1182.133
202.461	24.766	1488.055	1180.152
203.475	24.775	1487.182	1179.417
204.490	24.640	1487.004	1178.277
205.504	24.624	1485.963	1177.245
206.519	24.476	1483.760	1174.419
207.534	24.459	1483.295	1173.837
208.548	24.315	1482.195	1171.919
209.563	24.213	1480.826	1170.058
210.577	24.266	1479.164	1168.991
211.592	24.090	1478.419	1167.147
212.607	24.027	1478.639	1166.804
213.621	24.577	1479.095	1170.662
214.636	25.231	1476.966	1173.154
215.650	24.750	1476.099	1169.221
216.665	24.468	1476.084	1167.260
217.680	24.514	1475.452	1166.958
218.694	24.776	1474.881	1168.114
219.709	24.895	1473.780	1167.911
220.723	24.624	1473.193	1165.579
221.738	24.673	1471.622	1164.549
222.753	24.492	1470.981	1162.762
223.767	24.623	1469.151	1162.067
224.782	24.514	1468.425	1160.678
225.796	24.477	1467.954	1159.967
226.811	24.718	1467.166	1160.806
227.826	25.105	1466.233	1162.472
228.840	24.792	1465.935	1160.105
229.855	24.595	1465.537	1158.408
230.869	24.463	1463.567	1155.892
231.884	24.328	1463.727	1155.047
232.899	24.567	1462.256	1155.326
233.913	24.052	1461.506	1151.302
234.928	24.402	1458.023	1150.715
235.942	24.437	1457.985	1150.806
236.957	24.321	1457.536	1149.606
237.972	24.045	1455.699	1146.276
238.986	23.934	1454.322	1144.375
240.001	23.938	1454.384	1144.348
241.015	23.998	1453.542	1143.972
242.030	24.254	1451.445	1143.864
243.045	24.166	1451.241	1143.038
244.059	24.444	1449.633	1143.452
245.074	24.479	1449.457	1143.433
246.088	24.542	1448.974	1143.354
247.103	24.480	1449.045	1142.911
248.117	24.579	1448.533	1143.045
249.132	24.789	1447.777	1143.688
250.147	24.987	1446.292	1143.679
251.161	24.921	1447.943	1144.462
252.176	25.434	1445.974	1146.074
253.190	25.501	1445.526	1146.048
254.205	25.485	1444.008	1144.637
255.220	25.448	1444.256	1144.500
256.234	25.731	1442.938	1145.152
257.249	25.591	1442.450	1143.774
258.263	25.505	1441.836	1142.640
259.278	25.517	1440.812	1141.807
260.293	25.506	1439.192	1140.350
261.307	25.232	1438.287	1137.795
262.322	25.534	1437.456	1138.951
263.336	25.433	1436.561	1137.500
264.351	25.445	1436.234	1137.218
265.366	25.330	1435.148	1135.528
266.380	25.533	1434.755	1136.400
267.395	25.398	1434.226	1135.029
268.409	25.443	1433.450	1134.597
269.424	25.722	1430.968	1134.293
270.439	25.519	1430.103	1132.225
271.453	25.234	1429.831	1130.115
272.468	25.295	1428.659	1129.472
273.482	25.233	1427.394	1127.983
274.497	24.991	1427.286	1126.274
275.512	25.128	1425.335	1125.498
276.526	24.987	1425.271	1124.464
277.541	25.052	1423.988	1123.756
278.555	25.021	1422.842	1122.563
279.570	25.149	1422.689	1123.140
280.585	25.435	1421.685	1124.038
281.599	25.589	1421.934	1125.105
282.614	25.661	1420.879	1124.620
283.628	25.231	1420.296	1121.369
284.643	25.166	1418.180	1119.196
285.657	25.121	1417.300	1118.117
286.672	25.148	1416.970	1117.930
287.687	25.265	1414.877	1116.905
288.701	25.024	1414.683	1115.157
289.716	25.262	1414.312	1116.246
290.730	25.084	1413.881	1114.698
291.745	25.117	1412.809	1113.959
292.760	25.086	1411.811	1112.883
293.774	25.208	1410.362	1112.395
294.789	25.302	1408.815	1111.664
295.803	25.255	1410.413	1112.534
296.818	25.445	1409.313	1112.744
297.833	25.379	1407.327	1110.669
298.847	25.276	1406.154	1109.005
299.862	25.333	1404.467	1107.932
300.876	25.333	1404.142	1107.576
301.891	24.927	1402.986	1104.065
302.906	25.043	1404.123	1105.577
303.920	25.411	1402.771	1106.685
304.935	25.714	1402.309	1108.089
305.949	25.762	1401.465	1107.618
306.964	25.785	1400.896	1107.209
307.979	25.558	1401.010	1105.806
308.993	25.618	1399.074	1104.549
310.008	25.456	1397.595	1102.287
311.022	25.538	1396.822	1102.082
312.037	25.602	1395.555	1101.382
313.052	25.529	1393.951	1099.572
314.066	25.415	1394.312	1099.063
315.081	25.299	1392.646	1096.943
316.095	25.047	1391.929	1094.737
317.110	25.087	1390.000	1093.368
318.125	24.739	1389.780	1090.978
319.139	25.115	1388.806	1092.410
320.154	25.041	1386.589	1090.116
321.168	24.949	1386.348	1089.273
322.183	25.140	1385.601	1089.752
323.197	25.054	1384.649	1088.383
324.212	25.346	1382.949	1088.720
325.227	25.036	1383.982	1087.555
326.241	25.278	1382.749	1087.956
327.256	25.406	1381.713	1087.823
328.270	25.090	1382.264	1086.247
329.285	24.989	1381.171	1084.680
330.300	24.999	1379.617	1083.422
331.314	24.882	1378.560	1081.786
332.329	25.342	1377.904	1083.956
333.343	25.290	1375.913	1081.983
334.358	25.185	1375.239	1080.725
335.373	25.445	1375.464	1082.370
336.387	25.498	1374.406	1081.758
337.402	25.484	1374.786	1081.878
338.416	25.624	1373.625	1081.713
339.431	25.507	1373.712	1080.982
340.446	25.652	1373.476	1081.573
341.460	25.823	1371.710	1081.111
342.475	25.640	1372.093	1080.217
343.489	25.860	1371.467	1080.949
344.504	26.045	1369.652	1080.530
345.519	26.195	1368.033	1080.058
346.533	26.027	1367.727	1078.714
347.548	26.457	1366.676	1080.357
348.562	26.133	1366.528	1078.214
349.577	26.324	1365.395	1078.364
350.592	26.184	1363.979	1076.311
351.606	25.960	1363.187	1074.260
352.621	25.687	1362.193	1071.756
353.635	25.547	1361.087	1069.955
354.650	25.640	1358.925	1068.718
355.665	25.457	1358.833	1067.460
356.679	25.483	1357.439	1066.429
357.694	25.672	1357.034	1067.133
358.708	25.771	1355.526	1066.440
359.723	25.628	1355.398	1065.402
360.738	25.759	1354.344	1065.254
361.752	25.682	1353.353	1063.925
362.767	25.717	1352.132	1063.075
363.781	25.635	1350.742	1061.407
364.796	25.673	1350.403	1061.271
365.810	25.717	1350.139	1061.224
366.825	26.057	1349.284	1062.463
367.840	26.163	1349.555	1063.206
368.854	26.161	1347.795	1061.716
369.869	26.263	1348.603	1062.858
370.883	26.412	1348.403	1063.483
371.898	26.158	1346.943	1060.746
372.913	25.859	1345.968	1058.128
373.927	25.731	1344.807	1056.366
374.942	25.792	1344.006	1056.001
375.956	25.996	1342.417	1055.856
376.971	26.049	1343.013	1056.542
377.986	25.977	1341.359	1054.727
379.000	26.126	1340.103	1054.514
380.015	26.166	1339.908	1054.500
381.029	26.326	1340.409	1055.737
382.044	26.387	1339.646	1055.403
383.059	26.562	1337.660	1054.761
384.073	26.451	1337.577	1053.956
385.088	26.442	1335.859	1052.458
386.102	26.185	1336.711	1051.536
387.117	26.350	1336.099	1051.927
388.132	26.374	1334.678	1050.853
389.146	25.894	1333.884	1047.342
390.161	25.694	1333.557	1045.836
391.175	25.742	1332.256	1044.999
392.190	25.894	1330.520	1044.426
393.205	25.809	1329.943	1043.388
394.219	26.173	1329.458	1045.026
395.234	26.402	1328.394	1045.418
396.248	26.337	1326.746	1043.653
397.263	25.885	1325.625	1040.071
398.278	25.994	1324.761	1039.931
399.292	25.853	1323.530	1038.061
400.307	25.926	1322.487	1037.571
401.321	26.020	1321.952	1037.599
402.336	25.958	1319.951	1035.580
403.350	25.769	1320.215	1034.609
404.365	25.579	1318.824	1032.341
405.380	25.766	1317.980	1032.660
406.394	26.143	1317.013	1033.970
407.409	26.033	1316.845	1033.115
408.423	26.173	1315.826	1033.024
409.438	26.352	1316.154	1034.220
410.453	26.422	1314.827	1033.484
411.467	26.003	1315.081	1031.197
412.482	26.546	1314.063	1033.410
413.496	26.513	1313.552	1032.727
414.511	26.177	1313.173	1030.421
415.526	26.409	1312.335	1030.992
416.540	26.692	1310.993	1031.459
417.555	26.637	1311.308	1031.305
418.569	26.641	1310.461	1030.566
419.584	26.679	1308.263	1028.966
420.599	26.501	1308.844	1028.321
421.613	143.216	1435.261	1793.633
422.628	138.880	1453.576	1793.724
